1592936512.00
64.000000
-0.00
-0.00
-0.00
-0.00
-0.00
-0.00
-0.00
-0.00
-0.00
-0.00
0.00
0.01
0.01
-0.00
-0.03
-0.05
-0.05
0.00
0.13
0.36
0.66
1.01
1.37
1.72
2.06
2.40
2.79
3.24
3.80
4.42
5.06
5.66
6.20
6.68
7.15
7.68
8.31
9.14
10.09
11.04
11.88
12.56
13.14
13.76
14.65
15.96
17.91
20.32
22.90
25.38
27.58
29.57
31.68
34.32
37.81
42.54
48.15
54.10
59.83
64.97
69.58
74.14
79.34
85.71
93.76
103.00
112.62
121.73
129.77
136.75
143.30
150.75
157.77
166.64
177.95
191.79
206.97
220.57
228.25
225.36
208.53
176.87
132.76
80.05
23.07
-34.94
-92.44
-149.16
-205.23
-260.37
-313.74
-363.87
-409.83
-450.91
-486.50
-515.74
-537.23
-549.22
-549.96
-538.37
-514.20
-478.67
-433.88
-382.45
-327.03
-269.85
-212.63
-156.64
-102.92
-52.33
-5.88
35.56
71.31
101.13
125.17
143.96
158.22
168.66
175.87
180.22
181.98
181.39
178.74
174.40
168.79
162.33
155.34
148.02
140.47
132.73
124.84
116.89
109.03
101.37
94.02
86.97
80.14
73.43
66.77
60.18
53.78
47.77
42.31
37.46
33.10
29.01
24.90
20.61
16.14
11.75
7.76
4.49
2.02
0.18
-1.45
-3.31
-5.66
-8.47
-11.39
-13.92
-15.73
-16.74
-17.21
-17.58
-18.21
-19.29
-20.93
-23.37
-26.74
-30.83
-34.60
-36.14
-33.28
-24.67
-10.73
6.34
23.42
37.90
48.64
56.00
60.94
63.99
64.76
62.36
56.28
47.17
36.85
27.61
21.20
18.20
17.86
18.74
19.18
18.12
15.37
11.62
8.07
5.88
5.65
7.00
8.99
10.39
10.21
8.07
4.15
-0.93
-6.20
-10.40
-12.06
-9.74
-2.65
8.66
21.94
33.51
39.33
36.58
24.89
6.68
-13.88
-32.32
-45.66
-53.02
-55.43
-55.03
-54.03
-54.21
-56.33
-59.60
-61.49
-58.47
-47.40
-27.48
-1.17
26.58
50.54
67.41
76.83
80.59
80.30
76.66
69.54
59.18
47.22
36.14
27.65
21.04
13.22
0.39
-19.14
-43.48
-67.72
-85.60
-92.34
-86.26
-69.02
-45.05
-20.12
0.33
12.64
15.79
11.57
3.61
-4.10
-8.53
-8.34
-3.86
3.50
11.78
18.84
22.91
23.32
21.06
18.63
18.58
21.82
26.67
29.61
27.28
18.46
4.78
-10.06
-22.02
-28.02
-26.21
-15.90
2.48
27.16
54.69
80.19
98.56
106.42
103.35
91.73
75.36
57.81
41.38
27.20
15.68
6.81
-0.01
-6.37
-14.09
-25.05
-40.24
-58.95
-78.73
-96.30
-108.90
-115.32
-116.31
-113.92
-110.55
-107.67
-105.60
-103.75
-101.46
-98.50
-95.26
-92.32
-90.05
-88.32
-86.57
-84.15
-80.61
-75.90
-70.31
-64.14
-57.61
-50.75
-43.60
-36.18
-28.46
-20.24
-11.03
-0.14
13.09
29.14
48.18
69.88
93.41
117.37
139.88
158.94
173.01
181.58
185.52
186.75
187.34
188.60
190.49
191.71
190.63
186.27
178.88
169.85
161.02
153.72
148.34
144.39
140.79
136.18
129.24
118.61
103.32
83.82
62.73
44.92
36.17
40.97
60.22
90.32
124.19
154.16
175.18
186.57
191.61
194.98
199.90
206.37
211.51
211.61
204.51
190.89
173.69
156.36
140.93
127.14
112.97
96.08
75.44
52.05
28.32
6.68
-11.44
-26.30
-39.55
-53.22
-68.66
-85.83
-103.24
-118.54
-129.58
-135.40
-136.90
-136.74
-138.33
-144.60
-156.92
-174.82
-196.90
-222.20
-251.27
-285.66
-325.92
-369.43
-410.14
-440.73
-456.19
-456.53
-446.45
-432.44
-419.27
-408.32
-398.91
-391.17
-387.77
-392.78
-408.22
-430.69
-451.17
-458.67
-445.78
-412.70
-367.20
-320.36
-281.02
-252.12
-230.39
-209.40
-183.66
-151.18
-113.87
-75.44
-38.90
-4.92
28.04
62.24
98.83
136.73
172.85
203.22
224.68
236.22
239.53
238.53
238.06
241.79
250.32
260.41
265.95
260.47
240.09
205.61
162.59
119.48
84.58
63.42
57.54
64.97
81.53
102.02
120.84
132.38
131.71
115.87
85.22
44.20
0.58
-36.69
-60.11
-65.76
-53.84
-27.56
8.55
50.19
93.65
135.32
171.22
197.43
211.36
213.15
205.98
194.92
184.62
176.95
170.20
160.21
142.82
116.27
82.19
44.89
9.45
-20.17
-42.09
-56.22
-63.31
-63.91
-57.84
-44.19
-22.00
9.07
47.91
91.68
135.91
175.56
206.37
226.22
235.69
237.59
235.50
232.18
228.53
223.62
215.63
203.15
185.99
165.12
142.02
118.00
93.75
69.44
45.19
21.47
-0.96
-21.22
-38.70
-52.63
-61.76
-64.47
-59.56
-47.13
-29.23
-9.89
5.84
13.35
10.29
-2.23
-19.62
-35.26
-42.06
-34.82
-12.24
22.16
60.14
91.69
108.47
106.51
86.01
51.18
8.18
-37.65
-82.91
-128.20
-175.46
-225.81
-278.96
-334.66
-390.57
-441.46
-479.92
-497.84
-493.14
-469.22
-433.66
-396.18
-367.45
-352.58
-348.41
-345.27
-330.29
-298.09
-249.42
-189.49
-127.07
-75.41
-45.60
-42.57
-63.89
-99.80
-143.76
-190.46
-235.59
-251.56
-222.13
-152.65
-68.37
-13.44
10.73
10.51
-7.69
-29.90
-46.51
-53.72
-50.56
-37.30
-14.62
18.52
57.52
97.66
136.57
172.67
202.96
225.94
243.38
260.26
284.67
319.77
366.11
422.28
483.57
540.86
583.82
604.18
598.41
569.52
522.38
463.84
400.93
338.25
276.96
216.60
156.95
98.98
44.81
-5.14
-52.02
-98.13
-146.52
-199.58
-257.23
-315.93
-368.73
-407.21
-424.86
-419.22
-392.76
-351.89
-304.24
-255.94
-210.07
-166.92
-125.54
-85.38
-46.87
-10.80
22.85
55.88
91.82
134.82
187.77
250.29
317.52
380.52
428.64
452.99
449.69
421.29
375.58
322.20
268.73
218.18
169.07
117.91
62.33
3.46
-53.74
-102.12
-134.79
-147.09
-137.36
-106.77
-58.99
0.00
61.96
117.02
155.45
170.25
159.38
126.64
80.33
30.02
-16.57
-55.84
-88.48
-118.06
-148.89
-184.01
-224.04
-266.74
-307.41
-340.01
-358.91
-360.78
-345.92
-318.22
-283.89
-249.30
-219.07
-195.16
-177.24
-163.86
-153.66
-145.97
-140.59
-137.21
-134.97
-132.46
-128.33
-121.99
-114.22
-106.82
-101.81
-100.67
-103.76
-110.38
-118.96
-127.42
-133.19
-133.48
-125.67
-107.91
-79.92
-43.21
-0.72
44.20
88.81
131.80
173.36
214.61
256.71
300.04
343.61
384.98
420.64
446.82
460.54
460.49
447.38
423.72
392.83
357.96
321.44
284.38
246.73
207.65
166.01
120.96
72.47
21.74
-28.70
-75.51
-115.21
-145.16
-164.21
-172.91
-173.12
-167.18
-157.17
-144.39
-129.33
-112.18
-93.31
-73.66
-54.54
-37.27
-22.48
-9.88
1.64
13.42
26.28
40.09
53.85
66.27
76.39
84.11
90.06
95.11
99.73
103.53
104.99
101.84
91.57
71.85
40.99
-1.60
-54.61
-114.02
-172.80
-221.95
-252.81
-259.99
-243.33
-207.75
-160.87
-109.46
-56.80
-2.41
55.71
117.78
180.11
235.32
275.06
293.49
289.61
267.25
232.99
193.16
151.72
109.41
64.66
15.25
-40.24
-101.29
-164.74
-224.94
-274.11
-303.78
-306.54
-278.46
-221.13
-142.45
-55.47
25.12
87.30
125.12
139.13
134.41
117.17
92.23
62.42
29.50
-4.78
-38.66
-71.30
-103.61
-137.73
-175.33
-215.56
-254.58
-287.24
-309.73
-321.43
-324.50
-322.33
-317.99
-313.98
-312.88
-317.25
-328.56
-345.15
-361.34
-368.98
-360.80
-333.99
-291.54
-240.56
-188.51
-140.02
-95.42
-51.94
-6.21
43.41
95.84
147.74
194.69
232.74
259.56
275.07
281.32
281.55
278.86
275.18
270.62
264.10
254.45
241.32
225.56
208.68
192.24
177.19
163.89
152.34
142.63
135.18
130.35
127.91
126.70
124.99
121.29
115.28
107.91
101.36
97.90
98.54
102.13
105.52
105.11
98.54
85.93
68.90
50.38
33.67
21.42
15.15
15.11
20.60
30.10
40.68
46.82
44.07
32.37
17.58
9.06
14.92
37.29
70.72
103.91
122.34
116.97
88.53
46.27
1.71
-37.49
-69.80
-97.49
-123.78
-153.46
-188.25
-226.16
-262.91
-295.22
-322.35
-345.89
-366.32
-362.91
-322.59
-248.52
-159.37
-74.79
-5.05
48.80
88.75
119.90
144.99
161.76
167.36
160.05
142.86
119.74
94.26
68.29
48.75
41.72
49.50
70.93
101.16
132.96
157.64
169.15
160.37
134.30
96.57
52.40
4.51
-47.85
-107.10
-174.75
-235.20
-297.63
-346.94
-370.42
-360.68
-317.80
-249.89
-170.60
-95.86
-39.38
-12.04
-13.91
-42.53
-92.88
-158.30
-230.53
-299.52
-354.58
-386.75
-393.30
-374.15
-336.78
-291.98
-249.88
-216.89
-194.47
-180.20
-169.90
-160.63
-148.57
-132.65
-113.06
-90.94
-67.94
-45.69
-25.25
-6.77
10.10
27.51
47.13
70.01
96.09
124.17
152.24
178.22
200.68
219.36
236.12
254.21
277.85
310.47
352.74
400.78
446.02
477.01
482.96
457.46
400.83
320.11
226.79
133.49
50.95
-13.62
-56.71
-78.05
-79.63
-65.16
-39.30
-6.70
29.26
67.42
108.61
154.17
203.65
253.38
296.38
324.27
330.24
311.40
269.10
207.28
130.49
42.68
-51.88
-146.92
-233.41
-300.99
-341.49
-352.38
-338.12
-308.15
-272.83
-239.40
-210.16
-183.40
-155.81
-124.97
-90.17
-51.92
-10.90
32.51
77.78
123.45
166.59
203.20
228.81
239.89
234.87
214.57
182.24
142.93
102.66
67.22
41.04
26.40
23.16
29.20
41.23
55.72
69.45
79.58
83.57
79.39
66.10
44.69
18.48
-7.28
-27.10
-37.24
-37.16
-29.62
-19.33
-10.78
-6.55
-6.97
-10.84
-16.63
-23.23
-29.73
-34.68
-35.71
-29.97
-15.48
7.57
36.33
65.98
91.46
108.99
117.01
116.01
107.72
94.29
77.86
60.29
43.33
28.38
16.33
7.28
0.60
-4.65
-9.42
-14.22
-19.12
-23.89
-28.11
-31.38
-33.46
-34.45
-34.95
-35.99
-38.65
-43.38
-49.57
-55.50
-58.94
-58.08
-52.36
-42.67
-30.94
-19.39
-9.76
-3.12
0.12
-0.20
-3.91
-10.44
-18.40
-25.72
-30.00
-29.35
-23.19
-12.59
0.04
11.83
20.42
24.77
25.38
23.81
21.89
20.81
20.64
20.41
18.82
14.97
8.99
1.89
-4.96
-10.52
-14.45
-16.90
-18.00
-17.50
-14.81
-9.53
-1.98
6.64
14.60
20.42
23.51
24.40
24.37
24.57
25.29
25.70
24.30
19.96
12.89
4.99
-0.84
-1.98
2.56
11.69
22.91
33.60
42.35
49.13
54.69
59.39
62.65
63.24
60.24
53.90
45.66
37.46
30.88
26.49
23.96
22.52
21.45
20.07
17.65
13.27
6.13
-3.94
-16.08
-28.50
-39.12
-46.35
-49.73
-49.83
-47.89
-45.14
-42.43
-40.12
-38.33
-36.99
-36.00
-35.14
-34.13
-32.64
-30.37
-27.18
-23.07
-18.35
-13.71
-10.26
-9.34
-12.00
-18.41
-27.56
-37.53
-46.24
-52.38
-55.82
-57.28
-57.57
-56.85
-54.45
-49.45
-41.49
-31.26
-20.48
-11.05
-4.16
0.31
3.57
7.14
11.84
17.15
21.41
22.59
19.39
11.98
1.96
-8.30
-16.68
-22.21
-25.16
-26.68
-27.98
-29.85
-32.47
-35.63
-39.09
-42.66
-46.23
-49.65
-52.68
-55.04
-56.66
-57.55
-57.84
-57.54
-56.33
-53.61
-48.64
-40.89
-30.41
-18.06
-5.37
5.90
14.27
19.07
20.50
19.43
16.91
13.77
10.46
7.39
4.77
2.74
1.21
-0.31
-2.67
-6.86
-13.52
-22.39
-31.90
-39.75
-43.66
-42.20
-35.41
-24.76
-12.75
-2.17
4.63
6.65
3.82
-3.25
-13.65
-26.51
-41.26
-57.71
-75.87
-95.24
-113.23
-126.52
-131.84
-126.76
-110.01
-81.75
-43.74
0.76
47.54
93.98
136.55
171.09
194.15
205.37
208.51
210.38
218.14
236.76
270.00
315.44
365.58
410.91
444.04
461.83
464.78
455.00
435.28
412.26
390.07
369.80
349.99
328.86
305.74
281.04
255.39
201.16
107.35
-17.10
-148.13
-264.85
-359.22
-431.98
-484.27
-520.25
-539.66
-536.99
-511.12
-466.55
-412.14
-355.29
-302.58
-260.46
-231.76
-214.22
-196.51
-173.82
-145.79
-113.57
-80.09
-44.76
-5.31
39.90
90.24
143.38
192.63
230.26
250.24
250.88
236.02
212.97
189.52
171.06
159.76
153.37
148.23
141.14
130.78
118.02
104.70
92.64
82.85
75.21
67.43
56.33
38.54
11.52
-25.19
-69.41
-116.28
-159.95
-195.73
-222.44
-241.04
-252.63
-256.95
-252.19
-236.56
-210.02
-175.16
-136.45
-99.52
-67.45
-39.64
-13.49
12.50
37.08
57.44
71.83
80.89
85.25
85.89
83.35
77.26
66.30
49.23
26.44
0.21
-27.47
-58.44
-95.62
-139.69
-187.78
-234.70
-275.35
-306.25
-326.14
-316.89
-269.83
-192.52
-105.62
-28.29
31.43
75.03
107.60
133.63
150.90
155.66
143.83
115.30
75.02
30.35
-12.63
-51.50
-75.93
-84.37
-82.52
-78.85
-79.38
-85.41
-94.71
-103.22
-105.75
-96.33
-71.66
-32.82
13.93
57.95
87.39
93.73
75.80
41.52
5.28
-19.75
-26.80
-17.79
-1.47
11.60
13.91
3.65
-15.31
-35.54
-49.87
-54.23
-45.42
-23.08
10.48
50.43
90.05
121.88
139.74
140.07
123.49
94.86
61.52
31.20
10.10
1.20
3.74
13.93
26.17
35.31
38.45
35.54
29.37
24.69
26.19
36.74
56.39
82.53
110.84
136.97
157.58
169.22
170.87
163.82
151.35
137.94
127.97
123.99
125.31
127.59
124.33
109.86
81.64
41.48
-5.15
-51.47
-91.70
-122.47
-142.71
-152.61
-152.51
-143.20
-126.59
-106.24
-86.80
-72.56
-65.90
-66.67
-72.61
-80.72
-88.78
-96.03
-102.86
-109.89
-117.22
-124.15
-129.48
-132.03
-130.99
-126.19
-117.93
-106.80
-93.46
-78.42
-62.17
-45.22
-28.37
-12.55
1.16
11.91
19.36
23.71
25.51
25.42
23.81
20.85
16.69
11.75
6.89
3.24
1.87
3.36
7.56
13.58
19.94
24.99
27.35
26.28
22.01
15.68
8.93
3.37
-0.03
-1.16
-0.66
0.47
1.36
1.56
0.97
-0.26
-1.91
-3.74
-5.44
-6.64
-7.02
-6.40
-4.89
-2.82
-0.61
1.47
3.31
4.99
6.58
8.06
9.32
10.31
11.06
11.71
12.42
13.18
13.82
14.07
13.70
12.64
10.99
8.98
6.97
5.41
4.83
5.66
8.14
12.03
16.64
20.95
24.03
25.39
25.16
23.93
22.37
20.88
19.49
17.99
16.23
14.35
12.77
11.99
12.31
13.75
16.08
18.94
22.01
24.99
27.61
29.55
30.60
30.79
30.49
30.34
30.95
32.59
34.96
37.20
38.25
37.35
34.35
29.91
25.22
21.64
20.21
21.36
24.79
29.73
35.17
40.22
44.31
47.23
49.13
50.40
51.52
52.97
55.00
57.56
60.20
62.22
62.87
61.70
58.71
54.32
49.31
44.52
40.72
38.47
38.02
39.18
41.29
43.22
43.68
41.47
35.87
26.76
14.50
-0.26
-16.83
-34.48
-52.34
-69.34
-84.19
-95.67
-102.91
-105.60
-103.94
-98.61
-90.53
-80.73
-70.27
-60.13
-51.14
-43.79
-38.20
-34.09
-30.92
-28.08
-25.05
-21.45
-17.11
-12.01
-6.26
-0.04
6.48
13.14
19.77
26.06
31.52
35.43
37.07
36.03
32.52
27.35
21.70
16.59
12.47
9.03
5.37
0.46
-6.39
-15.26
-25.63
-36.71
-47.78
-58.29
-67.82
-75.98
-82.34
-86.39
-87.80
-86.63
-83.67
-80.09
-76.97
-74.80
-73.40
-72.23
-70.78
-68.73
-66.12
-63.67
-62.05
-61.38
-60.89
-59.16
-54.69
-46.41
-33.97
-17.87
-0.18
16.69
31.07
42.91
53.44
64.10
75.39
86.46
95.02
97.29
90.04
72.02
44.87
12.38
-21.12
-52.15
-78.35
-92.09
-87.50
-63.82
-27.27
13.10
50.43
81.60
105.67
123.06
133.96
138.10
135.90
128.17
116.53
103.50
91.28
80.40
70.93
61.86
52.16
41.74
30.61
19.63
10.33
3.92
-0.88
-2.20
-0.83
2.13
11.04
27.16
48.51
71.19
91.33
101.92
101.82
90.02
66.07
29.75
-16.85
-72.06
-133.67
-189.36
-228.54
-245.42
-242.65
-227.24
-205.74
-183.11
-162.03
-143.08
-125.82
-111.07
-99.49
-91.97
-88.21
-86.56
-85.74
-84.91
-83.15
-79.53
-74.52
-68.52
-61.94
-57.39
-52.11
-43.99
-32.10
-15.99
4.24
27.31
51.66
75.78
99.99
122.80
142.86
159.17
171.52
180.08
184.78
185.73
183.23
177.90
170.71
162.57
153.87
145.15
136.89
129.36
122.16
114.98
107.59
99.72
91.04
80.69
68.32
53.75
36.94
18.00
-2.71
-24.53
-46.95
-66.06
-81.78
-94.20
-103.47
-109.81
-113.60
-115.26
-115.04
-113.50
-111.14
-108.81
-106.71
-104.92
-103.49
-102.46
-101.73
-100.92
-99.99
-98.69
-97.01
-94.52
-90.79
-85.53
-78.67
-72.11
-64.62
-56.06
-46.53
-36.53
-26.42
-16.66
-7.86
-0.65
4.59
8.04
9.66
9.82
9.12
8.46
8.55
10.08
13.45
19.12
27.49
38.15
50.40
63.44
76.89
90.70
105.48
121.26
137.83
154.99
171.31
185.02
194.71
199.90
200.06
195.26
186.11
173.79
159.89
145.96
133.51
123.67
117.39
113.07
108.59
102.99
96.26
89.00
81.68
74.61
67.73
61.50
53.22
40.41
21.88
-1.85
-28.97
-57.46
-85.66
-112.52
-136.37
-160.29
-187.70
-220.80
-259.96
-304.13
-352.00
-402.51
-454.96
-488.94
-491.20
-458.16
-397.80
-324.25
-249.45
-179.88
-116.80
-66.89
-23.54
15.29
49.43
78.51
102.48
122.05
136.74
146.61
149.35
144.11
127.94
100.44
65.12
26.97
-8.92
-40.59
-68.42
-94.16
-117.74
-140.34
-162.53
-184.18
-206.60
-225.06
-236.81
-240.67
-236.97
-226.10
-209.83
-194.42
-179.87
-165.27
-147.76
-124.26
-90.98
-44.23
17.50
93.11
179.92
275.27
367.80
445.04
496.18
516.71
509.33
481.37
440.93
394.42
346.44
299.07
254.44
214.25
180.02
152.48
131.08
114.31
100.22
87.20
73.71
59.83
46.62
35.60
27.98
23.88
22.42
22.14
21.57
19.39
15.62
11.24
7.91
7.11
9.40
14.15
20.10
25.67
29.60
31.59
32.33
33.11
34.99
38.64
44.21
52.05
62.06
72.93
81.44
82.86
72.38
47.49
10.72
-33.53
-77.79
-115.23
-142.35
-159.74
-170.78
-179.32
-187.77
-196.36
-203.96
-208.87
-210.09
-207.62
-201.97
-193.68
-183.38
-171.77
-159.85
-149.38
-142.35
-140.37
-143.33
-148.55
-150.75
-144.23
-125.51
-95.39
-59.20
-24.63
1.36
15.29
17.88
13.23
5.71
-1.96
-9.34
-17.19
-25.94
-34.76
-41.97
-46.13
-46.47
-43.97
-40.63
-38.43
-37.88
-37.57
-34.32
-23.95
-7.28
15.05
40.97
67.78
92.95
115.24
135.09
154.43
175.93
202.02
235.45
278.16
330.52
390.20
451.54
506.29
545.82
564.19
559.64
536.32
502.10
465.29
431.61
402.91
378.12
355.31
333.42
310.32
284.95
256.96
226.30
192.97
157.00
119.03
80.82
45.08
10.24
-24.98
-60.09
-93.35
-123.04
-148.84
-171.47
-191.62
-209.22
-230.64
-260.74
-299.86
-344.93
-391.64
-437.56
-482.07
-524.97
-565.14
-609.97
-665.37
-731.56
-804.80
-879.41
-952.25
-1023.06
-1093.14
-1108.72
-1040.66
-897.87
-720.23
-548.02
-397.18
-265.62
-146.63
-36.99
62.86
140.91
184.74
199.05
194.03
184.23
179.86
184.97
199.99
226.65
260.24
296.97
336.66
373.58
404.11
422.11
420.93
383.84
308.27
202.59
84.15
-20.15
-106.74
-173.63
-218.16
-239.04
-234.34
-203.62
-153.89
-96.84
-44.11
-3.99
24.02
43.65
58.67
71.50
83.85
95.81
106.37
114.61
121.80
131.70
145.61
161.41
175.19
182.97
183.73
176.95
162.09
143.74
127.68
115.49
104.25
89.68
67.00
38.27
6.93
-23.79
-42.65
-39.39
-11.84
34.52
91.11
146.88
200.92
254.11
306.91
370.55
454.97
560.15
677.86
796.69
902.44
994.56
1075.50
1074.46
950.30
716.10
432.42
165.50
-12.32
-122.11
-187.60
-224.31
-239.42
-238.09
-216.31
-176.38
-125.67
-75.03
-39.05
-19.13
-13.41
-19.39
-25.93
-22.63
-28.69
-57.14
-109.23
-178.89
-250.79
-314.86
-367.50
-403.41
-418.86
-415.34
-396.50
-368.96
-341.84
-317.56
-295.89
-275.14
-250.96
-219.55
-179.58
-130.60
-75.14
-19.57
31.04
71.07
96.62
108.44
104.97
91.42
76.92
68.94
63.80
57.69
45.76
25.63
-1.06
-29.62
-54.61
-72.88
-84.96
-93.46
-99.66
-103.49
-103.57
-99.39
-92.20
-83.93
-77.10
-73.48
-73.23
-74.13
-73.14
-66.93
-53.13
-31.37
-3.22
27.12
53.53
69.63
71.45
56.60
29.94
-0.04
-25.13
-40.48
-46.00
-45.18
-42.23
-39.50
-37.11
-33.71
-28.92
-24.12
-21.68
-23.32
-28.91
-36.33
-42.64
-45.37
-43.62
-38.77
-33.47
-30.62
-32.06
-38.41
-48.73
-60.30
-68.82
-69.14
-57.39
-32.84
0.93
37.27
68.57
89.34
98.29
98.01
93.08
87.19
82.59
77.66
71.01
62.27
52.56
43.91
37.79
34.43
32.75
31.19
28.24
23.79
18.63
14.05
11.25
10.55
11.35
12.44
12.61
11.00
7.84
3.95
0.49
-1.44
-1.56
-0.20
1.81
3.57
4.32
3.86
2.35
-0.84
-4.71
-8.82
-13.05
-17.46
-22.04
-26.67
-31.01
-34.63
-37.25
-38.67
-39.13
-39.06
-38.94
-38.99
-39.22
-39.43
-39.27
-38.63
-37.48
-36.17
-35.09
-34.51
-34.17
-33.36
-30.99
-26.09
-18.19
-7.41
5.42
19.12
32.45
44.90
56.56
67.14
77.54
88.03
98.09
106.54
113.13
116.26
115.76
112.56
108.29
104.79
103.52
105.39
110.79
119.09
127.78
132.95
130.04
115.69
89.80
56.13
21.12
-8.15
-26.76
-33.97
-32.23
-25.45
-16.86
-7.81
1.81
12.02
22.57
32.63
40.29
44.66
46.30
46.91
48.37
51.80
56.42
60.97
64.09
62.95
55.91
42.92
25.04
2.74
-19.75
-41.59
-63.15
-85.38
-111.78
-143.94
-179.90
-214.54
-242.17
-259.32
-266.72
-267.70
-266.48
-270.04
-281.82
-300.68
-322.18
-342.06
-358.41
-372.07
-384.07
-371.21
-321.17
-237.01
-136.22
-38.48
44.07
107.85
154.40
187.75
212.29
227.53
233.28
230.95
223.84
215.43
208.11
202.57
198.62
195.46
189.20
177.38
159.60
137.70
114.16
91.01
69.07
48.44
32.84
20.16
8.57
-2.62
-12.73
-20.61
-25.39
-27.15
-26.55
-24.06
-21.59
-20.03
-19.79
-20.42
-21.10
-20.89
-19.45
-16.99
-13.46
-9.60
-5.67
-2.10
0.97
2.06
2.51
4.53
7.10
10.02
11.74
13.60
15.93
19.01
23.17
29.15
37.42
47.47
59.19
72.33
86.56
100.26
112.12
121.47
128.70
134.57
138.87
141.89
144.32
146.28
145.65
140.73
130.96
117.41
102.13
85.80
69.44
54.70
41.52
26.18
5.10
-24.15
-62.51
-102.06
-138.81
-169.84
-192.22
-206.70
-219.27
-236.04
-261.28
-295.96
-338.31
-387.64
-442.64
-500.10
-537.28
-540.17
-506.76
-448.27
-380.89
-317.07
-264.50
-236.90
-224.63
-216.94
-207.18
-190.64
-165.18
-130.67
-83.17
-28.16
26.36
75.41
114.26
138.75
147.31
140.30
119.74
89.37
53.10
16.39
-12.10
-30.23
-39.56
-41.67
-38.20
-26.22
-2.57
33.18
79.44
133.96
192.41
249.98
302.72
347.34
385.70
419.56
448.49
470.46
483.23
484.44
472.84
448.73
392.52
297.90
171.63
30.83
-105.57
-224.52
-321.08
-395.60
-448.22
-484.38
-504.23
-507.62
-495.80
-471.53
-437.90
-396.77
-351.51
-304.15
-256.66
-207.71
-156.95
-105.77
-57.05
-13.91
21.52
48.44
67.69
80.53
90.57
100.58
111.85
124.18
136.60
148.00
157.43
164.46
168.90
171.57
172.66
171.60
167.29
158.71
145.32
127.15
104.90
79.79
53.47
27.31
2.10
-21.77
-44.04
-64.34
-82.25
-97.26
-108.15
-114.15
-115.19
-112.08
-106.12
-98.67
-90.85
-83.53
-77.31
-70.24
-60.92
-49.06
-35.92
-23.37
-12.80
-4.59
1.73
6.97
16.78
35.09
62.91
97.57
134.47
169.76
201.60
230.13
256.76
291.08
340.12
406.48
486.44
572.77
658.56
739.31
813.01
879.12
947.73
1025.67
1114.48
1207.84
1295.29
1367.29
1418.07
1445.78
1388.36
1213.69
926.19
571.10
208.43
-115.04
-377.13
-575.63
-718.94
-818.82
-871.54
-882.65
-858.53
-810.11
-750.50
-691.10
-639.25
-598.20
-567.95
-538.38
-503.83
-459.91
-411.89
-367.89
-334.73
-315.40
-309.08
-312.43
-316.17
-313.08
-297.55
-267.05
-224.18
-172.75
-116.60
-60.00
-8.33
34.82
59.72
61.30
39.47
0.46
-44.98
-86.16
-116.55
-135.11
-143.60
-145.12
-140.90
-131.82
-119.07
-104.73
-91.47
-81.63
-76.17
-74.00
-73.19
-71.02
-66.33
-59.72
-52.96
-48.15
-47.23
-51.81
-62.59
-78.12
-94.44
-106.17
-107.71
-95.45
-69.49
-33.10
5.72
40.06
66.80
86.57
101.00
110.74
112.76
103.04
79.83
45.86
8.74
-22.28
-39.94
-42.48
-34.03
-21.49
-10.63
-3.66
0.34
3.93
9.00
15.55
21.88
26.06
27.02
25.34
22.93
21.79
23.30
27.61
33.32
37.99
39.22
35.69
27.90
17.95
8.11
0.47
-4.28
-7.31
-11.25
-18.83
-31.59
-48.72
-67.18
-82.07
-90.71
-92.51
-89.37
-85.30
-84.24
-88.54
-97.68
-108.82
-119.05
-126.13
-128.46
-124.51
-112.58
-91.83
-64.56
-37.77
-18.98
-14.75
-26.00
-46.09
-63.48
-67.58
-53.91
-26.35
6.12
34.99
56.34
71.95
86.78
104.84
125.39
144.72
156.90
156.82
142.70
116.65
84.00
51.02
22.80
1.42
-14.57
-28.87
-44.29
-60.17
-71.69
-71.88
-55.63
-23.29
18.50
59.15
89.01
103.63
105.34
101.07
98.41
101.13
107.77
113.19
111.97
100.56
79.83
53.25
25.95
2.47
-14.57
-24.81
-30.19
-34.10
-40.42
-51.73
-68.01
-85.68
-98.79
-101.55
-91.06
-69.09
-41.56
-16.02
1.73
9.41
9.24
5.63
2.57
1.49
1.39
0.08
-3.71
-9.24
-14.47
-16.99
-15.64
-11.04
-5.15
-0.22
2.08
1.44
-0.98
-3.43
-4.08
-1.98
2.75
9.37
17.45
27.30
39.61
54.47
69.86
81.55
84.21
74.06
50.67
19.23
-12.45
-37.18
-50.90
-53.99
-49.98
-43.42
-37.83
-35.60
-38.31
-47.10
-61.47
-78.02
-90.54
-91.84
-77.31
-48.00
-10.77
24.07
47.31
54.49
48.15
35.60
24.81
21.07
25.45
35.90
49.01
61.33
69.00
68.17
55.82
32.06
2.03
-24.41
-35.79
-24.74
7.50
50.35
88.20
107.13
102.09
78.16
46.68
18.93
0.77
-8.35
-12.74
-16.23
-19.71
-21.39
-19.21
-13.52
-7.27
-4.99
-10.06
-22.87
-40.34
-57.67
-70.47
-76.91
-78.43
-78.65
-81.60
-89.00
-100.82
-114.17
-125.06
-130.14
-128.23
-121.24
-111.43
-101.74
-94.38
-90.50
-89.71
-90.17
-88.69
-81.25
-63.80
-35.07
2.84
44.52
82.67
111.11
127.07
131.82
129.38
124.19
119.05
114.56
110.01
104.91
99.38
94.61
91.66
90.43
89.44
86.53
79.93
69.68
56.81
43.71
32.78
25.25
20.81
17.90
14.68
9.52
2.61
-5.20
-12.55
-18.15
-21.23
-21.69
-20.05
-17.21
-14.35
-12.40
-11.89
-12.61
-13.70
-14.04
-12.79
-9.72
-5.41
-1.02
2.39
4.14
4.36
3.99
4.27
6.36
11.14
19.27
30.95
45.39
60.19
71.25
74.01
65.28
45.13
17.55
-10.85
-33.34
-45.60
-47.59
-42.57
-34.88
-27.83
-22.74
-19.47
-17.33
-16.12
-16.19
-17.93
-21.30
-25.84
-31.18
-37.01
-43.48
-50.90
-59.36
-68.42
-77.37
-85.21
-91.29
-95.38
-97.72
-98.96
-100.16
-102.60
-107.08
-112.99
-117.54
-116.35
-104.91
-80.85
-45.79
-5.25
33.30
63.46
82.30
91.04
93.26
92.82
92.03
91.38
90.40
88.92
87.62
87.43
88.77
90.51
90.72
87.63
80.55
70.47
59.62
50.56
43.84
40.24
38.64
37.25
34.56
30.20
24.88
19.94
16.77
16.40
19.57
26.11
34.77
42.68
45.59
39.59
21.84
-6.90
-41.96
-76.19
-102.83
-117.82
-120.93
-114.29
-102.87
-90.82
-80.22
-71.48
-64.65
-60.53
-60.53
-65.48
-74.28
-83.24
-86.72
-79.53
-58.71
-25.92
12.90
49.88
78.38
95.51
102.41
103.03
101.49
100.14
99.10
97.45
95.01
93.28
94.97
102.10
114.00
126.49
132.58
124.93
99.43
57.49
5.74
-46.26
-89.71
-119.12
-132.98
-132.91
-121.76
-101.93
-75.02
-42.58
-6.76
29.20
61.61
87.25
103.58
108.85
102.51
85.63
58.90
25.33
-11.03
-46.33
-75.64
-94.23
-100.34
-95.96
-84.94
-70.68
-55.10
-39.14
-23.75
-9.94
1.27
9.28
14.33
17.57
20.45
23.92
28.40
33.45
38.25
41.80
43.29
42.42
39.60
35.61
30.21
24.14
17.58
10.41
2.41
-6.54
-16.37
-26.62
-34.36
-39.91
-43.39
-45.17
-45.63
-45.19
-44.15
-42.84
-41.39
-39.76
-38.21
-36.59
-34.92
-33.28
-31.76
-30.26
-28.84
-27.40
-25.76
-24.01
-21.87
-19.19
-15.92
-13.16
-10.03
-6.28
-1.75
3.52
9.29
15.50
21.96
28.34
34.29
39.72
44.46
48.62
52.26
55.52
58.63
61.66
64.39
66.51
67.88
68.46
68.67
68.75
69.11
70.00
71.22
72.16
71.98
70.17
66.68
62.31
57.69
53.67
50.59
47.80
43.61
35.73
21.85
-0.10
-26.92
-56.64
-87.32
-117.68
-147.48
-177.36
-208.58
-242.73
-281.47
-326.05
-376.94
-431.85
-485.15
-528.63
-553.86
-555.26
-532.47
-490.58
-438.17
-384.46
-335.81
-294.73
-260.84
-232.69
-209.34
-190.59
-176.24
-165.14
-155.29
-144.14
-129.64
-111.15
-89.43
-66.29
-43.59
-22.53
-3.40
14.06
30.24
45.06
57.71
66.77
70.77
68.83
61.17
49.09
34.65
20.13
7.39
-2.46
-9.09
-12.77
-13.97
-13.08
-10.31
-5.70
0.73
8.83
18.32
28.82
39.96
51.50
63.39
75.73
88.67
102.32
116.65
131.48
146.52
161.39
175.67
188.93
200.66
210.31
217.28
220.95
220.76
216.27
207.25
193.72
175.98
154.62
130.40
104.20
76.89
49.28
22.04
-4.31
-29.43
-53.12
-75.26
-95.79
-114.63
-131.67
-146.70
-159.48
-169.73
-177.25
-181.93
-183.85
-183.21
-180.33
-175.66
-169.55
-162.33
-154.23
-145.34
-135.74
-125.48
-114.60
-103.18
-91.29
-79.02
-66.53
-54.04
-41.92
-30.75
-21.23
-14.03
-9.63
-8.15
-9.13
-11.67
-14.51
-16.33
-16.03
-12.91
-6.66
2.75
15.27
30.88
49.64
71.51
96.20
122.99
150.72
178.19
204.27
228.41
250.63
271.47
291.74
312.47
334.69
359.28
386.43
415.02
442.84
466.36
481.78
486.40
479.71
463.55
441.16
415.66
388.98
362.10
335.14
308.22
281.87
257.04
234.72
215.46
199.11
184.92
173.00
163.24
155.28
148.47
142.09
135.78
129.53
123.48
117.67
115.08
118.23
128.43
145.09
165.98
188.08
208.18
223.24
230.75
235.58
242.84
255.87
274.86
297.63
321.74
345.67
368.57
389.44
416.54
455.29
505.78
562.12
615.91
661.53
698.98
733.22
771.17
830.67
922.11
1043.13
1177.96
1304.19
1402.85
1465.03
1492.32
1413.61
1192.12
831.74
382.80
-81.63
-499.94
-839.21
-1092.18
-1267.18
-1379.57
-1434.07
-1436.86
-1398.06
-1332.67
-1257.18
-1184.07
-1119.65
-1065.66
-1021.46
-976.67
-923.64
-860.56
-792.40
-727.31
-671.56
-627.95
-595.64
-572.20
-549.80
-522.99
-490.43
-455.62
-424.25
-400.90
-384.79
-374.68
-365.90
-351.34
-321.77
-271.88
-203.67
-125.07
-46.43
23.28
78.46
119.40
151.23
176.40
198.46
217.22
228.76
227.98
215.31
189.80
154.59
115.17
77.56
46.65
24.23
10.19
3.41
2.49
5.23
9.93
14.56
16.87
16.61
13.50
8.47
3.31
-0.12
-1.08
0.87
5.37
11.57
18.48
24.69
29.21
31.82
33.20
34.39
36.63
40.46
45.34
50.00
52.69
52.23
48.52
42.58
36.16
31.34
29.73
31.86
36.96
42.94
47.42
48.65
46.42
42.05
37.60
34.57
32.84
30.51
24.93
14.23
-1.34
-19.27
-35.80
-47.57
-53.05
-52.87
-49.25
-44.63
-40.60
-37.56
-35.07
-32.53
-29.71
-26.83
-24.21
-22.27
-21.09
-20.49
-20.33
-20.71
-21.92
-24.14
-27.15
-30.33
-33.19
-35.34
-36.66
-37.27
-37.51
-37.94
-39.17
-41.69
-45.73
-51.62
-59.03
-66.86
-73.50
-77.53
-78.28
-75.80
-70.55
-63.15
-55.82
-50.54
-48.35
-49.02
-51.55
-54.74
-57.31
-58.21
-57.11
-58.04
-65.09
-79.90
-100.48
-122.69
-142.30
-156.61
-164.87
-168.29
-174.59
-190.38
-217.59
-252.41
-288.28
-319.30
-341.86
-354.79
-359.13
-364.43
-379.16
-406.42
-442.55
-480.98
-516.52
-547.00
-572.58
-551.24
-460.10
-305.60
-122.47
51.38
194.38
301.91
378.37
430.83
466.20
483.20
481.16
462.89
436.12
409.22
387.51
372.54
363.41
358.25
349.88
332.99
305.79
272.31
238.09
207.02
180.60
158.76
140.72
122.19
102.73
80.95
58.59
38.53
22.89
12.48
7.10
5.91
6.08
5.01
0.97
-5.57
-13.11
-20.07
-25.24
-27.86
-27.85
-26.49
-25.44
-26.45
-29.97
-35.46
-41.69
-47.09
-50.56
-51.57
-50.61
-48.87
-47.89
-48.72
-52.06
-58.29
-67.25
-77.59
-86.18
-88.67
-80.81
-60.80
-30.62
4.06
35.89
58.87
70.60
72.73
69.21
64.00
59.12
54.60
49.56
43.58
37.37
32.19
29.13
28.06
27.79
26.79
23.77
18.54
11.97
5.43
0.21
-3.10
-4.83
-5.96
-7.66
-10.76
-15.34
-20.82
-26.22
-30.60
-33.44
-34.70
-34.72
-33.97
-32.73
-30.98
-28.42
-24.69
-19.57
-13.07
-5.54
2.41
10.15
17.13
22.97
27.54
30.84
32.95
34.04
34.25
33.74
32.65
31.14
29.32
27.24
24.93
22.49
20.05
17.84
16.10
14.99
14.58
14.74
15.20
15.70
16.07
16.36
16.81
17.71
19.29
21.48
23.96
26.21
27.74
28.35
28.27
28.12
28.57
30.15
32.92
36.47
40.15
43.33
45.78
47.68
49.61
52.21
56.16
62.14
70.68
81.78
94.45
106.43
114.50
115.30
106.48
87.78
61.24
30.63
0.24
-26.21
-46.37
-59.32
-65.15
-65.08
-61.26
-56.27
-52.56
-51.69
-53.72
-57.16
-59.55
-58.56
-53.09
-43.88
-33.37
-25.07
-22.14
-25.96
-35.28
-46.39
-54.35
-54.90
-46.24
-29.77
-10.01
6.88
15.39
12.49
-1.29
-22.45
-45.94
-67.00
-82.32
-91.58
-97.27
-103.38
-113.12
-126.64
-139.86
-145.07
-133.68
-99.78
-44.20
24.53
92.77
146.77
177.84
184.83
173.21
149.47
121.06
93.58
69.59
49.21
32.32
20.08
14.51
16.57
24.59
34.80
42.56
44.61
40.42
32.51
25.12
21.87
23.98
29.81
36.01
38.83
35.78
26.50
13.30
-0.35
-11.01
-17.10
-19.45
-20.58
-23.56
-30.58
-42.37
-57.28
-72.38
-84.78
-93.08
-97.90
-101.38
-106.40
-115.78
-132.17
-156.21
-186.03
-216.93
-242.07
-254.13
-247.84
-222.43
-178.48
-124.04
-69.83
-24.73
7.88
30.93
51.55
76.98
111.00
152.44
195.56
233.66
261.41
275.74
275.41
260.29
231.13
189.78
139.73
85.41
32.12
-15.22
-52.83
-78.63
-92.11
-94.10
-86.64
-72.78
-56.54
-41.72
-31.32
-26.92
-28.89
-36.60
-48.59
-62.49
-75.06
-82.90
-83.55
-77.23
-67.34
-59.68
-59.88
-70.53
-89.57
-110.68
-125.67
-127.37
-111.93
-79.60
-34.20
18.03
69.60
112.70
140.28
147.37
132.63
99.17
54.03
6.07
-36.74
-69.51
-91.18
-103.69
-110.41
-114.49
-117.82
-120.69
-122.04
-120.16
-113.40
-100.96
-83.14
-61.07
-36.04
-8.56
21.82
56.00
94.07
134.37
173.39
206.79
230.98
244.26
247.15
241.91
231.70
219.92
209.58
202.68
199.42
197.61
192.95
180.43
156.69
121.98
80.70
39.89
6.30
-16.30
-28.22
-32.90
-34.40
-35.16
-35.09
-32.43
-25.72
-15.36
-3.91
5.10
8.99
7.35
2.08
-3.87
-8.27
-10.67
-12.33
-14.93
-19.05
-23.59
-26.24
-25.02
-19.55
-11.48
-3.56
1.87
4.26
5.23
7.91
15.43
29.53
49.73
73.30
96.01
113.28
121.38
118.20
103.58
78.96
46.95
10.78
-26.11
-60.40
-88.95
-108.88
-117.57
-112.94
-94.23
-63.05
-24.03
15.68
48.18
67.41
71.01
60.47
39.33
10.93
-22.80
-60.46
-99.31
-134.21
-158.83
-168.71
-163.91
-149.27
-131.74
-116.51
-104.75
-94.01
-80.88
-63.77
-43.43
-21.20
3.42
33.40
72.32
120.83
174.19
222.77
255.35
263.62
245.21
203.69
145.94
78.74
6.87
-66.17
-135.96
-195.60
-236.70
-253.03
-244.88
-220.69
-194.50
-179.77
-183.01
-200.80
-221.96
-233.62
-227.80
-204.62
-170.75
-134.62
-101.34
-70.26
-36.19
6.81
61.29
124.17
187.26
240.44
275.23
287.74
279.72
257.71
230.91
208.70
198.46
204.25
226.10
260.09
299.17
334.76
358.90
366.26
355.42
328.67
290.80
247.20
202.49
160.02
121.96
89.56
63.36
42.96
26.96
13.10
-1.22
-18.11
-38.53
-62.18
-87.97
-114.68
-141.58
-168.51
-195.52
-222.18
-247.24
-268.80
-284.90
-294.28
-296.61
-292.30
-281.99
-266.15
-245.13
-219.56
-190.73
-160.51
-130.75
-102.38
-75.13
-47.37
-16.84
18.32
58.83
103.50
149.63
193.73
232.06
260.96
277.79
281.64
273.78
257.46
236.08
211.82
185.14
155.50
122.85
90.12
63.46
50.17
55.54
78.84
113.66
150.80
182.03
201.24
206.70
199.88
183.50
161.14
133.43
100.27
62.63
22.60
-20.36
-66.50
-115.20
-164.37
-208.30
-245.91
-278.46
-307.67
-335.43
-367.66
-408.04
-456.43
-508.50
-553.45
-588.16
-614.26
-635.18
-655.98
-688.13
-741.06
-818.78
-917.49
-1020.54
-1116.26
-1195.54
-1251.32
-1236.00
-1123.00
-915.80
-650.00
-413.59
-226.92
-85.93
19.59
108.00
185.78
248.54
292.07
316.58
328.08
341.68
362.78
390.58
421.64
450.78
469.37
471.88
457.72
431.42
404.86
382.68
364.98
350.10
335.07
314.94
286.73
250.42
209.04
170.06
136.29
107.59
82.74
59.80
36.20
10.64
-16.51
-43.28
-65.62
-81.81
-91.75
-95.94
-95.28
-90.80
-83.14
-72.46
-58.63
-41.03
-20.05
3.48
28.82
55.48
83.37
112.43
142.30
172.24
201.53
229.92
257.80
285.93
314.54
342.45
366.61
382.63
386.02
373.85
346.22
306.71
261.77
219.20
186.12
167.33
164.76
177.74
203.77
238.99
277.92
313.64
339.00
349.19
344.39
330.45
316.55
310.66
315.17
325.50
332.81
328.97
311.01
282.20
249.51
219.33
194.52
174.17
155.75
137.66
120.14
104.36
90.77
78.05
63.41
44.14
18.97
-11.18
-43.44
-74.44
-101.65
-124.43
-144.41
-165.04
-190.44
-223.73
-265.25
-311.48
-355.28
-387.66
-400.79
-390.81
-359.24
-312.19
-257.61
-202.17
-149.20
-98.79
-49.60
-1.06
45.62
88.02
123.95
152.56
174.17
189.14
196.73
195.10
182.45
158.70
126.39
90.08
54.33
21.66
-8.34
-38.14
-70.16
-104.87
-140.22
-172.37
-197.24
-211.61
-213.85
-204.12
-184.65
-160.04
-137.32
-125.03
-131.09
-159.89
-209.86
-272.91
-336.50
-387.69
-417.41
-423.04
-408.23
-380.36
-347.02
-313.32
-281.14
-250.18
-219.71
-189.95
-162.04
-137.06
-114.64
-92.52
-67.18
-35.23
5.12
53.21
105.76
157.62
203.17
237.79
258.99
266.97
264.21
254.36
241.12
227.25
214.20
201.93
189.14
173.71
153.59
128.07
98.78
69.76
46.16
32.13
28.83
33.92
42.83
51.08
56.31
58.71
59.90
61.14
62.17
61.47
57.66
50.81
42.85
36.68
34.62
37.18
42.80
48.81
52.77
53.65
52.12
49.98
49.13
50.49
53.57
56.73
58.07
56.26
51.09
43.35
34.14
24.07
12.97
0.20
-14.68
-30.98
-46.77
-59.40
-66.55
-67.35
-62.76
-54.98
-46.39
-38.57
-31.93
-26.08
-20.55
-15.20
-10.47
-7.03
-5.42
-5.71
-7.53
-10.28
-13.39
-16.44
-19.07
-20.90
-21.58
-20.90
-19.07
-16.73
-14.87
-14.55
-16.39
-19.85
-23.53
-25.51
-24.05
-18.42
-9.28
1.30
10.61
16.46
18.72
18.97
19.70
22.91
28.86
35.88
41.09
41.88
37.25
29.56
23.35
24.27
37.67
67.35
114.20
175.20
243.00
307.01
357.35
387.21
395.14
385.14
364.53
340.51
317.58
296.49
266.73
221.59
160.64
90.50
21.91
-35.70
-78.58
-108.96
-132.52
-154.06
-177.15
-202.15
-227.37
-250.30
-267.75
-275.90
-270.94
-251.49
-217.77
-175.41
-134.44
-105.76
-96.07
-104.46
-122.98
-140.84
-150.68
-151.67
-148.31
-146.46
-150.02
-158.71
-168.99
-176.66
-174.93
-160.76
-135.41
-103.21
-69.15
-37.53
-10.40
11.98
30.23
43.42
51.35
52.98
47.46
34.98
15.33
-11.81
-47.47
-93.38
-148.37
-210.51
-275.48
-336.18
-376.67
-384.77
-357.38
-303.21
-238.32
-178.02
-131.32
-99.69
-79.55
-66.21
-57.83
-54.27
-55.75
-60.88
-66.55
-68.90
-65.66
-56.90
-44.73
-33.38
-26.25
-24.85
-27.98
-32.19
-33.46
-28.87
-17.26
0.81
20.26
37.26
49.78
58.32
65.48
74.47
87.67
105.88
128.40
153.28
178.52
201.76
220.26
231.06
231.76
221.75
203.20
180.94
160.76
147.76
144.23
149.47
160.98
176.38
194.83
217.24
245.00
278.16
314.28
348.11
373.15
383.85
377.51
355.10
320.38
277.72
230.16
178.73
123.30
64.52
5.34
-48.95
-92.44
-121.13
-134.71
-136.67
-132.60
-127.76
-124.96
-123.87
-121.88
-115.99
-104.70
-88.85
-71.37
-56.03
-45.97
-42.73
-46.01
-53.99
-63.92
-72.86
-78.10
-77.63
-70.39
-56.59
-37.89
-17.29
1.37
14.28
18.75
14.31
3.15
-10.21
-20.35
-23.05
-17.26
-5.95
5.00
9.34
3.29
-12.96
-35.62
-59.48
-80.42
-96.85
-109.54
-120.16
-129.63
-137.21
-141.04
-139.47
-132.38
-121.51
-109.76
-99.68
-92.12
-85.81
-78.16
-66.72
-50.52
-30.59
-9.58
9.47
24.48
35.09
42.58
49.14
56.59
65.54
74.90
81.87
82.75
74.08
54.10
23.71
-13.41
-51.76
-84.89
-106.53
-111.71
-97.68
-64.91
-17.44
37.19
89.31
129.10
150.02
150.57
134.13
106.84
74.56
40.59
4.64
-35.94
-84.06
-139.39
-197.05
-248.74
-285.87
-303.22
-300.87
-283.95
-257.98
-230.14
-206.10
-187.84
-173.34
-158.50
-141.33
-122.17
-103.17
-85.44
-68.76
-51.29
-30.78
-5.90
23.01
54.18
85.94
117.61
149.40
181.00
210.91
236.05
252.55
257.28
249.65
232.71
212.34
195.24
186.41
188.00
199.22
217.38
239.05
261.33
282.54
302.05
319.62
334.63
345.96
352.26
352.47
346.18
333.63
315.33
291.59
262.27
227.15
186.51
141.65
94.80
48.51
4.56
-36.67
-76.24
-115.71
-156.01
-196.40
-234.10
-264.88
-283.98
-287.50
-273.22
-240.82
-191.25
-126.28
-48.58
37.48
125.00
204.74
266.89
304.09
314.11
300.70
271.93
236.84
202.25
171.00
142.60
115.19
87.67
60.33
34.20
10.16
-11.56
-31.01
-47.99
-62.04
-72.90
-80.92
-86.85
-90.99
-92.36
-88.81
-78.38
-61.10
-40.13
-20.88
-8.51
-5.30
-9.40
-15.97
-19.88
-18.44
-12.50
-5.68
-2.18
-4.73
-13.80
-28.24
-46.61
-68.19
-92.85
-119.97
-147.83
-173.26
-192.60
-203.32
-205.14
-200.32
-192.74
-186.33
-183.75
-186.56
-194.79
-207.64
-224.01
-242.89
-263.55
-285.31
-307.30
-328.34
-348.40
-367.60
-386.09
-403.90
-420.72
-436.06
-449.22
-459.17
-464.53
-466.19
-465.41
-463.35
-460.16
-454.36
-443.09
-422.65
-389.43
-341.34
-282.51
-221.33
-169.01
-136.01
-128.38
-145.95
-182.74
-229.28
-257.33
-246.09
-186.49
-85.86
36.15
158.21
266.18
354.78
424.32
476.83
511.21
526.26
522.45
503.37
475.49
445.91
420.00
400.17
386.18
373.96
359.32
339.71
315.35
289.02
264.37
244.18
229.50
219.78
212.21
203.98
193.31
180.17
166.00
152.79
141.93
133.81
127.83
122.31
115.61
106.66
95.28
82.02
67.80
53.42
39.34
25.59
11.95
-1.75
-15.40
-28.69
-41.09
-52.02
-61.09
-68.04
-73.07
-76.13
-77.06
-75.65
-71.74
-65.27
-56.28
-45.09
-32.18
-18.82
-5.91
6.09
16.98
26.77
35.52
43.36
50.23
56.28
61.03
64.83
68.66
73.86
81.78
93.46
109.52
129.58
156.80
189.31
223.72
256.60
285.48
309.23
327.71
341.58
351.19
356.61
355.55
346.65
329.82
306.19
277.02
242.29
204.87
165.81
125.54
80.42
27.98
-31.63
-95.30
-158.34
-216.39
-266.28
-306.85
-337.93
-365.43
-393.94
-424.38
-453.49
-476.18
-488.69
-490.12
-482.92
-471.42
-467.62
-481.32
-516.37
-569.66
-634.01
-702.53
-770.84
-837.78
-860.78
-815.08
-700.99
-545.37
-384.01
-242.70
-131.18
-46.40
21.64
84.90
145.65
201.89
249.47
284.95
306.85
315.86
315.02
309.02
302.62
293.23
276.94
251.74
219.65
185.74
155.32
131.71
115.59
105.78
96.45
82.63
62.80
39.49
17.55
1.71
-5.16
-3.07
7.88
24.45
43.32
62.54
81.95
102.34
124.33
147.69
169.41
187.89
201.04
207.48
207.09
200.95
190.89
178.73
165.94
153.30
141.50
130.47
119.95
109.78
99.96
90.59
81.77
73.56
65.94
59.09
52.92
47.23
41.96
37.04
32.45
28.17
24.16
20.40
17.05
14.12
11.52
9.25
7.34
5.74
4.39
3.23
2.21
1.36
1.12
1.17
1.40
1.86
2.53
3.37
4.30
5.27
6.27
7.34
8.47
9.69
11.06
12.49
13.76
14.62
14.78
14.10
12.53
10.53
8.01
5.15
2.02
-1.44
-5.32
-9.68
-14.31
-18.79
-22.48
-24.80
-25.32
-24.12
-21.71
-18.91
-16.44
-14.62
-13.23
-11.58
-8.94
-4.79
0.68
6.71
12.24
16.43
19.02
20.49
21.81
23.97
27.70
33.30
40.71
49.39
58.10
64.70
66.40
60.63
46.38
25.21
1.34
-19.68
-33.14
-37.02
-32.53
-23.08
-12.34
-2.54
5.78
13.23
20.45
27.35
33.26
37.62
40.63
43.29
46.98
52.27
58.62
64.44
67.79
67.27
62.67
55.04
45.95
38.33
33.87
32.66
33.23
33.42
31.56
27.48
22.51
18.62
17.29
18.36
20.35
21.30
19.81
15.72
9.80
3.39
-2.49
-7.35
-11.26
-14.41
-17.13
-19.82
-22.81
-25.96
-28.27
-28.00
-23.36
-13.79
-0.62
13.25
24.46
30.80
32.07
29.98
26.89
24.56
23.36
22.49
20.95
18.19
14.46
10.33
6.23
2.00
-2.92
-9.23
-17.53
-27.95
-40.21
-53.78
-67.96
-81.96
-94.99
-106.26
-115.08
-120.99
-123.80
-123.74
-121.37
-117.56
-113.34
-109.79
-107.97
-108.66
-112.23
-118.46
-126.55
-135.32
-143.53
-150.24
-155.03
-158.01
-159.65
-160.52
-161.02
-161.33
-161.39
-161.01
-159.88
-157.55
-153.49
-147.22
-138.45
-127.34
-114.43
-100.54
-86.46
-72.68
-59.17
-45.48
-31.01
-15.30
1.63
19.19
36.42
52.16
65.44
75.65
82.62
86.46
87.49
86.06
82.59
77.75
72.40
67.53
63.89
61.68
60.43
59.21
57.09
53.66
49.29
44.95
41.77
40.46
41.04
42.79
44.68
45.73
45.36
43.38
39.89
35.09
29.25
22.72
15.98
9.62
4.13
-0.22
-3.51
-6.06
-8.21
-10.14
-11.80
-12.95
-13.41
-13.10
-12.14
-10.63
-8.59
-5.94
-2.71
0.74
3.60
4.81
3.62
0.07
-4.75
-8.97
-10.81
-9.40
-5.31
-0.44
2.74
2.19
-2.86
-11.77
-22.80
-33.94
-43.35
-49.69
-51.96
-49.42
-41.77
-29.50
-14.36
0.82
12.90
19.49
20.03
15.93
9.96
4.95
2.77
3.86
7.74
13.79
21.77
31.89
44.27
58.33
72.69
85.51
95.18
100.88
102.67
101.18
97.06
90.64
81.98
71.03
58.11
43.95
29.68
16.41
5.01
-4.03
-10.53
-14.35
-15.30
-13.12
-7.67
0.80
11.60
23.60
35.56
46.40
55.39
62.23
66.80
69.04
68.87
66.26
61.57
55.59
49.52
44.66
41.88
41.31
42.19
43.11
42.36
38.41
30.40
18.43
3.63
-12.05
-26.37
-37.46
-44.41
-47.48
-47.92
-47.33
-46.90
-46.98
-47.09
-46.35
-44.11
-40.32
-35.47
-30.19
-24.88
-19.54
-13.96
-8.04
-1.98
3.78
8.85
13.18
17.01
20.61
24.01
26.97
29.10
30.24
30.49
30.11
29.25
27.71
25.11
21.13
15.84
9.89
4.39
0.60
-0.47
1.63
6.54
13.17
20.03
25.80
29.85
32.49
34.72
37.56
41.38
45.62
49.03
50.32
48.85
44.85
39.17
32.72
25.82
18.08
8.65
-3.06
-16.83
-31.31
-44.35
-53.80
-58.28
-57.85
-53.80
-48.11
-42.51
-37.92
-34.35
-31.34
-28.59
-26.31
-25.18
-25.91
-28.83
-33.62
-39.50
-45.49
-50.69
-54.44
-56.16
-55.24
-51.08
-43.35
-32.24
-18.69
-4.22
9.49
21.01
29.47
34.52
36.18
34.66
30.40
24.21
17.30
11.04
6.52
4.14
3.44
3.40
3.07
2.04
0.66
-0.38
-0.57
-0.05
0.36
-0.39
-3.07
-7.74
-13.84
-20.56
-27.19
-33.36
-38.97
-43.87
-47.78
-50.24
-50.83
-49.34
-45.80
-40.44
-33.58
-25.61
-17.07
-8.80
-1.87
2.77
4.64
4.05
2.06
0.07
-0.60
1.00
5.39
12.79
23.14
35.89
49.89
63.33
74.17
80.70
82.22
79.22
73.04
65.21
56.72
47.68
37.53
25.58
11.64
-3.63
-18.75
-31.84
-41.28
-46.21
-46.84
-44.31
-40.27
-36.31
-33.56
-32.52
-33.21
-35.56
-39.60
-45.50
-53.29
-62.53
-72.21
-80.89
-87.24
-90.47
-90.53
-87.98
-83.48
-77.32
-69.44
-59.69
-48.32
-36.15
-24.30
-13.61
-4.25
4.17
12.13
19.64
26.11
30.86
33.87
36.35
40.47
48.44
61.33
78.39
97.32
115.10
129.17
138.09
141.62
140.24
134.55
125.09
112.33
97.07
80.62
64.69
50.96
40.54
33.61
29.56
27.34
25.97
24.94
24.18
23.82
23.79
23.67
22.69
20.02
15.10
7.79
-1.53
-12.00
-22.42
-31.35
-37.43
-39.62
-37.53
-31.55
-22.72
-12.42
-2.15
6.75
13.11
16.02
14.92
9.88
1.73
-7.89
-16.92
-23.43
-26.17
-24.93
-20.53
-14.50
-8.57
-4.17
-2.13
-2.58
-5.10
-9.00
-13.67
-18.72
-24.11
-29.93
-36.27
-42.91
-49.28
-54.50
-57.58
-57.70
-54.52
-48.29
-39.84
-30.41
-21.21
-13.16
-6.69
-1.74
1.97
4.79
6.84
8.04
8.16
7.06
4.79
1.68
-1.67
-4.66
-6.90
-8.35
-9.22
-9.82
-10.23
-10.22
-9.42
-7.52
-4.60
-1.17
2.00
4.21
5.11
4.75
3.54
1.91
0.37
-0.63
-0.54
1.14
4.73
10.07
16.49
22.87
28.11
31.46
32.82
32.61
31.51
30.02
28.25
25.99
22.99
19.22
15.04
11.08
7.95
5.93
4.86
4.26
3.58
2.43
0.76
-1.28
-3.40
-5.37
-7.09
-8.65
-10.30
-12.43
-15.52
-19.95
-25.83
-32.75
-39.71
-45.24
-47.82
-46.38
-40.78
-31.89
-21.38
-11.11
-2.63
3.24
6.43
7.43
6.88
5.40
3.39
1.19
-0.88
-2.46
-3.17
-2.86
-1.67
-0.12
1.07
1.26
0.21
-1.79
-4.02
-5.58
-5.81
-4.56
-2.26
0.29
2.22
2.94
2.23
0.30
-2.42
-5.33
-7.75
-8.94
-8.22
-5.03
0.75
8.68
17.81
26.86
34.74
40.78
44.89
47.40
48.68
48.93
48.06
45.97
42.75
38.79
34.75
31.23
28.56
26.62
24.97
23.09
20.53
17.20
13.25
9.09
5.25
2.24
0.39
-0.28
-0.05
0.47
0.56
-0.42
-2.86
-6.72
-11.57
-16.59
-20.89
-23.66
-24.48
-23.38
-20.85
-17.68
-14.68
-12.47
-11.31
-11.14
-11.74
-12.93
-14.63
-16.93
-19.81
-22.98
-25.88
-27.78
-28.08
-26.63
-23.82
-20.42
-17.24
-14.83
-13.29
-12.39
-11.82
-11.46
-11.45
-12.15
-13.87
-16.73
-20.51
-24.68
-28.42
-30.81
-30.82
-27.65
-20.87
-10.72
1.90
15.61
28.89
40.63
50.26
57.72
63.12
66.41
67.30
65.51
61.15
55.04
48.63
43.50
40.84
40.99
43.54
47.57
52.17
56.52
59.92
61.62
60.78
56.77
49.21
38.14
23.72
6.09
-14.78
-38.60
-64.23
-89.42
-111.03
-126.01
-132.56
-130.82
-122.72
-111.15
-98.77
-87.28
-77.24
-68.52
-60.82
-53.97
-47.96
-42.71
-37.78
-32.37
-25.55
-16.54
-5.15
8.08
21.97
34.98
45.63
52.85
56.17
55.68
51.91
45.66
37.83
29.29
20.88
13.23
6.69
1.31
-3.17
-7.22
-11.37
-16.04
-21.31
-26.83
-31.80
-35.18
-36.13
-34.36
-30.30
-24.98
-19.59
-15.06
-11.78
-9.44
-7.28
-4.43
-0.36
4.79
10.12
14.29
16.05
14.84
11.09
6.05
1.22
-2.34
-4.35
-5.16
-5.25
-4.73
-3.22
-0.16
4.72
10.98
17.44
22.60
25.12
24.32
20.28
13.79
6.04
-1.67
-8.17
-12.59
-14.47
-13.85
-11.19
-7.34
-3.31
-0.01
1.95
2.37
1.49
-0.24
-2.27
-4.04
-5.04
-4.86
-3.27
-0.41
3.19
6.69
9.17
10.04
9.22
7.19
4.69
2.33
0.34
-1.49
-3.58
-6.25
-9.54
-13.38
-17.70
-22.80
-29.24
-37.60
-48.04
-59.94
-71.90
-82.05
-88.72
-91.02
-89.42
-85.71
-82.44
-81.94
-85.19
-91.35
-97.99
-102.19
-101.72
-95.65
-83.95
-66.72
-43.23
-11.91
28.91
80.07
141.03
210.49
286.95
368.90
453.80
536.76
610.05
664.53
692.71
691.77
665.03
620.55
567.86
514.42
463.75
415.89
369.28
323.00
277.38
233.57
192.30
153.33
115.66
78.52
42.02
7.33
-23.76
-49.60
-69.24
-82.50
-89.82
-92.10
-90.62
-86.97
-82.98
-80.26
-79.76
-81.33
-83.71
-85.11
-84.15
-80.62
-75.96
-72.69
-73.58
-80.45
-93.44
-111.16
-131.68
-153.62
-176.93
-202.66
-232.02
-265.13
-300.46
-335.47
-367.66
-395.93
-420.89
-444.15
-467.46
-492.06
-518.76
-548.31
-581.00
-615.33
-646.82
-668.24
-672.01
-653.83
-615.29
-563.86
-509.68
-461.11
-421.45
-388.80
-358.59
-327.13
-293.64
-259.87
-228.15
-199.42
-172.77
-146.47
-119.59
-92.88
-68.36
-48.29
-33.76
-24.09
-17.05
-9.58
0.92
15.78
34.83
56.71
79.81
103.01
126.24
150.52
177.52
208.88
245.32
285.95
327.91
366.89
398.30
418.63
426.39
422.43
409.22
389.85
367.10
342.88
318.36
294.11
270.41
247.37
225.14
204.15
185.28
169.87
159.11
153.51
152.45
154.36
157.32
159.46
159.25
155.43
147.10
134.15
117.74
100.44
85.72
76.73
74.90
79.29
86.95
94.26
98.38
98.42
95.33
91.13
87.61
85.42
83.79
81.04
75.50
66.27
53.56
38.28
21.36
3.13
-16.81
-39.05
-63.49
-88.68
-111.75
-129.04
-137.11
-133.84
-119.12
-95.20
-66.55
-39.37
-20.40
-15.39
-27.22
-54.57
-91.66
-129.51
-158.58
-171.68
-166.38
-145.54
-116.02
-85.99
-62.30
-48.67
-45.30
-49.85
-58.54
-67.27
-72.22
-70.20
-59.06
-38.15
-8.58
27.09
65.50
103.32
137.86
167.16
189.80
204.81
211.92
211.78
206.02
196.78
185.91
174.31
161.45
145.76
125.41
99.45
68.57
35.41
4.01
-21.37
-37.77
-44.53
-43.41
-37.67
-30.62
-24.30
-19.19
-14.66
-10.03
-5.23
-0.90
2.09
3.15
2.22
-0.33
-4.08
-8.79
-14.50
-21.47
-29.92
-39.89
-50.94
-62.12
-72.02
-79.04
-81.75
-79.27
-71.45
-59.12
-44.05
-28.84
-16.33
-8.84
-7.23
-10.37
-15.24
-17.84
-14.62
-3.80
13.81
34.96
54.89
68.74
73.11
67.37
54.02
38.21
26.24
23.38
32.01
50.82
75.44
100.31
121.11
136.47
148.00
158.76
171.01
184.29
195.13
198.25
188.54
162.73
120.13
62.70
-5.17
-76.53
-142.01
-190.85
-213.43
-204.46
-165.70
-106.28
-40.15
18.30
58.64
76.58
73.82
55.70
28.53
-2.30
-33.25
-62.89
-91.86
-122.38
-156.90
-196.17
-237.66
-275.17
-300.39
-305.59
-286.20
-241.92
-176.33
-95.74
-8.17
77.12
150.12
201.50
224.89
219.23
189.57
145.66
98.29
55.50
20.29
-9.28
-38.12
-71.58
-113.06
-162.68
-216.96
-269.43
-312.33
-338.61
-343.93
-327.69
-292.74
-244.20
-188.00
-129.81
-74.53
-26.14
12.54
39.84
55.25
59.01
51.52
33.26
5.36
-29.36
-65.70
-96.34
-113.55
-111.32
-87.33
-43.75
13.36
75.48
133.42
178.98
206.24
212.30
197.49
165.07
120.46
70.36
21.88
-18.28
-44.80
-54.80
-48.64
-30.02
-4.94
20.13
40.23
53.15
59.33
60.62
58.74
54.20
46.17
33.39
15.19
-7.77
-33.36
-58.39
-79.44
-93.53
-98.80
-95.03
-83.92
-68.89
-54.26
-43.88
-39.82
-41.53
-46.06
-49.41
-48.33
-41.67
-30.76
-18.63
-8.60
-2.96
-2.59
-7.24
-16.01
-27.50
-39.60
-49.36
-53.63
-50.36
-39.86
-25.22
-11.03
-0.90
4.79
9.69
19.78
40.07
71.40
109.20
145.00
169.82
177.69
167.58
142.72
108.31
68.82
26.44
-18.54
-65.72
-112.64
-154.16
-183.76
-196.14
-189.60
-166.57
-132.24
-91.64
-47.41
0.84
54.72
114.35
176.16
232.91
275.70
297.16
293.89
267.09
221.70
164.52
102.55
42.03
-12.01
-55.87
-87.27
-105.38
-110.89
-105.75
-92.63
-74.64
-54.83
-35.93
-20.21
-9.39
-4.75
-7.44
-18.65
-39.59
-70.90
-111.63
-158.27
-204.80
-243.71
-268.05
-273.52
-259.46
-228.38
-184.33
-131.34
-72.97
-13.11
43.13
89.14
118.16
125.48
110.11
74.72
23.91
-37.90
-107.35
-180.87
-253.06
-315.67
-359.11
-375.89
-364.06
-328.35
-278.23
-223.96
-172.66
-126.69
-84.62
-43.47
-1.02
43.53
89.80
136.82
182.98
225.62
260.99
285.15
295.61
292.51
278.89
259.45
238.59
218.86
200.50
182.23
162.60
141.10
118.31
95.34
73.14
52.06
32.24
13.84
-2.42
-15.56
-24.94
-30.98
-35.07
-38.71
-42.55
-45.75
-46.35
-42.25
-32.40
-17.23
1.46
21.27
40.29
57.59
73.59
89.57
107.00
126.72
147.98
168.15
182.87
187.23
177.59
153.31
117.32
75.21
33.07
-4.51
-35.33
-59.63
-78.94
-94.80
-107.97
-118.49
-126.58
-133.59
-141.90
-153.79
-169.46
-185.48
-195.42
-192.03
-170.69
-131.69
-80.18
-23.70
31.30
81.56
126.92
168.33
205.38
235.76
256.42
265.38
262.99
251.42
233.04
209.05
179.36
143.45
101.53
55.05
5.77
-45.61
-100.17
-159.92
-225.64
-294.72
-360.44
-413.34
-444.62
-449.54
-429.42
-390.83
-342.87
-293.54
-247.33
-204.87
-164.54
-124.43
-83.75
-42.90
-2.58
36.91
75.71
113.70
149.98
182.82
210.32
231.38
246.23
256.05
261.95
263.85
260.05
247.84
224.93
191.24
149.92
107.28
71.50
50.84
51.59
76.21
122.27
182.12
244.05
294.83
322.95
321.34
288.72
229.34
151.67
66.80
-13.33
-77.40
-116.52
-126.03
-106.19
-61.57
1.01
74.88
154.47
234.65
309.10
369.63
407.58
416.76
395.83
348.67
282.66
206.64
129.29
59.29
5.30
-26.04
-33.16
-22.43
-7.87
-5.99
-28.94
-79.06
-147.88
-220.08
-280.22
-318.21
-331.53
-324.04
-301.21
-267.39
-225.15
-176.13
-121.92
-65.13
-9.30
41.18
80.21
102.87
105.62
86.61
46.86
-8.05
-68.45
-121.05
-152.71
-155.75
-127.58
-72.45
-1.36
70.67
129.21
163.56
169.98
152.08
117.75
81.58
60.04
65.23
91.43
122.52
135.08
113.82
73.88
27.60
-12.90
-39.04
-50.69
-50.54
-43.67
-34.87
-25.37
-13.97
-2.33
7.13
10.20
2.22
-19.07
-51.22
-87.72
-119.68
-139.82
-146.59
-140.87
-125.54
-104.90
-83.72
-66.11
-54.64
-49.10
-47.02
-45.98
-42.91
-35.91
-25.28
-13.14
-2.25
5.29
8.86
8.75
4.93
-2.19
-11.92
-23.26
-34.90
-45.41
-53.77
-59.65
-63.60
-67.03
-71.11
-76.34
-82.36
-88.24
-92.90
-95.45
-95.15
-91.29
-83.23
-70.72
-54.27
-35.40
-16.28
1.04
15.19
25.82
33.27
38.04
40.45
40.62
38.88
35.92
32.67
29.82
27.42
25.10
22.65
20.80
21.26
25.94
35.67
49.24
63.36
73.88
77.51
73.13
62.11
47.47
32.39
19.06
8.32
0.11
-5.75
-9.06
-9.38
-6.44
-0.64
6.72
13.74
18.31
18.63
13.60
3.14
-11.67
-28.75
-45.40
-59.12
-68.36
-73.10
-74.80
-75.87
-78.77
-85.19
-95.56
-108.96
-123.53
-136.85
-146.62
-151.18
-149.85
-142.94
-131.46
-116.64
-99.37
-79.99
-58.32
-34.06
-7.17
21.96
52.45
83.04
112.33
138.89
161.42
178.92
190.69
196.35
195.69
188.50
174.46
153.39
125.64
92.53
56.62
21.28
-10.04
-34.81
-52.13
-62.84
-69.02
-73.09
-77.10
-82.25
-88.94
-96.80
-104.92
-111.98
-116.43
-116.97
-113.15
-105.86
-97.08
-88.99
-82.68
-77.33
-70.40
-58.95
-41.27
-18.05
7.74
32.23
52.27
66.57
75.77
81.62
85.98
90.25
95.30
101.59
109.20
117.52
124.90
128.67
125.80
113.70
91.17
58.97
20.04
-21.00
-58.90
-89.25
-109.76
-120.77
-124.57
-123.88
-120.21
-113.18
-101.20
-83.07
-59.38
-32.70
-6.52
16.45
35.30
50.86
64.67
77.91
90.90
103.38
115.25
126.80
138.50
150.50
162.21
172.28
179.05
181.06
177.37
167.71
152.35
132.07
107.99
81.35
53.21
24.20
-5.40
-35.46
-65.38
-93.74
-118.14
-135.63
-143.37
-139.44
-123.50
-96.82
-62.04
-22.55
18.04
56.38
89.56
115.23
131.77
138.61
136.44
127.09
113.07
96.71
79.41
61.35
41.83
20.06
-3.93
-29.05
-53.37
-74.92
-92.37
-105.26
-113.87
-118.65
-119.90
-117.67
-112.12
-103.86
-94.18
-84.72
-76.90
-71.35
-67.67
-64.58
-60.59
-54.63
-46.48
-36.69
-26.31
-16.34
-7.59
-0.65
3.95
5.58
3.68
-1.93
-10.74
-21.47
-32.46
-42.14
-49.62
-54.84
-58.38
-60.97
-63.02
-64.50
-65.12
-64.72
-63.56
-62.38
-62.11
-63.49
-66.75
-71.39
-76.38
-80.36
-82.18
-81.15
-77.30
-71.29
-64.03
-56.27
-48.37
-40.24
-31.60
-22.21
-11.72
0.67
16.24
36.50
62.25
93.12
127.58
164.06
202.00
242.20
285.91
332.85
379.75
420.49
447.95
456.88
445.96
418.02
378.26
331.77
281.65
228.78
172.91
114.18
54.04
-4.94
-60.11
-110.05
-155.35
-198.07
-240.38
-282.81
-323.24
-357.21
-379.55
-386.70
-378.47
-358.45
-332.66
-307.38
-287.03
-273.03
-263.95
-256.67
-247.70
-234.27
-214.90
-189.58
-159.67
-127.68
-96.86
-70.83
-52.82
-44.99
-47.75
-59.66
-77.72
-98.32
-118.08
-134.32
-145.05
-148.56
-143.31
-128.36
-104.06
-72.53
-37.52
-3.42
26.15
49.26
65.87
77.07
84.05
87.41
87.21
83.41
76.52
67.87
59.26
52.39
48.38
47.57
49.72
54.32
60.94
69.45
79.84
91.93
104.95
117.23
126.20
128.93
122.87
106.93
82.11
51.77
20.91
-5.08
-22.01
-28.04
-24.05
-13.21
0.24
12.21
19.65
21.00
16.04
5.56
-8.89
-25.37
-41.72
-55.87
-66.33
-72.37
-73.92
-71.13
-63.90
-51.67
-33.86
-10.56
16.74
45.07
70.63
90.06
101.51
105.26
103.29
98.42
93.21
89.17
86.61
84.82
82.75
79.56
75.04
69.61
64.08
59.20
55.23
51.88
48.55
44.72
40.24
35.44
30.86
26.96
23.92
21.84
21.10
22.65
27.81
37.77
52.57
70.53
88.35
102.11
108.69
107.06
98.65
86.63
74.60
65.28
59.95
58.51
59.85
62.11
62.77
58.85
47.59
27.59
-0.16
-32.00
-62.42
-85.80
-98.26
-98.67
-88.64
-71.58
-51.47
-32.02
-16.11
-5.65
-1.48
-3.36
-10.12
-20.00
-31.10
-41.86
-51.29
-58.93
-64.69
-68.63
-70.88
-71.63
-71.13
-69.66
-67.45
-64.65
-61.34
-57.73
-54.19
-51.32
-49.79
-50.09
-52.30
-56.01
-60.34
-64.18
-66.51
-66.57
-64.09
-59.26
-52.64
-45.01
-37.20
-29.85
-23.39
-17.97
-13.67
-10.53
-8.65
-8.18
-9.18
-11.51
-14.77
-18.43
-21.96
-25.04
-27.55
-29.57
-31.23
-32.66
-33.97
-35.37
-37.18
-39.79
-43.55
-48.58
-54.74
-61.68
-69.00
-76.50
-84.13
-92.01
-100.15
-108.28
-115.65
-121.19
-123.80
-122.81
-118.36
-111.56
-104.17
-98.11
-94.85
-95.00
-98.23
-103.31
-108.26
-110.34
-106.33
-93.05
-68.39
-32.35
12.39
60.80
106.93
145.67
174.26
192.69
202.98
207.70
208.73
206.69
201.34
192.54
181.10
169.18
159.82
156.04
159.61
170.48
186.73
205.38
223.47
238.86
250.49
257.96
261.01
259.23
252.28
240.46
225.21
209.05
194.83
184.70
179.20
177.12
176.02
173.39
167.58
158.40
147.05
135.54
125.82
119.02
115.05
112.83
111.00
108.77
106.37
104.73
104.46
104.81
103.22
95.93
79.54
52.64
16.62
-24.64
-65.81
-101.17
-125.25
-133.31
-122.44
-93.07
-50.31
-3.77
34.97
56.44
57.12
40.86
16.91
-4.76
-18.16
-23.86
-28.10
-39.04
-62.63
-100.06
-147.71
-199.35
-248.84
-291.97
-326.90
-353.29
-371.15
-380.22
-380.24
-371.60
-355.85
-335.41
-312.53
-288.35
-262.45
-233.44
-200.10
-162.66
-123.12
-84.78
-51.01
-23.89
-3.60
11.46
23.88
36.23
50.36
67.08
86.22
106.84
127.40
145.90
160.08
167.69
166.93
157.07
138.98
115.31
90.14
67.95
52.29
44.66
44.11
47.76
52.06
54.33
53.84
51.89
51.08
54.04
62.40
76.16
93.84
112.77
129.54
140.57
142.71
134.01
114.52
86.45
53.61
20.09
-11.29
-39.75
-66.25
-92.15
-117.86
-142.05
-162.01
-175.05
-180.00
-177.79
-171.28
-164.01
-159.02
-158.13
-161.55
-167.87
-174.47
-178.12
-175.76
-165.40
-146.52
-120.19
-88.98
-56.10
-24.68
2.69
24.09
38.41
45.35
45.96
42.73
38.51
36.54
39.97
51.00
69.67
93.83
119.18
141.55
158.54
168.83
173.28
175.06
178.48
186.72
201.05
219.32
238.12
253.95
261.67
257.36
240.77
215.41
185.96
156.68
127.69
97.28
63.05
19.97
-36.03
-104.69
-181.35
-259.53
-332.25
-395.78
-447.01
-464.57
-434.46
-362.88
-274.64
-196.17
-150.36
-133.47
-138.59
-158.43
-186.46
-215.51
-241.29
-259.33
-264.57
-253.13
-222.64
-175.43
-115.46
-47.60
20.43
80.55
127.99
162.18
184.87
198.80
204.15
200.54
187.87
165.65
134.73
99.23
65.88
41.63
31.58
36.35
53.74
80.14
111.24
143.16
173.36
199.98
220.72
232.87
233.59
222.05
200.30
172.43
142.86
114.73
89.01
64.66
40.24
15.12
-9.60
-31.66
-48.89
-60.46
-66.93
-69.61
-69.65
-67.66
-63.81
-58.59
-53.24
-49.69
-49.84
-54.71
-63.86
-75.53
-87.38
-97.38
-104.45
-108.75
-111.40
-113.89
-117.49
-122.82
-129.72
-137.26
-143.91
-147.73
-146.63
-138.72
-122.92
-99.63
-71.22
-41.85
-16.57
0.29
6.67
3.72
-4.60
-13.11
-17.41
-15.47
-7.78
3.84
18.09
35.37
57.68
87.04
123.62
164.76
205.33
239.55
262.97
273.74
272.68
262.56
247.08
230.31
216.16
207.87
207.23
213.87
225.11
236.71
244.33
244.91
237.35
222.26
201.13
175.53
146.71
115.70
83.66
51.96
22.03
-4.95
-28.29
-47.83
-63.61
-75.75
-84.46
-90.15
-93.53
-95.49
-96.90
-98.30
-99.87
-101.31
-102.02
-101.46
-99.44
-96.36
-93.14
-90.93
-90.62
-92.59
-96.30
-100.52
-104.03
-106.44
-108.45
-111.56
-117.05
-125.12
-134.90
-143.99
-149.53
-149.70
-144.84
-137.05
-128.90
-121.87
-115.64
-109.56
-102.40
-93.36
-82.83
-72.11
-62.18
-52.99
-44.01
-35.77
-32.35
-37.91
-54.08
-78.52
-105.60
-128.79
-143.95
-151.59
-156.78
-167.67
-187.55
-211.89
-230.50
-233.30
-215.10
-177.18
-125.39
-54.74
28.95
111.59
178.02
220.14
237.75
235.13
218.65
195.57
172.50
151.94
135.07
122.52
114.55
110.63
109.39
109.21
108.62
106.52
101.24
93.07
84.20
77.27
73.65
72.92
73.67
74.46
74.15
71.60
66.89
61.09
55.41
50.23
45.13
39.50
33.01
25.72
18.01
10.54
3.93
-1.64
-6.61
-11.70
-17.34
-23.33
-29.41
-35.12
-40.31
-45.42
-51.31
-58.87
-68.70
-81.14
-93.86
-107.77
-122.01
-133.67
-138.29
-131.36
-110.63
-77.89
-38.95
-1.70
26.79
43.57
49.91
49.67
46.98
44.30
42.08
39.85
37.46
35.41
35.06
37.48
42.33
48.16
53.10
55.58
55.47
54.46
55.28
60.59
70.66
82.07
88.30
82.30
60.04
22.89
-22.56
-67.42
-103.88
-127.54
-137.70
-135.59
-122.69
-100.56
-71.52
-39.69
-10.58
10.83
23.08
28.38
31.37
35.80
41.49
44.31
38.42
20.33
-8.46
-40.81
-67.53
-81.37
-80.13
-67.53
-51.21
-38.60
-33.49
-35.10
-39.54
-42.59
-41.77
-36.61
-27.46
-13.98
4.28
26.45
48.99
66.07
72.03
64.88
48.08
29.68
18.89
21.47
36.60
56.99
72.46
74.80
62.03
39.34
16.32
3.03
5.53
23.80
52.75
84.78
112.62
131.21
137.92
131.41
110.97
77.61
35.66
-6.29
-37.04
-46.94
-32.12
3.05
46.96
85.04
105.24
102.47
79.48
44.79
8.31
-21.99
-42.33
-52.82
-55.94
-54.89
-52.87
-53.58
-59.58
-75.55
-105.94
-152.72
-213.11
-278.83
-337.96
-378.81
-394.43
-385.35
-359.25
-327.02
-297.94
-276.21
-260.35
-245.30
-225.93
-199.85
-167.96
-133.57
-99.96
-68.67
-39.03
-8.73
25.27
65.86
114.91
172.53
235.95
299.17
353.42
388.92
397.85
377.26
330.46
266.42
197.10
133.79
84.34
51.86
34.87
28.76
27.43
24.90
16.89
2.11
-17.31
-36.72
-51.30
-58.83
-60.99
-62.57
-68.92
-82.98
-103.89
-127.71
-149.91
-167.52
-179.82
-187.25
-189.76
-185.93
-173.63
-151.75
-121.54
-86.55
-51.26
-19.18
8.23
31.58
52.65
73.23
94.45
116.77
140.42
166.03
195.19
230.26
273.52
325.60
383.82
441.65
489.93
519.75
525.79
508.30
472.63
426.94
378.94
333.69
293.12
257.27
225.92
199.49
178.77
163.55
152.22
142.09
130.51
115.98
98.55
79.59
60.75
42.86
24.60
3.59
-22.21
-53.02
-86.82
-119.93
-147.96
-167.12
-175.39
-174.60
-168.79
-162.72
-160.64
-166.05
-181.16
-205.52
-235.13
-262.42
-280.38
-282.64
-264.68
-225.52
-169.26
-105.35
-46.11
-3.01
16.41
6.55
-33.55
-99.79
-183.86
-275.69
-365.42
-444.03
-503.89
-521.67
-484.50
-399.73
-293.81
-195.92
-122.68
-75.67
-47.55
-29.30
-14.51
-3.97
-0.60
-5.26
-14.99
-24.76
-30.47
-30.35
-25.48
-16.83
-8.20
-3.18
-3.15
-6.82
-11.85
-16.83
-21.83
-27.80
-35.73
-47.75
-64.96
-86.48
-109.40
-130.18
-146.04
-156.43
-161.57
-162.36
-160.90
-159.23
-158.63
-159.39
-161.35
-164.34
-168.39
-173.38
-178.94
-184.72
-190.06
-193.98
-195.31
-193.06
-186.72
-176.30
-162.16
-144.90
-125.27
-104.03
-81.90
-59.58
-37.70
-16.82
2.68
20.55
36.71
51.13
63.87
75.03
84.68
92.93
99.83
105.50
110.07
113.72
116.70
119.20
121.39
123.29
124.84
125.94
126.51
126.63
126.57
126.74
127.60
129.50
132.55
136.62
141.35
146.35
151.36
156.27
161.14
165.97
170.54
174.30
176.47
176.26
173.28
167.73
160.53
153.15
147.16
143.81
143.69
146.76
152.56
160.43
169.88
180.73
193.24
208.41
228.10
254.70
289.90
333.05
379.91
422.76
452.49
461.64
447.01
410.50
357.81
295.97
231.24
168.40
110.98
61.65
22.10
-7.71
-30.06
-48.84
-67.88
-89.11
-111.71
-133.02
-150.35
-162.51
-170.47
-176.71
-183.90
-193.66
-205.90
-218.66
-228.69
-232.40
-227.16
-212.38
-189.70
-162.20
-133.20
-105.03
-78.61
-53.73
-29.50
-4.65
22.57
54.38
92.77
137.78
185.88
229.80
260.21
268.98
252.33
212.25
155.65
91.62
28.40
-28.42
-75.95
-112.69
-137.05
-146.62
-139.12
-114.19
-74.71
-26.72
22.33
66.05
100.84
125.89
141.59
147.76
143.07
126.18
97.60
60.71
20.82
-16.99
-49.91
-77.76
-101.62
-121.67
-136.26
-142.63
-139.11
-126.85
-109.78
-92.86
-79.61
-70.60
-63.74
-56.10
-45.98
-33.91
-22.08
-12.82
-6.88
-2.90
1.71
9.08
19.05
28.86
34.34
32.06
21.16
3.74
-16.54
-36.76
-56.48
-77.88
-103.81
-135.13
-168.79
-197.91
-214.11
-210.69
-185.12
-139.74
-80.77
-16.56
44.01
92.70
123.02
131.78
120.61
96.41
69.91
52.15
50.22
64.45
88.39
111.87
125.42
123.91
107.89
82.36
53.97
28.19
7.70
-7.70
-20.06
-31.78
-44.46
-58.70
-74.21
-90.30
-106.02
-120.10
-130.73
-135.82
-133.85
-124.79
-110.63
-94.82
-80.74
-69.99
-61.60
-52.54
-39.47
-20.45
4.24
32.50
61.53
88.98
113.57
135.08
153.99
171.04
186.47
199.38
207.46
207.77
198.34
179.87
156.23
133.07
115.20
103.90
96.21
86.44
69.35
43.16
10.69
-21.68
-46.36
-57.16
-51.24
-30.03
0.75
32.22
54.53
59.88
45.22
13.49
-27.68
-69.16
-104.00
-129.70
-148.05
-163.04
-178.15
-194.80
-212.47
-229.89
-246.05
-260.21
-271.19
-276.63
-273.46
-259.35
-234.42
-201.76
-166.25
-132.10
-100.56
-69.38
-34.58
6.55
53.01
99.68
139.31
165.76
176.81
175.34
168.42
164.88
172.37
194.60
229.74
270.69
307.44
330.65
335.17
321.67
295.93
265.80
237.79
214.68
195.37
176.51
154.76
128.32
97.10
62.07
24.52
-14.15
-52.31
-87.76
-118.08
-141.49
-157.53
-167.47
-173.85
-179.54
-186.70
-196.19
-207.69
-220.11
-232.23
-242.97
-251.64
-258.05
-262.34
-264.70
-264.80
-261.41
-252.47
-236.08
-211.82
-181.72
-149.61
-119.48
-93.17
-69.13
-43.37
-11.69
28.05
75.27
126.96
178.81
226.07
263.90
288.38
298.16
296.34
290.64
291.01
305.01
333.37
368.65
398.18
409.80
397.15
361.77
311.06
253.99
197.21
143.65
93.74
47.34
4.97
-32.80
-66.45
-98.74
-134.30
-177.56
-229.95
-287.95
-343.24
-384.94
-403.82
-396.10
-365.24
-320.75
-274.37
-235.45
-207.57
-188.00
-169.96
-146.42
-113.58
-72.56
-28.65
11.24
41.43
59.27
65.11
60.80
47.94
27.05
-1.44
-35.29
-68.85
-93.40
-99.50
-80.40
-34.95
31.42
107.86
180.82
237.37
268.14
269.56
245.11
205.01
163.86
136.32
131.92
151.42
186.45
222.99
247.10
250.14
230.88
194.06
146.59
94.02
39.12
-17.05
-72.74
-123.82
-164.09
-187.56
-191.24
-177.15
-152.15
-125.96
-107.80
-103.40
-113.45
-134.17
-159.63
-184.32
-204.71
-218.64
-224.05
-218.30
-199.13
-167.28
-128.83
-95.18
-79.68
-91.90
-132.54
-191.81
-252.60
-297.09
-313.39
-299.05
-260.32
-207.82
-151.68
-98.16
-49.19
-3.98
38.89
80.43
121.73
164.60
211.51
263.82
319.47
371.98
411.89
430.38
422.96
391.55
342.94
285.37
225.23
166.08
110.10
60.57
22.93
3.46
6.44
31.79
75.00
129.34
188.55
248.13
304.53
353.67
390.00
407.72
403.41
378.23
337.94
290.66
243.73
201.37
164.29
130.92
98.94
66.13
30.37
-10.64
-59.02
-115.55
-178.47
-243.24
-303.29
-351.43
-381.41
-389.04
-373.14
-336.21
-284.40
-226.53
-171.87
-127.30
-95.02
-72.05
-51.91
-28.05
2.85
39.07
74.61
101.94
115.28
112.80
96.84
72.42
44.74
17.24
-9.43
-36.84
-67.49
-103.49
-145.48
-192.11
-239.95
-283.64
-316.85
-333.82
-331.63
-312.00
-281.98
-252.55
-235.38
-238.51
-262.95
-301.79
-342.57
-372.29
-382.50
-372.33
-347.69
-317.42
-288.62
-263.88
-241.51
-218.25
-192.38
-164.82
-137.88
-112.76
-88.14
-60.77
-27.90
10.43
50.96
88.79
120.12
144.39
164.58
185.70
212.12
245.19
282.06
316.21
339.52
345.16
330.07
295.98
248.78
196.43
146.64
105.23
75.56
58.77
54.35
60.22
72.84
87.48
99.09
103.80
100.31
90.28
77.86
68.46
66.98
76.35
96.75
125.45
157.59
187.41
209.77
221.24
220.57
208.33
186.10
155.74
119.11
78.26
35.67
-6.09
-44.99
-80.38
-113.21
-145.15
-177.10
-208.03
-235.03
-254.66
-264.68
-265.26
-258.81
-248.58
-237.03
-224.88
-211.37
-195.17
-175.24
-151.32
-123.82
-93.85
-63.33
-35.19
-12.90
0.67
4.62
0.73
-7.20
-15.38
-22.12
-28.60
-37.71
-51.41
-68.32
-83.21
-88.75
-78.61
-50.19
-5.70
48.91
106.22
159.47
203.85
236.82
258.16
269.84
275.91
281.77
292.47
310.76
335.77
363.15
386.96
402.06
405.72
397.92
380.16
354.13
320.90
281.27
236.61
189.41
143.00
100.44
63.16
30.45
-0.26
-32.26
-68.22
-109.23
-154.52
-201.76
-247.76
-289.31
-323.82
-349.79
-366.78
-375.37
-376.96
-373.46
-367.04
-359.47
-351.47
-342.31
-330.03
-312.19
-286.99
-254.00
-214.21
-169.28
-120.56
-68.42
-12.60
46.63
107.16
164.43
212.17
244.20
256.60
249.26
225.98
193.21
157.82
124.89
96.51
71.94
48.81
24.57
-2.44
-32.56
-64.97
-97.85
-128.65
-154.23
-170.93
-175.02
-163.59
-135.97
-95.01
-47.35
-2.01
32.53
51.51
55.97
52.38
49.80
56.27
75.62
106.79
145.44
186.71
227.55
267.75
309.24
354.44
404.28
456.65
506.10
544.95
565.69
563.85
539.98
499.47
450.40
400.35
353.81
311.57
272.00
233.22
194.72
157.47
122.91
91.67
62.92
34.71
4.97
-27.61
-63.11
-100.39
-137.75
-173.61
-207.12
-238.36
-268.23
-298.02
-328.83
-361.28
-395.68
-432.58
-472.93
-517.48
-565.33
-612.64
-652.53
-676.65
-678.13
-654.35
-608.04
-546.03
-476.29
-405.10
-335.83
-269.66
-207.42
-151.09
-103.86
-68.96
-48.07
-40.50
-43.54
-53.42
-66.33
-78.79
-87.80
-90.76
-85.65
-71.51
-48.81
-19.45
13.61
47.11
78.19
104.87
126.23
142.37
154.05
162.35
168.23
172.22
174.33
174.28
171.82
167.13
160.85
153.86
147.02
140.85
135.49
130.70
126.13
121.49
117.11
114.23
115.03
122.26
138.03
162.21
191.43
219.70
240.73
251.45
254.27
256.94
269.54
300.16
351.10
417.57
489.25
553.67
599.79
620.40
613.03
579.59
525.36
457.68
384.62
313.59
250.21
197.75
157.14
127.53
106.96
92.65
81.57
71.06
59.40
46.28
32.77
20.66
11.57
6.12
3.66
2.66
1.37
-1.39
-5.88
-11.36
-16.55
-20.22
-21.65
-20.95
-18.83
-16.28
-14.13
-12.80
-12.22
-12.01
-11.73
-11.11
-10.18
-9.21
-8.59
-8.63
-9.49
-11.07
-13.16
-15.52
-17.92
-20.31
-22.70
-25.19
-27.85
-30.70
-33.67
-36.65
-39.44
-41.91
-43.96
-45.56
-46.70
-47.42
-47.78
-47.83
-47.64
-47.27
-46.80
-46.28
-45.74
-45.15
-44.48
-43.69
-42.72
-41.58
-40.31
-39.01
-37.79
-36.76
-35.96
-35.36
-34.89
-34.49
-34.19
-34.12
-34.56
-35.79
-38.06
-41.46
-45.88
-51.04
-56.62
-62.43
-68.44
-74.86
-81.93
-89.84
-98.49
-107.54
-116.47
-124.81
-132.39
-139.53
-146.96
-155.57
-166.10
-178.81
-193.44
-209.31
-225.70
-242.05
-258.28
-274.68
-291.83
-310.43
-331.17
-354.42
-379.74
-405.39
-428.23
-444.16
-449.25
-441.51
-421.27
-391.13
-355.02
-317.08
-280.83
-248.93
-223.29
-205.20
-195.78
-195.16
-202.14
-214.18
-228.08
-240.98
-251.20
-258.51
-264.00
-270.68
-281.76
-299.53
-324.46
-354.97
-387.80
-418.95
-444.74
-462.63
-474.58
-483.28
-490.34
-494.75
-493.38
-483.08
-462.83
-434.37
-401.35
-373.91
-359.93
-361.99
-376.04
-393.61
-406.42
-409.92
-403.73
-390.23
-382.29
-390.63
-419.82
-465.79
-517.89
-564.11
-596.09
-611.11
-612.12
-619.64
-655.14
-733.41
-855.75
-1009.67
-1175.25
-1333.00
-1468.91
-1494.50
-1352.60
-1028.91
-566.25
-45.78
452.78
878.85
1213.76
1459.96
1629.88
1726.30
1753.77
1721.81
1647.55
1553.07
1458.41
1376.22
1311.08
1261.99
1215.58
1159.81
1088.88
1005.76
920.28
843.05
780.42
733.42
699.34
667.68
628.93
578.87
518.19
452.55
388.46
330.06
278.26
232.04
187.04
140.05
91.17
44.19
5.06
-20.96
-31.47
-27.42
-12.19
8.47
28.07
41.24
44.54
37.38
21.96
2.82
-14.27
-24.31
-22.00
-8.84
8.64
22.59
27.77
23.59
13.21
1.27
-8.76
-15.48
-19.71
-22.32
-23.27
-22.09
-18.69
-14.05
-9.89
-7.65
-7.57
-9.10
-10.64
-10.62
-8.61
-5.62
-3.64
-4.21
-7.63
-12.44
-16.80
-19.15
-18.97
-17.15
-14.87
-13.11
-12.52
-14.38
-20.89
-35.41
-60.02
-93.43
-130.60
-164.33
-189.05
-203.24
-210.97
-214.54
-213.78
-203.98
-177.89
-130.66
-64.44
10.19
77.62
123.87
142.91
137.58
119.13
100.84
91.44
92.37
99.30
106.34
110.18
111.47
113.36
118.63
127.23
135.79
139.73
136.02
125.09
110.85
98.73
93.17
95.57
103.51
112.12
116.31
112.54
99.82
80.06
56.09
31.85
11.42
-2.08
-7.59
-6.53
-2.51
-0.23
-3.29
-12.69
-26.40
-40.80
-52.95
-62.01
-69.30
-76.63
-84.88
-93.12
-99.27
-101.20
-97.74
-89.08
-76.47
-62.07
-48.74
-39.94
-38.19
-44.32
-56.38
-69.76
-78.69
-78.56
-67.69
-47.66
-22.06
5.42
32.67
58.28
81.62
101.79
117.28
126.51
128.91
125.33
117.04
105.11
89.87
70.62
45.97
14.61
-24.15
-68.92
-116.29
-160.64
-194.95
-213.11
-212.45
-195.40
-168.99
-142.32
-122.83
-113.60
-113.04
-116.80
-119.89
-119.26
-114.53
-105.78
-92.93
-74.98
-50.82
-20.52
13.82
48.13
77.77
98.83
110.03
112.38
108.72
102.29
95.38
88.62
81.27
72.26
61.17
49.31
39.10
33.34
34.31
43.24
60.13
83.77
111.33
136.93
155.00
160.21
149.77
125.28
92.80
60.56
35.65
21.30
16.18
16.48
18.20
19.46
20.70
23.28
27.66
32.63
36.00
35.96
32.57
27.61
23.78
23.57
27.84
35.45
43.83
50.25
53.14
52.26
49.11
45.94
44.37
44.65
45.32
43.51
36.47
22.43
0.85
-27.57
-61.16
-97.01
-130.37
-155.94
-168.99
-167.24
-152.40
-129.92
-106.97
-89.65
-80.97
-79.68
-82.64
-86.71
-90.29
-93.67
-97.86
-103.21
-109.04
-114.03
-116.85
-117.35
-116.18
-114.15
-111.64
-108.18
-101.77
-90.32
-72.28
-47.25
-16.28
18.46
54.29
88.50
118.27
142.28
160.62
172.60
177.45
174.44
163.06
143.36
115.96
82.23
44.38
4.08
-35.42
-71.44
-101.85
-125.06
-140.02
-146.07
-142.94
-130.92
-110.95
-84.61
-54.09
-21.75
9.42
37.38
60.74
78.76
91.23
98.50
101.36
100.65
97.26
92.09
86.03
79.69
73.44
67.44
61.79
56.58
51.76
47.19
42.82
38.70
34.81
31.64
28.78
26.15
23.79
21.67
19.76
18.04
16.49
15.05
13.67
12.30
11.06
10.09
9.46
9.15
9.07
9.08
9.00
8.71
8.20
7.73
7.61
8.06
9.15
10.70
12.38
13.83
14.80
15.46
16.26
17.83
20.53
24.35
28.65
32.40
34.89
35.15
33.18
29.77
26.16
23.45
22.12
21.83
21.57
20.43
17.91
14.55
11.59
10.48
12.18
16.91
24.17
32.87
41.38
47.57
49.05
43.75
30.85
11.52
-11.11
-32.74
-49.56
-59.78
-64.07
-64.88
-64.61
-64.34
-63.28
-59.47
-51.17
-38.22
-22.68
-8.27
0.68
1.31
-6.76
-21.11
-37.40
-51.03
-58.77
-59.89
-55.80
-49.40
-42.81
-37.08
-32.46
-28.89
-26.44
-25.38
-26.00
-28.02
-31.24
-34.68
-38.19
-43.17
-51.97
-66.52
-87.28
-113.23
-138.29
-157.16
-164.57
-158.04
-138.78
-111.00
-79.73
-49.15
-21.55
2.98
25.87
51.24
82.67
120.79
162.43
201.39
229.94
240.95
230.56
192.57
132.75
67.91
16.14
-13.99
-24.84
-24.22
-19.20
-13.17
-6.50
2.50
13.97
25.42
33.08
34.90
31.57
25.82
21.12
19.91
23.66
31.77
41.96
51.11
57.37
60.79
62.61
64.44
67.32
70.94
74.14
75.04
71.28
61.51
45.72
25.02
1.27
-22.36
-44.11
-64.05
-80.43
-92.30
-98.99
-100.24
-96.19
-87.26
-74.24
-59.04
-42.98
-27.17
-13.37
-3.69
-0.42
-5.60
-20.38
-39.10
-59.52
-79.06
-95.26
-106.57
-112.74
-114.65
-113.84
-111.80
-109.90
-110.19
-113.37
-118.57
-122.87
-121.65
-110.08
-85.52
-49.31
-7.09
32.53
62.42
79.38
84.69
82.52
77.43
72.22
67.46
62.59
56.82
50.80
45.98
43.56
43.48
44.57
45.10
43.63
39.86
34.46
28.93
24.77
22.77
22.69
23.48
23.81
22.69
19.95
16.15
12.34
9.50
8.09
7.85
7.99
7.62
6.20
3.75
0.89
-1.61
-3.19
-3.77
-3.84
-4.27
-5.67
-8.22
-11.48
-14.59
-16.71
-17.40
-16.88
-16.04
-16.01
-17.68
-21.20
-25.92
-30.60
-34.07
-35.76
-35.92
-35.67
-36.24
-38.48
-42.05
-45.71
-47.07
-43.50
-32.66
-12.89
15.96
51.50
88.49
119.31
136.47
135.92
119.07
92.47
64.97
44.03
32.47
27.57
24.09
17.05
3.91
-15.20
-38.57
-63.74
-87.93
-107.98
-120.33
-121.59
-111.71
-93.85
-73.24
-55.31
-43.36
-37.37
-35.30
-34.27
-31.89
-27.04
-19.06
-7.40
8.42
28.36
50.91
72.98
91.16
102.79
106.55
103.39
95.74
86.62
79.20
75.95
78.10
84.92
93.29
97.75
92.56
74.15
42.50
4.47
-29.91
-51.64
-56.73
-47.17
-29.61
-11.72
1.18
7.48
7.86
2.87
-8.09
-25.92
-50.03
-76.84
-100.40
-114.03
-114.09
-101.67
-81.99
-61.84
-46.61
-38.06
-34.83
-34.08
-32.89
-29.58
-23.45
-14.32
-1.74
15.07
36.46
61.31
85.72
103.20
105.76
87.54
48.43
-4.15
-56.45
-93.08
-102.51
-81.96
-37.96
16.74
69.03
110.15
137.65
154.11
164.04
171.84
180.78
193.55
212.73
240.18
275.35
313.29
344.80
355.45
334.98
281.36
203.08
116.97
42.66
-3.96
-15.66
4.88
47.02
96.63
139.59
164.75
165.61
140.92
94.39
33.37
-33.24
-97.14
-151.86
-194.09
-223.28
-240.93
-249.84
-253.80
-256.89
-262.40
-271.49
-282.11
-289.73
-289.02
-276.18
-250.69
-215.51
-175.77
-136.74
-102.14
-73.67
-51.71
-36.15
-26.75
-22.88
-22.93
-24.35
-24.30
-20.89
-13.98
-5.28
2.72
7.77
9.08
7.53
5.07
3.82
5.16
9.47
16.03
23.39
29.76
33.29
32.39
26.06
14.37
-1.43
-19.22
-36.89
-53.23
-68.16
-82.27
-96.02
-108.99
-119.71
-126.14
-126.36
-119.31
-105.21
-85.03
-60.29
-32.96
-5.49
19.52
40.03
55.59
67.24
76.64
85.65
95.28
105.02
113.08
117.21
115.84
109.11
98.19
83.99
67.67
50.34
32.90
16.05
0.27
-14.23
-27.27
-40.38
-57.25
-81.02
-112.59
-149.49
-186.35
-216.97
-236.70
-243.56
-231.07
-197.65
-144.68
-76.17
2.15
83.90
162.80
228.96
281.10
319.99
345.91
359.69
362.37
354.92
339.29
317.08
290.08
261.02
231.72
202.46
173.15
143.61
113.81
84.17
55.43
28.82
6.21
-11.58
-25.32
-36.56
-47.31
-59.49
-74.32
-92.17
-112.57
-134.00
-155.37
-176.37
-197.22
-218.76
-242.57
-270.94
-306.30
-349.72
-398.94
-447.73
-486.57
-505.24
-496.66
-459.87
-400.64
-328.95
-255.10
-185.91
-123.49
-66.24
-11.14
44.44
102.22
163.43
228.90
298.17
368.02
431.89
481.15
508.11
508.93
485.47
444.46
394.85
344.71
299.21
260.24
227.24
198.43
171.56
144.28
114.37
80.29
41.78
-0.07
-43.01
-84.80
-123.93
-160.31
-195.27
-231.21
-271.05
-317.33
-370.83
-429.32
-486.96
-535.20
-565.31
-571.40
-552.81
-514.23
-463.72
-409.49
-357.20
-309.09
-264.82
-223.32
-183.99
-146.74
-111.23
-76.14
-39.31
1.24
46.08
93.82
141.56
185.96
224.75
257.60
286.40
314.87
347.52
387.93
436.74
490.33
540.92
578.64
595.04
586.50
556.11
512.22
465.05
422.59
388.09
360.00
334.46
308.33
280.83
253.63
228.99
208.04
189.79
171.52
150.00
122.43
87.03
42.62
-10.57
-70.53
-131.92
-185.57
-220.18
-226.37
-201.45
-151.61
-91.76
-38.39
-4.69
4.58
-6.77
-30.47
-59.01
-87.85
-114.10
-136.46
-149.66
-149.81
-136.24
-113.84
-92.59
-84.63
-98.27
-133.86
-188.38
-252.48
-319.97
-387.03
-450.77
-507.17
-551.37
-577.56
-580.05
-561.70
-525.63
-480.61
-434.69
-392.10
-352.18
-312.34
-268.41
-197.09
-120.76
-41.16
34.05
97.26
143.78
183.36
224.16
258.02
283.81
303.66
320.40
332.02
337.00
335.59
329.60
319.56
305.66
289.58
269.36
246.40
221.03
194.67
169.04
144.40
117.20
81.98
35.31
-25.51
-96.15
-167.87
-228.42
-266.01
-273.34
-249.92
-200.32
-130.72
-49.38
35.95
117.01
186.02
236.98
267.29
278.36
275.48
266.05
255.62
246.05
235.89
222.40
203.32
177.91
146.67
111.00
72.90
34.23
-4.31
-41.95
-77.84
-111.20
-142.25
-173.11
-207.77
-251.16
-306.83
-376.03
-453.82
-529.07
-587.73
-617.91
-614.90
-582.82
-532.44
-476.34
-426.30
-387.53
-358.07
-331.44
-299.99
-257.93
-201.78
-129.80
-30.20
96.73
237.43
368.07
465.13
516.53
524.71
502.57
466.15
428.54
394.07
361.72
330.40
298.79
268.75
243.35
224.50
211.05
199.36
182.51
154.98
114.23
60.55
-4.33
-77.50
-152.67
-220.80
-270.76
-295.21
-292.99
-269.96
-235.98
-200.77
-170.41
-146.18
-128.45
-112.71
-97.33
-82.95
-70.99
-61.11
-51.05
-37.33
-17.09
10.77
44.29
78.37
107.37
127.31
138.40
144.16
150.44
163.05
186.46
222.83
271.61
331.45
393.58
449.48
490.62
509.86
502.42
467.72
409.82
336.49
258.40
185.91
127.01
84.53
58.85
43.88
34.49
27.20
19.35
8.90
-6.37
-28.21
-58.35
-98.05
-148.19
-207.91
-270.95
-329.01
-373.18
-396.83
-397.09
-375.30
-335.57
-283.30
-222.85
-158.20
-94.29
-37.24
6.40
32.31
40.81
36.45
25.28
12.63
0.97
-10.06
-21.54
-33.96
-45.75
-53.48
-54.61
-49.84
-42.83
-39.48
-45.98
-67.01
-104.67
-157.06
-217.38
-268.98
-294.97
-285.85
-246.33
-192.27
-141.16
-103.66
-84.42
-73.62
-60.41
-38.40
-6.14
34.72
83.10
139.56
200.93
258.17
299.51
315.28
303.16
268.92
222.92
176.23
136.69
106.92
86.67
74.81
69.64
68.63
69.37
65.36
50.68
21.92
-20.74
-72.17
-123.70
-165.95
-190.40
-194.41
-183.44
-167.45
-156.01
-155.34
-162.65
-170.82
-172.23
-161.86
-138.98
-106.09
-65.86
-19.47
30.11
79.20
123.82
160.67
187.68
203.48
207.86
202.35
189.64
172.80
155.10
138.82
125.04
113.70
103.83
94.29
84.64
74.97
65.63
57.25
50.22
44.49
39.78
35.66
31.78
28.26
25.26
22.73
20.45
18.20
15.61
12.60
9.37
6.25
3.84
2.42
1.80
1.47
0.95
-0.09
-1.30
-0.82
1.42
5.77
11.80
18.28
23.37
25.83
24.89
21.12
16.23
12.12
10.82
13.79
21.78
33.16
46.83
59.05
64.71
59.37
41.38
13.69
-17.03
-42.91
-58.30
-61.80
-56.55
-47.68
-39.39
-33.25
-28.34
-23.41
-18.37
-14.99
-15.76
-22.54
-35.48
-53.04
-72.88
-92.86
-111.02
-124.92
-131.43
-127.34
-111.10
-84.19
-51.21
-18.55
7.95
25.15
33.27
34.89
33.27
30.88
28.89
27.78
27.95
29.71
33.04
37.42
41.57
44.12
44.38
42.27
38.92
36.21
36.26
40.38
48.05
56.35
60.48
55.91
40.53
16.35
-10.91
-33.97
-47.36
-49.73
-44.05
-35.70
-29.53
-28.23
-31.23
-37.42
-45.20
-53.89
-63.48
-73.91
-84.96
-94.10
-98.93
-97.52
-89.36
-75.24
-56.98
-36.75
-16.63
1.93
18.34
32.37
43.95
52.85
58.71
61.24
60.66
57.63
53.24
48.96
45.91
44.83
45.56
47.18
48.52
48.57
46.82
43.37
39.19
35.58
33.95
35.11
38.78
43.76
48.09
49.66
46.78
38.84
26.22
10.32
-5.55
-20.31
-33.72
-46.35
-59.00
-72.10
-84.96
-96.03
-103.18
-105.06
-102.00
-95.84
-89.60
-86.08
-86.86
-91.90
-99.90
-108.63
-115.54
-118.09
-113.66
-100.49
-78.68
-50.56
-20.36
6.99
28.27
42.31
49.98
53.28
53.87
51.71
45.37
32.75
12.80
-12.41
-38.03
-57.37
-65.10
-60.48
-49.00
-40.56
-45.21
-68.48
-106.37
-147.71
-177.87
-184.64
-162.79
-115.66
-52.47
16.04
79.35
131.97
172.49
202.00
221.56
231.93
231.26
218.81
196.13
167.36
138.28
113.19
93.40
76.59
58.29
33.79
2.62
-32.46
-66.18
-92.50
-107.47
-110.52
-104.39
-93.65
-82.47
-72.49
-62.51
-49.42
-30.06
-3.57
29.03
64.92
100.31
130.59
150.83
155.91
142.18
111.26
68.00
22.58
-13.34
-31.66
-31.52
-19.32
-5.30
1.94
-0.72
-10.72
-22.02
-29.42
-31.14
-28.67
-24.70
-20.80
-16.46
-10.03
-0.68
10.36
19.69
23.27
18.39
5.14
-13.38
-32.03
-45.38
-49.96
-45.30
-33.91
-19.80
-6.53
3.88
11.57
18.42
27.22
40.59
60.22
86.20
114.14
139.30
155.32
155.95
137.89
103.43
60.24
18.55
-12.88
-30.32
-35.55
-34.23
-32.81
-35.68
-44.32
-58.27
-76.03
-95.12
-111.86
-121.63
-120.64
-106.81
-83.81
-58.87
-39.83
-31.78
-35.27
-46.62
-60.39
-72.05
-79.43
-82.82
-82.95
-80.35
-75.14
-67.27
-56.60
-43.46
-28.38
-12.11
4.75
22.10
40.33
59.94
79.78
99.76
119.51
138.32
155.49
170.71
184.18
195.35
202.08
200.43
186.41
157.74
116.33
68.41
22.60
-13.35
-35.81
-45.81
-47.43
-44.64
-39.83
-33.19
-24.32
-13.86
-3.91
2.32
2.04
-5.37
-18.12
-33.50
-48.94
-63.48
-77.92
-93.36
-111.55
-133.48
-158.93
-186.34
-213.31
-236.31
-251.03
-254.73
-243.38
-216.45
-177.11
-131.34
-85.79
-45.52
-12.34
14.84
37.78
58.63
77.59
93.47
105.00
111.95
115.42
117.06
117.99
118.21
117.33
114.42
109.14
102.13
94.72
88.29
83.65
80.73
78.63
76.57
73.82
70.32
66.61
63.53
61.65
61.08
61.15
61.13
60.44
58.83
56.66
54.77
54.18
55.65
59.26
64.31
68.33
68.30
61.15
45.20
21.14
-7.63
-36.06
-58.94
-72.95
-77.62
-74.97
-68.42
-60.99
-54.30
-48.36
-42.40
-35.52
-27.49
-18.87
-10.61
-3.92
0.41
1.67
-0.21
-5.00
-12.18
-21.24
-31.67
-42.88
-54.62
-66.46
-78.06
-89.28
-100.36
-111.39
-121.47
-128.38
-128.05
-117.00
-94.13
-62.12
-27.01
3.99
25.52
36.15
38.30
36.48
34.33
33.11
31.72
28.43
22.43
14.87
8.24
4.90
5.94
10.57
16.69
21.80
24.65
25.34
25.44
26.99
31.44
39.13
49.31
60.67
71.83
81.25
86.84
86.05
76.67
58.28
32.92
6.02
-16.45
-30.43
-35.15
-32.94
-27.28
-20.62
-13.32
-4.22
7.42
20.59
32.56
40.26
42.07
38.88
33.61
29.41
28.34
29.98
31.57
29.53
21.12
5.52
-16.20
-41.03
-64.54
-81.48
-86.70
-76.70
-51.43
-15.49
21.92
50.05
60.08
48.90
20.58
-15.45
-48.40
-70.24
-77.91
-73.08
-59.82
-42.05
-21.93
-0.64
20.58
39.27
52.06
55.98
49.98
35.63
16.49
-2.87
-18.73
-28.98
-33.58
-33.85
-31.27
-26.67
-20.09
-11.07
0.77
15.10
30.71
45.53
57.35
64.58
66.58
63.82
57.66
49.64
41.22
33.51
27.11
22.26
19.39
18.79
20.85
25.88
33.72
43.88
55.77
68.67
81.88
95.15
108.31
121.39
134.60
148.17
162.26
177.29
193.57
211.36
230.56
250.35
269.08
284.31
293.04
292.22
281.24
259.55
227.57
186.44
137.30
81.03
18.01
-51.48
-126.52
-204.99
-283.77
-358.96
-426.65
-484.11
-530.24
-565.69
-592.50
-613.70
-632.87
-653.64
-678.24
-706.00
-732.68
-751.02
-752.99
-733.02
-690.36
-629.55
-558.74
-486.21
-417.74
-355.52
-299.07
-247.16
-199.34
-156.20
-118.61
-86.76
-59.36
-34.62
-11.33
10.49
29.80
45.11
55.53
61.31
63.81
65.52
68.65
74.41
82.56
91.66
99.81
105.37
107.47
106.19
103.22
100.27
98.35
97.46
96.95
96.14
94.72
92.82
90.86
91.62
97.07
107.21
120.01
132.68
143.00
149.93
153.54
154.60
158.98
171.21
192.43
220.26
250.88
281.51
311.14
339.94
368.39
404.19
452.32
511.94
576.69
638.31
690.86
732.17
762.97
785.47
811.94
851.55
905.74
968.20
1029.18
1080.59
1117.88
1139.24
1083.47
920.00
659.36
349.83
47.65
-210.78
-413.41
-563.66
-671.08
-745.82
-786.83
-792.26
-767.96
-724.19
-672.15
-619.79
-570.60
-525.02
-481.77
-435.65
-383.05
-325.34
-268.09
-217.97
-179.33
-153.26
-138.89
-134.14
-132.23
-127.39
-117.54
-103.88
-89.10
-75.50
-64.26
-56.21
-51.66
-48.62
-45.07
-40.07
-33.70
-26.08
-17.67
-7.07
3.44
11.87
17.50
20.33
20.94
20.35
20.27
21.88
26.24
33.77
44.78
58.33
71.73
80.54
76.58
57.54
25.31
-13.65
-50.81
-78.40
-92.79
-95.31
-90.52
-83.20
-75.49
-67.55
-58.25
-47.30
-35.83
-26.20
-20.45
-19.03
-20.46
-21.79
-20.91
-16.80
-10.77
-5.62
-4.55
-9.84
-21.72
-38.30
-54.96
-68.64
-77.24
-80.70
-80.69
-79.69
-80.13
-83.60
-90.62
-100.10
-109.62
-114.98
-111.42
-95.25
-65.95
-27.30
13.69
49.12
73.61
85.91
89.05
88.05
87.56
90.10
95.45
101.43
104.57
101.34
89.11
67.66
39.33
9.09
-16.79
-33.54
-39.22
-35.45
-26.10
-15.27
-5.49
2.36
8.26
11.99
12.38
8.34
-0.56
-13.39
-28.05
-42.04
-53.25
-60.89
-64.41
-66.07
-67.93
-71.22
-76.02
-81.67
-87.51
-93.69
-100.98
-109.61
-118.08
-122.31
-117.09
-98.80
-67.81
-29.12
9.12
38.97
56.10
60.69
56.91
50.12
44.34
41.47
42.11
46.87
56.65
71.69
89.83
106.27
114.89
111.06
93.80
68.11
42.18
23.74
16.92
20.88
31.24
42.69
51.52
56.49
58.26
57.94
56.16
53.01
48.37
42.40
35.28
27.04
17.35
5.61
-8.84
-26.15
-45.65
-65.76
-85.00
-102.07
-116.18
-127.17
-135.61
-142.77
-150.45
-160.02
-171.97
-183.73
-190.61
-187.21
-169.86
-138.88
-99.01
-58.13
-23.13
2.08
17.93
28.35
38.32
51.38
68.37
87.77
106.60
122.95
136.10
146.16
153.60
158.78
161.80
162.73
162.21
162.07
163.54
166.73
169.63
168.03
157.20
134.45
101.12
62.78
27.14
0.89
-13.08
-16.10
-12.38
-6.35
-0.82
3.62
7.46
10.90
13.24
13.01
9.21
1.85
-8.01
-18.94
-29.64
-39.84
-50.10
-60.98
-73.40
-87.14
-101.12
-113.58
-122.83
-127.78
-128.63
-126.90
-123.91
-121.30
-118.91
-115.67
-109.97
-100.19
-85.59
-66.87
-45.89
-24.68
-6.21
8.08
17.93
24.04
27.10
27.71
25.63
20.13
10.47
-3.57
-21.39
-42.15
-64.41
-85.77
-102.52
-110.18
-104.81
-85.31
-54.60
-19.28
12.28
33.26
40.70
36.14
23.56
8.90
-4.53
-15.12
-22.45
-26.12
-25.13
-18.40
-5.60
12.13
32.47
51.48
66.90
77.66
84.04
87.26
88.74
89.41
89.56
88.79
86.32
81.91
75.86
69.00
62.48
57.20
53.49
51.12
49.34
47.30
44.61
41.33
37.93
35.02
33.06
32.05
31.70
31.43
30.70
29.39
27.76
26.38
25.90
26.95
29.01
31.31
32.85
33.06
31.48
28.38
24.63
21.18
18.33
15.54
11.64
5.23
-4.91
-17.65
-30.89
-41.81
-48.06
-48.93
-45.75
-41.45
-39.45
-41.87
-48.28
-56.03
-61.26
-60.92
-54.43
-43.71
-31.88
-21.62
-13.96
-8.55
-5.21
-4.39
-6.69
-11.33
-15.25
-13.45
-3.28
12.66
26.61
29.50
17.06
-6.20
-29.28
-39.20
-28.85
-1.75
29.27
48.70
46.78
24.72
-6.29
-31.42
-39.39
-28.10
-4.86
18.71
32.80
33.77
25.47
15.66
11.07
14.20
22.72
31.41
35.24
31.49
19.30
-0.43
-25.83
-54.19
-81.39
-102.29
-111.95
-107.22
-88.36
-59.07
-25.10
7.59
34.27
52.57
62.16
63.44
56.92
43.53
25.37
6.23
-9.34
-17.34
-15.84
-5.90
8.95
24.14
34.85
36.90
27.60
6.54
-23.03
-53.92
-76.87
-83.78
-71.29
-42.66
-6.48
27.16
50.70
61.92
63.95
61.64
58.38
54.46
48.20
38.36
25.80
13.77
6.82
8.83
20.18
37.54
54.18
62.15
55.31
32.06
-3.18
-41.43
-72.71
-90.34
-93.56
-86.49
-74.79
-62.35
-50.15
-37.28
-23.39
-10.13
-0.92
1.07
-5.04
-17.32
-32.21
-46.40
-57.75
-65.69
-69.56
-68.38
-60.77
-45.93
-24.82
-0.54
22.52
40.27
50.21
52.95
51.02
47.29
43.62
40.23
36.48
31.15
24.34
17.38
12.56
12.29
18.09
29.62
44.15
56.63
61.62
56.04
41.07
22.56
8.60
6.06
16.84
36.47
55.76
64.57
56.25
29.92
-9.21
-51.96
-88.10
-109.15
-110.32
-90.83
-54.03
-6.82
41.27
79.94
100.31
97.23
70.84
26.32
-27.57
-80.59
-123.08
-147.43
-148.10
-122.91
-74.29
-10.55
54.52
104.68
125.78
111.16
64.64
0.27
-62.67
-106.50
-121.10
-106.23
-69.10
-19.72
33.61
85.66
134.86
177.37
206.47
213.77
192.85
143.13
71.32
-10.44
-89.22
-153.46
-195.75
-212.95
-205.26
-175.08
-126.16
-63.82
7.58
76.85
132.96
170.23
189.39
193.45
184.91
165.86
139.25
111.83
87.06
67.13
50.75
33.20
8.49
-27.46
-74.77
-130.53
-186.55
-233.95
-262.97
-265.69
-238.84
-186.15
-119.02
-54.53
-11.31
-1.45
-25.93
-72.77
-122.78
-157.94
-168.12
-153.09
-115.21
-63.78
-10.58
35.58
73.74
107.97
140.62
168.05
181.89
173.74
140.34
90.15
37.37
-1.18
-12.80
5.80
47.68
98.88
143.33
167.58
165.46
138.87
94.62
44.95
3.89
-16.86
-11.98
14.52
50.18
79.44
89.94
76.91
43.52
-2.62
-53.30
-99.63
-135.18
-157.53
-166.99
-164.29
-149.88
-125.37
-94.93
-64.86
-41.32
-28.08
-25.25
-29.12
-33.94
-34.57
-28.58
-16.73
-2.82
8.04
11.28
5.81
-5.36
-14.54
-13.21
3.94
36.97
80.13
124.71
160.93
182.12
186.10
173.67
146.33
105.43
54.93
-1.09
-55.51
-100.30
-129.34
-140.88
-137.73
-122.58
-102.40
-82.27
-64.42
-48.74
-34.77
-22.35
-11.88
-3.72
2.01
5.17
6.57
6.92
6.99
7.01
6.99
6.73
6.20
5.31
4.10
2.34
-1.47
-8.80
-19.92
-32.70
-42.30
-42.57
-28.74
-0.08
39.89
84.25
126.13
160.34
183.81
194.79
192.04
175.10
144.98
105.50
62.50
23.12
-7.08
-26.23
-36.20
-40.86
-43.70
-47.24
-47.72
-43.83
-35.18
-22.52
-7.28
9.05
25.31
38.89
49.30
55.63
56.25
50.43
38.38
20.74
-1.88
-29.58
-56.43
-78.94
-95.72
-107.54
-115.36
-119.36
-119.31
-114.84
-106.22
-94.75
-83.24
-74.57
-70.58
-70.97
-73.25
-74.64
-72.87
-67.23
-58.77
-50.36
-44.91
-44.69
-50.52
-61.12
-73.78
-83.81
-85.09
-71.66
-41.03
3.73
53.53
94.71
117.62
117.28
96.35
64.26
33.05
12.17
5.40
12.47
27.66
45.74
63.73
81.15
98.32
114.56
127.56
134.43
133.64
125.80
114.10
101.96
91.82
84.23
77.68
69.49
57.25
40.06
18.76
-3.89
-23.46
-38.08
-47.38
-52.61
-56.03
-59.85
-65.25
-72.11
-78.91
-83.83
-85.80
-84.74
-81.84
-79.04
-78.23
-80.30
-84.94
-90.64
-95.63
-98.83
-99.98
-99.88
-99.88
-101.26
-104.83
-111.05
-119.94
-130.97
-142.52
-151.41
-153.41
-144.91
-124.85
-95.67
-62.88
-32.90
-10.52
2.84
9.15
12.23
15.98
22.77
33.44
47.98
66.14
87.50
111.01
134.20
154.76
170.53
180.29
184.16
183.67
181.21
179.36
180.48
184.36
188.71
189.05
180.17
158.54
124.50
82.83
41.31
7.55
-14.10
-23.67
-25.04
-23.28
-21.99
-22.22
-22.98
-22.98
-22.09
-21.75
-23.92
-30.03
-40.09
-52.54
-64.84
-74.56
-80.31
-82.03
-80.86
-78.30
-75.40
-72.66
-69.52
-64.82
-57.55
-47.64
-36.04
-24.68
-15.60
-10.15
-8.88
-11.57
-17.62
-26.25
-35.85
-43.46
-45.21
-37.47
-18.78
8.72
39.54
66.88
85.20
92.41
90.11
81.86
71.11
59.63
47.35
33.54
18.12
2.03
-13.60
-27.04
-37.97
-47.16
-55.58
-63.86
-71.57
-77.25
-79.35
-76.56
-68.38
-55.61
-39.81
-22.90
-6.50
7.90
20.25
30.77
39.79
47.48
53.62
57.81
59.80
59.64
57.73
54.87
51.77
49.05
47.00
45.90
45.18
44.50
43.67
42.63
41.55
40.59
39.91
39.58
39.61
39.84
40.19
40.56
40.77
40.65
40.26
39.13
36.94
33.52
28.77
22.76
15.66
7.63
-1.04
-10.50
-19.97
-29.01
-37.19
-44.20
-49.81
-53.93
-56.67
-58.22
-58.73
-58.37
-57.08
-54.50
-50.16
-43.67
-34.86
-24.03
-11.89
0.59
12.27
22.29
30.23
36.08
40.05
42.28
42.64
40.25
35.24
27.68
18.28
8.40
-0.23
-6.10
-8.49
-7.82
-5.49
-3.03
-1.95
-2.83
-5.20
-7.99
-9.79
-9.22
-5.42
1.64
10.66
18.29
20.15
12.32
-7.24
-37.17
-72.68
-106.31
-130.25
-138.23
-127.73
-100.30
-60.85
-15.78
29.07
69.42
102.35
124.53
133.24
125.96
102.27
65.70
23.98
-12.71
-36.16
-43.20
-37.21
-25.69
-16.57
-14.70
-20.60
-31.98
-45.49
-58.14
-67.28
-70.54
-65.73
-51.92
-30.60
-5.38
18.71
37.47
49.25
55.64
60.17
66.33
74.85
83.59
88.19
83.72
68.16
43.14
14.93
-9.56
-25.32
-31.08
-29.27
-23.90
-18.45
-14.17
-10.53
-6.33
-1.41
3.29
6.35
7.07
5.93
4.03
2.55
1.80
1.21
-0.71
-5.26
-12.95
-23.44
-35.52
-47.91
-59.21
-69.18
-78.05
-86.85
-96.83
-108.60
-121.15
-131.30
-134.45
-126.29
-105.68
-74.82
-39.80
-7.93
15.38
28.70
34.63
37.57
41.28
47.02
53.85
59.91
64.16
67.26
70.80
76.00
82.74
89.37
93.60
93.56
88.88
80.81
71.83
64.47
60.38
60.20
63.61
69.57
76.49
82.01
83.17
77.24
62.77
40.57
13.99
-12.29
-33.97
-48.65
-56.21
-58.16
-56.27
-52.00
-46.16
-39.21
-31.81
-24.70
-18.47
-13.26
-8.86
-4.99
-1.34
1.33
2.55
2.40
1.77
1.96
4.03
7.69
12.76
18.00
21.64
21.88
17.53
8.91
-2.00
-12.44
-19.83
-22.62
-21.29
-17.65
-14.97
-16.79
-25.60
-41.63
-62.38
-82.40
-93.77
-89.17
-64.58
-22.94
25.95
68.65
93.14
92.89
67.08
22.84
-28.38
-70.80
-91.35
-86.41
-62.93
-31.94
-1.65
24.67
47.27
64.49
76.31
80.33
74.11
56.78
29.62
-4.88
-45.20
-84.25
-117.85
-144.43
-165.50
-182.20
-192.26
-190.04
-169.76
-129.72
-74.11
-13.10
41.90
81.96
103.69
109.53
105.18
96.69
88.22
82.00
78.26
77.32
79.65
85.53
93.82
100.92
101.11
88.45
60.27
18.85
-27.86
-69.05
-95.08
-101.23
-89.09
-65.02
-37.06
-11.74
6.83
16.93
18.41
11.81
-1.37
-18.32
-34.96
-46.67
-49.19
-39.98
-19.67
7.57
34.26
51.50
52.09
33.61
-0.26
-40.47
-76.10
-98.52
-104.32
-95.59
-77.77
-56.53
-34.67
-14.01
5.58
24.35
41.36
55.03
64.10
68.65
70.10
70.54
71.72
74.46
78.36
82.13
84.52
84.90
83.53
81.31
79.35
78.22
77.73
77.02
74.83
69.98
61.89
50.60
36.61
20.81
3.84
-13.72
-30.89
-47.11
-61.60
-73.46
-81.82
-86.97
-88.10
-85.14
-78.25
-67.69
-53.85
-37.27
-18.91
-0.32
16.35
29.06
36.00
36.24
30.14
18.88
4.12
-12.62
-29.55
-46.35
-62.58
-77.87
-91.98
-104.88
-117.08
-128.93
-139.66
-146.74
-146.53
-135.38
-112.21
-79.74
-43.94
-12.13
9.96
20.30
20.82
15.53
8.70
3.47
1.37
3.39
10.88
25.39
47.48
75.22
103.53
125.60
135.36
129.61
111.24
87.14
65.05
50.10
42.95
39.95
36.22
28.28
15.52
0.21
-14.44
-25.87
-33.00
-35.98
-35.44
-31.67
-24.24
-13.32
0.94
17.59
34.95
50.93
63.32
70.61
72.23
68.62
60.87
50.73
39.19
26.74
13.40
-1.16
-17.14
-34.13
-50.74
-65.15
-75.04
-78.80
-75.98
-67.54
-55.81
-43.78
-34.26
-29.33
-30.67
-39.34
-55.84
-78.97
-105.25
-128.81
-142.94
-142.56
-126.39
-97.91
-63.56
-29.60
1.02
29.25
57.64
87.22
113.62
130.52
131.83
115.95
86.86
52.48
20.97
-2.10
-13.96
-13.93
-2.14
20.10
50.42
83.18
111.18
127.96
130.80
122.15
107.67
93.96
85.23
83.62
88.54
97.83
108.08
113.35
110.10
95.76
71.90
39.60
2.61
-34.84
-69.65
-100.92
-129.31
-155.72
-180.21
-201.19
-216.84
-224.87
-225.25
-220.21
-213.77
-209.53
-208.04
-205.69
-192.72
-162.42
-111.58
-44.62
27.87
92.87
140.65
168.41
179.97
182.45
181.29
179.22
175.07
167.39
155.87
142.73
131.38
124.49
122.53
122.93
124.48
122.06
113.44
98.95
80.73
61.49
43.25
26.72
9.38
-8.56
-27.91
-48.28
-68.39
-86.37
-100.54
-110.02
-114.86
-116.41
-115.99
-115.30
-114.90
-114.46
-113.09
-109.74
-103.75
-94.31
-81.58
-65.81
-47.89
-28.49
-8.28
12.06
31.67
49.54
64.92
76.52
83.43
84.79
80.27
70.21
55.36
36.81
14.39
-8.77
-30.49
-49.18
-63.99
-74.18
-79.73
-80.52
-76.31
-66.85
-51.78
-31.71
-7.90
17.85
41.69
61.73
77.04
87.73
94.72
99.74
103.87
107.55
110.45
111.72
110.93
108.03
103.71
99.18
95.84
94.53
95.75
99.70
106.12
113.87
119.95
120.07
110.12
88.55
57.64
23.33
-7.01
-27.59
-36.41
-35.73
-30.17
-24.29
-20.29
-18.43
-18.17
-19.34
-22.60
-28.92
-38.73
-50.64
-62.93
-73.46
-80.57
-83.96
-84.48
-83.56
-82.53
-82.05
-81.92
-81.46
-79.82
-76.64
-72.36
-67.97
-64.42
-62.30
-61.61
-61.65
-61.67
-61.08
-59.87
-58.72
-58.49
-60.02
-63.00
-66.61
-69.68
-71.24
-71.17
-69.30
-66.28
-62.86
-59.08
-54.61
-48.75
-40.98
-31.64
-21.92
-13.81
-9.52
-10.89
-18.77
-33.64
-54.88
-79.69
-104.28
-123.15
-130.72
-123.60
-103.13
-72.76
-39.02
-8.04
16.79
35.49
50.61
64.86
79.45
93.03
104.42
112.29
116.87
119.52
121.51
123.22
123.80
121.74
115.78
107.15
96.07
84.44
74.42
67.32
63.11
60.50
57.51
52.53
45.44
36.95
29.14
24.29
23.89
28.03
35.38
43.84
50.44
54.99
57.71
59.81
62.58
66.90
73.16
81.38
91.12
100.80
107.67
107.61
97.07
74.97
44.05
10.37
-18.78
-37.98
-45.80
-44.47
-38.50
-31.80
-26.08
-20.84
-15.01
-8.40
-2.39
0.72
-0.85
-7.51
-18.02
-30.13
-41.44
-50.65
-57.49
-63.25
-69.61
-77.69
-87.54
-98.00
-107.04
-112.76
-114.34
-112.52
-108.75
-105.12
-103.32
-104.23
-107.93
-114.06
-121.90
-130.07
-135.95
-135.98
-126.90
-107.48
-79.85
-49.20
-21.85
-2.76
6.37
7.26
3.68
-0.82
-4.30
-6.48
-7.51
-6.85
-3.14
4.95
17.75
34.17
51.79
67.95
80.52
88.38
92.63
95.03
97.60
100.35
102.75
103.63
102.15
98.02
92.03
84.62
78.06
73.76
72.67
75.51
81.98
89.95
95.22
92.99
80.14
57.21
28.28
-0.61
-23.44
-37.69
-43.11
-41.19
-33.72
-22.35
-8.85
4.09
12.69
14.40
8.45
-3.23
-16.94
-29.08
-37.55
-42.36
-44.60
-45.54
-45.61
-45.07
-43.81
-41.79
-39.20
-36.22
-32.73
-28.41
-23.00
-16.19
-8.14
0.80
10.37
20.77
32.87
47.09
62.50
76.04
83.13
79.43
62.95
35.15
0.33
-35.51
-66.59
-88.29
-97.45
-92.52
-74.11
-45.46
-12.17
17.87
39.01
48.89
49.37
45.39
42.51
44.67
53.26
67.33
83.64
97.84
104.79
99.68
79.87
46.68
5.59
-35.40
-68.61
-89.80
-98.57
-97.88
-91.87
-83.71
-74.79
-65.34
-55.29
-43.59
-31.96
-21.57
-12.51
-3.98
5.10
15.58
27.19
38.92
49.36
57.16
62.02
64.50
65.66
66.58
67.91
69.33
69.92
68.50
63.84
55.54
43.94
29.89
14.53
-0.12
-13.40
-25.05
-34.99
-43.38
-50.22
-55.40
-58.86
-60.57
-60.64
-59.43
-57.46
-55.17
-53.02
-51.18
-49.70
-48.56
-47.68
-46.95
-46.25
-45.67
-45.21
-44.81
-44.37
-43.66
-42.53
-40.66
-38.84
-36.05
-31.94
-26.36
-19.32
-10.96
-1.56
8.41
18.48
28.18
37.24
45.30
52.15
57.81
62.42
66.26
69.42
72.10
74.52
77.00
79.60
82.38
85.39
88.61
92.11
95.35
97.98
99.79
100.65
100.38
98.86
95.99
91.79
86.42
79.29
70.32
59.70
47.85
35.28
22.63
10.49
-0.45
-9.52
-17.20
-23.64
-28.90
-33.06
-36.43
-39.61
-43.67
-50.45
-54.77
-55.23
-51.22
-42.55
-29.44
-12.44
7.55
29.37
51.87
74.10
94.39
111.97
126.73
138.93
148.79
156.23
160.78
161.76
158.68
150.74
138.23
122.26
104.36
85.84
67.22
48.14
27.62
4.63
-21.80
-51.55
-83.64
-116.72
-149.84
-182.83
-216.36
-251.72
-290.51
-334.65
-385.66
-443.86
-507.12
-570.13
-624.58
-661.20
-672.68
-656.36
-615.43
-557.50
-491.73
-425.80
-364.27
-308.77
-259.56
-216.93
-181.84
-155.21
-137.10
-126.00
-119.31
-114.27
-108.87
-102.25
-94.59
-86.42
-77.95
-68.85
-58.36
-45.84
-31.35
-15.90
-1.43
9.74
15.70
15.46
9.29
-1.39
-14.56
-28.03
-40.01
-49.32
-55.31
-57.75
-56.57
-51.81
-43.62
-32.40
-18.78
-3.71
11.68
26.33
39.34
50.27
59.04
65.95
71.50
76.25
80.66
85.03
89.48
93.87
97.94
101.31
103.54
104.26
103.18
100.21
95.45
89.17
81.84
73.96
66.07
58.58
51.78
45.73
40.37
35.41
30.55
25.41
19.70
13.22
5.93
-2.04
-10.41
-18.79
-26.76
-33.89
-39.83
-44.37
-47.42
-49.10
-49.64
-49.38
-48.73
-48.13
-47.91
-48.39
-49.70
-51.86
-54.72
-58.06
-61.59
-64.98
-67.94
-70.21
-71.60
-72.02
-71.43
-69.86
-67.45
-64.33
-60.68
-56.73
-52.66
-48.69
-44.99
-41.66
-38.08
-33.65
-28.09
-22.43
-17.15
-12.26
-7.23
-1.61
4.90
13.20
23.93
37.27
51.81
66.56
80.84
94.45
107.07
118.26
129.29
141.18
154.09
164.90
171.91
174.62
174.02
170.95
166.12
164.78
171.22
187.06
204.29
218.22
226.97
232.39
235.60
237.36
247.66
274.67
321.12
370.20
412.04
442.69
465.90
484.06
498.72
526.06
579.20
662.56
749.46
824.41
881.57
927.57
967.05
1003.41
1058.78
1150.96
1286.10
1429.54
1560.95
1672.23
1771.40
1863.82
1828.35
1584.90
1116.84
648.87
270.47
11.07
-185.46
-339.33
-463.27
-565.45
-631.23
-647.58
-611.84
-562.25
-523.99
-511.28
-522.55
-557.24
-613.14
-670.14
-708.76
-717.60
-717.63
-720.93
-732.22
-745.21
-756.15
-762.74
-754.40
-723.68
-669.64
-611.38
-560.52
-521.67
-490.50
-463.31
-437.22
-406.07
-365.79
-315.74
-265.13
-219.64
-181.89
-150.55
-124.92
-104.53
-87.22
-70.88
-54.07
-38.79
-26.15
-16.61
-9.60
-4.73
-1.38
1.28
4.17
7.88
12.30
16.72
20.03
21.35
20.61
18.91
18.17
20.16
25.00
30.51
32.48
26.20
8.42
-21.15
-60.07
-104.65
-151.91
-200.52
-250.10
-299.37
-344.71
-380.11
-399.11
-397.30
-374.11
-332.92
-279.61
-220.70
-161.95
-108.03
-62.47
-27.77
-5.01
6.66
10.01
9.07
8.00
9.84
16.09
26.80
41.01
57.35
74.19
89.66
101.68
108.24
108.12
101.33
88.95
72.43
52.62
29.60
3.15
-25.95
-55.20
-80.87
-99.61
-110.17
-114.16
-115.07
-116.20
-118.63
-120.62
-118.76
-110.01
-93.39
-70.35
-43.35
-14.16
17.13
51.53
89.28
127.92
161.63
182.26
182.35
158.35
112.82
54.43
-4.47
-51.69
-78.88
-83.62
-69.20
-42.65
-11.90
16.61
38.99
53.73
60.86
61.00
55.09
44.76
32.68
22.15
16.10
15.79
20.18
26.57
32.32
36.38
39.70
44.06
49.96
55.07
54.24
41.27
12.03
-32.84
-86.96
-139.84
-180.20
-199.75
-195.58
-170.21
-129.40
-79.23
-24.08
33.12
88.98
137.62
170.73
179.90
160.68
115.75
55.10
-7.34
-58.67
-91.17
-103.49
-99.02
-82.61
-57.97
-26.92
9.61
49.96
90.85
127.68
155.86
172.15
175.58
167.65
151.73
132.05
112.73
96.85
86.11
80.76
79.89
81.99
85.45
89.04
92.03
93.94
93.98
90.30
79.75
58.73
25.18
-19.10
-67.21
-108.17
-130.44
-126.44
-96.23
-48.14
3.92
45.19
64.87
58.86
30.09
-13.44
-61.49
-104.29
-134.46
-148.08
-144.89
-127.85
-101.98
-73.03
-46.22
-25.37
-12.59
-8.19
-10.68
-17.05
-23.37
-26.11
-23.29
-15.51
-5.43
3.36
8.05
7.68
3.10
-3.68
-10.42
-15.42
-17.63
-16.67
-12.82
-7.00
-0.51
5.50
10.66
15.60
21.33
28.20
34.97
38.90
37.08
28.17
13.48
-3.41
-18.36
-28.80
-35.01
-39.97
-47.84
-61.89
-82.66
-107.66
-132.07
-150.64
-159.58
-157.56
-145.78
-127.16
-104.98
-82.09
-60.58
-41.83
-26.67
-15.07
-5.72
3.99
17.03
35.22
57.85
81.21
99.92
109.12
106.49
93.32
73.59
52.15
33.05
18.71
10.04
7.34
10.70
19.99
34.89
53.89
74.26
92.83
107.18
116.17
120.35
120.96
119.08
116.20
113.04
109.94
107.54
107.02
109.72
117.09
129.31
144.76
161.63
175.84
181.48
172.59
146.02
103.81
55.31
14.78
-3.35
11.80
60.23
129.97
201.44
255.39
279.78
274.26
247.35
198.66
133.29
59.03
-15.70
-84.35
-139.42
-181.98
-212.64
-232.09
-242.87
-246.96
-246.93
-245.36
-243.53
-241.27
-237.70
-231.38
-222.26
-212.00
-201.53
-191.91
-184.15
-178.74
-175.62
-174.47
-173.99
-172.84
-169.93
-163.78
-154.49
-144.77
-139.49
-143.61
-159.77
-185.56
-214.00
-235.79
-242.53
-230.23
-200.46
-158.83
-111.71
-63.58
-15.75
31.76
77.65
117.45
144.18
151.22
136.46
104.75
67.12
36.98
24.45
32.16
54.36
80.10
98.79
105.42
102.73
99.33
104.81
124.41
155.99
190.63
216.58
224.40
211.09
181.09
144.21
111.35
90.17
82.46
84.00
86.63
81.24
60.92
23.43
-27.79
-83.99
-133.25
-163.40
-165.65
-137.41
-83.66
-16.14
49.26
96.51
113.85
97.16
51.49
-10.00
-69.54
-109.79
-118.87
-93.89
-41.44
24.70
88.07
134.29
154.38
146.47
115.20
69.64
20.52
-22.38
-51.90
-64.36
-59.33
-39.23
-8.63
26.34
58.43
80.47
86.81
74.65
44.37
-0.86
-56.17
-115.92
-173.82
-223.00
-256.29
-267.70
-254.23
-217.83
-165.64
-108.52
-57.50
-20.06
2.34
14.17
23.16
36.29
56.36
80.71
102.75
115.59
115.78
105.38
91.15
81.26
81.19
91.17
106.16
118.25
120.44
109.61
87.81
61.54
39.13
27.27
28.26
38.95
51.36
55.50
43.08
11.01
-36.60
-88.78
-130.76
-148.71
-134.96
-91.42
-29.49
33.56
80.29
98.63
85.01
44.51
-11.44
-68.59
-113.38
-135.74
-131.07
-101.21
-53.96
-1.09
45.10
75.47
86.72
82.14
69.94
60.12
60.92
76.22
104.54
139.47
171.68
191.65
192.42
171.10
128.94
70.68
3.50
-63.71
-120.98
-158.30
-167.65
-145.86
-96.93
-32.23
32.47
81.88
106.24
103.91
80.17
43.38
0.42
-45.75
-95.03
-147.04
-198.06
-240.31
-264.32
-262.95
-235.11
-187.61
-133.63
-88.85
-66.46
-72.91
-105.83
-154.88
-205.54
-243.98
-261.30
-255.29
-229.47
-190.27
-144.35
-97.12
-52.95
-15.88
10.57
24.84
28.98
29.13
33.67
49.70
79.71
119.73
160.62
191.32
202.98
192.16
161.81
119.95
76.86
41.71
19.88
11.99
14.49
21.42
26.28
23.73
10.39
-14.46
-48.52
-86.57
-121.58
-146.97
-159.16
-159.11
-151.65
-142.68
-135.88
-130.91
-124.14
-111.25
-89.91
-60.88
-26.95
8.89
44.67
79.52
112.21
140.62
162.53
177.30
186.91
195.30
206.41
222.02
241.41
260.68
274.39
277.39
266.18
239.40
197.63
143.86
83.42
25.19
-21.33
-48.30
-51.91
-33.18
2.77
48.74
98.88
149.59
200.72
251.25
296.95
330.31
343.43
332.12
298.36
250.70
189.44
119.30
45.86
-26.16
-94.80
-159.71
-216.67
-263.62
-295.88
-308.48
-297.43
-263.67
-212.32
-152.50
-95.84
-52.39
-27.05
-18.06
-20.27
-27.67
-37.27
-48.29
-59.88
-67.56
-67.38
-57.00
-37.98
-16.72
-0.84
3.64
-4.26
-20.34
-37.29
-49.18
-52.57
-47.08
-34.17
-15.19
7.98
32.02
51.66
61.49
59.30
49.24
41.20
46.16
69.84
107.63
145.50
166.33
157.97
118.53
56.35
-15.01
-83.23
-137.99
-174.11
-191.73
-194.25
-185.33
-167.35
-141.85
-111.21
-79.37
-50.82
-29.27
-16.30
-10.55
-8.37
-5.78
-0.18
8.70
19.08
28.36
34.23
35.57
33.23
29.62
27.46
28.64
33.51
41.00
48.83
55.38
59.28
60.00
57.85
53.48
47.35
39.56
29.90
19.41
8.51
-2.68
-13.62
-23.49
-31.47
-36.98
-39.70
-39.48
-38.02
-34.37
-28.16
-19.15
-7.22
7.43
24.37
43.08
62.99
83.62
104.70
125.28
144.43
161.56
176.20
188.21
197.73
205.10
210.65
214.81
217.03
216.54
212.63
204.44
191.45
173.63
151.18
123.91
95.34
67.05
39.49
12.48
-15.37
-45.07
-76.63
-108.88
-139.88
-167.62
-190.93
-209.61
-223.74
-235.23
-245.32
-253.76
-259.11
-259.81
-255.59
-247.87
-240.29
-236.51
-241.82
-258.73
-285.45
-316.68
-345.58
-366.82
-377.27
-378.28
-373.18
-370.06
-376.42
-396.84
-431.60
-476.74
-525.33
-567.59
-596.08
-580.50
-506.03
-379.00
-225.20
-75.24
50.84
138.92
200.16
245.36
281.08
306.62
320.74
325.34
324.51
323.28
324.81
330.90
338.71
342.11
333.44
308.75
269.53
221.83
173.32
129.76
95.24
69.33
50.04
33.79
18.02
2.14
-12.82
-24.87
-32.59
-34.16
-29.76
-19.96
-5.86
12.05
34.28
62.44
99.12
141.19
185.15
225.73
257.67
277.02
282.26
274.42
256.51
232.62
206.69
182.46
161.82
144.81
130.17
116.22
101.78
86.80
72.35
59.86
50.91
46.17
45.38
47.56
50.85
52.38
48.39
35.21
10.54
-24.31
-64.72
-103.91
-135.58
-156.37
-167.11
-171.67
-174.28
-176.59
-176.16
-167.94
-147.37
-113.60
-70.89
-27.13
9.61
34.60
48.01
54.19
58.37
63.73
69.94
74.40
74.45
69.76
62.81
57.46
57.02
62.72
73.63
87.15
99.45
106.33
103.95
90.03
65.06
33.04
-0.23
-28.31
-47.08
-55.62
-56.08
-52.10
-46.96
-42.52
-39.25
-37.33
-37.05
-39.09
-43.80
-50.65
-58.06
-64.09
-67.18
-66.67
-63.25
-58.19
-53.06
-49.07
-46.77
-45.93
-45.70
-44.96
-42.85
-39.26
-34.51
-29.39
-24.70
-20.92
-18.00
-15.43
-12.38
-7.39
-0.75
7.26
16.00
24.86
33.25
40.80
47.38
53.03
57.82
61.62
64.35
65.52
64.95
62.35
57.60
50.71
41.92
31.61
20.20
8.98
-1.74
-11.49
-19.91
-26.69
-31.79
-35.24
-37.22
-38.03
-37.90
-37.24
-36.24
-35.15
-34.03
-32.99
-32.07
-31.25
-30.58
-29.94
-29.43
-29.03
-28.75
-28.51
-28.37
-28.34
-28.45
-28.71
-29.11
-29.75
-30.64
-32.09
-33.67
-35.17
-36.27
-36.63
-36.21
-34.36
-30.84
-25.56
-18.65
-10.37
-1.30
7.89
16.51
23.89
29.60
33.33
35.11
35.35
34.61
33.33
31.93
30.67
29.53
28.41
27.04
25.20
22.91
20.32
17.63
15.07
12.88
11.18
10.06
9.50
9.62
10.79
13.26
17.01
21.80
27.17
32.17
35.70
36.74
35.01
31.49
27.02
22.33
17.64
12.72
6.36
-2.89
-16.23
-33.40
-51.59
-68.23
-80.96
-88.51
-90.57
-88.39
-84.26
-80.56
-78.02
-74.12
-67.36
-57.01
-44.54
-32.39
-24.79
-25.24
-38.53
-67.73
-111.64
-169.20
-237.52
-312.68
-378.00
-415.03
-413.33
-376.49
-331.39
-288.32
-250.92
-218.30
-185.39
-146.70
-98.54
-41.26
21.62
86.98
150.79
204.86
257.24
315.74
379.43
445.55
507.67
557.84
590.76
606.36
606.17
593.24
545.31
455.86
335.12
202.87
77.34
-29.99
-113.65
-173.43
-209.83
-229.71
-235.08
-227.59
-210.97
-190.18
-167.81
-143.72
-118.53
-92.49
-67.32
-41.67
-14.75
12.25
36.96
58.93
78.80
96.96
113.26
126.50
137.50
146.70
153.52
147.06
121.91
79.52
27.06
-26.82
-75.89
-116.30
-147.09
-168.92
-182.28
-187.19
-183.34
-171.41
-153.59
-132.16
-108.34
-82.27
-52.58
-18.54
22.32
72.05
131.29
193.15
250.02
294.88
322.27
327.98
309.11
266.14
203.71
130.65
58.06
-3.24
-46.91
-72.52
-84.56
-88.90
-89.25
-86.63
-80.81
-72.33
-62.75
-54.70
-50.39
-50.47
-53.27
-55.48
-53.88
-47.47
-37.80
-27.92
-21.13
-19.48
-23.16
-31.10
-41.78
-54.28
-68.26
-83.21
-96.80
-105.36
-103.94
-91.51
-70.61
-46.30
-23.77
-5.80
7.64
18.45
27.62
33.75
33.19
23.19
4.22
-19.27
-40.70
-55.15
-61.61
-63.47
-66.73
-76.72
-94.18
-114.57
-130.28
-132.36
-118.90
-94.47
-67.39
-46.31
-36.31
-36.99
-43.50
-50.05
-52.84
-52.03
-49.56
-46.42
-42.74
-37.44
-28.94
-16.45
-0.90
15.52
29.45
38.63
43.52
45.40
45.92
46.66
48.25
50.07
50.87
48.96
35.63
9.44
-27.17
-69.32
-111.64
-150.09
-182.77
-207.88
-227.26
-242.10
-251.39
-254.22
-249.93
-237.68
-216.85
-189.53
-158.33
-126.56
-97.08
-71.25
-50.45
-35.90
-26.92
-22.72
-23.01
-27.92
-37.88
-52.36
-69.20
-85.69
-99.06
-103.23
-93.55
-68.46
-29.86
17.87
70.33
124.64
179.38
233.96
293.96
363.32
441.70
523.59
600.30
663.96
709.72
736.39
745.19
746.91
751.40
764.54
787.15
816.95
851.34
887.61
921.73
906.34
811.32
632.93
400.63
160.62
-48.44
-207.42
-315.73
-380.10
-420.82
-445.29
-456.33
-455.99
-448.79
-441.49
-440.36
-447.97
-463.87
-487.03
-503.51
-500.89
-473.18
-423.57
-362.06
-299.43
-247.91
-210.33
-188.03
-176.92
-174.00
-178.60
-191.66
-215.74
-247.57
-278.60
-296.48
-292.43
-262.38
-211.26
-149.67
-89.70
-40.60
-6.12
14.33
23.88
24.86
20.39
13.34
7.66
7.23
14.45
29.12
47.84
65.67
77.69
81.73
78.69
72.77
69.45
73.71
88.49
113.75
146.74
179.98
205.19
210.83
190.33
145.87
88.88
34.70
-4.96
-26.35
-33.24
-32.38
-29.41
-26.01
-21.05
-13.13
-2.68
7.96
16.00
19.83
19.99
18.59
18.73
22.77
31.35
43.12
55.59
66.43
74.41
79.73
83.51
86.92
90.57
94.11
96.12
94.92
89.46
79.86
67.65
55.23
44.77
38.15
36.45
39.76
47.49
58.74
72.66
88.65
106.29
124.38
141.76
156.89
168.38
175.35
177.41
174.35
165.51
155.12
145.09
136.72
130.50
126.58
125.11
126.36
130.48
137.34
146.52
156.30
164.75
168.88
166.30
156.08
138.97
116.87
92.02
66.56
41.28
16.24
-11.59
-44.44
-82.08
-121.64
-159.36
-192.23
-218.93
-240.20
-258.22
-280.55
-312.37
-353.79
-400.42
-447.30
-491.60
-532.18
-568.08
-596.99
-623.28
-648.68
-671.19
-687.05
-694.95
-697.34
-697.58
-697.07
-694.91
-699.93
-718.76
-752.46
-795.78
-840.97
-880.41
-906.86
-914.17
-836.88
-651.81
-389.24
-116.46
109.46
267.27
364.65
420.80
453.57
474.09
475.00
452.91
411.80
363.53
320.81
291.21
276.26
273.42
278.31
279.40
268.23
244.68
216.04
190.94
174.65
168.27
170.09
177.05
181.10
177.05
164.82
148.87
134.54
125.21
121.99
124.79
133.20
144.35
155.83
165.87
172.93
174.94
170.00
158.20
142.72
129.04
121.56
122.24
129.67
139.95
148.62
152.91
153.01
151.57
151.94
156.36
165.29
178.00
193.41
210.25
226.42
238.22
240.68
229.03
201.28
159.94
111.87
65.55
27.71
0.88
-16.53
-27.72
-34.61
-36.21
-29.59
-12.63
13.33
43.05
69.33
86.50
93.20
93.12
93.21
100.13
117.03
141.97
168.64
189.14
197.30
191.35
174.58
153.95
136.82
127.90
127.60
132.34
136.61
135.19
124.83
104.79
76.53
42.72
6.75
-27.28
-54.77
-71.37
-74.69
-65.92
-50.31
-35.31
-28.34
-33.59
-50.14
-71.96
-90.52
-98.37
-92.05
-73.05
-45.51
-15.36
11.10
28.63
34.11
27.51
12.48
-3.75
-11.86
-1.83
31.45
85.18
149.37
210.89
258.21
284.87
290.26
278.49
258.19
237.55
221.44
210.89
204.15
197.78
188.37
173.81
139.66
82.23
9.96
-60.93
-116.27
-150.81
-168.16
-174.89
-176.26
-173.93
-167.09
-155.39
-141.92
-131.82
-129.93
-140.47
-164.74
-201.09
-243.73
-284.44
-316.12
-336.72
-347.55
-351.29
-352.66
-355.82
-363.67
-377.71
-397.60
-421.24
-446.98
-471.18
-475.61
-447.80
-388.12
-311.00
-235.84
-181.65
-146.26
-123.68
-107.99
-94.90
-83.54
-74.48
-67.30
-59.68
-48.41
-30.52
-6.93
19.92
47.48
72.33
92.60
108.65
122.70
137.12
153.58
170.73
186.62
200.03
210.16
217.89
225.85
237.47
254.97
278.00
301.80
319.00
321.87
304.44
265.10
207.75
140.98
75.58
21.39
-15.84
-35.18
-39.91
-36.05
-30.00
-26.68
-28.68
-36.49
-49.55
-67.53
-90.82
-119.92
-154.19
-190.73
-224.09
-247.63
-255.82
-246.59
-222.36
-189.05
-153.56
-120.96
-92.91
-67.71
-42.28
-14.37
15.94
46.40
74.08
97.01
115.44
131.67
148.95
170.18
197.12
230.07
267.87
307.92
345.98
376.41
393.31
392.30
372.12
335.45
288.06
236.65
186.57
140.24
97.01
54.10
8.42
-41.61
-94.72
-146.87
-192.68
-227.72
-250.61
-263.44
-270.34
-274.58
-276.45
-272.97
-260.04
-235.46
-200.68
-160.35
-119.57
-81.48
-46.55
-13.92
16.52
43.04
62.94
74.74
79.64
81.61
85.80
96.11
113.70
136.65
161.09
182.88
199.22
209.24
213.75
214.25
211.91
207.37
201.11
194.12
188.21
185.56
187.27
192.32
197.35
197.68
189.23
169.93
140.29
102.79
60.65
16.83
-26.13
-66.01
-100.74
-128.63
-148.97
-162.38
-170.74
-176.69
-182.81
-190.55
-199.62
-207.84
-211.53
-206.90
-191.58
-165.98
-133.96
-102.20
-78.35
-68.44
-74.50
-93.04
-115.54
-131.04
-129.93
-107.67
-66.67
-15.57
33.63
69.34
83.22
71.67
35.97
-18.14
-81.19
-141.39
-187.15
-210.67
-211.09
-195.50
-176.55
-167.10
-174.70
-198.56
-230.22
-257.99
-272.03
-267.87
-246.86
-214.30
-176.67
-139.82
-108.21
-85.00
-72.10
-69.79
-76.13
-86.90
-96.34
-98.99
-91.72
-74.94
-52.36
-29.35
-10.62
1.64
8.34
12.69
18.43
28.03
41.86
58.37
75.28
91.04
105.59
120.14
136.10
153.87
172.30
188.95
201.21
207.56
208.32
205.35
201.11
197.47
194.97
192.79
189.15
181.90
169.02
149.24
122.63
91.00
57.87
27.71
4.84
-7.67
-8.29
3.13
25.69
57.41
94.82
132.58
164.18
183.49
186.91
174.94
152.16
125.32
100.56
80.98
65.81
51.74
35.40
15.77
-4.73
-21.17
-28.56
-24.43
-10.24
9.19
28.17
42.79
52.52
59.80
67.96
79.22
93.85
110.89
129.54
149.80
171.84
194.92
216.89
235.10
248.22
257.41
265.79
276.45
290.23
304.99
316.71
321.78
318.61
307.78
290.79
268.61
241.56
210.18
176.38
143.48
114.89
92.29
74.58
58.46
40.18
17.58
-9.00
-37.13
-63.92
-87.73
-109.07
-130.23
-153.95
-181.64
-212.07
-241.25
-263.67
-274.60
-272.19
-258.32
-237.61
-215.33
-195.68
-181.04
-172.02
-167.98
-167.39
-167.92
-166.59
-160.48
-148.50
-133.05
-119.90
-115.29
-122.04
-137.27
-153.52
-162.48
-159.19
-144.34
-124.03
-106.62
-98.48
-101.85
-115.32
-136.32
-163.23
-195.53
-228.78
-255.12
-266.13
-257.11
-229.56
-189.13
-142.52
-95.93
-54.35
-22.48
-2.31
4.20
-3.81
-25.06
-55.87
-90.60
-123.24
-146.25
-153.43
-144.01
-124.06
-103.05
-88.91
-84.55
-87.32
-92.37
-95.96
-96.78
-95.44
-93.11
-89.79
-83.77
-74.01
-60.09
-43.08
-24.83
-7.29
8.42
22.45
36.29
51.92
70.71
92.76
116.60
139.95
160.63
177.46
191.12
204.39
221.38
245.57
277.59
313.38
344.43
360.18
351.91
316.36
257.23
183.94
108.23
40.75
-11.16
-43.72
-55.84
-48.37
-23.82
13.56
58.17
104.33
148.02
187.62
223.40
255.75
283.54
303.54
311.55
304.51
282.33
248.48
208.94
170.14
137.09
112.31
95.92
86.29
80.96
77.20
71.99
61.98
43.85
15.36
-23.07
-67.23
-109.53
-141.18
-155.03
-148.01
-121.87
-82.16
-36.32
8.07
44.41
67.67
74.95
66.14
44.35
15.42
-13.94
-38.44
-56.16
-68.73
-79.90
-93.54
-112.33
-137.59
-169.94
-209.17
-253.14
-296.48
-330.89
-347.82
-342.64
-318.11
-284.52
-255.53
-241.96
-246.93
-265.28
-287.30
-304.31
-312.60
-313.35
-309.53
-302.18
-288.80
-264.85
-226.93
-174.99
-112.27
-43.86
24.89
88.69
141.79
177.78
190.69
177.59
141.09
90.10
37.56
-3.97
-27.23
-33.19
-30.58
-31.97
-48.02
-82.70
-131.49
-183.48
-225.97
-249.73
-252.39
-238.58
-217.29
-197.50
-185.07
-181.77
-186.33
-196.37
-209.93
-225.49
-241.08
-253.44
-258.06
-250.72
-229.41
-195.78
-154.98
-114.00
-79.10
-53.58
-36.87
-25.26
-13.79
1.69
22.94
48.99
76.80
102.81
124.67
142.03
156.55
170.95
187.51
207.24
229.85
254.44
280.30
306.88
333.16
356.84
374.36
382.15
378.40
364.31
343.57
320.51
297.88
275.87
253.12
228.97
205.28
186.48
177.48
180.96
195.54
215.99
235.30
247.19
248.01
237.23
216.93
190.79
163.00
137.40
116.76
102.52
95.02
94.04
99.27
110.06
124.93
141.08
154.82
162.90
164.08
159.73
152.69
145.04
136.18
122.95
101.89
72.71
40.52
14.99
6.62
21.95
60.21
113.21
168.46
213.57
240.15
245.85
233.98
211.33
185.26
161.05
140.48
122.03
102.34
78.32
48.67
14.19
-23.15
-61.81
-101.53
-143.06
-186.71
-230.98
-272.41
-306.66
-330.49
-343.20
-346.94
-345.77
-344.14
-345.41
-350.72
-358.48
-364.65
-363.81
-350.81
-322.48
-278.68
-222.40
-159.02
-94.79
-35.63
14.01
51.69
77.05
91.40
96.81
95.13
87.56
75.15
59.87
45.15
35.01
32.01
35.24
39.89
39.06
26.92
1.31
-35.87
-80.09
-126.48
-170.95
-210.21
-241.35
-262.33
-273.12
-276.71
-278.61
-284.64
-297.91
-316.98
-336.13
-347.71
-344.99
-324.51
-287.13
-237.91
-185.34
-139.74
-110.77
-104.77
-122.35
-157.72
-200.36
-238.35
-261.87
-265.57
-249.05
-215.84
-172.01
-124.44
-79.49
-41.92
-13.92
5.35
19.43
33.30
51.69
77.29
109.59
144.74
176.41
197.49
202.56
189.88
162.50
127.75
94.88
72.13
64.25
71.68
91.48
119.06
149.68
179.05
203.33
219.22
224.62
219.57
206.74
190.80
176.67
167.77
164.95
166.65
170.05
172.55
172.94
171.88
171.66
175.22
184.63
199.76
217.54
232.18
236.84
226.16
198.70
158.39
114.00
76.56
55.53
55.25
73.08
100.17
124.88
137.40
133.46
115.93
92.93
74.10
66.61
72.44
88.13
106.59
119.94
122.38
111.97
90.99
64.86
40.27
22.84
15.51
17.57
25.27
33.46
37.67
36.10
30.44
25.32
26.39
37.73
59.60
87.87
115.27
134.27
139.94
131.72
113.05
89.48
66.31
46.97
32.64
22.85
16.43
12.05
8.21
3.08
-5.36
-18.77
-37.82
-61.87
-89.17
-117.46
-144.63
-169.05
-189.46
-204.77
-214.11
-217.29
-215.27
-210.21
-204.73
-200.62
-197.96
-194.96
-188.99
-178.06
-162.13
-143.40
-125.68
-113.21
-109.72
-117.52
-137.00
-166.38
-201.63
-236.92
-265.89
-283.30
-286.83
-277.89
-261.17
-242.98
-229.24
-223.73
-227.34
-238.46
-253.77
-269.38
-281.59
-287.69
-286.39
-278.14
-264.72
-248.59
-232.17
-217.22
-204.85
-195.45
-188.79
-183.81
-178.36
-169.45
-154.32
-132.10
-105.05
-78.50
-59.01
-51.49
-56.74
-70.88
-86.92
-97.81
-99.13
-90.18
-73.40
-52.49
-30.50
-8.80
12.71
34.64
57.16
79.46
100.08
117.53
131.48
142.92
153.78
165.96
180.54
197.36
215.21
232.47
247.92
261.81
275.70
291.87
312.13
336.92
365.09
393.74
418.80
435.68
441.11
434.01
415.86
390.14
361.17
333.18
307.82
283.47
255.13
218.48
171.14
113.82
49.71
-16.01
-75.34
-120.58
-146.02
-150.97
-135.88
-103.01
-55.77
1.25
63.22
128.28
194.16
256.88
307.76
341.00
353.49
345.97
322.47
290.97
265.76
259.96
279.91
317.91
361.52
396.30
412.26
406.58
363.36
281.58
173.10
80.73
14.19
-31.26
-70.45
-108.88
-147.37
-185.48
-220.63
-252.36
-281.29
-310.04
-334.21
-346.81
-342.16
-321.56
-293.36
-266.57
-248.95
-244.13
-253.56
-272.93
-296.99
-320.41
-338.91
-347.83
-340.17
-310.49
-258.17
-190.36
-113.77
-41.52
12.64
41.12
46.99
42.07
39.55
42.83
49.78
53.80
47.93
29.12
-1.25
-38.18
-72.94
-96.70
-104.58
-97.07
-79.07
-56.99
-34.55
-12.07
11.74
36.67
59.28
73.71
74.47
58.85
28.75
-8.96
-44.17
-65.65
-66.12
-46.41
-15.35
14.59
32.94
35.52
25.59
11.65
2.44
3.13
14.12
32.01
51.69
67.79
75.93
73.42
58.11
32.61
3.67
-21.14
-36.66
-41.97
-39.64
-33.39
-25.78
-17.43
-7.60
3.72
14.86
23.12
26.33
24.31
18.90
13.04
9.69
10.66
15.80
23.37
30.98
36.60
39.48
40.13
39.89
40.17
41.88
44.73
47.39
48.07
45.19
37.73
24.93
6.25
-18.25
-46.35
-73.92
-94.88
-103.01
-94.50
-69.82
-34.15
4.38
36.95
56.58
59.29
44.75
15.95
-21.69
-60.86
-93.95
-115.12
-121.82
-115.53
-100.85
-83.08
-66.20
-51.60
-39.09
-28.11
-18.76
-11.47
-6.21
-2.31
1.19
4.36
6.64
7.11
5.47
3.20
3.45
9.55
22.77
41.37
59.06
69.80
72.46
69.63
65.34
62.40
60.08
54.20
39.80
14.38
-19.33
-52.10
-73.30
-76.73
-63.27
-39.69
-15.01
3.30
13.13
14.92
9.77
-2.18
-21.36
-47.09
-75.91
-102.02
-116.38
-113.05
-93.42
-65.86
-41.45
-28.67
-30.12
-42.08
-57.98
-72.99
-84.66
-92.45
-97.26
-99.01
-97.21
-91.70
-82.12
-69.35
-56.55
-45.93
-37.50
-29.97
-21.08
-8.63
8.88
33.63
63.38
93.22
119.92
142.64
161.25
176.09
187.21
185.44
165.54
140.97
117.26
92.20
67.59
46.45
32.25
27.74
34.40
53.86
86.18
121.33
150.87
169.72
176.30
172.56
162.22
149.14
137.50
129.21
121.29
109.70
90.12
59.03
15.97
-35.30
-88.04
-134.14
-167.34
-185.73
-188.39
-175.07
-146.26
-104.70
-56.33
-9.92
25.61
44.24
43.89
28.27
4.48
-20.32
-40.85
-53.87
-57.29
-49.17
-27.54
3.81
38.56
67.20
80.06
71.42
42.48
0.61
-43.79
-80.24
-101.18
-104.34
-89.56
-58.56
-15.15
34.91
84.59
121.85
138.97
135.07
115.86
89.63
63.00
39.22
18.73
0.89
-14.60
-26.41
-32.69
-32.49
-25.61
-12.69
4.43
22.74
37.72
44.08
38.29
18.29
-11.53
-42.23
-64.31
-71.86
-64.54
-46.96
-25.76
-5.89
10.47
23.50
34.67
44.24
51.06
53.46
49.77
38.97
21.11
-2.81
-29.53
-55.81
-78.97
-97.40
-110.73
-119.99
-126.98
-133.59
-141.25
-150.65
-165.45
-184.10
-202.88
-216.07
-216.80
-199.33
-162.43
-111.38
-57.30
-10.09
17.74
22.97
12.99
0.41
-4.39
1.48
13.47
23.55
25.89
19.34
6.30
-9.78
-25.93
-39.66
-49.04
-52.98
-51.69
-45.52
-36.23
-25.48
-14.30
-2.91
9.29
22.63
36.80
49.47
61.76
75.88
95.38
123.10
159.88
204.32
253.31
303.46
340.50
354.61
340.80
301.62
243.59
174.21
101.13
31.65
-28.15
-74.82
-106.03
-123.92
-131.60
-132.84
-129.57
-121.17
-105.55
-81.19
-49.34
-11.52
27.21
62.30
89.52
107.50
118.12
124.85
130.24
129.20
124.90
108.65
79.83
42.31
4.48
-24.05
-36.90
-33.74
-20.87
-5.24
6.38
11.94
11.98
8.46
2.52
-6.43
-19.09
-35.95
-55.53
-76.08
-94.19
-107.21
-114.00
-115.45
-113.66
-110.84
-108.65
-107.14
-106.12
-104.52
-101.98
-98.80
-96.19
-95.21
-96.11
-98.36
-100.78
-102.50
-102.89
-102.31
-101.43
-101.70
-104.57
-111.18
-121.84
-135.22
-147.94
-154.77
-151.97
-135.51
-106.04
-68.36
-29.33
4.82
30.98
49.72
63.93
76.72
89.78
101.51
110.50
116.04
118.62
119.77
120.94
122.53
124.08
124.76
124.72
122.76
118.83
113.25
106.29
97.85
87.57
75.44
62.08
48.60
36.55
27.65
22.80
21.85
23.68
26.61
29.55
31.82
33.26
34.08
34.52
34.30
32.69
29.03
23.17
16.62
11.30
9.21
11.94
20.59
35.68
57.13
83.69
107.86
123.48
124.53
107.67
74.39
31.61
-10.77
-43.65
-62.26
-67.41
-62.90
-53.72
-43.09
-31.97
-19.69
-5.91
8.46
21.45
31.04
36.87
39.30
39.07
36.84
32.49
25.37
14.71
0.95
-14.96
-31.22
-46.15
-58.53
-67.84
-74.25
-78.22
-80.05
-79.64
-76.97
-72.07
-65.77
-59.55
-55.00
-53.21
-54.12
-56.24
-57.28
-55.50
-50.31
-42.89
-35.63
-30.75
-29.74
-32.79
-38.90
-46.44
-53.09
-55.45
-49.40
-31.74
-2.52
33.03
65.21
83.72
82.02
60.75
27.52
-6.66
-33.36
-48.58
-53.81
-53.17
-49.89
-44.91
-37.30
-26.67
-14.74
-5.27
-2.34
-7.95
-22.79
-44.17
-67.03
-84.96
-92.12
-84.97
-63.66
-32.47
1.37
30.19
49.13
57.53
58.39
56.11
53.85
52.32
50.27
46.08
39.36
31.58
25.29
22.31
22.75
25.03
26.85
26.21
22.54
16.62
10.25
5.23
2.51
1.87
2.22
2.12
0.51
-2.85
-7.48
-12.36
-16.53
-19.54
-21.54
-23.09
-24.93
-27.61
-31.34
-35.99
-41.13
-46.32
-51.25
-55.68
-59.45
-62.35
-64.10
-64.35
-62.83
-59.15
-53.13
-44.79
-34.35
-22.21
-8.94
4.79
18.20
30.53
41.15
49.69
56.09
60.63
63.70
65.64
66.50
66.07
63.84
59.43
52.79
44.47
35.62
27.66
21.73
18.37
17.24
17.26
17.15
16.02
14.02
12.33
12.64
16.34
23.74
33.82
44.47
53.31
58.67
60.48
60.24
60.48
63.77
71.90
85.28
102.26
119.04
130.28
130.84
117.82
92.41
60.45
30.89
12.92
11.87
26.48
48.87
67.34
70.43
51.40
10.79
-44.13
-102.32
-150.99
-180.61
-188.06
-176.44
-152.85
-124.48
-96.07
-70.83
-49.20
-32.87
-25.28
-30.15
-49.63
-84.17
-132.18
-190.54
-255.22
-319.26
-374.26
-410.77
-419.78
-391.08
-322.28
-220.84
-102.46
14.43
115.41
193.19
247.24
280.83
297.93
301.26
293.18
276.76
255.97
235.10
217.09
203.08
192.50
183.52
173.95
162.79
150.71
139.57
130.97
124.39
116.88
104.38
84.07
56.19
24.62
-4.75
-26.84
-39.68
-45.06
-46.85
-48.60
-51.81
-55.92
-59.41
-61.16
-61.13
-60.10
-58.84
-57.55
-55.80
-52.95
-48.75
-43.72
-39.05
-36.06
-35.59
-37.36
-39.76
-40.37
-36.89
-28.27
-15.29
-0.31
13.73
24.71
32.08
36.85
40.66
44.84
48.91
51.23
49.77
43.29
32.25
18.88
6.29
-2.94
-7.59
-8.10
-5.79
-2.29
1.06
3.23
3.25
0.35
-5.86
-14.72
-24.41
-32.09
-35.09
-31.89
-22.73
-9.57
4.99
18.29
28.24
33.50
33.38
27.80
17.23
3.24
-12.56
-28.48
-43.24
-56.35
-68.09
-79.16
-90.07
-100.78
-110.49
-119.34
-125.69
-128.62
-128.07
-124.60
-118.93
-111.32
-101.31
-88.00
-69.60
-47.47
-23.68
-1.46
17.04
29.43
33.78
28.92
14.77
-7.00
-32.66
-56.44
-71.55
-73.81
-63.55
-45.36
-26.15
-12.09
-5.38
-4.92
-7.19
-8.75
-7.82
-4.92
-1.54
1.30
3.73
6.71
10.78
15.50
19.32
20.58
17.86
11.21
2.07
-7.26
-14.60
-19.01
-20.86
-21.78
-23.28
-26.47
-31.14
-35.74
-37.87
-35.21
-26.30
-10.59
8.19
27.61
46.04
63.18
79.89
97.71
118.15
142.12
169.57
199.23
229.11
255.98
276.11
286.24
284.58
271.47
249.03
220.16
187.19
151.73
114.31
75.41
36.44
-0.06
-31.07
-54.31
-69.18
-77.20
-81.15
-84.69
-91.24
-103.10
-120.44
-140.72
-158.94
-168.85
-165.22
-145.80
-112.91
-72.85
-33.87
-3.42
13.96
17.28
8.27
-10.03
-34.32
-61.45
-87.95
-109.77
-122.77
-123.83
-112.30
-90.83
-64.73
-40.16
-21.80
-11.01
-5.63
-1.45
5.43
16.31
29.09
39.09
41.41
33.26
15.52
-7.89
-31.79
-52.01
-66.90
-77.52
-86.56
-96.56
-108.46
-120.78
-130.87
-136.15
-134.91
-126.60
-111.67
-91.46
-68.10
-44.37
-22.40
-4.38
8.38
16.53
23.02
32.43
49.31
76.18
112.71
157.51
207.25
258.00
306.46
350.68
389.71
422.62
447.82
463.31
469.14
465.12
450.66
424.94
387.53
338.98
280.96
216.18
137.50
48.03
-41.48
-117.58
-171.08
-200.24
-208.73
-202.23
-186.28
-165.49
-141.84
-117.53
-95.35
-77.23
-64.17
-56.02
-52.19
-52.70
-58.61
-70.34
-87.61
-109.26
-133.08
-155.68
-173.36
-183.24
-184.58
-179.01
-168.86
-157.13
-147.04
-140.97
-139.49
-140.97
-141.21
-134.12
-113.48
-75.39
-21.85
37.98
90.14
121.27
123.94
100.00
59.40
15.51
-20.46
-43.46
-54.77
-59.02
-60.29
-60.45
-59.11
-55.51
-50.27
-45.47
-43.87
-46.73
-54.51
-63.11
-68.28
-66.78
-57.81
-42.92
-25.18
-7.84
7.04
19.09
29.65
40.20
51.87
64.66
77.56
89.02
97.46
102.26
103.90
103.87
103.54
103.99
105.50
107.71
110.06
111.76
112.53
112.60
112.64
113.13
114.38
116.29
118.63
121.25
123.71
126.01
128.33
130.98
134.04
137.30
139.84
140.33
140.21
139.68
138.76
137.30
135.04
131.62
126.78
119.45
109.01
95.58
79.62
62.24
44.48
27.05
10.09
-6.55
-25.23
-47.87
-75.26
-107.01
-141.58
-177.24
-212.69
-247.27
-280.62
-315.59
-354.26
-396.87
-441.57
-484.90
-523.50
-554.99
-578.47
-593.86
-605.80
-618.28
-633.11
-649.29
-663.68
-673.11
-675.40
-669.79
-630.71
-543.81
-408.28
-239.14
-60.25
107.02
249.86
364.56
452.84
519.34
564.88
590.15
597.03
589.32
572.14
549.64
526.43
503.34
480.59
454.45
421.01
378.01
325.84
267.43
206.06
145.56
89.31
41.20
1.34
-32.27
-62.38
-91.94
-116.78
-134.86
-144.72
-145.83
-137.37
-121.82
-104.32
-90.59
-85.82
-93.49
-116.31
-155.83
-212.78
-284.97
-359.97
-422.48
-456.98
-454.66
-417.19
-355.73
-285.28
-227.28
-183.79
-150.98
-123.40
-95.40
-62.92
-23.53
25.13
83.65
150.67
222.51
291.53
349.14
389.26
409.39
410.15
394.61
367.21
333.06
298.14
266.27
239.02
216.34
196.83
178.63
160.46
141.67
122.65
105.01
89.80
77.44
67.74
59.93
52.78
45.59
37.94
29.90
22.23
15.48
10.04
6.04
3.27
1.10
-0.74
-2.54
-4.43
-6.32
-8.15
-9.86
-11.54
-11.97
-12.66
-14.30
-17.33
-21.97
-28.32
-36.10
-44.89
-54.21
-63.55
-72.65
-80.89
-87.84
-93.24
-97.01
-99.00
-99.21
-97.86
-95.27
-92.04
-88.56
-85.36
-83.10
-82.49
-83.83
-87.49
-93.84
-102.90
-114.44
-127.74
-141.96
-156.30
-170.09
-182.38
-192.64
-200.65
-206.07
-208.38
-206.71
-199.84
-186.09
-167.77
-146.16
-122.97
-99.99
-78.52
-59.08
-41.46
-25.05
-9.35
6.56
23.06
39.29
54.09
67.08
79.20
92.37
108.68
129.63
157.15
191.19
229.22
267.72
304.19
338.07
370.25
402.20
435.65
474.99
522.51
576.48
631.29
678.97
711.02
720.12
702.21
658.22
597.64
530.31
462.70
396.95
332.76
269.77
208.50
150.43
74.57
-20.74
-120.94
-205.72
-263.36
-293.95
-303.44
-298.02
-284.22
-266.34
-244.33
-220.43
-199.77
-188.62
-191.94
-209.79
-237.04
-266.23
-290.73
-304.31
-305.56
-297.25
-283.76
-268.77
-253.68
-238.56
-223.40
-208.33
-192.10
-174.58
-156.98
-140.77
-127.11
-115.84
-106.33
-98.18
-91.36
-85.14
-79.26
-73.82
-68.86
-64.78
-61.65
-59.70
-59.41
-61.26
-64.96
-69.67
-75.99
-80.99
-82.91
-80.86
-75.13
-67.11
-58.71
-51.55
-46.52
-43.74
-42.57
-42.83
-44.75
-48.96
-56.38
-67.84
-83.83
-104.65
-130.11
-158.52
-186.64
-209.35
-220.95
-217.41
-198.44
-168.02
-133.35
-102.09
-79.33
-66.50
-61.43
-60.39
-59.92
-59.29
-58.49
-57.84
-57.19
-55.73
-52.77
-48.33
-43.29
-39.15
-37.49
-38.85
-42.78
-47.97
-52.77
-56.00
-57.34
-57.43
-57.45
-58.64
-61.53
-65.98
-71.20
-76.11
-79.74
-81.54
-81.48
-79.92
-77.35
-74.10
-70.32
-66.08
-61.41
-56.42
-51.36
-46.57
-42.35
-38.87
-36.04
-33.65
-31.37
-28.85
-25.75
-21.71
-16.44
-9.67
-1.29
8.57
19.39
30.34
40.47
48.89
55.13
59.13
61.29
62.18
62.19
61.27
58.92
54.40
47.17
37.27
25.43
12.90
1.00
-9.45
-18.46
-26.73
-35.18
-44.18
-53.38
-61.46
-66.84
-68.19
-64.78
-56.32
-42.73
-24.26
-2.09
20.99
40.75
52.71
54.12
45.61
31.38
17.63
10.06
11.68
22.07
38.34
56.82
74.46
89.45
101.12
109.21
113.65
114.91
114.14
113.19
114.43
120.04
131.31
146.97
162.53
170.90
164.97
141.22
102.34
57.12
17.25
-7.58
-13.74
-4.48
12.66
30.11
43.75
53.75
62.63
72.63
84.03
95.24
104.45
111.23
116.94
123.90
134.39
149.21
167.27
186.16
203.17
216.41
225.71
232.42
238.59
246.12
255.74
266.94
278.53
289.67
300.54
312.22
325.99
342.14
359.43
375.09
385.77
388.59
381.93
365.72
341.24
310.84
277.74
245.95
219.94
203.85
200.29
209.28
227.80
250.36
270.42
282.02
281.05
265.68
236.20
194.54
143.83
88.02
31.55
-21.08
-66.38
-102.59
-130.29
-152.49
-173.95
-199.23
-231.17
-269.41
-309.61
-344.78
-367.81
-374.51
-365.61
-346.72
-325.95
-310.62
-304.11
-304.64
-306.20
-300.97
-281.96
-244.86
-189.40
-119.77
-44.31
25.64
78.10
103.80
99.76
70.88
28.92
-11.23
-36.64
-39.81
-19.57
20.28
73.02
131.40
188.05
235.82
268.36
281.93
277.96
264.03
251.85
252.67
272.24
307.84
350.78
389.15
412.53
415.39
397.80
363.92
319.22
268.16
213.29
