1593018203.00
64.000000
-0.00
-0.00
-0.00
-0.00
-0.00
-0.00
-0.00
-0.00
-0.00
-0.00
0.00
0.01
0.01
-0.00
-0.03
-0.05
-0.05
0.00
0.13
0.36
0.66
1.01
1.37
1.72
2.06
2.40
2.79
3.24
3.80
4.42
5.06
5.66
6.20
6.68
7.15
7.68
8.31
9.14
10.09
11.04
11.88
12.56
13.14
13.76
14.65
15.96
17.91
20.32
22.90
25.38
27.58
29.57
31.68
34.32
37.81
42.54
48.15
54.10
59.83
64.97
69.58
74.14
79.34
85.71
93.76
103.00
112.62
121.73
129.77
136.75
143.30
150.75
157.77
166.64
177.95
191.79
206.97
220.57
228.25
225.36
208.53
176.87
132.76
80.05
23.07
-34.94
-92.44
-149.16
-205.23
-260.37
-313.74
-363.87
-409.83
-450.91
-486.50
-515.74
-537.23
-549.22
-549.96
-538.37
-514.21
-478.67
-433.88
-382.45
-327.02
-269.84
-212.63
-156.66
-102.95
-52.37
-5.90
35.58
71.43
101.35
125.50
144.38
158.69
169.15
176.37
180.75
182.57
182.07
179.51
175.23
169.65
163.18
156.15
148.81
141.30
133.69
126.02
118.33
110.69
103.16
95.80
88.68
81.83
75.25
68.95
62.95
57.25
51.86
46.78
42.03
37.59
33.45
29.61
26.07
22.81
19.83
17.11
14.67
12.48
10.54
8.83
7.35
6.07
4.97
4.05
3.27
2.62
2.09
1.65
1.30
1.01
0.79
0.61
0.47
0.37
0.29
0.23
0.19
0.16
0.15
0.15
0.16
0.17
0.19
0.22
0.26
0.30
0.34
0.38
0.43
0.48
0.52
0.57
0.62
0.68
0.74
0.80
0.87
0.94
1.02
1.11
1.21
1.33
1.45
1.59
1.75
1.92
2.12
2.34
2.58
2.85
3.14
3.47
3.83
4.22
4.65
5.11
5.61
6.15
6.73
7.35
8.02
8.73
9.48
10.28
11.13
12.03
12.96
13.95
15.00
16.12
17.30
18.53
19.81
21.12
22.39
23.58
24.58
25.29
25.55
25.22
24.20
22.40
19.83
16.54
12.64
8.30
3.70
-0.99
-5.59
-9.94
-13.87
-17.23
-19.85
-21.65
-22.59
-22.76
-22.30
-21.42
-20.33
-19.19
-18.06
-16.89
-15.62
-14.16
-12.58
-11.02
-9.70
-8.84
-8.50
-8.53
-8.61
-8.37
-7.58
-6.29
-4.83
-3.72
-3.41
-4.04
-5.37
-6.77
-7.55
-7.23
-5.93
-4.21
-2.98
-3.07
-4.85
-7.96
-11.49
-14.38
-15.82
-15.80
-14.87
-14.12
-14.71
-17.68
-23.55
-32.13
-42.18
-51.30
-56.50
-54.90
-45.26
-28.97
-10.14
5.69
13.46
10.37
-1.98
-20.17
-39.36
-55.54
-67.12
-74.98
-81.47
-88.77
-98.05
-109.48
-122.67
-136.22
-147.98
-154.84
-153.36
-141.12
-117.96
-86.57
-51.38
-17.04
13.55
39.35
60.32
76.41
87.10
91.97
91.29
86.08
77.15
64.37
46.59
22.95
-5.25
-33.79
-56.46
-67.82
-66.04
-53.94
-37.95
-24.83
-18.32
-17.82
-19.31
-17.75
-9.97
4.12
22.09
40.62
57.01
69.83
78.30
81.72
79.52
71.93
60.91
50.04
43.20
42.48
46.82
52.45
55.04
52.17
44.61
35.59
28.57
25.23
24.84
25.30
24.79
23.04
21.12
20.27
20.90
22.25
23.11
22.99
22.64
23.52
26.61
31.37
35.69
37.04
33.95
26.99
18.72
12.24
9.52
10.26
12.24
12.81
10.70
6.98
4.63
6.76
14.77
27.36
40.92
51.29
55.59
53.20
45.56
35.37
25.78
20.06
21.39
32.10
51.63
75.16
93.84
98.09
82.70
51.32
16.81
-3.42
4.39
42.69
100.77
158.80
196.51
201.44
173.01
120.94
60.27
5.37
-34.20
-55.36
-61.01
-58.07
-54.72
-57.19
-67.38
-82.06
-94.71
-99.13
-93.11
-80.25
-68.46
-65.91
-76.91
-99.90
-128.52
-155.08
-174.37
-185.42
-191.05
-195.17
-200.04
-205.46
-209.31
-209.56
-205.76
-199.27
-192.07
-185.40
-178.79
-170.33
-157.99
-140.81
-119.37
-95.50
-71.50
-49.31
-30.29
-15.07
-3.58
4.99
12.03
19.10
27.32
36.72
46.34
54.78
61.06
65.33
68.70
72.71
78.50
86.31
95.40
104.63
112.89
119.52
124.29
127.18
128.38
128.10
126.69
124.46
121.66
118.33
114.28
109.28
103.25
96.37
89.04
81.84
75.27
69.76
65.45
62.11
59.24
56.19
52.40
47.62
41.95
35.90
30.24
25.88
23.53
23.50
25.43
28.28
30.61
31.12
29.40
26.09
22.69
20.61
20.27
20.76
20.37
17.58
12.19
5.60
0.04
-2.58
-1.70
1.64
5.51
8.14
8.71
7.60
5.82
4.38
3.74
3.80
4.25
4.92
5.91
7.40
9.34
11.32
12.62
12.64
11.28
9.14
7.31
6.86
8.37
11.64
15.97
20.54
24.85
28.85
32.62
36.07
38.55
38.95
36.43
31.11
24.29
17.96
13.94
12.94
14.34
16.47
17.58
16.56
13.63
9.75
6.06
3.50
2.66
4.15
8.05
13.68
19.54
24.54
27.89
29.84
31.87
35.99
44.47
57.59
72.73
84.56
88.33
80.39
60.14
31.49
2.51
-14.99
-10.54
20.33
73.75
140.37
205.64
253.82
272.64
255.98
208.20
141.19
71.22
15.58
-9.03
5.16
53.83
122.04
189.04
239.33
265.40
268.37
237.65
175.57
95.49
15.51
-42.76
-83.65
-114.19
-139.83
-166.47
-197.96
-233.41
-270.27
-302.88
-322.97
-323.31
-298.07
-249.14
-188.18
-132.57
-95.21
-81.95
-89.05
-105.92
-121.72
-127.94
-122.24
-108.71
-94.46
-75.79
-49.53
-14.73
25.60
64.79
93.15
108.94
112.49
103.76
83.87
55.41
19.93
-21.98
-70.95
-127.36
-190.30
-244.50
-276.61
-280.16
-259.45
-224.54
-184.84
-146.79
-113.52
-85.54
-62.47
-45.00
-32.98
-25.47
-20.55
-15.99
-10.59
-4.43
1.89
7.46
10.39
9.95
6.88
3.25
1.29
2.06
4.91
8.19
9.98
8.26
2.72
-5.08
-12.49
-16.94
-17.47
-15.12
-12.19
-11.23
-14.82
-24.26
-39.04
-56.39
-71.31
-77.45
-69.09
-43.83
-4.95
37.98
72.04
85.78
73.80
39.00
-9.01
-58.15
-98.43
-124.70
-136.44
-135.54
-124.22
-104.04
-76.67
-45.01
-13.54
12.70
29.92
37.04
36.88
34.32
34.69
41.94
57.47
80.41
108.12
136.66
161.22
176.73
179.26
167.61
144.33
115.40
88.32
69.19
60.47
60.63
65.57
71.70
77.01
81.67
86.81
92.98
99.38
104.14
105.44
102.25
95.59
86.81
77.34
67.98
58.56
48.11
35.26
18.90
-1.87
-26.03
-52.72
-80.66
-108.29
-134.14
-157.14
-176.72
-189.78
-199.87
-206.22
-208.18
-204.49
-193.53
-174.15
-146.28
-111.63
-73.44
-36.45
-4.39
17.66
25.28
15.60
-11.82
-54.27
-105.94
-159.21
-207.28
-240.07
-255.13
-256.63
-252.33
-248.99
-249.20
-251.24
-251.43
-249.65
-244.52
-237.44
-229.99
-222.66
-214.67
-204.84
-192.67
-178.81
-164.64
-150.84
-139.40
-130.91
-124.36
-117.70
-108.78
-96.11
-79.17
-58.20
-33.29
-5.05
26.48
61.80
101.42
145.32
192.60
241.31
288.90
332.72
370.00
398.56
416.91
424.17
419.92
404.15
377.29
340.29
294.74
242.62
186.37
128.61
71.92
18.50
-29.93
-72.23
-107.82
-136.53
-158.62
-174.59
-185.10
-190.85
-192.61
-191.06
-186.80
-180.40
-172.31
-162.94
-152.60
-141.54
-129.96
-118.04
-105.93
-93.75
-81.64
-69.75
-58.19
-47.13
-36.69
-26.97
-18.02
-9.84
-2.35
4.53
10.93
16.92
22.56
27.88
32.90
37.70
42.39
47.12
52.02
57.10
62.29
67.37
72.01
75.82
78.45
79.60
79.04
76.53
71.81
64.51
54.21
40.63
23.71
3.91
-17.87
-40.31
-61.99
-81.66
-98.52
-112.30
-123.17
-131.35
-136.80
-139.07
-137.39
-131.06
-119.94
-104.76
-87.10
-68.84
-51.48
-35.38
-19.58
-2.23
18.51
43.43
71.70
101.07
128.94
153.62
175.28
196.09
219.18
247.24
281.53
321.67
366.28
413.47
461.00
505.61
542.74
566.75
572.22
555.54
516.21
456.39
379.36
288.50
187.30
80.61
-23.67
-114.46
-179.56
-209.56
-202.50
-166.39
-118.02
-78.00
-63.58
-82.39
-129.76
-191.23
-248.51
-287.28
-302.01
-296.23
-278.75
-258.32
-239.87
-223.99
-209.15
-193.30
-176.73
-161.33
-148.62
-137.88
-125.96
-108.39
-81.60
-44.70
3.18
60.54
124.90
193.82
265.30
337.82
410.04
480.55
547.59
614.18
683.54
758.51
840.15
926.48
1012.53
1091.49
1157.12
1205.05
1239.67
1267.27
1294.19
1324.79
1360.65
1401.34
1445.55
1492.79
1502.85
1444.94
1298.01
1059.64
749.37
402.61
57.82
-255.38
-520.30
-732.62
-890.05
-994.78
-1051.48
-1067.63
-1053.27
-1018.05
-974.99
-934.00
-900.98
-873.38
-846.31
-814.65
-775.53
-729.07
-677.95
-626.26
-577.03
-531.96
-488.49
-443.60
-392.31
-332.68
-265.58
-194.24
-123.25
-56.58
2.75
54.29
98.43
135.76
165.98
188.16
200.79
202.28
191.92
170.03
138.40
99.53
56.13
10.36
-36.13
-82.17
-126.97
-169.53
-208.64
-242.91
-271.05
-292.25
-306.68
-315.36
-319.99
-322.56
-324.77
-327.62
-331.36
-335.67
-340.03
-344.35
-349.13
-355.43
-364.64
-378.02
-396.18
-418.69
-443.87
-469.21
-491.98
-509.88
-521.50
-526.65
-526.38
-522.73
-518.13
-514.45
-512.09
-509.54
-503.77
-491.46
-470.48
-440.85
-404.66
-365.08
-324.93
-285.83
-248.30
-212.47
-178.85
-148.30
-121.27
-96.92
-73.02
-46.59
-15.33
21.34
62.15
104.48
145.81
184.84
221.98
259.17
299.26
345.16
398.87
460.30
526.21
589.95
642.33
673.91
677.92
652.65
602.24
535.41
462.81
394.27
336.88
294.33
267.07
252.99
247.94
246.80
244.41
236.88
222.35
201.17
175.51
149.07
127.07
115.56
119.81
141.96
178.90
222.00
259.43
280.41
279.39
257.83
222.72
182.85
144.92
111.73
82.84
56.69
32.51
10.85
-7.27
-21.59
-33.05
-43.38
-54.10
-65.82
-78.10
-89.89
-100.30
-109.17
-117.30
-126.44
-139.07
-157.76
-183.87
-216.21
-250.05
-277.77
-291.16
-284.67
-258.01
-216.53
-169.05
-124.00
-86.20
-55.61
-28.85
-1.98
26.86
56.84
85.43
110.34
130.70
147.04
160.08
169.59
173.94
170.76
158.37
137.35
111.04
84.39
61.57
43.43
26.79
6.44
-20.89
-52.98
-81.68
-96.42
-90.09
-63.70
-26.91
6.26
24.07
22.42
5.76
-16.51
-35.43
-46.54
-50.60
-51.40
-52.83
-57.47
-67.07
-83.70
-110.25
-148.88
-198.70
-254.03
-304.87
-339.42
-348.03
-326.59
-278.12
-212.01
-141.21
-78.51
-33.20
-8.96
-3.69
-11.15
-23.72
-35.07
-41.90
-43.95
-42.85
-40.39
-37.39
-33.77
-29.47
-24.79
-20.84
-18.82
-19.17
-21.21
-23.57
-24.80
-24.28
-22.60
-20.81
-20.25
-21.73
-25.00
-28.84
-31.70
-32.43
-30.76
-27.82
-24.73
-23.05
-23.83
-27.08
-31.68
-36.07
-38.90
-39.71
-40.13
-40.70
-43.19
-48.84
-57.61
-67.94
-77.79
-85.54
-90.79
-96.56
-102.91
-112.19
-126.23
-145.04
-166.18
-186.67
-204.24
-218.10
-232.41
-246.34
-263.08
-286.07
-316.58
-351.66
-386.07
-413.07
-425.09
-420.35
-392.95
-347.34
-294.77
-248.55
-218.14
-208.99
-220.60
-219.55
-225.56
-221.21
-197.15
-151.10
-85.53
-3.96
86.39
177.02
261.35
332.07
393.53
457.84
528.49
586.26
621.13
632.06
618.08
580.49
520.73
449.20
372.33
294.28
220.04
158.27
115.88
96.98
100.39
117.49
139.50
152.19
142.39
104.53
44.10
-27.69
-96.70
-152.16
-189.76
-197.13
-171.87
-120.35
-53.05
21.00
85.42
137.97
177.58
201.07
205.45
190.22
157.04
112.18
65.00
23.52
-6.35
-23.81
-30.35
-27.27
-16.38
0.43
21.38
44.11
65.27
82.33
92.35
93.86
87.57
75.00
58.39
40.59
24.42
11.93
4.87
2.96
5.07
10.00
16.62
24.15
32.24
40.59
48.44
55.09
59.52
61.30
60.88
59.29
57.60
56.59
56.53
57.07
57.64
57.40
55.58
51.74
45.87
38.30
29.70
20.90
12.69
5.72
0.37
-3.32
-5.62
-7.01
-8.06
-9.29
-11.01
-13.37
-16.44
-20.20
-24.61
-29.48
-34.44
-38.92
-42.33
-44.23
-44.51
-43.40
-41.38
-39.01
-36.75
-34.84
-33.21
-31.65
-29.77
-27.27
-23.98
-19.91
-15.27
-10.29
-5.25
-0.31
4.44
8.99
13.48
18.16
23.39
29.40
36.27
43.75
51.26
58.12
63.65
67.37
69.09
68.90
67.01
63.77
59.61
55.04
50.58
46.63
43.20
39.77
35.38
28.79
18.96
5.27
-12.44
-34.13
-59.76
-89.21
-121.89
-156.22
-189.40
-217.84
-238.10
-247.88
-246.51
-234.90
-214.87
-188.60
-158.35
-126.49
-95.67
-68.60
-47.60
-34.00
-28.01
-28.94
-35.70
-47.17
-62.05
-78.67
-94.77
-107.78
-115.49
-116.71
-111.67
-101.98
-90.09
-78.51
-69.07
-62.51
-58.49
-55.92
-53.60
-50.63
-46.69
-42.01
-36.95
-31.58
-25.30
-16.88
-4.92
11.60
32.83
57.87
84.91
111.77
136.35
157.06
172.94
183.56
188.80
188.77
183.93
175.36
164.75
153.98
144.60
137.01
130.31
122.62
111.95
97.24
78.91
58.83
39.58
23.43
11.46
3.20
-3.03
-9.30
-17.19
-27.16
-38.31
-48.78
-56.38
-59.42
-57.28
-50.61
-41.04
-30.61
-21.07
-13.46
-8.00
-4.18
-1.23
1.58
4.76
8.49
12.75
17.29
21.78
25.77
28.81
30.56
30.91
30.03
28.35
26.37
24.51
22.94
21.52
19.98
18.02
15.46
12.33
8.88
5.51
2.68
0.81
0.14
0.67
2.15
4.14
6.16
7.83
8.98
9.69
10.19
10.67
11.18
11.55
11.46
10.61
8.79
6.01
2.55
-1.08
-4.26
-6.41
-7.22
-6.76
-5.50
-4.27
-3.98
-5.36
-8.69
-13.69
-19.66
-25.72
-31.10
-35.38
-38.42
-40.18
-40.58
-39.40
-36.37
-31.46
-24.98
-17.59
-10.18
-3.55
1.76
5.57
7.93
8.99
8.81
7.43
4.85
1.28
-2.86
-6.89
-10.09
-11.87
-11.94
-10.50
-8.00
-5.08
-2.23
0.27
2.34
4.04
5.38
6.28
6.64
6.48
5.96
5.41
5.19
5.49
6.25
7.20
8.02
8.43
8.38
7.99
7.49
7.12
7.07
7.45
8.26
9.44
10.89
12.59
14.68
17.46
21.26
26.27
32.32
38.80
44.77
49.21
51.33
50.87
48.22
44.28
40.21
37.08
35.49
35.33
35.73
35.34
32.83
27.60
20.18
12.17
5.62
1.95
1.20
1.65
0.41
-5.46
-17.74
-36.21
-58.56
-80.91
-98.86
-108.59
-107.97
-97.14
-78.63
-56.53
-35.24
-17.98
-5.97
1.56
6.42
10.25
13.78
16.67
18.29
18.39
17.44
16.32
15.74
15.72
15.57
14.39
11.54
7.05
1.56
-4.03
-9.00
-13.02
-16.26
-19.08
-21.87
-24.82
-27.90
-30.94
-33.82
-36.64
-39.61
-42.99
-46.78
-50.69
-54.18
-56.60
-57.53
-56.89
-54.96
-52.19
-49.08
-45.87
-42.49
-38.42
-32.83
-24.77
-13.50
1.06
18.19
36.44
54.06
69.49
81.73
90.50
96.06
98.96
99.79
99.10
97.33
94.87
92.07
89.22
86.60
84.36
82.55
80.97
79.29
77.02
73.82
69.60
64.60
59.32
54.29
49.83
46.00
42.61
39.31
35.76
31.66
26.70
20.71
13.60
5.51
-3.18
-11.91
-20.01
-26.87
-32.14
-35.82
-38.14
-39.44
-39.90
-39.58
-38.55
-37.12
-36.14
-36.89
-40.72
-48.62
-60.91
-77.16
-96.28
-116.45
-135.15
-149.24
-155.65
-152.45
-139.94
-121.16
-101.21
-85.64
-78.77
-82.35
-95.41
-114.72
-135.78
-153.67
-163.82
-162.78
-149.00
-123.49
-89.71
-52.64
-17.24
12.87
36.15
52.82
64.12
71.57
76.61
80.65
85.15
91.37
99.89
110.15
120.42
128.36
131.94
130.32
124.27
115.94
108.05
103.09
102.61
106.93
115.00
124.16
130.02
127.06
110.17
77.04
30.26
-22.38
-69.84
-101.66
-111.69
-99.93
-71.44
-33.19
9.29
53.42
98.71
144.56
188.69
227.16
256.32
274.97
285.35
292.20
300.19
311.31
323.75
332.55
332.10
318.84
293.01
258.47
220.95
185.59
155.10
129.38
106.38
83.82
60.62
37.30
15.50
-2.92
-16.58
-25.00
-28.64
-29.03
-28.82
-31.55
-41.11
-61.08
-93.93
-140.45
-199.21
-266.17
-334.58
-395.82
-440.93
-462.84
-458.33
-428.57
-377.79
-310.81
-230.94
-139.72
-38.73
68.05
173.26
267.75
343.98
399.24
436.54
462.59
484.10
504.62
523.36
536.46
539.54
529.90
507.15
472.63
428.18
375.56
316.50
253.25
188.86
126.81
70.50
22.22
-17.23
-48.43
-72.71
-91.38
-105.08
-113.90
-117.84
-117.63
-115.57
-115.85
-123.88
-144.65
-180.32
-228.16
-280.09
-324.37
-348.90
-345.17
-310.98
-251.28
-176.68
-100.51
-35.39
9.60
30.53
28.78
9.80
-19.05
-50.84
-80.82
-107.03
-129.53
-149.14
-166.34
-181.09
-193.28
-203.16
-211.34
-218.10
-222.83
-223.89
-219.38
-208.24
-191.29
-171.30
-152.07
-136.90
-127.11
-121.50
-116.99
-109.91
-97.66
-79.45
-56.40
-30.63
-4.79
18.32
36.04
46.89
52.12
56.73
68.56
95.04
139.30
197.25
258.53
310.66
344.34
356.98
352.64
338.83
322.42
306.99
292.53
276.86
257.34
231.66
198.15
155.76
104.70
46.84
-14.54
-75.63
-133.32
-185.86
-232.79
-274.20
-310.13
-340.22
-364.22
-382.14
-394.47
-401.85
-404.70
-403.35
-398.21
-390.64
-383.12
-378.37
-377.79
-379.92
-380.26
-372.87
-353.22
-320.74
-279.48
-236.64
-199.51
-172.78
-157.36
-151.27
-151.46
-155.42
-161.60
-168.91
-175.92
-180.68
-181.30
-176.85
-167.87
-156.07
-143.68
-132.15
-121.54
-110.46
-96.68
-78.23
-54.28
-25.40
6.59
39.53
71.77
102.73
133.15
164.82
200.08
240.89
287.71
338.70
389.60
434.71
468.45
486.99
489.19
476.42
451.71
418.66
380.79
341.21
302.73
267.69
237.96
214.81
199.11
191.44
191.83
199.14
210.21
219.77
221.55
210.49
184.82
146.86
102.16
57.04
16.21
-18.61
-48.39
-75.39
-101.63
-128.19
-155.66
-184.82
-216.64
-251.35
-287.14
-320.08
-345.44
-359.93
-363.34
-358.38
-348.59
-335.76
-318.66
-294.06
-259.48
-215.81
-168.00
-123.19
-87.53
-63.57
-49.86
-42.60
-38.15
-34.74
-32.48
-32.28
-34.58
-38.86
-44.14
-49.81
-56.05
-63.27
-71.05
-77.69
-81.11
-80.60
-78.33
-78.92
-86.98
-104.18
-127.67
-151.66
-170.88
-184.02
-194.24
-206.49
-223.35
-242.26
-256.27
-257.78
-242.91
-213.82
-177.48
-142.09
-113.18
-91.89
-75.61
-60.32
-42.86
-22.06
1.39
25.83
49.56
71.55
91.49
109.81
127.23
144.46
162.06
180.68
201.53
226.36
256.52
291.44
327.36
357.37
373.38
369.25
343.59
300.55
248.04
194.20
143.76
96.62
49.32
-1.50
-55.49
-107.28
-148.10
-169.43
-166.61
-140.43
-96.20
-41.40
16.61
71.74
118.69
152.47
168.70
165.11
143.29
109.37
72.50
41.93
23.82
19.48
25.82
37.32
48.38
55.15
56.14
51.77
43.60
33.50
23.10
13.54
5.49
-0.81
-5.49
-8.87
-11.39
-13.34
-14.78
-15.47
-14.93
-12.69
-8.44
-2.22
5.54
14.15
22.77
30.59
37.00
41.66
44.53
45.77
45.65
44.37
42.01
38.65
34.39
29.52
24.57
20.14
16.78
14.73
13.88
13.83
14.03
13.83
12.68
10.09
5.76
-0.34
-7.77
-15.72
-23.14
-29.16
-33.53
-36.74
-39.85
-43.95
-49.54
-56.16
-62.44
-66.70
-67.53
-64.36
-57.56
-48.10
-37.21
-25.85
-14.66
-3.98
6.06
15.31
23.66
30.96
37.05
41.82
45.15
46.98
47.39
46.73
45.59
44.65
44.37
44.85
45.78
46.68
47.17
47.12
46.67
45.98
45.01
43.41
40.63
36.33
30.61
24.11
17.82
12.67
9.12
7.06
5.82
4.45
2.06
-1.81
-7.13
-13.28
-19.40
-24.61
-28.38
-30.82
-32.79
-35.61
-40.45
-47.70
-56.42
-64.54
-69.69
-70.21
-65.83
-57.46
-46.34
-33.13
-17.70
0.17
19.75
38.86
54.47
63.98
66.56
63.41
56.83
48.75
39.81
29.50
17.30
3.80
-8.99
-18.39
-22.40
-20.58
-14.30
-5.82
2.70
10.06
16.30
22.23
28.70
36.08
43.96
51.23
56.51
58.49
56.42
50.23
40.65
29.01
16.98
6.11
-2.62
-9.13
-14.13
-18.76
-23.87
-29.56
-35.29
-40.36
-44.52
-48.03
-51.24
-53.90
-55.03
-53.32
-48.04
-39.69
-29.94
-20.88
-13.98
-9.49
-6.66
-4.45
-2.23
-0.12
1.30
1.42
-0.03
-2.97
-7.13
-12.08
-17.33
-22.35
-26.73
-30.45
-33.96
-38.03
-43.29
-49.72
-56.47
-62.04
-64.90
-64.12
-59.74
-52.73
-44.68
-37.42
-32.70
-31.93
-35.65
-43.09
-51.67
-57.43
-56.16
-45.09
-24.28
3.21
32.37
58.38
78.52
93.00
104.32
115.54
128.58
143.29
157.91
170.22
178.62
182.70
183.10
180.88
177.05
172.37
167.33
162.18
156.82
150.69
142.77
132.02
117.93
100.92
82.32
63.80
46.77
31.83
18.97
7.85
-1.72
-9.77
-16.27
-21.43
-25.81
-30.05
-34.62
-39.51
-44.21
-48.01
-50.41
-51.28
-51.04
-50.42
-50.12
-50.54
-51.59
-52.79
-53.48
-53.12
-51.46
-48.66
-45.15
-41.45
-38.06
-35.28
-33.20
-31.71
-30.59
-29.60
-28.58
-27.45
-26.23
-25.05
-24.02
-23.23
-22.67
-22.21
-21.61
-20.48
-18.41
-14.98
-9.94
-3.30
4.53
12.77
20.48
26.80
31.22
33.60
34.16
33.32
31.57
29.39
27.22
25.43
24.29
23.81
23.81
23.99
24.00
23.61
22.75
21.47
19.85
17.95
15.80
13.44
10.93
8.33
5.69
3.00
0.26
-2.53
-5.33
-8.02
-10.49
-12.74
-14.87
-17.11
-19.65
-22.52
-25.48
-28.03
-29.58
-29.70
-28.22
-25.34
-21.44
-16.93
-12.12
-7.19
-2.28
2.46
6.85
10.65
13.75
16.13
17.88
19.09
19.86
20.24
20.23
19.83
19.06
17.99
16.72
15.36
14.01
12.70
11.43
10.14
8.81
7.48
6.25
5.27
4.69
4.53
4.63
4.66
4.21
2.95
0.72
-2.33
-5.83
-9.40
-12.70
-15.68
-18.44
-21.22
-24.11
-27.06
-29.81
-32.03
-33.31
-33.31
-31.78
-28.51
-23.50
-16.95
-9.35
-1.38
6.22
12.90
18.41
22.80
26.36
29.36
31.94
34.05
35.47
35.99
35.59
34.43
32.88
31.34
30.09
29.28
28.88
28.77
28.79
28.78
28.60
28.19
27.54
26.74
25.85
24.91
23.82
22.46
20.73
18.67
16.43
14.21
12.04
9.76
7.08
3.74
-0.36
-5.09
-10.10
-14.96
-19.23
-22.56
-24.65
-25.34
-24.57
-22.46
-19.18
-14.99
-10.08
-4.69
0.88
6.22
10.87
14.37
16.47
17.19
16.66
15.05
12.55
9.52
6.84
6.05
8.96
16.88
29.65
45.28
60.55
72.35
79.10
81.23
80.59
79.13
77.75
75.97
72.62
66.85
58.72
49.06
38.69
27.80
15.90
2.41
-12.61
-28.13
-42.42
-53.90
-61.83
-66.54
-69.19
-71.16
-73.44
-76.33
-79.52
-82.41
-84.47
-85.50
-85.64
-85.21
-84.40
-83.05
-80.60
-76.36
-69.92
-61.47
-51.87
-42.22
-33.36
-25.40
-17.73
-9.35
0.42
11.63
23.63
35.44
46.21
55.42
62.92
68.72
72.82
75.24
76.00
75.24
73.09
69.72
65.29
60.01
54.15
48.01
41.76
35.40
28.86
22.15
15.57
9.68
5.09
2.13
0.66
0.05
-0.52
-1.85
-4.37
-8.03
-12.36
-16.47
-19.40
-20.33
-18.89
-15.30
-10.20
-4.45
1.24
6.40
10.80
14.33
16.80
18.04
17.93
16.55
14.08
10.76
6.78
2.29
-2.46
-7.02
-10.76
-13.14
-13.86
-13.02
-11.01
-8.29
-5.21
-1.94
1.38
4.55
7.20
8.93
9.38
8.46
6.29
3.26
-0.17
-3.62
-6.80
-9.64
-12.23
-14.76
-17.45
-20.42
-23.72
-27.28
-30.95
-34.55
-37.74
-40.14
-41.29
-40.82
-38.55
-34.65
-29.62
-24.18
-19.01
-14.56
-10.86
-7.65
-4.51
-1.20
2.25
5.45
7.91
9.26
9.45
8.76
7.67
6.65
5.95
5.62
5.53
5.62
5.87
6.33
7.01
7.76
8.32
8.39
7.78
6.49
4.66
2.55
0.35
-1.79
-3.81
-5.62
-7.16
-8.38
-9.34
-10.27
-11.52
-13.41
-16.13
-19.59
-23.51
-27.44
-30.86
-33.30
-34.37
-33.84
-31.66
-28.03
-23.41
-18.40
-13.61
-9.47
-6.12
-3.46
-1.28
0.55
2.00
2.84
2.87
1.97
0.28
-1.88
-4.14
-6.24
-8.09
-9.74
-11.32
-12.83
-14.18
-15.17
-15.65
-15.56
-15.02
-14.37
-14.09
-14.73
-16.84
-20.71
-26.26
-33.03
-40.15
-46.64
-51.54
-54.14
-53.90
-50.46
-43.56
-33.10
-19.34
-3.11
14.16
30.57
44.16
53.32
57.07
55.32
48.74
38.69
27.05
15.99
7.77
4.40
7.12
16.02
29.77
45.80
60.91
72.11
77.42
76.42
70.23
60.96
50.98
42.22
35.81
32.02
30.52
30.71
31.89
33.44
34.83
35.64
35.59
34.60
32.82
30.52
28.02
25.53
23.06
20.45
17.52
14.12
10.24
6.03
1.72
-2.45
-6.32
-9.87
-13.22
-16.55
-20.06
-23.85
-27.72
-31.24
-33.78
-34.73
-33.70
-30.67
-26.00
-20.28
-14.17
-8.29
-3.06
1.27
4.67
7.27
9.35
11.22
13.06
14.88
16.48
17.60
18.06
17.82
17.07
16.01
14.88
13.80
12.79
11.87
10.97
10.05
9.03
7.85
6.47
4.89
3.12
1.21
-0.82
-2.96
-5.22
-7.56
-9.90
-12.19
-14.40
-16.58
-18.82
-21.21
-23.78
-26.51
-29.29
-32.03
-34.60
-36.77
-38.22
-38.56
-37.42
-34.61
-30.29
-24.90
-19.07
-13.38
-8.19
-3.60
0.55
4.44
8.17
11.69
14.83
17.39
19.19
20.17
20.34
19.85
18.91
17.81
16.80
15.98
15.31
14.58
13.61
12.33
10.87
9.48
8.39
7.66
7.10
6.41
5.30
3.66
1.58
-0.73
-3.02
-5.15
-7.06
-8.78
-10.36
-11.88
-13.45
-15.29
-17.59
-20.49
-23.93
-27.57
-30.84
-33.03
-33.50
-31.91
-28.32
-23.20
-17.23
-11.15
-5.52
-0.64
3.41
6.73
9.45
11.64
13.28
14.29
14.59
14.13
13.05
11.61
10.16
9.05
8.45
8.36
8.58
8.81
8.85
8.67
8.34
8.00
7.70
7.38
6.84
5.88
4.37
2.34
-0.05
-2.60
-5.15
-7.62
-10.05
-12.52
-15.09
-17.72
-20.40
-23.06
-25.71
-28.37
-30.97
-33.31
-34.94
-35.28
-33.82
-30.33
-25.03
-18.55
-11.65
-5.04
0.88
6.06
10.58
14.56
17.97
20.66
22.43
23.21
23.11
22.42
21.46
20.49
19.68
19.06
18.64
18.38
18.22
18.08
17.79
17.20
16.13
14.51
12.38
9.90
7.31
4.84
2.63
0.71
-0.93
-2.36
-3.64
-4.82
-5.99
-7.27
-8.80
-10.79
-13.36
-16.51
-20.05
-23.55
-26.42
-28.07
-28.01
-26.03
-22.18
-16.70
-9.91
-2.08
6.53
15.62
24.66
32.88
39.28
42.86
42.85
38.96
31.45
21.14
9.24
-2.87
-13.87
-22.77
-28.98
-32.41
-33.42
-32.69
-31.04
-29.26
-27.90
-27.30
-27.51
-28.35
-29.59
-30.92
-32.06
-32.80
-33.03
-32.83
-32.46
-32.29
-32.73
-34.06
-36.34
-39.26
-42.29
-44.70
-45.79
-45.03
-42.25
-37.62
-31.68
-25.08
-18.39
-11.96
-5.86
-0.00
5.68
11.11
16.07
20.27
23.48
25.62
26.72
26.90
26.31
25.12
23.55
21.90
20.44
19.43
18.95
18.95
19.24
19.54
19.59
19.20
18.27
16.82
15.00
13.00
10.99
9.07
7.20
5.29
3.22
0.97
-1.45
-3.93
-6.36
-8.70
-10.99
-13.37
-16.11
-19.44
-23.40
-27.71
-31.71
-34.46
-35.15
-33.27
-28.93
-22.73
-15.59
-8.39
-1.73
4.11
9.15
13.50
17.27
20.51
23.18
25.22
26.56
27.18
27.14
26.54
25.57
24.45
23.31
22.27
21.39
20.67
20.14
19.81
19.66
19.61
19.50
19.16
18.39
17.12
15.35
13.20
10.86
8.56
6.47
4.65
3.05
1.52
-0.13
-2.01
-4.13
-6.38
-8.60
-10.67
-12.56
-14.35
-16.23
-18.34
-20.80
-23.64
-26.84
-30.25
-33.61
-36.45
-38.19
-38.23
-36.19
-32.06
-26.28
-19.59
-12.79
-6.47
-0.90
3.96
8.26
12.13
15.56
18.43
20.62
22.04
22.76
22.87
22.53
21.90
21.14
20.41
19.80
19.42
19.30
19.36
19.52
19.64
19.62
19.41
18.97
18.31
17.42
16.27
14.86
13.15
11.19
9.07
6.93
4.91
3.06
1.32
-0.44
-2.38
-4.60
-7.03
-9.52
-11.85
-13.86
-15.51
-16.98
-18.55
-20.55
-23.13
-26.30
-29.80
-33.20
-35.99
-37.60
-37.60
-35.72
-31.97
-26.67
-20.35
-13.67
-7.24
-1.51
3.32
7.27
10.49
13.14
15.37
17.20
18.62
19.59
20.09
20.14
19.87
19.45
19.07
18.84
18.84
19.04
19.38
19.76
20.07
20.21
20.07
19.59
18.76
17.60
16.19
14.60
12.92
11.17
9.38
7.56
5.74
3.98
2.26
0.55
-1.24
-3.20
-5.38
-7.70
-10.05
-12.28
-14.29
-16.05
-17.67
-19.29
-21.09
-23.24
-25.84
-28.88
-32.19
-35.45
-38.12
-39.62
-39.40
-37.16
-32.95
-27.13
-20.35
-13.32
-6.63
-0.62
4.58
9.03
12.80
15.96
18.45
20.24
21.30
21.70
21.56
21.07
20.42
19.75
19.16
18.69
18.36
18.15
18.09
18.18
18.40
18.64
18.71
18.39
17.46
15.89
13.78
11.37
8.92
6.62
4.50
2.55
0.67
-1.24
-3.25
-5.37
-7.61
-9.91
-12.19
-14.37
-16.43
-18.40
-20.46
-22.78
-25.52
-28.74
-32.37
-36.32
-40.41
-44.46
-48.26
-51.52
-53.89
-54.97
-54.43
-52.12
-48.16
-42.92
-36.96
-30.96
-25.63
-21.63
-19.49
-19.40
-21.04
-23.44
-25.07
-24.24
-19.52
-10.26
3.24
19.87
38.01
56.06
72.66
86.83
97.95
105.62
109.74
110.49
108.37
104.11
98.50
92.20
85.58
78.76
71.65
64.23
56.55
48.87
41.48
34.62
28.38
22.66
17.30
12.15
7.17
2.34
-2.29
-6.75
-11.02
-15.11
-18.95
-22.46
-25.61
-28.48
-31.23
-34.08
-37.05
-39.95
-42.26
-43.38
-42.80
-40.37
-36.39
-31.50
-26.47
-21.90
-18.04
-14.80
-11.92
-9.12
-6.29
-3.58
-1.22
0.54
1.62
2.07
2.08
1.87
1.62
1.42
1.29
1.20
1.16
1.17
1.23
1.31
1.37
1.32
1.05
0.44
-0.54
-1.86
-3.37
-4.86
-6.15
-7.18
-8.03
-8.92
-10.07
-11.62
-13.58
-15.73
-17.79
-19.48
-20.69
-21.51
-22.22
-23.18
-24.67
-26.82
-29.50
-32.41
-35.05
-36.95
-37.65
-36.80
-34.25
-30.09
-24.65
-18.47
-12.14
-6.21
-1.04
3.21
6.58
9.22
11.23
12.72
13.73
14.29
14.47
14.34
13.97
13.44
12.79
12.08
11.39
10.85
10.56
10.58
10.81
11.07
11.04
10.45
9.14
7.14
4.64
1.98
-0.51
-2.64
-4.38
-5.90
-7.48
-9.42
-11.85
-14.69
-17.63
-20.28
-22.35
-23.85
-25.14
-26.83
-29.49
-33.36
-38.20
-43.21
-47.35
-49.63
-49.47
-46.91
-42.56
-37.44
-32.58
-28.70
-25.96
-23.82
-21.26
-17.01
-10.10
-0.16
12.33
26.19
39.96
52.31
62.33
69.48
73.38
73.64
69.85
61.94
50.57
37.36
24.52
14.17
7.38
3.68
1.07
-3.22
-11.60
-25.13
-43.09
-63.22
-82.43
-97.55
-105.88
-105.51
-95.73
-77.48
-53.64
-28.48
-6.45
9.60
19.53
25.71
31.47
39.11
48.68
58.17
65.20
68.80
70.18
71.92
76.18
83.16
90.71
95.42
94.30
86.16
72.16
55.45
39.92
29.02
24.59
26.11
30.69
33.93
31.55
21.01
2.66
-20.44
-43.84
-63.50
-77.22
-84.78
-87.04
-84.79
-78.07
-66.51
-50.32
-31.10
-11.71
4.79
16.49
23.53
27.84
32.14
38.51
47.55
58.28
68.84
77.32
82.44
83.74
81.33
75.59
66.85
55.35
41.38
25.45
8.39
-8.74
-24.85
-39.07
-50.93
-60.36
-67.46
-72.42
-75.25
-75.94
-74.65
-71.95
-68.78
-66.24
-65.01
-64.71
-63.74
-59.63
-49.90
-33.23
-10.21
16.61
43.51
66.91
84.47
95.57
100.86
101.35
97.61
89.53
76.72
59.19
37.81
14.21
-9.83
-33.09
-55.23
-76.56
-97.34
-117.26
-135.23
-149.72
-159.38
-163.57
-162.54
-157.14
-148.42
-137.15
-123.60
-107.63
-88.83
-66.97
-42.33
-15.96
10.26
33.84
52.29
63.69
67.23
63.46
54.16
42.08
30.48
22.60
21.03
27.28
41.35
61.73
85.68
109.81
130.73
145.67
152.75
151.05
140.66
122.44
98.04
69.92
41.07
14.43
-8.02
-25.85
-40.26
-53.13
-65.67
-77.35
-85.89
-88.45
-83.38
-71.45
-55.62
-39.62
-25.97
-15.07
-5.79
2.74
9.65
12.57
9.58
1.38
-7.92
-12.37
-7.41
7.55
28.33
48.02
60.43
62.98
57.53
48.80
41.60
38.54
39.40
42.11
44.29
44.54
42.66
39.25
34.94
30.03
24.29
17.40
9.35
0.80
-7.08
-13.07
-16.56
-17.78
-17.64
-17.21
-17.22
-17.79
-18.57
-19.09
-19.09
-18.58
-17.67
-16.41
-14.82
-13.05
-11.66
-11.51
-13.48
-17.94
-24.52
-32.16
-39.60
-45.96
-50.94
-54.73
-57.61
-59.65
-60.90
-61.62
-62.57
-64.74
-68.66
-73.53
-77.11
-76.36
-68.72
-53.36
-31.64
-6.60
18.22
39.98
57.17
69.49
77.35
81.34
82.00
79.84
75.45
69.47
62.58
55.33
48.09
40.98
33.80
26.09
17.32
7.22
-3.86
-14.93
-24.57
-31.60
-35.56
-36.93
-36.85
-36.55
-36.72
-37.36
-37.84
-37.29
-35.08
-31.07
-25.73
-19.96
-14.82
-11.11
-9.01
-7.94
-6.85
-4.90
-2.07
0.68
1.91
0.58
-3.08
-7.37
-9.70
-7.60
0.32
14.06
32.58
54.63
79.18
105.29
131.43
154.78
171.26
176.44
167.21
143.30
107.93
66.88
26.60
-8.05
-35.02
-54.94
-69.75
-80.96
-88.71
-91.90
-89.11
-79.81
-64.80
-45.87
-25.00
-3.54
17.87
38.78
58.15
74.06
84.03
85.99
79.22
64.79
45.35
24.21
4.34
-12.41
-25.48
-35.34
-42.83
-48.67
-53.22
-56.51
-58.56
-59.63
-60.30
-61.32
-63.30
-66.34
-70.01
-73.64
-76.75
-79.36
-81.81
-84.32
-86.42
-86.77
-83.57
-75.08
-60.20
-38.61
-10.65
23.01
61.39
103.20
146.75
190.07
231.27
268.75
301.23
327.39
345.56
353.85
350.71
335.81
310.58
278.03
241.83
205.25
170.26
137.49
106.62
77.18
48.91
21.81
-4.14
-29.38
-54.95
-82.25
-112.48
-145.84
-181.04
-215.21
-244.68
-266.11
-277.72
-279.76
-274.35
-264.49
-253.05
-242.05
-232.50
-224.63
-218.08
-212.11
-205.63
-197.42
-186.58
-173.16
-158.34
-143.87
-131.07
-119.75
-107.77
-91.62
-67.51
-32.43
15.14
74.90
144.25
217.98
288.25
345.66
381.50
390.50
372.88
334.40
284.37
232.18
184.39
143.46
108.54
77.45
48.45
21.06
-4.31
-27.30
-48.20
-68.00
-87.96
-109.19
-132.40
-158.11
-187.45
-222.22
-264.25
-313.73
-367.54
-418.71
-457.91
-476.44
-469.49
-437.95
-387.80
-327.56
-265.30
-206.70
-154.77
-110.75
-74.93
-46.78
-24.39
-4.22
18.21
46.68
82.53
123.90
166.33
204.27
233.04
250.07
255.17
249.99
237.22
219.66
199.55
178.08
155.37
130.80
103.70
74.17
43.33
12.99
-15.09
-40.03
-62.04
-81.86
-99.84
-115.28
-126.50
-131.52
-129.24
-120.25
-106.94
-92.81
-81.42
-75.41
-75.92
-82.52
-93.30
-105.48
-115.73
-120.71
-117.75
-105.20
-82.59
-50.82
-12.26
29.10
67.86
98.22
115.37
117.25
105.75
86.60
67.72
56.66
58.04
72.18
95.69
123.35
150.30
173.61
192.40
207.02
217.89
224.64
226.11
220.94
208.45
189.21
165.39
139.97
116.16
96.72
83.60
77.64
78.57
84.92
94.17
103.11
108.46
107.79
100.18
86.33
68.23
48.34
28.80
11.08
-4.13
-16.69
-26.84
-35.23
-42.94
-51.40
-61.91
-74.94
-89.57
-103.55
-114.07
-119.13
-118.88
-116.08
-115.25
-120.67
-134.03
-152.97
-171.46
-182.10
-179.16
-160.94
-130.23
-92.63
-54.06
-18.53
12.43
39.09
62.16
82.01
98.63
112.33
123.97
134.57
144.32
151.80
154.12
148.18
132.37
107.60
77.32
46.31
18.90
-2.43
-17.58
-28.29
-36.99
-45.70
-55.20
-65.09
-74.22
-81.41
-85.96
-87.89
-87.95
-87.31
-87.39
-89.52
-94.64
-103.29
-115.53
-131.08
-149.43
-169.74
-190.60
-209.85
-224.46
-231.07
-226.74
-209.90
-180.75
-141.35
-94.96
-45.20
4.59
51.49
92.95
126.53
149.98
161.47
160.15
146.59
123.15
93.71
62.96
35.36
13.87
-0.75
-9.78
-15.61
-20.39
-25.13
-29.80
-34.28
-39.15
-45.93
-56.25
-70.63
-87.75
-104.77
-118.81
-128.07
-132.29
-131.94
-127.01
-116.60
-99.48
-75.47
-46.25
-15.07
14.71
41.05
63.71
83.47
100.79
115.02
124.60
128.29
126.22
120.30
113.32
107.73
104.74
104.29
105.75
108.61
112.76
118.08
123.97
129.13
131.92
131.12
126.47
118.92
110.10
101.54
94.08
87.70
81.90
76.29
70.91
66.29
62.99
61.13
60.07
58.59
55.44
49.90
42.18
33.23
24.28
16.30
9.75
4.68
1.03
-1.14
-1.73
-0.96
0.41
1.13
-0.04
-3.70
-9.33
-15.35
-19.72
-20.87
-18.32
-12.85
-6.18
-0.24
3.57
4.75
3.78
1.83
0.40
0.92
4.28
10.52
18.52
26.00
29.89
27.17
16.00
-3.38
-28.35
-54.64
-77.76
-94.61
-104.49
-109.06
-111.29
-113.83
-117.73
-122.00
-124.25
-122.03
-114.02
-100.81
-84.68
-68.66
-55.29
-45.78
-39.65
-35.26
-30.69
-24.73
-17.33
-9.47
-2.60
2.17
4.51
4.99
4.67
4.67
5.88
9.00
14.65
23.36
35.14
49.04
63.00
74.26
80.49
80.80
76.32
69.68
63.78
60.37
59.39
59.44
58.88
57.05
54.70
53.46
54.76
59.01
65.29
71.77
76.45
77.90
75.72
70.47
63.49
56.36
50.39
46.13
43.06
39.58
33.34
21.90
3.67
-21.17
-50.19
-78.97
-102.29
-115.71
-116.91
-106.24
-86.11
-59.89
-30.67
-0.82
27.92
53.94
75.53
91.03
99.33
100.16
94.02
82.10
66.12
48.53
32.69
22.46
21.06
29.60
46.05
65.62
82.52
92.09
92.51
84.76
71.33
54.18
33.44
7.39
-26.22
-68.07
-115.41
-161.79
-198.65
-218.53
-218.50
-202.10
-178.71
-160.43
-157.74
-175.95
-213.46
-262.63
-312.65
-352.78
-375.10
-375.91
-355.70
-318.11
-268.37
-211.75
-152.34
-92.52
-33.28
24.73
80.44
131.94
176.94
213.50
240.82
259.50
271.32
278.50
282.91
285.27
285.16
281.45
273.16
260.27
243.85
225.53
206.75
188.15
169.48
150.26
130.48
111.11
94.15
82.06
76.78
78.82
86.71
97.04
105.31
107.13
99.46
81.37
54.08
20.40
-16.10
-51.81
-83.74
-110.06
-130.60
-147.20
-163.04
-181.38
-203.79
-229.14
-253.94
-274.21
-287.81
-295.91
-302.50
-311.98
-326.38
-343.85
-359.41
-367.71
-365.89
-355.21
-340.26
-326.61
-318.02
-315.19
-315.97
-317.10
-315.97
-311.59
-304.28
-294.46
-281.62
-263.98
-239.13
-205.28
-162.09
-111.22
-55.70
0.98
56.00
107.73
155.78
200.58
242.94
283.93
324.68
366.27
409.11
452.23
492.57
525.34
545.55
549.71
537.24
510.41
473.24
429.99
384.57
340.67
302.17
272.70
254.12
244.99
240.08
232.12
214.83
185.83
147.60
105.95
67.27
35.79
12.72
-2.95
-12.98
-18.83
-21.70
-22.91
-24.19
-27.34
-33.54
-42.50
-52.62
-61.64
-67.57
-69.53
-68.07
-64.66
-61.05
-58.51
-57.38
-57.07
-56.49
-54.61
-50.91
-45.57
-39.34
-33.17
-27.78
-23.38
-19.75
-16.44
-13.13
-9.81
-6.78
-4.43
-3.02
-2.53
-2.72
-3.41
-4.65
-6.89
-10.91
-17.43
-26.88
-39.06
-53.07
-67.56
-81.17
-93.15
-103.58
-113.44
-124.05
-136.44
-150.94
-166.99
-183.43
-198.74
-211.35
-219.93
-223.69
-222.78
-218.53
-213.22
-209.15
-207.65
-208.33
-209.19
-207.79
-202.53
-193.47
-182.08
-170.26
-159.21
-148.97
-138.73
-127.57
-115.03
-101.21
-86.38
-70.68
-53.95
-35.85
-16.09
5.55
29.13
54.49
80.87
106.61
129.21
145.95
154.89
155.77
150.44
142.38
135.56
133.20
136.85
146.15
159.30
173.91
187.71
199.07
206.98
210.96
210.90
207.05
200.15
191.39
182.30
174.25
167.88
162.79
157.57
150.41
139.89
125.72
108.86
91.18
74.48
59.66
46.26
32.64
16.70
-3.13
-27.25
-54.78
-83.99
-113.03
-140.48
-165.40
-187.05
-204.48
-216.35
-221.21
-218.04
-206.80
-188.57
-165.49
-140.20
-115.54
-94.34
-79.14
-71.81
-72.83
-80.67
-91.72
-101.26
-104.96
-100.45
-88.06
-70.38
-50.92
-32.69
-17.39
-5.55
2.67
6.81
5.94
-0.73
-12.79
-27.83
-41.61
-49.31
-47.52
-35.91
-17.62
1.94
17.55
26.63
30.25
32.25
36.87
46.33
59.71
73.80
85.09
92.01
95.68
99.17
105.66
116.54
130.75
145.16
156.14
161.18
160.05
154.80
148.71
144.89
145.15
149.33
155.61
161.42
164.53
163.97
160.31
155.13
149.92
144.80
137.90
125.69
104.46
72.16
29.75
-18.91
-68.41
-113.75
-152.02
-182.73
-206.97
-225.96
-240.02
-248.41
-250.21
-245.21
-234.59
-220.59
-205.60
-191.03
-176.74
-161.17
-142.12
-117.97
-88.47
-55.12
-20.78
11.24
37.97
57.58
69.67
75.04
75.31
72.38
67.99
63.59
60.26
58.80
59.53
62.19
65.79
68.80
69.68
67.55
62.62
56.08
49.54
44.21
40.51
38.15
36.77
36.47
37.71
40.79
45.15
49.12
50.56
47.87
40.87
30.83
19.68
8.80
-1.55
-11.83
-22.06
-30.83
-35.38
-32.86
-22.20
-5.23
13.53
28.63
35.82
33.63
23.55
9.00
-6.34
-19.69
-29.60
-35.57
-37.48
-35.36
-29.45
-20.52
-10.03
0.04
7.81
12.16
13.21
12.38
11.94
14.15
20.37
30.44
42.53
53.66
60.63
61.03
54.06
40.72
23.51
5.63
-9.88
-20.87
-26.34
-26.37
-21.82
-13.79
-3.37
8.57
21.37
34.31
46.28
55.58
60.03
57.54
46.93
28.66
5.02
-20.38
-43.81
-62.53
-75.51
-83.38
-87.71
-90.09
-91.29
-91.01
-88.02
-80.70
-67.67
-48.38
-23.44
5.41
35.67
64.65
89.96
110.00
123.90
131.43
132.50
126.67
112.98
90.42
58.85
20.06
-21.70
-60.44
-90.10
-106.57
-109.22
-100.82
-86.28
-70.58
-57.23
-47.55
-41.13
-36.75
-33.13
-29.40
-25.06
-19.96
-14.14
-7.74
-0.88
6.42
14.14
22.24
30.61
39.28
48.64
59.49
72.69
88.60
106.55
124.74
140.86
153.03
160.57
164.20
165.32
165.02
163.32
159.21
151.42
139.55
124.72
109.23
95.51
84.70
75.90
66.55
53.72
35.97
14.52
-6.73
-22.81
-29.88
-27.43
-19.02
-11.21
-11.45
-25.56
-56.31
-103.04
-162.13
-227.52
-291.44
-345.42
-382.00
-397.01
-391.06
-369.37
-339.62
-308.49
-278.95
-249.65
-216.78
-177.25
-131.29
-82.74
-37.37
-0.17
26.70
44.33
55.96
65.37
75.48
87.64
101.86
117.30
132.63
146.37
156.86
162.35
161.31
152.99
137.89
117.99
96.31
76.12
60.10
49.64
44.69
44.00
45.68
47.96
49.80
51.16
52.66
54.86
57.40
58.71
56.54
49.29
37.14
22.43
8.62
-1.38
-6.71
-9.04
-11.72
-18.13
-30.26
-47.87
-68.47
-87.77
-100.59
-102.11
-89.41
-62.91
-26.95
11.05
42.71
61.34
63.89
51.36
27.76
-1.64
-31.78
-58.67
-79.48
-92.49
-97.15
-94.10
-85.12
-72.81
-60.01
-49.15
-41.83
-38.57
-38.87
-41.49
-44.88
-47.58
-48.57
-47.25
-43.28
-36.45
-26.59
-13.85
1.11
17.01
32.33
45.83
57.05
66.43
74.97
83.59
92.64
101.69
109.80
116.01
119.64
120.44
118.37
113.45
105.60
94.73
80.91
64.54
46.35
27.37
8.86
-7.80
-21.14
-29.81
-32.89
-30.14
-22.22
-10.55
3.19
17.45
31.21
43.88
54.97
63.88
69.85
72.45
72.01
69.77
67.50
66.73
68.05
70.92
74.25
77.26
80.17
84.25
91.13
101.72
115.63
131.09
145.73
157.53
165.53
169.89
171.46
171.13
169.42
166.35
161.72
155.43
147.71
139.21
130.84
123.56
118.03
114.43
112.31
110.84
109.08
106.39
102.71
98.51
94.47
90.97
87.78
84.07
78.87
71.62
62.69
53.33
45.36
40.48
39.78
43.47
50.88
60.47
69.97
76.75
78.28
72.70
59.50
39.58
14.85
-12.64
-41.66
-72.35
-106.02
-144.05
-186.33
-230.16
-270.20
-299.92
-313.98
-310.48
-291.89
-264.24
-234.63
-208.50
-187.96
-171.99
-158.14
-144.67
-131.63
-120.52
-112.77
-108.27
-104.97
-99.89
-90.84
-77.79
-63.01
-50.21
-42.70
-42.19
-48.56
-60.51
-76.74
-96.81
-121.19
-151.01
-187.76
-233.10
-288.38
-353.52
-425.40
-496.98
-557.91
-597.46
-608.39
-590.02
-548.59
-494.47
-437.82
-384.64
-335.53
-287.33
-236.35
-181.26
-124.07
-68.84
-19.47
22.24
57.36
88.86
120.32
154.70
193.69
237.75
286.07
335.88
381.74
415.67
428.86
415.16
374.61
315.26
251.55
199.52
170.86
168.91
188.32
218.52
248.67
271.48
284.23
287.33
281.92
268.52
247.19
218.60
184.88
149.48
115.82
85.82
59.27
34.40
9.19
-17.09
-43.27
-66.62
-83.89
-92.56
-91.72
-82.45
-67.63
-51.37
-38.11
-31.46
-33.11
-42.17
-55.44
-68.53
-77.63
-80.94
-79.30
-75.55
-72.95
-73.82
-78.74
-86.70
-95.85
-104.06
-108.90
-107.53
-96.89
-74.66
-40.68
2.06
47.58
88.65
119.19
136.45
141.57
138.53
131.94
124.99
118.54
111.67
102.92
91.57
78.11
63.87
50.20
37.84
26.77
16.55
6.81
-2.38
-10.42
-16.28
-18.79
-16.83
-9.61
3.11
20.75
41.86
64.28
85.46
102.82
114.18
117.80
112.49
97.70
73.78
42.39
6.65
-29.10
-60.21
-82.92
-95.37
-98.00
-93.17
-84.11
-73.90
-64.70
-57.63
-53.09
-51.13
-51.77
-54.92
-60.20
-66.68
-72.89
-77.17
-78.17
-75.41
-69.61
-62.53
-56.38
-52.95
-52.86
-55.30
-58.23
-59.08
-55.60
-46.55
-31.96
-13.12
7.69
27.79
44.61
56.44
62.83
64.75
64.13
63.06
62.84
63.56
64.30
63.89
61.72
58.16
54.32
51.39
50.02
50.01
50.41
49.96
47.45
42.21
34.36
25.03
16.27
10.66
10.49
16.93
29.45
45.98
63.58
79.40
91.35
98.19
99.27
94.08
82.18
63.43
38.43
8.87
-22.61
-52.86
-78.97
-98.86
-111.49
-116.83
-115.40
-108.11
-96.48
-83.01
-71.38
-65.75
-69.30
-82.52
-102.08
-121.35
-132.55
-129.59
-110.51
-78.10
-38.61
0.61
33.66
57.33
71.23
76.92
76.94
74.00
70.56
68.43
68.45
70.40
73.15
75.18
75.16
72.57
67.81
61.89
55.94
50.68
46.17
41.81
36.62
29.65
20.21
8.15
-6.17
-21.93
-37.93
-52.69
-64.58
-72.09
-74.18
-70.59
-61.77
-48.51
-31.43
-10.83
12.93
38.82
64.82
88.22
106.49
118.09
122.78
121.33
114.89
104.63
91.78
77.69
63.88
51.44
40.31
28.90
14.60
-5.26
-32.35
-66.76
-107.00
-150.37
-193.40
-232.34
-263.72
-285.15
-296.09
-298.33
-295.50
-291.67
-289.29
-287.80
-283.73
-272.43
-250.86
-219.70
-183.44
-148.30
-118.98
-96.12
-75.92
-52.14
-19.29
24.42
76.05
129.10
175.94
210.52
230.04
235.38
230.29
219.78
208.26
198.28
190.21
182.91
175.01
165.62
154.24
140.02
121.34
96.33
64.34
27.35
-10.02
-42.01
-64.10
-74.72
-75.12
-67.72
-53.92
-33.18
-3.84
34.70
80.26
127.74
170.87
204.50
226.34
236.87
237.87
230.80
215.80
191.81
157.40
111.97
56.87
-3.70
-62.42
-109.78
-136.35
-136.16
-109.58
-64.11
-12.14
33.48
63.89
76.50
74.03
61.31
42.10
17.47
-13.44
-51.76
-97.38
-148.44
-201.82
-253.49
-298.77
-332.66
-350.54
-349.27
-328.37
-290.29
-239.91
-183.34
-126.73
-75.49
-33.90
-4.84
10.60
13.44
6.82
-4.52
-15.44
-21.64
-20.66
-12.43
0.85
15.35
26.84
32.09
30.26
23.27
15.26
11.38
16.20
32.69
61.33
99.40
140.55
175.33
193.40
187.26
156.28
108.53
58.98
24.18
15.55
34.77
73.52
117.71
153.77
173.77
176.88
167.28
150.41
129.94
107.11
82.22
56.44
32.72
15.07
6.57
7.84
16.54
28.13
37.65
41.31
37.06
24.30
3.09
-26.23
-62.56
-103.21
-143.43
-177.03
-198.02
-202.69
-190.77
-165.24
-130.75
-91.51
-50.20
-8.18
33.19
71.31
102.20
121.95
128.66
123.61
110.97
95.98
82.70
72.74
65.32
58.52
51.02
43.09
36.45
33.27
34.87
40.99
49.80
58.76
65.61
69.31
70.40
70.43
71.28
74.14
79.03
84.76
89.59
92.02
91.58
89.05
86.04
84.04
83.58
83.83
82.94
79.02
71.19
60.23
48.33
38.15
31.63
29.24
30.01
32.20
34.20
35.09
34.63
32.93
30.10
26.15
21.19
15.55
9.57
3.32
-3.72
-12.41
-23.41
-36.54
-50.63
-63.91
-74.77
-82.36
-86.68
-88.30
-87.86
-85.86
-82.68
-78.87
-75.28
-72.91
-72.59
-74.55
-78.23
-82.29
-84.87
-83.99
-78.22
-67.26
-52.30
-35.94
-21.53
-12.06
-9.23
-12.76
-20.38
-28.31
-32.26
-28.79
-16.60
2.72
24.87
44.10
55.09
54.69
42.93
22.50
-2.27
-27.26
-49.76
-68.96
-85.91
-103.22
-124.53
-153.56
-192.65
-240.85
-292.91
-339.99
-372.00
-380.94
-363.56
-322.30
-264.32
-199.28
-137.09
-86.21
-52.51
-38.41
-42.23
-58.23
-77.78
-91.93
-94.28
-82.93
-60.42
-31.86
-2.43
24.10
45.68
61.28
70.18
72.07
67.85
60.01
52.20
47.73
47.73
50.67
53.49
53.77
51.81
50.92
55.79
69.84
93.01
121.41
148.75
168.88
177.97
175.41
163.37
145.49
125.48
106.17
89.09
74.59
62.28
51.48
41.70
32.81
25.00
18.41
12.99
8.55
5.02
2.72
2.34
4.57
9.58
16.69
24.46
31.14
35.33
36.45
34.85
31.64
28.26
26.15
26.25
28.68
32.48
35.61
35.36
29.15
15.64
-4.52
-28.56
-52.34
-71.68
-83.71
-87.62
-84.47
-76.43
-65.77
-54.25
-43.09
-33.18
-25.36
-20.37
-18.54
-19.53
-22.26
-25.25
-27.06
-26.77
-24.15
-19.59
-14.01
-8.49
-4.08
-1.45
-0.62
-0.84
-0.64
1.65
7.31
16.60
28.49
40.87
51.21
57.42
58.48
54.72
47.47
38.56
29.59
21.60
14.99
9.71
5.54
2.27
-0.24
-2.09
-3.31
-3.89
-3.57
-1.93
1.55
7.22
15.04
24.39
34.16
42.93
49.33
52.46
52.17
49.16
44.75
40.46
37.43
36.04
35.84
35.75
34.50
30.96
24.40
14.57
1.69
-13.44
-29.50
-44.73
-57.38
-66.17
-70.75
-71.69
-70.15
-67.25
-63.67
-59.52
-54.72
-49.43
-44.34
-40.49
-38.70
-39.05
-40.62
-41.77
-40.72
-36.31
-28.34
-17.54
-5.25
7.03
18.03
26.91
33.34
37.51
40.18
42.50
45.69
50.58
57.06
63.94
69.24
70.89
67.65
59.61
48.28
36.01
25.23
17.74
14.24
14.26
16.33
18.44
18.60
15.41
8.58
-0.95
-11.32
-20.47
-26.78
-29.54
-28.90
-25.41
-19.61
-11.82
-2.37
8.15
18.71
28.07
35.18
39.63
41.69
42.02
41.15
39.04
34.96
27.94
17.36
3.55
-12.14
-27.67
-41.08
-51.11
-57.51
-60.88
-62.15
-62.11
-61.12
-59.29
-56.76
-54.02
-51.92
-51.36
-53.00
-56.93
-62.57
-68.77
-74.16
-77.54
-78.31
-76.62
-73.40
-69.93
-67.20
-65.29
-63.01
-58.07
-47.89
-30.63
-6.11
23.78
55.44
84.52
107.11
120.75
124.88
120.74
110.80
97.96
84.81
73.23
64.18
57.81
53.68
51.07
49.23
47.47
45.27
42.27
38.21
33.04
26.90
20.15
13.34
7.01
1.61
-2.62
-5.49
-6.85
-6.44
-4.03
0.40
6.37
12.86
18.39
21.40
20.76
16.08
7.92
-2.44
-13.35
-23.35
-31.53
-37.67
-42.05
-45.17
-47.39
-48.84
-49.43
-49.07
-47.74
-45.63
-42.98
-39.99
-36.73
-33.27
-29.67
-26.19
-23.22
-21.19
-20.39
-20.89
-22.44
-24.64
-27.02
-29.23
-30.99
-32.05
-32.04
-30.47
-26.88
-20.96
-12.77
-2.69
8.71
20.79
32.96
44.52
54.62
62.20
66.25
66.19
62.21
55.27
46.86
38.44
31.08
25.18
20.62
17.02
14.04
11.44
9.13
7.06
5.23
3.67
2.53
2.01
2.28
3.30
4.81
6.36
7.49
7.89
7.45
6.23
4.41
2.15
-0.30
-2.65
-4.44
-5.22
-4.70
-2.93
-0.43
1.98
3.44
3.45
2.03
-0.27
-2.71
-4.62
-5.73
-6.22
-6.49
-6.95
-7.69
-8.55
-9.26
-9.57
-9.43
-8.90
-8.05
-6.77
-4.86
-2.09
1.56
5.87
10.33
14.32
17.32
18.93
18.96
17.34
14.07
9.25
3.06
-4.12
-11.66
-18.74
-24.40
-27.77
-28.35
-26.16
-21.83
-16.37
-10.94
-6.45
-3.39
-1.75
-1.15
-1.06
-1.02
-0.76
-0.25
0.36
0.94
1.42
1.87
2.55
3.73
5.65
8.43
12.05
16.28
20.69
24.66
27.48
28.57
27.72
25.29
22.25
19.80
19.00
20.17
22.72
25.32
26.27
24.18
18.44
9.38
-1.84
-13.65
-24.46
-33.11
-38.97
-42.02
-42.68
-41.63
-39.57
-37.05
-34.39
-31.63
-28.67
-25.44
-21.98
-18.39
-14.74
-10.92
-6.66
-1.62
4.29
10.74
16.97
22.04
25.28
26.61
26.58
26.11
26.01
26.58
27.49
27.93
27.06
24.29
19.48
12.92
5.08
-3.47
-12.20
-20.54
-27.86
-33.43
-36.48
-36.47
-33.24
-27.23
-19.49
-11.49
-4.73
-0.27
1.54
1.16
-0.39
-1.88
-2.26
-0.90
2.40
7.50
13.98
21.22
28.49
34.85
39.37
41.26
40.15
36.27
30.51
24.16
18.59
14.72
12.79
12.31
12.37
12.01
10.64
8.09
4.57
0.42
-4.03
-8.53
-12.86
-16.74
-19.87
-22.08
-23.35
-23.88
-23.87
-23.45
-22.50
-20.78
-18.02
-14.22
-9.65
-4.76
-0.02
4.23
7.87
10.91
13.41
15.44
16.98
17.96
18.32
18.03
17.14
15.71
13.75
11.07
7.23
1.63
-6.07
-15.50
-25.30
-33.32
-37.40
-36.27
-30.11
-20.51
-9.71
0.27
8.34
14.39
18.96
22.62
25.67
28.09
29.79
30.80
31.32
31.55
31.54
31.11
29.91
27.55
23.86
19.05
13.82
9.29
6.63
6.56
9.03
13.11
17.48
21.04
23.49
25.35
27.56
30.70
34.55
38.00
39.74
38.91
35.65
31.17
27.15
25.26
26.60
31.79
40.76
52.53
64.89
74.19
75.51
63.64
34.68
-11.98
-72.31
-137.81
-197.38
-240.47
-260.20
-254.85
-227.12
-182.10
-125.37
-62.22
1.40
57.89
98.24
113.91
99.66
55.61
-12.52
-95.14
-181.31
-260.97
-326.10
-371.24
-393.90
-394.69
-377.08
-346.49
-308.53
-267.63
-226.54
-186.64
-148.92
-114.31
-83.36
-55.58
-29.04
-0.70
32.53
72.62
119.41
170.04
218.92
258.94
283.35
288.19
274.07
246.27
213.02
182.53
160.21
147.23
141.18
138.13
134.92
130.81
127.11
125.83
128.31
134.36
142.58
151.48
160.50
170.60
184.62
205.24
233.50
267.96
304.84
339.11
365.81
381.11
382.63
370.56
346.16
311.33
268.47
220.44
170.83
123.97
84.58
56.90
45.05
50.34
70.60
100.45
132.77
160.90
180.59
190.87
184.17
157.28
110.33
47.33
-24.49
-96.89
-163.01
-218.70
-262.47
-294.64
-315.16
-324.65
-324.36
-316.19
-302.48
-285.59
-267.50
-249.63
-232.87
-216.64
-200.25
-183.27
-165.83
-148.61
-132.48
-118.14
-105.89
-95.55
-85.97
-76.02
-64.97
-52.85
-40.55
-29.17
-19.66
-12.37
-7.09
-2.76
1.64
6.51
11.34
14.67
14.67
9.98
0.23
-13.74
-30.07
-46.88
-62.73
-76.31
-88.18
-99.16
-110.02
-121.32
-133.48
-146.48
-159.18
-168.75
-170.89
-161.42
-138.25
-103.26
-62.35
-23.50
6.36
23.99
30.48
29.83
26.25
22.35
18.54
14.13
8.70
2.88
-1.96
-4.69
-5.31
-5.00
-5.39
-7.87
-12.87
-19.53
-26.32
-31.75
-34.92
-35.81
-35.11
-33.77
-32.42
-31.11
-29.30
-26.12
-20.85
-13.32
-4.00
6.16
16.05
24.79
31.89
37.30
41.25
43.99
45.77
46.71
46.94
46.63
46.01
45.35
44.81
44.42
44.03
43.54
42.97
42.56
42.74
43.92
46.28
49.58
53.21
56.37
58.50
59.50
59.86
60.46
62.13
65.32
69.82
74.93
79.68
83.48
86.24
88.45
91.00
94.95
101.32
110.96
124.23
140.31
156.87
169.88
174.48
166.79
145.77
114.37
78.84
46.48
22.45
8.09
0.56
-5.17
-13.67
-27.30
-46.25
-69.64
-95.56
-122.55
-148.33
-169.70
-182.54
-183.14
-170.15
-145.96
-115.88
-86.03
-61.14
-42.20
-27.87
-15.54
-3.02
9.91
21.00
26.77
24.05
11.31
-9.56
-35.65
-63.11
-88.22
-108.78
-124.77
-137.84
-150.19
-163.51
-177.30
-191.73
-206.76
-221.77
-230.60
-227.72
-209.87
-177.51
-142.99
-114.30
-98.44
-100.34
-118.47
-148.17
-180.80
-206.05
-215.15
-204.28
-171.00
-122.44
-70.46
-25.67
4.41
22.81
36.54
52.18
73.90
103.51
139.19
177.37
213.37
241.43
256.18
254.13
236.37
209.44
183.85
168.18
165.72
173.16
182.65
186.70
181.70
169.49
155.07
142.45
130.70
114.63
88.10
47.64
-5.31
-65.51
-125.70
-178.75
-218.80
-242.43
-248.97
-241.21
-225.73
-211.28
-205.77
-212.43
-227.98
-244.10
-251.66
-245.30
-225.80
-198.78
-171.34
-148.23
-129.78
-112.53
-91.86
-64.83
-31.99
3.36
37.69
68.47
95.26
119.36
142.48
165.52
188.02
208.13
224.57
238.68
253.22
271.53
296.37
329.05
368.73
412.31
454.49
490.25
517.61
537.01
551.08
563.29
575.78
587.92
596.32
595.98
574.17
525.39
451.59
361.72
268.13
181.51
107.62
51.86
9.83
-23.56
-50.80
-73.76
-94.43
-115.35
-138.71
-165.41
-194.95
-226.48
-257.78
-285.60
-307.76
-323.35
-332.53
-336.06
-335.06
-330.66
-324.73
-318.83
-314.14
-312.64
-317.18
-331.20
-358.11
-399.61
-453.88
-514.80
-571.95
-613.54
-630.80
-621.09
-588.13
-540.30
-486.84
-434.29
-385.03
-337.62
-289.16
-237.92
-184.24
-129.51
-75.36
-22.98
27.29
75.57
122.09
167.00
210.33
252.76
296.59
343.85
394.43
444.69
487.58
514.89
520.51
503.03
462.13
404.12
339.19
277.49
225.55
185.07
154.53
131.76
115.19
104.04
98.05
96.02
95.83
95.32
93.15
89.07
83.81
78.06
71.85
65.14
57.27
47.12
33.74
16.92
-2.45
-22.42
-40.87
-55.54
-64.25
-65.94
-61.19
-52.01
-41.41
-32.73
-26.55
-24.18
-26.21
-32.66
-43.41
-58.79
-79.41
-105.77
-138.07
-176.20
-220.65
-271.57
-328.11
-387.39
-443.69
-488.57
-512.76
-509.27
-476.06
-417.63
-342.55
-260.70
-180.54
-107.52
-44.03
9.60
53.68
89.49
115.62
130.81
135.41
133.35
128.82
124.97
124.64
129.55
141.98
163.80
196.96
243.09
299.19
358.99
412.67
448.47
455.69
428.74
369.43
287.69
198.35
116.14
51.17
6.58
-20.37
-35.30
-43.28
-47.30
-48.38
-47.00
-44.41
-42.37
-42.38
-44.62
-47.89
-50.29
-50.29
-47.57
-43.06
-38.44
-35.14
-33.74
-33.71
-33.86
-32.94
-30.44
-26.72
-22.74
-19.43
-17.07
-15.31
-13.32
-10.57
-6.92
-2.83
0.99
3.85
5.29
4.75
1.36
-5.49
-14.94
-23.80
-27.49
-22.41
-8.48
10.40
28.10
39.63
43.81
43.38
42.40
42.82
42.91
38.59
27.00
9.25
-9.56
-23.01
-26.91
-21.51
-10.88
0.61
9.07
13.91
17.11
20.62
25.77
31.85
36.56
37.12
31.34
18.49
-0.35
-22.71
-44.41
-63.23
-78.09
-89.33
-98.07
-105.55
-112.69
-119.94
-127.58
-135.70
-143.65
-149.10
-148.17
-136.81
-112.99
-78.60
-39.24
-2.52
25.20
41.05
46.53
45.79
43.09
40.68
38.45
35.12
29.81
22.93
15.96
10.57
7.49
6.28
5.60
3.81
0.06
-5.46
-11.48
-16.12
-17.44
-14.47
-7.22
3.05
14.39
24.89
33.52
40.22
46.01
52.43
60.47
70.53
82.50
96.20
111.32
126.84
140.27
146.63
142.20
125.02
96.87
63.37
32.03
9.18
-2.63
-4.97
-2.00
2.23
5.30
6.86
7.50
7.19
5.02
-0.37
-9.41
-21.04
-32.90
-42.59
-48.38
-50.18
-49.16
-47.04
-45.24
-43.84
-41.78
-37.35
-29.48
-18.31
-5.54
6.10
13.75
15.39
10.79
1.23
-11.30
-25.22
-39.74
-55.08
-71.95
-89.88
-109.54
-131.09
-153.96
-176.24
-194.59
-204.23
-200.60
-181.67
-149.61
-110.82
-73.40
-44.75
-26.96
-18.88
-16.78
-16.78
-16.67
-16.35
-16.95
-19.16
-22.73
-26.61
-30.27
-33.71
-38.06
-44.78
-55.04
-68.85
-84.88
-101.00
-115.03
-125.74
-132.22
-134.79
-134.50
-132.54
-129.89
-127.18
-124.87
-123.56
-124.36
-127.65
-134.01
-143.72
-156.33
-170.50
-184.03
-193.98
-196.79
-194.79
-187.73
-175.26
-157.25
-133.83
-105.52
-73.32
-38.74
-3.87
28.59
56.70
78.45
92.43
98.12
95.98
87.34
74.13
58.43
42.15
27.57
16.44
10.07
9.32
14.47
25.15
40.30
58.29
77.18
95.64
112.67
127.82
141.09
152.60
162.25
169.52
173.56
173.64
170.00
163.98
157.97
154.98
157.70
167.66
184.70
207.21
232.76
259.22
285.38
311.33
338.24
368.08
403.12
445.21
494.82
549.80
604.88
652.23
683.52
692.74
678.43
644.11
596.58
543.07
488.60
435.24
383.12
332.37
284.46
242.00
207.15
179.84
157.17
134.36
106.99
73.14
34.33
-5.23
-40.62
-68.81
-90.22
-108.69
-130.07
-160.03
-202.07
-256.37
-319.67
-385.64
-445.82
-491.25
-514.71
-513.47
-491.24
-458.26
-428.60
-415.13
-424.37
-453.62
-492.06
-525.31
-541.22
-533.95
-504.54
-458.60
-402.71
-341.94
-279.39
-217.00
-156.26
-98.26
-42.91
11.03
64.92
118.80
170.00
213.48
243.35
255.11
246.65
218.83
175.41
123.06
71.41
32.29
16.93
31.94
75.34
135.27
193.70
233.57
245.86
233.18
207.67
184.48
174.49
179.88
193.94
206.52
210.26
204.36
194.17
187.51
189.73
201.18
217.37
230.08
232.60
223.00
204.67
183.35
164.11
147.87
132.67
115.57
91.54
58.61
19.56
-19.06
-51.01
-72.84
-87.37
-99.79
-114.88
-140.06
-178.73
-228.01
-279.69
-325.36
-359.29
-383.64
-403.21
-422.32
-450.95
-497.07
-563.26
-644.14
-730.22
-809.35
-873.86
-916.80
-894.34
-785.16
-605.50
-403.52
-223.85
-99.50
-15.26
45.92
96.17
144.48
188.90
223.61
243.97
254.80
264.71
282.73
309.77
344.62
389.03
439.05
490.10
536.62
579.63
620.28
657.57
683.72
673.29
615.49
515.63
413.74
323.14
248.54
186.98
138.87
101.62
72.84
53.99
41.35
29.00
8.58
-20.52
-54.57
-88.26
-119.03
-145.85
-166.82
-186.42
-211.18
-248.59
-298.79
-357.43
-418.68
-478.70
-535.46
-563.17
-546.55
-487.69
-406.88
-325.54
-256.06
-200.72
-156.68
-119.70
-85.91
-57.21
-36.71
-26.82
-26.21
-31.72
-40.10
-48.43
-52.99
-48.73
-33.64
-7.74
26.26
63.87
99.22
126.79
143.44
149.82
149.42
144.62
136.91
127.06
116.03
105.17
95.95
89.38
85.64
83.94
82.06
78.28
72.10
64.63
57.71
52.65
49.62
47.96
46.46
43.68
39.04
32.99
26.92
22.90
22.95
28.09
37.52
48.09
54.48
51.89
38.01
14.81
-11.50
-32.85
-42.86
-39.34
-24.25
-3.96
15.29
29.87
39.31
44.79
47.13
45.18
36.71
20.15
-4.53
-34.81
-66.59
-95.76
-119.66
-136.95
-149.26
-159.76
-169.20
-177.67
-184.81
-190.32
-193.75
-193.65
-187.30
-171.39
-143.45
-103.77
-56.75
-9.50
30.84
59.80
77.21
85.83
89.08
89.37
87.46
83.10
76.54
69.16
62.75
59.10
58.10
57.77
55.61
49.95
40.90
30.49
21.74
17.24
18.87
26.43
38.35
52.78
68.93
87.54
110.56
140.40
173.61
208.30
242.43
273.19
296.25
305.78
295.92
263.41
210.06
143.36
75.26
17.07
-24.34
-48.28
-58.75
-61.31
-60.18
-57.06
-52.10
-44.87
-36.25
-28.29
-23.03
-20.95
-20.68
-19.96
-16.75
-10.69
-2.89
4.19
7.70
5.71
-2.09
-14.27
-28.53
-42.90
-56.77
-70.83
-86.47
-104.10
-124.12
-145.39
-165.41
-181.62
-192.33
-197.56
-198.87
-198.39
-198.49
-201.19
-207.44
-216.80
-227.15
-234.43
-233.35
-220.63
-192.69
-150.28
-98.67
-45.22
3.46
43.83
76.00
102.37
125.38
144.91
160.24
170.07
174.27
174.55
173.70
173.96
175.77
177.62
177.37
173.19
164.70
153.43
142.10
133.33
128.80
128.91
132.81
138.68
143.53
143.41
134.47
114.42
84.08
47.73
11.90
-17.01
-35.24
-42.85
-42.93
-39.50
-35.32
-31.13
-26.38
-20.62
-14.53
-9.91
-8.74
-11.97
-19.12
-28.53
-38.28
-47.07
-54.67
-61.72
-69.06
-77.11
-85.21
-91.73
-94.60
-92.22
-84.21
-71.63
-56.69
-42.07
-30.18
-22.00
-17.22
-14.49
-12.23
-9.37
-5.92
-2.89
-1.68
-3.61
-8.69
-15.84
-23.28
-29.45
-33.51
-35.77
-37.51
-40.32
-46.01
-55.40
-68.86
-86.11
-105.66
-124.29
-137.11
-139.27
-125.57
-98.38
-63.94
-30.57
-5.41
8.23
11.61
9.31
6.02
4.33
4.20
5.09
6.76
9.95
15.92
25.55
38.90
54.29
69.38
81.60
89.80
94.09
95.47
95.25
94.25
93.17
91.42
88.24
82.74
74.85
65.10
54.38
43.62
29.51
12.51
-6.55
-26.47
-46.58
-66.22
-84.66
-101.05
-114.48
-124.13
-128.80
-128.52
-122.98
-112.39
-97.18
-77.95
-55.17
-29.12
0.14
33.03
65.49
94.91
119.21
136.93
147.41
150.88
148.63
142.67
135.51
128.89
124.05
120.83
118.06
114.58
109.66
103.55
97.21
91.86
88.37
87.69
90.34
96.16
103.77
109.99
110.19
99.85
76.88
43.33
5.50
-28.58
-52.47
-63.59
-63.72
-57.28
-48.69
-40.47
-33.00
-25.65
-18.37
-12.41
-9.45
-10.65
-15.84
-23.65
-32.34
-40.46
-47.62
-53.68
-59.79
-66.59
-73.87
-80.65
-85.60
-87.78
-87.07
-84.34
-80.96
-78.32
-77.02
-76.80
-76.81
-76.11
-74.36
-72.01
-70.15
-69.84
-71.63
-75.14
-79.20
-82.63
-84.54
-84.94
-84.66
-84.86
-87.04
-91.80
-99.66
-110.50
-122.96
-133.94
-139.08
-134.23
-117.59
-90.96
-59.66
-30.57
-9.09
2.93
7.55
9.18
11.90
17.82
26.80
37.59
49.04
60.96
73.68
86.74
99.51
110.47
117.97
120.85
119.21
114.22
107.67
101.21
96.27
92.69
89.75
86.51
82.32
77.12
71.39
65.92
61.33
57.98
55.71
54.05
52.37
50.20
47.31
43.68
39.75
35.31
30.31
24.73
18.70
12.37
6.06
-0.01
-5.70
-11.01
-15.98
-20.56
-24.50
-27.23
-28.21
-27.12
-24.13
-19.99
-15.79
-12.46
-10.53
-9.75
-9.16
-7.53
-3.97
1.58
8.35
14.99
20.62
24.69
27.66
30.71
35.07
41.65
50.97
63.24
76.94
91.31
103.41
108.72
102.78
83.51
52.99
17.31
-15.58
-39.13
-50.49
-51.33
-45.92
-38.61
-31.92
-26.26
-20.96
-15.68
-10.99
-7.84
-7.05
-8.20
-10.19
-11.92
-12.87
-13.35
-14.29
-16.73
-21.10
-27.24
-34.44
-41.92
-48.51
-54.62
-60.74
-67.12
-73.61
-79.49
-83.99
-86.41
-86.71
-85.43
-83.61
-82.31
-82.57
-85.34
-90.95
-98.28
-104.27
-104.47
-94.60
-72.94
-41.60
-6.33
25.59
48.41
60.10
62.52
59.72
55.55
51.88
48.64
44.97
40.49
35.95
32.65
31.48
32.24
33.68
34.29
32.88
29.42
24.80
20.44
17.54
16.58
17.14
18.17
18.48
17.37
14.89
11.73
8.89
7.14
6.70
7.18
7.82
7.87
6.95
5.25
3.37
1.97
1.47
1.81
2.55
3.06
2.90
1.99
0.70
-0.40
-0.82
-0.42
0.55
1.50
1.92
1.57
0.57
-0.64
-1.65
-2.08
-1.59
0.26
4.02
9.92
17.26
24.06
27.60
25.78
18.30
7.18
-4.14
-12.48
-16.45
-16.79
-15.42
-13.87
-12.46
-10.49
-7.39
-3.64
-0.82
-0.53
-3.10
-7.10
-10.05
-9.92
-6.30
-0.65
4.68
7.74
7.95
6.24
4.23
3.25
3.64
4.70
5.36
4.84
3.13
0.94
-0.83
-1.49
-0.84
0.94
3.62
6.91
10.47
13.76
16.04
16.70
15.63
13.47
11.47
10.85
12.14
14.86
17.68
19.09
18.14
14.79
9.84
4.39
-0.62
-4.70
-7.91
-10.69
-13.71
-17.71
-22.93
-29.33
-36.27
-42.55
-46.91
-48.56
-47.62
-45.03
-42.03
-39.48
-37.52
-35.58
-32.88
-29.07
-24.46
-19.80
-15.68
-12.05
-8.07
-2.52
5.49
15.80
27.06
37.12
43.96
46.65
45.83
43.58
42.45
44.42
50.08
58.48
67.73
75.91
81.79
85.07
86.08
85.38
83.38
80.38
76.82
73.40
70.85
69.33
67.89
64.57
57.25
44.92
28.57
10.98
-4.44
-15.12
-20.36
-21.18
-19.30
-15.96
-11.23
-4.24
6.10
20.35
38.18
58.31
78.62
96.48
109.60
116.86
119.04
118.54
118.05
118.84
119.66
117.16
107.77
89.86
64.87
36.61
9.08
-15.65
-38.44
-62.15
-89.92
-123.58
-163.27
-208.16
-256.78
-306.61
-353.38
-391.15
-413.87
-417.95
-404.17
-377.57
-345.00
-311.65
-278.76
-244.04
-204.25
-158.26
-108.44
-59.57
-15.99
20.82
52.95
84.74
120.54
162.78
211.14
262.52
311.69
352.49
379.17
387.90
377.52
349.75
308.45
258.57
205.03
152.17
103.47
61.28
26.68
-0.61
-21.96
-39.03
-52.87
-63.44
-69.75
-70.62
-65.57
-55.30
-41.57
-26.71
-12.92
-1.88
5.39
8.54
7.77
3.74
-2.44
-9.28
-15.27
-19.20
-20.52
-19.49
-17.07
-14.48
-12.69
-12.05
-12.26
-12.68
-12.74
-12.19
-11.03
-9.25
-6.63
-3.06
0.77
2.99
0.81
-8.19
-24.67
-46.83
-70.92
-92.99
-110.63
-123.69
-133.47
-141.06
-145.88
-145.93
-139.14
-125.26
-106.72
-87.70
-72.05
-61.36
-54.34
-47.93
-39.17
-26.83
-11.79
3.65
17.18
27.56
34.86
40.08
44.46
48.86
53.58
58.33
62.50
65.38
66.43
65.45
62.82
59.34
56.03
53.76
53.02
53.82
55.84
58.68
61.92
65.02
67.06
66.73
62.61
53.83
40.49
23.84
5.79
-11.83
-27.94
-42.42
-55.70
-68.00
-78.82
-86.92
-90.78
-89.44
-82.99
-72.70
-60.60
-48.68
-38.35
-30.13
-23.72
-18.32
-13.13
-7.61
-1.61
4.65
10.82
16.43
21.03
24.24
25.90
26.18
25.60
24.96
25.05
26.13
27.75
28.62
27.05
21.67
12.11
-0.56
-14.15
-26.14
-34.71
-39.45
-41.47
-43.02
-46.77
-55.13
-69.51
-89.65
-113.30
-136.42
-154.26
-162.86
-160.51
-148.25
-129.36
-107.71
-86.20
-65.93
-46.50
-27.08
-7.50
11.46
28.48
42.48
53.24
61.44
68.21
74.59
81.16
88.00
94.89
101.76
108.86
116.64
125.42
135.02
144.86
154.50
164.45
176.43
192.78
214.89
241.43
267.77
287.03
292.75
281.61
254.98
218.04
177.28
137.59
100.62
65.12
28.88
-9.44
-49.62
-90.26
-130.06
-168.29
-204.07
-235.28
-257.93
-267.18
-259.44
-234.19
-194.07
-143.41
-86.09
-24.69
38.40
98.96
149.84
182.36
189.68
170.44
129.91
77.88
24.35
-24.77
-69.49
-114.47
-165.34
-224.68
-289.69
-352.44
-402.37
-429.97
-430.14
-403.58
-356.33
-297.69
-237.25
-183.04
-140.65
-113.39
-102.62
-107.78
-126.12
-152.87
-182.02
-207.56
-224.82
-231.08
-225.50
-208.73
-182.79
-150.69
-116.02
-82.29
-51.83
-25.29
-1.63
21.21
45.34
72.09
101.50
132.37
162.64
189.87
211.80
226.89
234.59
235.18
229.46
218.48
203.48
186.05
168.22
152.10
139.24
130.13
124.06
119.67
115.64
111.23
106.20
100.45
93.67
85.52
76.04
65.94
56.49
49.02
44.29
42.26
42.30
43.64
45.67
47.94
50.10
51.79
52.79
53.19
53.36
53.73
54.45
55.36
56.16
56.73
57.33
58.47
60.38
62.71
64.55
64.78
62.55
57.60
50.30
41.60
32.90
25.83
21.90
21.93
25.59
31.36
37.05
40.66
41.26
39.10
35.29
30.92
26.62
22.37
18.00
13.57
9.54
6.48
4.62
3.60
2.57
0.60
-2.76
-7.11
-11.34
-14.15
-15.00
-14.46
-14.08
-15.50
-19.38
-25.00
-30.74
-35.28
-38.44
-41.10
-44.21
-47.58
-49.59
-48.06
-41.85
-31.96
-21.23
-12.88
-8.77
-8.61
-10.46
-12.18
-12.69
-12.39
-12.43
-13.71
-16.18
-18.93
-20.73
-20.79
-19.09
-16.31
-13.40
-11.11
-9.65
-8.71
-7.67
-6.03
-3.76
-1.39
0.29
0.76
0.13
-0.84
-1.11
0.01
2.46
5.46
8.00
9.47
9.94
10.01
10.47
11.87
14.27
17.35
20.61
23.62
26.06
27.74
28.54
28.53
27.91
27.08
26.47
26.31
26.48
26.56
26.09
24.86
23.07
21.23
19.81
18.91
18.12
16.70
14.02
10.00
5.15
0.24
-4.08
-7.54
-10.26
-12.47
-14.23
-15.48
-16.15
-16.38
-16.56
-17.11
-18.15
-19.34
-20.04
-19.68
-18.19
-16.14
-14.44
-13.85
-14.55
-16.07
-17.50
-18.01
-17.22
-15.36
-13.13
-11.36
-10.64
-11.10
-12.40
-13.89
-14.97
-15.32
-15.05
-14.53
-14.20
-14.27
-14.61
-14.90
-14.75
-13.87
-12.07
-9.15
-4.90
0.78
7.58
14.61
20.54
24.15
25.02
23.90
22.38
22.14
24.00
27.43
30.89
32.74
32.12
29.32
25.37
21.29
17.44
13.51
8.94
3.50
-2.51
-8.39
-13.46
-17.29
-19.72
-20.72
-20.41
-19.12
-17.54
-16.54
-16.74
-18.04
-19.47
-19.59
-17.26
-12.40
-6.06
0.01
4.33
6.35
6.53
5.82
4.98
4.07
2.71
0.71
-1.40
-2.46
-1.44
1.63
5.38
7.89
7.86
5.66
3.15
2.49
4.76
9.27
14.08
17.32
18.30
17.71
16.86
16.46
16.08
14.66
11.49
6.97
2.63
0.17
0.57
3.62
8.27
13.21
17.72
21.90
26.37
31.82
38.63
46.85
56.46
67.24
78.09
87.00
91.57
90.20
83.27
73.37
64.23
59.01
58.86
62.28
66.54
69.53
70.85
71.40
71.80
70.95
65.84
53.03
29.88
-3.70
-45.23
-90.84
-136.75
-180.34
-220.37
-256.63
-284.93
-300.41
-298.94
-279.47
-245.08
-201.69
-155.65
-111.87
-73.11
-40.23
-13.48
7.33
22.56
32.80
38.93
42.07
43.36
43.83
44.36
45.13
45.93
46.34
46.02
44.89
43.20
41.35
39.73
38.73
38.31
38.22
38.10
37.65
36.78
35.61
34.35
33.27
32.59
32.36
32.49
32.83
33.24
33.59
33.83
33.88
33.71
33.27
32.49
31.28
29.48
26.92
23.31
18.34
11.87
3.98
-4.88
-14.01
-22.54
-29.79
-35.49
-39.92
-43.73
-47.65
-52.12
-57.07
-61.96
-65.85
-68.10
-68.77
-68.60
-68.85
-70.79
-75.10
-81.61
-89.30
-96.68
-102.52
-106.40
-108.84
-110.90
-114.07
-119.92
-129.89
-144.69
-162.92
-180.90
-192.89
-192.79
-176.69
-145.15
-103.61
-60.73
-25.08
-1.29
10.60
14.30
14.85
16.15
19.84
26.02
35.03
44.58
55.47
69.37
87.40
109.46
134.59
161.57
189.95
219.75
250.29
279.72
303.93
317.94
318.00
303.72
278.52
248.16
218.04
191.03
167.41
145.62
124.39
104.00
86.38
73.43
65.60
61.41
58.05
53.38
46.59
38.34
30.11
22.88
16.32
9.11
-0.25
-12.21
-25.40
-37.18
-44.56
-45.65
-40.74
-32.31
-24.01
-18.83
-17.83
-19.65
-21.21
-19.56
-13.56
-4.44
4.89
11.48
13.83
12.12
7.66
1.60
-6.15
-16.97
-33.00
-55.79
-85.23
-119.12
-153.35
-183.05
-204.12
-214.56
-214.89
-207.46
-195.23
-180.16
-162.48
-141.12
-115.17
-85.03
-53.04
-22.46
4.02
25.37
42.50
57.18
70.61
82.49
91.10
94.38
91.14
82.05
69.40
56.18
44.65
35.51
27.89
20.38
12.05
3.18
-4.87
-10.61
-13.37
-13.86
-13.75
-14.55
-16.82
-19.85
-22.09
-22.20
-19.99
-16.50
-13.56
-12.71
-14.34
-17.56
-20.65
-21.98
-20.87
-17.91
-14.60
-12.30
-11.48
-11.47
-10.96
-9.08
-6.13
-3.67
-3.53
-6.42
-11.15
-15.07
-15.37
-10.88
-2.96
5.10
9.71
8.98
3.70
-3.14
-7.86
-8.03
-3.60
3.19
9.17
11.95
11.03
7.87
4.88
4.00
5.64
8.58
10.80
10.83
8.63
5.76
4.50
6.46
11.51
17.71
22.34
23.44
20.94
16.64
13.26
12.67
14.81
17.61
18.30
15.10
8.35
0.52
-5.26
-6.87
-4.32
0.26
3.89
4.35
1.20
-4.15
-9.17
-11.75
-11.25
-8.71
-6.12
-5.18
-6.23
-8.10
-8.73
-6.61
-1.86
3.59
7.00
6.35
1.46
-5.87
-12.94
-17.77
-20.27
-22.15
-25.54
-31.40
-38.60
-44.22
-45.11
-39.73
-29.19
-16.80
-6.41
-0.39
1.32
0.89
1.14
3.58
7.69
11.29
12.10
9.26
3.80
-1.92
-5.58
-6.30
-4.99
-3.68
-4.20
-7.02
-10.99
-13.93
-13.96
-10.74
-5.68
-1.32
0.08
-2.15
-6.82
-11.35
-13.18
-11.15
-6.02
0.04
4.78
7.02
7.12
6.64
7.30
9.87
13.87
17.91
20.66
21.66
21.47
21.37
22.57
25.26
28.68
31.48
32.68
32.30
31.39
31.53
33.84
38.14
42.85
45.70
44.96
40.38
33.35
26.42
21.95
20.97
22.77
25.29
26.25
24.29
19.33
12.55
5.61
-0.20
-4.32
-6.83
-8.04
-8.06
-6.70
-3.89
-0.20
2.64
1.89
-5.28
-20.60
-43.59
-71.35
-99.21
-122.32
-137.23
-142.70
-139.69
-130.39
-116.92
-100.68
-82.14
-61.43
-39.16
-16.69
4.10
21.45
34.50
43.52
49.76
54.68
59.15
63.11
65.78
66.37
64.74
61.66
58.45
56.20
55.06
54.07
51.64
46.47
38.08
27.16
15.26
4.16
-4.97
-11.74
-16.53
-20.01
-22.62
-24.34
-24.62
-22.92
-19.27
-14.64
-10.69
-9.14
-10.88
-15.43
-21.18
-26.16
-29.10
-29.99
-29.94
-30.23
-31.58
-33.87
-36.47
-38.97
-41.65
-45.45
-51.22
-58.96
-67.48
-74.59
-78.05
-76.68
-71.23
-64.30
-59.66
-60.58
-68.38
-81.55
-96.05
-106.82
-110.02
-104.96
-94.86
-85.77
-84.10
-93.62
-113.42
-137.55
-156.76
-161.37
-144.47
-104.01
-43.67
27.73
98.10
154.68
187.22
190.71
167.03
124.47
75.06
30.57
-1.03
-17.49
-21.40
-17.45
-9.83
-0.09
13.01
32.41
60.96
99.26
143.79
186.34
215.68
221.57
199.62
154.49
99.38
51.12
23.51
21.82
42.16
74.77
109.88
141.84
169.91
196.12
222.45
249.58
277.06
304.27
330.27
352.92
368.21
370.70
355.82
322.24
272.79
213.39
150.43
88.42
29.08
-27.89
-83.48
-138.05
-190.94
-240.44
-284.24
-320.06
-346.52
-364.00
-374.81
-382.53
-390.02
-398.17
-405.44
-409.00
-406.79
-398.99
-387.84
-375.95
-364.22
-350.90
-332.47
-305.91
-270.83
-230.26
-189.61
-154.50
-128.30
-110.91
-98.90
-87.24
-71.43
-49.44
-22.30
6.60
33.31
55.24
71.97
85.45
98.84
115.45
137.64
166.29
200.51
237.46
272.43
299.39
312.51
307.81
285.17
248.85
206.67
167.60
138.84
123.65
120.69
125.03
130.18
130.44
122.65
106.76
85.38
62.49
41.80
25.59
14.47
7.83
4.95
5.77
10.85
20.46
33.41
46.64
55.97
57.81
51.10
38.15
23.98
14.51
14.41
25.43
45.97
71.56
96.25
114.23
121.23
115.53
98.29
73.05
44.62
17.82
-3.60
-17.46
-23.11
-21.25
-13.72
-3.21
7.12
14.52
17.62
16.83
13.55
8.72
1.42
-10.89
-30.43
-56.54
-84.23
-105.38
-112.22
-101.19
-75.01
-41.59
-10.62
10.37
18.34
14.67
3.28
-11.59
-26.69
-40.02
-50.43
-57.00
-58.97
-55.88
-48.18
-37.69
-27.92
-23.36
-27.67
-41.71
-62.18
-82.30
-94.55
-94.13
-81.41
-61.72
-42.47
-29.36
-23.64
-22.06
-19.17
-10.45
5.50
26.78
49.62
70.37
86.57
96.85
100.20
95.82
83.96
67.39
51.77
44.31
50.32
70.01
97.08
120.73
130.25
120.03
92.09
54.97
19.38
-6.64
-20.55
-24.94
-24.64
-23.35
-21.89
-18.71
-11.89
-1.26
10.75
19.95
22.51
16.86
4.47
-11.01
-25.64
-36.88
-44.08
-47.77
-48.35
-45.30
-37.55
-24.55
-7.40
10.85
26.36
35.96
38.49
35.09
28.35
21.03
14.86
10.24
6.70
3.67
1.09
-0.55
-0.64
0.84
2.87
3.40
-0.01
-9.23
-24.68
-44.86
-66.69
-86.17
-99.58
-104.62
-100.89
-90.00
-74.82
-58.43
-43.32
-31.06
-22.38
-17.51
-16.28
-17.87
-20.73
-22.63
-21.55
-16.45
-8.10
1.20
8.62
12.09
11.20
7.12
1.85
-2.85
-6.16
-8.20
-9.42
-10.17
-10.55
-10.53
-10.37
-10.53
-11.48
-13.29
-15.29
-16.26
-14.90
-10.48
-3.05
6.61
17.46
28.50
38.85
47.69
53.97
56.59
54.78
48.69
39.64
30.06
22.83
20.30
23.33
30.84
40.03
47.48
50.54
48.32
42.11
34.48
28.01
24.05
22.23
21.01
18.79
14.87
9.85
5.19
2.20
1.27
1.53
1.34
-0.86
-5.63
-12.17
-18.61
-22.92
-23.85
-21.57
-17.46
-13.37
-10.73
-9.88
-10.32
-11.14
-11.50
-10.94
-9.19
-6.16
-2.04
2.48
6.04
7.00
4.09
-2.70
-11.93
-21.04
-27.43
-29.60
-27.56
-22.62
-16.64
-11.26
-7.30
-4.87
-3.55
-2.72
-1.86
-0.73
0.67
2.16
3.45
4.16
3.80
2.03
-1.39
-6.28
-12.06
-17.92
-22.98
-26.66
-28.83
-29.67
-29.51
-28.65
-27.27
-25.63
-24.19
-23.53
-23.98
-25.27
-26.41
-26.10
-23.42
-18.57
-12.82
-8.06
-5.68
-5.90
-7.68
-9.34
-9.57
-8.21
-6.18
-4.99
-5.81
-8.97
-14.07
-20.30
-26.90
-33.28
-38.88
-43.03
-44.93
-43.96
-40.01
-33.72
-26.34
-19.29
-13.64
-9.88
-7.90
-7.20
-7.21
-7.52
-7.79
-7.68
-6.69
-4.39
-0.58
4.52
10.22
15.67
20.37
24.37
28.44
33.25
38.91
44.59
48.79
50.03
47.62
42.08
34.93
28.03
22.90
20.13
19.38
19.67
19.94
19.54
18.55
17.57
17.38
18.36
20.16
21.72
21.76
19.43
14.87
9.06
3.49
-0.56
-2.43
-2.18
-0.38
2.13
4.59
6.40
7.22
7.02
6.00
4.41
2.44
0.04
-2.84
-6.30
-10.24
-14.29
-18.09
-21.32
-23.87
-25.63
-26.49
-26.26
-24.83
-22.38
-19.35
-16.42
-14.11
-12.53
-11.37
-10.23
-8.97
-7.91
-7.87
-9.52
-13.08
-18.07
-23.50
-28.39
-32.01
-34.03
-34.33
-32.91
-29.80
-25.27
-20.03
-15.37
-12.68
-12.82
-15.64
-19.84
-23.70
-25.79
-25.93
-25.30
-25.70
-28.72
-34.98
-43.99
-54.49
-65.07
-74.47
-82.05
-87.46
-90.61
-91.49
-89.83
-84.96
-75.64
-60.34
-37.90
-8.20
27.28
65.07
100.25
127.35
141.98
142.29
129.96
109.99
89.02
72.79
63.88
61.06
60.61
58.84
53.99
46.96
39.75
33.42
26.87
17.51
3.40
-14.70
-33.02
-46.48
-51.40
-47.64
-38.60
-29.19
-23.06
-20.82
-20.28
-18.19
-12.53
-3.80
5.53
12.66
16.26
17.23
17.79
20.15
25.25
32.29
39.40
44.64
46.91
46.44
44.50
43.08
44.01
48.14
54.99
62.85
69.53
73.31
73.66
71.30
67.60
63.76
60.06
56.03
50.95
44.55
37.16
29.59
22.52
16.17
10.33
4.68
-0.65
-5.04
-7.92
-9.34
-10.20
-12.08
-16.32
-23.03
-30.71
-36.68
-38.50
-35.28
-28.32
-20.49
-14.76
-12.64
-13.52
-15.28
-15.77
-13.92
-10.09
-5.43
-0.93
3.00
6.46
9.28
10.66
9.36
4.70
-2.85
-11.36
-18.23
-21.26
-19.66
-14.25
-7.10
-0.71
2.83
2.54
-1.03
-5.89
-9.33
-9.11
-4.57
2.63
8.95
10.62
5.44
-5.88
-19.73
-31.05
-35.51
-31.25
-19.56
-4.20
10.25
19.97
22.84
18.58
8.16
-6.54
-23.21
-39.11
-51.29
-57.20
-55.66
-47.64
-36.13
-25.23
-18.41
-17.07
-19.84
-23.39
-24.14
-19.91
-10.85
0.78
11.70
19.01
21.14
18.17
11.39
2.66
-6.24
-13.99
-19.82
-23.52
-25.14
-25.06
-23.84
-22.34
-21.40
-21.54
-22.73
-24.14
-24.48
-22.59
-18.12
-11.87
-5.55
-1.09
0.30
-1.44
-5.04
-8.57
-10.40
-9.85
-7.36
-4.17
-1.68
-0.76
-1.49
-3.00
-3.94
-2.83
1.26
8.27
17.04
25.66
32.27
35.92
37.15
37.59
39.35
43.78
50.87
59.15
66.49
71.05
72.01
69.80
65.50
60.25
54.60
48.55
41.85
34.61
27.37
20.88
15.65
11.47
7.50
2.89
-2.53
-7.94
-12.04
-13.89
-13.71
-12.85
-13.00
-15.13
-18.84
-22.57
-24.50
-23.57
-19.95
-14.95
-10.32
-7.56
-7.43
-9.68
-13.20
-16.29
-17.31
-15.27
-10.36
-3.88
2.30
6.66
8.66
8.82
8.25
7.88
7.90
7.80
6.81
4.48
1.11
-2.22
-4.13
-3.57
-0.46
3.96
7.69
8.65
5.35
-2.72
-15.26
-31.62
-50.92
-71.70
-91.39
-106.19
-111.80
-105.18
-86.39
-59.43
-31.37
-9.70
0.59
-1.21
-11.69
-25.21
-36.53
-42.54
-42.66
-37.88
-29.36
-17.51
-2.22
16.36
36.96
56.81
72.40
80.58
79.99
71.76
59.33
47.18
39.09
36.56
38.25
40.97
41.56
38.59
33.13
27.75
24.82
24.96
26.70
27.61
25.94
21.69
16.47
12.28
10.19
9.60
8.78
6.04
0.92
-5.44
-10.94
-13.57
-12.44
-8.17
-2.52
2.43
5.21
5.32
3.26
0.11
-3.14
-6.05
-8.65
-11.38
-14.69
-18.76
-23.33
-27.80
-31.49
-33.84
-34.73
-34.28
-32.59
-29.54
-24.81
-18.18
-10.01
-1.58
5.29
8.99
9.01
6.19
2.44
-0.28
-0.87
0.51
2.70
4.56
5.49
5.62
5.48
5.44
5.40
4.66
2.48
-1.48
-6.77
-12.14
-15.93
-16.71
-14.04
-8.81
-3.13
0.62
0.76
-2.78
-8.47
-14.03
-17.55
-18.42
-17.40
-15.88
-14.96
-14.84
-14.95
-14.56
-13.45
-11.94
-10.71
-10.14
-10.15
-10.28
-10.10
-9.56
-8.98
-8.73
-8.79
-8.59
-7.23
-4.02
1.05
7.04
12.26
14.87
13.59
8.41
0.85
-6.32
-10.02
-8.11
-0.56
10.45
21.33
28.78
31.21
29.50
26.31
24.69
26.47
31.51
38.08
44.03
47.95
49.65
49.78
48.93
47.05
43.41
37.45
29.65
21.76
16.24
14.86
17.69
22.58
26.22
25.78
20.50
12.01
3.40
-2.54
-4.57
-3.45
-1.10
0.78
1.50
1.47
1.59
2.43
4.00
5.66
6.68
6.47
4.90
2.22
-0.90
-3.62
-5.30
-5.75
-5.52
-5.60
-6.89
-9.73
-13.53
-17.25
-19.91
-21.17
-21.38
-21.23
-20.98
-20.42
-18.89
-15.82
-11.28
-6.05
-1.47
1.16
1.01
-1.89
-6.57
-11.45
-14.86
-15.72
-13.99
-10.50
-6.46
-2.68
0.83
4.70
9.50
14.94
19.78
22.39
21.80
18.49
14.23
11.08
10.21
11.13
12.02
10.82
6.56
-0.18
-7.58
-13.58
-17.17
-18.60
-19.16
-20.10
-21.78
-23.45
-23.66
-21.28
-16.16
-9.36
-2.73
2.16
4.61
5.11
4.86
5.04
6.08
7.60
8.72
8.81
7.79
6.16
4.56
3.14
1.44
-1.27
-5.45
-10.74
-15.93
-19.66
-21.00
-19.99
-17.64
-15.28
-13.88
-13.69
-14.22
-14.81
-15.00
-14.87
-14.87
-15.51
-17.01
-19.09
-21.26
-22.95
-23.88
-24.20
-24.38
-24.93
-26.17
-27.89
-29.67
-31.03
-31.64
-31.51
-30.91
-30.13
-29.27
-28.27
-26.74
-24.31
-20.68
-15.85
-10.29
-4.93
-0.93
0.79
-0.10
-3.05
-6.73
-9.69
-10.81
-9.80
-7.22
-4.18
-1.73
-0.46
-0.15
0.13
1.46
4.61
9.40
14.81
19.36
21.86
21.91
19.88
16.48
12.28
7.59
2.62
-2.11
-5.61
-6.83
-5.36
-1.83
2.15
4.79
5.17
3.60
1.47
0.50
1.59
4.47
7.77
9.93
10.07
8.52
6.63
6.06
7.74
11.36
15.58
18.73
19.71
18.43
15.66
12.45
9.44
6.68
3.88
0.83
-2.18
-4.54
-5.61
-5.26
-4.05
-3.05
-3.35
-5.53
-9.31
-13.66
-17.33
-19.37
-19.65
-18.75
-17.53
-16.70
-16.31
-15.99
-15.24
-13.97
-12.67
-12.17
-13.17
-15.60
-18.69
-21.11
-21.67
-19.78
-16.18
-12.52
-10.40
-10.31
-10.71
-8.24
0.79
18.43
43.76
73.06
101.40
124.58
140.20
147.55
146.69
137.65
120.55
96.49
68.24
40.08
16.47
0.41
-7.59
-9.34
-7.87
-5.99
-5.42
-6.46
-8.34
-9.91
-10.23
-8.97
-6.85
-5.17
-5.10
-7.02
-10.34
-13.73
-15.97
-16.54
-15.88
-14.97
-14.71
-15.46
-16.95
-18.64
-19.96
-20.61
-20.58
-20.05
-19.24
-18.15
-16.72
-14.75
-12.17
-9.30
-6.81
-5.59
-6.13
-8.22
-10.78
-12.37
-11.76
-8.80
-4.60
-1.10
-0.20
-2.71
-8.01
-14.23
-19.21
-21.41
-20.56
-17.67
-14.34
-12.02
-11.29
-11.83
-12.68
-12.90
-12.05
-10.32
-8.32
-6.65
-5.62
-5.04
-4.46
-3.46
-1.92
-0.22
1.07
1.49
0.97
-0.04
-0.84
-0.96
-0.34
0.57
1.12
0.97
0.25
-0.50
-0.64
0.10
1.45
2.79
3.47
3.30
2.62
2.15
2.61
4.25
6.72
9.21
10.89
11.26
10.45
9.16
8.31
8.52
9.79
11.51
12.84
13.30
13.06
12.82
13.37
14.90
16.70
17.46
16.07
12.33
7.24
2.54
-0.16
-0.33
1.21
2.77
2.81
0.64
-3.25
-7.55
-10.80
-12.04
-11.18
-8.97
-6.63
-5.42
-6.21
-9.12
-13.37
-17.68
-20.69
-21.53
-20.19
-17.36
-14.00
-10.83
-8.20
-6.18
-4.95
-4.80
-5.83
-7.50
-8.57
-7.43
-3.12
3.86
11.51
17.35
19.99
20.28
21.07
25.59
35.12
47.66
58.46
62.32
56.54
42.52
25.08
10.17
1.86
0.67
3.90
7.62
9.05
7.74
5.31
3.97
4.99
7.98
11.19
12.64
11.34
7.74
3.46
0.36
-0.53
0.40
1.64
1.49
-0.83
-4.74
-8.58
-10.64
-10.11
-7.59
-4.64
-2.98
-3.56
-6.10
-9.35
-11.71
-12.03
-10.14
-6.79
-3.41
-1.35
-1.31
-3.07
-5.62
-7.69
-8.45
-7.83
-6.53
-5.47
-5.18
-5.55
-5.95
-5.75
-4.91
-4.13
-4.50
-6.86
-11.15
-16.18
-20.05
-21.02
-18.38
-12.95
-6.69
-1.82
0.24
-0.45
-2.56
-4.28
-4.50
-3.24
-1.61
-0.95
-1.83
-3.63
-4.97
-4.68
-2.70
-0.29
0.74
-0.79
-4.64
-9.17
-12.25
-12.61
-10.48
-7.44
-5.42
-5.50
-7.37
-9.58
-10.56
-9.65
-7.39
-5.20
-4.41
-5.57
-8.26
-11.45
-13.97
-14.98
-14.29
-12.03
-8.60
-4.55
-0.48
3.01
5.39
6.44
6.30
5.38
4.18
3.20
2.73
2.98
4.11
5.96
8.15
9.98
10.70
9.88
7.60
4.62
1.96
0.47
0.39
1.12
1.67
1.22
-0.33
-2.23
-3.21
-2.28
0.66
4.65
8.20
10.09
9.92
8.28
6.21
4.50
3.33
2.33
1.02
-0.61
-2.05
-2.51
-1.45
0.98
3.95
6.39
7.51
7.18
5.79
3.98
2.18
0.50
-1.14
-2.82
-4.40
-5.49
-5.65
-4.62
-2.54
0.05
2.28
3.31
2.67
0.51
-2.42
-5.00
-6.32
-6.10
-4.89
-3.76
-3.53
-4.25
-5.11
-4.90
-2.92
0.42
3.58
4.68
2.64
-2.03
-7.35
-10.76
-10.54
-6.76
-1.24
3.48
5.49
4.51
1.92
-0.28
-0.75
0.40
1.74
1.56
-0.81
-4.50
-7.65
-8.52
-6.63
-3.09
0.16
1.42
0.34
-2.11
-4.23
-4.67
-3.27
-1.00
0.63
0.52
-1.32
-3.83
-5.51
-5.17
-2.55
1.60
5.85
8.82
9.67
8.40
5.73
2.66
-0.01
-1.89
-3.10
-4.01
-4.88
-5.78
-6.39
-6.18
-4.80
-2.37
0.36
2.31
2.66
1.34
-0.85
-2.65
-3.12
-2.19
-0.65
0.36
0.17
-0.92
-1.73
-0.88
2.26
7.03
11.65
14.16
13.40
9.71
4.72
0.66
-0.91
0.24
2.96
5.49
6.45
5.37
2.77
-0.44
-3.57
-6.31
-8.61
-10.23
-10.64
-9.31
-6.15
-1.76
2.62
5.66
6.45
5.00
2.20
-0.53
-1.93
-1.45
0.56
2.97
4.48
4.28
2.42
-0.18
-2.30
-3.03
-2.39
-1.14
-0.36
-0.69
-1.87
-2.93
-2.73
-0.69
2.78
6.45
8.83
8.92
6.80
3.39
0.07
-2.10
-2.89
-2.84
-2.84
-3.49
-4.74
-6.03
-6.64
-6.18
-4.80
-3.09
-1.80
-1.36
-1.64
-2.09
-1.94
-0.67
1.74
4.77
7.60
9.52
10.16
9.69
8.50
7.12
5.93
5.09
4.64
4.62
5.08
6.04
7.43
8.93
10.00
10.07
8.66
5.82
2.23
-1.02
-2.68
-2.10
0.41
3.55
5.44
4.57
0.61
-5.39
-11.33
-15.17
-15.81
-13.55
-9.72
-5.84
-2.80
-0.58
1.40
3.49
5.47
6.42
5.39
2.08
-2.73
-7.45
-10.37
-10.63
-8.63
-5.77
-3.80
-3.81
-5.78
-8.64
-10.88
-11.53
-10.73
-9.83
-10.82
-15.25
-23.36
-33.78
-44.00
-51.59
-55.44
-56.34
-56.79
-59.70
-66.97
-78.38
-91.87
-104.51
-114.00
-119.69
-122.43
-123.64
-124.41
-125.03
-125.39
-125.36
-124.66
-121.79
-113.31
-94.35
-61.03
-13.78
40.52
89.23
118.35
118.32
88.87
39.89
-12.14
-50.45
-64.09
-51.07
-17.67
25.35
67.13
100.15
121.39
131.77
134.37
132.81
130.13
128.04
127.05
126.85
126.51
125.10
121.80
116.05
107.31
95.26
79.81
61.45
41.44
21.70
4.42
-8.93
-17.68
-22.58
-25.31
-27.87
-32.02
-38.63
-47.50
-57.38
-66.85
-74.93
-82.08
-89.48
-97.80
-105.83
-110.15
-106.69
-93.19
-71.37
-46.46
-24.76
-10.15
-1.91
4.32
13.35
26.87
42.25
54.13
58.03
53.34
43.87
35.62
33.04
36.95
44.17
49.63
49.28
42.10
30.44
18.76
11.68
11.73
18.85
30.41
42.80
52.99
59.54
62.52
62.86
61.47
58.59
54.19
48.24
41.18
33.94
27.55
22.62
19.29
17.49
17.27
19.01
22.79
28.10
33.49
37.20
38.24
37.49
37.90
43.41
57.04
78.64
104.30
127.57
142.11
144.84
137.00
123.07
108.19
95.68
86.10
78.36
71.41
65.37
61.57
61.01
63.36
66.89
69.44
69.66
67.82
65.02
62.22
59.71
57.14
54.42
51.99
50.64
50.40
50.17
47.59
40.08
25.99
5.15
-21.22
-51.32
-83.44
-116.10
-147.50
-175.45
-197.11
-209.93
-212.58
-205.48
-190.61
-170.86
-148.88
-126.80
-106.24
-88.44
-74.57
-65.70
-62.27
-63.60
-67.79
-71.85
-72.63
-67.78
-56.74
-41.00
-23.65
-7.96
3.79
11.07
14.83
16.60
17.35
17.13
15.36
11.71
6.62
1.25
-3.04
-5.33
-5.50
-4.05
-1.68
1.09
3.93
6.56
8.51
9.23
8.26
5.57
1.54
-3.07
-7.40
-10.69
-12.48
-12.69
-11.68
-10.21
-9.24
-9.29
-10.34
-11.54
-11.70
-9.83
-5.69
0.00
5.71
9.95
11.73
10.95
8.19
4.36
0.39
-2.83
-4.57
-4.48
-3.08
-2.26
-4.91
-13.87
-30.16
-51.63
-73.01
-87.31
-88.42
-73.31
-42.60
0.64
52.78
111.00
172.68
233.95
288.41
327.79
344.46
334.85
301.38
251.69
195.37
140.16
89.71
43.83
0.86
-39.81
-76.44
-105.74
-124.71
-132.29
-129.89
-120.62
-107.97
-94.87
-83.38
-74.85
-70.38
-70.64
-75.55
-83.89
-93.56
-102.24
-108.34
-111.62
-113.13
-114.34
-116.36
-119.37
-123.15
-127.70
-133.58
-141.58
-151.62
-161.92
-169.04
-169.14
-159.86
-142.02
-119.72
-99.02
-85.70
-83.23
-91.98
-109.63
-132.62
-157.58
-182.12
-204.83
-224.90
-241.57
-253.86
-260.71
-261.25
-255.10
-242.40
-223.81
-200.26
-172.79
-142.51
-110.32
-76.78
-42.01
-5.66
32.98
74.56
118.92
164.58
208.52
246.89
276.12
294.09
300.82
298.69
291.71
284.30
280.22
281.13
285.93
290.78
290.29
279.81
257.62
226.13
191.04
159.02
134.80
119.40
110.30
103.44
95.77
86.55
77.04
68.95
62.96
58.01
51.87
42.52
29.08
12.37
-5.57
-22.34
-35.98
-45.36
-50.44
-51.87
-50.52
-47.15
-42.22
-36.20
-29.80
-24.05
-20.15
-18.86
-19.90
-21.93
-23.13
-22.19
-18.97
-14.58
-10.73
-8.67
-8.77
-10.37
-12.46
-14.38
-15.88
-16.89
-17.03
-15.65
-12.17
-6.72
-0.38
4.82
6.84
4.43
-2.06
-10.59
-18.19
-22.13
-20.90
-14.96
-6.55
1.39
6.36
7.33
5.06
1.47
-1.30
-1.88
-0.08
3.38
7.42
11.26
14.35
16.45
17.28
16.54
13.96
9.75
4.78
0.34
-2.18
-2.16
0.11
3.35
5.87
6.35
4.30
0.29
-4.41
-8.35
-10.43
-10.26
-8.37
-6.01
-4.50
-4.76
-6.61
-8.97
-10.25
-9.28
-5.96
-1.34
2.76
4.86
4.26
1.46
-2.43
-6.20
-9.05
-10.46
-10.18
-8.37
-5.55
-2.77
-1.12
-1.21
-2.90
-5.13
-6.64
-6.53
-4.97
-2.90
-1.62
-2.07
-4.22
-7.16
-9.66
-10.88
-10.65
-9.33
-7.45
-5.45
-3.40
-1.27
0.88
2.69
3.41
2.58
0.36
-2.39
-4.37
-4.62
-3.17
-1.03
0.33
-0.17
-2.51
-5.80
-8.84
-10.92
-12.07
-12.81
-13.51
-13.90
-13.04
-10.12
-5.12
1.07
6.94
11.26
13.62
14.47
14.70
14.83
14.90
14.46
13.29
11.75
10.51
10.26
11.11
12.32
12.76
11.58
8.69
4.85
1.25
-1.13
-1.90
-1.65
-1.28
-1.64
-3.03
-4.99
-6.62
-6.97
-5.59
-2.86
0.06
1.85
1.50
-1.04
-4.84
-8.43
-10.57
-11.04
-10.45
-9.89
-9.98
-10.40
-10.26
-8.60
-5.30
-1.24
1.83
2.51
0.36
-3.81
-8.33
-11.53
-12.33
-10.89
-8.19
-5.50
-3.90
-3.62
-4.08
-4.16
-2.91
-0.20
2.97
5.06
4.87
2.31
-1.44
-4.44
-5.14
-3.50
-0.82
0.96
0.59
-1.61
-3.99
-4.61
-2.64
1.19
4.87
6.47
5.37
2.54
-0.14
-1.02
0.21
2.28
3.31
2.08
-1.21
-4.90
-7.04
-6.40
-3.13
1.43
5.53
8.04
8.89
8.68
8.04
6.94
4.95
1.53
-3.02
-7.47
-10.03
-9.37
-5.54
-0.01
4.64
6.05
3.19
-3.20
-10.78
-16.67
-18.82
-16.73
-11.35
-4.59
1.77
6.69
9.95
11.80
12.39
11.67
9.41
5.71
1.20
-3.00
-5.68
-6.26
-4.95
-2.69
-0.51
0.94
1.72
2.41
3.60
5.61
8.09
10.58
12.39
13.15
12.59
10.59
7.30
3.18
-0.81
-3.52
-4.10
-2.61
-0.14
1.79
2.10
0.83
-0.95
-1.81
-1.19
0.25
0.99
-0.35
-3.82
-8.21
-11.50
-12.27
-10.30
-6.70
-3.05
-0.39
1.16
2.20
3.29
4.46
5.05
4.44
2.63
0.56
-0.24
1.33
5.29
10.25
13.94
14.27
10.43
3.34
-4.87
-11.70
-15.44
-15.53
-12.69
-8.18
-3.40
0.75
3.83
5.79
6.85
7.20
7.00
6.15
4.58
2.30
-0.26
-2.32
-3.00
-1.81
0.84
3.48
4.17
1.62
-3.99
-10.82
-16.13
-17.80
-15.45
-10.65
-5.86
-2.89
-1.86
-1.12
1.47
7.08
14.83
22.35
26.79
26.68
22.48
16.25
10.46
6.66
5.10
4.76
4.42
3.30
1.47
-0.28
-1.04
-0.42
1.14
2.47
2.24
-0.11
-4.02
-7.90
-9.99
-9.49
-6.97
-4.11
-2.55
-2.82
-4.06
-4.55
-3.23
-0.54
1.63
1.25
-2.42
-7.98
-12.49
-13.13
-8.79
-0.86
7.75
13.96
16.25
15.10
12.45
10.38
10.00
10.84
11.49
10.62
7.85
4.08
1.02
0.20
2.19
6.16
10.44
13.35
14.02
12.89
11.25
10.49
11.30
13.37
15.75
17.63
18.82
19.95
21.90
25.20
29.64
34.38
38.42
40.97
42.01
42.08
42.28
43.61
46.59
50.46
53.25
52.29
45.30
31.65
12.98
-7.26
-25.40
-39.29
-49.12
-56.96
-65.25
-74.95
-84.72
-91.56
-92.57
-86.57
-74.93
-60.81
-47.78
-38.01
-31.61
-27.07
-22.60
-17.47
-12.50
-9.42
-9.49
-12.45
-16.25
-18.06
-15.81
-9.37
-0.45
8.34
14.99
19.04
21.44
23.47
25.51
26.68
25.36
20.44
12.32
3.07
-4.63
-8.63
-8.60
-6.01
-3.23
-2.11
-2.89
-4.04
-3.35
0.66
7.74
15.60
20.88
20.58
13.28
-0.24
-17.27
-34.03
-46.90
-53.41
-52.70
-45.78
-35.15
-24.17
-15.98
-12.52
-13.93
-18.47
-23.45
-26.55
-26.71
-24.38
-20.97
-17.84
-15.78
-14.77
-14.32
-14.05
-13.84
-13.79
-13.89
-13.94
-13.57
-12.70
-11.88
-12.09
-14.61
-20.13
-28.46
-38.27
-47.86
-56.13
-63.33
-71.13
-81.31
-94.44
-108.68
-120.19
-124.64
-119.32
-104.25
-81.82
-55.18
-26.26
5.03
39.97
79.19
121.26
162.50
198.28
224.93
240.67
245.43
239.70
223.38
195.77
156.38
106.39
49.49
-8.17
-59.27
-96.77
-115.42
-112.65
-89.16
-48.88
1.55
54.08
101.29
138.29
163.49
178.27
185.28
186.66
182.86
172.95
155.85
131.76
103.10
74.19
49.99
34.28
27.97
28.28
29.45
24.43
7.46
-23.66
-66.55
-114.65
-159.62
-194.23
-214.98
-223.20
-224.12
-224.42
-229.25
-239.83
-252.97
-262.44
-261.31
-244.51
-210.53
-161.69
-103.55
-43.69
9.72
49.47
70.83
72.61
57.47
31.17
1.11
-25.31
-42.04
-44.93
-31.85
-2.68
41.17
97.15
162.22
233.17
306.39
377.25
439.64
486.38
511.13
510.71
486.48
444.04
391.18
334.85
279.30
225.69
173.38
121.80
71.44
23.68
-20.14
-59.30
-93.49
-122.00
-143.26
-155.76
-158.96
-154.43
-146.40
-140.83
-143.49
-158.05
-184.54
-219.46
-257.49
-292.16
-317.34
-328.81
-325.38
-309.30
-285.48
-259.40
-235.31
-216.26
-201.81
-189.01
-174.57
-157.34
-139.06
-123.27
-113.17
-109.88
-114.49
-125.57
-140.20
-155.25
-168.60
-179.32
-187.37
-193.19
-198.04
-206.91
-223.04
-245.83
-270.07
-288.24
-293.76
-283.70
-259.71
-208.49
-130.13
-36.14
56.19
133.62
191.12
229.53
251.64
260.53
259.69
249.95
233.64
214.48
196.55
182.07
170.67
160.49
149.65
137.49
122.43
104.92
87.22
72.56
62.66
57.05
53.82
50.99
48.02
44.38
41.21
40.77
45.85
57.06
72.55
88.90
102.66
111.75
115.28
114.45
112.21
113.15
120.60
135.32
154.88
173.69
184.47
180.16
157.09
111.83
51.93
-9.79
-60.90
-94.55
-111.26
-116.76
-118.21
-120.98
-127.30
-136.19
-145.64
-153.31
-156.37
-151.92
-138.47
-117.68
-94.74
-76.26
-66.86
-67.76
-76.12
-86.69
-94.35
-95.97
-90.50
-78.83
-61.52
-38.56
-10.71
19.81
49.08
72.86
88.21
95.10
96.61
98.52
107.36
127.96
161.57
204.93
250.83
289.58
312.30
312.98
290.74
249.70
197.26
141.66
89.35
43.69
4.34
-30.43
-62.57
-91.82
-115.43
-128.94
-128.05
-110.96
-79.37
-38.87
4.14
39.07
57.18
54.74
35.02
6.30
-23.04
-43.36
-55.01
-60.15
-60.58
-56.10
-45.18
-27.91
-4.00
26.56
64.02
108.16
158.81
213.28
265.80
307.88
330.81
329.26
303.60
260.07
207.76
155.73
108.96
67.82
29.64
-8.44
-47.43
-86.44
-123.55
-157.04
-184.82
-204.48
-213.23
-209.19
-193.36
-170.79
-150.13
-140.06
-145.12
-162.49
-183.34
-197.12
-196.75
-181.49
-155.72
-124.65
-89.96
-48.87
2.92
65.94
133.46
192.24
227.69
230.43
200.48
146.68
82.06
18.22
-38.02
-84.31
-120.55
-146.63
-162.09
-167.78
-167.06
-165.59
-168.24
-176.06
-185.31
-189.38
-182.80
-164.37
-137.93
-110.05
-87.00
-72.25
-66.39
-68.07
-75.00
-84.13
-91.27
-91.75
-82.39
-64.10
-42.79
-27.63
-27.07
-44.71
-77.82
-119.21
-161.03
-197.90
-227.85
-251.20
-268.33
-278.68
-280.85
-274.18
-259.63
-239.78
-217.78
-195.79
-174.38
-152.98
-131.12
-109.06
-88.18
-70.22
-56.56
-47.47
-41.59
-36.53
-29.59
-18.97
-4.34
12.81
29.98
44.74
55.65
63.81
71.44
80.77
92.59
105.73
117.44
125.05
127.10
124.18
120.98
123.05
135.15
159.65
196.23
241.96
292.09
340.46
380.38
409.88
430.41
447.08
466.50
493.47
528.18
565.99
599.35
621.48
634.35
645.31
664.28
698.88
751.11
817.48
891.55
966.48
1007.73
986.98
886.04
707.00
473.80
222.28
-14.18
-214.25
-370.47
-485.81
-563.68
-608.17
-622.87
-612.55
-584.62
-548.53
-513.42
-485.74
-468.05
-455.88
-442.78
-422.92
-394.06
-358.31
-320.78
-286.91
-260.41
-242.37
-229.44
-217.03
-201.07
-179.80
-154.32
-127.67
-103.23
-83.42
-69.20
-59.12
-51.25
-43.34
-34.29
-24.49
-15.20
-7.80
-3.16
-1.40
-1.64
-2.57
-2.88
-1.69
1.00
4.84
9.37
14.23
19.25
24.52
30.20
36.57
43.79
51.44
59.09
66.38
73.03
78.91
84.10
88.88
93.58
98.57
103.38
107.53
110.44
111.51
110.27
106.37
99.34
88.26
75.96
63.05
49.51
34.97
19.06
1.70
-16.70
-35.38
-53.46
-70.19
-85.89
-101.11
-116.63
-133.39
-152.15
-173.44
-197.15
-222.28
-246.68
-267.96
-283.65
-292.13
-293.33
-288.24
-278.54
-265.76
-251.12
-235.31
-219.25
-203.92
-190.34
-179.70
-172.58
-168.94
-168.23
-169.37
-170.46
-169.21
-163.49
-152.24
-136.68
-119.25
-102.97
-90.28
-82.38
-78.46
-76.64
-75.02
-72.03
-67.21
-59.70
-48.18
-31.41
-9.04
18.70
50.21
82.55
115.60
144.86
165.02
173.15
170.25
159.72
146.32
134.69
126.07
120.19
116.12
113.93
114.61
119.58
128.00
140.11
155.67
173.70
192.95
211.93
229.98
247.04
263.12
270.43
263.68
241.10
205.55
162.51
117.48
74.44
35.57
1.96
-25.87
-46.27
-58.62
-63.51
-64.72
-66.52
-71.27
-78.06
-82.66
-79.45
-62.97
-32.20
9.17
54.25
96.39
131.25
156.36
169.16
165.74
143.04
100.93
44.53
-16.17
-69.52
-106.62
-124.56
-126.17
-118.23
-107.15
-97.26
-90.42
-87.03
-87.22
-90.73
-95.94
-99.21
-95.59
-80.18
-51.01
-10.79
33.47
72.93
100.89
115.20
119.92
119.91
120.48
124.56
130.18
134.21
131.34
117.34
91.38
56.82
19.96
-11.83
-33.35
-43.31
-43.80
-38.95
-32.13
-24.62
-15.99
-5.77
5.41
15.16
20.99
21.44
16.66
8.56
-0.35
-8.02
-13.87
-18.31
-23.05
-29.30
-37.19
-45.87
-53.68
-58.96
-60.79
-59.28
-55.67
-51.78
-48.99
-47.90
-48.33
-49.32
-49.71
-49.21
-46.76
-42.36
-36.79
-30.85
-25.36
-21.01
-17.97
-16.31
-15.90
-16.49
-17.38
-19.44
-23.10
-28.68
-36.23
-45.05
-54.32
-63.02
-70.12
-75.21
-78.68
-81.25
-83.84
-87.86
-92.20
-95.52
-96.14
-92.54
-84.06
-71.20
-55.34
-37.62
-20.56
-5.66
5.60
12.45
15.54
17.33
21.78
33.22
54.04
82.88
115.01
143.70
162.71
168.93
163.15
148.82
130.07
109.84
88.59
67.36
46.45
26.67
9.33
-4.64
-15.25
-23.30
-30.00
-36.30
-42.17
-47.19
-50.80
-52.55
-52.36
-50.47
-46.93
-41.54
-33.75
-22.83
-8.55
8.55
27.16
45.72
62.19
75.74
86.24
94.10
100.25
105.81
112.04
119.60
127.65
133.70
133.12
121.66
97.69
63.83
26.48
-6.44
-28.89
-38.96
-39.12
-34.22
-28.74
-24.80
-22.00
-18.87
-14.55
-9.98
-7.31
-8.77
-15.54
-27.15
-41.89
-57.35
-71.58
-83.34
-93.06
-101.77
-110.56
-119.94
-129.67
-139.26
-148.61
-158.10
-166.95
-173.46
-174.30
-165.67
-145.77
-115.17
-78.03
-40.50
-8.11
16.57
34.00
47.00
58.45
69.68
79.92
88.29
94.19
98.03
101.48
104.53
106.71
106.95
104.29
98.60
90.83
82.54
75.33
70.09
66.34
62.95
58.58
52.40
44.89
37.42
31.66
28.85
29.22
31.56
34.31
35.95
35.88
34.76
33.87
34.70
38.60
46.62
58.94
74.46
90.26
100.54
100.84
88.28
63.75
32.32
1.68
-21.10
-32.36
-32.78
-26.10
-16.75
-7.97
-1.04
4.38
8.59
10.77
9.44
3.48
-6.84
-19.99
-33.85
-45.65
-54.31
-59.59
-62.28
-63.52
-65.24
-66.71
-67.06
-65.43
-61.60
-55.87
-48.80
-41.74
-36.03
-32.54
-31.36
-32.31
-33.05
-34.04
-35.61
-37.53
-39.94
-43.03
-46.75
-50.70
-54.53
-57.69
-59.87
-62.30
-63.14
-61.37
-56.33
-47.54
-34.89
-18.75
0.09
21.79
43.81
64.71
83.08
97.45
107.82
113.94
115.54
112.20
103.94
91.27
76.05
60.15
45.41
33.44
24.98
19.99
17.30
15.62
13.90
12.24
10.99
10.61
11.44
12.97
13.97
11.98
5.06
-7.80
-25.82
-47.50
-71.27
-95.83
-121.85
-146.80
-171.71
-198.73
-230.71
-269.41
-315.04
-365.10
-412.18
-446.56
-459.24
-446.09
-408.57
-354.06
-291.60
-229.64
-173.44
-121.87
-71.18
-18.47
35.61
88.36
135.70
176.78
212.78
245.99
281.68
323.74
372.30
422.91
469.33
504.47
525.94
533.98
512.19
454.13
366.85
267.90
175.06
108.32
63.98
36.32
19.83
8.99
-1.66
-15.51
-34.53
-57.99
-81.84
-101.46
-110.90
-108.99
-100.14
-91.00
-87.28
-90.86
-99.40
-109.48
-120.03
-129.72
-138.41
-146.03
-150.37
-148.20
-137.40
-117.98
-92.50
-65.35
-38.90
-14.37
8.11
30.25
54.89
81.46
108.74
134.01
148.80
147.51
128.53
94.67
52.24
8.59
-30.31
-60.62
-81.30
-91.91
-93.76
-87.77
-74.64
-54.70
-27.99
5.45
45.89
89.25
132.15
172.47
208.62
237.52
253.83
250.86
223.54
172.08
103.30
29.86
-34.37
-79.52
-102.99
-108.70
-103.98
-95.75
-88.59
-84.49
-83.96
-87.01
-92.40
-97.00
-94.93
-79.67
-47.84
-2.25
47.43
88.12
108.86
107.10
85.93
54.42
23.29
0.17
-13.13
-19.21
-21.68
-22.51
-20.90
-15.03
-3.72
12.19
30.44
48.44
65.75
83.75
103.64
124.17
140.24
145.34
134.39
106.48
64.85
15.97
-33.47
-78.56
-116.49
-145.16
-161.88
-164.20
-145.86
-106.71
-52.87
4.20
51.36
78.43
81.43
63.35
32.04
-3.94
-39.83
-74.61
-109.84
-146.03
-180.33
-205.70
-213.18
-196.02
-154.22
-96.59
-37.66
7.97
31.83
34.55
24.22
11.23
2.29
-2.75
-9.56
-23.58
-45.40
-69.11
-86.12
-90.71
-83.67
-72.15
-66.12
-72.85
-92.29
-116.89
-133.97
-132.26
-106.97
-61.27
-5.10
48.00
85.05
98.01
84.86
50.50
4.32
-43.70
-83.30
-104.92
-101.58
-70.76
-14.92
57.89
137.50
212.80
269.68
295.99
289.31
258.71
218.23
185.24
164.25
157.08
163.55
180.81
201.63
216.89
217.96
199.68
163.23
114.87
64.46
20.21
-14.26
-38.98
-58.60
-79.76
-108.67
-148.78
-200.80
-262.65
-331.61
-404.74
-463.30
-488.78
-470.31
-410.93
-325.03
-230.75
-143.30
-72.80
-22.63
11.39
36.03
57.22
77.93
95.51
103.94
97.41
73.54
36.40
-2.42
-29.63
-35.26
-16.56
21.10
67.64
112.89
151.05
176.15
185.95
181.57
166.30
143.25
114.00
80.06
44.16
10.66
-15.64
-30.68
-33.81
-27.94
-17.93
-8.65
-2.19
2.33
8.19
19.40
39.41
69.46
105.59
143.31
178.67
208.68
230.25
239.65
232.98
208.55
168.65
119.82
71.52
32.44
7.52
-3.48
-4.51
-0.55
4.91
10.32
15.59
20.36
23.26
22.56
16.90
6.81
-5.47
-16.95
-24.96
-28.44
-28.03
-25.61
-23.26
-22.90
-25.13
-29.18
-33.84
-38.31
-42.91
-49.48
-61.33
-77.79
-99.50
-126.10
-155.85
-185.74
-212.19
-231.93
-242.84
-244.44
-237.51
-224.38
-207.75
-190.42
-174.79
-162.44
-153.77
-148.25
-144.62
-141.08
-136.53
-130.73
-124.37
-118.53
-113.63
-108.82
-102.40
-92.30
-76.38
-53.45
-23.33
13.04
53.92
97.20
140.77
182.31
215.53
232.67
229.07
206.40
171.64
132.38
94.03
59.60
30.02
4.98
-15.69
-31.80
-42.83
-48.53
-48.85
-44.01
-34.00
-19.02
0.44
24.16
52.32
80.73
106.12
126.05
139.15
145.88
147.13
143.79
136.74
126.87
114.99
102.42
90.40
79.64
71.48
66.29
63.34
61.29
58.63
54.26
48.34
44.01
41.21
41.26
44.41
49.56
54.61
57.49
56.71
52.49
46.17
39.40
35.29
35.89
42.17
54.06
70.22
87.48
101.32
106.46
92.64
59.42
13.55
-33.82
-71.91
-94.53
-101.80
-98.13
-89.18
-79.13
-68.14
-55.41
-40.78
-25.81
-13.17
-6.09
-5.06
-8.78
-15.17
-21.24
-25.83
-29.80
-35.37
-42.97
-53.86
-67.55
-81.87
-94.01
-101.13
-102.32
-98.74
-93.09
-88.37
-86.93
-89.10
-93.31
-97.43
-99.31
-98.15
-94.55
-90.13
-86.79
-86.44
-91.54
-100.72
-111.28
-118.85
-117.76
-102.46
-69.46
-19.14
43.38
109.33
165.84
202.10
212.26
197.20
163.74
121.88
81.04
47.62
22.69
5.62
-4.25
-6.51
0.42
17.56
43.14
71.52
95.10
108.43
110.87
105.71
96.73
85.11
68.57
43.91
9.76
-29.40
-64.32
-85.24
-87.34
-73.80
-53.61
-37.07
-30.67
-34.52
-43.40
-50.73
-52.42
-46.97
-38.10
-29.75
-23.62
-18.73
-12.91
-4.59
5.94
16.77
25.66
30.86
32.59
32.57
33.04
35.60
40.81
47.90
55.26
61.19
64.57
65.50
64.96
64.14
63.57
63.16
62.02
58.88
52.72
43.07
30.46
16.07
1.99
-10.76
-21.55
-30.21
-36.88
-41.87
-45.47
-47.74
-48.73
-48.47
-47.25
-45.35
-43.11
-40.85
-38.77
-36.95
-35.31
-33.81
-32.36
-30.96
-29.60
-28.32
-27.14
-26.15
-25.34
-24.65
-24.16
-23.86
-23.75
-23.80
-24.02
-24.37
-24.87
-25.71
-26.29
-26.28
-25.70
-23.93
-20.66
-15.86
-9.79
-3.12
3.42
9.13
13.14
14.77
13.73
9.91
3.44
-4.67
-14.59
-26.00
-38.26
-50.77
-62.79
-73.45
-81.96
-87.90
-91.20
-92.24
-92.31
-90.83
-87.31
-81.05
-71.19
-57.03
-38.65
-16.97
6.11
28.89
49.04
65.26
77.46
86.48
93.36
98.79
102.81
104.62
103.29
98.05
88.55
74.40
55.81
34.25
12.78
-4.08
-11.85
-8.00
6.47
26.91
46.60
59.50
62.62
56.42
44.51
30.84
17.82
5.82
-5.85
-17.71
-29.27
-39.27
-46.63
-51.20
-53.90
-56.06
-58.91
-62.45
-65.71
-67.21
-65.49
-60.03
-51.13
-40.19
-29.10
-19.67
-13.05
-9.69
-9.38
-11.59
-15.72
-21.24
-27.69
-34.56
-41.03
-46.01
-48.35
-47.04
-41.48
-31.71
-18.37
-2.50
14.47
31.26
46.75
59.95
70.03
76.37
78.53
76.20
69.68
59.45
46.54
32.17
17.51
3.64
-8.55
-18.39
-25.54
-29.62
-30.68
-28.62
-23.83
-17.11
-9.55
-2.29
3.64
7.54
9.57
10.04
10.22
11.15
13.43
17.20
22.20
27.94
33.93
40.40
47.33
55.75
66.29
78.94
93.13
107.95
122.81
133.00
136.34
126.36
101.19
62.61
15.43
-34.45
-81.93
-123.68
-158.08
-184.06
-201.51
-209.43
-207.49
-195.66
-174.51
-145.21
-109.26
-68.12
-22.42
23.57
66.71
104.31
134.55
156.40
169.56
174.31
171.32
161.95
147.71
131.29
115.23
101.49
90.94
83.32
77.54
72.12
65.89
58.25
50.08
42.87
38.03
36.28
37.24
39.58
41.60
41.99
40.23
37.11
34.01
32.28
32.80
36.01
42.00
50.21
58.89
64.73
63.50
51.57
27.89
-4.75
-40.22
-71.25
-92.32
-101.62
-101.02
-94.33
-85.23
-75.79
-66.70
-58.09
-50.33
-44.21
-40.22
-38.02
-36.49
-34.40
-30.92
-26.29
-21.44
-17.60
-15.77
-16.74
-20.83
-27.35
-34.22
-38.46
-37.33
-29.93
-18.26
-6.39
1.23
2.30
-2.04
-7.75
-10.18
-6.63
2.48
14.02
24.48
31.33
33.98
33.14
29.87
24.50
16.71
7.09
-4.36
-16.70
-28.42
-38.01
-44.45
-47.47
-47.62
-45.87
-43.09
-41.22
-39.18
-36.03
-30.97
-23.51
-13.69
-2.07
10.46
23.07
35.04
46.10
56.03
64.86
72.71
79.67
85.63
90.61
94.96
99.22
103.91
109.40
115.98
123.78
132.67
142.17
151.78
161.20
170.33
178.86
186.66
193.67
199.92
205.14
208.25
207.75
201.66
191.83
178.53
161.88
142.11
119.67
94.89
66.86
35.15
0.22
-36.54
-73.73
-109.57
-142.12
-169.50
-190.87
-208.81
-225.66
-242.84
-260.60
-279.12
-298.16
-317.28
-335.45
-352.37
-371.84
-396.04
-424.95
-457.20
-492.26
-530.62
-572.50
-615.23
-653.34
-683.17
-698.00
-690.90
-658.62
-604.52
-537.58
-468.29
-403.80
-318.02
-204.37
-74.10
50.70
151.73
221.79
263.19
280.10
285.54
289.76
295.11
303.44
317.00
338.51
369.48
409.34
453.54
496.29
531.30
551.55
555.71
547.32
532.13
515.20
498.55
481.34
460.54
431.53
389.24
334.09
272.49
214.03
168.49
137.13
118.49
109.60
106.91
107.08
109.03
113.11
119.18
125.64
129.90
130.34
126.87
120.50
112.13
102.09
92.95
84.91
76.18
64.92
50.94
35.61
21.17
9.92
3.53
2.72
6.64
11.23
13.04
11.03
6.36
1.02
-3.35
-5.72
-5.45
-2.66
-2.96
-10.30
-25.13
-44.65
-65.56
-86.22
-106.49
-126.86
-148.33
-180.26
-228.83
-294.43
-371.42
-452.50
-531.92
-605.48
-669.64
-721.68
-770.79
-823.54
-881.15
-938.71
-990.90
-1036.22
-1077.08
-1117.49
-1093.35
-973.56
-769.38
-526.88
-290.25
-82.65
88.66
222.73
321.13
388.35
417.91
416.60
395.58
369.79
351.37
346.01
355.05
378.84
418.54
464.21
505.03
532.75
546.13
547.00
537.85
521.29
500.84
480.37
457.89
432.39
404.06
376.74
354.06
337.01
323.41
309.02
289.16
258.25
218.67
171.15
121.51
75.87
37.48
6.08
-20.85
-46.12
-72.41
-99.69
-127.41
-153.70
-177.89
-200.58
-222.82
-244.94
-265.13
-279.51
-282.80
-271.47
-244.44
-205.57
-162.85
-125.45
-100.54
-90.04
-90.77
-96.57
-102.51
-104.93
-103.15
-97.76
-89.09
-76.74
-59.18
-35.52
-6.53
23.90
51.81
73.48
87.02
94.44
95.99
92.96
86.56
77.24
64.70
48.60
28.65
5.76
-18.60
-43.02
-65.82
-85.93
-103.23
-118.26
-131.76
-144.61
-156.54
-167.20
-176.29
-183.24
-187.59
-188.97
-186.85
-179.90
-171.25
-161.52
-150.80
-139.16
-126.50
-112.91
-98.79
-84.69
-71.09
-58.46
-46.18
-33.76
-20.85
-7.26
6.93
21.28
35.25
48.44
60.64
72.63
85.05
98.29
112.13
125.80
138.20
148.49
156.56
163.35
171.04
182.07
198.38
220.57
247.61
277.33
307.06
334.60
358.77
379.74
398.62
417.30
438.15
463.55
494.76
530.53
566.23
594.32
606.72
597.84
567.08
519.30
462.79
406.10
355.03
311.58
274.79
242.71
214.00
188.52
166.63
148.30
132.76
118.94
106.27
95.04
86.40
81.59
81.18
84.46
89.65
94.33
96.34
94.40
88.26
78.61
66.42
52.50
37.29
20.94
3.58
-14.33
-31.96
-48.44
-63.16
-76.21
-88.23
-100.09
-112.35
-124.79
-136.48
-146.08
-152.54
-155.48
-155.49
-153.78
-151.78
-150.96
-152.60
-157.52
-165.31
-173.49
-177.37
-171.22
-150.72
-115.55
-70.89
-26.20
8.02
24.13
20.01
-0.91
-32.00
-66.46
-99.77
-130.42
-158.95
-186.63
-214.42
-242.59
-270.81
-298.23
-323.70
-345.60
-362.46
-373.21
-377.65
-376.71
-372.79
-369.55
-371.24
-381.16
-399.51
-421.99
-440.05
-443.69
-425.99
-386.88
-334.17
-280.39
-237.24
-210.16
-196.40
-187.45
-174.14
-151.22
-118.96
-81.60
-44.08
-9.69
20.34
45.55
64.91
76.54
78.45
70.03
52.79
30.02
5.65
-16.69
-34.44
-46.24
-51.86
-52.12
-48.62
-43.28
-37.77
-32.85
-28.12
-22.31
-13.88
-1.76
13.72
30.46
44.66
51.62
47.07
29.07
-0.71
-36.70
-70.60
-93.98
-101.15
-91.50
-69.72
-44.21
-23.71
-14.00
-15.83
-24.86
-33.43
-33.28
-18.21
14.27
62.15
119.54
177.99
228.58
264.13
281.00
279.78
264.84
242.78
220.32
202.52
191.81
187.93
188.80
191.64
193.93
194.18
192.09
188.22
183.46
178.53
173.57
168.28
161.84
153.07
140.40
121.98
96.09
61.51
18.18
-32.62
-88.46
-146.88
-205.12
-259.67
-305.83
-337.85
-350.13
-338.54
-301.99
-243.40
-170.58
-94.86
-28.74
17.37
38.08
34.33
13.72
-11.84
-29.87
-33.28
-22.05
-2.27
17.52
30.45
32.20
23.65
10.07
-0.42
-4.33
-2.60
0.36
-0.20
-7.37
-24.91
-53.25
-89.06
-124.04
-155.84
-184.53
-209.90
-227.50
-229.96
-216.59
-190.81
-159.05
-123.98
-94.46
-75.77
-67.14
-61.17
-51.53
-46.04
-57.86
-96.20
-153.67
-222.80
-292.56
-353.59
-399.12
-383.97
-289.36
-135.60
-9.28
76.93
132.40
180.89
228.31
273.77
312.52
331.97
323.44
287.40
238.21
182.19
129.15
85.58
59.07
54.22
65.61
85.46
107.76
134.26
161.03
184.04
199.61
208.07
210.89
205.67
190.40
166.36
142.00
122.91
112.87
111.55
116.61
123.67
126.45
120.82
106.99
90.70
76.87
69.00
67.57
71.40
78.21
85.00
88.97
87.52
78.76
60.90
34.26
2.53
-27.83
-50.31
-61.63
-63.87
-63.59
-68.32
-82.06
-102.49
-121.62
-129.85
-120.55
-93.31
-53.89
-11.28
26.03
52.60
66.23
67.00
55.30
31.65
-2.48
-43.23
-83.99
-116.71
-134.68
-136.34
-122.97
-99.95
-73.77
-49.34
-28.77
-11.47
4.08
18.61
31.21
39.79
41.92
36.84
26.42
14.78
6.24
2.96
3.70
4.54
1.57
-6.40
-15.92
-20.09
-12.13
10.29
42.78
75.45
97.04
100.12
84.23
56.18
26.68
5.75
-1.10
5.81
21.71
40.17
55.62
64.79
67.03
63.61
57.08
50.20
44.94
41.61
38.34
31.76
18.74
-1.23
-24.80
-45.21
-55.01
-49.70
-30.38
-3.97
19.38
30.81
26.59
9.52
-12.66
-30.71
-37.48
-30.14
-9.20
21.23
54.95
85.44
107.37
117.60
115.61
103.27
84.12
62.27
41.17
23.19
9.45
0.10
-5.37
-7.72
-7.95
-7.34
-7.62
-11.14
-20.12
-35.51
-55.80
-76.55
-91.25
-93.65
-80.64
-54.38
-22.60
3.84
14.98
5.85
-21.38
-58.09
-92.57
-114.67
-119.55
-109.09
-90.06
-70.51
-56.05
-47.87
-43.40
-38.89
-32.12
-23.70
-16.21
-11.79
-10.02
-7.45
1.11
19.88
49.56
86.34
122.41
148.19
155.18
138.66
99.71
45.51
-12.07
-59.81
-87.30
-90.50
-73.22
-45.61
-20.23
-7.23
-10.80
-28.35
-52.29
-73.52
-84.61
-81.69
-64.58
-35.87
0.31
39.21
76.05
106.53
127.37
136.79
134.76
123.04
104.63
83.27
62.80
46.41
36.08
32.00
32.54
34.74
35.33
31.89
23.44
10.52
-5.20
-21.29
-34.75
-42.27
-41.24
-31.09
-14.79
0.97
7.77
-1.05
-26.83
-64.15
-102.52
-130.81
-141.94
-135.57
-117.33
-95.25
-75.83
-61.62
-51.59
-43.01
-33.76
-23.70
-14.22
-6.92
-2.22
0.88
4.18
9.22
16.76
26.73
37.89
48.02
53.91
51.94
39.12
14.58
-18.98
-54.85
-84.01
-99.19
-98.36
-86.18
-72.00
-65.44
-71.98
-90.68
-115.03
-133.49
-135.95
-117.77
-82.31
-38.58
4.71
43.32
77.47
108.89
137.99
162.52
178.90
184.67
180.15
168.80
155.67
145.44
140.86
141.99
146.44
150.83
152.71
151.49
148.47
145.85
145.48
148.03
152.28
156.66
157.33
151.60
138.28
117.76
91.24
60.53
27.58
-5.90
-38.32
-68.90
-96.46
-119.81
-137.69
-149.44
-157.19
-159.44
-155.56
-145.64
-130.30
-110.04
-85.65
-58.29
-30.27
-3.91
18.78
35.56
44.78
45.60
38.30
23.70
6.13
-13.40
-34.05
-54.82
-74.88
-93.12
-108.38
-119.45
-125.82
-127.79
-127.01
-125.08
-123.34
-122.69
-123.32
-125.29
-128.41
-132.55
-136.89
-140.02
-139.12
-131.86
-117.53
-98.05
-77.86
-62.06
-53.96
-52.80
-56.41
-58.76
-56.08
-48.16
-37.27
-25.34
-11.85
5.81
30.19
60.09
89.26
107.83
107.26
85.25
47.25
3.98
-33.85
-59.13
-70.08
-68.88
-59.41
-44.74
-26.62
-6.41
13.69
30.49
42.63
51.42
60.39
73.66
94.40
122.66
156.19
193.06
229.60
262.94
290.97
311.11
320.06
314.43
292.37
254.36
202.57
136.56
57.24
-28.68
-112.59
-187.21
-251.88
-308.37
-355.45
-391.38
-414.79
-423.70
-415.79
-389.41
-344.02
-280.69
-202.43
-114.63
-25.31
55.37
116.86
153.52
167.20
166.13
159.88
154.49
151.13
147.36
140.04
128.26
114.00
100.31
89.67
82.98
79.27
77.45
76.62
76.95
80.47
90.05
107.31
130.76
155.66
175.07
184.35
182.60
172.90
160.70
150.84
145.51
143.58
145.17
145.08
140.55
130.68
115.55
95.77
71.62
43.12
8.11
-30.76
-71.67
-112.12
-149.74
-182.72
-209.79
-230.89
-246.77
-258.35
-266.23
-271.51
-274.18
-273.71
-270.32
-262.36
-248.78
-229.03
-202.96
-170.63
-133.20
-91.99
-48.76
-6.36
32.79
66.64
93.83
113.80
126.92
133.78
135.48
133.25
128.29
121.92
114.94
107.86
100.97
94.46
88.29
82.41
76.65
70.92
65.40
60.20
55.35
50.83
46.69
42.87
39.32
35.96
32.65
29.58
26.81
24.36
22.16
20.23
18.57
17.24
16.66
16.43
16.69
17.61
19.28
21.55
24.22
26.87
29.05
30.54
30.26
27.72
22.82
15.75
7.08
-2.29
-11.39
-19.15
-24.70
-27.72
-28.15
-26.50
-23.72
-21.02
-19.51
-20.15
-23.47
-29.44
-37.72
-47.37
-57.42
-66.90
-75.09
-81.44
-85.95
-88.74
-89.93
-89.91
-88.72
-86.34
-82.58
-77.17
-69.83
-60.69
-50.00
-38.10
-25.92
-14.18
-3.79
4.38
9.51
10.96
8.20
0.98
-10.71
-26.93
-46.95
-69.88
-94.58
-119.80
-144.31
-166.93
-186.62
-202.79
-215.42
-224.19
-229.26
-231.15
-230.41
-227.54
-222.79
-215.98
-206.32
-196.29
-186.65
-177.62
-169.11
-160.55
-151.02
-139.64
-125.78
-109.36
-90.97
-71.06
-50.52
-30.37
-11.30
6.28
22.20
36.35
48.48
58.17
65.37
70.16
73.09
75.41
78.85
85.22
95.84
111.18
130.75
153.63
178.67
204.97
232.17
260.05
288.57
317.69
347.50
378.22
409.67
440.08
465.69
481.35
482.44
467.15
437.77
399.83
359.80
322.43
289.60
260.93
235.64
214.15
198.09
189.03
186.90
189.29
192.05
191.04
183.31
167.71
144.68
115.97
84.51
53.91
27.58
6.91
-9.18
-23.87
-40.44
-60.04
-80.71
-98.34
-108.66
-109.48
-101.77
-88.86
-75.14
-65.04
-62.69
-71.78
-94.19
-128.28
-167.33
-200.30
-215.46
-205.41
-170.64
-119.94
-66.98
-25.17
-3.40
-3.97
-23.64
-56.39
-95.66
-135.69
-171.25
-197.65
-210.45
-205.98
-181.98
-138.55
-78.97
-9.88
59.81
120.85
165.57
189.76
193.05
179.00
153.53
122.82
92.76
67.97
51.14
42.37
38.83
35.22
27.11
12.57
-7.18
-27.43
-41.86
-45.34
-36.60
-19.26
-1.19
9.65
6.92
-14.00
-53.56
-106.72
-162.90
-208.39
-231.16
-226.23
-196.12
-151.77
-110.27
-86.85
-88.86
-113.36
-146.44
-168.29
-173.51
-164.46
-141.10
-107.14
-66.77
-24.03
16.26
47.47
61.33
49.21
11.61
-38.67
-82.91
-104.58
-96.66
-63.48
-17.84
24.48
50.96
58.15
50.24
34.14
16.68
2.57
-6.09
-9.41
-9.65
-10.89
-16.28
-28.24
-47.74
-72.33
-95.91
-110.67
-110.33
-93.28
-63.64
-29.78
-2.25
9.52
1.18
-24.80
-59.97
-92.80
-112.61
-110.75
-83.66
-35.63
22.57
77.65
118.38
138.69
138.56
122.72
98.41
73.31
52.63
39.55
36.49
45.60
68.30
104.12
150.01
200.64
249.85
289.67
312.20
312.03
286.71
237.36
168.36
86.48
-4.06
-89.10
-152.64
-185.92
-190.41
-174.44
-146.02
-110.35
-70.63
-29.54
10.93
47.45
76.89
99.58
116.61
129.56
139.48
145.99
147.17
141.46
126.64
99.49
63.44
23.26
-15.92
-50.10
-77.50
-98.66
-114.16
-125.29
-137.66
-149.68
-159.94
-167.19
-170.62
-170.48
-168.14
-163.88
-157.32
-147.43
-131.99
-110.72
-84.80
-57.09
-26.21
4.60
31.88
53.10
66.81
73.10
71.14
59.70
41.87
20.71
-1.97
-25.41
-49.56
-73.11
-91.60
-98.78
-88.08
-55.44
-2.22
63.16
128.03
179.38
206.94
206.25
179.34
134.08
80.39
28.97
-12.32
-38.33
-46.18
-36.18
-10.60
27.23
73.26
123.24
172.46
214.68
244.89
260.99
262.08
248.64
225.30
195.90
164.14
133.54
105.31
73.86
39.21
2.69
-33.58
-67.47
-98.63
-129.11
-153.03
-170.26
-182.07
-190.42
-197.87
-205.78
-213.77
-220.80
-225.64
-227.49
-228.07
-229.66
-235.66
-249.09
-270.36
-296.47
-322.11
-340.96
-347.59
-340.17
-319.42
-290.08
-258.41
-229.96
-208.76
-197.38
-196.95
-207.09
-225.90
-232.41
-210.45
-154.68
-74.49
11.50
86.05
140.24
174.14
193.14
203.76
208.00
204.42
190.62
166.90
136.93
106.50
81.18
64.75
56.87
56.06
59.38
63.66
66.21
65.30
60.51
53.19
48.11
49.85
61.13
81.29
106.56
131.79
152.95
168.69
180.28
189.76
198.54
206.01
209.77
208.10
201.26
191.53
181.86
175.57
171.59
166.95
157.86
140.92
115.26
83.13
49.20
18.85
-4.11
-18.42
-25.41
-28.31
-31.28
-38.11
-51.75
-73.69
-100.75
-129.29
-153.55
-166.77
-164.14
-145.48
-115.56
-82.55
-54.62
-36.30
-28.09
-26.97
-28.86
-31.12
-33.45
-36.54
-40.94
-46.07
-50.16
-52.03
-51.54
-49.91
-49.20
-51.39
-57.05
-65.40
-74.68
-82.74
-88.00
-89.72
-88.16
-84.19
-79.73
-74.63
-68.52
-60.76
-50.76
-38.44
-24.31
-9.41
5.11
18.19
29.48
38.80
46.32
52.33
56.80
59.48
60.00
58.07
53.40
46.20
36.83
25.96
14.31
2.33
-9.68
-21.55
-33.12
-44.50
-55.71
-66.84
-78.06
-89.39
-100.95
-112.69
-124.50
-136.19
-147.59
-158.38
-168.24
-176.88
-183.88
-188.80
-191.80
-192.89
-191.96
-189.02
-184.08
-177.27
-168.81
-158.95
-148.07
-136.59
-124.87
-113.28
-102.14
-91.78
-82.44
-74.33
-67.40
-61.67
-56.92
-52.83
-49.13
-45.52
-41.80
-37.71
-33.09
-27.79
-21.76
-14.87
-7.03
1.63
10.91
20.36
29.55
37.94
45.04
50.44
53.88
55.22
54.39
51.43
46.38
39.42
30.91
21.58
12.41
4.47
-1.13
-3.72
-3.00
0.73
6.86
14.77
24.04
34.58
46.63
60.46
75.95
92.47
108.86
123.94
136.89
147.65
157.12
166.83
178.44
192.91
210.27
229.65
249.76
269.44
288.16
306.12
324.07
343.10
364.38
388.94
417.18
447.74
477.01
499.17
507.84
498.53
471.10
430.51
385.48
345.51
317.52
304.15
303.49
310.88
320.83
328.75
331.26
326.11
312.06
288.86
257.90
221.96
184.85
150.39
121.38
98.92
82.27
69.27
57.02
42.82
24.81
2.18
-25.11
-56.68
-92.24
-131.76
-175.47
-223.31
-273.96
-324.22
-369.21
-403.31
-421.98
-423.23
-408.48
-381.96
-349.25
-315.42
-283.95
-256.42
-233.10
-213.57
-197.20
-183.22
-170.48
-157.58
-143.30
-127.03
-109.18
-91.14
-74.76
-61.84
-53.57
-50.13
-50.86
-54.53
-59.64
-64.86
-69.31
-72.65
-74.95
-76.55
-77.74
-78.62
-78.97
-78.38
-76.38
-72.72
-67.46
-60.93
-53.89
-47.21
-41.94
-38.95
-38.61
-40.73
-44.37
-48.29
-51.19
-52.04
-50.33
-46.28
-40.67
-34.69
-29.43
-25.63
-23.71
-23.85
-26.16
-30.74
-37.35
-45.19
-52.72
-58.04
-59.39
-55.87
-47.63
-35.84
-22.01
-7.45
6.93
20.64
33.10
43.62
51.29
55.39
55.65
52.50
47.05
40.62
34.32
28.77
23.99
19.48
14.65
9.11
2.95
-3.12
-8.21
-11.54
-12.77
-12.16
-10.18
-7.21
-3.18
2.27
9.42
18.16
27.79
37.15
45.06
50.80
54.30
56.07
56.81
56.97
56.60
55.45
53.20
49.86
45.80
41.62
37.86
34.86
32.61
30.80
29.01
26.88
24.37
21.75
19.33
17.34
15.71
14.03
11.93
9.23
6.22
3.44
1.29
-0.11
-1.01
-1.93
-3.14
-4.59
-5.87
-6.52
-6.35
-5.64
-4.92
-4.78
-5.57
-7.16
-9.01
-10.50
-11.17
-10.78
-9.41
-7.38
-5.04
-2.70
-0.41
2.03
4.70
7.43
9.66
10.39
8.71
4.13
-3.06
-11.89
-21.05
-29.26
-35.50
-39.23
-40.29
-38.85
-35.15
-29.63
-22.95
-15.95
-9.50
-4.25
-0.50
1.85
3.24
4.13
4.80
5.25
5.34
4.86
3.75
2.16
0.53
-0.55
-0.71
0.15
1.78
3.74
5.55
6.86
7.61
7.82
7.59
6.99
6.10
4.96
3.71
2.38
1.12
0.17
-0.36
-0.40
-0.24
-0.37
-1.35
-3.57
-6.99
-11.18
-15.37
-18.85
-21.13
-22.10
-21.87
-20.69
-18.65
-15.73
-12.05
-7.66
-2.83
2.13
6.92
11.27
14.98
17.82
19.46
19.54
18.03
15.21
11.85
8.79
6.71
6.02
6.53
7.72
8.82
9.26
8.84
7.75
6.47
5.27
4.11
2.70
0.63
-2.42
-6.41
-10.82
-14.76
-17.15
-17.52
-16.11
-13.77
-11.95
-12.05
-14.73
-19.43
-24.65
-28.63
-30.20
-29.19
-25.59
-19.87
-12.37
-2.96
8.89
23.69
41.78
63.25
88.14
117.83
152.80
192.06
232.67
270.29
300.69
321.60
333.77
340.55
347.34
357.04
368.03
374.34
368.41
344.89
303.51
249.60
182.90
107.92
30.10
-45.42
-114.36
-173.31
-219.40
-250.70
-266.95
-270.26
-263.47
-250.87
-236.57
-223.38
-212.34
-202.82
-193.58
-183.72
-173.24
-161.97
-150.56
-139.84
-130.30
-121.93
-114.05
-105.98
-97.30
-88.12
-78.16
-67.45
-56.16
-44.27
-31.64
-17.96
-3.37
11.45
25.44
37.71
47.12
53.19
54.89
51.82
44.17
32.49
17.72
1.14
-15.62
-30.85
-43.30
-52.05
-56.67
-57.57
-55.57
-51.75
-47.42
-44.00
-42.07
-41.79
-43.03
-45.34
-48.42
-51.96
-55.63
-58.97
-61.52
-62.11
-59.47
-52.73
-41.64
-26.75
-9.30
8.80
25.78
40.62
53.16
63.68
72.26
78.21
79.75
74.01
57.92
29.17
-11.69
-62.11
-118.15
-174.59
-225.12
-263.06
-282.33
-279.45
-255.97
-218.74
-178.75
-147.36
-131.82
-132.90
-148.75
-172.42
-196.80
-216.26
-226.72
-224.99
-208.55
-175.69
-126.47
-60.75
14.33
89.27
155.54
207.98
244.93
267.67
279.22
282.54
279.83
272.21
260.61
246.02
229.90
213.35
197.16
181.90
168.17
156.87
149.05
144.72
141.85
136.33
122.59
97.04
60.45
18.68
-19.95
-47.49
-58.88
-52.42
-28.63
10.03
59.25
112.79
162.68
200.02
217.33
210.86
179.31
131.31
76.36
22.08
-27.91
-73.31
-117.53
-163.17
-210.37
-255.76
-292.24
-312.87
-310.10
-285.03
-243.31
-192.89
-141.13
-92.76
-49.65
-11.09
22.80
50.60
69.71
78.52
77.49
69.62
58.16
46.87
38.91
35.36
35.57
37.60
39.56
40.02
38.15
33.75
26.89
17.12
3.06
-17.34
-44.95
-79.57
-119.84
-163.60
-208.21
-250.63
-287.58
-315.19
-329.21
-324.01
-297.09
-250.93
-193.22
-134.74
-85.26
-51.07
-33.52
-30.03
-33.20
-37.36
-40.41
-43.44
-48.54
-56.12
-64.94
-72.79
-80.60
-84.37
-81.36
-71.37
-56.05
-36.34
-10.76
23.96
71.07
132.19
212.78
314.47
433.25
559.92
684.49
799.00
897.82
976.93
997.04
936.20
799.01
615.09
419.80
239.26
86.21
-36.87
-133.24
-209.01
-265.28
-303.94
-329.15
-348.82
-367.99
-386.99
-402.36
-408.84
-402.15
-376.76
-332.70
-273.74
-215.44
-173.49
-156.16
-160.93
-175.95
-185.72
-174.77
-136.02
-73.57
-1.03
66.13
115.11
138.45
134.51
106.68
63.10
13.77
-32.23
-69.33
-94.09
-106.13
-108.04
-104.46
-99.90
-96.32
-92.58
-85.04
-70.47
-46.29
-12.83
26.33
65.56
99.77
126.32
145.43
161.01
173.03
181.35
185.02
183.10
175.47
163.23
147.71
127.55
104.82
79.33
51.09
20.64
-10.24
-39.08
-63.36
-81.91
-94.85
-103.14
-109.06
-114.33
-119.77
-124.89
-127.75
-126.08
-118.61
-105.07
-86.13
-64.27
-41.99
-21.44
-3.43
12.22
26.58
40.45
54.35
68.30
80.95
91.18
98.14
101.94
103.34
103.86
104.79
107.17
111.53
117.30
124.32
132.53
142.57
155.14
170.96
189.82
211.06
234.01
257.16
278.24
293.31
297.49
286.64
259.40
217.87
168.29
119.40
79.01
51.62
37.03
31.16
28.07
27.63
28.19
28.44
27.33
23.77
16.68
5.69
-8.37
-23.22
-36.19
-45.51
-50.50
-51.82
-51.24
-51.01
-52.74
-57.25
-63.77
-70.68
-76.63
-80.73
-83.38
-85.96
-90.29
-97.79
-109.11
-123.41
-138.92
-153.96
-167.42
-179.56
-191.61
-205.37
-222.17
-242.14
-263.60
-283.47
-298.46
-306.26
-306.69
-301.45
-294.06
-289.39
-293.28
-311.00
-345.58
-396.55
-459.06
-525.58
-586.65
-633.59
-661.50
-669.71
-659.75
-632.66
-587.71
-522.83
-438.64
-338.01
-226.38
-111.99
-3.33
94.24
180.50
259.04
334.80
408.28
477.01
535.84
576.15
588.16
565.11
506.65
419.26
314.56
202.34
91.75
2.84
-42.52
-34.61
16.02
88.73
158.24
224.86
289.36
349.66
402.48
440.41
456.12
445.87
405.86
341.10
264.71
188.91
122.37
68.98
27.22
-6.31
-34.65
-57.85
-73.38
-78.42
-74.46
-65.11
-54.01
-45.12
-41.11
-43.52
-51.15
-60.70
-68.34
-72.91
-74.93
-74.91
-76.65
-79.22
-82.11
-84.38
-84.48
-80.79
-72.89
-61.14
-45.23
-25.05
-0.63
26.23
52.71
75.78
92.96
102.88
105.01
100.46
90.81
77.80
62.17
44.39
25.14
5.25
-10.53
-20.01
-22.99
-21.37
-18.02
-16.00
-17.69
-24.15
-35.42
-50.31
-66.95
-81.30
-87.41
-78.79
-51.17
-5.20
52.98
113.34
165.55
202.19
221.19
225.20
218.83
206.20
189.62
170.27
149.41
129.37
113.08
103.47
102.13
108.22
118.74
129.14
134.68
131.56
117.75
93.38
60.34
21.81
-18.88
-58.64
-95.20
-126.87
-152.38
-170.74
-181.36
-184.54
-181.54
-174.82
-167.24
-161.16
-157.58
-155.49
-152.81
-147.24
-137.80
-125.24
-111.85
-100.15
-91.73
-86.43
-82.57
-78.25
-72.31
-65.23
-58.63
-54.40
-53.55
-55.84
-60.14
-64.78
-68.24
-69.30
-67.13
-61.17
-51.26
-37.62
-21.18
-3.61
13.09
26.94
36.65
41.95
43.39
42.15
39.41
36.21
33.29
31.04
29.39
28.06
26.69
25.18
23.63
22.03
20.24
17.74
14.07
9.09
3.32
-2.09
-6.01
-7.69
-7.05
-4.72
-1.85
0.48
1.40
0.75
-0.95
-2.71
-3.25
-1.58
2.57
8.62
15.33
21.16
24.42
23.72
18.13
7.38
-7.79
-25.62
-43.36
-57.74
-65.83
-66.03
-58.31
-44.10
-25.76
-5.57
14.51
33.10
49.16
61.91
70.73
75.26
75.49
71.90
65.55
58.00
51.05
46.08
43.85
44.07
45.74
47.61
48.67
48.53
47.09
44.50
40.93
36.47
31.11
24.72
17.08
8.06
-2.07
-12.55
-22.05
-28.94
-31.92
-30.32
-24.29
-14.56
-2.34
11.08
24.04
34.29
39.17
36.34
24.84
6.14
-16.02
-37.11
-53.17
-62.61
-66.30
-66.78
-66.70
-67.55
-69.60
-72.27
-75.19
-78.59
-83.17
-89.34
-96.43
-102.22
-103.48
-97.14
-81.33
-56.32
-24.26
11.51
47.50
80.94
109.57
131.40
144.23
145.89
134.81
111.40
78.53
41.15
4.89
-25.97
-49.45
-66.00
-77.15
-84.13
-86.85
-83.96
-74.04
-56.71
-33.39
-7.09
18.43
40.01
55.82
65.72
70.71
71.91
69.89
64.07
53.43
37.47
17.10
-5.16
-26.07
-42.87
-54.36
-60.95
-64.18
-65.31
-64.59
-60.98
-53.27
-41.22
-26.25
-11.41
-0.16
4.83
2.77
-4.96
-15.39
-24.84
-29.77
-27.68
-17.72
-0.75
20.82
43.85
65.04
81.61
91.79
94.71
90.41
79.60
63.70
44.89
25.66
8.57
-4.44
-12.57
-16.32
-17.20
-17.05
-17.02
-17.20
-16.90
-15.16
-11.74
-7.47
-4.13
-3.58
-6.96
-14.10
-23.52
-33.12
-40.85
-45.48
-46.77
-45.27
-41.71
-36.86
-31.63
-26.97
-23.97
-23.29
-24.82
-27.33
-28.73
-27.10
-21.45
-12.33
-1.64
8.14
15.09
18.51
19.20
18.79
18.73
19.78
21.56
23.09
23.38
22.02
19.45
16.54
14.26
13.12
13.01
13.23
13.00
11.75
9.58
7.09
4.86
3.33
2.35
1.44
0.13
-1.68
-3.56
-4.95
-5.47
-5.24
-4.93
-5.46
-7.43
-10.83
-14.57
-16.97
-16.50
-12.30
-4.79
4.45
13.30
19.79
22.93
22.79
20.38
17.06
14.00
11.66
9.86
8.10
6.11
4.13
2.59
1.95
2.13
2.57
2.46
1.28
-0.69
-2.68
-3.62
-2.93
-0.97
0.98
1.40
-0.82
-5.59
-11.72
-17.69
-22.26
-25.19
-27.16
-29.30
-32.40
-36.42
-40.52
-43.17
-42.98
-39.12
-31.76
-21.88
-11.07
-0.80
7.82
14.02
17.56
18.37
16.61
12.70
7.43
2.01
-2.40
-4.87
-5.22
-4.06
-2.58
-2.09
-3.53
-6.88
-11.36
-15.81
-19.11
-20.91
-21.61
-22.06
-23.00
-24.60
-26.52
-28.14
-29.18
-29.89
-31.05
-33.36
-37.00
-41.05
-43.94
-44.26
-41.27
-35.38
-27.71
-19.32
-10.59
-0.98
10.26
23.57
38.43
53.22
65.64
73.47
75.13
70.34
60.08
46.10
30.62
15.57
2.37
-7.94
-14.61
-16.87
-14.16
-6.20
6.61
23.02
41.05
58.56
73.87
86.32
96.03
103.27
107.92
108.92
104.69
94.08
77.17
55.93
33.51
13.45
-1.55
-10.39
-13.80
-13.68
-12.24
-10.98
-10.38
-10.16
-9.53
-7.90
-4.98
-0.85
4.36
10.66
17.93
25.90
33.95
41.13
46.23
48.22
46.54
41.49
33.94
24.73
14.50
3.35
-8.96
-22.61
-37.31
-52.02
-65.51
-76.59
-84.74
-90.23
-93.90
-96.55
-98.54
-99.39
-98.03
-93.76
-86.33
-76.52
-65.47
-54.29
-43.68
-33.78
-24.76
-16.74
-9.92
-4.11
1.31
7.39
14.92
23.92
33.36
41.07
45.01
43.92
38.08
29.26
19.93
12.59
8.64
8.32
10.70
14.35
17.80
20.11
21.06
21.10
21.17
21.92
23.81
26.43
28.96
30.28
29.50
26.56
22.20
18.26
17.09
20.98
30.80
45.42
61.61
75.05
81.84
79.62
68.40
50.04
27.37
3.05
-20.88
-42.91
-61.96
-76.88
-86.70
-90.95
-90.07
-85.55
-79.66
-74.73
-72.38
-73.31
-76.80
-81.26
-84.73
-85.58
-83.19
-77.93
-71.23
-64.80
-60.19
-58.09
-58.21
-59.06
-57.94
-51.45
-36.38
-11.07
23.97
65.98
111.19
156.49
200.81
245.55
292.76
342.90
392.70
435.06
461.04
463.54
440.56
396.54
340.67
283.32
232.42
191.32
159.26
133.14
109.48
85.49
59.08
29.18
-3.96
-38.04
-68.89
-91.82
-103.66
-104.09
-95.81
-83.56
-72.32
-66.34
-68.97
-82.96
-110.59
-153.19
-210.26
-279.16
-355.45
-433.31
-505.90
-565.47
-603.26
-610.72
-582.05
-516.54
-419.66
-302.10
-176.59
-54.55
56.27
152.51
234.29
303.68
362.93
412.88
452.05
476.61
481.43
462.15
417.43
350.04
266.34
174.01
79.46
-13.58
-104.05
-192.17
-278.05
-360.60
-437.46
-505.22
-560.23
-599.46
-620.83
-623.51
-608.16
-576.86
-532.57
-478.84
-418.90
-356.30
-294.79
-237.50
-186.22
-140.61
-98.70
-57.67
-15.29
30.37
78.83
127.62
173.65
214.78
250.92
283.56
314.74
346.28
381.07
420.20
462.56
505.60
546.13
580.89
606.66
620.62
621.17
610.69
591.18
562.76
523.87
472.83
409.37
335.60
255.90
161.46
56.36
-46.13
-130.39
-187.08
-215.54
-220.72
-209.25
-187.46
-160.69
-130.73
-99.27
-68.58
-38.50
-10.02
15.42
35.60
47.36
47.97
37.65
17.12
-13.48
-56.79
-108.34
-160.10
-202.74
-228.52
-232.76
-215.02
-180.98
-141.51
-107.62
-86.09
-77.87
-79.24
-86.05
-95.71
-110.17
-131.02
-159.28
-192.23
-222.73
-241.74
-236.59
-205.27
-152.51
-87.37
-18.99
45.11
100.58
145.89
181.43
207.43
222.66
227.59
223.58
213.50
199.26
181.88
161.40
136.91
107.13
70.20
27.39
-18.58
-61.48
-93.36
-106.16
-95.82
-65.83
-27.72
2.36
11.40
-6.07
-44.15
-90.75
-133.27
-164.77
-185.56
-200.58
-214.15
-226.24
-236.97
-240.61
-235.53
-224.72
-213.44
-205.35
-199.56
-190.81
-168.93
-131.59
-80.55
-22.79
32.75
78.41
110.72
130.45
141.08
146.76
149.75
151.67
152.33
150.73
146.42
140.34
134.68
131.93
133.97
140.61
150.76
161.78
171.42
176.25
173.92
162.90
142.59
113.99
79.98
45.87
17.31
-0.70
-7.47
-6.33
-3.09
-3.10
-8.89
-19.58
-31.81
-42.01
-48.56
-52.06
-54.00
-55.59
-57.02
-57.68
-57.13
-55.50
-53.26
-51.27
-50.35
-50.50
-51.34
-52.36
-53.20
-53.93
-54.89
-56.39
-59.13
-63.42
-69.36
-77.34
-87.56
-99.71
-112.81
-125.23
-134.09
-136.67
-130.82
-115.31
-89.93
-55.19
-12.91
33.47
77.85
113.64
135.16
140.27
131.18
113.54
94.58
80.32
73.16
73.09
78.76
88.02
99.57
112.58
125.55
136.57
143.29
142.27
131.05
109.20
78.48
43.27
9.00
-20.63
-44.93
-66.94
-91.36
-120.72
-152.85
-180.76
-195.28
-188.32
-159.43
-113.89
-60.59
-8.27
37.40
74.28
101.77
118.65
122.77
111.92
86.94
51.94
14.17
-18.48
-40.11
-50.25
-53.85
-58.22
-70.03
-91.47
-120.10
-150.30
-175.96
-193.84
-202.39
-201.91
-193.00
-175.98
-150.69
-117.70
-78.73
-36.46
4.98
42.04
72.32
94.95
110.28
119.59
124.21
125.24
123.40
119.09
112.75
104.96
96.50
88.19
81.28
75.69
71.15
67.15
63.18
58.97
54.42
49.71
45.14
41.02
37.38
34.23
31.49
28.98
26.66
24.42
22.21
19.91
17.54
15.06
12.67
10.69
9.37
8.84
8.86
8.96
8.53
7.24
5.12
2.67
0.82
0.36
1.64
4.25
7.27
9.57
10.67
10.93
11.43
13.76
19.08
27.40
37.25
46.52
51.92
51.66
45.34
34.24
20.64
7.19
-3.92
-10.80
-11.78
-6.09
5.56
19.79
31.47
36.16
33.28
26.82
24.51
33.41
55.63
86.28
115.37
132.56
130.90
112.68
84.75
55.27
29.68
9.56
-6.00
-17.93
-26.05
-29.81
-30.47
-31.77
-39.01
-56.07
-82.88
-114.63
-143.44
-161.77
-165.22
-154.09
-132.58
-106.44
-80.73
-58.36
-40.30
-26.60
-17.08
-11.42
-8.70
-7.65
-6.74
-4.84
-1.43
3.04
7.30
10.20
11.10
10.39
9.17
8.74
10.15
13.87
19.17
24.59
28.81
30.89
31.08
30.58
30.43
31.37
33.13
34.51
33.90
30.35
23.86
16.11
9.68
6.21
6.37
9.07
11.93
11.83
6.39
-6.00
-26.24
-50.30
-76.02
-100.85
-121.62
-134.82
-138.39
-132.80
-122.11
-112.67
-110.11
-116.91
-129.49
-139.75
-138.64
-120.53
-85.64
-39.75
8.59
51.47
83.08
100.45
101.62
84.86
48.96
-4.83
-70.82
-138.62
-194.88
-227.98
-231.63
-208.02
-167.59
-125.56
-96.05
-86.27
-93.21
-104.86
-106.24
-85.87
-41.09
21.54
90.21
153.92
207.01
249.06
282.07
306.21
318.41
314.00
290.16
248.14
192.94
130.66
65.91
1.99
-57.42
-106.04
-135.25
-137.51
-111.24
-64.39
-13.14
23.89
33.89
15.50
-20.43
-56.46
-76.64
-73.41
-49.99
-17.07
12.74
30.51
33.21
22.95
4.75
-16.28
-35.56
-49.21
-54.07
-48.46
-32.88
-10.45
14.13
36.06
51.19
56.78
50.93
32.88
3.87
-31.72
-65.82
-88.25
-89.61
-64.93
-15.97
48.45
114.99
169.91
203.24
211.16
195.82
163.73
123.06
81.89
47.45
25.97
22.20
37.69
69.33
109.04
145.56
168.19
170.57
152.38
118.18
74.11
24.76
-26.95
-78.15
-123.96
-157.07
-170.48
-161.00
-131.96
-92.36
-53.33
-24.16
-9.76
-10.72
-24.83
-48.29
-76.37
-103.46
-123.23
-129.83
-119.64
-92.37
-51.34
-2.33
47.31
90.09
119.54
131.61
125.97
106.28
79.25
52.05
29.38
11.47
-5.26
-26.06
-55.17
-93.82
-139.62
-186.78
-227.63
-253.92
-258.50
-237.19
-190.14
-122.78
-45.14
30.16
90.94
128.09
137.67
121.41
85.92
41.12
-2.22
-34.55
-49.89
-46.53
-27.00
3.13
36.76
66.61
86.73
93.60
87.11
70.22
48.23
26.93
10.94
2.54
1.52
6.33
14.80
25.30
36.70
47.93
57.62
64.14
66.09
63.18
56.53
47.92
39.41
32.29
26.88
22.96
20.01
17.78
15.90
13.95
11.33
7.60
2.72
-2.81
-8.12
-12.45
-15.41
-17.49
-19.65
-23.22
-29.35
-38.65
-51.05
-65.44
-80.17
-92.96
-101.76
-105.32
-103.72
-98.16
-90.26
-81.07
-70.48
-58.12
-43.72
-28.20
-13.71
-2.81
2.78
3.35
0.86
-1.64
-1.63
1.97
8.23
14.93
19.52
20.29
17.20
11.36
4.93
-0.16
-2.84
-3.20
-2.41
-2.09
-4.23
-10.51
-22.08
-38.82
-58.97
-78.88
-93.36
-97.16
-87.00
-64.12
-34.55
-7.82
6.82
4.38
-13.43
-38.29
-58.76
-64.48
-50.02
-16.17
31.06
83.36
132.94
174.42
205.34
224.80
232.84
229.56
215.43
192.09
163.00
133.51
109.36
95.10
92.50
99.87
112.51
124.30
129.48
124.40
108.19
81.99
48.09
8.86
-33.62
-77.27
-119.40
-156.38
-184.23
-199.46
-200.05
-185.96
-159.19
-123.00
-81.31
-37.97
3.45
39.20
65.97
81.32
84.58
77.28
62.70
44.96
27.50
12.37
0.25
-8.72
-14.28
-15.78
-12.81
-6.04
2.19
8.08
7.86
-0.52
-15.94
-34.05
-48.50
-52.67
-42.02
-15.40
24.38
70.93
115.48
148.83
163.48
155.59
125.85
78.55
20.01
-43.76
-108.26
-170.28
-226.58
-272.42
-302.04
-310.08
-294.25
-256.89
-204.61
-145.63
-86.39
-29.15
28.07
88.30
152.35
215.98
270.35
305.58
315.11
299.28
264.81
222.06
180.43
145.21
116.51
90.87
63.79
31.85
-6.12
-49.36
-94.67
-136.41
-166.42
-175.63
-157.45
-111.18
-44.57
27.27
86.12
116.82
112.31
75.92
20.02
-38.20
-81.64
-98.16
-82.41
-36.53
31.11
107.65
177.88
227.24
244.68
226.20
176.57
108.86
40.56
-11.95
-38.64
-38.80
-20.00
4.97
23.08
24.18
3.06
-40.08
-99.60
-164.61
-221.04
-254.66
-255.79
-223.36
-166.43
-101.78
-48.42
-21.48
-27.43
-63.36
-118.20
-176.66
-223.28
-246.03
-239.07
-203.77
-148.42
-85.53
-28.16
14.12
37.20
42.36
34.35
18.97
1.52
-14.34
-26.15
-32.80
-34.26
-31.40
-25.52
-17.37
-7.07
6.03
22.63
42.90
66.04
90.38
113.66
133.45
147.45
153.33
149.46
135.39
112.50
84.30
55.75
32.07
16.85
10.83
11.59
14.53
14.20
6.31
-10.98
-36.31
-65.53
-93.06
-113.31
-122.21
-118.11
-101.99
-77.06
-47.73
-18.79
5.35
21.39
27.34
22.62
8.64
-11.11
-30.96
-43.92
-44.06
-28.25
2.34
42.29
83.71
118.54
140.73
147.17
137.61
114.17
80.70
42.07
3.60
-29.75
-54.06
-67.22
-69.48
-63.23
-52.53
-42.08
-35.85
-36.33
-43.89
-57.18
-73.95
-91.91
-109.19
-124.53
-136.85
-145.02
-147.80
-144.26
-134.54
-120.30
-104.78
-92.00
-85.40
-86.45
-93.47
-101.78
-104.84
-96.20
-71.82
-31.56
20.74
78.58
135.16
185.39
226.62
258.85
283.97
304.77
324.09
343.33
361.75
375.77
380.08
369.60
341.84
298.16
243.50
184.60
127.63
76.77
33.36
-3.22
-34.74
-63.25
-90.15
-115.72
-138.51
-155.93
-164.98
-163.97
-153.63
-137.40
-120.22
-106.92
-100.44
-101.21
-107.93
-118.33
-130.16
-141.51
-150.50
-155.27
-154.03
-145.88
-131.29
-112.16
-91.30
-71.57
-55.00
-42.23
-32.58
-24.35
-15.92
-6.36
4.07
13.89
21.13
24.30
23.39
19.76
15.72
13.60
14.63
18.60
24.17
29.60
33.82
36.79
39.00
41.01
42.84
43.84
43.20
40.41
35.92
30.81
26.28
23.09
21.16
19.64
17.53
14.38
10.76
8.26
8.54
12.53
19.91
29.11
38.20
45.64
51.06
54.76
57.23
58.61
58.59
56.82
53.45
49.43
46.27
45.46
47.30
50.66
53.07
51.33
42.93
26.71
3.63
-23.68
-51.67
-76.71
-95.74
-106.73
-108.72
-101.77
-86.93
-65.91
-41.35
-16.33
5.96
22.70
32.25
34.40
30.74
23.96
17.04
12.28
10.54
11.11
12.26
12.34
10.85
8.92
8.46
11.28
18.03
27.76
38.59
48.30
55.34
58.77
58.32
54.24
47.15
37.79
27.24
16.77
7.79
1.67
-0.93
-0.27
2.41
5.06
5.56
2.42
-4.64
-15.03
-27.79
-42.21
-58.17
-75.97
-95.64
-116.21
-135.31
-149.55
-155.74
-152.02
-138.79
-118.63
-95.27
-72.27
-51.77
-34.51
-20.40
-9.30
-1.60
1.72
0.01
-6.41
-15.65
-24.52
-29.92
-29.89
-24.46
-15.62
-6.34
0.70
4.37
5.16
4.87
5.53
8.25
12.47
16.25
17.22
14.19
8.38
3.15
2.86
10.81
27.44
49.77
72.19
88.70
94.63
88.16
70.74
46.41
20.44
-1.89
-16.43
-20.93
-15.19
-1.49
16.09
32.51
42.98
44.47
36.53
21.74
4.62
-9.91
-18.36
-19.71
-15.26
-7.22
2.91
15.23
31.00
50.66
72.43
91.88
103.32
102.43
88.27
64.23
36.73
12.92
-1.41
-3.23
7.61
28.98
57.36
88.62
118.90
145.04
164.86
177.25
181.78
178.35
166.81
147.00
118.83
82.66
39.66
-8.26
-58.76
-109.26
-157.15
-199.55
-233.02
-253.83
-258.46
-244.58
-212.16
-163.75
-103.89
-37.96
29.01
92.74
149.32
194.28
222.32
228.55
210.99
173.21
124.90
79.68
50.60
45.07
61.76
91.43
121.10
139.64
141.92
129.45
108.37
85.65
65.64
48.82
32.60
13.34
-11.87
-44.02
-81.77
-120.95
-154.55
-173.69
-170.23
-139.95
-85.17
-15.00
57.10
117.02
154.44
165.66
153.23
123.04
81.44
33.52
-17.33
-68.50
-118.75
-166.35
-207.51
-235.84
-244.45
-228.80
-188.44
-129.15
-61.46
-0.04
42.37
60.46
58.43
46.07
33.14
25.96
24.01
22.49
12.44
-13.58
-57.37
-114.04
-176.38
-238.96
-298.72
-356.18
-394.01
-395.05
-356.12
-291.07
-216.06
-140.79
-74.91
-16.57
31.83
66.90
84.03
81.53
60.29
26.92
-9.81
-42.03
-62.92
-69.50
-61.34
-43.54
-24.99
-14.79
-18.46
-37.19
-68.10
-104.53
-140.30
-170.55
-194.22
-212.17
-224.04
-226.32
-214.10
-184.23
-136.80
-76.85
-11.64
51.29
106.44
151.30
185.61
209.15
220.37
217.17
198.05
163.94
118.89
69.99
26.22
-4.24
-17.31
-15.24
-5.86
0.98
-1.85
-14.84
-31.38
-40.77
-33.43
-5.14
41.74
100.33
162.53
220.60
267.47
296.34
301.65
281.41
239.93
188.65
143.32
119.11
124.34
157.91
211.04
272.25
331.91
383.87
424.34
450.00
