1592925429.00
64.000000
-0.00
-0.00
-0.00
-0.00
-0.00
-0.00
-0.00
-0.00
-0.00
-0.00
0.00
0.01
0.01
-0.00
-0.03
-0.05
-0.05
0.00
0.13
0.36
0.66
1.01
1.37
1.72
2.06
2.40
2.79
3.24
3.80
4.44
5.10
5.74
6.33
6.89
7.49
8.19
9.06
10.21
11.55
12.96
14.31
15.51
16.59
17.70
19.06
20.85
23.33
26.33
29.59
32.79
35.75
38.51
41.38
44.82
49.21
54.97
61.79
69.15
76.44
83.24
89.57
95.92
103.08
111.68
122.39
134.80
148.09
161.24
173.50
184.77
195.65
207.62
219.66
234.34
252.43
274.00
297.53
319.72
335.89
341.28
332.76
309.95
275.77
234.42
190.14
145.69
101.90
58.41
14.82
-28.39
-69.95
-108.12
-142.24
-172.65
-200.52
-227.23
-253.94
-281.42
-309.97
-339.49
-368.82
-395.76
-417.10
-429.44
-430.38
-419.44
-398.36
-370.48
-339.49
-308.23
-278.38
-250.54
-224.88
-201.50
-180.58
-162.05
-145.41
-129.84
-114.47
-98.95
-83.50
-68.83
-55.76
-44.81
-36.00
-28.81
-22.47
-16.24
-9.71
-2.94
3.62
9.39
13.94
17.18
19.41
21.14
22.81
24.63
26.52
28.18
29.33
29.83
29.79
29.48
29.22
29.23
29.59
30.21
30.90
31.47
31.77
31.69
31.17
30.15
28.61
26.60
24.30
22.00
20.03
18.59
17.64
16.96
16.24
15.26
14.04
12.77
11.69
10.90
10.36
9.91
9.41
8.85
8.32
7.95
7.75
7.66
7.59
7.60
7.84
8.53
9.76
11.38
12.99
14.07
14.20
13.24
11.38
9.10
6.98
5.50
4.91
5.21
6.15
7.42
8.73
9.87
10.75
11.34
11.68
11.77
11.67
11.46
11.21
10.96
10.65
10.11
9.11
7.42
4.98
1.93
-1.39
-4.53
-7.09
-8.81
-9.68
-9.86
-9.62
-9.26
-8.95
-8.78
-8.75
-8.87
-9.14
-9.53
-10.03
-10.56
-11.04
-11.36
-11.48
-11.36
-11.03
-10.56
-10.06
-9.66
-9.43
-9.36
-9.30
-9.07
-8.51
-7.55
-6.33
-5.03
-3.86
-2.93
-2.24
-1.71
-1.26
-0.91
-0.70
-0.71
-0.95
-1.34
-1.72
-1.93
-1.87
-1.55
-1.12
-0.73
-0.49
-0.37
-0.27
-0.14
0.00
0.00
-0.27
-0.80
-1.35
-1.60
-1.26
-0.32
0.98
2.30
3.38
4.23
5.03
6.03
7.29
8.68
9.93
10.83
11.32
11.48
11.43
11.24
10.90
10.40
9.81
9.31
9.14
9.48
10.32
11.38
12.26
12.57
12.04
10.68
8.76
6.66
4.79
3.39
2.55
2.20
2.21
2.46
2.81
3.15
3.33
3.26
2.93
2.46
2.11
2.12
2.65
3.63
4.85
5.99
6.80
7.16
7.12
6.85
6.57
6.40
6.39
6.45
6.46
6.29
5.93
5.42
4.88
4.42
4.11
3.97
4.03
4.34
4.95
5.88
7.00
8.08
8.81
8.94
8.42
7.41
6.22
5.12
4.28
3.67
3.17
2.64
2.01
1.24
0.33
-0.75
-1.96
-3.26
-4.53
-5.68
-6.64
-7.41
-8.04
-8.57
-8.96
-9.09
-8.86
-8.22
-7.23
-6.08
-4.98
-4.09
-3.45
-3.02
-2.73
-2.52
-2.35
-2.24
-2.13
-1.96
-1.62
-1.03
-0.20
0.76
1.67
2.36
2.76
2.93
3.00
3.08
3.23
3.38
3.38
3.08
2.36
1.23
-0.14
-1.47
-2.44
-2.84
-2.66
-2.10
-1.47
-1.09
-1.09
-1.44
-1.99
-2.52
-2.86
-2.87
-2.43
-1.48
-0.01
1.84
3.79
5.52
6.78
7.48
7.70
7.68
7.62
7.66
7.80
7.90
7.78
7.34
6.54
5.48
4.32
3.20
2.19
1.30
0.54
-0.08
-0.52
-0.74
-0.79
-0.78
-0.87
-1.18
-1.71
-2.40
-3.08
-3.59
-3.82
-3.66
-3.12
-2.29
-1.37
-0.67
-0.45
-0.85
-1.82
-3.09
-4.35
-5.32
-5.81
-5.79
-5.31
-4.54
-3.63
-2.76
-2.05
-1.51
-1.09
-0.66
-0.06
0.86
2.23
4.11
6.40
8.86
11.16
12.92
13.88
13.99
13.46
12.69
12.07
11.81
11.87
11.92
11.48
10.17
7.80
4.56
0.91
-2.56
-5.36
-7.26
-8.28
-8.59
-8.31
-7.50
-6.17
-4.42
-2.54
-0.95
-0.05
-0.05
-0.87
-2.17
-3.56
-4.71
-5.50
-5.92
-6.03
-5.84
-5.31
-4.47
-3.36
-2.17
-1.09
-0.28
0.20
0.38
0.31
0.05
-0.40
-1.05
-1.83
-2.63
-3.22
-3.41
-3.08
-2.31
-1.29
-0.31
0.40
0.73
0.71
0.45
0.10
-0.25
-0.54
-0.71
-0.73
-0.57
-0.24
0.19
0.66
1.08
1.43
1.73
1.99
2.20
2.32
2.38
2.43
2.62
3.09
3.90
4.93
5.96
6.72
7.03
6.90
6.49
6.09
5.92
6.07
6.44
6.81
6.93
6.64
5.91
4.82
3.53
2.16
0.82
-0.41
-1.49
-2.35
-3.00
-3.52
-4.04
-4.68
-5.47
-6.30
-6.98
-7.33
-7.28
-6.90
-6.38
-5.86
-5.39
-4.91
-4.31
-3.50
-2.53
-1.54
-0.67
-0.01
0.43
0.75
1.04
1.35
1.67
1.95
2.12
2.18
2.19
2.27
2.50
2.86
3.28
3.59
3.68
3.50
3.09
2.55
2.02
1.60
1.35
1.25
1.22
1.13
0.86
0.31
-0.54
-1.57
-2.62
-3.47
-4.01
-4.24
-4.30
-4.37
-4.60
-5.02
-5.55
-6.03
-6.35
-6.46
-6.37
-6.09
-5.64
-5.00
-4.27
-3.66
-3.40
-3.68
-4.50
-5.69
-6.95
-8.09
-9.13
-10.31
-11.93
-14.14
-16.83
-19.64
-22.16
-24.16
-25.76
-27.36
-29.45
-32.29
-35.71
-39.02
-41.33
-41.95
-40.82
-38.53
-36.07
-34.35
-33.73
-33.85
-33.89
-33.13
-31.46
-29.62
-29.04
-31.15
-36.74
-45.45
-55.88
-66.23
-75.02
-81.61
-86.19
-89.24
-90.99
-91.37
-90.28
-88.07
-85.52
-83.07
-79.69
-72.41
-57.06
-30.54
7.07
51.43
95.09
130.38
152.68
161.88
161.48
155.94
148.01
137.81
123.98
105.85
85.04
65.24
50.42
42.66
40.97
41.89
41.54
37.60
30.46
22.71
17.60
17.23
21.58
28.67
35.63
40.33
42.37
43.23
45.64
51.96
63.16
78.45
95.66
112.11
125.26
132.84
132.84
123.89
105.94
81.01
53.19
27.51
8.12
-3.33
-8.08
-9.03
-8.84
-8.53
-7.38
-3.94
2.48
11.25
20.97
30.34
38.65
45.18
48.50
46.37
36.86
19.91
-1.69
-23.01
-39.19
-47.67
-49.21
-46.89
-44.02
-42.31
-41.38
-39.77
-36.42
-31.52
-26.24
-21.82
-18.71
-16.49
-14.47
-12.32
-10.29
-8.95
-8.89
-10.12
-12.20
-14.45
-16.23
-17.19
-17.29
-16.68
-15.62
-14.37
-13.23
-12.59
-12.93
-14.60
-17.67
-21.68
-25.80
-29.01
-30.65
-30.55
-29.06
-26.75
-24.08
-21.32
-18.57
-16.11
-14.40
-14.03
-15.30
-17.94
-21.07
-23.49
-24.22
-22.90
-19.98
-16.46
-13.40
-11.53
-10.98
-11.36
-12.01
-12.36
-12.09
-11.22
-10.02
-8.79
-7.73
-6.88
-6.13
-5.34
-4.42
-3.40
-2.47
-1.89
-1.93
-2.75
-4.37
-6.50
-8.61
-10.03
-10.12
-8.65
-5.98
-3.03
-0.93
-0.55
-2.05
-4.81
-7.78
-9.93
-10.77
-10.49
-9.78
-9.40
-9.80
-10.83
-11.80
-11.77
-10.00
-6.41
-1.84
2.02
3.27
0.59
-5.99
-14.95
-23.87
-30.56
-34.02
-34.95
-35.24
-36.97
-41.48
-48.91
-58.47
-68.80
-78.07
-83.86
-83.22
-73.55
-54.31
-28.38
-1.93
17.69
25.29
20.29
6.99
-7.85
-18.53
-22.93
-22.70
-21.25
-21.16
-22.43
-22.74
-19.02
-9.26
6.48
26.22
46.97
65.78
80.57
90.33
95.12
95.39
91.67
84.27
73.51
60.32
46.55
34.71
27.04
24.48
26.07
29.33
31.37
30.19
25.41
18.39
11.45
6.80
5.70
8.01
12.23
16.05
16.98
12.82
2.01
-16.01
-40.19
-67.27
-91.71
-106.79
-106.88
-89.83
-58.31
-19.07
19.78
52.08
75.45
90.80
100.15
104.27
102.11
92.05
74.08
50.98
27.73
9.28
-1.62
-5.33
-4.44
-2.05
-0.12
1.01
2.05
3.67
5.84
7.81
8.70
8.02
6.01
3.42
1.25
0.33
0.98
2.96
5.68
8.39
10.46
11.65
12.09
12.04
11.65
10.76
9.00
6.12
2.30
-1.64
-4.53
-5.39
-4.01
-1.09
2.02
4.06
4.49
3.81
3.14
3.68
6.14
10.57
16.45
22.85
28.47
31.77
31.16
25.59
15.11
1.24
-13.42
-25.99
-34.35
-37.78
-36.86
-32.86
-27.09
-20.44
-13.51
-6.97
-1.81
0.63
-0.89
-6.99
-17.16
-29.71
-41.98
-51.31
-55.86
-55.35
-51.10
-45.33
-40.19
-36.81
-35.11
-34.15
-32.97
-31.31
-29.70
-29.11
-30.09
-32.08
-33.28
-31.23
-23.90
-10.95
5.68
22.25
34.47
39.35
36.42
27.91
17.74
9.81
6.53
8.11
12.97
18.71
23.34
25.86
26.39
25.78
24.93
24.39
24.08
23.57
22.43
20.61
18.43
16.47
15.14
14.41
13.92
13.14
11.80
10.03
8.30
7.10
6.67
6.90
7.42
7.86
8.03
7.92
7.63
7.17
6.43
5.24
3.66
2.08
1.31
2.35
5.92
12.01
19.48
26.28
30.07
29.16
23.21
13.31
1.47
-10.25
-20.46
-28.69
-35.00
-39.52
-42.07
-42.21
-39.53
-33.95
-25.95
-16.40
-6.44
2.77
10.23
15.32
17.87
18.28
17.24
15.52
13.62
11.74
9.91
8.15
6.61
5.48
4.76
4.14
3.08
1.06
-2.11
-6.14
-10.33
-13.80
-15.79
-15.91
-14.24
-11.20
-7.43
-3.59
-0.26
2.17
3.49
3.73
3.14
2.17
1.42
1.38
2.32
4.08
6.23
8.20
9.57
10.23
10.36
10.34
10.63
11.68
13.85
17.24
21.57
26.05
29.60
31.21
30.43
27.68
24.17
21.43
20.64
22.13
25.23
28.52
30.44
29.93
26.90
22.23
17.38
13.64
11.43
10.09
8.30
4.89
-0.29
-6.22
-11.43
-14.87
-16.51
-16.79
-15.65
-11.71
-2.96
11.41
29.54
46.49
55.60
51.15
30.75
-3.76
-47.16
-92.87
-134.74
-167.71
-187.93
-192.61
-180.50
-152.60
-112.48
-65.79
-18.75
23.45
57.74
83.43
101.60
114.08
122.18
125.86
123.56
113.25
93.83
66.47
34.76
4.03
-20.57
-36.06
-42.45
-42.21
-38.67
-34.38
-30.46
-26.82
-23.11
-19.46
-16.53
-15.04
-15.23
-16.65
-18.58
-20.50
-22.40
-24.70
-27.89
-32.05
-36.63
-40.71
-43.45
-44.63
-44.76
-44.75
-45.35
-46.56
-47.45
-46.71
-43.38
-37.64
-30.99
-25.78
-24.31
-27.92
-36.57
-48.89
-62.31
-73.26
-77.56
-71.53
-53.37
-24.54
9.98
43.10
68.18
81.57
83.77
78.46
70.09
61.68
53.85
45.80
36.94
28.19
21.75
19.71
22.40
27.87
32.64
33.25
27.99
17.47
4.55
-6.76
-12.41
-9.56
2.50
21.55
42.25
56.81
56.72
35.51
-8.44
-70.08
-138.41
-199.45
-240.73
-255.20
-242.74
-208.77
-160.77
-105.03
-45.26
16.40
77.20
132.54
176.64
205.08
217.27
216.92
209.77
200.14
188.47
171.55
145.39
108.48
63.83
17.97
-22.07
-51.84
-70.61
-80.14
-82.39
-77.85
-65.83
-46.08
-20.65
5.83
27.74
40.98
44.78
41.72
36.03
31.21
28.57
27.22
25.38
21.92
17.23
12.89
10.74
11.80
15.75
21.15
26.23
29.70
31.46
32.61
34.95
39.90
47.62
56.67
64.48
68.55
67.78
63.03
56.88
52.53
52.40
57.18
65.61
75.04
82.27
84.50
80.05
68.95
53.07
35.74
21.01
12.18
10.34
13.67
17.66
16.24
3.80
-22.79
-62.96
-112.32
-164.08
-211.34
-249.23
-275.88
-291.80
-298.51
-297.28
-289.06
-274.99
-257.37
-239.31
-223.40
-209.93
-195.97
-176.08
-144.61
-98.45
-38.94
28.04
93.93
150.21
190.85
214.01
221.96
219.83
213.58
208.14
206.16
207.86
211.60
214.39
212.67
202.93
182.79
152.16
113.89
73.43
37.13
10.02
-5.84
-11.45
-9.72
-3.68
4.67
14.21
23.73
31.04
33.16
27.52
13.57
-6.31
-27.44
-44.51
-53.84
-54.63
-49.06
-40.81
-33.20
-27.69
-23.64
-19.28
-13.06
-4.79
4.31
12.48
18.46
22.30
25.28
29.10
34.94
42.86
51.94
60.65
67.38
70.82
70.19
65.47
57.74
49.07
41.84
37.54
35.51
32.94
26.00
11.90
-9.35
-34.70
-59.42
-79.37
-92.79
-100.61
-105.31
-109.11
-112.78
-115.55
-116.08
-113.43
-107.86
-100.61
-93.07
-86.03
-79.33
-72.06
-63.16
-52.26
-40.07
-28.26
-18.77
-12.97
-11.20
-12.76
-16.50
-21.54
-27.52
-34.31
-41.28
-46.92
-49.21
-46.64
-39.23
-28.92
-18.86
-11.92
-9.49
-10.98
-14.46
-17.80
-19.72
-20.18
-20.04
-20.45
-22.23
-25.70
-30.86
-37.58
-45.77
-55.27
-65.37
-74.66
-81.11
-82.93
-79.67
-72.92
-66.01
-62.69
-65.45
-74.25
-86.74
-99.71
-110.88
-120.15
-129.56
-142.03
-159.62
-182.16
-206.78
-228.66
-242.46
-244.15
-232.36
-208.79
-177.42
-142.86
-108.47
-75.25
-42.20
-7.36
30.82
72.65
117.20
162.71
207.06
247.90
282.60
308.64
324.22
329.23
325.57
316.52
305.09
292.22
276.19
253.64
222.02
181.86
137.52
95.68
62.51
40.97
30.07
26.08
24.96
24.39
24.21
25.31
27.98
31.19
32.99
31.79
27.40
21.25
15.55
12.18
11.88
14.07
17.36
20.27
21.82
21.80
20.71
19.42
18.79
19.38
21.32
24.39
28.21
32.39
36.66
40.78
44.54
47.69
50.00
51.36
51.96
52.31
53.33
56.28
62.34
72.00
84.22
95.95
102.39
98.39
80.48
48.67
7.08
-37.29
-76.87
-106.07
-122.65
-127.57
-123.74
-114.45
-102.41
-89.61
-77.45
-67.01
-58.88
-53.15
-49.38
-46.94
-45.36
-44.40
-44.04
-44.27
-44.97
-45.97
-46.97
-47.37
-46.34
-42.93
-36.67
-28.07
-18.74
-10.88
-6.37
-5.86
-8.47
-12.28
-15.30
-16.35
-15.44
-13.41
-11.38
-10.07
-9.58
-9.48
-9.20
-8.37
-7.05
-5.68
-4.72
-4.28
-3.96
-3.05
-1.07
1.82
4.70
6.29
5.63
2.71
-1.57
-5.72
-8.53
-9.62
-9.58
-9.58
-10.67
-13.24
-16.92
-20.95
-24.57
-27.55
-30.21
-33.12
-36.77
-41.29
-46.52
-52.13
-57.86
-63.50
-68.69
-72.60
-73.99
-71.71
-65.45
-56.43
-47.37
-41.63
-41.81
-48.71
-61.04
-76.10
-90.99
-103.46
-111.89
-114.58
-109.30
-93.68
-66.73
-30.31
10.45
48.42
77.26
93.85
99.21
97.49
93.48
90.35
88.70
87.24
84.25
78.86
71.34
62.56
53.31
44.06
35.20
27.39
21.68
19.05
19.84
23.38
28.05
31.91
33.57
32.73
30.43
28.82
30.73
39.05
55.97
82.21
116.41
155.14
193.59
227.04
252.44
269.30
279.42
285.43
288.93
289.46
284.67
271.76
249.20
217.57
179.04
135.98
89.69
40.31
-11.90
-64.88
-114.14
-153.63
-178.14
-185.71
-178.71
-162.84
-144.78
-129.72
-120.02
-115.41
-114.16
-114.49
-115.20
-115.71
-115.58
-114.34
-111.44
-106.62
-100.01
-92.11
-83.69
-75.52
-68.15
-61.85
-56.59
-52.00
-47.58
-42.86
-37.72
-32.36
-27.25
-22.78
-19.09
-16.00
-13.18
-10.32
-7.34
-4.49
-2.17
-0.76
-0.41
-0.93
-1.92
-2.87
-3.42
-3.48
-3.27
-3.13
-3.37
-4.10
-5.26
-6.59
-7.87
-9.01
-9.99
-10.85
-11.57
-12.16
-12.70
-13.44
-14.71
-16.76
-19.49
-22.39
-24.83
-26.38
-27.18
-27.80
-29.01
-31.22
-34.24
-37.32
-39.40
-39.53
-37.07
-31.90
-24.31
-15.06
-5.33
3.50
10.06
13.49
13.63
11.08
6.97
2.52
-1.28
-3.90
-5.29
-5.84
-6.22
-7.03
-8.50
-10.40
-12.07
-12.90
-12.68
-11.76
-10.68
-9.69
-8.48
-6.30
-2.64
2.26
7.41
11.55
14.03
15.22
16.42
19.19
24.63
33.05
44.07
56.93
70.77
84.65
97.40
107.63
113.78
114.59
109.44
98.56
83.05
64.72
45.77
28.41
14.53
5.40
1.47
2.33
6.72
12.71
17.97
20.33
18.39
12.05
2.59
-7.80
-16.82
-22.85
-25.30
-24.60
-21.78
-18.09
-14.68
-12.52
-12.25
-14.03
-17.49
-21.74
-25.72
-28.48
-29.52
-28.82
-26.70
-23.59
-19.92
-16.08
-12.46
-9.48
-7.46
-6.56
-6.70
-7.58
-8.72
-9.50
-9.30
-7.65
-4.35
0.35
5.86
11.39
16.23
20.01
22.80
25.08
27.49
30.57
34.54
39.22
44.10
48.58
52.33
55.47
58.62
62.63
68.27
75.90
85.58
97.29
111.27
127.94
147.56
169.26
190.60
207.66
215.98
212.02
194.31
163.63
122.28
73.15
19.29
-35.72
-87.33
-130.16
-159.20
-171.69
-168.37
-153.36
-132.43
-110.61
-90.56
-72.46
-55.15
-37.82
-20.97
-6.40
3.48
6.73
2.57
-8.32
-23.97
-41.66
-58.61
-72.87
-83.65
-91.22
-96.21
-98.97
-99.21
-96.32
-90.10
-81.30
-71.60
-62.92
-56.57
-52.66
-50.28
-48.13
-45.17
-41.15
-36.59
-32.30
-28.90
-26.43
-24.39
-22.04
-18.76
-14.44
-9.51
-4.79
-1.15
0.89
1.35
0.77
-0.04
-0.37
0.12
1.15
2.09
2.18
1.01
-1.35
-4.35
-7.17
-9.11
-9.66
-8.78
-6.60
-3.60
-0.49
1.71
1.90
-0.84
-6.90
-15.92
-26.65
-37.15
-45.20
-48.75
-46.61
-38.82
-26.73
-12.75
0.37
10.38
16.20
18.06
17.21
15.22
13.30
12.06
11.57
11.62
11.81
11.55
10.06
6.58
0.82
-6.92
-15.53
-23.56
-29.82
-33.88
-36.17
-37.65
-39.23
-41.36
-44.02
-46.83
-49.56
-52.30
-55.49
-59.61
-64.74
-70.23
-74.86
-77.19
-76.23
-72.08
-66.01
-59.75
-54.73
-51.50
-49.76
-48.95
-49.15
-51.32
-56.64
-65.44
-76.24
-86.07
-92.00
-93.06
-91.41
-91.69
-98.49
-113.52
-133.91
-152.85
-162.41
-156.82
-134.49
-97.90
-51.81
-1.19
49.91
98.15
140.27
172.83
193.03
199.86
194.86
181.74
165.05
148.67
134.84
124.25
116.69
111.65
108.64
107.10
106.21
105.07
102.92
99.50
95.12
90.42
86.11
82.55
79.62
76.80
73.36
68.56
61.86
53.10
42.58
31.08
19.73
9.67
1.73
-3.80
-7.17
-8.83
-9.17
-8.38
-6.52
-3.79
-0.76
1.67
2.58
1.48
-1.41
-5.22
-8.75
-10.94
-11.15
-9.34
-5.90
-1.58
2.78
6.40
8.77
9.80
9.90
9.80
10.23
11.56
13.59
15.60
16.71
16.21
13.82
9.72
4.36
-1.76
-8.17
-14.39
-19.82
-23.87
-26.11
-26.56
-25.78
-24.71
-24.30
-25.18
-27.38
-30.51
-33.98
-37.42
-40.86
-44.63
-48.99
-53.87
-58.75
-62.90
-65.86
-67.71
-69.12
-71.06
-74.33
-79.22
-85.56
-93.02
-101.43
-110.92
-121.71
-133.68
-146.07
-157.54
-166.65
-172.54
-175.33
-176.23
-176.95
-178.78
-181.72
-184.14
-183.18
-175.80
-159.97
-135.35
-103.13
-65.29
-23.71
20.15
64.84
108.19
147.11
178.13
198.71
208.37
209.00
204.07
197.07
190.16
183.75
177.14
169.44
160.50
151.00
141.99
134.15
127.48
121.38
115.08
108.11
100.42
92.45
84.75
77.75
71.62
66.26
61.39
56.74
52.14
47.54
43.06
38.87
35.15
31.94
29.20
26.78
24.54
22.42
20.51
18.96
17.87
17.19
16.76
16.33
15.76
15.06
14.38
13.90
13.69
13.70
13.82
14.02
14.34
14.94
15.88
17.06
18.17
18.91
19.17
19.20
19.59
20.95
23.57
27.21
31.10
34.38
36.44
37.37
37.84
38.87
41.33
45.53
51.12
57.42
63.75
69.79
75.57
80.98
85.47
88.14
88.27
85.78
81.18
74.93
66.80
55.84
41.17
23.29
4.80
-10.16
-17.65
-16.02
-6.88
5.57
16.68
23.57
26.21
26.93
28.81
34.05
42.96
53.85
63.45
67.64
62.40
45.01
15.15
-24.46
-68.37
-109.82
-142.79
-163.73
-172.28
-170.66
-162.20
-149.95
-135.90
-121.15
-106.48
-92.86
-81.39
-72.77
-66.86
-62.52
-58.14
-52.50
-45.36
-37.63
-30.81
-26.20
-24.09
-23.54
-22.72
-19.81
-13.82
-5.04
5.16
14.85
22.35
26.65
27.53
25.41
21.06
15.38
9.22
3.29
-2.00
-6.65
-10.93
-15.13
-19.22
-22.66
-24.66
-24.57
-22.46
-19.30
-16.69
-16.24
-18.82
-24.19
-31.04
-37.48
-41.86
-43.31
-42.10
-39.51
-37.36
-37.30
-39.87
-43.79
-46.06
-42.95
-31.67
-11.94
13.63
40.51
64.08
81.29
91.04
93.46
88.86
77.23
58.91
35.58
10.64
-11.58
-27.59
-36.30
-39.31
-39.76
-40.36
-41.98
-43.53
-42.82
-37.99
-28.53
-15.46
-0.99
12.19
21.50
25.12
22.44
14.36
3.07
-8.60
-18.05
-23.79
-25.79
-25.28
-24.09
-23.90
-25.51
-28.43
-30.94
-30.54
-24.93
-13.07
4.14
23.92
42.60
57.02
65.67
69.09
69.23
68.29
67.88
68.55
70.00
71.30
70.85
66.46
55.69
36.77
9.82
-22.48
-55.23
-82.88
-101.00
-107.81
-104.49
-94.51
-82.24
-71.68
-65.62
-65.24
-70.30
-79.45
-90.66
-101.67
-110.46
-115.59
-116.45
-113.77
-110.06
-109.33
-115.94
-132.63
-158.70
-189.39
-217.04
-233.80
-234.66
-219.03
-190.34
-153.83
-113.93
-72.49
-28.85
18.48
69.83
122.99
173.44
215.72
245.30
260.02
260.51
249.81
231.96
210.82
189.22
168.88
150.75
135.62
124.23
116.98
113.41
111.79
109.53
104.13
94.20
80.09
63.69
47.82
35.22
27.99
27.16
32.70
43.54
57.72
72.86
86.90
98.86
108.84
117.50
124.74
128.94
126.86
114.91
90.57
53.13
3.73
-55.00
-119.10
-183.09
-239.96
-282.05
-302.97
-299.54
-272.84
-227.45
-169.60
-105.24
-39.25
24.21
81.03
127.11
159.45
177.53
183.96
183.59
181.73
182.31
187.03
195.62
206.53
217.47
225.65
227.96
221.30
203.33
173.14
131.57
81.16
25.77
-29.80
-80.43
-121.45
-149.58
-163.79
-165.61
-158.64
-147.24
-135.09
-124.25
-115.15
-107.20
-99.71
-92.36
-85.27
-78.75
-72.94
-67.81
-63.18
-58.88
-54.76
-50.79
-46.92
-43.01
-38.91
-34.44
-29.57
-24.41
-19.27
-14.55
-10.59
-7.57
-5.44
-3.99
-2.95
-2.08
-1.26
-0.52
-0.02
0.04
-0.57
-1.97
-4.18
-6.98
-10.04
-12.89
-15.15
-16.58
-17.22
-17.27
-17.07
-16.87
-16.80
-16.81
-16.76
-16.53
-16.09
-15.57
-15.13
-14.85
-14.63
-14.18
-13.11
-11.15
-8.26
-4.73
-0.99
2.53
5.62
8.28
10.62
12.66
14.29
15.25
15.33
14.49
12.92
10.90
8.77
6.77
5.03
3.53
2.15
0.65
-1.28
-3.83
-6.95
-10.22
-13.04
-14.82
-15.29
-14.61
-13.25
-11.71
-10.20
-8.66
-6.89
-4.85
-2.82
-1.37
-1.08
-2.20
-4.55
-7.57
-10.64
-13.33
-15.51
-17.31
-18.85
-20.13
-20.91
-20.88
-19.77
-17.55
-14.43
-10.72
-6.73
-2.63
1.53
5.85
10.42
15.32
20.54
25.86
30.86
34.97
37.58
38.30
37.10
34.36
30.72
26.91
23.42
20.47
17.99
15.84
13.92
12.21
10.76
9.59
8.62
7.72
6.79
5.76
4.68
3.63
2.72
1.99
1.47
1.08
0.72
0.27
-0.37
-1.23
-2.27
-3.40
-4.53
-5.60
-6.58
-7.47
-8.20
-8.67
-8.76
-8.41
-7.66
-6.63
-5.53
-4.56
-3.84
-3.41
-3.22
-3.21
-3.27
-3.31
-3.24
-2.97
-2.43
-1.60
-0.50
0.76
2.04
3.10
3.64
3.41
2.26
0.25
-2.35
-5.12
-7.66
-9.68
-11.11
-11.99
-12.42
-12.45
-12.04
-11.13
-9.76
-8.09
-6.34
-4.77
-3.53
-2.65
-2.07
-1.68
-1.40
-1.20
-1.13
-1.21
-1.45
-1.78
-2.06
-2.14
-1.92
-1.45
-0.85
-0.30
0.04
0.11
-0.06
-0.33
-0.58
-0.72
-0.70
-0.52
-0.20
0.20
0.63
1.02
1.31
1.49
1.58
1.65
1.76
1.92
2.11
2.29
2.37
2.31
2.08
1.71
1.28
0.88
0.62
0.52
0.58
0.69
0.74
0.64
0.34
-0.11
-0.59
-0.97
-1.15
-1.10
-0.86
-0.51
-0.16
0.10
0.23
0.25
0.18
0.04
-0.17
-0.44
-0.72
-0.96
-1.11
-1.15
-1.11
-1.05
-1.00
-0.99
-0.97
-0.91
-0.79
-0.64
-0.50
-0.39
-0.32
-0.27
-0.22
-0.17
-0.12
-0.04
0.09
0.32
0.64
0.98
1.24
1.31
1.16
0.84
0.46
0.17
0.05
0.10
0.24
0.35
0.39
0.33
0.21
0.06
-0.10
-0.26
-0.41
-0.52
-0.58
-0.62
-0.67
-0.77
-0.94
-1.12
-1.26
-1.31
-1.28
-1.21
-1.15
-1.11
-1.06
-1.00
-0.94
-0.93
-1.00
-1.09
-1.10
-0.92
-0.49
0.11
0.73
1.22
1.50
1.56
1.46
1.29
1.11
0.94
0.82
0.76
0.77
0.82
0.87
0.84
0.67
0.39
0.06
-0.24
-0.42
-0.48
-0.43
-0.33
-0.21
-0.09
-0.01
-0.01
-0.14
-0.43
-0.85
-1.33
-1.71
-1.88
-1.79
-1.44
-0.95
-0.43
0.05
0.46
0.87
1.31
1.82
2.33
2.70
2.81
2.57
2.05
1.38
0.77
0.33
0.10
0.01
-0.03
-0.08
-0.17
-0.25
-0.30
-0.29
-0.23
-0.14
-0.07
-0.05
-0.11
-0.26
-0.48
-0.75
-1.04
-1.34
-1.63
-1.92
-2.17
-2.34
-2.40
-2.33
-2.18
-2.08
-2.12
-2.34
-2.70
-3.10
-3.42
-3.59
-3.61
-3.56
-3.53
-3.60
-3.77
-4.03
-4.32
-4.59
-4.86
-5.17
-5.60
-6.22
-7.01
-7.94
-8.89
-9.77
-10.51
-11.06
-11.37
-11.37
-10.95
-10.06
-8.72
-7.09
-5.36
-3.74
-2.36
-1.27
-0.44
0.14
0.48
0.59
0.52
0.43
0.48
0.89
1.79
3.19
4.98
6.96
8.87
10.52
11.83
12.84
13.68
14.48
15.29
15.99
16.33
16.04
14.95
13.05
10.59
7.97
5.66
3.98
2.99
2.49
2.15
1.66
0.85
-0.21
-1.42
-2.69
-4.08
-5.72
-7.77
-10.18
-12.75
-15.19
-17.26
-18.88
-20.11
-21.02
-21.60
-21.65
-20.94
-19.26
-16.58
-13.09
-9.13
-5.09
-1.31
2.03
4.81
7.04
8.72
9.91
10.67
11.12
11.41
11.64
11.94
12.33
12.79
13.23
13.50
13.50
13.17
12.54
11.77
11.03
10.46
10.14
10.02
9.97
9.85
9.51
8.85
7.81
6.40
4.73
2.96
1.32
0.01
-0.86
-1.27
-1.36
-1.29
-1.21
-1.17
-1.13
-1.05
-0.91
-0.76
-0.70
-0.82
-1.11
-1.50
-1.89
-2.24
-2.64
-3.24
-4.17
-5.39
-6.69
-7.76
-8.33
-8.27
-7.70
-6.84
-5.94
-5.13
-4.40
-3.70
-2.95
-2.18
-1.51
-1.13
-1.15
-1.60
-2.37
-3.26
-4.01
-4.45
-4.47
-4.09
-3.36
-2.37
-1.20
0.04
1.26
2.33
3.16
3.72
4.06
4.32
4.64
5.10
5.68
6.23
6.60
6.63
6.27
5.60
4.75
3.93
3.33
3.08
3.21
3.69
4.43
5.31
6.21
7.07
7.86
8.59
9.31
10.05
10.84
11.65
12.43
13.07
13.49
13.65
13.65
13.64
13.85
14.41
15.28
16.33
17.37
18.27
19.10
20.07
21.41
23.29
25.66
28.14
30.15
30.92
29.76
26.25
20.40
12.70
4.03
-4.65
-12.48
-18.94
-23.80
-27.07
-28.87
-29.40
-28.86
-27.55
-25.83
-24.00
-22.31
-20.83
-19.53
-18.32
-17.16
-16.03
-14.99
-14.07
-13.26
-12.53
-11.83
-11.07
-10.21
-9.20
-8.04
-6.80
-5.60
-4.61
-3.94
-3.62
-3.59
-3.68
-3.71
-3.56
-3.22
-2.71
-2.14
-1.58
-1.11
-0.75
-0.50
-0.31
-0.15
0.03
0.22
0.41
0.56
0.65
0.68
0.67
0.65
0.62
0.59
0.58
0.59
0.63
0.73
0.85
0.96
1.01
0.95
0.78
0.55
0.32
0.15
0.06
0.06
0.10
0.14
0.14
0.11
0.09
0.10
0.16
0.22
0.23
0.13
-0.07
-0.32
-0.54
-0.63
-0.54
-0.29
0.09
0.54
1.00
1.42
1.79
2.07
2.26
2.37
2.44
2.51
2.60
2.72
2.79
2.73
2.49
2.06
1.46
0.80
0.13
-0.53
-1.20
-1.90
-2.57
-3.10
-3.37
-3.30
-2.91
-2.35
-1.78
-1.35
-1.12
-1.06
-1.08
-1.09
-1.02
-0.85
-0.60
-0.31
-0.06
0.09
0.09
-0.04
-0.26
-0.50
-0.66
-0.70
-0.60
-0.41
-0.20
-0.05
-0.06
-0.23
-0.51
-0.82
-1.04
-1.09
-0.94
-0.63
-0.24
0.12
0.40
0.53
0.53
0.42
0.23
0.01
-0.22
-0.39
-0.49
-0.47
-0.35
-0.20
-0.09
-0.10
-0.24
-0.49
-0.77
-0.99
-1.09
-1.05
-0.87
-0.62
-0.38
-0.24
-0.28
-0.49
-0.81
-1.09
-1.18
-1.03
-0.66
-0.19
0.28
0.66
0.97
1.23
1.48
1.67
1.75
1.67
1.40
1.02
0.59
0.22
-0.02
-0.09
0.00
0.21
0.45
0.62
0.69
0.65
0.55
0.47
0.42
0.37
0.28
0.10
-0.13
-0.34
-0.47
-0.48
-0.40
-0.29
-0.17
-0.04
0.14
0.38
0.64
0.82
0.84
0.65
0.29
-0.13
-0.50
-0.75
-0.85
-0.85
-0.87
-1.00
-1.40
-2.15
-3.26
-4.68
-6.24
-7.72
-8.89
-9.58
-9.77
-9.51
-8.94
-8.17
-7.26
-6.19
-4.94
-3.48
-1.89
-0.24
1.39
2.96
4.47
5.87
7.10
8.02
8.45
8.26
7.42
5.95
3.91
1.42
-1.40
-4.33
-7.08
-9.33
-10.80
-11.38
-11.13
-10.25
-8.98
-7.54
-6.04
-4.51
-2.98
-1.46
-0.00
1.35
2.58
3.69
4.69
5.56
6.23
6.62
6.68
6.39
5.79
4.94
3.93
2.88
1.91
1.21
0.95
1.29
2.27
3.74
5.37
6.78
7.65
7.85
7.50
6.85
6.19
5.70
5.43
5.31
5.22
5.06
4.81
4.48
4.13
3.82
3.60
3.48
3.42
3.35
3.20
2.93
2.57
2.22
1.96
1.87
1.94
2.09
2.23
2.24
2.02
1.52
0.71
-0.32
-1.37
-2.19
-2.51
-2.18
-1.26
-0.02
1.10
1.68
1.34
-0.03
-2.37
-5.41
-8.80
-12.16
-15.21
-17.74
-19.68
-21.05
-21.95
-22.52
-22.91
-23.26
-23.62
-23.96
-24.08
-23.71
-22.56
-20.43
-17.24
-13.03
-7.91
-2.02
4.43
11.13
17.59
23.21
27.34
29.56
29.77
28.27
25.59
22.26
18.65
14.90
11.03
7.09
3.32
0.12
-2.08
-2.97
-2.55
-1.08
0.95
3.03
4.71
5.73
6.03
5.73
5.05
4.23
3.44
2.76
2.20
1.72
1.30
0.95
0.68
0.46
0.23
-0.11
-0.55
-0.96
-1.12
-0.83
-0.07
0.94
1.81
2.13
1.72
0.68
-0.63
-1.73
-2.29
-2.17
-1.47
-0.40
0.80
1.94
2.94
3.78
4.54
5.35
6.39
7.83
9.76
12.14
14.80
17.44
19.72
21.31
21.95
21.51
20.01
17.59
14.48
10.91
7.08
3.11
-0.90
-4.85
-8.63
-12.14
-15.28
-17.98
-20.13
-21.56
-22.02
-21.20
-18.88
-14.97
-9.69
-3.53
2.77
8.42
12.72
15.30
16.17
15.66
14.27
12.45
10.47
8.40
6.22
3.93
1.66
-0.41
-2.11
-3.37
-4.26
-4.91
-5.45
-5.91
-6.22
-6.32
-6.19
-5.91
-5.62
-5.47
-5.54
-5.84
-6.29
-6.78
-7.18
-7.39
-7.30
-6.87
-6.14
-5.22
-4.27
-3.46
-2.86
-2.43
-2.09
-1.75
-1.40
-1.09
-0.93
-0.97
-1.19
-1.49
-1.78
-1.96
-2.05
-2.11
-2.18
-2.29
-2.37
-2.34
-2.12
-1.70
-1.17
-0.64
-0.23
0.01
0.09
0.05
-0.09
-0.30
-0.56
-0.85
-1.11
-1.30
-1.36
-1.32
-1.21
-1.08
-1.01
-0.97
-0.97
-0.94
-0.85
-0.67
-0.43
-0.15
0.10
0.25
0.26
0.15
-0.06
-0.32
-0.60
-0.92
-1.23
-1.46
-1.52
-1.33
-0.88
-0.28
0.31
0.74
0.95
0.97
0.86
0.69
0.47
0.19
-0.14
-0.43
-0.61
-0.62
-0.44
-0.17
0.08
0.22
0.24
0.15
0.00
-0.17
-0.34
-0.49
-0.59
-0.61
-0.54
-0.40
-0.27
-0.23
-0.35
-0.61
-0.89
-1.08
-1.08
-0.91
-0.64
-0.38
-0.21
-0.08
0.07
0.29
0.56
0.82
0.99
1.05
1.10
1.24
1.50
1.82
2.00
1.89
1.45
0.78
0.13
-0.31
-0.48
-0.47
-0.46
-0.59
-0.87
-1.16
-1.31
-1.26
-1.06
-0.89
-0.88
-1.10
-1.46
-1.81
-2.00
-1.93
-1.61
-1.08
-0.45
0.17
0.69
1.03
1.17
1.15
1.04
0.94
0.87
0.82
0.74
0.58
0.37
0.20
0.14
0.25
0.53
0.90
1.28
1.60
1.79
1.87
1.84
1.71
1.50
1.22
0.91
0.61
0.37
0.22
0.16
0.15
0.15
0.12
0.04
-0.05
-0.12
-0.23
-0.46
-0.94
-1.73
-2.76
-3.86
-4.78
-5.39
-5.64
-5.64
-5.55
-5.47
-5.44
-5.42
-5.37
-5.29
-5.19
-5.12
-5.06
-4.93
-4.64
-4.15
-3.49
-2.77
-2.11
-1.64
-1.40
-1.35
-1.43
-1.54
-1.62
-1.60
-1.42
-1.07
-0.53
0.18
1.02
1.94
2.93
3.92
4.90
5.80
6.57
7.14
7.49
7.60
7.45
7.02
6.30
5.31
4.14
2.94
1.87
1.00
0.33
-0.23
-0.82
-1.47
-2.17
-2.85
-3.48
-4.10
-4.80
-5.69
-6.77
-7.97
-9.21
-10.37
-11.44
-12.42
-13.30
-14.04
-14.64
-15.12
-15.65
-16.37
-17.43
-18.86
-20.56
-22.38
-24.15
-25.68
-26.75
-27.03
-26.12
-23.61
-19.23
-12.98
-5.11
3.83
13.17
22.18
30.16
36.56
41.11
43.87
45.26
45.83
45.98
45.74
44.69
42.21
37.85
31.65
24.22
16.46
9.17
2.72
-2.99
-8.33
-13.57
-18.69
-23.38
-27.35
-30.59
-33.47
-36.65
-40.68
-45.66
-51.18
-56.40
-60.55
-63.23
-64.71
-65.81
-67.52
-70.50
-74.83
-79.90
-84.71
-88.35
-90.38
-91.09
-91.33
-92.20
-94.61
-98.78
-104.09
-108.95
-110.98
-107.18
-94.63
-71.34
-37.40
4.37
48.62
88.82
119.25
136.79
141.75
137.24
127.59
116.60
106.50
97.97
90.82
84.74
79.72
75.84
72.92
70.37
67.46
63.71
59.28
54.86
51.44
49.67
49.56
50.37
50.91
50.05
47.11
42.13
35.76
28.97
22.68
17.49
13.56
10.63
8.27
6.02
3.64
1.11
-1.36
-3.50
-5.08
-6.00
-6.30
-6.03
-5.30
-4.22
-2.91
-1.51
-0.10
1.30
2.73
4.23
5.76
7.16
8.21
8.74
8.80
8.63
8.61
9.13
10.41
12.43
14.96
17.65
20.15
22.26
23.99
25.59
27.50
30.18
33.83
38.28
43.01
47.27
50.52
52.68
54.26
56.15
59.25
64.04
70.32
77.25
83.66
88.34
90.66
90.85
90.07
90.07
92.46
97.84
105.28
112.19
114.84
109.27
92.47
63.46
23.95
-21.66
-67.18
-106.26
-134.12
-148.86
-151.66
-145.93
-135.69
-124.18
-113.25
-103.50
-95.04
-88.04
-82.75
-79.16
-76.70
-74.29
-70.79
-65.61
-59.02
-51.99
-45.77
-41.23
-38.53
-37.07
-35.82
-33.80
-30.44
-25.84
-20.60
-15.56
-11.43
-8.54
-6.83
-5.90
-5.32
-4.73
-4.02
-3.26
-2.65
-2.34
-2.35
-2.56
-2.77
-2.78
-2.52
-2.05
-1.51
-1.07
-0.81
-0.71
-0.69
-0.63
-0.49
-0.33
-0.22
-0.23
-0.32
-0.41
-0.38
-0.19
0.11
0.43
0.64
0.70
0.59
0.39
0.17
0.03
0.04
0.30
0.83
1.57
2.38
3.06
3.43
3.45
3.16
2.73
2.26
1.79
1.27
0.63
-0.16
-1.05
-1.95
-2.79
-3.50
-4.06
-4.45
-4.64
-4.59
-4.28
-3.77
-3.14
-2.48
-1.84
-1.27
-0.76
-0.33
0.03
0.30
0.49
0.62
0.72
0.80
0.82
0.75
0.53
0.13
-0.44
-1.16
-1.97
-2.83
-3.66
-4.36
-4.83
-4.96
-4.69
-4.05
-3.14
-2.15
-1.27
-0.67
-0.41
-0.43
-0.63
-0.86
-0.99
-0.97
-0.79
-0.51
-0.20
0.08
0.31
0.46
0.52
0.49
0.34
0.04
-0.41
-1.01
-1.69
-2.35
-2.91
-3.29
-3.45
-3.36
-3.04
-2.53
-1.90
-1.25
-0.70
-0.39
-0.36
-0.59
-1.01
-1.48
-1.89
-2.18
-2.34
-2.40
-2.39
-2.33
-2.25
-2.13
-1.99
-1.79
-1.53
-1.19
-0.74
-0.20
0.43
1.14
1.93
2.75
3.52
4.13
4.47
4.49
4.26
3.89
3.50
3.14
2.81
2.50
2.17
1.85
1.59
1.42
1.36
1.44
1.63
1.95
2.38
2.89
3.42
3.93
4.33
4.62
4.78
4.86
4.91
4.99
5.12
5.30
5.47
5.55
5.49
5.31
5.09
4.99
5.15
5.63
6.42
7.41
8.50
9.56
10.52
11.31
11.85
12.04
11.77
10.94
9.57
7.80
5.88
4.13
2.81
2.07
1.89
2.14
2.53
2.74
2.46
1.44
-0.37
-2.80
-5.48
-7.96
-9.86
-11.04
-11.57
-11.70
-11.68
-11.63
-11.51
-11.22
-10.69
-9.96
-9.14
-8.40
-7.84
-7.43
-7.07
-6.62
-6.00
-5.24
-4.44
-3.74
-3.25
-2.93
-2.67
-2.27
-1.60
-0.65
0.41
1.30
1.70
1.42
0.46
-0.94
-2.38
-3.49
-4.03
-4.03
-3.73
-3.46
-3.43
-3.65
-3.95
-4.10
-3.98
-3.63
-3.21
-2.88
-2.64
-2.35
-1.82
-0.94
0.20
1.33
2.13
2.40
2.15
1.57
0.97
0.61
0.55
0.72
0.92
0.95
0.69
0.14
-0.61
-1.42
-2.18
-2.81
-3.29
-3.65
-3.93
-4.18
-4.45
-4.80
-5.22
-5.71
-6.24
-6.77
-7.24
-7.62
-7.82
-7.79
-7.47
-6.81
-5.80
-4.48
-2.92
-1.19
0.61
2.40
4.10
5.63
6.90
7.80
8.28
8.30
7.94
7.35
6.73
6.23
5.88
5.60
5.17
4.42
3.22
1.54
-0.54
-2.94
-5.55
-8.29
-11.04
-13.67
-15.99
-17.83
-19.03
-19.56
-19.46
-18.80
-17.68
-16.21
-14.46
-12.52
-10.48
-8.40
-6.32
-4.22
-2.10
0.04
2.17
4.19
6.04
7.69
9.19
10.61
12.01
13.38
14.66
15.77
16.61
17.15
17.34
17.18
16.66
15.84
14.80
13.70
12.64
11.70
10.83
9.95
9.00
7.93
6.78
5.61
4.47
3.39
2.41
1.55
0.90
0.48
0.30
0.29
0.36
0.41
0.41
0.36
0.26
0.12
-0.11
-0.44
-0.81
-1.09
-1.15
-0.94
-0.58
-0.27
-0.27
-0.67
-1.39
-2.19
-2.79
-3.01
-2.86
-2.50
-2.12
-1.87
-1.77
-1.81
-1.95
-2.20
-2.57
-3.03
-3.51
-3.92
-4.14
-4.11
-3.83
-3.34
-2.72
-2.04
-1.39
-0.82
-0.37
0.03
0.45
0.99
1.68
2.45
3.20
3.84
4.34
4.70
4.90
4.84
4.38
3.45
2.16
0.77
-0.40
-1.12
-1.38
-1.31
-1.08
-0.81
-0.51
-0.16
0.21
0.43
0.33
-0.15
-0.89
-1.66
-2.18
-2.36
-2.26
-2.10
-2.06
-2.18
-2.32
-2.30
-1.94
-1.22
-0.31
0.56
1.11
1.18
0.80
0.15
-0.43
-0.53
0.30
2.50
6.40
12.12
19.50
28.05
36.95
45.26
52.12
56.90
59.24
58.99
56.09
50.54
42.54
32.58
21.50
10.33
0.04
-8.74
-15.80
-21.27
-25.33
-28.11
-29.62
-29.91
-29.16
-27.78
-26.22
-24.82
-23.67
-22.63
-21.48
-20.08
-18.49
-16.90
-15.51
-14.43
-13.62
-12.94
-12.23
-11.38
-10.36
-9.24
-8.12
-7.09
-6.26
-5.65
-5.27
-5.08
-4.99
-4.90
-4.75
-4.48
-4.10
-3.63
-3.08
-2.48
-1.85
-1.21
-0.62
-0.12
0.24
0.42
0.44
0.36
0.22
0.08
-0.06
-0.16
-0.21
-0.20
-0.12
-0.02
0.03
-0.01
-0.15
-0.30
-0.33
-0.16
0.19
0.60
0.92
1.03
0.93
0.73
0.57
0.51
0.56
0.68
0.81
0.91
0.95
0.92
0.77
0.47
0.02
-0.50
-0.97
-1.27
-1.33
-1.13
-0.75
-0.29
0.12
0.33
0.30
0.05
-0.29
-0.57
-0.64
-0.50
-0.23
0.01
0.10
0.03
-0.14
-0.28
-0.35
-0.36
-0.41
-0.58
-0.91
-1.33
-1.69
-1.86
-1.76
-1.45
-1.02
-0.64
-0.39
-0.27
-0.23
-0.19
-0.10
0.01
0.07
0.00
-0.23
-0.59
-0.99
-1.32
-1.51
-1.56
-1.48
-1.34
-1.20
-1.14
-1.20
-1.39
-1.66
-1.94
-2.17
-2.32
-2.39
-2.39
-2.34
-2.23
-2.09
-1.97
-1.97
-2.14
-2.52
-3.05
-3.67
-4.33
-5.05
-5.88
-6.83
-7.84
-8.80
-9.59
-10.13
-10.41
-10.46
-10.31
-9.91
-9.20
-8.10
-6.52
-4.44
-1.87
1.09
4.22
7.21
9.73
11.56
12.61
12.94
12.73
12.10
11.13
9.88
8.42
6.95
5.70
4.83
4.35
4.13
3.98
3.78
3.52
3.33
3.29
3.41
3.58
3.71
3.74
3.77
3.92
4.28
4.84
5.50
6.08
6.45
6.57
6.44
6.16
5.79
5.40
4.96
4.46
3.82
3.01
2.00
0.88
-0.25
-1.23
-1.96
-2.41
-2.65
-2.78
-2.91
-3.11
-3.41
-3.78
-4.20
-4.62
-4.98
-5.25
-5.40
-5.41
-5.29
-5.05
-4.70
-4.26
-3.77
-3.27
-2.84
-2.58
-2.50
-2.59
-2.74
-2.83
-2.77
-2.53
-2.18
-1.81
-1.51
-1.31
-1.15
-0.96
-0.66
-0.26
0.17
0.53
0.75
0.83
0.84
0.88
0.95
1.02
0.95
0.68
0.20
-0.36
-0.82
-1.00
-0.87
-0.49
-0.02
0.39
0.63
0.68
0.59
0.40
0.15
-0.17
-0.54
-0.95
-1.32
-1.56
-1.63
-1.52
-1.29
-1.05
-0.89
-0.87
-1.01
-1.24
-1.49
-1.68
-1.70
-1.49
-1.00
-0.25
0.68
1.71
2.74
3.68
4.48
5.08
5.39
5.36
4.97
4.28
3.46
2.73
2.30
2.31
2.74
3.47
4.27
4.89
5.11
4.87
4.23
3.33
2.40
1.63
1.11
0.85
0.83
0.98
1.23
1.51
1.73
1.86
1.88
1.82
1.75
1.72
1.74
1.76
1.68
1.41
0.97
0.42
-0.13
-0.58
-0.94
-1.23
-1.49
-1.72
-1.86
-1.86
-1.72
-1.51
-1.34
-1.35
-1.58
-1.98
-2.41
-2.71
-2.74
-2.51
-2.10
-1.63
-1.22
-0.93
-0.76
-0.67
-0.60
-0.47
-0.25
0.08
0.55
1.10
1.68
2.18
2.50
2.53
2.21
1.53
0.57
-0.52
-1.56
-2.35
-2.77
-2.80
-2.50
-2.01
-1.40
-0.75
-0.08
0.61
1.25
1.76
2.07
2.14
1.98
1.65
1.21
0.73
0.26
-0.13
-0.42
-0.61
-0.78
-1.03
-1.42
-1.94
-2.51
-3.02
-3.38
-3.57
-3.60
-3.50
-3.26
-2.87
-2.31
-1.60
-0.83
-0.17
0.26
0.41
0.40
0.42
0.69
1.31
2.17
2.99
3.39
3.05
1.88
0.05
-2.01
-3.77
-4.79
-4.88
-4.13
-2.93
-1.81
-1.27
-1.53
-2.46
-3.56
-4.26
-4.19
-3.48
-2.71
-2.67
-3.96
-6.59
-9.88
-12.76
-14.28
-14.16
-13.01
-12.13
-12.88
-16.00
-21.07
-26.49
-30.10
-30.00
-25.36
-16.76
-6.06
4.14
10.97
11.80
4.97
-9.19
-27.74
-45.23
-55.14
-52.41
-35.67
-8.10
23.68
52.21
71.84
80.35
78.87
70.54
58.83
46.44
35.04
25.52
18.32
13.71
11.85
12.69
15.74
19.90
23.32
23.92
20.37
12.92
3.79
-3.69
-6.74
-4.77
-0.02
3.29
0.79
-9.89
-27.70
-48.24
-65.14
-72.23
-65.67
-45.21
-14.44
20.22
51.24
71.96
78.30
69.63
48.62
20.29
-9.55
-35.71
-54.68
-64.92
-66.76
-61.96
-53.23
-43.60
-35.85
-31.80
-31.89
-34.87
-38.30
-39.50
-36.79
-30.51
-23.15
-18.67
-20.81
-31.21
-48.02
-65.73
-76.31
-71.48
-45.48
2.53
67.19
137.72
200.55
242.99
256.74
240.04
197.68
139.04
75.05
15.30
-33.65
-68.58
-88.85
-95.39
-89.95
-74.93
-53.56
-29.74
-7.61
9.43
19.62
23.36
23.25
22.95
25.68
32.90
43.81
55.80
65.50
69.96
67.51
58.05
42.89
24.28
4.83
-12.99
-27.42
-37.63
-43.75
-46.53
-46.94
-45.82
-43.75
-41.13
-38.39
-35.98
-34.32
-33.54
-33.41
-33.42
-32.97
-31.63
-29.27
-26.12
-22.74
-19.75
-17.71
-16.78
-16.70
-16.88
-16.71
-15.89
-14.58
-13.29
-12.44
-12.03
-11.48
-9.89
-6.59
-1.53
4.52
10.35
14.82
17.42
18.30
18.02
17.03
15.31
12.49
8.37
3.38
-1.28
-4.02
-3.70
-0.23
5.23
10.74
14.46
15.38
13.60
10.03
5.77
1.59
-2.19
-5.58
-8.53
-10.80
-12.09
-12.26
-11.57
-10.66
-10.29
-10.92
-12.49
-14.44
-15.93
-16.26
-15.19
-12.94
-10.08
-7.20
-4.76
-2.94
-1.76
-1.14
-0.93
-0.98
-1.10
-1.13
-1.03
-0.86
-0.75
-0.82
-1.09
-1.42
-1.63
-1.54
-1.07
-0.25
0.81
1.94
2.94
3.59
3.80
3.57
3.12
2.76
2.78
3.32
4.36
5.70
7.15
8.55
9.81
10.84
11.53
11.69
11.20
10.03
8.32
6.29
4.18
2.16
0.29
-1.38
-2.76
-3.71
-4.11
-3.90
-3.17
-2.10
-0.87
0.44
1.85
3.44
5.27
7.24
9.16
10.75
11.77
12.04
11.51
10.24
8.40
6.25
4.05
2.07
0.48
-0.71
-1.62
-2.49
-3.50
-4.74
-6.15
-7.57
-8.89
-10.10
-11.36
-12.92
-14.97
-17.53
-20.41
-23.30
-25.89
-27.98
-29.57
-30.78
-31.80
-32.72
-33.57
-34.27
-34.69
-34.75
-34.35
-33.44
-31.95
-29.83
-27.08
-23.85
-20.42
-17.12
-14.24
-11.81
-9.44
-6.44
-1.98
4.50
12.96
22.58
32.05
39.93
45.29
47.94
48.43
47.68
46.49
45.28
44.00
42.47
40.51
38.21
35.77
33.42
31.22
29.14
27.05
24.88
22.64
20.45
18.44
16.69
15.27
14.15
13.31
12.74
12.47
12.61
13.23
14.34
15.78
17.26
18.44
19.10
19.24
19.10
19.08
19.46
20.22
20.87
20.54
18.27
13.46
6.25
-2.36
-10.79
-17.39
-21.06
-21.59
-19.55
-15.95
-11.77
-7.56
-3.49
0.56
4.74
9.09
13.50
17.74
21.42
24.02
24.96
23.77
20.39
15.28
9.36
3.71
-0.83
-3.96
-5.96
-7.46
-9.07
-11.12
-13.59
-16.22
-18.72
-20.92
-22.79
-24.32
-25.43
-25.98
-25.83
-24.95
-23.53
-21.87
-20.32
-19.12
-18.33
-17.84
-17.42
-16.88
-16.11
-15.15
-14.15
-13.30
-12.69
-12.29
-11.95
-11.47
-10.66
-9.51
-8.15
-6.81
-5.72
-4.99
-4.58
-4.36
-4.18
-3.94
-3.61
-3.24
-2.84
-2.41
-1.89
-1.25
-0.50
0.26
0.89
1.28
1.37
1.22
0.95
0.70
0.59
0.66
0.90
1.25
1.64
2.00
2.33
2.59
2.80
2.96
3.07
3.19
3.40
3.78
4.35
5.02
5.59
5.80
5.45
4.47
2.97
1.25
-0.40
-1.73
-2.68
-3.30
-3.73
-4.03
-4.21
-4.24
-4.13
-3.96
-3.83
-3.82
-3.95
-4.19
-4.53
-5.03
-5.77
-6.80
-8.11
-9.54
-10.89
-12.00
-12.81
-13.37
-13.80
-14.17
-14.53
-14.89
-15.23
-15.52
-15.75
-15.87
-15.84
-15.62
-15.21
-14.60
-13.72
-12.42
-10.48
-7.78
-4.43
-0.82
2.44
4.80
5.90
5.71
4.43
2.32
-0.35
-3.35
-6.37
-9.01
-10.86
-11.57
-11.06
-9.53
-7.30
-4.74
-2.05
0.64
3.33
5.97
8.52
10.95
13.24
15.38
17.34
19.03
20.33
21.15
21.47
21.42
21.18
20.95
20.83
20.79
20.72
20.43
19.78
18.70
17.25
15.59
13.90
12.38
11.12
10.12
9.30
8.55
7.77
6.94
6.10
5.31
4.60
4.02
3.60
3.39
3.46
3.82
4.40
5.01
5.45
5.57
5.39
5.09
4.92
5.11
5.75
6.73
7.87
8.94
9.79
10.34
10.58
10.54
10.19
9.51
8.49
7.21
5.81
4.47
3.26
2.07
0.57
-1.68
-4.98
-9.27
-14.10
-18.65
-22.03
-23.64
-23.37
-21.59
-19.01
-16.31
-13.97
-12.14
-10.74
-9.63
-8.73
-8.06
-7.69
-7.60
-7.68
-7.77
-7.73
-7.56
-7.41
-7.45
-7.80
-8.38
-8.94
-9.15
-8.79
-7.87
-6.64
-5.43
-4.48
-3.76
-3.05
-2.01
-0.42
1.75
4.28
6.83
9.09
10.83
11.99
12.64
12.91
12.98
13.01
13.12
13.32
13.56
13.68
13.53
13.01
12.11
10.91
9.50
7.95
6.26
4.44
2.53
0.67
-0.95
-2.13
-2.81
-3.08
-3.19
-3.40
-3.87
-4.60
-5.42
-6.06
-6.32
-6.18
-5.74
-5.21
-4.77
-4.46
-4.26
-4.08
-3.86
-3.66
-3.54
-3.55
-3.64
-3.72
-3.69
-3.51
-3.26
-3.03
-2.87
-2.74
-2.52
-2.11
-1.46
-0.64
0.22
0.96
1.45
1.64
1.50
1.03
0.27
-0.70
-1.77
-2.77
-3.57
-4.09
-4.36
-4.45
-4.51
-4.63
-4.84
-5.08
-5.24
-5.19
-4.83
-4.16
-3.26
-2.26
-1.34
-0.67
-0.34
-0.32
-0.51
-0.75
-0.93
-0.97
-0.87
-0.69
-0.46
-0.19
0.16
0.58
1.05
1.49
1.81
1.95
1.91
1.75
1.56
1.43
1.43
1.57
1.83
2.16
2.48
2.69
2.73
2.58
2.25
1.80
1.29
0.78
0.33
0.01
-0.12
-0.03
0.22
0.53
0.78
0.88
0.82
0.68
0.52
0.43
0.40
0.41
0.44
0.46
0.45
0.39
0.25
0.05
-0.19
-0.42
-0.60
-0.68
-0.63
-0.45
-0.18
0.12
0.37
0.49
0.46
0.31
0.14
0.03
0.02
0.11
0.23
0.29
0.30
0.29
0.33
0.46
0.63
0.74
0.72
0.52
0.21
-0.08
-0.23
-0.15
0.10
0.41
0.63
0.70
0.62
0.51
0.47
0.56
0.70
0.76
0.62
0.24
-0.28
-0.79
-1.11
-1.15
-0.94
-0.61
-0.31
-0.15
-0.14
-0.20
-0.25
-0.25
-0.17
-0.06
0.04
0.12
0.19
0.28
0.39
0.50
0.53
0.47
0.31
0.09
-0.10
-0.21
-0.19
-0.03
0.28
0.73
1.29
1.88
2.36
2.57
2.44
1.99
1.40
0.89
0.68
0.80
1.13
1.44
1.50
1.19
0.56
-0.20
-0.89
-1.36
-1.57
-1.55
-1.39
-1.20
-1.06
-1.03
-1.11
-1.30
-1.52
-1.73
-1.88
-1.97
-2.01
-2.03
-2.03
-2.01
-1.96
-1.87
-1.79
-1.73
-1.73
-1.78
-1.82
-1.82
-1.78
-1.73
-1.74
-1.86
-2.08
-2.33
-2.50
-2.55
-2.47
-2.33
-2.19
-2.10
-2.01
-1.86
-1.59
-1.20
-0.74
-0.28
0.15
0.53
0.87
1.18
1.41
1.53
1.52
1.40
1.28
1.23
1.34
1.57
1.84
1.99
1.92
1.62
1.19
0.84
0.70
0.84
1.15
1.46
1.61
1.57
1.42
1.28
1.22
1.20
1.12
0.84
0.34
-0.26
-0.79
-1.10
-1.13
-0.91
-0.56
-0.18
0.15
0.39
0.49
0.49
0.40
0.29
0.22
0.22
0.29
0.40
0.48
0.46
0.32
0.08
-0.18
-0.28
-0.02
0.78
2.17
3.98
5.83
7.30
8.00
7.80
6.83
5.37
3.76
2.26
0.96
-0.11
-0.96
-1.56
-1.90
-1.99
-1.87
-1.67
-1.53
-1.56
-1.78
-2.17
-2.60
-2.94
-3.06
-2.92
-2.53
-2.00
-1.46
-1.04
-0.86
-0.92
-1.17
-1.50
-1.76
-1.81
-1.61
-1.25
-0.86
-0.62
-0.62
-0.83
-1.11
-1.31
-1.30
-1.10
-0.75
-0.36
0.03
0.40
0.73
1.01
1.19
1.18
0.93
0.43
-0.26
-1.05
-1.76
-2.28
-2.50
-2.43
-2.14
-1.75
-1.39
-1.15
-1.05
-1.07
-1.15
-1.28
-1.43
-1.62
-1.81
-1.94
-1.89
-1.60
-1.07
-0.42
0.17
0.52
0.57
0.38
0.11
-0.05
-0.00
0.24
0.58
0.93
1.22
1.47
1.70
1.88
1.96
1.86
1.55
1.11
0.66
0.35
0.26
0.36
0.56
0.76
0.87
0.87
0.74
0.52
0.19
-0.19
-0.56
-0.81
-0.87
-0.71
-0.37
0.04
0.42
0.67
0.75
0.66
0.43
0.08
-0.31
-0.68
-0.94
-1.03
-0.93
-0.68
-0.37
-0.12
-0.00
-0.09
-0.36
-0.74
-1.14
-1.45
-1.61
-1.64
-1.56
-1.46
-1.40
-1.43
-1.58
-1.83
-2.14
-2.45
-2.71
-2.87
-2.90
-2.78
-2.45
-1.88
-1.02
0.09
1.34
2.52
3.45
4.00
4.16
3.99
3.61
3.10
2.49
1.81
1.11
0.48
0.01
-0.27
-0.39
-0.46
-0.62
-0.91
-1.30
-1.71
-2.05
-2.29
-2.49
-2.66
-2.81
-2.84
-2.63
-2.12
-1.34
-0.43
0.48
1.26
1.87
2.35
2.72
3.02
3.18
3.18
2.96
2.56
2.08
1.66
1.42
1.41
1.61
1.90
2.15
2.24
2.15
1.94
1.73
1.62
1.64
1.73
1.82
1.88
1.92
1.99
2.17
2.45
2.79
3.09
3.28
3.34
3.31
3.26
3.18
3.01
2.63
1.99
1.14
0.29
-0.30
-0.41
-0.02
0.69
1.43
1.91
1.99
1.69
1.12
0.41
-0.34
-1.09
-1.77
-2.31
-2.60
-2.60
-2.37
-2.13
-2.12
-2.58
-3.57
-4.97
-6.50
-7.86
-8.81
-9.29
-9.33
-9.03
-8.45
-7.58
-6.43
-5.04
-3.56
-2.18
-1.03
-0.17
0.50
1.08
1.67
2.24
2.69
2.91
2.81
2.40
1.77
1.08
0.50
0.18
0.24
0.66
1.31
1.93
2.25
2.11
1.50
0.66
-0.07
-0.31
0.27
1.80
4.23
7.30
10.54
13.40
15.39
16.16
15.67
14.16
12.03
9.72
7.55
5.65
4.04
2.68
1.53
0.63
0.06
-0.13
0.02
0.38
0.80
1.13
1.36
1.54
1.78
2.14
2.56
2.90
2.98
2.62
1.78
0.46
-1.27
-3.33
-5.62
-8.03
-10.41
-12.57
-14.35
-15.59
-16.27
-16.42
-16.15
-15.61
-14.91
-14.10
-13.22
-12.32
-11.46
-10.74
-10.28
-10.08
-10.06
-10.01
-9.68
-8.91
-7.69
-6.15
-4.53
-3.04
-1.83
-0.87
-0.05
0.79
1.76
2.89
4.10
5.26
6.24
6.92
7.22
7.15
6.75
6.10
5.29
4.41
3.56
2.83
2.33
2.13
2.21
2.48
2.77
2.91
2.74
2.24
1.48
0.58
-0.34
-1.24
-2.08
-2.81
-3.32
-3.41
-2.94
-1.82
-0.16
1.79
3.69
5.28
6.42
7.06
7.28
7.14
6.68
5.92
4.91
3.76
2.60
1.51
0.55
-0.29
-1.04
-1.72
-2.31
-2.75
-3.02
-3.12
-3.13
-3.12
-3.14
-3.22
-3.34
-3.48
-3.63
-3.83
-4.10
-4.49
-4.98
-5.52
-6.02
-6.37
-6.47
-6.24
-5.61
-4.61
-3.30
-1.86
-0.50
0.60
1.30
1.62
1.66
1.58
1.52
1.55
1.75
2.15
2.79
3.71
4.88
6.19
7.45
8.47
9.08
9.19
8.85
8.20
7.44
6.75
6.28
6.04
5.99
6.02
6.06
6.10
6.14
6.22
6.31
6.34
6.20
5.77
4.96
3.76
2.22
0.44
-1.41
-3.16
-4.63
-5.64
-6.09
-5.89
-5.07
-3.76
-2.20
-0.69
0.52
1.30
1.69
1.84
1.96
2.15
2.40
2.62
2.74
2.75
2.72
2.72
2.77
2.81
2.72
2.39
1.82
1.09
0.38
-0.07
-0.09
0.38
1.25
2.27
3.16
3.65
3.57
2.91
1.78
0.40
-1.02
-2.30
-3.28
-3.90
-4.14
-4.04
-3.68
-3.16
-2.60
-2.14
-1.85
-1.76
-1.84
-2.00
-2.15
-2.24
-2.25
-2.17
-2.03
-1.84
-1.63
-1.46
-1.39
-1.44
-1.60
-1.76
-1.84
-1.75
-1.50
-1.16
-0.81
-0.48
-0.17
0.14
0.47
0.79
1.07
1.28
1.44
1.52
1.54
1.47
1.32
1.12
0.93
0.78
0.65
0.48
0.23
-0.07
-0.33
-0.43
-0.30
0.01
0.36
0.61
0.66
0.53
0.30
0.05
-0.17
-0.32
-0.42
-0.48
-0.52
-0.57
-0.64
-0.73
-0.78
-0.72
-0.50
-0.10
0.39
0.83
1.10
1.14
1.02
0.83
0.63
0.45
0.22
-0.11
-0.55
-1.02
-1.37
-1.52
-1.42
-1.17
-0.89
-0.67
-0.56
-0.48
-0.34
-0.13
0.13
0.32
0.40
0.37
0.34
0.39
0.56
0.78
0.86
0.69
0.25
-0.29
-0.71
-0.82
-0.59
-0.16
0.22
0.37
0.25
-0.06
-0.39
-0.61
-0.68
-0.67
-0.62
-0.57
-0.50
-0.32
-0.00
0.46
0.98
1.44
1.72
1.77
1.60
1.32
1.04
0.89
0.92
1.09
1.31
1.47
1.48
1.26
0.80
0.12
-0.75
-1.66
-2.44
-2.87
-2.78
-2.14
-1.09
0.08
1.06
1.61
1.66
1.32
0.80
0.32
0.04
0.01
0.17
0.43
0.71
0.95
1.13
1.25
1.28
1.24
1.13
0.96
0.77
0.58
0.41
0.26
0.12
0.00
-0.11
-0.19
-0.24
-0.20
-0.05
0.23
0.61
1.02
1.32
1.41
1.27
0.97
0.68
0.52
0.55
0.68
0.80
0.81
0.72
0.62
0.65
0.84
1.12
1.35
1.43
1.33
1.14
0.99
0.98
1.07
1.18
1.17
0.97
0.55
-0.01
-0.65
-1.32
-1.97
-2.57
-3.03
-3.32
-3.39
-3.27
-3.00
-2.67
-2.33
-2.03
-1.81
-1.69
-1.67
-1.70
-1.74
-1.72
-1.63
-1.51
-1.39
-1.30
-1.25
-1.21
-1.15
-1.09
-1.05
-1.07
-1.15
-1.23
-1.27
-1.21
-1.04
-0.81
-0.56
-0.31
-0.08
0.13
0.36
0.59
0.79
0.94
0.98
0.93
0.81
0.69
0.66
0.74
0.93
1.17
1.38
1.48
1.45
1.26
0.96
0.61
0.27
-0.05
-0.33
-0.60
-0.86
-1.08
-1.26
-1.34
-1.36
-1.33
-1.29
-1.24
-1.18
-1.07
-0.92
-0.77
-0.66
-0.61
-0.59
-0.55
-0.41
-0.19
0.06
0.24
0.28
0.14
-0.16
-0.54
-0.91
-1.15
-1.18
-0.99
-0.63
-0.23
0.07
0.20
0.16
-0.00
-0.20
-0.38
-0.48
-0.47
-0.31
0.01
0.46
0.94
1.33
1.55
1.58
1.48
1.32
1.18
1.10
1.07
1.07
1.09
1.12
1.13
1.13
1.10
1.05
0.98
0.90
0.81
0.67
0.50
0.29
0.10
-0.03
-0.05
0.02
0.13
0.21
0.22
0.16
0.09
0.05
0.07
0.09
0.07
-0.03
-0.19
-0.32
-0.37
-0.31
-0.20
-0.12
-0.13
-0.24
-0.40
-0.57
-0.73
-0.89
-1.06
-1.21
-1.24
-1.11
-0.80
-0.36
0.07
0.42
0.61
0.64
0.54
0.29
-0.08
-0.55
-1.04
-1.43
-1.58
-1.44
-1.08
-0.64
-0.27
-0.06
0.00
0.01
0.07
0.24
0.52
0.84
1.10
1.28
1.39
1.49
1.63
1.79
1.91
1.88
1.63
1.18
0.65
0.21
0.01
0.12
0.47
0.92
1.34
1.64
1.85
2.04
2.29
2.59
2.80
2.79
2.40
1.63
0.57
-0.60
-1.70
-2.63
-3.34
-3.83
-4.10
-4.16
-4.00
-3.63
-3.09
-2.50
-1.94
-1.53
-1.36
-1.47
-1.87
-2.47
-3.09
-3.51
-3.59
-3.26
-2.61
-1.80
-1.03
-0.45
-0.08
0.08
0.12
0.09
0.09
0.17
0.38
0.73
1.13
1.51
1.75
1.80
1.68
1.45
1.19
0.91
0.64
0.35
0.10
-0.04
-0.00
0.27
0.73
1.24
1.66
1.88
1.86
1.67
1.42
1.21
1.09
1.08
1.12
1.18
1.23
1.25
1.23
1.12
0.89
0.52
0.07
-0.38
-0.74
-0.94
-0.99
-0.97
-0.91
-0.87
-0.83
-0.78
-0.70
-0.62
-0.59
-0.64
-0.78
-1.00
-1.24
-1.46
-1.61
-1.68
-1.67
-1.60
-1.49
-1.36
-1.18
-0.98
-0.75
-0.50
-0.23
0.06
0.37
0.71
1.05
1.34
1.50
1.48
1.27
0.91
0.48
0.11
-0.12
-0.15
0.01
0.30
0.65
0.95
1.17
1.27
1.27
1.19
1.02
0.78
0.48
0.19
-0.03
-0.10
-0.03
0.14
0.31
0.41
0.40
0.31
0.18
0.06
-0.00
0.03
0.19
0.46
0.81
1.14
1.33
1.30
1.01
0.53
-0.06
-0.63
-1.11
-1.48
-1.71
-1.78
-1.71
-1.50
-1.19
-0.84
-0.51
-0.24
-0.07
-0.03
-0.15
-0.40
-0.74
-1.05
-1.23
-1.22
-1.08
-0.90
-0.80
-0.84
-0.95
-1.07
-1.12
-1.11
-1.10
-1.18
-1.32
-1.46
-1.46
-1.25
-0.83
-0.30
0.22
0.65
0.98
1.21
1.34
1.37
1.26
1.02
0.72
0.50
0.49
0.72
1.13
1.54
1.76
1.67
1.28
0.76
0.29
0.05
0.06
0.27
0.50
0.59
0.45
0.07
-0.43
-0.89
-1.15
-1.14
-0.88
-0.50
-0.12
0.14
0.26
0.26
0.19
0.09
-0.08
-0.32
-0.61
-0.89
-1.07
-1.11
-1.05
-0.98
-0.95
-0.95
-0.88
-0.63
-0.17
0.43
1.03
1.50
1.77
1.90
1.98
2.05
2.13
2.18
2.17
2.12
2.09
2.14
2.23
2.29
2.25
2.05
1.72
1.32
0.92
0.59
0.32
0.12
-0.01
-0.08
-0.06
0.03
0.19
0.40
0.64
0.90
1.14
1.34
1.46
1.45
1.31
1.07
0.82
0.66
0.69
0.97
1.48
2.16
2.89
3.51
3.87
3.86
3.45
2.69
1.74
0.78
-0.07
-0.74
-1.29
-1.80
-2.31
-2.77
-3.10
-3.20
-3.04
-2.69
-2.26
-1.83
-1.45
-1.12
-0.86
-0.68
-0.63
-0.68
-0.80
-0.89
-0.88
-0.72
-0.45
-0.10
0.31
0.75
1.21
1.63
1.98
2.21
2.33
2.35
2.29
2.11
1.78
1.27
0.63
-0.02
-0.55
-0.90
-1.13
-1.38
-1.75
-2.26
-2.77
-3.14
-3.25
-3.09
-2.78
-2.47
-2.27
-2.20
-2.22
-2.26
-2.26
-2.24
-2.23
-2.31
-2.49
-2.74
-2.92
-2.90
-2.55
-1.86
-0.94
-0.01
0.66
0.90
0.68
0.09
-0.66
-1.40
-1.99
-2.36
-2.52
-2.48
-2.23
-1.79
-1.18
-0.49
0.18
0.72
1.07
1.23
1.31
1.38
1.52
1.69
1.84
1.89
1.80
1.62
1.43
1.29
1.20
1.11
0.97
0.77
0.53
0.32
0.21
0.18
0.18
0.13
-0.03
-0.33
-0.67
-0.97
-1.12
-1.12
-1.03
-1.00
-1.17
-1.63
-2.33
-3.12
-3.79
-4.14
-4.04
-3.50
-2.63
-1.64
-0.73
-0.04
0.37
0.55
0.60
0.64
0.73
0.91
1.18
1.54
1.97
2.44
2.89
3.23
3.37
3.29
2.97
2.51
1.99
1.57
1.33
1.31
1.46
1.64
1.72
1.60
1.32
0.97
0.66
0.45
0.29
0.10
-0.19
-0.57
-0.92
-1.12
-1.08
-0.80
-0.37
0.09
0.47
0.71
0.82
0.83
0.76
0.66
0.54
0.43
0.34
0.29
0.27
0.28
0.31
0.33
0.31
0.25
0.16
0.09
0.05
0.03
0.00
-0.08
-0.26
-0.52
-0.82
-1.10
-1.29
-1.37
-1.34
-1.24
-1.10
-0.97
-0.87
-0.80
-0.76
-0.74
-0.70
-0.61
-0.46
-0.27
-0.05
0.16
0.34
0.47
0.53
0.53
0.50
0.47
0.47
0.56
0.72
0.93
1.12
1.21
1.14
0.90
0.53
0.14
-0.19
-0.36
-0.35
-0.19
0.07
0.33
0.52
0.58
0.49
0.30
0.08
-0.11
-0.21
-0.22
-0.17
-0.10
-0.04
0.03
0.11
0.19
0.23
0.21
0.14
0.11
0.19
0.42
0.74
1.01
1.09
0.91
0.57
0.22
0.05
0.10
0.31
0.51
0.57
0.43
0.14
-0.14
-0.31
-0.27
-0.04
0.32
0.72
1.05
1.26
1.29
1.19
1.00
0.78
0.58
0.39
0.19
-0.05
-0.31
-0.56
-0.75
-0.89
-1.00
-1.13
-1.28
-1.42
-1.45
-1.32
-1.01
-0.60
-0.17
0.17
0.35
0.38
0.31
0.23
0.20
0.25
0.31
0.29
0.12
-0.20
-0.57
-0.88
-1.01
-0.95
-0.80
-0.69
-0.68
-0.78
-0.89
-0.94
-0.91
-0.83
-0.80
-0.89
-1.07
-1.29
-1.45
-1.52
-1.48
-1.39
-1.32
-1.29
-1.29
-1.28
-1.22
-1.11
-0.99
-0.88
-0.83
-0.79
-0.71
-0.52
-0.19
0.24
0.66
0.93
0.99
0.85
0.64
0.49
0.50
0.69
1.00
1.35
1.64
1.84
1.94
1.93
1.84
1.70
1.53
1.35
1.17
1.00
0.81
0.61
0.44
0.29
0.18
0.09
0.00
-0.08
-0.13
-0.13
-0.10
-0.09
-0.15
-0.33
-0.58
-0.86
-1.13
-1.36
-1.57
-1.78
-2.02
-2.29
-2.57
-2.85
-3.07
-3.19
-3.10
-2.73
-2.08
-1.25
-0.42
0.20
0.48
0.36
-0.05
-0.61
-1.10
-1.36
-1.31
-0.94
-0.35
0.31
0.90
1.33
1.59
1.76
1.90
2.09
2.31
2.51
2.64
2.67
2.62
2.54
2.48
2.41
2.29
2.09
1.83
1.58
1.42
1.39
1.42
1.40
1.25
0.96
0.62
0.35
0.23
0.26
0.33
0.34
0.25
0.05
-0.20
-0.47
-0.71
-0.91
-1.06
-1.13
-1.06
-0.85
-0.53
-0.20
0.00
-0.01
-0.28
-0.72
-1.18
-1.49
-1.58
-1.48
-1.34
-1.28
-1.35
-1.47
-1.49
-1.29
-0.84
-0.26
0.26
0.56
0.59
0.42
0.19
0.02
-0.04
-0.04
-0.05
-0.11
-0.24
-0.39
-0.51
-0.59
-0.64
-0.69
-0.73
-0.72
-0.59
-0.32
0.04
0.42
0.71
0.87
0.91
0.93
1.02
1.24
1.55
1.85
2.03
2.01
1.79
1.43
1.04
0.69
0.40
0.10
-0.23
-0.59
-0.88
-0.97
-0.76
-0.26
0.39
1.00
1.43
1.61
1.58
1.45
1.29
1.12
0.89
0.59
0.21
-0.23
-0.66
-1.03
-1.29
-1.44
-1.47
-1.39
-1.21
-0.96
-0.65
-0.33
-0.04
0.16
0.24
0.19
0.07
-0.03
-0.04
0.07
0.25
0.40
0.44
0.35
0.11
-0.20
-0.52
-0.75
-0.81
-0.66
-0.35
0.01
0.26
0.25
-0.08
-0.63
-1.22
-1.63
-1.72
-1.47
-1.01
-0.49
-0.03
0.30
0.53
0.71
0.87
1.00
1.06
0.99
0.80
0.51
0.19
-0.06
-0.19
-0.18
-0.06
0.12
0.29
0.39
0.39
0.25
0.01
-0.29
-0.57
-0.81
-0.98
-1.05
-1.04
-0.92
-0.69
-0.37
-0.01
0.29
0.46
0.47
0.37
0.27
0.26
0.37
0.53
0.64
0.59
0.37
0.06
-0.19
-0.28
-0.16
0.08
0.33
0.49
0.51
0.46
0.45
0.55
0.77
1.03
1.21
1.21
1.01
0.65
0.24
-0.14
-0.44
-0.68
-0.86
-0.97
-0.99
-0.88
-0.64
-0.26
0.23
0.79
1.38
1.89
2.22
2.30
2.07
1.60
1.03
0.50
0.12
-0.09
-0.17
-0.19
-0.18
-0.14
-0.10
-0.06
-0.08
-0.20
-0.41
-0.67
-0.88
-0.96
-0.90
-0.75
-0.62
-0.57
-0.61
-0.71
-0.77
-0.75
-0.67
-0.58
-0.54
-0.58
-0.69
-0.83
-0.90
-0.87
-0.71
-0.42
-0.07
0.26
0.48
0.53
0.39
0.14
-0.10
-0.21
-0.13
0.11
0.42
0.67
0.80
0.79
0.70
0.59
0.50
0.40
0.26
0.06
-0.19
-0.43
-0.59
-0.62
-0.55
-0.43
-0.30
-0.19
-0.10
-0.02
0.08
0.18
0.26
0.29
0.26
0.19
0.11
0.07
0.09
0.15
0.23
0.31
0.37
0.38
0.32
0.19
-0.02
-0.27
-0.49
-0.65
-0.71
-0.69
-0.63
-0.57
-0.55
-0.56
-0.60
-0.62
-0.61
-0.50
-0.28
0.00
0.27
0.40
0.31
0.03
-0.31
-0.54
-0.52
-0.27
0.09
0.39
0.50
0.43
0.28
0.16
0.11
0.08
0.01
-0.14
-0.35
-0.56
-0.74
-0.88
-1.00
-1.11
-1.17
-1.12
-0.92
-0.54
-0.03
0.55
1.10
1.55
1.80
1.82
1.62
1.27
0.88
0.58
0.42
0.39
0.42
0.44
0.41
0.33
0.26
0.23
0.23
0.22
0.18
0.07
-0.09
-0.27
-0.44
-0.60
-0.77
-0.97
-1.15
-1.27
-1.25
-1.09
-0.87
-0.67
-0.60
-0.64
-0.72
-0.67
-0.44
-0.07
0.30
0.50
0.49
0.32
0.15
0.09
0.14
0.21
0.17
-0.04
-0.36
-0.63
-0.74
-0.64
-0.34
0.06
0.49
0.89
1.24
1.50
1.63
1.57
1.35
0.98
0.57
0.20
-0.04
-0.11
-0.01
0.16
0.29
0.27
0.09
-0.19
-0.45
-0.61
-0.63
-0.56
-0.44
-0.32
-0.16
0.09
0.43
0.80
1.07
1.13
0.93
0.51
0.00
-0.47
-0.79
-0.90
-0.81
-0.55
-0.24
0.03
0.17
0.17
0.07
-0.08
-0.22
-0.30
-0.34
-0.33
-0.27
-0.14
0.09
0.40
0.76
1.04
1.15
1.01
0.62
0.08
-0.49
-0.95
-1.25
-1.39
-1.44
-1.46
-1.46
-1.41
-1.23
-0.89
-0.44
0.01
0.33
0.48
0.48
0.41
0.38
0.42
0.50
0.59
0.63
0.64
0.65
0.69
0.76
0.83
0.84
0.77
0.61
0.43
0.29
0.28
0.40
0.64
0.88
0.99
0.84
0.41
-0.22
-0.89
-1.41
-1.65
-1.59
-1.33
-1.00
-0.71
-0.53
-0.46
-0.46
-0.52
-0.60
-0.64
-0.59
-0.40
-0.07
0.31
0.64
0.82
0.82
0.68
0.48
0.29
0.15
0.07
0.03
0.01
0.03
0.12
0.30
0.56
0.87
1.18
1.44
1.60
1.65
1.60
1.49
1.33
1.14
0.94
0.76
0.66
0.74
1.06
1.62
2.41
3.36
4.38
5.36
6.15
6.55
6.41
5.63
4.30
2.66
1.02
-0.30
-1.16
-1.59
-1.73
-1.74
-1.74
-1.79
-1.89
-2.06
-2.34
-2.75
-3.29
-3.84
-4.26
-4.39
-4.17
-3.70
-3.15
-2.73
-2.59
-2.69
-2.89
-3.00
-2.88
-2.49
-1.92
-1.30
-0.76
-0.38
-0.17
-0.09
-0.10
-0.15
-0.22
-0.27
-0.32
-0.37
-0.44
-0.54
-0.63
-0.71
-0.74
-0.73
-0.69
-0.65
-0.65
-0.66
-0.67
-0.63
-0.52
-0.35
-0.14
0.07
0.25
0.38
0.45
0.44
0.33
0.12
-0.12
-0.30
-0.33
-0.16
0.15
0.50
0.74
0.78
0.63
0.39
0.19
0.15
0.31
0.62
0.99
1.30
1.46
1.41
1.17
0.78
0.33
-0.06
-0.30
-0.31
-0.09
0.27
0.64
0.90
0.96
0.81
0.53
0.22
-0.03
-0.18
-0.26
-0.31
-0.39
-0.50
-0.58
-0.56
-0.38
-0.05
0.37
0.76
1.02
1.11
1.07
0.97
0.92
0.95
1.04
1.13
1.16
1.09
0.96
0.82
0.73
0.75
0.87
1.07
1.31
1.49
1.54
1.37
0.98
0.41
-0.25
-0.84
-1.27
-1.48
-1.52
-1.46
-1.41
-1.44
-1.57
-1.72
-1.78
-1.66
-1.31
-0.79
-0.24
0.22
0.48
0.59
0.63
0.71
0.87
1.06
1.17
1.13
0.92
0.58
0.17
-0.24
-0.63
-0.96
-1.15
-1.13
-0.86
-0.37
0.18
0.61
0.78
0.64
0.27
-0.18
-0.60
-0.93
-1.16
-1.35
-1.49
-1.58
-1.57
-1.47
-1.30
-1.13
-1.03
-1.01
-1.06
-1.15
-1.26
-1.38
-1.54
-1.71
-1.83
-1.80
-1.51
-0.91
-0.05
0.95
1.91
2.68
3.18
3.37
3.30
3.06
2.72
2.37
2.05
1.76
1.48
1.15
0.75
0.28
-0.20
-0.63
-0.97
-1.18
-1.28
-1.27
-1.17
-0.99
-0.78
-0.58
-0.47
-0.51
-0.72
-1.03
-1.34
-1.58
-1.73
-1.87
-2.08
-2.38
-2.74
-3.00
-3.05
-2.82
-2.38
-1.89
-1.53
-1.39
-1.43
-1.46
-1.24
-0.62
0.44
1.77
3.12
4.24
4.94
5.19
5.02
4.54
3.86
3.07
2.23
1.42
0.72
0.17
-0.20
-0.42
-0.56
-0.66
-0.77
-0.90
-1.05
-1.21
-1.39
-1.57
-1.75
-1.88
-1.95
-1.94
-1.86
-1.76
-1.67
-1.59
-1.50
-1.34
-1.06
-0.67
-0.24
0.14
0.42
0.58
0.67
0.73
0.77
0.76
0.63
0.39
0.07
-0.20
-0.31
-0.22
-0.02
0.16
0.18
-0.00
-0.32
-0.67
-0.96
-1.20
-1.43
-1.72
-2.06
-2.38
-2.55
-2.53
-2.36
-2.14
-2.02
-2.10
-2.37
-2.75
-3.05
-3.09
-2.73
-1.95
-0.86
0.29
1.25
1.87
2.11
2.16
2.20
2.40
2.78
3.22
3.55
3.65
3.52
3.22
2.88
2.58
2.36
2.19
2.04
1.90
1.77
1.69
1.66
1.70
1.76
1.82
1.83
1.80
1.72
1.63
1.55
1.46
1.36
1.22
1.06
0.90
0.78
0.73
0.72
0.72
0.64
0.45
0.12
-0.31
-0.77
-1.18
-1.43
-1.48
-1.34
-1.11
-0.96
-1.08
-1.60
-2.52
-3.69
-4.88
-5.85
-6.44
-6.60
-6.41
-6.03
-5.62
-5.33
-5.20
-5.19
-5.13
-4.78
-3.92
-2.43
-0.43
1.78
3.74
5.03
5.41
4.94
3.94
2.88
2.13
1.88
2.04
2.39
2.70
2.86
2.96
3.13
3.45
3.85
4.15
4.19
3.94
3.58
3.36
3.49
4.01
4.76
5.44
5.76
5.59
4.93
3.99
3.02
2.25
1.86
1.82
1.99
2.13
2.02
1.56
0.81
-0.03
-0.74
-1.18
-1.33
-1.26
-1.10
-0.94
-0.81
-0.72
-0.66
-0.67
-0.80
-1.06
-1.41
-1.77
-2.03
-2.08
-1.89
-1.49
-0.99
-0.51
-0.19
-0.07
-0.17
-0.39
-0.61
-0.74
-0.73
-0.64
-0.58
-0.63
-0.84
-1.16
-1.51
-1.78
-1.93
-1.95
-1.88
-1.75
-1.56
-1.31
-1.01
-0.74
-0.56
-0.57
-0.77
-1.07
-1.35
-1.48
-1.41
-1.21
-0.99
-0.85
-0.84
-0.94
-1.08
-1.22
-1.35
-1.43
-1.44
-1.32
-1.05
-0.64
-0.14
0.34
0.76
1.09
1.36
1.58
1.76
1.87
1.92
1.93
1.98
2.11
2.33
2.58
2.74
2.71
2.43
1.92
1.26
0.55
-0.12
-0.69
-1.10
-1.36
-1.47
-1.48
-1.46
-1.45
-1.47
-1.49
-1.43
-1.23
-0.89
-0.43
0.04
0.46
0.77
0.94
0.99
0.93
0.80
0.58
0.30
-0.00
-0.27
-0.42
-0.41
-0.21
0.12
0.46
0.69
0.70
0.48
0.13
-0.21
-0.40
-0.39
-0.22
-0.04
0.06
0.01
-0.14
-0.30
-0.36
-0.29
-0.12
0.08
0.19
0.16
-0.02
-0.29
-0.59
-0.85
-1.00
-1.07
-1.08
-1.11
-1.21
-1.38
-1.56
-1.68
-1.66
-1.48
-1.19
-0.88
-0.63
-0.50
-0.47
-0.51
-0.61
-0.80
-1.10
-1.54
-2.07
-2.58
-2.95
-3.08
-2.96
-2.60
-2.05
-1.38
-0.64
0.11
0.83
1.46
1.97
2.34
2.57
2.69
2.76
2.80
2.83
2.83
2.77
2.62
2.36
1.99
1.54
1.05
0.55
0.07
-0.35
-0.66
-0.82
-0.83
-0.71
-0.56
-0.49
-0.58
-0.84
-1.19
-1.48
-1.62
-1.55
-1.32
-1.03
-0.81
-0.72
-0.80
-1.01
-1.30
-1.64
-2.02
-2.40
-2.75
-3.01
-3.11
-3.05
-2.83
-2.51
-2.13
-1.69
-1.21
-0.69
-0.18
0.24
0.52
0.64
0.64
0.64
0.73
0.99
1.39
1.87
2.33
2.71
2.97
3.11
3.10
2.92
2.59
2.13
1.58
0.99
0.32
-0.47
-1.45
-2.67
-4.11
-5.71
-7.32
-8.71
-9.69
-10.05
-9.73
-8.75
-7.26
-5.47
-3.62
-1.91
-0.52
0.44
0.91
0.97
0.74
0.47
0.36
0.53
1.00
1.64
2.30
2.84
3.17
3.22
2.98
2.50
1.92
1.40
1.14
1.19
1.50
1.89
2.12
2.06
1.65
0.99
0.19
-0.61
-1.29
-1.77
-1.98
-1.95
-1.75
-1.55
-1.55
-1.83
-2.35
-2.90
-3.14
-2.78
-1.67
0.12
2.29
4.44
6.19
7.29
7.69
7.56
7.15
6.73
6.46
6.40
6.52
6.73
6.98
7.19
7.34
7.36
7.23
6.90
6.41
5.81
5.20
4.65
4.19
3.81
3.49
3.22
3.01
2.83
2.64
2.37
2.00
1.56
1.09
0.66
0.28
-0.07
-0.44
-0.84
-1.22
-1.48
-1.58
-1.56
-1.56
-1.69
-2.02
-2.45
-2.83
-2.98
-2.86
-2.55
-2.26
-2.20
-2.46
-3.02
-3.70
-4.26
-4.49
-4.28
-3.65
-2.76
-1.81
-0.99
-0.39
-0.00
0.25
0.44
0.60
0.72
0.78
0.77
0.76
0.81
0.97
1.22
1.47
1.61
1.55
1.28
0.85
0.37
-0.08
-0.49
-0.85
-1.21
-1.63
-2.12
-2.66
-3.22
-3.73
-4.07
-4.14
-3.88
-3.29
-2.48
-1.65
-1.01
-0.71
-0.82
-1.29
-1.99
-2.78
-3.51
-4.05
-4.28
-4.06
-3.31
-2.02
-0.32
1.57
3.38
4.87
5.89
6.44
6.57
6.35
5.83
5.05
4.08
3.00
1.98
1.12
0.51
0.12
-0.11
-0.28
-0.44
-0.57
-0.65
-0.61
-0.40
-0.03
0.45
0.96
1.37
1.61
1.61
1.40
1.02
0.62
0.31
0.20
0.32
0.60
0.93
1.14
1.13
0.88
0.47
0.02
-0.37
-0.60
-0.66
-0.54
-0.27
0.15
0.67
1.21
1.69
2.01
2.10
1.97
1.67
1.33
1.03
0.85
0.79
0.83
0.89
0.94
0.97
0.97
0.96
0.97
0.99
1.03
1.12
1.29
1.57
1.94
2.35
2.70
2.91
2.97
2.92
2.83
2.72
2.54
2.19
1.61
0.83
-0.06
-0.93
-1.72
-2.44
-3.20
-4.04
-4.90
-5.62
-5.99
-5.89
-5.39
-4.67
-3.97
-3.43
-3.09
-2.91
-2.82
-2.78
-2.82
-2.97
-3.19
-3.42
-3.52
-3.40
-3.01
-2.40
-1.70
-1.03
-0.49
-0.16
-0.02
-0.03
-0.11
-0.19
-0.18
-0.07
0.14
0.38
0.60
0.74
0.79
0.77
0.74
0.72
0.71
0.70
0.64
0.51
0.30
0.02
-0.29
-0.60
-0.85
-0.99
-1.00
-0.90
-0.74
-0.58
-0.48
-0.37
-0.22
0.02
0.34
0.66
0.86
0.87
0.71
0.44
0.20
0.05
-0.01
-0.02
-0.06
-0.19
-0.40
-0.64
-0.84
-0.91
-0.86
-0.72
-0.56
-0.46
-0.44
-0.47
-0.47
-0.39
-0.22
-0.04
0.07
0.07
0.00
-0.04
0.05
0.30
0.63
0.92
1.07
1.03
0.85
0.62
0.40
0.19
-0.03
-0.30
-0.59
-0.82
-0.86
-0.64
-0.17
0.44
1.00
1.34
1.37
1.08
0.57
-0.03
-0.59
-1.00
-1.20
-1.18
-0.98
-0.65
-0.26
0.11
0.41
0.60
0.67
0.63
0.49
0.28
0.02
-0.25
-0.49
-0.68
-0.78
-0.79
-0.72
-0.58
-0.41
-0.25
-0.15
-0.14
-0.19
-0.22
-0.11
0.18
0.62
1.11
1.50
1.66
1.58
1.29
0.91
0.52
0.19
-0.05
-0.18
-0.17
-0.03
0.17
0.35
0.39
0.23
-0.09
-0.46
-0.79
-0.97
-1.02
-0.95
-0.82
-0.64
-0.44
-0.25
-0.13
-0.18
-0.39
-0.71
-0.98
-1.04
-0.80
-0.31
0.26
0.71
0.92
0.85
0.59
0.26
-0.04
-0.22
-0.29
-0.25
-0.16
-0.06
0.02
0.08
0.11
0.14
0.19
0.24
0.25
0.14
-0.11
-0.45
-0.73
-0.82
-0.62
-0.18
0.34
0.73
0.88
0.81
0.63
0.50
0.49
0.56
0.63
0.63
0.56
0.45
0.38
0.33
0.28
0.20
0.06
-0.08
-0.21
-0.31
-0.39
-0.50
-0.63
-0.77
-0.87
-0.90
-0.84
-0.72
-0.57
-0.45
-0.36
-0.32
-0.30
-0.26
-0.20
-0.11
-0.03
0.03
0.05
0.02
-0.05
-0.14
-0.25
-0.35
-0.41
-0.39
-0.28
-0.10
0.12
0.31
0.41
0.41
0.30
0.09
-0.17
-0.43
-0.65
-0.80
-0.86
-0.81
-0.67
-0.46
-0.21
0.05
0.30
0.52
0.71
0.87
0.99
1.05
1.01
0.86
0.64
0.39
0.18
0.08
0.07
0.15
0.25
0.34
0.42
0.50
0.58
0.66
0.70
0.64
0.43
0.11
-0.27
-0.59
-0.79
-0.84
-0.82
-0.80
-0.82
-0.83
-0.76
-0.54
-0.18
0.21
0.46
0.49
0.34
0.11
-0.03
-0.01
0.14
0.32
0.42
0.41
0.32
0.22
0.17
0.18
0.26
0.35
0.43
0.45
0.37
0.18
-0.06
-0.30
-0.45
-0.50
-0.49
-0.50
-0.60
-0.75
-0.86
-0.80
-0.52
-0.08
0.37
0.66
0.74
0.63
0.48
0.40
0.45
0.60
0.75
0.81
0.77
0.68
0.63
0.67
0.78
0.86
0.80
0.52
0.05
-0.49
-0.92
-1.13
-1.07
-0.83
-0.56
-0.39
-0.37
-0.48
-0.61
-0.70
-0.71
-0.69
-0.67
-0.67
-0.68
-0.69
-0.66
-0.57
-0.42
-0.19
0.10
0.41
0.66
0.78
0.71
0.50
0.21
-0.05
-0.23
-0.30
-0.31
-0.28
-0.23
-0.13
0.02
0.19
0.34
0.43
0.45
0.44
0.47
0.57
0.71
0.80
0.74
0.50
0.10
-0.33
-0.65
-0.78
-0.73
-0.59
-0.46
-0.42
-0.46
-0.53
-0.57
-0.58
-0.60
-0.67
-0.78
-0.86
-0.83
-0.62
-0.22
0.25
0.66
0.86
0.80
0.53
0.19
-0.04
-0.05
0.17
0.51
0.79
0.88
0.74
0.45
0.19
0.13
0.31
0.69
1.08
1.34
1.37
1.18
0.84
0.47
0.14
-0.13
-0.32
-0.40
-0.35
-0.18
0.05
0.24
0.25
0.06
-0.30
-0.69
-0.92
-0.93
-0.72
-0.41
-0.16
-0.07
-0.16
-0.38
-0.62
-0.81
-0.92
-0.95
-0.95
-0.94
-0.91
-0.85
-0.74
-0.57
-0.36
-0.15
0.04
0.17
0.22
0.20
0.16
0.14
0.21
0.38
0.61
0.81
0.86
0.71
0.36
-0.08
-0.44
-0.62
-0.58
-0.37
-0.12
0.11
0.26
0.36
0.42
0.43
0.35
0.17
-0.07
-0.28
-0.36
-0.26
-0.03
0.21
0.34
0.32
0.19
0.05
0.02
0.13
0.32
0.49
0.57
0.56
0.49
0.42
0.36
0.29
0.19
0.05
-0.07
-0.09
0.03
0.26
0.48
0.60
0.56
0.38
0.17
0.01
-0.05
-0.03
0.03
0.10
0.19
0.28
0.37
0.40
0.35
0.21
-0.01
-0.23
-0.42
-0.55
-0.65
-0.73
-0.78
-0.74
-0.58
-0.28
0.12
0.51
0.77
0.81
0.61
0.26
-0.12
-0.40
-0.50
-0.44
-0.29
-0.13
0.03
0.20
0.43
0.70
0.95
1.08
1.02
0.80
0.52
0.32
0.29
0.41
0.56
0.60
0.46
0.15
-0.22
-0.54
-0.69
-0.65
-0.43
-0.16
0.08
0.20
0.19
0.10
-0.00
-0.06
-0.08
-0.12
-0.22
-0.37
-0.48
-0.45
-0.26
-0.00
0.18
0.14
-0.16
-0.60
-0.98
-1.14
-1.00
-0.63
-0.17
0.20
0.40
0.40
0.24
-0.01
-0.27
-0.48
-0.63
-0.74
-0.84
-0.92
-0.96
-0.90
-0.71
-0.43
-0.12
0.11
0.21
0.20
0.11
0.06
0.09
0.20
0.35
0.48
0.53
0.50
0.42
0.34
0.30
0.27
0.23
0.18
0.11
0.09
0.14
0.26
0.38
0.40
0.27
-0.01
-0.35
-0.62
-0.73
-0.67
-0.44
-0.11
0.29
0.70
1.04
1.24
1.24
1.02
0.67
0.26
-0.10
-0.36
-0.54
-0.65
-0.69
-0.64
-0.51
-0.30
-0.09
0.08
0.15
0.13
0.04
-0.08
-0.19
-0.26
-0.24
-0.11
0.11
0.36
0.55
0.58
0.48
0.33
0.26
0.34
0.53
0.68
0.67
0.42
0.03
-0.34
-0.56
-0.58
-0.48
-0.40
-0.41
-0.52
-0.61
-0.59
-0.41
-0.11
0.19
0.37
0.39
0.27
0.08
-0.08
-0.20
-0.27
-0.34
-0.43
-0.49
-0.52
-0.48
-0.40
-0.34
-0.34
-0.40
-0.44
-0.36
-0.13
0.21
0.53
0.72
0.75
0.68
0.62
0.64
0.73
0.77
0.68
0.44
0.11
-0.18
-0.34
-0.38
-0.35
-0.33
-0.37
-0.45
-0.54
-0.60
-0.62
-0.60
-0.53
-0.40
-0.20
0.07
0.36
0.57
0.66
0.61
0.44
0.23
0.03
-0.11
-0.13
-0.02
0.21
0.50
0.75
0.89
0.87
0.71
0.48
0.26
0.10
0.04
0.07
0.16
0.26
0.32
0.26
0.06
-0.29
-0.72
-1.15
-1.48
-1.65
-1.67
-1.56
-1.37
-1.10
-0.77
-0.40
-0.01
0.34
0.57
0.63
0.53
0.29
0.02
-0.20
-0.31
-0.29
-0.18
-0.04
0.07
0.15
0.21
0.29
0.43
0.60
0.73
0.73
0.57
0.27
-0.04
-0.24
-0.22
-0.03
0.22
0.42
0.50
0.49
0.47
0.48
0.51
0.49
0.36
0.11
-0.19
-0.46
-0.64
-0.69
-0.64
-0.50
-0.30
-0.06
0.14
0.23
0.17
-0.02
-0.24
-0.37
-0.30
-0.05
0.30
0.60
0.75
0.72
0.62
0.52
0.51
0.55
0.56
0.45
0.17
-0.20
-0.57
-0.81
-0.86
-0.77
-0.62
-0.50
-0.46
-0.49
-0.52
-0.48
-0.36
-0.20
-0.08
-0.10
-0.28
-0.56
-0.84
-0.98
-0.91
-0.66
-0.30
0.03
0.24
0.30
0.26
0.16
0.08
0.06
0.12
0.26
0.48
0.74
0.98
1.12
1.11
0.94
0.66
0.36
0.15
0.08
0.15
0.30
0.46
0.57
0.61
0.58
0.51
0.42
0.36
0.33
0.34
0.34
0.30
0.20
0.05
-0.09
-0.16
-0.14
-0.05
0.06
0.11
0.06
-0.07
-0.23
-0.35
-0.37
-0.27
-0.05
0.27
0.62
0.96
1.19
1.27
1.15
0.86
0.46
0.04
-0.29
-0.48
-0.53
-0.50
-0.46
-0.48
-0.59
-0.75
-0.91
-1.00
-0.98
-0.82
-0.55
-0.21
0.14
0.42
0.54
0.45
0.13
-0.35
-0.86
-1.24
-1.35
-1.14
-0.66
-0.03
0.62
1.14
1.47
1.53
1.31
0.80
0.08
-0.71
-1.40
-1.78
-1.77
-1.40
-0.85
-0.30
0.08
0.25
0.24
0.17
0.10
0.06
0.03
0.00
-0.02
-0.03
0.01
0.08
0.18
0.28
0.37
0.44
0.50
0.53
0.55
0.53
0.48
0.39
0.26
0.09
-0.11
-0.28
-0.40
-0.41
-0.33
-0.18
-0.03
0.04
0.00
-0.14
-0.33
-0.46
-0.45
-0.30
-0.03
0.26
0.49
0.60
0.59
0.50
0.38
0.26
0.18
0.16
0.20
0.30
0.43
0.51
0.48
0.33
0.07
-0.19
-0.35
-0.34
-0.17
0.05
0.23
0.27
0.16
-0.02
-0.20
-0.32
-0.37
-0.39
-0.43
-0.51
-0.61
-0.69
-0.73
-0.71
-0.65
-0.59
-0.56
-0.57
-0.66
-0.82
-1.05
-1.29
-1.49
-1.56
-1.49
-1.25
-0.89
-0.48
-0.10
0.20
0.37
0.45
0.47
0.51
0.64
0.86
1.15
1.42
1.60
1.64
1.56
1.40
1.23
1.06
0.90
0.74
0.57
0.42
0.32
0.29
0.35
0.44
0.52
0.53
0.41
0.16
-0.19
-0.54
-0.73
-0.67
-0.29
0.29
0.90
1.33
1.43
1.21
0.80
0.39
0.11
-0.01
-0.02
-0.02
-0.07
-0.16
-0.24
-0.26
-0.22
-0.13
-0.02
0.08
0.16
0.19
0.16
0.05
-0.16
-0.46
-0.83
-1.26
-1.74
-2.22
-2.69
-3.10
-3.41
-3.62
-3.76
-3.88
-4.00
-4.11
-4.16
-4.09
-3.88
-3.53
-3.03
-2.42
-1.70
-0.92
-0.17
0.44
0.75
0.64
0.02
-1.09
-2.56
-4.12
-5.29
-5.51
-4.27
-1.26
3.47
9.45
15.88
21.82
26.45
29.24
30.08
29.25
27.29
24.89
22.68
21.11
20.36
20.27
20.37
20.11
19.06
17.10
14.57
12.09
10.21
9.05
8.18
6.79
4.12
-0.03
-5.16
-10.20
-14.14
-16.48
-17.40
-17.53
-17.59
-18.22
-20.01
-23.65
-29.66
-37.95
-47.23
-55.03
-58.44
-55.52
-46.44
-33.72
-21.12
-11.86
-7.04
-5.28
-3.76
0.03
6.85
15.43
23.35
28.39
29.56
27.34
23.17
18.66
14.88
12.27
10.85
10.38
10.56
10.99
11.13
10.46
8.58
5.43
1.34
-3.09
-7.14
-10.17
-11.80
-11.92
-10.74
-8.78
-6.67
-4.97
-4.05
-3.95
-4.38
-4.93
-5.18
-4.89
-4.02
-2.78
-1.45
-0.38
0.17
-0.01
-0.96
-2.60
-4.66
-6.74
-8.33
-8.96
-8.34
-6.53
-3.89
-1.01
1.54
3.48
4.84
5.87
6.81
7.74
8.52
8.87
8.60
7.76
6.63
5.63
5.12
5.24
5.88
6.78
7.63
8.23
8.55
8.65
8.64
8.58
8.43
8.10
7.50
6.62
5.50
4.20
2.76
1.19
-0.49
-2.24
-3.94
-5.47
-6.66
-7.36
-7.49
-6.97
-5.88
-4.43
-2.99
-1.99
-1.81
-2.60
-4.15
-5.97
-7.48
-8.23
-8.10
-7.26
-6.09
-4.93
-3.97
-3.20
-2.52
-1.83
-1.09
-0.31
0.49
1.30
2.16
3.01
3.76
4.23
4.28
3.91
3.24
2.50
1.96
1.76
1.89
2.17
2.31
2.06
1.33
0.18
-1.15
-2.38
-3.29
-3.78
-3.87
-3.68
-3.36
-3.02
-2.73
-2.48
-2.25
-2.01
-1.69
-1.29
-0.84
-0.46
-0.30
-0.51
-1.13
-2.05
-3.02
-3.73
-3.89
-3.34
-2.13
-0.55
0.93
1.80
1.70
0.60
-1.11
-2.70
-3.35
-2.46
0.06
3.72
7.64
10.88
12.73
13.03
12.02
10.24
8.24
6.45
5.03
3.97
3.14
2.38
1.58
0.74
-0.05
-0.61
-0.73
-0.23
0.94
2.63
4.50
6.06
6.77
6.30
4.62
2.11
-0.51
-2.41
-2.88
-1.57
1.36
5.23
8.94
11.26
11.24
8.60
3.93
-1.51
-6.25
-9.30
-10.53
-10.67
-10.79
-11.73
-13.66
-16.12
-18.35
-19.75
-20.12
-19.61
-18.44
-16.74
-14.49
-11.64
-8.25
-4.63
-1.24
1.43
3.04
3.48
2.91
1.72
0.36
-0.77
-1.42
-1.58
-1.35
-0.89
-0.28
0.55
1.70
3.25
5.14
7.19
9.16
10.88
12.28
13.35
14.04
14.31
14.10
13.46
12.49
11.23
9.54
7.14
3.78
-0.40
-4.80
-8.43
-10.44
-10.51
-9.11
-7.21
-5.78
-5.24
-5.32
-5.29
-4.45
-2.62
-0.29
1.64
2.40
1.82
0.47
-0.61
-0.50
1.12
3.81
6.72
9.08
10.70
12.02
13.78
16.51
20.22
24.37
28.12
30.71
31.79
31.54
30.47
29.38
29.05
30.03
32.68
37.18
43.26
49.91
55.02
55.80
49.75
36.03
16.42
-4.90
-22.91
-33.88
-36.97
-34.39
-29.96
-27.02
-26.96
-29.02
-31.42
-32.69
-32.58
-31.85
-31.48
-31.87
-32.60
-32.78
-31.59
-28.78
-24.93
-21.07
-18.21
-16.84
-16.72
-17.07
-16.95
-15.71
-13.32
-10.35
-7.62
-5.79
-5.10
-5.24
-5.58
-5.47
-4.58
-3.02
-1.23
0.26
1.05
1.11
0.66
0.05
-0.46
-0.76
-0.92
-1.05
-1.19
-1.26
-1.12
-0.68
0.01
0.75
1.25
1.29
0.79
-0.11
-1.13
-1.90
-2.13
-1.70
-0.72
0.55
1.81
2.81
3.46
3.79
3.87
3.71
3.30
2.65
1.87
1.20
0.88
0.99
1.36
1.56
1.15
-0.05
-1.86
-3.72
-5.02
-5.39
-4.83
-3.65
-2.27
-1.01
-0.03
0.60
0.79
0.40
-0.62
-2.08
-3.56
-4.59
-4.96
-4.84
-4.63
-4.55
-4.29
-3.02
0.14
5.49
12.31
18.97
23.71
25.46
24.50
22.34
20.93
21.69
24.81
29.18
33.18
35.50
35.79
34.75
33.68
33.83
36.17
41.28
49.45
60.23
71.76
80.35
81.15
69.98
45.64
11.23
-26.37
-59.19
-81.35
-91.33
-91.94
-88.29
-84.88
-83.67
-83.88
-83.42
-80.59
-75.29
-68.86
-63.17
-59.69
-58.95
-60.57
-63.85
-67.98
-72.05
-74.61
-73.30
-65.32
-48.59
-23.09
8.19
39.70
65.01
79.11
80.15
69.94
52.81
33.76
16.62
3.28
-6.19
-12.50
-16.22
-17.36
-15.60
-10.85
-3.75
4.30
11.53
16.42
18.31
17.39
14.47
10.58
6.56
3.07
0.59
-0.53
-0.04
2.06
5.49
9.80
14.33
18.27
20.65
20.58
17.58
12.02
5.22
-0.75
-3.70
-2.11
4.32
14.64
26.98
39.35
50.26
58.95
65.27
69.17
70.27
67.76
60.77
49.07
33.59
16.65
1.28
-9.85
-15.54
-16.55
-15.17
-14.15
-15.63
-20.35
-27.66
-35.96
-43.54
-49.17
-52.49
-53.98
-54.71
-55.70
-57.34
-58.74
-57.27
-48.98
-29.99
1.40
42.65
86.30
121.31
136.49
124.50
85.13
26.06
-39.29
-96.06
-132.04
-140.34
-119.91
-74.47
-11.06
60.99
130.82
187.25
220.51
224.39
197.92
145.71
76.65
1.44
-69.80
-129.13
-171.28
-193.57
-195.95
-181.02
-153.88
-121.31
-90.20
-65.84
-50.71
-44.40
-44.47
-47.95
-52.66
-57.82
-63.68
-70.72
-78.77
-86.57
-92.27
-94.28
-92.28
-87.56
-82.89
-81.45
-85.55
-95.66
-109.83
-123.97
-132.75
-130.96
-115.22
-85.27
-44.33
1.73
46.52
85.36
116.67
141.75
163.20
183.27
203.09
223.33
245.13
270.31
300.24
333.89
366.80
391.93
402.24
393.72
366.94
326.06
276.28
221.51
163.74
104.58
47.08
-3.52
-41.19
-61.72
-64.89
-54.78
-38.32
-22.95
-14.60
-16.72
-30.21
-53.52
-82.96
-113.32
-139.02
-155.80
-162.11
-159.45
-151.27
-141.11
-131.02
-121.44
-112.00
-102.62
-94.08
-87.50
-83.36
-80.96
-78.65
-74.73
-68.47
-60.49
-52.42
-45.97
-42.03
-40.24
-39.29
-37.63
-34.25
-29.13
-23.13
-17.46
-13.07
-10.27
-8.63
-7.35
-5.66
-3.11
0.29
4.21
8.22
11.93
15.05
17.37
18.70
18.85
17.71
15.31
11.91
8.00
4.22
1.11
-1.05
-2.35
-3.13
-3.73
-4.25
-4.48
-4.03
-2.62
-0.35
2.27
4.56
5.93
6.20
5.58
4.52
3.43
2.53
1.82
1.30
0.94
0.81
0.94
1.27
1.69
2.06
2.30
2.48
2.70
3.04
3.52
4.01
4.32
4.25
3.67
2.56
1.09
-0.46
-1.73
-2.41
-2.41
-1.98
-1.61
-1.88
-3.14
-5.31
-7.88
-10.16
-11.57
-11.89
-11.31
-10.22
-9.03
-7.94
-6.99
-6.13
-5.35
-4.71
-4.29
-4.08
-3.99
-3.90
-3.68
-3.32
-2.84
-2.34
-1.89
-1.55
-1.39
-1.44
-1.66
-1.91
-1.95
-1.55
-0.62
0.76
2.35
3.87
5.10
5.96
6.47
6.68
6.59
6.16
5.30
3.99
2.34
0.56
-1.04
-2.25
-2.97
-3.31
-3.39
-3.34
-3.14
-2.71
-2.02
-1.14
-0.26
0.38
0.62
0.45
0.01
-0.55
-1.08
-1.54
-1.90
-2.14
-2.21
-2.08
-1.74
-1.24
-0.70
-0.19
0.17
0.34
0.24
-0.12
-0.68
-1.33
-1.95
-2.41
-2.68
-2.80
-2.85
-2.92
-3.02
-3.15
-3.22
-3.17
-2.94
-2.49
-1.84
-1.06
-0.20
0.65
1.42
2.05
2.49
2.71
2.72
2.54
2.28
2.03
1.88
1.82
1.75
1.53
1.10
0.50
-0.10
-0.49
-0.55
-0.29
0.12
0.45
0.55
0.39
0.11
-0.12
-0.18
-0.06
0.16
0.35
0.40
0.27
0.01
-0.33
-0.67
-0.98
-1.27
-1.52
-1.70
-1.76
-1.64
-1.33
-0.87
-0.37
0.05
0.28
0.29
0.15
-0.06
-0.22
-0.24
-0.10
0.18
0.52
0.84
1.08
1.20
1.17
1.00
0.74
0.44
0.16
-0.05
-0.14
-0.12
-0.01
0.16
0.31
0.39
0.35
0.24
0.11
0.07
0.24
0.63
1.19
1.78
2.25
2.46
2.37
2.00
1.44
0.83
0.29
-0.07
-0.20
-0.11
0.08
0.26
0.30
0.15
-0.12
-0.41
-0.59
-0.65
-0.61
-0.58
-0.65
-0.86
-1.17
-1.50
-1.79
-1.96
-1.97
-1.84
-1.57
-1.24
-0.92
-0.67
-0.52
-0.42
-0.33
-0.21
-0.06
0.05
0.12
0.15
0.24
0.46
0.86
1.37
1.85
2.18
2.25
2.05
1.64
1.11
0.53
-0.01
-0.47
-0.80
-0.98
-1.04
-1.02
-0.96
-0.83
-0.62
-0.30
0.09
0.42
0.58
0.51
0.25
-0.04
-0.24
-0.29
-0.25
-0.27
-0.48
-0.87
-1.32
-1.64
-1.68
-1.42
-0.99
-0.58
-0.33
-0.28
-0.33
-0.35
-0.26
-0.05
0.17
0.31
0.36
0.36
0.43
0.61
0.84
0.97
0.88
0.53
0.04
-0.40
-0.57
-0.41
-0.01
0.46
0.80
0.90
0.78
0.51
0.23
0.02
-0.11
-0.13
-0.07
0.07
0.26
0.43
0.51
0.42
0.18
-0.15
-0.44
-0.61
-0.63
-0.52
-0.39
-0.28
-0.25
-0.29
-0.36
-0.42
-0.43
-0.37
-0.25
-0.10
0.04
0.16
0.25
0.34
0.44
0.56
0.67
0.71
0.68
0.59
0.50
0.44
0.41
0.38
0.34
0.26
0.16
0.04
-0.05
-0.09
-0.07
0.03
0.17
0.31
0.34
0.20
-0.13
-0.57
-0.99
-1.23
-1.20
-0.91
-0.44
0.06
0.46
0.69
0.75
0.70
0.60
0.52
0.46
0.41
0.33
0.18
-0.02
-0.26
-0.48
-0.67
-0.80
-0.85
-0.82
-0.70
-0.50
-0.24
0.06
0.37
0.68
0.95
1.18
1.31
1.34
1.25
1.08
0.85
0.60
0.33
0.07
-0.17
-0.35
-0.43
-0.37
-0.18
0.08
0.32
0.46
0.43
0.21
-0.17
-0.64
-1.08
-1.36
-1.41
-1.21
-0.84
-0.41
-0.03
0.22
0.35
0.40
0.41
0.41
0.39
0.30
0.15
-0.05
-0.27
-0.47
-0.62
-0.71
-0.73
-0.71
-0.65
-0.57
-0.45
-0.31
-0.16
-0.00
0.15
0.28
0.38
0.43
0.42
0.37
0.31
0.30
0.38
0.54
0.74
0.89
0.93
0.84
0.64
0.41
0.19
0.01
-0.15
-0.28
-0.41
-0.48
-0.43
-0.25
0.05
0.37
0.61
0.67
0.50
0.17
-0.23
-0.61
-0.88
-1.01
-1.01
-0.90
-0.74
-0.58
-0.44
-0.33
-0.21
-0.04
0.19
0.43
0.62
0.65
0.54
0.32
0.11
0.00
-0.02
-0.04
-0.16
-0.43
-0.78
-1.05
-1.11
-0.89
-0.46
0.03
0.40
0.52
0.36
0.01
-0.40
-0.72
-0.85
-0.77
-0.52
-0.17
0.17
0.44
0.60
0.61
0.45
0.15
-0.23
-0.56
-0.73
-0.66
-0.41
-0.11
0.10
0.16
0.10
0.05
0.14
0.38
0.69
0.92
0.96
0.80
0.49
0.11
-0.26
-0.59
-0.82
-0.93
-0.88
-0.69
-0.46
-0.32
-0.35
-0.53
-0.76
-0.85
-0.67
-0.18
0.49
1.19
1.74
2.05
2.13
2.04
1.86
1.64
1.42
1.18
0.93
0.67
0.47
0.37
0.39
0.51
0.65
0.69
0.58
0.34
0.04
-0.21
-0.31
-0.25
-0.08
0.08
0.15
0.08
-0.10
-0.32
-0.51
-0.62
-0.66
-0.67
-0.66
-0.65
-0.65
-0.65
-0.67
-0.69
-0.71
-0.68
-0.54
-0.29
0.03
0.31
0.45
0.40
0.19
-0.08
-0.33
-0.54
-0.73
-0.92
-1.10
-1.18
-1.10
-0.87
-0.56
-0.30
-0.20
-0.32
-0.63
-1.04
-1.42
-1.67
-1.73
-1.55
-1.16
-0.67
-0.20
0.13
0.28
0.31
0.33
0.46
0.73
1.12
1.52
1.83
1.97
1.94
1.80
1.62
1.49
1.45
1.50
1.58
1.60
1.49
1.24
0.88
0.51
0.20
-0.00
-0.13
-0.21
-0.27
-0.31
-0.33
-0.28
-0.18
-0.08
-0.01
0.01
0.01
0.04
0.12
0.24
0.36
0.41
0.37
0.29
0.25
0.32
0.51
0.73
0.88
0.89
0.76
0.55
0.31
0.09
-0.13
-0.37
-0.61
-0.79
-0.83
-0.69
-0.42
-0.13
0.03
-0.02
-0.26
-0.56
-0.79
-0.84
-0.72
-0.49
-0.29
-0.19
-0.23
-0.38
-0.54
-0.66
-0.68
-0.59
-0.44
-0.27
-0.13
-0.07
-0.09
-0.19
-0.34
-0.47
-0.55
-0.58
-0.58
-0.57
-0.58
-0.58
-0.52
-0.37
-0.14
0.07
0.15
0.02
-0.29
-0.61
-0.76
-0.59
-0.15
0.40
0.82
0.99
0.91
0.75
0.63
0.62
0.63
0.53
0.25
-0.15
-0.52
-0.72
-0.72
-0.59
-0.43
-0.32
-0.22
-0.06
0.23
0.61
0.98
1.20
1.20
0.98
0.64
0.30
0.05
-0.08
-0.10
-0.09
-0.07
-0.05
-0.02
0.04
0.11
0.15
0.12
0.01
-0.14
-0.24
-0.23
-0.10
0.08
0.19
0.15
-0.03
-0.28
-0.51
-0.65
-0.67
-0.61
-0.48
-0.26
0.06
0.47
0.88
1.20
1.31
1.19
0.87
0.48
0.15
-0.03
-0.05
0.06
0.21
0.37
0.51
0.66
0.81
0.92
0.87
0.61
0.15
-0.40
-0.84
-1.02
-0.88
-0.55
-0.19
0.04
0.07
-0.06
-0.23
-0.34
-0.34
-0.21
0.01
0.25
0.44
0.47
0.28
-0.13
-0.67
-1.20
-1.58
-1.72
-1.65
-1.44
-1.19
-0.96
-0.75
-0.55
-0.35
-0.18
-0.08
-0.10
-0.24
-0.49
-0.73
-0.90
-0.95
-0.89
-0.78
-0.71
-0.70
-0.74
-0.78
-0.77
-0.71
-0.65
-0.67
-0.80
-1.04
-1.32
-1.53
-1.57
-1.38
-0.93
-0.30
0.40
1.01
1.37
1.33
0.86
0.03
-0.98
-1.90
-2.49
-2.58
-2.15
-1.31
-0.28
0.71
1.49
1.97
2.20
2.27
2.24
2.15
1.96
1.64
1.16
0.57
0.01
-0.41
-0.61
-0.59
-0.45
-0.29
-0.16
-0.03
0.24
0.72
1.45
2.28
3.00
3.40
3.39
3.00
2.41
1.82
1.37
1.10
0.93
0.77
0.55
0.25
-0.08
-0.37
-0.57
-0.68
-0.70
-0.68
-0.65
-0.63
-0.59
-0.50
-0.33
-0.05
0.28
0.55
0.66
0.51
0.13
-0.36
-0.78
-0.99
-0.96
-0.75
-0.47
-0.25
-0.14
-0.14
-0.16
-0.13
-0.00
0.23
0.51
0.75
0.85
0.79
0.63
0.53
0.63
1.02
1.65
2.29
2.73
2.80
2.49
1.96
1.38
0.85
0.37
-0.12
-0.65
-1.19
-1.62
-1.82
-1.75
-1.45
-1.04
-0.61
-0.25
-0.00
0.09
0.01
-0.26
-0.63
-0.97
-1.12
-1.01
-0.70
-0.36
-0.19
-0.28
-0.61
-0.99
-1.25
-1.27
-1.07
-0.74
-0.41
-0.15
0.01
0.10
0.13
0.08
-0.08
-0.36
-0.72
-1.08
-1.30
-1.30
-1.09
-0.73
-0.37
-0.13
-0.04
-0.07
-0.12
-0.09
0.02
0.17
0.30
0.34
0.32
0.33
0.42
0.59
0.74
0.72
0.47
0.01
-0.45
-0.66
-0.45
0.19
1.09
1.99
2.66
3.02
3.12
3.10
3.08
3.02
2.85
2.46
1.85
1.12
0.44
-0.02
-0.23
-0.23
-0.16
-0.12
-0.18
-0.31
-0.48
-0.62
-0.66
-0.58
-0.35
0.03
0.49
0.92
1.16
1.13
0.82
0.31
-0.21
-0.59
-0.74
-0.66
-0.44
-0.21
-0.06
-0.02
-0.08
-0.20
-0.33
-0.43
-0.45
-0.36
-0.15
0.19
0.61
0.97
1.11
0.86
0.15
-0.89
-1.98
-2.75
-2.95
-2.49
-1.54
-0.41
0.56
1.16
1.37
1.27
0.98
0.59
0.16
-0.29
-0.73
-1.07
-1.22
-1.12
-0.78
-0.28
0.24
0.65
0.82
0.71
0.38
-0.05
-0.40
-0.53
-0.41
-0.10
0.24
0.45
0.45
0.28
0.06
-0.09
-0.13
-0.15
-0.28
-0.61
-1.11
-1.63
-1.98
-2.05
-1.88
-1.63
-1.50
-1.55
-1.71
-1.83
-1.79
-1.58
-1.33
-1.17
-1.19
-1.34
-1.50
-1.51
-1.35
-1.09
-0.89
-0.90
-1.15
-1.51
-1.75
-1.66
-1.14
-0.24
0.83
1.85
2.66
3.20
3.53
3.64
3.48
2.94
1.95
0.61
-0.82
-1.99
-2.62
-2.63
-2.20
-1.67
-1.38
-1.50
-1.98
-2.56
-2.97
-3.03
-2.78
-2.42
-2.22
-2.29
-2.59
-2.91
-3.01
-2.77
-2.26
-1.74
-1.45
-1.55
-1.99
-2.57
-3.03
-3.23
-3.20
-3.11
-3.11
-3.27
-3.46
-3.47
-3.10
-2.32
-1.30
-0.29
0.54
1.21
1.91
2.88
4.20
5.77
7.28
8.47
9.25
9.77
10.34
11.24
12.53
13.99
15.15
15.57
14.95
13.33
10.95
8.17
5.27
2.36
-0.52
-3.31
-5.84
-7.83
-9.02
-9.33
-8.90
-8.04
-7.09
-6.25
-5.51
-4.76
-3.86
-2.81
-1.76
-0.97
-0.58
-0.59
-0.80
-0.98
-0.99
-0.86
-0.72
-0.69
-0.75
-0.74
-0.52
-0.02
0.63
1.19
1.47
1.43
1.23
1.07
1.12
1.35
1.61
1.71
1.54
1.15
0.66
0.26
0.03
-0.03
-0.03
-0.09
-0.31
-0.64
-1.00
-1.25
-1.35
-1.32
-1.29
-1.33
-1.45
-1.57
-1.53
-1.22
-0.63
0.16
0.97
1.66
2.11
2.25
2.10
1.69
1.13
0.54
0.02
-0.33
-0.50
-0.57
-0.62
-0.71
-0.84
-0.95
-0.97
-0.86
-0.64
-0.35
-0.06
0.21
0.43
0.57
0.63
0.58
0.41
0.19
-0.02
-0.11
-0.01
0.27
0.66
1.03
1.24
1.18
0.84
0.30
-0.27
-0.72
-0.91
-0.86
-0.63
-0.38
-0.21
-0.17
-0.25
-0.39
-0.53
-0.61
-0.60
-0.46
-0.17
0.25
0.75
1.22
1.51
1.48
1.09
0.40
-0.42
-1.17
-1.62
-1.65
-1.26
-0.56
0.21
0.83
1.12
1.03
0.63
0.06
-0.51
-0.95
-1.17
-1.18
-1.01
-0.74
-0.49
-0.33
-0.32
-0.45
-0.66
-0.84
-0.88
-0.73
-0.37
0.09
0.55
0.87
0.97
0.86
0.64
0.43
0.35
0.44
0.63
0.81
0.87
0.76
0.53
0.26
0.01
-0.16
-0.28
-0.39
-0.53
-0.72
-0.92
-1.08
-1.15
-1.12
-1.03
-0.93
-0.87
-0.86
-0.85
-0.78
-0.62
-0.34
0.00
0.35
0.64
0.82
0.87
0.78
0.58
0.31
0.02
-0.20
-0.30
-0.24
-0.06
0.13
0.19
0.04
-0.31
-0.75
-1.12
-1.30
-1.29
-1.16
-1.02
-0.95
-0.90
-0.79
-0.55
-0.21
0.13
0.35
0.38
0.27
0.12
-0.00
-0.11
-0.26
-0.52
-0.84
-1.07
-1.01
-0.55
0.26
1.22
2.00
2.30
1.97
1.06
-0.19
-1.44
-2.37
-2.77
-2.67
-2.28
-1.94
-2.02
-2.72
-4.04
-5.69
-7.25
-8.29
-8.56
-8.13
-7.35
-6.79
-6.93
-7.96
-9.70
-11.61
-13.06
-13.58
-13.18
-12.34
-11.95
-12.88
-15.62
-19.97
-24.96
-29.01
-30.26
-27.05
-18.35
-4.31
13.45
31.95
47.41
56.36
56.81
49.02
35.52
20.21
6.92
-1.90
-5.75
-5.72
-3.51
-0.55
2.48
5.44
8.28
10.69
12.11
12.08
10.56
8.07
5.51
3.73
3.13
3.50
4.15
4.33
3.57
1.92
-0.04
-1.51
-1.87
-0.95
0.84
2.70
3.91
4.10
3.41
2.35
1.46
1.06
1.12
1.38
1.49
1.23
0.57
-0.36
-1.30
-2.02
-2.38
-2.36
-2.07
-1.66
-1.31
-1.17
-1.26
-1.53
-1.85
-2.07
-2.06
-1.79
-1.32
-0.80
-0.37
-0.13
-0.11
-0.24
-0.42
-0.56
-0.61
-0.58
-0.47
-0.32
-0.21
-0.24
-0.49
-1.00
-1.68
-2.34
-2.76
-2.79
-2.44
-1.88
-1.38
-1.15
-1.29
-1.71
-2.22
-2.62
-2.75
-2.58
-2.09
-1.32
-0.32
0.81
1.85
2.59
2.84
2.56
1.94
1.23
0.67
0.38
0.31
0.35
0.39
0.43
0.45
0.45
0.38
0.14
-0.28
-0.78
-1.20
-1.37
-1.22
-0.82
-0.33
0.09
0.33
0.36
0.21
-0.02
-0.23
-0.30
-0.17
0.19
0.70
1.26
1.73
2.00
2.04
1.89
1.63
1.38
1.21
1.14
1.13
1.14
1.11
1.04
0.96
0.87
0.80
0.72
0.65
0.57
0.54
0.56
0.63
0.67
0.61
0.40
0.05
-0.33
-0.65
-0.86
-0.97
-1.01
-1.01
-0.97
-0.85
-0.70
-0.58
-0.62
-0.87
-1.31
-1.79
-2.20
-2.48
-2.74
-3.08
-3.53
-3.98
-4.14
-3.74
-2.68
-1.08
0.68
2.17
3.01
3.04
2.28
0.96
-0.62
-2.10
-3.12
-3.37
-2.69
-1.16
0.89
3.00
4.73
5.80
6.11
5.70
4.62
2.83
0.32
-2.83
-6.35
-9.73
-12.42
-14.00
-14.37
-13.73
-12.49
-11.07
-9.74
-8.57
-7.45
-6.19
-4.51
-2.14
1.07
5.03
9.24
12.82
14.86
14.73
12.41
8.53
4.11
0.20
-2.57
-4.00
-4.30
-3.77
-2.73
-1.46
-0.21
0.76
1.23
1.15
0.65
-0.05
-0.69
-1.07
-1.01
-0.39
0.82
2.47
4.20
5.57
6.19
5.98
5.17
4.21
3.50
3.18
3.14
3.11
2.89
2.48
2.06
1.86
1.98
2.32
2.68
2.82
2.63
2.12
1.45
0.78
0.25
-0.11
-0.31
-0.37
-0.31
-0.15
0.11
0.43
0.76
1.04
1.27
1.45
1.64
1.85
2.07
2.24
2.26
2.10
1.77
1.33
0.89
0.54
0.28
0.10
-0.06
-0.23
-0.42
-0.60
-0.76
-0.89
-0.99
-1.10
-1.19
-1.27
-1.29
-1.22
-1.08
-0.88
-0.65
-0.42
-0.22
-0.06
0.01
-0.02
-0.13
-0.26
-0.34
-0.29
-0.08
0.26
0.66
0.99
1.16
1.11
0.84
0.43
0.04
-0.16
-0.02
0.56
1.55
2.83
4.19
5.42
6.34
6.83
6.86
6.53
6.00
5.43
4.95
4.52
4.04
3.34
2.38
1.25
0.18
-0.58
-0.97
-1.10
-1.25
-1.70
-2.55
-3.71
-4.95
-6.04
-6.90
-7.57
-8.11
-8.57
-8.85
-8.78
-8.21
-7.11
-5.58
-3.86
-2.23
-0.92
-0.06
0.37
0.50
0.46
0.38
0.33
0.30
0.25
0.14
-0.06
-0.34
-0.66
-0.96
-1.12
-1.03
-0.63
0.06
0.96
1.87
2.64
3.14
3.37
3.37
3.21
2.96
2.66
2.33
2.00
1.65
1.26
0.79
0.24
-0.33
-0.81
-1.07
-1.08
-0.88
-0.62
-0.46
-0.46
-0.58
-0.70
-0.73
-0.63
-0.47
-0.34
-0.27
-0.21
-0.12
0.04
0.22
0.33
0.30
0.16
0.01
-0.02
0.10
0.35
0.55
0.57
0.30
-0.23
-0.89
-1.53
-2.01
-2.28
-2.38
-2.41
-2.49
-2.68
-2.98
-3.25
-3.35
-3.17
-2.78
-2.35
-2.14
-2.41
-3.28
-4.72
-6.63
-8.76
-10.75
-12.09
-12.25
-10.91
-8.11
-4.37
-0.48
2.79
4.96
5.94
5.99
5.46
4.66
3.75
2.85
2.04
1.37
0.89
0.59
0.48
0.58
0.90
1.36
1.76
1.88
1.59
1.04
0.59
0.62
1.28
2.34
3.30
3.64
3.12
1.87
0.33
-1.02
-1.88
-2.15
-1.95
-1.43
-0.68
0.24
1.32
2.55
3.89
5.27
6.62
7.86
8.90
9.66
10.06
10.06
9.62
8.75
7.45
5.79
3.90
2.03
0.47
-0.54
-0.92
-0.80
-0.41
-0.01
0.22
0.29
0.31
0.43
0.66
0.93
1.03
0.85
0.35
-0.36
-1.13
-1.83
-2.45
-3.05
-3.70
-4.39
-5.01
-5.41
-5.48
-5.24
-4.81
-4.35
-3.93
-3.57
-3.21
-2.82
-2.41
-2.01
-1.65
-1.32
-0.96
-0.55
-0.13
0.19
0.26
0.02
-0.45
-0.95
-1.20
-1.06
-0.54
0.20
0.94
1.49
1.79
1.88
1.86
1.78
1.68
1.58
1.52
1.53
1.64
1.76
1.79
1.62
1.22
0.69
0.22
0.05
0.28
0.89
1.69
2.45
2.97
3.11
2.83
2.18
1.30
0.38
-0.33
-0.63
-0.44
0.14
0.86
1.44
1.70
1.63
1.37
1.16
1.16
1.42
1.86
2.29
2.58
2.65
2.53
2.28
1.97
1.67
1.45
1.35
1.42
1.67
2.06
2.44
2.64
2.51
2.03
1.37
0.84
0.77
1.38
2.71
4.59
6.76
8.94
10.90
12.46
13.50
13.90
13.60
12.54
10.80
8.53
5.98
3.42
1.10
-0.88
-2.58
-4.17
-5.86
-7.70
-9.64
-11.46
-12.88
-13.76
-14.10
-14.04
-13.76
-13.45
-13.20
-13.12
-13.25
-13.64
-14.20
-14.76
-15.11
-15.18
-15.13
-15.25
-15.75
-16.60
-17.40
-17.58
-16.67
-14.47
-11.10
-6.80
-1.70
4.14
10.59
17.23
23.31
28.01
30.68
31.17
29.72
26.76
22.67
17.77
12.42
7.15
2.63
-0.61
-2.36
-2.92
-2.83
-2.64
-2.67
-2.92
-3.23
-3.43
-3.48
-3.43
-3.36
-3.31
-3.22
-3.03
-2.69
-2.20
-1.63
-1.11
-0.79
-0.81
-1.17
-1.75
-2.32
-2.64
-2.60
-2.24
-1.73
-1.26
-0.97
-0.87
-0.91
-1.00
-1.08
-1.13
-1.15
-1.16
-1.17
-1.18
-1.17
-1.13
-1.05
-0.88
-0.60
-0.22
0.22
0.65
0.96
1.11
1.10
0.98
0.83
0.71
0.67
0.71
0.81
0.88
0.83
0.61
0.23
-0.24
-0.66
-0.88
-0.82
-0.52
-0.09
0.29
0.51
0.54
0.46
0.37
0.36
0.45
0.59
0.67
0.61
0.37
0.02
-0.36
-0.66
-0.85
-0.97
-1.08
-1.19
-1.29
-1.32
-1.24
-1.06
-0.87
-0.77
-0.78
-0.83
-0.82
-0.67
-0.42
-0.20
-0.13
-0.24
-0.39
-0.41
-0.16
0.33
0.87
1.24
1.25
0.93
0.40
-0.11
-0.42
-0.48
-0.32
-0.04
0.26
0.50
0.64
0.64
0.51
0.30
0.05
-0.15
-0.24
-0.22
-0.11
0.01
0.12
0.23
0.38
0.57
0.77
0.86
0.74
0.37
-0.17
-0.69
-1.01
-1.02
-0.80
-0.48
-0.21
-0.06
-0.00
0.05
0.18
0.39
0.64
0.86
0.99
1.00
0.90
0.71
0.48
0.31
0.30
0.54
1.00
1.54
1.96
2.07
1.77
1.15
0.41
-0.20
-0.54
-0.58
-0.44
-0.29
-0.23
-0.29
-0.41
-0.49
-0.47
-0.38
-0.29
-0.29
-0.40
-0.58
-0.71
-0.68
-0.47
-0.17
0.11
0.24
0.23
0.15
0.12
0.20
0.36
0.52
0.57
0.51
0.38
0.27
0.24
0.30
0.36
0.36
0.26
0.07
-0.13
-0.31
-0.42
-0.48
-0.51
-0.52
-0.57
-0.67
-0.86
-1.09
-1.29
-1.35
-1.19
-0.80
-0.28
0.24
0.59
0.70
0.57
0.28
-0.06
-0.41
-0.74
-1.05
-1.31
-1.47
-1.48
-1.32
-1.04
-0.69
-0.35
-0.05
0.24
0.57
0.98
1.42
1.78
1.89
1.68
1.16
0.47
-0.17
-0.62
-0.83
-0.88
-0.90
-1.00
-1.17
-1.32
-1.39
-1.37
-1.34
-1.43
-1.70
-2.07
-2.33
-2.25
-1.72
-0.76
0.44
1.60
2.47
2.91
2.86
2.39
1.66
0.84
0.15
-0.27
-0.33
-0.05
0.47
1.11
1.76
2.34
2.79
3.06
3.10
2.90
2.48
1.91
1.31
0.75
0.26
-0.17
-0.56
-0.91
-1.17
-1.30
-1.25
-1.03
-0.67
-0.23
0.19
0.51
0.63
0.54
0.27
-0.08
-0.38
-0.52
-0.49
-0.32
-0.11
0.07
0.18
0.22
0.18
0.03
-0.25
-0.65
-1.06
-1.35
-1.40
-1.16
-0.74
-0.24
0.22
0.63
1.02
1.43
1.81
2.05
1.98
1.56
0.87
0.10
-0.54
-0.90
-0.98
-0.88
-0.70
-0.50
-0.31
-0.12
0.05
0.17
0.18
0.04
-0.22
-0.56
-0.87
-1.10
-1.19
-1.14
-0.99
-0.80
-0.61
-0.47
-0.41
-0.41
-0.45
-0.51
-0.56
-0.59
-0.60
-0.56
-0.48
-0.34
-0.16
0.06
0.28
0.46
0.56
0.59
0.56
0.52
0.50
0.50
0.50
0.45
0.35
0.24
0.16
0.16
0.22
0.30
0.31
0.20
-0.00
-0.23
-0.38
-0.38
-0.21
0.00
0.15
0.11
-0.12
-0.46
-0.77
-0.93
-0.91
-0.77
-0.62
-0.52
-0.45
-0.36
-0.22
-0.04
0.08
0.06
-0.11
-0.36
-0.52
-0.45
-0.13
0.34
0.78
1.05
1.06
0.89
0.62
0.36
0.15
-0.00
-0.11
-0.16
-0.15
-0.06
0.08
0.19
0.25
0.26
0.24
0.23
0.22
0.17
0.05
-0.13
-0.33
-0.46
-0.49
-0.42
-0.32
-0.24
-0.24
-0.30
-0.40
-0.48
-0.51
-0.46
-0.35
-0.21
-0.10
-0.07
-0.14
-0.28
-0.42
-0.49
-0.45
-0.28
-0.01
0.30
0.61
0.85
0.96
0.92
0.73
0.47
0.22
0.08
0.10
0.27
0.54
0.77
0.84
0.61
0.09
-0.60
-1.15
-1.23
-0.64
0.52
1.84
2.73
2.75
1.80
0.19
-1.55
-2.93
-3.77
-4.16
-4.33
-4.36
-4.19
-3.66
-2.75
-1.65
-0.72
-0.25
-0.28
-0.51
-0.56
-0.18
0.53
1.22
1.46
1.05
0.09
-1.10
-2.14
-2.84
-3.13
-3.08
-2.71
-1.95
-0.76
0.81
2.46
3.75
4.22
3.64
2.13
0.16
-1.61
-2.62
-2.58
-1.59
-0.09
1.39
2.38
2.68
2.35
1.68
1.04
0.73
0.86
1.36
2.03
2.65
3.06
3.15
2.90
2.26
1.25
-0.03
-1.30
-2.26
-2.62
-2.36
-1.65
-0.85
-0.23
0.15
0.46
0.95
1.72
2.62
3.34
3.58
3.25
2.58
1.99
1.82
2.21
3.03
3.91
4.47
4.42
3.64
2.24
0.43
-1.46
-3.18
-4.53
-5.46
-6.06
-6.54
-7.16
-8.10
-9.46
-11.13
-12.90
-14.48
-15.64
-16.36
-16.83
-17.33
-18.16
-19.39
-20.84
-22.16
-23.05
-23.47
-23.70
-24.24
-25.52
-27.64
-30.32
-33.01
-35.02
-35.57
-33.68
-28.20
-18.16
-3.24
15.63
36.12
55.10
69.62
77.98
80.15
77.51
71.89
64.70
56.61
47.76
38.40
29.25
21.38
15.66
12.26
10.50
9.21
7.38
4.58
1.15
-2.12
-4.52
-5.77
-6.12
-6.12
-6.31
-6.93
-7.89
-8.83
-9.41
-9.44
-8.95
-8.19
-7.49
-7.10
-7.10
-7.35
-7.66
-7.82
-7.77
-7.58
-7.37
-7.23
-7.11
-6.87
-6.38
-5.60
-4.62
-3.65
-2.86
-2.33
-2.06
-1.93
-1.88
-1.85
-1.86
-1.87
-1.83
-1.65
-1.28
-0.75
-0.18
0.26
0.47
0.44
0.26
0.11
0.10
0.28
0.58
0.86
0.99
0.92
0.68
0.38
0.12
-0.07
-0.22
-0.38
-0.57
-0.76
-0.86
-0.80
-0.61
-0.39
-0.25
-0.28
-0.48
-0.76
-1.00
-1.12
-1.09
-0.95
-0.75
-0.54
-0.38
-0.26
-0.18
-0.11
0.01
0.22
0.54
0.92
1.27
1.51
1.56
1.44
1.20
0.90
0.62
0.39
0.23
0.15
0.15
0.23
0.36
0.50
0.59
0.58
0.49
0.35
0.22
0.15
0.16
0.21
0.26
0.29
0.28
0.26
0.24
0.22
0.18
0.11
0.02
-0.07
-0.15
-0.25
-0.43
-0.73
-1.12
-1.52
-1.81
-1.90
-1.76
-1.45
-1.06
-0.70
-0.41
-0.21
-0.09
-0.03
-0.02
0.01
0.09
0.26
0.49
0.72
0.87
0.90
0.82
0.70
0.62
0.66
0.82
1.08
1.35
1.55
1.58
1.44
1.14
0.73
0.28
-0.15
-0.52
-0.81
-1.00
-1.08
-1.08
-1.01
-0.93
-0.88
-0.89
-0.94
-0.99
-0.98
-0.88
-0.74
-0.59
-0.49
-0.49
-0.55
-0.65
-0.72
-0.70
-0.59
-0.40
-0.19
-0.06
-0.07
-0.25
-0.57
-0.94
-1.27
-1.50
-1.59
-1.57
-1.46
-1.29
-1.07
-0.84
-0.62
-0.46
-0.35
-0.22
-0.02
0.31
0.75
1.20
1.54
1.69
1.64
1.45
1.19
0.91
0.63
0.35
0.12
0.02
0.10
0.39
0.82
1.28
1.63
1.83
1.84
1.71
1.50
1.25
1.01
0.80
0.65
0.55
0.47
0.35
0.12
-0.24
-0.69
-1.14
-1.48
-1.67
-1.70
-1.63
-1.52
-1.40
-1.29
-1.17
-1.06
-0.99
-1.00
-1.12
-1.31
-1.55
-1.74
-1.84
-1.83
-1.73
-1.60
-1.54
-1.68
-2.04
-2.57
-3.12
-3.50
-3.57
-3.37
-3.08
-2.95
-3.13
-3.66
-4.40
-5.14
-5.71
-6.03
-6.16
-6.26
-6.51
-7.07
-8.04
-9.36
-10.84
-12.17
-13.08
-13.44
-13.41
-13.39
-13.89
-15.31
-17.72
-20.75
-23.64
-25.42
-25.11
-22.11
-16.40
-8.65
-0.08
7.88
14.05
17.96
19.95
21.10
22.75
25.97
31.17
37.88
44.93
50.82
54.30
54.68
52.03
47.04
40.68
33.85
27.18
21.01
15.48
10.61
6.38
2.69
-0.65
-3.82
-6.87
-9.72
-12.14
-13.86
-14.73
-14.75
-14.10
-12.99
-11.70
-10.47
-9.50
-8.91
-8.69
-8.71
-8.74
-8.54
-8.02
-7.22
-6.34
-5.63
-5.27
-5.31
-5.59
-5.89
-5.95
-5.63
-4.94
-4.04
-3.16
-2.47
-2.06
-1.88
-1.84
-1.80
-1.68
-1.45
-1.14
-0.75
-0.33
0.10
0.50
0.83
1.05
1.16
1.18
1.12
0.98
0.74
0.34
-0.23
-0.91
-1.58
-2.08
-2.29
-2.18
-1.82
-1.33
-0.86
-0.47
-0.21
-0.10
-0.14
-0.33
-0.63
-0.97
-1.23
-1.34
-1.24
-0.99
-0.67
-0.39
-0.20
-0.12
-0.13
-0.20
-0.31
-0.46
-0.63
-0.79
-0.93
-1.02
-1.05
-1.05
-1.03
-1.01
-0.97
-0.89
-0.77
-0.61
-0.45
-0.33
-0.30
-0.35
-0.47
-0.57
-0.60
-0.51
-0.35
-0.19
-0.11
-0.12
-0.15
-0.11
0.03
0.22
0.37
0.38
0.24
0.05
-0.05
0.07
0.41
0.87
1.33
1.70
1.96
2.18
2.44
2.78
3.20
3.66
4.09
4.45
4.73
4.93
5.01
4.85
4.28
3.20
1.68
-0.03
-1.53
-2.47
-2.67
-2.27
-1.61
-1.02
-0.72
-0.69
-0.75
-0.72
-0.57
-0.38
-0.27
-0.32
-0.50
-0.71
-0.84
-0.86
-0.81
-0.77
-0.77
-0.80
-0.81
-0.74
-0.60
-0.41
-0.24
-0.13
-0.12
-0.19
-0.32
-0.45
-0.52
-0.49
-0.36
-0.19
-0.02
0.08
0.09
0.05
-0.03
-0.13
-0.24
-0.37
-0.50
-0.54
-0.45
-0.20
0.16
0.52
0.72
0.68
0.42
0.06
-0.23
-0.30
-0.10
0.28
0.72
1.04
1.20
1.20
1.17
1.21
1.41
1.77
2.21
2.64
2.94
3.02
2.85
2.46
1.95
1.44
1.03
0.73
0.52
0.32
0.08
-0.20
-0.53
-0.92
-1.40
-1.98
-2.56
-2.99
-3.09
-2.73
-1.95
-0.92
0.06
0.70
0.82
0.40
-0.40
-1.30
-2.00
-2.25
-2.02
-1.43
-0.77
-0.31
-0.17
-0.28
-0.43
-0.42
-0.19
0.13
0.33
0.19
-0.32
-1.11
-1.94
-2.58
-2.90
-2.90
-2.70
-2.46
-2.29
-2.23
-2.27
-2.32
-2.32
-2.25
-2.08
-1.83
-1.49
-1.08
-0.65
-0.25
0.02
0.04
-0.20
-0.66
-1.18
-1.59
-1.78
-1.73
-1.53
-1.30
-1.15
-1.12
-1.18
-1.26
-1.25
-1.06
-0.62
0.05
0.83
1.54
2.02
2.20
2.17
2.09
2.13
2.37
2.73
3.05
3.20
3.12
2.86
2.51
2.15
1.81
1.49
1.20
0.96
0.79
0.69
0.60
0.46
0.23
-0.03
-0.24
-0.29
-0.14
0.15
0.44
0.58
0.48
0.20
-0.13
-0.34
-0.32
-0.06
0.34
0.77
1.12
1.32
1.39
1.32
1.14
0.91
0.69
0.54
0.52
0.62
0.78
0.89
0.85
0.65
0.33
0.05
-0.09
0.01
0.30
0.67
0.95
1.04
0.92
0.69
0.47
0.34
0.29
0.25
0.10
-0.21
-0.64
-1.10
-1.51
-1.82
-2.02
-2.14
-2.17
-2.08
-1.87
-1.54
-1.14
-0.71
-0.32
-0.03
0.14
0.16
0.05
-0.12
-0.28
-0.32
-0.22
0.00
0.25
0.42
0.44
0.33
0.13
-0.09
-0.29
-0.50
-0.75
-1.08
-1.45
-1.73
-1.76
-1.44
-0.72
0.31
1.47
2.53
3.33
3.81
3.96
3.84
3.47
2.89
2.13
1.27
0.44
-0.18
-0.46
-0.34
0.09
0.63
1.06
1.17
0.91
0.35
-0.32
-0.89
-1.20
-1.24
-1.11
-0.93
-0.82
-0.79
-0.82
-0.82
-0.75
-0.58
-0.37
-0.18
-0.06
-0.04
-0.08
-0.13
-0.16
-0.18
-0.21
-0.25
-0.29
-0.30
-0.27
-0.21
-0.18
-0.23
-0.39
-0.62
-0.83
-0.92
-0.85
-0.62
-0.29
0.05
0.31
0.44
0.39
0.21
-0.03
-0.26
-0.39
-0.44
-0.46
-0.52
-0.68
-0.89
-1.07
-1.11
-0.93
-0.53
0.01
0.58
1.05
1.35
1.41
1.23
0.89
0.47
0.08
-0.22
-0.38
-0.44
-0.47
-0.53
-0.68
-0.89
-1.13
-1.34
-1.43
-1.39
-1.23
-0.96
-0.63
-0.26
0.14
0.57
0.97
1.28
1.42
1.34
1.07
0.65
0.16
-0.34
-0.79
-1.14
-1.33
-1.28
-0.95
-0.38
0.30
0.88
1.17
1.09
0.68
0.10
-0.46
-0.82
-0.91
-0.77
-0.49
-0.17
0.12
0.34
0.50
0.59
0.58
0.46
0.22
-0.10
-0.39
-0.59
-0.60
-0.42
-0.11
0.26
0.58
0.81
0.97
1.08
1.15
1.20
1.18
1.04
0.77
0.41
0.07
-0.11
-0.03
0.33
0.86
1.37
1.62
1.49
1.02
0.37
-0.21
-0.55
-0.63
-0.51
-0.37
-0.30
-0.31
-0.30
-0.16
0.15
0.56
0.91
1.07
0.97
0.65
0.20
-0.27
-0.69
-1.02
-1.25
-1.36
-1.34
-1.20
-0.98
-0.75
-0.56
-0.44
-0.34
-0.21
-0.00
0.34
0.78
1.25
1.64
1.88
1.94
1.85
1.68
1.51
1.34
1.17
0.99
0.80
0.66
0.61
0.64
0.69
0.70
0.60
0.42
0.20
-0.01
-0.20
-0.38
-0.60
-0.85
-1.11
-1.33
-1.49
-1.57
-1.58
-1.53
-1.44
-1.33
-1.21
-1.08
-0.94
-0.80
-0.66
-0.54
-0.47
-0.48
-0.58
-0.76
-0.98
-1.17
-1.29
-1.29
-1.17
-0.95
-0.68
-0.44
-0.31
-0.31
-0.44
-0.62
-0.77
-0.85
-0.84
-0.79
-0.74
-0.69
-0.64
-0.54
-0.39
-0.19
0.03
0.24
0.40
0.53
0.60
0.64
0.62
0.54
0.40
0.21
-0.00
-0.22
-0.43
-0.63
-0.80
-0.96
-1.05
-1.05
-0.93
-0.67
-0.33
-0.01
0.21
0.28
0.24
0.19
0.23
0.41
0.72
1.04
1.29
1.41
1.37
1.21
0.97
0.70
0.45
0.28
0.22
0.33
0.55
0.83
1.03
1.08
0.95
0.71
0.46
0.26
0.12
-0.05
-0.37
-0.86
-1.49
-2.12
-2.63
-2.93
-3.04
-3.05
-3.04
-3.04
-3.01
-2.90
-2.65
-2.20
-1.56
-0.73
0.24
1.28
2.27
3.11
3.67
3.90
3.81
3.49
3.06
2.67
2.39
2.26
2.20
2.14
1.97
1.65
1.21
0.72
0.28
0.00
-0.08
-0.01
0.12
0.17
0.07
-0.18
-0.51
-0.81
-1.02
-1.10
-1.10
-1.02
-0.88
-0.65
-0.38
-0.13
-0.04
-0.16
-0.47
-0.83
-1.07
-1.08
-0.89
-0.60
-0.38
-0.33
-0.43
-0.61
-0.73
-0.72
-0.58
-0.35
-0.08
0.16
0.38
0.60
0.88
1.23
1.65
2.06
2.38
2.59
2.67
2.64
2.52
2.28
1.92
1.49
1.10
0.89
0.99
1.40
1.99
2.54
2.88
2.96
2.81
2.54
2.19
1.76
1.22
0.58
-0.08
-0.61
-0.92
-1.02
-1.01
-1.05
-1.24
-1.58
-1.92
-2.13
-2.13
-1.93
-1.60
-1.23
-0.86
-0.45
0.03
0.56
1.06
1.37
1.38
1.04
0.46
-0.22
-0.84
-1.30
-1.60
-1.78
-1.90
-1.97
-1.97
-1.89
-1.73
-1.53
-1.31
-1.08
-0.83
-0.55
-0.29
-0.12
-0.08
-0.18
-0.35
-0.49
-0.51
-0.41
-0.23
-0.06
0.05
0.10
0.12
0.15
0.24
0.40
0.64
0.98
1.40
1.84
2.23
2.47
2.52
2.40
2.16
1.89
1.63
1.41
1.26
1.20
1.25
1.43
1.65
1.82
1.90
1.89
1.90
2.00
2.16
2.27
2.18
1.80
1.20
0.52
-0.10
-0.60
-1.06
-1.53
-2.01
-2.36
-2.42
-2.10
-1.46
-0.73
-0.18
0.04
-0.06
-0.29
-0.44
-0.37
-0.13
0.14
0.25
0.08
-0.33
-0.86
-1.33
-1.64
-1.79
-1.87
-1.94
-1.99
-1.98
-1.87
-1.66
-1.42
-1.23
-1.14
-1.08
-0.98
-0.80
-0.56
-0.41
-0.49
-0.85
-1.41
-1.94
-2.26
-2.25
-1.93
-1.44
-0.92
-0.41
0.10
0.66
1.29
1.91
2.43
2.80
3.03
3.18
3.29
3.31
3.17
2.82
2.37
2.02
1.98
2.32
2.97
3.73
4.43
5.05
5.71
6.56
7.67
8.92
9.98
10.49
10.17
8.93
6.91
4.42
1.82
-0.56
-2.55
-4.09
-5.22
-6.02
-6.52
-6.76
-6.74
-6.52
-6.17
-5.78
-5.41
-5.13
-4.92
-4.76
-4.65
-4.60
-4.62
-4.71
-4.79
-4.73
-4.46
-3.93
-3.23
-2.51
-1.92
-1.56
-1.41
-1.42
-1.52
-1.63
-1.73
-1.77
-1.69
-1.47
-1.09
-0.64
-0.22
0.06
0.14
0.04
-0.16
-0.41
-0.63
-0.79
-0.88
-0.94
-0.98
-1.05
-1.19
-1.39
-1.65
-1.91
-2.10
-2.14
-2.01
-1.70
-1.28
-0.86
-0.58
-0.52
-0.69
-1.00
-1.32
-1.50
-1.46
-1.20
-0.81
-0.45
-0.24
-0.28
-0.60
-1.12
-1.69
-2.09
-2.13
-1.73
-0.96
-0.04
0.73
1.12
1.03
0.60
0.09
-0.15
0.10
0.91
2.15
3.56
4.81
5.70
6.15
6.24
6.11
5.88
5.58
5.14
4.49
3.69
2.91
2.33
2.07
2.06
2.15
2.13
1.91
1.56
1.25
1.12
1.17
1.26
1.17
0.75
0.01
-0.90
-1.75
-2.40
-2.77
-2.92
-2.94
-2.91
-2.83
-2.68
-2.41
-2.00
-1.54
-1.11
-0.80
-0.66
-0.68
-0.80
-0.97
-1.16
-1.32
-1.45
-1.51
-1.45
-1.29
-1.05
-0.80
-0.63
-0.62
-0.78
-1.06
-1.40
-1.70
-1.89
-1.92
-1.79
-1.57
-1.31
-1.09
-0.95
-0.87
-0.83
-0.81
-0.80
-0.85
-0.96
-1.12
-1.26
-1.32
-1.31
-1.29
-1.34
-1.49
-1.63
-1.62
-1.28
-0.61
0.24
1.03
1.53
1.61
1.35
0.93
0.51
0.20
-0.01
-0.20
-0.40
-0.64
-0.82
-0.85
-0.65
-0.24
0.32
0.92
1.41
1.70
1.72
1.45
0.92
0.20
-0.59
-1.35
-2.00
-2.56
-3.10
-3.71
-4.45
-5.31
-6.14
-6.80
-7.14
-7.15
-6.91
-6.53
-6.14
-5.76
-5.35
-4.82
-4.07
-3.07
-1.84
-0.47
0.97
2.36
3.55
4.40
4.76
4.53
3.73
2.54
1.20
-0.02
-0.95
-1.56
-1.92
-2.18
-2.43
-2.66
-2.82
-2.85
-2.78
-2.68
-2.68
-2.85
-3.16
-3.48
-3.63
-3.44
-2.85
-1.91
-0.79
0.35
1.34
2.11
2.69
3.16
3.64
4.24
4.99
5.83
6.58
7.05
7.10
6.73
6.12
5.54
5.24
5.29
5.59
5.94
6.17
6.22
6.18
6.20
6.32
6.50
6.61
6.52
6.15
5.54
4.78
4.02
3.39
3.09
3.25
3.91
5.01
6.30
7.50
8.35
8.73
8.72
8.54
8.40
8.41
8.55
8.67
8.60
8.25
7.62
6.81
5.94
5.11
4.34
3.60
2.84
2.01
1.12
0.27
-0.41
-0.81
-0.89
-0.76
-0.61
-0.63
-0.94
-1.45
-1.99
-2.37
-2.55
-2.65
-2.89
-3.42
-4.27
-5.26
-6.14
-6.72
-6.86
-6.56
-5.90
-5.01
-4.03
-3.15
-2.54
-2.30
-2.45
-2.85
-3.32
-3.65
-3.74
-3.58
-3.30
-3.04
-2.91
-2.94
-3.05
-3.09
-2.97
-2.64
-2.16
-1.67
-1.32
-1.20
-1.31
-1.59
-1.93
-2.22
-2.36
-2.34
-2.22
-2.11
-2.16
-2.42
-2.83
-3.21
-3.28
-2.86
-1.93
-0.69
0.51
1.29
1.41
0.86
-0.15
-1.30
-2.27
-2.86
-3.02
-2.82
-2.41
-1.94
-1.53
-1.27
-1.16
-1.15
-1.10
-0.79
-0.06
1.09
2.38
3.33
3.45
2.50
0.64
-1.61
-3.65
-5.08
-5.86
-6.27
-6.63
-7.10
-7.58
-7.80
-7.50
-6.64
-5.36
-3.95
-2.69
-1.73
-1.12
-0.79
-0.67
-0.68
-0.75
-0.80
-0.79
-0.63
-0.27
0.35
1.24
2.32
3.48
4.52
5.27
5.55
5.27
4.47
3.35
2.14
1.12
0.44
0.07
-0.14
-0.44
-0.99
-1.82
-2.80
-3.68
-4.26
-4.39
-4.11
-3.56
-2.94
-2.43
-2.11
-1.92
-1.67
-1.13
-0.15
1.27
2.95
4.58
5.86
6.63
6.87
6.69
6.28
5.80
5.40
5.18
5.19
5.39
5.63
5.68
5.32
4.42
3.03
1.36
-0.31
-1.78
-2.92
-3.75
-4.35
-4.75
-4.92
-4.80
-4.27
-3.30
-1.94
-0.35
1.26
2.62
3.59
4.09
4.19
4.08
3.92
3.84
3.88
4.02
4.19
4.31
4.35
4.31
4.23
4.12
4.02
3.92
3.80
3.64
3.45
3.26
3.12
3.09
3.18
3.41
3.72
4.07
4.39
4.58
4.44
3.76
2.33
0.15
-2.53
-5.19
-7.16
-7.94
-7.34
-5.62
-3.38
-1.31
0.06
0.56
0.32
-0.35
-1.16
-1.94
-2.72
-3.57
-4.52
-5.46
-6.19
-6.51
-6.29
-5.58
-4.60
-3.62
-2.87
-2.43
-2.24
-2.14
-1.97
-1.70
-1.36
-1.07
-0.90
-0.83
-0.76
-0.58
-0.28
0.07
0.31
0.31
0.03
-0.46
-1.01
-1.47
-1.76
-1.80
-1.59
-1.06
-0.20
0.99
2.40
3.86
5.11
5.87
5.92
5.18
3.77
2.04
0.45
-0.61
-0.96
-0.72
-0.24
0.08
-0.03
-0.56
-1.29
-1.93
-2.27
-2.28
-2.05
-1.72
-1.38
-1.10
-0.92
-0.91
-1.15
-1.65
-2.31
-2.88
-3.09
-2.77
-1.95
-0.83
0.25
1.05
1.49
1.67
1.74
1.79
1.83
1.76
1.57
1.30
1.08
1.02
1.13
1.31
1.44
1.44
1.37
1.30
1.34
1.48
1.65
1.75
1.68
1.45
1.11
0.72
0.40
0.22
0.21
0.36
0.59
0.78
0.84
0.72
0.44
0.06
-0.36
-0.76
-1.07
-1.28
-1.37
-1.36
-1.31
-1.31
-1.42
-1.63
-1.86
-1.99
-1.93
-1.66
-1.24
-0.75
-0.29
0.06
0.22
0.18
-0.05
-0.40
-0.77
-1.06
-1.19
-1.10
-0.79
-0.32
0.24
0.77
1.16
1.32
1.24
0.98
0.68
0.45
0.37
0.39
0.38
0.23
-0.10
-0.54
-0.99
-1.33
-1.53
-1.56
-1.45
-1.20
-0.81
-0.29
0.31
0.88
1.29
1.45
1.35
1.05
0.67
0.32
0.10
0.07
0.21
0.50
0.85
1.19
1.45
1.56
1.52
1.34
1.09
0.82
0.62
0.52
0.52
0.57
0.61
0.55
0.39
0.16
-0.09
-0.29
-0.41
-0.46
-0.42
-0.30
-0.13
0.04
0.15
0.15
0.01
-0.23
-0.52
-0.80
-1.00
-1.07
-0.96
-0.66
-0.19
0.32
0.73
0.90
0.78
0.45
0.03
-0.33
-0.60
-0.77
-0.90
-0.97
-0.96
-0.83
-0.56
-0.23
0.07
0.29
0.44
0.54
0.62
0.63
0.55
0.36
0.12
-0.06
-0.10
0.04
0.28
0.48
0.52
0.34
-0.05
-0.56
-1.06
-1.43
-1.56
-1.40
-0.96
-0.38
0.18
0.55
0.62
0.41
0.02
-0.39
-0.70
-0.85
-0.86
-0.80
-0.68
-0.53
-0.34
-0.12
0.07
0.14
0.03
-0.23
-0.53
-0.71
-0.68
-0.47
-0.23
-0.13
-0.28
-0.65
-1.10
-1.46
-1.67
-1.74
-1.79
-1.88
-2.03
-2.18
-2.24
-2.19
-2.06
-1.94
-1.89
-1.94
-2.08
-2.25
-2.38
-2.48
-2.56
-2.65
-2.76
-2.78
-2.58
-2.04
-1.11
0.09
1.31
2.32
2.98
3.36
3.66
4.13
4.85
5.70
6.45
6.86
6.83
6.45
5.89
5.34
4.85
4.41
3.95
3.41
2.83
2.25
1.74
1.35
1.10
0.96
0.94
1.01
1.15
1.33
1.48
1.59
1.63
1.60
1.51
1.37
1.15
0.85
0.47
0.04
-0.36
-0.70
-0.95
-1.16
-1.38
-1.62
-1.85
-1.99
-1.99
-1.84
-1.62
-1.45
-1.41
-1.50
-1.64
-1.74
-1.70
-1.55
-1.33
-1.13
-0.98
-0.90
-0.88
-0.90
-0.98
-1.10
-1.24
-1.32
-1.27
-1.05
-0.70
-0.34
-0.07
0.04
0.03
-0.03
-0.02
0.09
0.24
0.35
0.36
0.27
0.17
0.15
0.26
0.47
0.69
0.81
0.77
0.57
0.26
-0.10
-0.42
-0.64
-0.72
-0.65
-0.45
-0.19
0.03
0.13
0.05
-0.17
-0.42
-0.54
-0.42
-0.07
0.38
0.75
0.87
0.72
0.41
0.10
-0.07
-0.09
-0.07
-0.11
-0.23
-0.33
-0.25
0.07
0.53
0.96
1.13
1.00
0.64
0.24
-0.03
-0.14
-0.16
-0.19
-0.29
-0.42
-0.47
-0.37
-0.11
0.22
0.48
0.58
0.50
0.35
0.24
0.25
0.36
0.48
0.51
0.38
0.09
-0.24
-0.51
-0.66
-0.69
-0.65
-0.63
-0.67
-0.75
-0.78
-0.70
-0.46
-0.09
0.30
0.61
0.76
0.77
0.71
0.67
0.68
0.75
0.79
0.79
0.71
0.60
0.46
0.31
0.16
-0.01
-0.16
-0.28
-0.33
-0.32
-0.27
-0.22
-0.21
-0.28
-0.48
-0.85
-1.38
-2.00
-2.61
-3.12
-3.46
-3.65
-3.76
-3.82
-3.87
-3.89
-3.89
-3.86
-3.80
-3.71
-3.61
-3.50
-3.39
-3.32
-3.30
-3.33
-3.34
-3.29
-3.12
-2.84
-2.49
-2.11
-1.65
-1.05
-0.26
0.67
1.59
2.29
2.65
2.70
2.61
2.65
2.97
3.57
4.28
4.85
5.13
5.08
4.80
4.46
4.19
4.06
4.11
4.35
4.79
5.46
6.29
7.17
7.94
8.44
8.57
8.34
7.87
7.35
6.96
6.78
6.76
6.71
6.45
5.86
4.96
3.89
2.83
1.92
1.24
0.76
0.47
0.30
0.15
-0.12
-0.64
-1.52
-2.71
-4.05
-5.32
-6.32
-6.97
-7.35
-7.59
-7.83
-8.10
-8.31
-8.33
-8.03
-7.37
-6.40
-5.27
-4.15
-3.22
-2.55
-2.14
-1.88
-1.60
-1.16
-0.50
0.30
1.10
1.72
2.00
1.89
1.42
0.71
-0.09
-0.84
-1.43
-1.78
-1.92
-1.89
-1.78
-1.67
-1.64
-1.73
-1.97
-2.39
-3.01
-3.79
-4.64
-5.41
-5.99
-6.28
-6.29
-6.06
-5.68
-5.22
-4.71
-4.17
-3.57
-2.89
-2.11
-1.22
-0.31
0.48
1.01
1.19
1.03
0.68
0.36
0.26
0.49
1.01
1.68
2.32
2.84
3.29
3.79
4.45
5.28
6.13
6.73
6.89
6.55
5.91
5.29
4.97
5.01
5.22
5.32
5.09
4.55
3.92
3.47
3.37
3.52
3.65
3.45
2.76
1.64
0.38
-0.68
-1.25
-1.26
-0.84
-0.24
0.24
0.42
0.27
-0.09
-0.48
-0.68
-0.60
-0.28
0.10
0.33
0.29
-0.04
-0.49
-0.83
-0.89
-0.62
-0.15
0.32
0.65
0.80
0.85
0.89
0.93
0.91
0.68
0.19
-0.54
-1.35
-2.06
-2.54
-2.77
-2.83
-2.78
-2.66
-2.48
-2.21
-1.86
-1.48
-1.16
-0.95
-0.89
-0.95
-1.10
-1.28
-1.45
-1.57
-1.59
-1.45
-1.16
-0.76
-0.37
-0.10
-0.05
-0.21
-0.51
-0.82
-1.04
-1.08
-0.93
-0.63
-0.24
0.18
0.56
0.85
1.02
1.06
0.97
0.80
0.62
0.49
0.49
0.63
0.92
1.32
1.77
2.20
2.56
2.77
2.79
2.60
2.23
1.77
1.33
1.02
0.90
0.95
1.08
1.15
1.02
0.60
-0.07
-0.88
-1.64
-2.17
-2.35
-2.19
-1.83
-1.45
-1.24
-1.23
-1.37
-1.53
-1.54
-1.33
-0.93
-0.44
0.02
0.34
0.51
0.57
0.58
0.58
0.58
0.54
0.44
0.28
0.13
0.06
0.12
0.30
0.53
0.71
0.76
0.68
0.50
0.29
0.10
-0.06
-0.19
-0.25
-0.20
-0.02
0.25
0.52
0.70
0.74
0.67
0.56
0.49
0.47
0.45
0.36
0.16
-0.09
-0.29
-0.37
-0.30
-0.13
0.05
0.14
0.09
-0.12
-0.47
-0.90
-1.32
-1.61
-1.69
-1.55
-1.22
-0.81
-0.46
-0.23
-0.14
-0.16
-0.23
-0.36
-0.56
-0.81
-1.10
-1.33
-1.40
-1.28
-1.01
-0.67
-0.32
-0.01
0.28
0.58
0.88
1.13
1.25
1.20
0.98
0.68
0.37
0.12
-0.06
-0.19
-0.29
-0.37
-0.44
-0.52
-0.61
-0.75
-0.95
-1.15
-1.30
-1.34
-1.27
-1.12
-0.97
-0.87
-0.82
-0.79
-0.73
-0.61
-0.46
-0.36
-0.38
-0.53
-0.75
-0.93
-0.97
-0.83
-0.57
-0.33
-0.21
-0.26
-0.43
-0.60
-0.67
-0.64
-0.57
-0.61
-0.82
-1.16
-1.49
-1.62
-1.44
-0.99
-0.45
-0.00
0.20
0.17
0.02
-0.11
-0.13
-0.06
0.01
0.05
0.06
0.14
0.34
0.61
0.80
0.72
0.28
-0.43
-1.15
-1.57
-1.46
-0.84
0.05
0.81
1.08
0.70
-0.25
-1.46
-2.55
-3.24
-3.49
-3.41
-3.22
-3.07
-2.98
-2.86
-2.62
-2.23
-1.74
-1.26
-0.87
-0.63
-0.52
-0.52
-0.54
-0.46
-0.17
0.45
1.39
2.51
3.57
4.36
4.79
4.97
5.11
5.39
5.84
6.25
6.36
5.99
5.20
4.25
3.49
3.17
3.30
3.75
4.29
4.74
4.96
4.86
4.33
3.29
1.75
-0.11
-2.06
-3.92
-5.76
-7.77
-10.20
-13.08
-16.14
-18.96
-21.13
-22.49
-23.07
-23.09
-22.75
-22.26
-21.89
-22.01
-23.00
-25.07
-28.04
-31.36
-34.29
-36.25
-37.06
-36.91
-36.08
-34.66
-32.28
-28.26
-21.91
-12.92
-1.61
11.03
23.62
34.80
43.53
49.36
52.42
53.26
52.63
51.35
50.11
49.43
49.52
50.29
51.33
52.05
51.88
50.44
47.61
43.48
38.27
32.25
25.75
19.19
13.01
7.56
3.04
-0.60
-3.59
-6.10
-8.17
-9.63
-10.33
-10.25
-9.63
-8.90
-8.44
-8.48
-8.96
-9.67
-10.36
-10.85
-11.11
-11.18
-11.15
-11.10
-11.03
-10.90
-10.69
-10.39
-10.05
-9.76
-9.56
-9.43
-9.28
-8.95
-8.36
-7.54
-6.65
-5.88
-5.38
-5.12
-4.92
-4.58
-3.96
-3.14
-2.34
-1.79
-1.54
-1.49
-1.38
-0.99
-0.26
0.67
1.51
2.05
2.21
2.09
1.89
1.76
1.81
2.05
2.45
2.94
3.41
3.74
3.82
3.64
3.28
2.84
2.41
1.96
1.40
0.63
-0.37
-1.48
-2.52
-3.32
-3.80
-4.00
-4.06
-4.15
-4.37
-4.77
-5.28
-5.78
-6.10
-6.19
-6.07
-5.86
-5.68
-5.58
-5.46
-5.24
-4.86
-4.37
-3.87
-3.40
-2.87
-2.12
-1.07
0.22
1.48
2.38
2.69
2.40
1.70
0.88
0.21
-0.21
-0.40
-0.45
-0.42
-0.34
-0.17
0.14
0.63
1.22
1.78
2.16
2.24
2.05
1.71
1.40
1.25
1.28
1.40
1.51
1.55
1.55
1.53
1.52
1.48
1.38
1.20
0.98
0.80
0.74
0.78
0.88
0.93
0.87
0.69
0.42
0.13
-0.11
-0.25
-0.28
-0.22
-0.15
-0.15
-0.25
-0.41
-0.55
-0.55
-0.41
-0.22
-0.14
-0.30
-0.67
-1.11
-1.39
-1.37
-1.02
-0.48
0.05
0.44
0.62
0.68
0.70
0.76
0.85
0.92
0.92
0.83
0.67
0.51
0.43
0.46
0.59
0.77
0.95
1.11
1.26
1.41
1.58
1.74
1.83
1.81
1.65
1.33
0.86
0.28
-0.38
-1.04
-1.62
-2.05
-2.28
-2.32
-2.23
-2.10
-2.02
-2.07
-2.30
-2.69
-3.19
-3.72
-4.17
-4.42
-4.42
-4.18
-3.76
-3.30
-2.91
-2.62
-2.38
-2.03
-1.46
-0.65
0.27
1.05
1.46
1.42
1.08
0.70
0.56
0.77
1.24
1.69
1.89
1.69
1.17
0.54
0.02
-0.21
-0.09
0.30
0.81
1.24
1.44
1.32
0.91
0.38
-0.12
-0.43
-0.51
-0.42
-0.20
0.13
0.59
1.19
1.85
2.41
2.64
2.43
1.82
1.00
0.21
-0.31
-0.45
-0.20
0.40
1.26
2.22
3.12
3.74
3.92
3.62
2.95
2.14
1.36
0.72
0.18
-0.37
-0.96
-1.54
-2.00
-2.24
-2.25
-2.11
-1.93
-1.80
-1.71
-1.58
-1.31
-0.87
-0.28
0.34
0.88
1.24
1.43
1.46
1.43
1.40
1.40
1.43
1.47
1.51
1.59
1.75
1.99
2.26
2.47
2.50
2.29
1.86
1.31
0.76
0.31
0.01
-0.19
-0.38
-0.60
-0.86
-1.10
-1.26
-1.28
-1.19
-1.08
-1.06
-1.19
-1.44
-1.69
-1.84
-1.83
-1.65
-1.41
-1.20
-1.06
-0.97
-0.86
-0.70
-0.50
-0.33
-0.24
-0.26
-0.35
-0.42
-0.46
-0.45
-0.41
-0.39
-0.37
-0.33
-0.29
-0.31
-0.45
-0.76
-1.16
-1.51
-1.64
-1.50
-1.21
-1.04
-1.27
-2.06
-3.34
-4.77
-5.90
-6.30
-5.70
-4.05
-1.51
1.66
5.16
8.65
11.74
13.99
15.00
14.60
12.93
10.50
7.95
5.85
4.40
3.46
2.66
1.68
0.47
-0.79
-1.80
-2.42
-2.71
-2.88
-3.13
-3.51
-3.91
-4.10
-3.93
-3.44
-2.80
-2.24
-1.97
-2.00
-2.23
-2.47
-2.58
-2.52
-2.38
-2.28
-2.29
-2.41
-2.53
-2.55
-2.40
-2.13
-1.83
-1.63
-1.59
-1.72
-2.00
-2.40
-2.88
-3.39
-3.83
-4.03
-3.84
-3.18
-2.09
-0.79
0.48
1.47
2.06
2.25
2.15
1.87
1.46
0.95
0.33
-0.39
-1.15
-1.89
-2.56
-3.21
-3.89
-4.67
-5.57
-6.49
-7.27
-7.73
-7.70
-7.12
-6.00
-4.46
-2.67
-0.83
0.86
2.28
3.38
4.19
4.78
5.21
5.49
5.61
5.53
5.26
4.84
4.36
3.89
3.43
2.95
2.41
1.80
1.21
0.73
0.41
0.25
0.21
0.20
0.19
0.22
0.35
0.65
1.14
1.75
2.42
3.01
3.45
3.66
3.62
3.32
2.81
2.19
1.54
0.95
0.47
0.09
-0.22
-0.48
-0.69
-0.86
-0.97
-0.99
-0.93
-0.79
-0.58
-0.33
-0.03
0.32
0.77
1.36
2.08
2.88
3.66
4.33
4.83
5.16
5.34
5.35
5.18
4.81
4.23
3.51
2.73
1.95
1.17
0.39
-0.43
-1.29
-2.13
-2.90
-3.55
-4.07
-4.44
-4.62
-4.58
-4.28
-3.78
-3.21
-2.74
-2.51
-2.54
-2.73
-2.91
-2.94
-2.78
-2.48
-2.15
-1.89
-1.73
-1.65
-1.61
-1.63
-1.70
-1.83
-1.93
-1.88
-1.57
-1.02
-0.38
0.12
0.27
0.05
-0.39
-0.80
-0.98
-0.87
-0.64
-0.49
-0.57
-0.87
-1.23
-1.47
-1.52
-1.44
-1.42
-1.60
-2.07
-2.78
-3.59
-4.36
-4.95
-5.23
-5.08
-4.43
-3.24
-1.59
0.33
2.29
4.00
5.25
5.91
6.01
5.68
5.17
4.71
4.42
4.32
4.29
4.22
4.03
3.77
3.50
3.28
3.11
2.98
2.86
2.79
2.81
2.95
3.12
3.21
3.16
2.96
2.70
2.42
2.10
1.64
0.94
0.05
-0.83
-1.45
-1.62
-1.37
-0.89
-0.45
-0.23
-0.23
-0.35
-0.45
-0.47
-0.47
-0.59
-0.90
-1.40
-1.95
-2.39
-2.62
-2.62
-2.47
-2.31
-2.22
-2.20
-2.19
-2.10
-1.87
-1.54
-1.18
-0.87
-0.66
-0.52
-0.41
-0.31
-0.17
-0.01
0.15
0.22
0.14
-0.13
-0.56
-1.02
-1.36
-1.43
-1.22
-0.81
-0.36
-0.01
0.16
0.17
0.11
0.01
-0.09
-0.18
-0.25
-0.27
-0.21
-0.09
0.03
0.10
0.09
0.03
-0.03
-0.01
0.08
0.20
0.25
0.16
-0.06
-0.31
-0.47
-0.44
-0.20
0.20
0.61
0.91
1.05
1.06
1.07
1.22
1.64
2.34
3.24
4.15
4.88
5.31
5.39
5.22
4.99
4.98
5.55
6.99
9.50
12.90
16.65
19.82
21.43
20.75
17.69
12.79
7.05
1.49
-3.23
-6.86
-9.51
-11.35
-12.49
-12.94
-12.72
-12.01
-11.10
-10.35
-10.03
-10.27
-11.10
-12.41
-13.99
-15.50
-16.57
-16.91
-16.52
-15.68
-14.85
-14.34
-14.19
-14.06
-13.43
-11.94
-9.52
-6.50
-3.41
-0.76
1.14
2.29
2.87
3.13
3.29
3.46
3.65
3.77
3.69
3.29
2.57
1.73
1.11
1.08
1.84
3.25
4.92
6.38
7.33
7.81
8.04
8.29
8.53
8.48
7.75
6.11
3.73
1.12
-1.10
-2.49
-2.95
-2.70
-2.12
-1.51
-1.07
-0.81
-0.66
-0.52
-0.27
0.16
0.81
1.70
2.81
4.04
5.29
6.42
7.31
7.85
7.98
7.70
7.12
6.45
5.94
5.78
6.04
6.60
7.19
7.50
7.31
6.60
5.52
4.32
3.17
2.15
1.23
0.33
-0.58
-1.45
-2.18
-2.69
-2.94
-2.96
-2.82
-2.60
-2.34
-2.07
-1.79
-1.55
-1.39
-1.37
-1.47
-1.58
-1.54
-1.21
-0.48
0.59
1.84
3.10
4.17
4.98
5.50
5.73
5.65
5.26
4.54
3.58
2.47
1.29
0.08
-1.16
-2.45
-3.73
-4.89
-5.83
-6.52
-7.04
-7.55
-8.15
-8.85
-9.53
-10.05
-10.32
-10.33
-10.12
-9.66
-8.92
-7.84
-6.46
-4.93
-3.49
-2.32
-1.50
-0.98
-0.66
-0.44
-0.34
-0.41
-0.72
-1.21
-1.74
-2.13
-2.26
-2.10
-1.76
-1.38
-1.10
-0.98
-0.97
-0.93
-0.73
-0.23
0.54
1.48
2.37
3.00
3.27
3.20
2.92
2.62
2.41
2.30
2.22
2.11
1.99
1.95
2.10
2.48
2.97
3.37
3.50
3.30
2.85
2.31
1.82
1.44
1.13
0.86
0.63
0.48
0.46
0.56
0.64
0.59
0.31
-0.14
-0.61
-0.89
-0.89
-0.64
-0.31
-0.09
-0.11
-0.33
-0.62
-0.81
-0.82
-0.66
-0.45
-0.29
-0.24
-0.25
-0.23
-0.10
0.13
0.36
0.50
0.48
0.31
0.11
-0.01
0.01
0.14
0.26
0.26
0.09
-0.20
-0.49
-0.63
-0.57
-0.32
0.01
0.31
0.51
0.58
0.57
0.51
0.45
0.39
0.33
0.30
0.32
0.42
0.61
0.87
1.10
1.22
1.15
0.90
0.50
0.05
-0.38
-0.71
-0.92
-0.98
-0.91
-0.73
-0.48
-0.21
0.03
0.19
0.25
0.21
0.08
-0.10
-0.25
-0.31
-0.24
-0.08
0.09
0.14
-0.01
-0.37
-0.83
-1.23
-1.40
-1.29
-0.93
-0.46
-0.02
0.28
0.42
0.43
0.37
0.28
0.18
0.07
-0.04
-0.13
-0.16
-0.14
-0.11
-0.09
-0.11
-0.13
-0.07
0.10
0.38
0.68
0.89
0.97
0.92
0.87
0.91
1.08
1.31
1.44
1.32
0.87
0.14
-0.72
-1.54
-2.19
-2.62
-2.87
-2.99
-3.04
-3.05
-3.06
-3.14
-3.39
-3.89
-4.65
-5.51
-6.20
-6.43
-6.06
-5.19
-4.16
-3.36
-3.00
-2.92
-2.71
-1.90
-0.29
1.84
3.81
4.85
4.43
2.53
-0.37
-3.49
-5.97
-7.14
-6.65
-4.54
-1.23
2.60
6.09
8.51
9.46
8.96
7.44
5.55
3.89
2.82
2.43
2.58
3.05
3.67
4.32
4.91
5.31
5.38
5.00
4.19
3.14
2.15
1.52
1.41
1.73
2.23
2.57
2.53
2.06
1.31
0.50
-0.13
-0.50
-0.63
-0.61
-0.55
-0.49
-0.41
-0.27
-0.04
0.24
0.47
0.52
0.33
-0.11
-0.66
-1.14
-1.36
-1.23
-0.77
-0.14
0.46
0.85
0.95
0.77
0.40
-0.06
-0.53
-0.97
-1.32
-1.54
-1.58
-1.45
-1.18
-0.88
-0.61
-0.43
-0.32
-0.28
-0.27
-0.25
-0.20
-0.07
0.15
0.46
0.81
1.11
1.29
1.37
1.39
1.43
1.53
1.66
1.71
1.61
1.33
0.95
0.58
0.37
0.41
0.68
1.05
1.36
1.44
1.23
0.81
0.30
-0.16
-0.49
-0.71
-0.84
-0.92
-0.93
-0.83
-0.64
-0.44
-0.39
-0.58
-1.01
-1.50
-1.81
-1.78
-1.37
-0.77
-0.27
-0.10
-0.34
-0.83
-1.19
-1.07
-0.25
1.20
2.97
4.64
5.78
6.14
5.61
4.28
2.35
0.11
-2.11
-3.98
-5.29
-5.98
-6.21
-6.23
-6.20
-6.06
-5.57
-4.46
-2.71
-0.59
1.38
2.67
3.05
2.63
1.78
0.88
0.11
-0.56
-1.34
-2.38
-3.64
-4.93
-5.94
-6.39
-6.15
-5.24
-3.81
-2.11
-0.42
1.07
2.27
3.24
4.08
4.91
5.78
6.62
7.31
7.73
7.78
7.44
6.73
5.72
4.48
3.09
1.58
0.02
-1.52
-2.96
-4.23
-5.24
-5.91
-6.17
-6.01
-5.47
-4.73
-4.02
-3.54
-3.39
-3.48
-3.57
-3.40
-2.84
-2.00
-1.15
-0.57
-0.40
-0.55
-0.76
-0.77
-0.47
0.08
0.70
1.21
1.52
1.66
1.73
1.77
1.78
1.68
1.41
0.97
0.43
-0.08
-0.43
-0.50
-0.30
0.12
0.59
0.92
0.95
0.62
-0.02
-0.79
-1.50
-2.00
-2.24
-2.28
-2.22
-2.14
-2.05
-1.92
-1.70
-1.39
-1.01
-0.60
-0.18
0.25
0.65
0.95
1.03
0.84
0.37
-0.23
-0.80
-1.18
-1.28
-1.14
-0.80
-0.34
0.23
0.91
1.68
2.44
3.05
3.33
3.14
2.46
1.37
0.11
-1.03
-1.71
-1.66
-0.80
0.73
2.57
4.26
5.37
5.67
5.11
3.82
2.02
-0.07
-2.21
-4.20
-5.83
-6.93
-7.44
-7.38
-6.84
-5.97
-4.91
-3.80
-2.80
-2.05
-1.70
-1.80
-2.30
-3.07
-3.95
-4.89
-5.86
-6.90
-7.97
-8.98
-9.78
-10.23
-10.25
-9.80
-8.83
-7.26
-5.04
-2.18
1.21
4.94
8.84
12.76
16.57
20.10
23.07
25.11
25.92
25.44
23.93
21.85
19.75
17.96
16.55
15.31
13.98
12.37
10.44
8.35
6.32
4.58
3.28
2.42
1.83
1.26
0.37
-1.06
-3.09
-5.54
-8.05
-10.23
-11.78
-12.62
-12.84
-12.69
-12.39
-12.06
-11.67
-11.09
-10.16
-8.85
-7.25
-5.60
-4.17
-3.14
-2.52
-2.15
-1.81
-1.34
-0.71
-0.03
0.54
0.87
0.91
0.73
0.45
0.17
-0.08
-0.36
-0.74
-1.24
-1.80
-2.21
-2.27
-1.81
-0.86
0.36
1.49
2.20
2.30
1.78
0.77
-0.59
-2.25
-4.19
-6.26
-8.13
-9.29
-9.32
-8.13
-6.13
-4.07
-2.62
-1.96
-1.69
-1.01
0.69
3.49
6.76
9.56
11.09
11.11
10.01
8.49
7.18
6.33
5.83
5.37
4.76
4.04
3.44
3.22
3.54
4.32
5.29
6.12
6.51
6.32
5.59
4.54
3.44
2.56
2.05
1.95
2.14
2.43
2.67
2.71
2.49
1.98
1.12
-0.10
-1.68
-3.47
-5.19
-6.54
-7.27
-7.31
-6.82
-6.12
-5.58
-5.48
-5.90
-6.74
-7.70
-8.43
-8.67
-8.32
-7.55
-6.68
-6.04
-5.78
-5.79
-5.77
-5.39
-4.41
-2.79
-0.60
2.04
4.97
7.94
10.59
12.52
13.44
13.31
12.40
11.10
9.76
8.50
7.18
5.62
3.71
1.56
-0.57
-2.41
-3.79
-4.74
-5.37
-5.82
-6.20
-6.53
-6.74
-6.79
-6.64
-6.33
-5.96
-5.65
-5.49
-5.56
-5.92
-6.61
-7.56
-8.55
-9.13
-8.77
-7.10
-4.17
-0.54
2.89
5.27
6.17
5.74
4.61
3.51
2.86
2.65
2.55
2.14
1.21
-0.15
-1.63
-2.92
-3.84
-4.37
-4.58
-4.46
-3.84
-2.45
-0.09
3.21
7.07
10.80
13.68
15.23
15.42
14.64
13.45
12.27
11.20
10.00
8.36
6.08
3.27
0.28
-2.47
-4.67
-6.23
-7.23
-7.87
-8.27
-8.49
-8.48
-8.22
-7.72
-7.09
-6.47
-5.99
-5.71
-5.55
-5.36
-4.98
-4.38
-3.68
-3.10
-2.80
-2.81
-2.99
-3.08
-2.85
-2.20
-1.17
0.07
1.32
2.43
3.31
3.92
4.20
4.11
3.60
2.68
1.40
-0.05
-1.45
-2.50
-2.87
-2.38
-1.02
0.95
3.12
5.09
6.60
7.70
8.60
9.52
10.49
11.26
11.45
10.74
9.14
6.94
4.63
2.59
1.02
-0.16
-1.15
-2.13
-3.20
-4.35
-5.58
-6.88
-8.21
-9.47
-10.45
-10.91
-10.71
-9.90
-8.68
-7.38
-6.29
-5.54
-5.11
-4.88
-4.70
-4.43
-4.01
-3.47
-2.83
-2.20
-1.65
-1.26
-1.07
-1.03
-1.06
-1.01
-0.74
-0.17
0.67
1.69
2.74
3.69
4.47
5.10
5.63
6.12
6.58
6.96
7.19
7.24
7.08
6.72
6.16
5.44
4.62
3.85
3.32
3.22
3.56
4.20
4.82
5.08
4.76
3.84
2.51
1.08
-0.19
-1.14
-1.79
-2.26
-2.67
-3.14
-3.74
-4.50
-5.42
-6.47
-7.59
-8.68
-9.62
-10.31
-10.66
-10.69
-10.46
-10.09
-9.71
-9.36
-9.03
-8.62
-8.00
-7.13
-6.05
-4.92
-3.93
-3.25
-2.91
-2.80
-2.76
-2.64
-2.37
-1.96
-1.47
-0.88
-0.13
0.89
2.23
3.87
5.70
7.59
9.39
10.96
12.17
12.87
12.89
12.14
10.67
8.69
6.54
4.57
3.03
1.99
1.36
1.02
0.92
1.10
1.65
2.50
3.41
3.98
3.86
2.92
1.41
-0.18
-1.31
-1.67
-1.30
-0.53
0.21
0.63
0.64
0.26
-0.40
-1.25
-2.15
-2.84
-3.02
-2.44
-1.10
0.70
2.46
3.69
4.13
3.90
3.38
3.02
3.15
3.78
4.63
5.19
4.92
3.48
0.98
-2.00
-4.57
-5.86
-5.45
-3.63
-1.31
0.47
0.99
0.22
-1.30
-2.77
-3.63
-3.82
-3.71
-3.79
-4.31
-5.13
-5.83
-5.97
-5.40
-4.29
-3.08
-2.22
-1.95
-2.18
-2.60
-2.83
-2.62
-1.94
-0.99
-0.12
0.36
0.28
-0.30
-1.14
-1.93
-2.39
-2.36
-1.81
-0.87
0.27
1.37
2.23
2.75
2.93
2.87
2.75
2.76
2.98
3.43
4.03
4.61
4.98
4.98
4.55
3.79
2.95
2.32
2.15
2.45
3.03
3.54
3.65
3.18
2.16
0.75
-0.78
-2.24
-3.49
-4.47
-5.13
-5.37
-5.03
-4.01
-2.32
-0.29
1.57
2.69
2.74
1.87
0.61
-0.30
-0.41
0.28
1.32
2.18
2.56
2.50
2.26
2.05
1.92
1.78
1.64
1.70
2.26
3.52
5.39
7.48
9.30
10.46
10.86
10.59
9.91
9.03
8.18
7.49
7.06
6.79
6.45
5.73
4.40
2.52
0.36
-1.63
-3.15
-4.09
-4.62
-4.94
-5.21
-5.41
-5.44
-5.21
-4.78
-4.31
-3.98
-3.91
-4.07
-4.38
-4.73
-5.02
-5.26
-5.45
-5.60
-5.64
-5.45
-4.89
-3.95
-2.76
-1.56
-0.65
-0.21
-0.24
-0.57
-0.97
-1.27
-1.45
-1.60
-1.79
-2.04
-2.29
-2.47
-2.57
-2.65
-2.82
-3.11
-3.47
-3.77
-3.83
-3.59
-3.06
-2.38
-1.72
-1.29
-1.23
-1.60
-2.35
-3.29
-4.15
-4.67
-4.72
-4.35
-3.74
-3.14
-2.76
-2.61
-2.59
-2.47
-2.07
-1.34
-0.43
0.33
0.61
0.26
-0.66
-1.81
-2.81
-3.41
-3.65
-3.80
-4.24
-5.30
-7.06
-9.42
-12.14
-14.97
-17.70
-20.07
-21.83
-22.81
-23.03
-22.73
-22.29
-22.01
-21.84
-21.49
-20.61
-19.04
-17.12
-15.64
-15.47
-17.07
-20.13
-23.55
-25.74
-25.11
-20.67
-12.42
-1.46
10.30
20.59
27.57
30.33
29.04
24.78
19.08
13.41
8.87
6.03
4.99
5.44
6.86
8.65
10.38
11.86
13.14
14.47
16.03
17.78
19.59
21.31
22.95
24.65
26.53
28.53
30.34
31.53
31.79
31.13
29.82
28.28
26.79
25.35
23.74
21.66
18.92
15.64
12.18
9.07
6.75
5.35
4.71
4.32
3.63
2.18
-0.17
-3.19
-6.37
-9.10
-10.83
-11.33
-10.72
-9.35
-7.62
-5.78
-3.89
-1.93
-0.02
1.47
2.04
1.38
-0.32
-2.36
-3.78
-3.85
-2.51
-0.34
1.74
3.00
3.26
2.89
2.48
2.43
2.72
3.04
2.98
2.36
1.27
0.02
-1.11
-1.98
-2.65
-3.26
-3.94
-4.77
-5.70
-6.66
-7.56
-8.35
-9.00
-9.46
-9.71
-9.68
-9.32
-8.59
-7.49
-6.11
-4.60
-3.17
-2.01
-1.29
-1.03
-1.13
-1.38
-1.53
-1.39
-0.89
-0.10
0.80
1.61
2.14
2.30
2.13
1.72
1.19
0.66
0.20
-0.15
-0.38
-0.44
-0.34
-0.10
0.22
0.55
0.79
0.87
0.73
0.41
-0.03
-0.45
-0.71
-0.70
-0.45
-0.06
0.30
0.47
0.42
0.23
0.05
0.03
0.16
0.36
0.48
0.43
0.21
-0.09
-0.31
-0.37
-0.24
0.02
0.32
0.60
0.82
0.98
1.07
1.06
0.94
0.73
0.49
0.29
0.18
0.13
0.06
-0.07
-0.26
-0.41
-0.39
-0.14
0.28
0.72
1.00
1.03
0.82
0.52
0.28
0.18
0.22
0.31
0.33
0.22
-0.06
-0.50
-1.04
-1.60
-2.10
-2.44
-2.57
-2.45
-2.13
-1.67
-1.14
-0.62
-0.13
0.30
0.66
0.93
1.09
1.11
1.02
0.84
0.67
0.58
0.65
0.89
1.23
1.55
1.72
1.69
1.48
1.22
1.06
1.06
1.21
1.39
1.46
1.34
1.04
0.62
0.20
-0.16
-0.46
-0.70
-0.90
-1.03
-1.06
-0.96
-0.76
-0.56
-0.42
-0.41
-0.49
-0.63
-0.73
-0.75
-0.66
-0.48
-0.27
-0.08
0.01
-0.07
-0.34
-0.73
-1.10
-1.27
-1.13
-0.70
-0.14
0.33
0.51
0.36
-0.01
-0.43
-0.73
-0.81
-0.70
-0.47
-0.22
0.01
0.16
0.23
0.21
0.13
0.04
0.00
0.05
0.18
0.30
0.34
0.23
-0.03
-0.36
-0.65
-0.81
-0.82
-0.72
-0.62
-0.62
-0.77
-1.06
-1.40
-1.67
-1.78
-1.72
-1.55
-1.35
-1.22
-1.19
-1.25
-1.36
-1.48
-1.59
-1.68
-1.75
-1.77
-1.73
-1.63
-1.49
-1.32
-1.12
-0.89
-0.62
-0.36
-0.15
-0.05
-0.08
-0.20
-0.33
-0.39
-0.36
-0.23
-0.08
0.06
0.15
0.19
0.21
0.22
0.27
0.36
0.49
0.64
0.78
0.89
0.95
0.96
0.89
0.77
0.58
0.38
0.20
0.14
0.26
0.55
0.95
1.30
1.47
1.35
0.94
0.36
-0.23
-0.67
-0.87
-0.79
-0.49
-0.06
0.36
0.66
0.74
0.59
0.27
-0.09
-0.36
-0.44
-0.30
0.01
0.45
0.96
1.48
1.94
2.22
2.25
1.99
1.48
0.78
-0.01
-0.81
-1.54
-2.13
-2.50
-2.60
-2.47
-2.17
-1.79
-1.39
-0.98
-0.57
-0.16
0.17
0.34
0.30
0.13
-0.03
-0.04
0.19
0.61
1.09
1.46
1.63
1.58
1.40
1.17
0.98
0.88
0.83
0.76
0.63
0.44
0.22
0.04
-0.01
0.05
0.18
0.27
0.25
0.09
-0.17
-0.49
-0.78
-1.03
-1.21
-1.32
-1.32
-1.20
-0.96
-0.67
-0.41
-0.23
-0.11
0.01
0.23
0.53
0.85
1.02
0.93
0.55
0.02
-0.47
-0.77
-0.80
-0.59
-0.22
0.22
0.65
1.03
1.31
1.45
1.44
1.32
1.16
1.04
0.98
0.95
0.85
0.65
0.33
-0.06
-0.41
-0.67
-0.81
-0.87
-0.89
-0.90
-0.92
-0.90
-0.81
-0.61
-0.34
-0.05
0.15
0.17
-0.02
-0.36
-0.74
-0.99
-1.01
-0.78
-0.39
0.02
0.32
0.48
0.54
0.60
0.73
0.92
1.11
1.18
1.08
0.81
0.44
0.06
-0.23
-0.39
-0.40
-0.26
-0.02
0.25
0.46
0.52
0.40
0.11
-0.27
-0.61
-0.83
-0.90
-0.85
-0.74
-0.65
-0.61
-0.61
-0.61
-0.61
-0.62
-0.69
-0.81
-0.96
-1.05
-1.01
-0.81
-0.51
-0.20
0.04
0.16
0.17
0.14
0.11
0.09
0.07
0.03
-0.06
-0.17
-0.24
-0.22
-0.05
0.27
0.70
1.14
1.48
1.65
1.60
1.38
1.07
0.74
0.48
0.33
0.27
0.28
0.28
0.25
0.16
0.05
-0.06
-0.12
-0.13
-0.09
0.01
0.19
0.49
0.87
1.24
1.49
1.51
1.25
0.81
0.34
-0.00
-0.14
-0.08
0.10
0.27
0.36
0.30
0.11
-0.19
-0.54
-0.86
-1.09
-1.20
-1.19
-1.11
-1.02
-0.94
-0.93
-0.97
-1.05
-1.17
-1.26
-1.29
-1.19
-0.94
-0.56
-0.13
0.26
0.55
0.73
0.78
0.72
0.53
0.21
-0.19
-0.56
-0.80
-0.84
-0.68
-0.42
-0.19
-0.08
-0.12
-0.25
-0.37
-0.38
-0.22
0.09
0.46
0.76
0.91
0.86
0.63
0.31
-0.02
-0.26
-0.38
-0.36
-0.23
-0.03
0.15
0.27
0.30
0.29
0.29
0.38
0.56
0.79
0.99
1.10
1.10
1.01
0.85
0.64
0.37
0.05
-0.27
-0.50
-0.54
-0.37
-0.06
0.23
0.38
0.31
0.09
-0.12
-0.16
0.03
0.39
0.72
0.87
0.74
0.39
-0.09
-0.56
-0.97
-1.32
-1.61
-1.80
-1.81
-1.55
-1.03
-0.34
0.34
0.84
1.04
0.98
0.73
0.41
0.10
-0.19
-0.46
-0.69
-0.82
-0.79
-0.57
-0.23
0.11
0.35
0.42
0.35
0.24
0.15
0.13
0.18
0.29
0.43
0.57
0.66
0.65
0.52
0.32
0.14
0.11
0.26
0.55
0.85
1.00
0.96
0.73
0.42
0.15
-0.02
-0.10
-0.14
-0.19
-0.30
-0.47
-0.68
-0.88
-1.05
-1.13
-1.09
-0.91
-0.59
-0.18
0.25
0.59
0.79
0.82
0.73
0.63
0.62
0.71
0.85
0.93
0.83
0.54
0.12
-0.32
-0.68
-0.89
-0.92
-0.75
-0.39
0.12
0.67
1.12
1.30
1.14
0.69
0.09
-0.44
-0.77
-0.83
-0.70
-0.47
-0.25
-0.10
-0.05
-0.08
-0.17
-0.29
-0.39
-0.40
-0.29
-0.09
0.17
0.37
0.43
0.31
0.05
-0.27
-0.55
-0.72
-0.80
-0.80
-0.76
-0.68
-0.55
-0.37
-0.15
0.07
0.25
0.37
0.45
0.52
0.62
0.76
0.89
0.98
0.96
0.84
0.62
0.36
0.09
-0.16
-0.38
-0.58
-0.71
-0.75
-0.66
-0.47
-0.28
-0.19
-0.27
-0.53
-0.88
-1.16
-1.27
-1.16
-0.88
-0.51
-0.16
0.07
0.16
0.10
-0.06
-0.23
-0.32
-0.27
-0.07
0.24
0.56
0.80
0.94
1.00
1.01
0.99
0.93
0.80
0.62
0.41
0.25
0.21
0.30
0.50
0.74
0.99
1.17
1.21
1.05
0.66
0.08
-0.56
-1.12
-1.45
-1.51
-1.36
-1.11
-0.87
-0.71
-0.67
-0.72
-0.80
-0.88
-0.90
-0.82
-0.62
-0.35
-0.04
0.25
0.51
0.69
0.79
0.75
0.55
0.22
-0.17
-0.51
-0.66
-0.59
-0.33
0.02
0.35
0.55
0.56
0.40
0.08
-0.32
-0.68
-0.89
-0.87
-0.58
-0.11
0.41
0.80
0.96
0.87
0.58
0.18
-0.22
-0.53
-0.68
-0.62
-0.32
0.15
0.69
1.15
1.44
1.49
1.31
0.96
0.53
0.11
-0.25
-0.50
-0.64
-0.68
-0.66
-0.63
-0.62
-0.63
-0.65
-0.68
-0.70
-0.70
-0.64
-0.50
-0.28
-0.04
0.17
0.29
0.30
0.28
0.27
0.31
0.37
0.38
0.26
0.04
-0.21
-0.38
-0.37
-0.17
0.17
0.55
0.86
1.01
0.99
0.86
0.69
0.56
0.50
0.51
0.55
0.58
0.55
0.46
0.34
0.19
0.01
-0.20
-0.43
-0.67
-0.86
-0.96
-0.94
-0.82
-0.65
-0.49
-0.43
-0.48
-0.64
-0.86
-1.05
-1.13
-1.07
-0.84
-0.48
-0.04
0.43
0.87
1.25
1.51
1.63
1.60
1.41
1.12
0.74
0.37
0.04
-0.17
-0.26
-0.23
-0.13
-0.02
0.06
0.10
0.13
0.22
0.37
0.58
0.77
0.86
0.79
0.54
0.18
-0.23
-0.57
-0.76
-0.76
-0.61
-0.39
-0.21
-0.18
-0.31
-0.52
-0.67
-0.67
-0.49
-0.22
-0.01
0.04
-0.07
-0.25
-0.40
-0.42
-0.35
-0.28
-0.29
-0.38
-0.49
-0.50
-0.36
-0.07
0.27
0.57
0.78
0.88
0.86
0.73
0.46
0.07
-0.32
-0.61
-0.67
-0.51
-0.23
0.02
0.14
0.09
-0.06
-0.24
-0.38
-0.47
-0.49
-0.45
-0.33
-0.17
-0.01
0.10
0.13
0.10
0.07
0.06
0.03
-0.07
-0.25
-0.48
-0.69
-0.81
-0.82
-0.78
-0.72
-0.67
-0.62
-0.53
-0.39
-0.20
-0.01
0.15
0.28
0.41
0.57
0.75
0.92
1.02
1.01
0.90
0.74
0.62
0.62
0.79
1.09
1.41
1.64
1.68
1.54
1.26
0.93
0.61
0.29
-0.08
-0.54
-1.06
-1.55
-1.87
-1.94
-1.75
-1.41
-1.02
-0.69
-0.47
-0.37
-0.36
-0.43
-0.56
-0.71
-0.82
-0.86
-0.80
-0.66
-0.51
-0.37
-0.27
-0.19
-0.12
-0.10
-0.20
-0.44
-0.81
-1.19
-1.42
-1.40
-1.10
-0.61
-0.08
0.36
0.65
0.78
0.78
0.71
0.60
0.48
0.39
0.34
0.37
0.45
0.54
0.59
0.55
0.41
0.20
0.01
-0.08
-0.02
0.14
0.31
0.36
0.25
0.06
-0.11
-0.16
-0.06
0.12
0.28
0.36
0.37
0.35
0.34
0.36
0.37
0.36
0.35
0.41
0.58
0.87
1.19
1.43
1.48
1.30
0.96
0.56
0.23
0.02
-0.07
-0.11
-0.17
-0.25
-0.33
-0.36
-0.31
-0.23
-0.19
-0.27
-0.45
-0.66
-0.79
-0.76
-0.58
-0.31
-0.04
0.15
0.24
0.25
0.20
0.13
0.07
0.07
0.17
0.40
0.73
1.06
1.26
1.24
1.00
0.62
0.23
-0.08
-0.30
-0.46
-0.63
-0.82
-0.98
-1.05
-1.00
-0.84
-0.62
-0.39
-0.20
-0.08
-0.01
-0.01
-0.07
-0.18
-0.33
-0.46
-0.53
-0.50
-0.41
-0.32
-0.34
-0.51
-0.80
-1.10
-1.23
-1.05
-0.57
0.09
0.73
1.12
1.18
0.94
0.54
0.14
-0.14
-0.29
-0.34
-0.33
-0.30
-0.21
-0.04
0.26
0.65
1.07
1.38
1.47
1.27
0.84
0.33
-0.08
-0.27
-0.24
-0.08
0.09
0.20
0.22
0.24
0.30
0.39
0.46
0.42
0.24
-0.02
-0.27
-0.39
-0.36
-0.18
0.08
0.38
0.67
0.90
1.02
0.99
0.78
0.45
0.12
-0.06
-0.03
0.17
0.41
0.52
0.46
0.28
0.15
0.18
0.36
0.58
0.69
0.59
0.26
-0.22
-0.72
-1.17
-1.52
-1.77
-1.91
-1.92
-1.78
-1.51
-1.13
-0.72
-0.35
-0.06
0.12
0.23
0.30
0.35
0.35
0.30
0.15
-0.06
-0.29
-0.49
-0.59
-0.60
-0.54
-0.42
-0.22
0.07
0.45
0.86
1.21
1.41
1.39
1.18
0.88
0.58
0.37
0.26
0.25
0.28
0.30
0.28
0.22
0.15
0.13
0.15
0.20
0.21
0.12
-0.07
-0.31
-0.47
-0.47
-0.32
-0.14
-0.09
-0.24
-0.60
-1.02
-1.34
-1.46
-1.35
-1.08
-0.73
-0.39
-0.09
0.12
0.21
0.17
0.03
-0.17
-0.33
-0.37
-0.24
0.01
0.31
0.52
0.53
0.31
-0.07
-0.44
-0.63
-0.50
-0.06
0.55
1.13
1.51
1.59
1.44
1.17
0.89
0.66
0.48
0.34
0.21
0.12
0.10
0.17
0.32
0.51
0.67
0.74
0.72
0.64
0.57
0.54
0.52
0.49
0.40
0.23
0.02
-0.21
-0.43
-0.63
-0.82
-1.01
-1.16
-1.20
-1.06
-0.71
-0.20
0.37
0.86
1.12
1.11
0.84
0.40
-0.10
-0.54
-0.88
-1.09
-1.20
-1.24
-1.23
-1.18
-1.09
-0.93
-0.71
-0.47
-0.27
-0.18
-0.23
-0.40
-0.60
-0.71
-0.66
-0.41
-0.01
0.41
0.74
0.89
0.83
0.61
0.33
0.13
0.12
0.32
0.63
0.85
0.81
0.44
-0.13
-0.68
-0.95
-0.83
-0.36
0.29
0.91
1.39
1.64
1.67
1.48
1.07
0.50
-0.12
-0.60
-0.78
-0.57
-0.05
0.58
1.07
1.25
1.08
0.59
-0.07
-0.81
-1.55
-2.26
-2.87
-3.29
-3.41
-3.13
-2.49
-1.61
-0.71
-0.02
0.37
0.43
0.25
-0.09
-0.52
-1.01
-1.53
-2.02
-2.39
-2.56
-2.47
-2.12
-1.57
-0.95
-0.35
0.14
0.47
0.62
0.60
0.47
0.26
0.07
-0.05
-0.05
0.07
0.26
0.45
0.60
0.69
0.78
0.93
1.19
1.53
1.84
1.97
1.83
1.40
0.81
0.22
-0.18
-0.29
-0.15
0.11
0.33
0.40
0.33
0.27
0.37
0.74
1.32
1.91
2.28
2.26
1.88
1.32
0.80
0.48
0.39
0.42
0.44
0.37
0.24
0.15
0.15
0.26
0.42
0.55
0.62
0.66
0.72
0.84
0.98
1.05
0.94
0.61
0.13
-0.35
-0.66
-0.74
-0.63
-0.48
-0.42
-0.47
-0.58
-0.61
-0.48
-0.21
0.08
0.30
0.42
0.48
0.57
0.70
0.79
0.72
0.43
-0.07
-0.63
-1.08
-1.31
-1.27
-1.00
-0.60
-0.15
0.24
0.46
0.45
0.20
-0.23
-0.69
-1.02
-1.12
-1.01
-0.78
-0.64
-0.71
-1.04
-1.56
-2.09
-2.46
-2.53
-2.29
-1.82
-1.27
-0.80
-0.52
-0.47
-0.59
-0.79
-0.98
-1.10
-1.17
-1.26
-1.41
-1.65
-1.95
-2.21
-2.38
-2.39
-2.26
-2.02
-1.71
-1.37
-1.04
-0.73
-0.45
-0.17
0.17
0.63
1.23
1.94
2.62
3.08
3.20
2.97
2.49
1.93
1.49
1.27
1.29
1.48
1.74
1.99
2.19
2.43
2.82
3.49
4.52
5.88
7.46
9.10
10.62
11.88
12.85
13.56
14.15
14.78
15.53
16.34
16.95
17.02
16.24
14.57
12.22
9.60
7.06
4.76
2.63
0.50
-1.72
-3.92
-5.86
-7.36
-8.42
-9.21
-9.95
-10.76
-11.56
-12.12
-12.24
-11.86
-11.11
-10.21
-9.35
-8.61
-7.97
-7.38
-6.82
-6.31
-5.93
-5.73
-5.66
-5.61
-5.42
-5.01
-4.37
-3.60
-2.87
-2.32
-2.04
-2.02
-2.22
-2.54
-2.90
-3.23
-3.49
-3.61
-3.52
-3.12
-2.37
-1.33
-0.20
0.75
1.29
1.35
1.08
0.73
0.54
0.59
0.79
0.94
0.91
0.72
0.55
0.60
0.92
1.41
1.82
1.91
1.61
0.99
0.25
-0.44
-0.96
-1.31
-1.50
-1.57
-1.50
-1.31
-1.01
-0.67
-0.37
-0.17
-0.11
-0.17
-0.28
-0.37
-0.35
-0.22
-0.02
0.16
0.22
0.13
-0.04
-0.12
0.05
0.58
1.37
2.20
2.80
2.96
2.67
2.05
1.32
0.63
0.05
-0.46
-0.97
-1.46
-1.85
-2.05
-2.01
-1.79
-1.48
-1.18
-0.92
-0.69
-0.42
-0.11
0.16
0.33
0.32
0.14
-0.15
-0.46
-0.76
-1.08
-1.45
-1.87
-2.30
-2.67
-2.93
-3.09
-3.20
-3.31
-3.44
-3.55
-3.58
-3.50
-3.32
-3.08
-2.79
-2.46
-2.05
-1.51
-0.82
0.01
0.89
1.65
2.16
2.29
2.05
1.56
1.05
0.69
0.59
0.69
0.82
0.77
0.38
-0.39
-1.49
-2.79
-4.16
-5.41
-6.37
-6.93
-7.03
-6.77
-6.35
-6.02
-5.92
-5.96
-5.77
-4.82
-2.61
1.00
5.69
10.71
15.12
18.15
19.44
19.11
17.61
15.54
13.46
11.79
10.78
10.51
10.91
11.71
12.58
13.14
13.12
12.41
11.07
9.24
7.07
4.75
2.49
0.47
-1.16
-2.38
-3.26
-3.88
-4.25
-4.22
-3.59
-2.21
-0.10
2.49
5.21
7.70
9.72
11.22
12.25
12.93
13.46
14.06
14.96
16.21
17.56
18.39
17.93
15.58
11.23
5.37
-1.15
-7.40
-12.77
-17.02
-20.20
-22.43
-23.73
-24.06
-23.43
-22.04
-20.24
-18.46
-17.00
-16.01
-15.46
-15.26
-15.30
-15.52
-15.93
-16.51
-17.28
-18.21
-19.26
-20.30
-21.13
-21.44
-20.91
-19.35
-16.84
-13.70
-10.38
-7.24
-4.43
-1.88
0.54
2.81
4.64
5.67
5.69
4.97
4.19
4.17
5.43
7.89
10.91
13.61
15.31
15.78
15.26
14.19
12.94
11.66
10.28
8.73
7.00
5.22
3.55
2.13
0.97
0.05
-0.65
-1.14
-1.40
-1.42
-1.18
-0.68
0.09
1.12
2.38
3.73
4.94
5.73
5.88
5.36
4.31
3.12
2.20
1.86
2.17
2.93
3.70
4.01
3.57
2.37
0.69
-1.03
-2.45
-3.44
-4.08
-4.58
-5.07
-5.53
-5.83
-5.80
-5.34
-4.54
-3.56
-2.56
-1.66
-0.86
-0.16
0.42
0.79
0.87
0.67
0.29
-0.04
-0.10
0.24
0.92
1.75
2.49
2.96
3.14
3.08
2.86
2.53
2.10
1.55
0.90
0.21
-0.42
-0.89
-1.13
-1.18
-1.15
-1.22
-1.55
-2.18
-2.98
-3.69
-4.05
-3.88
-3.21
-2.18
-1.01
0.17
1.32
2.47
3.62
4.70
5.56
6.03
6.03
5.56
4.72
3.63
2.39
1.09
-0.18
-1.33
-2.26
-2.89
-3.15
-3.04
-2.62
-2.06
-1.55
-1.23
-1.14
-1.19
-1.20
-1.01
-0.57
0.04
0.67
1.17
1.45
1.52
1.43
1.23
0.91
0.43
-0.24
-1.14
-2.30
-3.81
-5.77
-8.27
-11.19
-14.17
-16.66
-18.15
-18.47
-17.96
-17.32
-17.30
-18.32
-20.24
-22.45
-24.24
-25.06
-24.72
-23.16
-20.33
-16.03
-10.12
-2.74
5.52
13.67
20.75
26.16
29.90
32.44
34.36
35.93
36.95
36.83
34.95
31.05
25.57
19.55
14.31
10.97
10.00
11.03
13.02
14.72
15.18
14.07
11.66
8.52
5.19
1.97
-1.06
-3.85
-6.22
-7.85
-8.45
-7.96
-6.61
-4.90
-3.35
-2.39
-2.16
-2.58
-3.38
-4.21
-4.78
-4.91
-4.55
-3.85
-3.08
-2.51
-2.34
-2.62
-3.25
-4.02
-4.76
-5.36
-5.78
-6.02
-6.03
-5.75
-5.17
-4.37
-3.51
-2.81
-2.41
-2.25
-2.08
-1.59
-0.61
0.74
2.07
2.85
2.72
1.63
-0.11
-1.99
-3.54
-4.53
-4.97
-5.10
-5.13
-5.22
-5.34
-5.40
-5.29
-4.98
-4.50
-3.89
-3.18
-2.33
-1.28
0.04
1.64
3.42
5.24
6.86
8.07
8.72
8.80
8.42
7.81
7.13
6.48
5.81
4.96
3.80
2.27
0.49
-1.30
-2.83
-3.92
-4.60
-5.02
-5.42
-5.95
-6.59
-7.18
-7.52
-7.46
-7.01
-6.33
-5.60
-4.97
-4.48
-4.11
-3.84
-3.65
-3.55
-3.52
-3.51
-3.41
-3.14
-2.64
-1.96
-1.21
-0.57
-0.17
-0.08
-0.29
-0.71
-1.23
-1.76
-2.26
-2.71
-3.07
-3.23
-3.03
-2.31
-1.01
0.73
2.64
4.42
5.81
6.74
7.31
7.74
8.22
8.86
9.61
10.32
10.78
10.87
10.59
10.03
9.37
8.76
8.27
7.86
7.41
6.79
5.86
4.56
2.88
0.86
-1.41
-3.79
-6.08
-8.04
-9.47
-10.23
-10.31
-9.81
-8.96
-8.05
-7.34
-7.05
-7.23
-7.78
-8.45
-8.84
-8.61
-7.51
-5.50
-2.73
0.47
3.68
6.51
8.58
9.60
9.43
8.05
5.69
2.73
-0.29
-2.84
-4.54
-5.23
-5.03
-4.27
-3.39
-2.74
-2.51
-2.68
-2.99
-3.17
-2.96
-2.27
-1.16
0.27
1.99
4.04
6.47
9.29
12.31
15.20
17.62
19.30
20.20
20.44
20.19
19.49
18.19
15.99
12.53
7.66
1.68
-4.57
-9.95
-13.39
-14.39
-13.29
-11.14
-9.20
-8.41
-8.87
-9.97
-10.74
-10.46
-9.01
-6.89
-4.97
-4.02
-4.52
-6.49
-9.67
-13.64
-17.98
-22.31
-26.25
-29.40
-31.35
-31.79
-30.58
-27.82
-23.85
-19.19
-14.56
-10.64
-7.89
-6.14
-4.50
-1.44
4.60
14.39
27.35
41.51
54.21
63.15
67.25
66.86
63.24
57.77
51.27
43.94
35.71
26.67
17.36
8.61
1.27
-4.16
-7.68
-9.77
-11.12
-12.39
-13.93
-15.67
-17.19
-17.93
-17.52
-15.96
-13.63
-11.13
-8.98
-7.50
-6.68
-6.34
-6.21
-6.12
-5.98
-5.85
-5.78
-5.82
-5.92
-5.90
-5.59
-4.87
-3.83
-2.72
-1.85
-1.41
-1.33
-1.35
-1.20
-0.82
-0.38
-0.21
-0.53
-1.28
-2.11
-2.61
-2.61
-2.25
-1.97
-2.14
-2.84
-3.72
-4.21
-3.82
-2.45
-0.49
1.38
2.48
2.48
1.50
0.06
-1.13
-1.47
-0.63
1.27
3.67
5.68
6.37
4.99
1.40
-3.81
-9.31
-13.46
-14.88
-13.06
-8.67
-3.31
1.15
3.43
3.35
1.68
-0.44
-2.33
-4.25
-7.22
-12.45
-20.59
-31.20
-42.74
-52.96
-59.53
-60.67
-55.72
-45.43
-31.80
-17.70
-5.90
1.83
5.28
5.80
5.60
6.44
8.37
9.02
4.41
-9.35
-33.54
-65.07
-96.67
-118.82
-122.90
-103.83
