1588974475.00
64.000000
-0.00
-0.00
-0.00
-0.00
-0.00
-0.00
-0.00
-0.00
-0.00
-0.00
0.00
0.01
0.01
-0.00
-0.03
-0.05
-0.05
0.00
0.13
0.36
0.66
1.01
1.37
1.72
2.06
2.40
2.79
3.24
3.80
4.42
5.06
5.66
6.20
6.68
7.15
7.68
8.31
9.14
10.09
11.04
11.88
12.56
13.14
13.76
14.65
15.96
17.91
20.32
22.90
25.38
27.58
29.57
31.68
34.32
37.81
42.54
48.15
54.10
59.83
64.97
69.58
74.14
79.34
85.71
93.76
103.00
112.62
121.73
129.77
136.75
143.30
150.75
157.77
166.64
177.95
191.79
206.97
220.57
228.25
225.36
208.53
176.87
132.76
80.05
23.07
-34.94
-92.44
-149.16
-205.23
-260.37
-313.74
-363.87
-409.83
-450.91
-486.50
-515.74
-537.23
-549.22
-549.96
-538.37
-514.21
-478.67
-433.88
-382.45
-327.02
-269.84
-212.63
-156.66
-102.95
-52.37
-5.90
35.58
71.43
101.35
125.50
144.38
158.69
169.15
176.37
180.75
182.57
182.07
179.51
175.23
169.65
163.18
156.15
148.81
141.30
133.69
126.02
118.33
110.69
103.16
95.80
88.68
81.83
75.25
68.95
62.95
57.25
51.86
46.78
42.03
37.59
33.45
29.61
26.07
22.81
19.83
17.11
14.67
12.48
10.54
8.83
7.35
6.07
4.97
4.05
3.27
2.62
2.09
1.65
1.30
1.01
0.79
0.61
0.47
0.37
0.29
0.23
0.19
0.17
0.15
0.15
0.16
0.18
0.20
0.24
0.27
0.31
0.35
0.40
0.44
0.50
0.54
0.59
0.65
0.71
0.77
0.83
0.91
0.98
1.07
1.17
1.27
1.39
1.52
1.67
1.84
2.03
2.23
2.46
2.71
2.99
3.30
3.64
4.02
4.42
4.86
5.35
5.87
6.42
7.03
7.67
8.36
9.10
9.88
10.71
11.59
12.51
13.48
14.51
15.60
16.75
17.97
19.26
20.58
21.92
23.21
24.37
25.30
25.89
26.00
25.50
24.33
22.40
19.73
16.36
12.37
7.94
3.28
-1.40
-5.87
-9.93
-13.43
-16.27
-18.41
-19.86
-20.63
-20.81
-20.49
-19.77
-18.78
-17.63
-16.42
-15.22
-14.05
-12.85
-11.60
-10.28
-8.86
-7.33
-5.72
-4.10
-2.50
-0.90
0.76
2.48
4.28
6.20
8.21
10.21
12.09
13.74
15.23
16.80
18.46
20.37
22.60
25.08
27.56
29.71
31.32
32.42
33.38
34.32
35.47
37.01
38.79
40.38
41.23
40.99
39.66
37.76
35.43
32.91
30.25
27.01
22.39
15.28
4.33
-12.31
-32.19
-54.83
-79.49
-104.56
-127.35
-144.58
-153.57
-153.30
-144.83
-130.61
-113.79
-96.17
-77.88
-58.08
-36.16
-12.49
11.69
35.14
57.49
78.99
100.59
122.93
145.57
167.05
185.44
199.08
207.14
209.73
207.24
200.36
189.77
176.02
159.62
141.26
121.86
102.49
84.17
67.47
52.50
38.95
26.23
13.77
1.27
-11.20
-23.14
-33.83
-42.77
-49.82
-55.41
-60.40
-65.79
-72.29
-80.11
-88.91
-98.06
-106.91
-114.93
-121.66
-126.57
-128.91
-127.71
-122.14
-111.86
-97.44
-80.43
-63.11
-47.93
-36.74
-30.17
-27.51
-27.01
-26.70
-25.26
-22.50
-19.35
-17.19
-17.20
-19.97
-25.48
-33.35
-43.12
-54.21
-65.84
-77.28
-88.77
-102.16
-120.96
-148.69
-186.56
-231.38
-275.48
-309.07
-324.02
-317.39
-292.47
-257.18
-220.51
-189.24
-166.21
-150.81
-140.72
-133.49
-127.09
-119.55
-108.69
-92.45
-70.07
-42.90
-14.32
11.57
31.84
45.96
55.79
64.07
72.67
81.63
89.41
94.20
95.12
92.74
88.43
83.47
78.44
73.35
68.21
63.57
60.50
59.97
62.27
66.67
71.71
75.82
78.00
78.16
77.07
75.86
75.47
76.14
77.25
77.43
74.98
68.32
56.62
40.08
19.95
-1.76
-22.76
-41.11
-55.53
-65.50
-71.23
-73.19
-72.02
-68.27
-62.33
-54.49
-44.93
-33.90
-21.80
-9.11
3.52
15.53
26.53
36.35
45.01
52.63
59.36
65.40
71.02
76.55
82.20
87.99
93.58
98.35
101.65
103.09
102.72
101.06
98.85
96.63
94.41
91.55
87.06
79.99
70.04
57.72
44.24
31.15
19.87
11.42
6.47
5.34
8.10
14.52
23.92
35.13
46.70
57.17
65.50
71.20
74.34
75.41
75.05
73.81
72.06
69.95
67.52
64.70
61.41
57.50
52.82
47.24
40.74
33.49
25.75
17.80
9.76
1.61
-6.77
-15.35
-23.83
-31.64
-38.11
-42.83
-45.91
-47.92
-49.72
-52.08
-55.38
-59.54
-64.06
-68.20
-71.15
-72.23
-70.94
-67.14
-60.93
-52.66
-42.80
-31.84
-20.29
-8.79
1.90
10.91
17.46
21.15
22.10
21.04
18.96
16.88
15.41
14.69
14.50
14.47
14.35
14.14
13.99
14.08
14.38
14.65
14.51
13.58
11.61
8.56
4.56
-0.18
-5.38
-10.80
-16.20
-21.36
-26.15
-30.60
-34.91
-39.47
-44.67
-50.72
-57.47
-64.25
-69.99
-73.37
-73.26
-69.03
-60.78
-49.24
-35.54
-20.88
-6.25
7.57
19.96
30.34
38.17
43.14
45.32
45.26
43.89
42.12
40.66
39.74
39.18
38.61
37.73
36.50
35.10
33.74
32.47
31.11
29.19
26.23
21.89
16.14
9.21
1.48
-6.70
-15.13
-23.75
-32.61
-41.75
-51.28
-61.24
-71.51
-81.70
-90.88
-97.70
-100.62
-98.41
-90.47
-77.15
-59.59
-39.41
-18.36
2.06
20.75
37.02
50.65
61.71
70.51
77.32
82.32
85.51
86.91
86.69
85.22
83.08
80.69
78.24
75.51
72.10
67.61
62.00
55.62
49.04
42.85
37.32
32.36
27.58
22.52
16.89
10.67
4.03
-2.84
-9.87
-17.15
-24.79
-32.81
-41.06
-49.23
-56.93
-63.78
-69.33
-73.02
-74.12
-71.88
-65.75
-55.71
-42.38
-26.94
-10.87
4.44
18.06
29.62
39.24
47.30
54.13
59.85
64.31
67.22
68.41
68.00
66.40
64.20
61.94
59.94
58.26
56.78
55.39
54.10
53.05
52.34
51.98
51.78
51.45
50.66
49.20
46.98
44.03
40.45
36.41
32.12
27.89
23.97
20.53
17.51
14.62
11.46
7.64
2.92
-2.75
-9.25
-16.32
-23.68
-31.03
-38.16
-44.99
-51.66
-58.48
-65.87
-74.14
-83.26
-92.75
-101.66
-108.84
-113.18
-113.92
-110.78
-103.94
-93.92
-81.39
-67.09
-51.81
-36.48
-22.07
-9.47
0.67
8.21
13.40
16.75
18.76
19.77
19.96
19.55
18.82
18.21
18.09
18.59
19.58
20.70
21.60
22.14
22.40
22.53
22.64
22.66
22.39
21.64
20.34
18.59
16.63
14.63
12.69
10.75
8.62
6.13
3.16
-0.22
-3.83
-7.40
-10.69
-13.63
-16.35
-19.21
-22.63
-26.93
-32.11
-37.77
-43.12
-47.09
-48.66
-47.06
-42.08
-33.99
-23.56
-11.77
0.36
11.95
22.36
31.11
37.96
42.84
45.86
47.36
47.71
47.34
46.50
45.38
44.01
42.43
40.70
38.95
37.34
35.99
34.89
33.97
33.02
31.80
30.12
27.85
24.99
21.62
17.91
14.00
9.97
5.92
1.84
-2.24
-6.36
-10.55
-14.90
-19.46
-24.23
-28.98
-33.39
-37.03
-39.58
-40.97
-41.47
-41.55
-41.69
-42.05
-42.24
-41.39
-38.33
-32.12
-22.48
-9.84
4.67
19.77
34.48
48.29
61.11
72.91
83.58
92.93
101.00
108.16
115.00
121.89
128.50
133.84
136.69
136.21
132.47
126.45
119.55
113.13
108.11
104.93
103.60
103.78
104.76
105.50
104.80
101.65
95.63
87.03
76.51
64.66
51.68
37.39
21.58
4.36
-13.54
-31.02
-46.95
-60.51
-71.34
-79.39
-84.92
-88.31
-90.15
-91.16
-92.03
-93.11
-94.13
-94.17
-92.00
-86.63
-77.87
-66.50
-53.99
-42.09
-32.28
-25.47
-21.86
-21.06
-22.32
-24.69
-27.28
-29.48
-31.04
-32.05
-32.68
-33.09
-33.30
-33.29
-33.11
-32.94
-32.98
-33.24
-33.48
-33.25
-32.10
-29.93
-27.11
-24.37
-22.58
-22.29
-23.58
-26.07
-29.14
-32.29
-35.36
-38.52
-42.07
-46.20
-50.81
-55.50
-59.78
-63.32
-66.09
-68.28
-69.99
-70.99
-70.68
-68.35
-63.50
-56.28
-47.38
-37.83
-28.47
-19.67
-11.35
-3.33
4.37
11.34
16.89
20.35
21.39
20.17
17.23
13.36
9.33
5.72
2.76
0.42
-1.57
-3.50
-5.50
-7.43
-9.03
-10.07
-10.56
-10.79
-11.17
-12.00
-13.35
-15.09
-17.10
-19.50
-22.69
-27.21
-33.37
-40.96
-49.10
-56.45
-61.44
-62.85
-60.10
-53.49
-43.97
-32.93
-21.66
-11.24
-2.33
4.58
9.13
11.03
10.19
6.88
1.73
-4.40
-10.74
-16.84
-22.55
-27.95
-32.91
-36.92
-39.14
-38.69
-35.04
-28.42
-19.68
-10.10
-0.83
7.42
14.46
20.44
25.40
29.12
31.08
30.64
27.37
21.27
12.84
3.05
-6.90
-15.74
-22.50
-26.73
-28.66
-29.06
-28.99
-29.37
-30.69
-32.94
-35.74
-38.66
-41.37
-43.72
-45.59
-46.67
-46.45
-44.28
-39.60
-32.14
-21.97
-9.50
4.68
19.97
35.70
51.12
65.38
77.52
86.83
92.97
96.16
97.09
96.67
95.60
94.24
92.56
90.41
87.73
84.61
81.27
77.75
73.83
69.01
62.85
55.40
47.49
40.67
36.97
38.12
45.00
57.21
73.16
90.70
107.69
122.71
135.17
145.10
152.60
157.39
158.59
154.93
145.21
128.68
105.24
75.19
38.97
-2.90
-49.43
-98.60
-147.02
-190.30
-224.19
-245.99
-255.61
-255.54
-249.95
-243.02
-237.70
-235.11
-234.99
-236.50
-238.94
-241.95
-245.12
-247.53
-247.62
-243.59
-234.07
-218.82
-198.82
-175.84
-151.65
-127.25
-102.65
-77.25
-50.42
-22.22
6.38
33.96
59.19
81.46
100.56
117.08
132.03
146.37
160.35
173.43
184.68
193.29
199.01
201.70
201.92
201.04
200.93
203.56
210.42
222.32
239.31
260.58
283.40
304.98
323.33
337.67
347.80
353.72
355.51
353.36
347.43
334.50
312.31
281.35
244.94
207.12
170.85
137.84
108.77
83.52
54.76
16.86
-30.24
-81.18
-129.54
-171.47
-205.76
-232.82
-253.84
-281.11
-323.90
-382.45
-448.27
-511.21
-565.16
-608.27
-641.21
-665.95
-698.93
-752.60
-827.95
-915.21
-1003.36
-1087.63
-1168.34
-1247.09
-1236.90
-1089.45
-822.54
-508.99
-218.89
13.14
180.86
292.38
361.74
404.64
421.33
412.15
383.68
346.53
314.11
293.15
284.86
287.35
297.34
299.85
283.20
245.83
196.88
149.34
112.75
92.31
87.68
96.01
105.77
107.20
97.38
80.72
64.23
52.60
47.63
48.97
55.36
61.88
64.81
63.45
60.14
58.02
58.72
62.62
69.23
77.76
86.02
92.16
95.54
96.88
97.57
98.82
101.49
106.01
112.37
119.99
128.00
135.53
142.03
147.58
152.74
158.63
166.70
178.44
194.61
214.50
235.38
252.70
261.19
256.58
237.22
204.82
164.01
120.76
80.64
47.51
23.03
7.10
-1.46
-4.13
-2.26
3.00
10.60
19.47
28.37
35.94
40.89
42.50
40.91
37.19
32.97
29.70
27.94
27.10
25.73
22.16
15.42
5.67
-5.80
-16.88
-25.35
-29.41
-28.09
-21.31
-9.86
4.78
20.70
35.82
48.48
57.76
63.72
67.14
69.28
71.42
74.61
79.53
86.32
94.33
102.11
107.66
108.89
104.36
93.72
77.90
58.70
38.12
17.90
-0.78
-17.24
-31.04
-41.81
-49.22
-52.99
-52.97
-49.26
-42.36
-33.15
-22.81
-12.46
-2.90
5.59
12.95
19.18
24.01
27.05
28.06
27.29
25.45
23.53
22.27
21.80
21.66
21.15
19.74
17.43
14.61
11.90
9.61
7.58
5.25
1.91
-2.86
-8.99
-15.96
-23.05
-29.68
-35.68
-41.27
-46.85
-52.73
-58.98
-65.41
-71.71
-77.65
-82.99
-87.42
-90.48
-91.54
-90.08
-85.86
-78.96
-69.74
-58.52
-45.47
-30.68
-14.33
2.99
20.24
36.07
49.20
58.75
64.49
66.85
66.76
65.37
63.73
62.56
62.02
61.88
61.65
60.84
59.12
56.36
52.57
47.77
41.95
35.12
27.46
19.37
11.47
4.37
-1.61
-6.62
-11.36
-16.89
-24.14
-33.53
-44.59
-55.95
-65.65
-71.74
-72.90
-68.77
-60.06
-48.17
-34.70
-21.01
-7.95
4.04
14.73
23.87
31.18
36.34
39.33
40.45
40.28
39.48
38.49
37.41
35.97
33.91
31.14
27.91
24.77
22.21
20.40
19.04
17.45
14.86
10.84
5.43
-0.82
-7.13
-12.93
-18.03
-22.71
-27.56
-33.21
-40.02
-47.97
-56.53
-64.84
-71.86
-76.52
-77.89
-75.36
-68.72
-58.30
-44.94
-29.93
-14.76
-0.76
11.17
20.71
28.03
33.52
37.57
40.29
41.60
41.37
39.63
36.65
32.91
28.90
24.99
21.30
17.72
14.10
10.34
6.59
3.09
0.03
-2.65
-5.35
-8.68
-13.16
-19.00
-25.90
-33.24
-40.42
-47.09
-53.33
-59.58
-66.39
-74.19
-83.02
-92.31
-100.82
-106.69
-107.99
-103.26
-92.08
-75.29
-54.67
-32.33
-9.86
12.06
33.62
55.36
77.49
99.50
120.04
137.14
148.52
152.07
146.36
131.18
107.99
79.84
50.84
25.12
5.75
-5.94
-10.49
-9.61
-5.41
0.36
6.47
12.13
16.67
19.58
20.68
20.27
19.15
18.32
18.47
19.69
21.41
22.62
22.26
19.58
14.27
6.65
-2.48
-11.90
-20.18
-26.07
-28.80
-28.25
-24.94
-19.70
-13.40
-6.72
-0.09
6.18
11.72
16.12
18.96
20.02
19.45
17.72
15.51
13.46
11.88
10.77
9.83
8.69
7.13
5.17
2.99
0.81
-1.30
-3.56
-6.37
-10.09
-14.84
-20.39
-26.22
-31.74
-36.56
-40.64
-44.23
-47.75
-51.55
-55.83
-60.50
-65.24
-69.57
-72.82
-74.30
-73.27
-69.16
-61.74
-51.22
-38.31
-24.12
-9.89
3.14
14.11
22.56
28.53
32.34
34.44
35.19
34.70
33.00
30.16
26.44
22.32
18.44
15.32
13.16
11.77
10.72
9.55
7.92
5.67
2.85
-0.45
-4.17
-8.30
-12.85
-17.72
-22.69
-27.42
-31.63
-35.20
-38.26
-41.14
-44.26
-47.70
-51.13
-53.65
-54.08
-51.37
-45.03
-35.38
-23.49
-10.73
1.62
12.75
22.42
30.74
37.87
43.78
48.17
50.74
51.45
50.64
48.98
47.21
45.79
44.81
43.99
42.95
41.51
39.70
37.78
36.03
34.45
32.76
30.43
26.97
22.10
15.98
9.11
2.14
-4.43
-10.51
-16.33
-22.26
-28.50
-35.01
-41.48
-47.68
-53.61
-59.36
-64.87
-69.50
-72.00
-70.83
-64.84
-53.82
-38.81
-21.79
-4.97
9.94
22.16
31.81
39.47
45.69
50.64
54.03
55.45
54.69
52.02
48.10
43.79
39.71
36.07
32.69
29.27
25.73
22.42
19.97
19.05
19.87
22.01
24.48
26.11
26.07
24.17
20.89
17.06
13.52
10.66
8.37
6.19
3.61
0.33
-3.55
-7.75
-11.96
-16.06
-20.21
-24.66
-29.55
-34.69
-39.75
-44.35
-48.46
-52.44
-56.85
-62.07
-67.76
-72.83
-75.69
-74.81
-69.42
-59.76
-47.08
-33.07
-19.33
-6.88
3.95
13.29
21.36
28.13
33.35
36.62
37.79
37.11
35.31
33.33
31.96
31.58
32.06
32.94
33.73
34.21
34.42
34.69
35.27
36.08
36.77
36.74
35.53
32.97
29.33
25.19
21.13
17.50
14.23
10.96
7.24
2.86
-2.09
-7.23
-12.07
-16.38
-20.14
-23.59
-27.04
-30.70
-34.59
-38.62
-42.72
-46.93
-51.37
-56.04
-60.56
-64.16
-65.74
-64.25
-59.07
-50.40
-39.23
-27.10
-15.48
-5.35
2.95
9.65
15.05
19.19
21.75
22.28
20.62
17.21
13.06
9.38
7.15
6.67
7.60
9.12
10.44
11.08
11.01
10.58
10.20
10.07
10.13
10.04
9.48
8.32
6.70
4.95
3.34
1.86
0.25
-1.93
-4.90
-8.56
-12.51
-16.28
-19.61
-22.78
-26.53
-31.71
-38.82
-47.59
-56.84
-64.77
-69.51
-69.80
-65.35
-56.97
-46.14
-34.39
-22.91
-12.28
-2.64
5.96
13.32
19.05
22.79
24.52
24.62
23.88
23.11
22.81
22.91
23.00
22.54
21.38
19.79
18.34
17.47
17.11
16.66
15.25
12.23
7.47
1.44
-5.04
-11.30
-17.05
-22.41
-27.73
-33.29
-39.17
-45.37
-51.89
-58.87
-66.61
-75.23
-84.51
-93.70
-101.57
-106.73
-108.08
-105.08
-98.01
-87.84
-75.93
-63.63
-51.98
-41.51
-32.26
-23.98
-16.29
-8.88
-1.60
5.61
12.73
19.66
26.27
32.36
37.68
41.98
45.13
47.15
48.29
48.99
49.70
50.67
51.71
52.23
51.36
48.41
43.17
36.05
27.92
19.76
12.10
4.97
-2.13
-9.80
-18.35
-27.56
-36.64
-44.45
-49.85
-51.96
-50.30
-44.85
-35.99
-24.47
-11.23
2.61
15.93
27.70
37.17
44.04
48.42
50.84
51.98
52.46
52.55
52.18
51.00
48.68
45.18
40.84
36.33
32.44
29.68
28.14
27.49
27.19
26.72
25.78
24.31
22.36
19.93
16.86
12.93
7.98
2.08
-4.53
-11.51
-18.62
-25.89
-33.48
-41.52
-49.72
-57.18
-62.53
-64.26
-61.31
-53.54
-41.85
-27.90
-13.49
-0.02
11.78
21.73
29.83
36.05
40.11
41.76
41.05
38.40
34.56
30.30
26.19
22.46
19.15
16.18
13.57
11.35
9.43
7.64
5.59
2.90
-0.71
-5.23
-10.44
-15.89
-21.12
-25.81
-29.91
-33.83
-38.30
-44.13
-51.80
-61.11
-70.95
-79.55
-85.01
-85.94
-81.83
-73.17
-61.15
-47.28
-33.04
-19.67
-8.00
1.62
9.48
16.45
23.84
32.87
44.31
58.19
73.77
89.65
103.96
114.59
119.47
117.06
106.80
89.47
67.14
42.69
19.11
-1.12
-16.40
-26.08
-30.27
-29.64
-25.27
-18.63
-11.31
-4.78
-0.04
2.58
3.42
3.22
2.94
3.55
5.82
10.31
17.17
25.95
35.60
44.61
51.46
55.12
55.37
52.87
48.74
43.98
39.08
33.96
28.26
21.82
14.93
8.30
2.76
-1.18
-3.57
-4.97
-6.15
-7.79
-10.11
-12.85
-15.45
-17.33
-18.16
-18.13
-17.82
-18.08
-19.83
-23.73
-30.03
-38.45
-48.10
-57.59
-65.24
-69.51
-69.30
-64.28
-54.94
-42.35
-27.87
-12.70
2.22
16.29
29.10
40.37
49.83
57.30
62.67
65.99
67.44
67.25
65.68
63.03
59.68
56.11
52.76
50.00
47.87
46.17
44.45
42.28
39.40
35.81
31.75
27.43
23.03
18.50
13.72
8.50
2.85
-3.05
-8.88
-14.30
-19.16
-23.60
-28.07
-33.22
-39.65
-47.56
-56.60
-65.76
-73.61
-78.60
-79.48
-75.64
-67.17
-54.76
-39.53
-22.69
-5.39
11.37
26.79
40.23
51.26
59.77
65.85
69.87
72.24
73.35
73.46
72.70
71.21
69.20
66.98
64.96
63.55
62.92
63.01
63.49
63.86
63.69
62.64
60.67
57.86
54.39
50.41
45.96
41.09
35.93
30.74
25.91
21.73
18.27
15.25
12.16
8.42
3.77
-1.69
-7.46
-12.90
-17.59
-21.48
-24.91
-28.37
-32.26
-36.69
-41.60
-46.80
-52.23
-57.82
-63.34
-68.14
-71.13
-71.07
-67.01
-58.75
-46.99
-33.20
-19.08
-6.12
4.81
13.39
19.71
24.01
26.47
27.20
26.36
24.31
21.62
19.02
17.18
16.50
16.94
18.11
19.48
20.62
21.38
21.86
22.28
22.69
22.94
22.62
21.31
18.80
15.28
11.29
7.46
4.20
1.48
-1.15
-4.35
-8.62
-14.04
-20.17
-26.21
-31.44
-35.52
-38.65
-41.46
-44.72
-48.94
-54.14
-59.78
-64.93
-68.54
-69.73
-67.90
-62.84
-54.77
-44.19
-31.92
-18.95
-6.33
4.99
14.27
21.12
25.57
27.98
28.94
29.11
28.94
28.66
28.29
27.72
26.90
25.91
24.97
24.38
24.26
24.51
24.80
24.70
23.95
22.50
20.58
18.50
16.55
14.80
13.07
11.11
8.69
5.74
2.37
-1.25
-4.96
-8.70
-12.47
-16.33
-20.25
-24.23
-28.30
-32.70
-37.82
-44.14
-51.95
-61.05
-70.59
-79.15
-85.12
-87.12
-84.54
-77.66
-67.56
-55.69
-43.41
-31.71
-21.05
-11.58
-3.29
3.75
9.42
13.68
16.58
18.34
19.28
19.66
19.61
19.18
18.42
17.56
17.05
17.43
19.17
22.37
26.72
31.50
35.84
39.04
40.75
41.11
40.57
39.65
38.68
37.66
36.31
34.26
31.30
27.42
22.84
17.76
12.26
6.14
-0.90
-9.13
-18.50
-28.48
-38.12
-46.13
-51.29
-52.74
-50.27
-44.30
-35.80
-25.88
-15.53
-5.52
3.65
11.58
17.94
22.47
25.09
25.96
25.52
24.32
22.80
21.20
19.50
17.60
15.48
13.28
11.29
9.74
8.72
8.04
7.37
6.29
4.54
2.09
-0.92
-4.23
-7.63
-11.03
-14.47
-17.98
-21.54
-25.08
-28.53
-31.90
-35.41
-39.33
-43.87
-48.90
-53.75
-57.35
-58.50
-56.31
-50.57
-41.87
-31.40
-20.56
-10.53
-1.95
5.01
10.54
14.83
17.92
19.67
19.99
18.96
16.96
14.54
12.27
10.42
9.00
7.68
6.17
4.30
2.13
-0.16
-2.46
-4.85
-7.56
-10.85
-14.78
-19.15
-23.56
-27.59
-31.11
-34.30
-37.71
-41.97
-47.40
-53.83
-60.39
-65.86
-68.88
-68.45
-64.28
-56.82
-47.05
-36.15
-25.18
-14.91
-5.83
1.68
7.26
10.59
11.54
10.32
7.44
3.48
-1.08
-6.19
-12.03
-18.80
-26.35
-33.88
-40.13
-43.68
-43.62
-39.88
-33.36
-25.73
-18.94
-14.68
-14.10
-17.55
-24.59
-34.15
-44.69
-54.43
-61.64
-65.00
-63.94
-58.80
-50.55
-40.37
-29.09
-16.93
-3.64
11.11
27.13
43.54
58.95
72.02
81.95
88.65
92.46
93.70
92.29
87.90
80.35
70.12
58.44
46.95
37.16
29.89
25.22
22.69
21.81
22.34
24.20
27.31
31.39
35.93
40.34
44.21
47.27
49.26
49.82
48.43
44.65
38.38
30.04
20.52
10.87
2.06
-5.23
-10.54
-13.51
-13.74
-10.93
-5.12
3.13
12.62
21.87
29.45
34.54
37.14
37.89
37.72
37.33
36.92
36.18
34.61
31.88
28.06
23.63
19.25
15.48
12.53
10.19
8.04
5.64
2.81
-0.33
-3.44
-6.22
-8.55
-10.62
-12.82
-15.49
-18.78
-22.54
-26.51
-30.52
-34.66
-39.27
-44.60
-50.56
-56.44
-61.03
-63.01
-61.41
-55.98
-47.34
-36.72
-25.54
-14.96
-5.62
2.31
8.93
14.29
18.22
20.36
20.36
18.23
14.42
9.84
5.58
2.43
0.66
-0.02
-0.26
-0.71
-1.69
-3.19
-4.98
-6.91
-9.02
-11.54
-14.67
-18.42
-22.53
-26.64
-30.55
-34.41
-38.71
-43.98
-50.41
-57.42
-63.69
-67.44
-67.08
-61.86
-52.17
-39.40
-25.42
-11.90
0.10
10.27
18.71
25.61
30.86
34.21
35.38
34.37
31.56
27.62
23.32
19.21
15.55
12.31
9.37
6.61
3.99
1.54
-0.78
-3.15
-5.95
-9.54
-14.19
-19.86
-26.19
-32.71
-39.03
-45.14
-51.47
-58.64
-67.04
-76.41
-85.63
-92.94
-96.44
-94.68
-87.23
-74.70
-58.38
-39.82
-20.30
-0.74
18.25
36.13
52.38
66.51
78.21
87.55
94.84
100.48
104.78
107.71
108.98
108.20
105.12
99.80
92.59
84.07
74.78
64.96
54.58
43.29
30.77
17.07
2.66
-11.60
-24.72
-36.12
-45.78
-54.30
-62.52
-71.06
-79.88
-88.23
-94.81
-98.29
-97.74
-92.86
-84.04
-72.05
-57.83
-42.31
-26.36
-10.85
3.40
15.60
25.27
32.31
37.05
40.09
42.12
43.64
44.91
45.91
46.52
46.69
46.49
46.15
45.94
45.98
46.13
46.03
45.16
43.14
39.83
35.41
30.29
24.87
19.43
14.04
8.65
3.24
-2.14
-7.39
-12.52
-17.78
-23.58
-30.28
-37.80
-45.38
-51.63
-54.88
-53.80
-47.87
-37.59
-24.25
-9.42
5.59
19.95
33.29
45.38
55.82
63.96
69.10
70.82
69.33
65.44
60.34
55.21
50.75
47.11
43.95
40.85
37.60
34.35
31.52
29.44
28.08
26.95
25.18
22.04
17.19
10.93
3.98
-2.72
-8.59
-13.52
-17.89
-22.23
-26.94
-32.14
-37.68
-43.37
-48.99
-54.37
-59.11
-62.39
-63.07
-59.95
-52.29
-40.26
-24.98
-8.25
8.05
22.46
34.21
43.05
49.05
52.26
52.70
50.51
46.16
40.50
34.61
29.53
25.81
23.52
22.18
21.10
19.68
17.64
15.10
12.35
9.72
7.20
4.58
1.39
-2.76
-7.98
-13.99
-20.22
-26.10
-31.34
-36.15
-41.17
-47.20
-54.68
-63.34
-72.02
-78.98
-82.38
-81.00
-74.59
-63.97
-50.52
-35.68
-20.53
-5.63
8.72
22.21
34.27
44.16
51.25
55.36
56.84
56.50
55.19
53.49
51.59
49.30
46.43
42.98
39.33
36.06
33.71
32.41
31.81
31.13
29.57
26.56
22.06
16.47
10.39
4.28
-1.65
-7.52
-13.48
-19.68
-26.14
-32.93
-40.19
-48.14
-56.81
-65.76
-73.90
-79.61
-81.25
-77.74
-68.99
-56.04
-40.62
-24.61
-9.41
4.26
16.32
26.92
36.10
43.64
49.10
52.09
52.54
50.82
47.58
43.52
39.23
34.94
30.65
26.29
21.96
17.96
14.76
12.78
12.10
12.36
12.83
12.73
11.52
9.25
6.45
3.97
2.45
1.99
2.08
1.74
0.03
-3.65
-9.36
-16.59
-24.46
-31.94
-37.89
-41.27
-41.16
-36.96
-28.65
-16.82
-2.70
12.13
26.08
37.94
47.06
53.35
57.12
58.85
59.03
57.98
55.97
53.18
49.87
46.32
42.85
39.75
37.22
35.37
34.16
33.43
32.95
32.46
31.71
30.43
28.44
25.60
21.82
17.12
11.76
6.12
0.66
-4.27
-8.66
-12.89
-17.63
-23.57
-30.91
-39.17
-47.10
-53.04
-55.42
-53.41
-47.17
-37.77
-26.73
-15.50
-5.06
4.16
12.01
18.33
22.86
25.21
25.24
23.25
20.02
16.51
13.53
11.42
10.01
8.90
7.72
6.42
5.15
4.10
3.26
2.26
0.55
-2.38
-6.64
-11.89
-17.41
-22.45
-26.55
-29.73
-32.52
-35.72
-40.01
-45.66
-52.35
-59.16
-64.88
-68.29
-68.44
-64.91
-57.69
-47.27
-34.51
-20.53
-6.53
6.23
16.76
24.34
28.81
30.47
30.03
28.37
26.23
24.08
22.00
19.78
17.22
14.31
11.34
8.77
6.96
5.91
5.18
4.07
1.98
-1.30
-5.53
-10.15
-14.65
-18.79
-22.68
-26.64
-30.95
-35.73
-40.99
-46.71
-52.82
-59.15
-65.16
-69.86
-71.91
-70.00
-63.38
-52.23
-37.75
-21.89
-6.80
5.73
14.73
20.21
22.90
23.91
24.21
24.37
24.42
24.05
22.96
21.08
18.67
16.20
14.13
12.65
11.72
11.08
10.48
9.85
9.24
8.70
8.07
6.99
4.98
1.71
-2.82
-8.20
-13.84
-19.24
-24.33
-29.53
-35.48
-42.69
-51.01
-59.44
-66.34
-69.91
-68.83
-62.80
-52.58
-39.73
-26.00
-12.77
-0.88
9.39
17.97
24.76
29.58
32.23
32.74
31.49
29.13
26.43
23.95
21.87
19.91
17.45
13.74
8.36
1.43
-6.17
-13.04
-17.79
-19.66
-18.97
-17.01
-15.47
-15.77
-18.37
-22.55
-26.68
-28.81
-27.29
-21.31
-11.07
2.22
16.49
29.01
36.84
37.51
29.86
14.89
-4.03
-21.78
-32.97
-33.82
-23.52
-4.41
19.08
42.30
61.89
76.38
85.83
90.82
91.72
88.66
81.96
72.62
62.41
53.29
46.61
42.62
40.45
38.71
36.28
32.71
28.38
24.12
20.66
18.20
16.36
14.35
11.43
7.28
2.11
-3.55
-9.08
-14.22
-19.16
-24.39
-30.44
-37.38
-44.57
-50.75
-54.35
-54.08
-49.44
-40.90
-29.71
-17.51
-5.74
4.61
13.04
19.38
23.55
25.44
25.02
22.53
18.52
13.82
9.29
5.50
2.55
0.14
-2.18
-4.70
-7.24
-9.32
-10.25
-9.68
-7.72
-5.06
-2.66
-1.33
-1.52
-3.09
-5.63
-8.78
-12.51
-17.16
-23.13
-30.48
-38.57
-45.95
-50.79
-51.40
-46.84
-37.23
-23.67
-7.77
8.86
24.98
39.81
52.95
64.07
72.89
79.08
82.45
82.99
80.90
76.56
70.42
62.94
54.52
45.52
36.12
26.34
16.05
5.08
-6.86
-20.15
-35.27
-52.73
-72.65
-94.36
-116.17
-135.66
-150.43
-158.99
-161.27
-158.35
-151.82
-142.80
-131.64
-118.20
-102.49
-85.29
-68.08
-52.49
-39.48
-29.03
-20.37
-12.63
-5.47
0.77
5.34
7.68
7.67
5.76
2.64
-0.97
-4.56
-7.78
-10.27
-11.60
-11.27
-8.86
-4.34
1.84
8.80
15.37
20.40
23.17
23.57
22.17
20.01
18.21
17.57
18.21
19.60
20.82
21.04
20.01
18.28
17.18
18.31
23.02
31.78
44.03
58.24
72.33
84.28
92.58
96.35
95.47
90.40
82.09
71.94
61.62
52.82
46.85
44.29
44.76
47.27
50.66
54.22
57.98
62.48
68.34
75.65
83.73
91.21
96.53
98.42
96.15
89.67
79.54
66.86
53.18
40.37
30.25
24.22
22.90
25.96
32.31
40.41
48.69
55.90
61.29
64.50
65.43
63.90
59.60
52.20
41.55
28.02
12.68
-2.97
-17.34
-29.18
-37.91
-43.63
-46.77
-47.89
-47.40
-45.60
-42.86
-39.65
-36.51
-33.90
-32.06
-30.92
-30.18
-29.57
-28.96
-28.65
-29.28
-31.68
-36.45
-43.57
-52.09
-60.30
-66.11
-67.86
-64.78
-57.36
-47.04
-35.65
-24.70
-15.03
-6.85
-0.02
5.51
9.47
11.42
10.95
8.05
3.20
-2.87
-9.38
-15.88
-22.25
-28.71
-35.46
-42.43
-49.09
-54.72
-58.60
-60.46
-60.66
-60.09
-59.91
-61.11
-64.29
-69.69
-77.35
-87.35
-99.75
-114.47
-131.04
-148.30
-164.44
-177.31
-184.80
-185.35
-178.32
-164.07
-143.88
-119.53
-92.75
-64.81
-36.41
-8.01
19.76
45.70
68.11
85.26
96.14
100.94
101.05
98.54
95.36
92.81
91.24
90.42
90.06
90.21
91.47
94.91
101.58
112.18
126.72
144.52
164.32
184.52
203.37
219.10
229.89
233.95
229.81
217.09
197.02
172.57
147.65
125.65
108.07
94.02
80.93
66.35
49.41
31.25
14.16
-0.14
-11.71
-22.32
-34.23
-48.43
-63.95
-78.58
-90.60
-100.13
-109.29
-120.69
-135.53
-152.38
-167.51
-176.71
-177.42
-169.98
-157.33
-143.58
-132.22
-125.00
-121.87
-121.67
-123.01
-124.90
-126.77
-128.17
-128.40
-126.29
-120.31
-109.01
-91.55
-68.23
-40.54
-10.88
18.36
45.43
69.80
91.80
112.12
130.96
147.73
161.29
170.71
175.90
177.85
178.21
178.53
179.41
180.33
180.03
177.40
172.33
165.97
160.17
156.51
155.25
155.10
153.76
149.25
141.09
130.75
121.07
114.89
113.53
116.23
120.44
122.99
121.35
114.38
102.14
85.39
64.87
41.14
14.88
-12.65
-39.51
-63.69
-84.11
-101.26
-117.28
-134.94
-156.26
-181.54
-209.14
-236.35
-260.58
-280.24
-295.13
-306.09
-314.46
-321.45
-327.88
-333.97
-338.95
-341.10
-337.96
-327.20
-307.74
-280.54
-248.67
-216.50
-188.26
-166.71
-152.36
-143.61
-137.38
-130.04
-118.32
-100.00
-74.34
-42.25
-6.12
30.77
65.18
94.80
119.00
138.79
156.07
172.57
188.80
203.68
215.07
220.85
220.07
213.31
202.35
189.08
174.69
159.45
143.24
126.37
109.93
95.30
83.25
73.10
62.74
49.48
31.36
8.01
-19.27
-48.21
-76.45
-102.07
-123.77
-140.63
-151.96
-157.33
-156.78
-150.89
-140.79
-127.94
-113.84
-99.82
-86.74
-74.97
-64.44
-55.01
-46.83
-40.53
-36.96
-36.58
-38.90
-42.18
-43.95
-41.79
-34.27
-21.42
-4.63
13.83
31.42
46.03
56.36
62.04
63.59
61.93
57.87
51.57
42.54
30.04
13.98
-4.50
-23.03
-38.80
-49.66
-54.84
-54.91
-51.03
-44.04
-34.11
-21.05
-5.11
12.48
29.53
43.60
52.94
57.16
57.20
54.68
51.07
47.21
43.23
38.88
34.04
28.79
23.49
18.56
14.30
10.83
8.14
6.12
4.67
3.73
3.23
2.99
2.74
2.14
0.93
-0.79
-2.43
-2.93
-0.98
4.48
13.83
26.58
41.39
56.57
70.54
82.24
91.25
97.54
101.21
102.18
100.34
95.73
88.99
81.39
74.43
69.28
66.14
64.06
61.48
57.16
50.94
43.96
38.05
34.66
34.12
35.43
36.86
36.90
34.87
30.99
25.96
20.40
14.60
8.56
2.50
-2.89
-6.33
-6.28
-1.47
8.58
23.08
39.98
56.33
69.09
76.08
76.59
71.56
63.04
53.34
44.02
35.60
27.54
18.97
9.36
-1.00
-11.10
-19.55
-25.31
-28.12
-28.58
-27.78
-26.81
-26.27
-26.18
-26.23
-26.33
-26.89
-28.75
-32.63
-38.47
-45.04
-50.16
-51.53
-47.65
-38.48
-25.48
-10.99
2.69
13.95
22.20
27.62
30.65
31.59
30.46
27.26
22.21
15.98
9.53
3.72
-0.98
-4.69
-7.95
-11.34
-15.03
-18.74
-21.79
-23.59
-24.01
-23.49
-22.94
-23.35
-25.52
-29.78
-35.85
-42.93
-49.78
-55.02
-57.36
-55.93
-50.43
-41.22
-29.12
-15.30
-1.07
12.25
23.45
31.71
36.81
39.28
40.36
41.51
44.04
48.57
55.01
62.70
70.83
78.62
85.49
90.94
94.51
95.80
94.60
90.95
85.10
77.36
67.91
56.72
43.74
29.15
13.62
-1.66
-15.22
-25.72
-32.37
-35.36
-35.82
-35.63
-36.83
-41.11
-49.38
-61.62
-77.07
-94.61
-113.15
-131.91
-150.59
-169.32
-188.40
-207.85
-226.84
-243.38
-254.52
-257.13
-248.95
-229.46
-199.96
-162.82
-120.52
-75.10
-28.47
16.79
56.99
87.84
105.92
110.40
103.85
91.46
78.91
70.16
66.18
65.37
65.15
63.70
60.83
57.56
55.01
53.35
51.70
48.74
43.76
37.46
31.87
29.44
31.98
39.74
51.30
64.11
75.23
82.13
83.17
77.78
66.32
50.04
30.90
11.27
-6.48
-20.44
-29.63
-34.26
-35.63
-35.71
-36.12
-37.45
-38.96
-38.92
-35.45
-27.48
-15.23
-0.09
16.00
31.45
45.39
57.52
67.58
75.03
79.20
79.80
77.38
73.17
68.99
66.49
66.29
67.45
67.77
64.80
56.77
43.40
25.22
4.13
-17.32
-36.78
-52.90
-65.57
-75.23
-82.66
-88.32
-93.42
-98.51
-103.49
-107.88
-111.11
-112.52
-110.66
-104.15
-91.70
-74.23
-53.09
-29.39
-3.75
23.43
51.46
79.52
105.69
138.11
179.58
228.07
278.40
326.21
369.55
405.08
433.67
454.53
466.29
466.33
453.06
427.19
390.54
345.14
292.62
234.70
172.61
108.16
42.68
-21.56
-81.46
-134.04
-177.55
-212.08
-239.09
-261.33
-281.39
-301.67
-323.08
-345.24
-367.15
-388.17
-408.66
-429.65
-452.95
-480.55
-514.70
-556.95
-607.00
-661.65
-714.35
-756.19
-778.24
-774.79
-745.44
-695.34
-632.87
-566.45
-501.84
-441.31
-384.70
-331.25
-281.00
-234.86
-193.77
-157.70
-125.36
-94.86
-64.81
-34.98
-6.47
18.89
39.45
54.68
65.36
73.33
80.82
89.48
99.88
111.39
122.61
132.09
139.13
144.05
148.18
153.24
160.76
171.34
184.53
199.12
213.61
226.92
238.75
249.60
260.51
272.79
287.68
306.15
328.46
353.67
379.11
400.62
413.41
413.66
400.01
374.18
340.56
304.54
270.89
242.55
220.46
204.23
192.97
185.76
181.70
179.70
178.23
175.57
170.20
161.21
148.66
133.53
117.46
102.13
88.73
77.53
68.00
59.11
49.98
40.23
30.11
20.32
11.55
4.23
-1.67
-6.46
-10.62
-14.64
-19.07
-24.46
-31.27
-39.67
-49.41
-59.69
-69.33
-77.09
-81.85
-82.96
-80.21
-73.92
-64.73
-53.72
-42.22
-31.82
-24.04
-19.90
-19.46
-21.45
-23.37
-22.08
-14.76
0.00
21.64
47.54
73.68
95.74
110.20
115.17
110.82
99.01
82.66
64.73
47.46
31.97
18.38
6.44
-3.92
-12.23
-17.81
-20.20
-19.70
-17.35
-14.40
-11.71
-9.27
-6.42
-2.45
2.78
8.48
13.11
15.09
13.35
7.80
-0.70
-10.69
-20.57
-28.99
-35.18
-39.01
-40.94
-41.87
-42.83
-44.67
-47.78
-51.96
-56.56
-60.76
-63.96
-66.04
-67.33
-68.33
-69.30
-70.03
-69.83
-67.83
-63.45
-56.59
-47.87
-38.16
-28.33
-18.78
-9.39
0.17
10.28
21.06
32.29
43.44
53.73
62.30
68.42
71.64
72.05
70.17
66.86
62.96
59.03
55.33
51.88
48.70
45.89
43.54
41.47
39.11
35.58
30.06
22.27
12.82
3.07
-5.22
-10.55
-12.11
-10.02
-5.18
1.25
8.14
14.75
20.66
25.71
29.64
32.18
33.00
32.01
29.45
25.85
21.89
18.07
14.60
11.43
8.39
5.40
2.52
-0.06
-2.20
-3.97
-5.63
-7.57
-10.00
-12.96
-16.25
-19.59
-22.82
-25.89
-28.86
-31.72
-34.24
-35.92
-36.14
-34.41
-30.50
-24.66
-17.52
-9.94
-2.79
3.30
8.01
11.28
13.21
13.94
13.51
11.98
9.49
6.35
3.01
-0.08
-2.63
-4.66
-6.52
-8.69
-11.52
-14.96
-18.65
-22.03
-24.69
-26.55
-27.92
-29.33
-31.24
-33.80
-36.74
-39.46
-41.19
-41.29
-39.38
-35.36
-29.52
-22.35
-14.49
-6.55
0.89
7.38
12.54
16.15
18.18
18.85
18.55
17.74
16.75
15.69
14.57
13.31
11.95
10.67
9.72
9.29
9.37
9.71
9.94
9.70
8.74
6.93
4.26
0.70
-3.76
-9.06
-14.99
-20.98
-26.18
-29.64
-30.70
-29.21
-25.71
-21.13
-16.49
-12.42
-9.10
-6.29
-3.68
-1.12
1.26
3.11
4.09
3.94
2.59
0.04
-3.70
-8.62
-14.70
-21.70
-29.14
-36.28
-42.34
-46.71
-49.23
-50.16
-50.18
-49.94
-49.79
-49.60
-48.68
-46.13
-41.05
-32.86
-21.35
-6.56
11.28
31.83
54.52
78.24
101.30
121.57
137.00
146.23
149.00
146.13
139.19
129.87
119.68
109.74
100.81
93.41
87.74
83.64
80.52
77.59
74.03
69.33
63.33
56.06
47.64
38.06
27.28
15.33
2.52
-10.52
-22.82
-33.36
-41.16
-45.55
-46.29
-43.64
-38.39
-31.73
-25.16
-20.10
-17.72
-18.52
-22.25
-27.92
-34.01
-39.02
-41.94
-42.67
-41.89
-40.83
-40.71
-42.22
-45.46
-50.01
-55.19
-60.32
-64.82
-68.19
-70.09
-70.34
-69.10
-66.89
-64.48
-62.59
-61.49
-60.87
-59.89
-57.60
-53.29
-46.84
-38.83
-30.31
-22.47
-16.18
-11.74
-8.87
-6.88
-5.07
-2.98
-0.64
1.59
3.13
3.46
2.25
-0.60
-4.94
-10.47
-16.72
-23.13
-29.10
-34.13
-38.05
-41.06
-43.85
-47.37
-52.58
-60.07
-69.67
-80.30
-90.18
-97.29
-99.98
-97.59
-90.51
-80.01
-67.56
-54.35
-40.98
-27.55
-14.03
-0.50
12.65
24.78
35.23
43.40
48.93
51.72
51.96
50.20
47.22
43.91
41.02
38.90
37.49
36.43
35.21
33.45
30.89
27.43
23.03
17.71
11.62
5.16
-0.99
-5.93
-8.77
-8.87
-6.14
-0.97
5.84
13.37
20.85
27.74
33.77
38.84
42.94
46.07
48.31
49.73
50.47
50.61
50.30
49.72
49.08
48.63
48.49
48.50
48.18
46.85
43.88
39.11
32.98
26.41
20.48
15.98
13.21
11.93
11.65
11.95
12.61
13.51
14.48
15.14
15.00
13.72
11.43
8.73
6.56
5.78
6.74
9.13
12.05
14.35
15.14
13.95
10.86
6.30
0.77
-5.33
-11.74
-18.22
-24.49
-30.14
-34.72
-37.99
-39.94
-40.89
-41.34
-41.84
-42.81
-44.42
-46.67
-49.39
-52.40
-55.54
-58.75
-61.94
-64.93
-67.41
-68.94
-69.07
-67.43
-63.78
-58.05
-50.37
-41.16
-31.20
-21.74
-14.24
-9.98
-9.47
-12.11
-16.11
-19.06
-18.46
-12.52
-0.60
16.44
36.15
54.81
68.10
72.27
65.64
49.53
28.50
9.00
-2.78
-3.26
7.30
25.18
44.73
60.63
69.47
70.35
64.52
54.40
42.66
31.54
22.57
16.40
13.02
12.05
13.21
16.64
22.89
32.50
45.31
60.08
74.39
85.37
90.51
88.48
79.55
65.41
48.60
31.71
16.69
4.52
-4.75
-11.68
-16.91
-20.84
-23.55
-24.97
-25.27
-25.08
-25.47
-27.57
-32.16
-39.21
-47.78
-56.26
-62.92
-66.46
-66.41
-63.13
-57.43
-50.18
-41.93
-32.94
-23.34
-13.49
-4.12
3.74
9.17
11.70
11.54
9.42
6.39
3.46
1.34
0.31
0.21
0.60
0.96
0.92
0.34
-0.59
-1.59
-2.46
-3.27
-4.26
-5.69
-7.60
-9.77
-11.88
-13.85
-15.98
-18.85
-22.94
-28.14
-33.63
-38.02
-39.86
-38.22
-33.01
-25.00
-15.48
-5.86
2.74
9.62
14.55
17.62
19.21
19.77
19.81
19.74
19.77
19.85
19.68
18.78
16.70
13.31
9.00
4.73
1.75
1.20
3.54
8.38
14.52
20.33
24.36
25.74
24.37
20.69
15.39
8.96
1.62
-6.59
-15.51
-24.67
-33.24
-40.24
-44.83
-46.59
-45.57
-42.12
-36.64
-29.44
-20.74
-10.93
-0.66
9.04
17.04
22.47
24.98
24.90
23.05
20.42
17.85
15.85
14.66
14.40
15.29
17.70
21.86
27.59
34.00
39.49
42.18
40.60
34.36
24.37
12.60
1.31
-7.76
-13.99
-17.90
-20.69
-23.70
-27.82
-33.35
-40.01
-47.08
-53.48
-57.78
-58.46
-54.20
-44.43
-29.77
-12.07
5.91
21.28
31.78
36.35
35.35
30.22
22.95
15.40
8.84
3.71
-0.25
-3.67
-7.06
-10.58
-14.05
-17.09
-19.52
-21.44
-23.18
-24.99
-26.87
-28.51
-29.54
-29.83
-29.64
-29.49
-29.83
-30.75
-31.75
-31.97
-30.64
-27.51
-23.17
-18.81
-15.71
-14.54
-14.94
-15.56
-14.53
-10.21
-1.78
10.48
25.47
41.59
57.16
70.65
80.65
85.96
85.80
80.09
69.64
56.14
41.84
28.90
18.94
12.64
9.70
9.00
9.05
8.47
6.37
2.54
-2.66
-8.46
-14.02
-18.54
-21.39
-22.07
-20.29
-16.16
-10.46
-4.71
-1.02
-1.46
-7.25
-18.23
-32.58
-47.45
-59.81
-67.45
-69.47
-66.18
-58.63
-47.94
-35.02
-20.60
-5.49
9.27
22.46
33.13
40.95
46.23
49.82
52.57
54.97
57.05
58.52
59.00
58.30
56.51
53.92
50.92
47.83
44.76
41.64
38.22
34.28
29.81
24.95
20.03
15.36
11.05
6.92
2.59
-2.37
-8.19
-14.79
-21.86
-29.01
-35.99
-42.85
-49.80
-57.00
-64.27
-71.00
-76.20
-78.80
-78.11
-73.96
-66.85
-57.63
-47.24
-36.41
-25.60
-15.14
-5.36
3.31
10.41
15.61
18.88
20.50
21.00
20.97
20.88
20.99
21.32
21.77
22.20
22.57
22.96
23.54
24.53
25.96
27.67
29.25
30.19
30.15
29.04
27.14
24.95
23.00
21.65
20.93
20.55
19.97
18.61
16.08
12.28
7.45
2.08
-3.33
-8.39
-13.00
-17.28
-21.42
-25.58
-29.75
-33.65
-36.85
-38.76
-38.77
-36.40
-31.41
-23.86
-14.23
-3.29
7.99
18.61
27.68
34.58
38.99
40.88
40.54
38.47
35.33
31.86
28.72
26.37
25.03
24.56
24.56
24.53
24.01
22.85
21.21
19.45
17.92
16.68
15.49
13.89
11.42
7.93
3.64
-0.90
-5.01
-8.10
-9.95
-10.69
-10.85
-11.11
-12.19
-14.57
-18.44
-23.56
-29.41
-35.26
-40.20
-43.38
-44.07
-41.81
-36.52
-28.62
-18.94
-8.55
1.52
10.48
17.96
23.89
28.45
31.82
34.18
35.64
36.37
36.56
36.44
36.15
35.70
34.85
33.29
30.71
27.10
22.82
18.48
14.68
11.71
9.30
6.77
3.29
-1.62
-7.87
-14.83
-21.66
-27.70
-32.88
-37.64
-42.71
-48.63
-55.51
-62.88
-69.92
-75.70
-79.49
-80.88
-79.73
-76.04
-69.73
-60.63
-48.45
-32.98
-14.24
7.37
30.92
55.06
78.03
97.86
112.70
121.16
122.67
117.69
107.63
94.53
80.57
67.62
56.93
49.07
43.98
41.13
39.68
38.74
37.52
35.57
32.85
29.63
26.30
23.01
19.63
15.84
11.32
6.08
0.41
-5.29
-10.75
-15.95
-21.10
-26.39
-31.83
-37.34
-42.83
-48.51
-54.89
-62.49
-71.40
-80.93
-89.64
-95.71
-97.60
-94.68
-87.35
-76.81
-64.46
-51.31
-37.78
-23.97
-10.00
3.53
15.60
25.10
31.35
34.39
34.99
34.22
32.98
31.74
30.55
29.24
27.77
26.38
25.42
25.16
25.55
26.15
26.30
25.42
23.16
19.63
15.31
10.84
6.89
3.84
1.74
0.31
-0.92
-2.43
-4.45
-6.97
-9.74
-12.39
-14.65
-16.50
-18.10
-19.79
-21.91
-24.66
-28.01
-31.75
-35.43
-38.45
-40.16
-39.92
-37.27
-32.04
-24.49
-15.25
-5.29
4.40
12.99
19.98
25.22
28.78
30.83
31.56
31.16
29.88
28.05
26.06
24.25
22.84
21.88
21.30
20.91
20.51
19.89
18.86
17.32
15.25
12.74
9.91
6.87
3.59
-0.03
-4.03
-8.43
-13.02
-17.57
-21.91
-26.10
-30.45
-35.39
-41.17
-47.65
-54.29
-60.18
-64.36
-66.09
-64.98
-61.03
-54.53
-45.99
-35.94
-25.03
-13.90
-3.27
6.25
14.17
20.27
24.60
27.39
28.92
29.46
29.17
28.18
26.66
24.90
23.26
22.10
21.64
21.87
22.47
22.91
22.61
21.10
18.16
13.91
8.66
2.80
-3.33
-9.54
-15.72
-21.75
-27.49
-32.80
-37.69
-42.41
-47.31
-52.69
-58.45
-63.88
-67.79
-68.83
-65.94
-58.90
-48.28
-35.37
-21.64
-8.32
3.84
14.62
24.07
32.24
39.01
44.12
47.38
48.85
48.85
47.92
46.57
45.09
43.54
41.83
39.86
37.68
35.48
33.47
31.78
30.32
28.86
27.06
24.63
21.44
17.56
13.24
8.83
4.60
0.60
-3.28
-7.29
-11.64
-16.40
-21.47
-26.64
-31.59
-35.89
-38.85
-39.52
-36.83
-29.97
-18.81
-4.08
12.76
29.92
45.88
59.72
71.21
80.56
88.16
94.34
99.22
102.78
104.98
105.80
105.31
103.63
100.78
96.63
90.83
82.87
72.48
59.89
46.03
32.33
20.40
11.34
5.45
2.17
0.50
-0.55
-1.59
-2.83
-4.34
-6.21
-8.68
-12.04
-16.36
-21.37
-26.54
-31.40
-35.78
-40.02
-44.81
-50.86
-58.51
-67.45
-76.66
-84.73
-90.31
-92.64
-91.76
-88.43
-83.78
-78.79
-74.00
-69.51
-65.18
-60.96
-57.15
-54.32
-53.00
-53.44
-55.30
-57.81
-60.11
-61.46
-61.57
-60.50
-58.53
-55.95
-53.03
-49.94
-46.88
-44.10
-41.92
-40.58
-40.19
-40.62
-41.46
-42.18
-42.29
-41.48
-39.78
-37.50
-35.10
-33.00
-31.41
-30.31
-29.43
-28.39
-26.78
-24.25
-20.55
-15.62
-9.62
-2.91
4.06
10.96
17.70
24.36
31.20
38.36
45.81
53.35
60.72
67.63
73.81
79.06
83.17
86.09
87.90
88.86
89.28
89.37
89.09
88.18
86.27
83.03
78.33
72.16
64.67
56.04
46.53
36.50
26.47
16.92
8.08
-0.19
-8.40
-17.16
-26.73
-36.69
-45.87
-52.62
-55.41
-53.44
-46.88
-36.86
-25.09
-13.23
-2.48
6.57
13.89
19.73
24.37
27.96
30.48
31.87
32.10
31.33
29.84
28.02
26.15
24.37
22.66
20.91
19.08
17.27
15.64
14.24
12.90
11.24
8.84
5.46
1.27
-3.26
-7.58
-11.32
-14.51
-17.66
-21.45
-26.44
-32.72
-39.72
-46.28
-51.00
-52.63
-50.53
-44.76
-36.03
-25.35
-13.79
-2.31
8.35
17.58
24.90
30.09
33.20
34.63
34.99
34.92
34.90
35.06
35.23
35.06
34.21
32.54
30.08
26.99
23.44
19.49
15.11
10.20
4.75
-1.10
-7.07
-12.83
-18.17
-23.00
-27.45
-31.72
-36.05
-40.61
-45.46
-50.59
-55.86
-60.99
-65.59
-69.16
-71.19
-71.23
-68.82
-63.40
-54.22
-40.44
-21.54
2.22
29.33
56.91
81.21
98.44
105.88
102.65
89.97
70.67
48.41
26.64
7.96
-6.11
-14.98
-18.70
-17.77
-13.06
-5.93
1.87
8.38
11.98
11.90
8.39
2.66
-3.63
-8.80
-11.55
-11.13
-7.41
-0.95
7.00
14.55
19.66
20.83
17.81
11.82
5.21
0.56
-0.40
2.57
8.32
15.00
20.93
25.27
27.99
29.51
30.19
30.01
28.63
25.85
21.92
17.72
14.42
12.94
13.44
15.16
16.63
16.36
13.42
7.90
0.80
-6.45
-12.50
-16.55
-18.37
-18.19
-16.54
-14.17
-12.09
-11.59
-13.94
-19.94
-29.48
-41.28
-53.20
-62.85
-68.36
-68.94
-64.92
-57.48
-48.04
-37.89
-27.88
-18.56
-10.27
-3.29
2.17
6.04
8.42
9.56
9.68
8.94
7.37
4.98
1.98
-1.19
-3.74
-4.70
-3.03
2.17
11.39
24.34
39.70
55.14
67.70
74.64
74.24
66.46
52.92
36.27
19.28
4.02
-8.47
-17.88
-24.15
-27.12
-26.49
-22.14
-14.50
-4.66
5.91
15.84
24.30
31.18
36.82
41.67
45.88
49.23
51.32
51.70
50.02
46.05
39.70
31.12
20.83
9.85
-0.48
-8.92
-14.71
-17.89
-19.15
-19.42
-19.39
-19.35
-19.21
-18.89
-18.45
-18.21
-18.57
-19.87
-22.29
-25.87
-30.53
-35.98
-41.69
-46.73
-50.05
-50.67
-48.14
-42.66
-35.01
-26.20
-17.17
-8.57
-0.79
5.92
11.28
15.01
16.97
17.26
16.30
14.70
13.03
11.60
10.43
9.38
8.28
7.15
6.16
5.56
5.44
5.65
5.81
5.55
4.69
3.42
2.07
0.95
0.15
-0.62
-1.83
-3.99
-7.37
-11.97
-17.51
-23.50
-29.39
-34.50
-38.19
-39.88
-39.13
-35.74
-29.91
-22.13
-13.17
-3.98
4.47
11.43
16.43
19.40
20.51
20.13
18.61
16.20
13.09
9.49
5.72
2.28
-0.33
-1.72
-1.82
-0.95
0.27
1.13
1.12
0.06
-1.87
-4.24
-6.65
-8.85
-10.84
-12.78
-14.85
-17.13
-19.70
-22.65
-26.09
-30.14
-34.68
-39.24
-42.97
-44.85
-44.00
-40.01
-33.12
-24.15
-14.25
-4.48
4.41
12.09
18.57
23.92
28.11
30.90
32.01
31.25
28.75
24.93
20.37
15.64
11.17
7.22
3.92
1.40
-0.29
-1.13
-1.26
-1.05
-0.99
-1.60
-3.24
-6.06
-9.83
-14.14
-18.41
-22.18
-25.32
-28.06
-30.91
-34.22
-37.97
-41.54
-43.92
-44.13
-41.68
-36.84
-30.51
-23.79
-17.49
-11.83
-6.50
-1.02
4.84
10.87
16.39
20.66
23.14
23.72
22.65
20.36
17.30
13.87
10.42
7.37
5.24
4.48
5.43
8.08
11.98
16.25
19.70
21.22
20.20
17.06
13.29
11.13
12.85
19.71
31.40
45.86
59.87
69.90
73.12
67.97
54.47
34.15
9.71
-15.40
-37.75
-54.47
-63.96
-66.23
-62.71
-55.77
-47.89
-41.09
-36.44
-34.11
-33.60
-34.11
-34.83
-35.09
-34.44
-32.68
-29.91
-26.48
-22.95
-19.88
-17.61
-16.10
-14.98
-13.67
-11.66
-8.71
-4.88
-0.47
4.25
9.13
14.33
20.26
27.38
36.00
45.92
56.15
64.92
70.00
69.43
62.22
48.88
31.40
12.69
-4.31
-17.38
-25.44
-28.53
-27.49
-23.51
-17.83
-11.53
-5.44
-0.11
4.20
7.47
9.78
11.23
11.81
11.48
10.21
8.10
5.33
2.27
-0.64
-2.87
-3.96
-3.66
-2.09
0.15
2.16
3.01
2.21
0.10
-2.25
-3.36
-1.95
2.36
8.81
15.48
19.88
19.66
13.37
0.90
-16.37
-35.98
-54.98
-70.70
-81.26
-85.83
-84.46
-77.80
-66.92
-53.07
-37.77
-22.73
-9.65
0.10
5.92
8.16
8.01
7.07
6.98
9.02
14.07
22.51
34.16
48.06
62.33
74.44
81.82
82.67
76.72
65.34
51.05
36.56
24.01
14.57
8.61
6.08
6.68
9.78
14.13
17.72
18.25
13.81
3.87
-10.31
-25.91
-39.53
-48.38
-51.23
-48.68
-42.66
-35.45
-28.71
-23.02
-18.00
-12.92
-7.33
-1.54
3.52
6.74
7.39
5.38
1.42
-3.25
-7.09
-8.52
-6.30
0.25
10.93
24.55
39.04
51.77
60.21
62.47
57.89
47.19
32.27
15.66
-0.32
-14.20
-25.64
-35.26
-44.03
-52.48
-60.29
-66.41
-69.56
-68.95
-64.72
-57.85
-49.70
-41.49
-33.76
-26.40
-18.80
-10.32
-0.66
9.89
20.52
30.03
37.26
41.39
42.06
39.50
34.35
27.50
19.89
12.40
5.75
0.39
-3.55
-6.29
-8.38
-10.49
-13.19
-16.76
-21.13
-25.98
-30.83
-35.26
-38.94
-41.67
-43.37
-44.07
-43.87
-43.03
-41.88
-40.79
-40.01
-39.48
-38.67
-36.67
-32.33
-24.60
-13.03
1.99
19.15
36.42
51.52
62.53
68.40
69.22
66.17
61.21
56.52
53.90
54.33
57.74
63.03
68.42
71.84
71.58
66.71
57.40
44.89
31.05
17.77
6.37
-2.63
-9.49
-14.86
-19.42
-23.61
-27.63
-31.62
-35.70
-39.99
-44.62
-49.56
-54.58
-59.11
-62.29
-62.91
-59.74
-51.97
-39.65
-24.04
-7.40
7.55
18.53
24.28
24.90
21.56
15.88
9.37
3.05
-2.50
-6.99
-10.26
-12.18
-12.70
-12.07
-10.74
-9.28
-8.13
-7.42
-6.88
-6.10
-4.81
-3.08
-1.47
-0.78
-1.81
-4.93
-10.00
-16.34
-23.01
-29.17
-34.24
-38.07
-40.71
-42.34
-43.01
-42.52
-40.46
-36.10
-28.64
-17.31
-1.61
18.40
41.95
67.46
92.72
115.16
132.33
142.30
144.08
137.86
125.11
108.25
90.02
72.60
57.06
43.22
30.17
17.13
4.09
-8.04
-17.83
-24.16
-26.73
-26.10
-23.28
-19.23
-14.52
-9.46
-4.43
-0.17
2.41
2.48
-0.18
-5.01
-10.80
-16.10
-19.82
-21.53
-21.61
-21.03
-20.89
-21.98
-24.36
-27.34
-29.56
-29.64
-26.70
-20.74
-12.85
-4.82
1.47
4.65
4.33
1.06
-4.03
-9.56
-14.29
-17.23
-17.63
-15.06
-9.50
-1.44
8.15
18.02
26.92
33.92
38.50
40.50
39.99
37.20
32.54
26.65
20.41
14.69
10.14
6.97
4.92
3.37
1.65
-0.68
-3.69
-7.14
-10.62
-13.81
-16.57
-18.98
-21.17
-23.19
-24.94
-26.18
-26.73
-26.65
-26.35
-26.45
-27.55
-29.98
-33.68
-38.17
-42.82
-47.09
-50.67
-53.59
-56.02
-58.05
-59.41
-59.44
-57.32
-52.40
-44.61
-34.51
-23.11
-11.48
-0.31
10.17
20.11
29.65
38.65
46.70
53.33
58.32
61.80
64.15
65.78
66.83
67.13
66.35
64.27
61.02
57.09
53.25
50.17
48.22
47.29
46.87
46.30
45.04
42.90
40.03
36.84
33.68
30.70
27.72
24.41
20.50
15.92
10.91
5.87
1.22
-2.87
-6.49
-9.96
-13.66
-17.91
-22.87
-28.46
-34.49
-40.67
-46.59
-51.71
-55.36
-56.86
-55.67
-51.70
-45.33
-37.39
-28.89
-20.62
-12.99
-5.95
0.68
6.96
12.63
17.15
19.97
20.91
20.29
18.90
17.61
17.05
17.35
18.18
18.95
19.17
18.67
17.58
16.22
14.81
13.39
11.87
10.15
8.32
6.65
5.37
4.49
3.72
2.50
0.33
-2.90
-6.85
-10.82
-14.12
-16.44
-17.95
-19.23
-20.93
-23.51
-27.03
-31.30
-36.00
-40.80
-45.38
-49.30
-51.99
-52.83
-51.27
-47.13
-40.68
-32.61
-23.88
-15.36
-7.63
-0.88
5.03
10.40
15.44
20.13
24.17
27.15
28.76
28.98
28.13
26.78
25.50
24.67
24.39
24.46
24.55
24.32
23.59
22.40
20.98
19.61
18.45
17.40
16.16
14.28
11.40
7.52
2.94
-1.72
-5.69
-8.24
-8.81
-7.16
-3.47
1.55
6.87
11.31
13.92
14.19
12.07
7.84
1.89
-5.35
-13.49
-22.01
-30.21
-37.26
-42.34
-44.86
-44.55
-41.54
-36.28
-29.43
-21.80
-14.13
-6.97
-0.55
5.11
10.12
14.45
17.83
19.74
19.73
17.65
13.88
9.24
4.78
1.47
-0.16
-0.13
0.97
2.25
2.84
2.17
0.23
-2.46
-4.90
-6.10
-5.34
-2.55
1.68
6.24
9.95
11.74
11.08
7.92
2.64
-4.00
-11.07
-17.67
-23.15
-27.30
-30.41
-33.04
-35.74
-38.76
-41.83
-44.17
-44.86
-43.12
-38.45
-30.84
-20.71
-8.90
3.45
15.03
24.70
31.69
35.86
37.62
37.66
36.69
35.14
33.11
30.59
27.57
24.20
20.75
17.49
14.60
12.16
10.15
8.56
7.36
6.43
5.57
4.44
2.74
0.28
-2.89
-6.48
-10.17
-13.66
-16.88
-19.92
-23.02
-26.41
-30.23
-34.49
-39.05
-43.60
-47.69
-50.76
-52.25
-51.77
-49.23
-44.84
-39.00
-32.22
-25.00
-17.81
-11.07
-5.08
-0.09
3.77
6.45
7.96
8.40
8.10
7.73
8.25
10.68
15.60
22.80
31.29
39.61
46.37
50.80
52.79
52.70
50.96
47.89
43.62
38.29
32.23
25.90
19.78
14.17
9.11
4.50
0.24
-3.72
-7.31
-10.49
-13.27
-15.72
-18.02
-20.44
-23.24
-26.57
-30.24
-33.70
-36.09
-36.52
-34.43
-29.87
-23.50
-16.35
-9.42
-3.37
1.67
5.93
9.76
13.41
16.89
19.97
22.39
23.93
24.52
24.29
23.54
22.57
21.65
20.87
20.20
19.57
18.88
18.16
17.46
16.84
16.23
15.45
14.20
12.22
9.44
6.01
2.26
-1.40
-4.68
-7.51
-10.02
-12.45
-14.99
-17.72
-20.62
-23.69
-26.91
-30.20
-33.36
-35.97
-37.44
-37.23
-35.10
-31.19
-26.02
-20.25
-14.44
-8.87
-3.61
1.40
6.09
10.20
13.31
15.00
15.15
13.95
11.94
9.80
8.12
7.21
7.00
7.20
7.47
7.59
7.54
7.41
7.29
7.11
6.64
5.59
3.74
1.06
-2.24
-5.82
-9.32
-12.50
-15.31
-17.84
-20.31
-22.96
-26.00
-29.56
-33.65
-38.04
-42.25
-45.61
-47.39
-46.98
-44.11
-38.93
-31.96
-23.94
-15.68
-7.84
-0.87
5.09
10.11
14.37
18.06
21.20
23.75
25.53
26.43
26.49
25.93
25.13
24.40
23.94
23.69
23.51
23.22
22.76
22.15
21.47
20.71
19.75
18.36
16.26
13.33
9.59
5.28
0.71
-3.82
-8.05
-11.91
-15.46
-18.90
-22.50
-26.55
-31.28
-36.72
-42.71
-48.80
-54.15
-57.83
-58.89
-56.75
-51.36
-43.28
-33.54
-23.34
-13.62
-4.91
2.76
9.64
15.97
21.83
27.03
31.27
34.34
36.16
36.86
36.70
35.86
34.49
32.70
30.71
28.92
27.83
27.89
29.20
31.46
33.96
35.82
36.35
35.26
32.78
29.48
26.00
22.81
19.98
17.30
14.41
11.01
7.07
2.78
-1.48
-5.44
-8.95
-12.14
-15.26
-18.59
-22.36
-26.72
-31.75
-37.34
-43.21
-48.76
-53.15
-55.48
-55.03
-51.45
-44.96
-36.25
-26.26
-15.96
-6.10
2.87
10.79
17.66
23.56
28.45
32.22
34.71
35.91
36.03
35.50
34.80
34.32
34.20
34.32
34.46
34.52
34.52
34.60
34.86
35.21
35.31
34.75
33.22
30.69
27.47
24.03
20.79
17.97
15.45
12.93
10.03
6.60
2.73
-1.32
-5.18
-8.66
-11.75
-14.65
-17.53
-20.52
-23.67
-27.02
-30.68
-34.75
-39.25
-43.93
-48.25
-51.41
-52.63
-51.29
-47.19
-40.56
-31.90
-21.94
-11.41
-1.02
8.61
16.95
23.64
28.46
31.35
32.42
31.92
30.33
28.24
26.27
24.94
24.48
24.78
25.46
26.10
26.37
26.23
25.79
25.24
24.59
23.71
22.35
20.38
17.90
15.18
12.46
9.85
7.17
4.07
0.23
-4.43
-9.69
-15.09
-20.10
-24.36
-27.75
-30.45
-32.85
-35.49
-38.94
-43.59
-49.50
-56.30
-63.14
-68.90
-72.33
-72.50
-68.99
-62.01
-52.26
-40.70
-28.39
-16.19
-4.78
5.40
14.19
21.58
27.70
32.70
36.68
39.63
41.48
42.23
42.00
41.07
39.82
38.61
37.63
36.91
36.35
35.84
35.29
34.68
34.00
33.19
32.07
30.44
28.09
25.00
21.34
17.38
13.41
9.53
5.62
1.39
-3.44
-8.95
-14.93
-20.96
-26.62
-31.65
-36.05
-40.03
-43.85
-47.67
-51.53
-55.32
-58.84
-61.78
-63.75
-64.23
-62.64
-58.48
-51.55
-41.98
-30.26
-17.05
-3.10
10.87
24.22
36.35
46.77
55.14
61.33
65.39
67.55
68.08
67.33
65.71
63.67
61.71
60.16
59.08
58.28
57.38
55.99
53.99
51.55
48.93
46.39
44.00
41.61
38.98
35.91
32.39
28.58
24.75
21.16
17.88
14.82
11.72
8.35
4.53
0.32
-4.05
-8.29
-12.22
-15.86
-19.41
-23.11
-27.10
-31.39
-35.86
-40.35
-44.72
-48.82
-52.29
-54.57
-54.95
-52.79
-47.90
-40.63
-31.87
-22.75
-14.26
-6.93
-0.87
4.07
8.05
11.02
12.76
13.06
11.87
9.48
6.49
3.66
1.68
0.99
1.64
3.39
5.83
8.52
11.15
13.50
15.36
16.42
16.27
14.53
10.99
5.81
-0.45
-7.02
-13.15
-18.30
-22.27
-25.19
-27.41
-29.41
-31.66
-34.63
-38.61
-43.75
-49.90
-56.56
-62.91
-67.92
-70.53
-69.95
-65.88
-58.67
-49.11
-38.33
-27.36
-16.99
-7.69
0.32
6.95
12.08
15.63
17.56
17.99
17.26
15.86
14.36
13.23
12.79
13.12
14.19
15.96
18.45
21.77
25.90
30.57
35.16
38.84
40.79
40.56
38.22
34.29
29.53
24.55
19.68
14.87
9.84
4.24
-2.16
-9.40
-17.14
-24.68
-31.00
-35.02
-35.85
-33.11
-27.04
-18.44
-8.43
1.93
11.90
21.17
29.73
37.75
45.22
51.93
57.41
61.05
62.30
60.92
57.14
51.71
45.75
40.42
36.65
34.81
34.66
35.52
36.63
37.35
37.41
36.78
35.64
34.15
32.39
30.39
28.15
25.66
22.89
19.81
16.33
12.37
7.81
2.51
-3.68
-10.79
-18.55
-26.35
-33.18
-37.96
-39.83
-38.47
-34.13
-27.41
-19.01
-9.46
0.85
11.55
22.08
31.68
39.50
44.81
47.28
47.05
44.65
40.85
36.40
31.93
27.84
24.31
21.33
18.84
16.77
15.10
13.81
12.81
11.98
11.07
9.86
8.11
5.66
2.36
-1.88
-7.04
-12.96
-19.34
-25.74
-31.74
-37.07
-41.68
-45.93
-50.37
-55.57
-61.84
-68.93
-76.00
-81.81
-85.10
-84.99
-81.20
-74.11
-64.48
-53.14
-40.77
-27.94
-15.18
-3.20
7.11
14.92
19.70
21.48
20.87
18.81
16.25
13.80
11.63
9.59
7.45
5.06
2.52
0.03
-2.18
-4.03
-5.58
-6.90
-8.13
-9.29
-10.47
-11.78
-13.50
-15.91
-19.23
-23.44
-28.26
-33.18
-37.77
-41.82
-45.50
-49.27
-53.62
-58.76
-64.41
-69.72
-73.49
-74.53
-71.98
-65.60
-55.78
-43.36
-29.42
-15.00
-0.95
12.15
23.93
34.15
42.63
49.23
53.97
57.04
58.78
59.60
59.86
59.77
59.40
58.76
57.81
56.53
54.81
52.47
49.34
45.31
40.56
35.45
30.36
25.48
20.62
15.32
9.08
1.70
-6.51
-14.85
-22.52
-28.98
-34.21
-38.65
-43.00
-47.92
-53.74
-60.41
-67.49
-74.17
-79.41
-82.01
-80.95
-75.65
-66.14
-53.18
-38.02
-22.02
-6.35
8.21
21.17
32.23
41.11
47.65
51.93
54.29
55.27
55.41
55.03
54.21
52.91
51.16
49.22
47.49
46.27
45.57
45.13
44.44
43.17
41.27
38.95
36.51
34.00
31.17
27.54
22.75
16.72
9.79
2.48
-4.73
-11.61
-18.18
-24.57
-30.82
-36.82
-42.41
-47.38
-51.64
-55.09
-57.47
-58.41
-57.32
-53.74
-47.41
-38.57
-27.82
-16.11
-4.41
6.41
15.84
23.70
30.08
35.16
38.99
41.47
42.38
41.61
39.35
36.11
32.61
29.52
27.26
25.90
25.22
24.96
24.97
25.14
25.41
25.59
25.32
24.14
21.70
17.91
13.01
7.52
1.99
-3.12
-7.67
-11.85
-16.07
-20.83
-26.51
-33.24
-40.82
-48.60
-55.62
-60.69
-62.70
-60.89
-55.06
-45.72
-33.83
-20.72
-7.70
4.11
13.93
21.37
26.42
29.35
30.59
30.66
29.96
28.70
26.94
24.67
21.97
19.05
16.20
13.65
11.48
9.51
7.49
5.17
2.47
-0.53
-3.73
-7.03
-10.51
-14.31
-18.59
-23.36
-28.49
-33.83
-39.30
-45.03
-51.18
-57.71
-64.14
-69.44
-72.30
-71.45
-66.26
-56.97
-44.67
-31.01
-17.65
-5.79
4.10
12.16
18.89
24.75
29.82
33.79
36.07
36.17
33.93
29.71
24.22
18.25
12.38
6.81
1.47
-3.84
-9.18
-14.43
-19.30
-23.51
-26.85
-29.31
-30.95
-31.78
-31.83
-31.18
-30.07
-28.98
-28.57
-29.40
-31.74
-35.17
-38.60
-40.44
-39.04
-33.22
-22.68
-8.08
9.19
27.40
44.97
60.78
74.22
85.07
93.39
99.35
103.19
105.17
105.53
104.44
102.03
98.37
93.57
87.83
81.46
74.84
68.33
62.21
56.60
51.46
46.56
41.51
35.91
29.51
22.34
14.76
7.38
0.75
-4.86
-9.65
-14.20
-19.14
-24.80
-30.90
-36.53
-40.40
-41.24
-38.24
-31.30
-20.96
-8.25
5.62
19.55
32.64
44.17
53.52
60.17
63.72
63.93
60.90
54.97
46.75
36.96
26.30
15.47
5.10
-4.32
-12.42
-19.02
-24.20
-28.26
-31.60
-34.58
-37.49
-40.44
-43.49
-46.78
-50.57
-55.30
-61.33
-68.80
-77.29
-85.82
-92.90
-96.92
-96.61
-91.36
-81.47
-67.92
-52.09
-35.34
-18.74
-3.07
11.09
23.22
32.76
39.20
42.33
42.29
39.63
35.12
29.58
23.63
17.69
12.02
6.71
1.79
-2.80
-7.10
-11.18
-15.08
-18.84
-22.49
-26.14
-30.06
-34.52
-39.78
-45.77
-52.05
-57.73
-61.57
-62.27
-58.82
-50.86
-38.84
-23.98
-8.00
7.47
21.22
32.74
42.12
49.67
55.60
59.83
62.06
62.04
59.83
55.87
50.93
45.74
40.81
36.20
31.70
27.00
21.92
16.66
11.60
7.18
3.56
0.47
-2.83
-7.23
-13.58
-22.31
-33.24
-45.59
-57.92
-68.41
-75.18
-76.68
-72.12
-61.72
-46.70
-28.91
-10.45
6.89
21.91
34.01
43.05
49.05
52.09
52.24
49.72
44.99
38.81
32.12
25.85
20.73
17.06
14.68
13.05
11.50
9.46
6.66
3.21
-0.60
-4.40
-8.10
-11.93
-16.40
-22.11
-29.43
-38.30
-48.05
-57.51
-65.18
-69.63
-69.82
-65.36
-56.49
-43.99
-28.93
-12.47
4.26
20.23
34.48
46.21
54.88
60.33
62.77
62.68
60.64
57.20
52.75
47.63
42.16
36.69
31.54
26.94
22.88
19.18
15.53
11.71
7.68
3.57
-0.32
-3.72
-6.53
-8.89
-11.21
-14.11
-18.19
-23.83
-30.90
-38.66
-45.84
-50.93
-52.62
-50.12
-43.39
-33.10
-20.41
-6.77
6.39
17.80
26.56
32.32
35.26
35.93
34.96
32.87
29.88
26.10
21.70
17.10
12.91
9.72
7.84
7.15
7.13
7.12
6.60
5.34
3.41
1.07
-1.43
-4.00
-6.76
-10.08
-14.47
-20.37
-28.04
-37.33
-47.57
-57.56
-65.76
-70.59
-70.80
-65.88
-56.16
-42.80
-27.45
-11.80
2.68
15.01
24.73
31.80
36.40
38.89
39.61
38.79
36.64
33.24
28.70
23.26
17.19
10.80
4.36
-2.03
-8.33
-14.49
-20.38
-25.80
-30.65
-34.93
-38.94
-43.07
-47.75
-53.23
-59.56
-66.58
-73.89
-80.84
-86.45
-89.44
-88.41
-82.15
-69.99
-52.01
-29.24
-3.40
23.37
48.98
71.69
90.46
104.96
115.50
122.73
127.27
129.49
129.44
127.00
122.11
114.96
106.03
95.91
85.20
74.28
63.24
51.92
40.08
27.66
14.86
2.30
-9.28
-19.21
-27.30
-33.99
-40.26
-47.26
-55.75
-65.81
-76.62
-86.78
-94.60
-98.64
-97.92
-92.10
-81.44
-66.79
-49.44
-30.96
-12.94
3.25
16.71
27.06
34.37
38.94
41.18
41.49
40.33
38.16
35.56
33.12
31.38
30.69
31.16
32.61
34.50
36.08
36.56
35.40
32.58
28.53
23.88
19.08
14.03
8.13
0.62
-8.90
-20.05
-31.67
-42.12
-49.91
-54.07
-54.47
-51.65
-46.53
-40.04
-32.95
-25.75
-18.84
-12.54
-7.25
-3.37
-1.21
-0.80
-1.92
-4.10
-6.76
-9.35
-11.41
-12.63
-12.80
-11.95
-10.47
-9.17
-9.24
-11.86
-17.64
-26.23
-36.21
-45.55
-52.26
-55.17
-54.23
-50.29
-44.74
-38.77
-33.08
-27.76
-22.49
-16.79
-10.32
-3.04
4.71
12.21
18.54
22.81
24.57
23.87
21.28
17.69
13.98
10.81
8.59
7.58
7.99
9.95
13.53
18.56
24.57
30.83
36.43
40.37
41.75
39.85
34.21
24.78
11.98
-3.32
-19.88
-36.43
-51.92
-65.85
-78.25
-89.54
-100.09
-109.74
-117.53
-121.65
-119.88
-110.39
-92.50
-67.12
-36.67
-4.58
25.67
51.22
70.40
82.76
88.76
89.42
85.97
79.68
71.76
63.35
55.38
48.54
43.22
39.63
37.79
37.61
38.83
40.90
42.99
44.09
43.18
39.42
32.35
21.89
8.16
-8.47
-27.50
-48.07
-68.90
-88.22
-104.06
-114.67
-118.98
-116.87
-109.01
-96.52
-80.48
-61.72
-40.77
-18.18
5.28
28.39
49.63
67.47
80.59
88.24
90.26
87.20
80.14
70.52
59.88
49.59
40.66
33.60
28.49
25.06
22.83
21.30
20.01
18.64
16.97
14.81
11.96
8.14
3.04
-3.60
-11.78
-21.16
-30.85
-39.54
-45.71
-47.93
-45.35
-37.91
-26.50
-12.61
2.07
16.16
28.82
39.75
48.90
56.23
61.53
64.48
64.85
62.57
57.89
51.30
43.38
34.75
25.88
17.13
8.69
0.75
-6.39
-12.26
-16.20
-17.58
-16.06
-11.82
-5.72
0.96
6.74
10.31
10.73
7.49
0.56
-9.53
-21.60
-33.88
-44.26
-50.77
-52.26
-48.64
-40.86
-30.52
-19.19
-7.99
2.62
12.59
21.99
30.55
37.58
42.08
43.06
39.93
32.88
22.88
11.55
0.78
-7.88
-13.45
-15.78
-15.41
-13.26
-10.38
-7.72
-6.01
-5.73
-7.15
-10.32
-15.11
-21.20
-28.16
-35.44
-42.50
-48.78
-53.75
-56.83
-57.54
-55.62
-51.19
-44.84
-37.46
-30.00
-22.98
-16.41
-9.76
-2.38
6.03
15.09
23.74
30.57
34.34
34.32
30.53
23.61
14.57
4.53
-5.53
-14.80
-22.64
-28.61
-32.30
-33.45
-31.91
-27.85
-21.72
-14.36
-6.89
-0.56
3.47
4.42
2.05
-3.16
-10.16
-17.49
-23.64
-27.44
-28.21
-25.91
-20.98
-14.16
-6.31
1.68
9.00
15.00
19.29
21.82
22.94
23.21
23.27
23.66
24.69
26.45
28.87
31.72
34.81
37.97
41.24
44.80
48.80
53.21
57.60
61.12
62.69
61.45
57.00
49.52
39.75
28.61
17.15
6.35
-2.83
-9.61
-13.54
-14.67
-13.66
-11.46
-9.09
-7.25
-6.26
-6.16
-6.87
-8.30
-10.25
-12.43
-14.36
-15.65
-16.14
-16.08
-15.94
-16.21
-17.12
-18.58
-20.32
-22.05
-23.57
-24.69
-25.05
-24.05
-20.88
-14.93
-6.27
3.97
13.63
20.02
20.75
14.69
2.48
-13.56
-30.05
-43.62
-51.78
-53.47
-49.14
-40.28
-28.92
-17.06
-6.23
2.62
9.09
13.17
15.01
14.84
13.06
10.36
7.82
6.92
9.01
14.88
24.24
35.64
46.70
54.69
57.29
53.15
42.31
26.15
7.05
-12.37
-29.97
-44.60
-56.25
-65.75
-74.15
-82.16
-89.86
-96.70
-101.82
-104.43
-104.07
-100.59
-94.21
-85.34
-74.51
-62.22
-48.67
-33.62
-16.36
4.04
28.21
55.78
85.07
113.00
135.79
150.01
153.71
147.23
133.24
115.97
99.98
88.81
84.05
85.05
89.25
92.94
92.36
84.74
68.97
45.86
17.84
-11.67
-39.16
-61.81
-77.89
-86.91
-89.44
-86.87
-80.93
-73.37
-65.58
-58.23
-51.09
-43.12
-32.89
-19.30
-2.28
16.77
35.00
48.79
54.86
51.45
39.02
20.27
-0.80
-20.06
-34.54
-43.03
-46.02
-45.19
-42.71
-40.64
-40.58
-43.29
-48.46
-54.63
-59.31
-59.73
-53.82
-41.09
-23.06
-2.83
15.82
29.76
37.36
38.80
35.73
30.56
25.74
23.26
24.35
29.37
37.77
48.07
58.31
66.38
70.79
71.05
67.77
62.33
56.22
50.43
45.11
39.75
33.65
26.51
18.58
10.65
3.54
-2.28
-6.79
-10.35
-13.25
-15.46
-16.63
-16.30
-14.37
-11.33
-8.23
-6.29
-6.40
-8.71
-12.62
-17.05
-20.88
-23.30
-23.83
-22.18
-18.02
-11.15
-1.85
8.68
18.34
24.67
25.89
21.80
13.96
5.15
-1.92
-5.65
-6.16
-4.78
-3.22
-2.63
-3.18
-4.30
-5.18
-5.31
-4.72
-3.83
-3.10
-2.82
-2.94
-3.15
-3.04
-2.29
-0.76
1.54
4.44
7.72
10.97
13.62
14.90
14.05
10.54
4.32
-4.10
-13.72
-23.51
-32.63
-40.78
-48.03
-54.57
-60.38
-65.08
-67.90
-68.08
-65.12
-59.06
-50.41
-40.01
-28.71
-17.34
-6.55
3.05
10.87
16.49
19.72
20.83
20.47
19.58
19.07
19.54
21.17
23.68
26.60
29.47
32.01
34.16
36.01
37.63
38.94
39.63
39.27
37.39
33.74
28.40
21.82
14.71
7.80
1.72
-3.22
-6.97
-9.71
-11.76
-13.56
-15.71
-18.78
-23.26
-29.16
-35.94
-42.42
-47.16
-48.95
-47.20
-42.22
-34.98
-26.75
-18.63
-11.34
-5.19
-0.27
3.39
5.85
7.23
7.84
8.07
8.32
8.81
9.57
10.48
11.40
12.30
13.21
14.20
15.26
16.35
17.32
18.01
18.18
17.55
15.86
12.88
8.68
3.59
-1.76
-6.70
-10.67
-13.54
-15.58
-17.28
-19.23
-21.88
-25.48
-29.91
-34.78
-39.37
-42.79
-44.15
-42.86
-38.77
-32.29
-24.29
-15.78
-7.67
-0.60
5.13
9.41
12.28
13.88
14.39
14.08
13.28
12.33
11.55
11.23
11.59
12.73
14.63
17.10
19.90
22.92
26.41
31.04
37.68
46.96
58.62
71.19
81.95
87.62
85.37
73.91
54.11
28.84
2.16
-21.94
-40.60
-52.75
-59.00
-61.10
-61.16
-60.94
-61.35
-62.24
-62.58
-60.85
-55.67
-46.23
-32.68
-16.01
2.25
20.47
37.10
50.86
60.68
65.73
65.68
60.92
52.65
42.69
33.00
25.00
19.25
15.49
12.89
10.71
8.64
7.01
6.57
8.12
12.13
18.47
26.33
34.23
40.23
42.38
39.13
29.95
15.59
-1.94
-19.95
-35.82
-47.82
-55.40
-59.10
-60.06
-59.49
-58.37
-57.22
-56.12
-54.66
-52.12
-47.67
-40.75
-31.52
-20.90
-10.36
-1.29
5.55
10.23
13.40
15.68
17.23
17.73
16.71
14.00
10.06
5.91
2.80
1.76
3.35
7.62
14.18
22.26
30.73
38.10
42.73
43.21
38.75
29.68
17.35
3.81
-8.75
-18.61
-24.92
-27.72
-27.77
-26.37
-25.02
-25.19
-27.96
-33.70
-41.83
-50.83
-58.64
-63.25
-63.32
-58.55
-49.66
-38.08
-25.52
-13.52
-3.20
4.96
11.15
16.09
20.81
26.15
32.43
39.12
45.05
48.67
48.74
44.77
37.31
27.73
17.77
8.96
2.27
-1.97
-3.99
-4.26
-3.23
-1.23
1.53
4.85
8.49
12.06
15.08
17.07
17.61
16.50
13.70
9.33
3.52
-3.65
-12.13
-21.72
-31.94
-41.82
-50.01
-55.05
-55.82
-51.93
-43.91
-33.05
-21.03
-9.46
0.57
8.57
14.61
19.00
22.02
23.74
24.05
22.83
20.16
16.45
12.36
8.61
5.75
4.00
3.23
3.17
3.50
3.96
4.28
4.14
3.16
1.05
-2.25
-6.45
-10.97
-15.00
-17.85
-19.17
-19.16
-18.58
-18.46
-19.79
-23.05
-27.95
-33.45
-38.08
-40.43
-39.59
-35.48
-28.76
-20.57
-12.14
-4.37
2.34
8.03
13.03
17.60
21.76
25.21
27.45
27.99
26.62
23.50
19.14
14.34
10.03
7.09
6.17
7.44
10.58
14.84
19.48
24.09
28.95
34.83
42.56
52.41
63.70
74.63
82.62
85.00
79.71
65.99
44.71
18.30
-9.71
-35.47
-55.77
-68.73
-74.03
-72.69
-66.49
-57.37
-46.96
-36.51
-26.88
-18.65
-12.06
-6.99
-2.92
0.78
4.62
8.76
12.92
16.55
19.07
20.19
19.96
18.75
16.98
14.98
12.78
10.21
7.04
3.19
-1.21
-5.80
-10.14
-13.88
-16.92
-19.48
-21.99
-24.96
-28.76
-33.44
-38.59
-43.37
-46.71
-47.58
-45.29
-39.77
-31.52
-21.53
-11.02
-1.11
7.38
13.97
18.55
21.24
22.21
21.61
19.63
16.50
12.61
8.54
4.96
2.45
1.30
1.38
2.23
3.16
3.53
2.91
1.15
-1.71
-5.50
-10.06
-15.26
-21.03
-27.20
-33.60
-40.02
-46.29
-52.25
-57.70
-62.24
-65.17
-65.66
-62.91
-56.55
-46.82
-34.67
-21.42
-8.42
3.33
13.39
21.73
28.54
33.92
37.84
40.13
40.72
39.80
37.92
35.85
34.34
33.91
34.59
35.98
37.47
38.48
38.71
38.25
37.51
36.94
36.82
37.13
37.58
37.81
37.48
36.31
33.99
30.19
24.66
17.49
9.33
1.42
-4.72
-7.84
-7.44
-3.98
1.31
7.02
12.08
16.07
19.23
22.08
24.98
27.95
30.58
32.30
32.63
31.38
28.68
24.93
20.60
16.09
11.59
7.08
2.27
-3.25
-9.88
-17.83
-26.92
-36.53
-45.61
-52.99
-57.71
-59.43
-58.53
-56.15
-53.72
-52.61
-53.57
-56.58
-60.85
-65.16
-68.29
-69.40
-68.18
-64.84
-59.79
-53.44
-46.07
-37.79
-28.75
-19.32
-10.04
-1.61
5.43
10.90
15.03
18.29
21.15
23.83
26.21
28.08
29.34
30.22
31.25
33.00
35.64
38.80
41.60
42.90
41.88
38.24
32.22
24.38
15.33
5.56
-4.50
-14.36
-23.36
-30.74
-35.76
-37.93
-36.97
-32.94
-26.07
-16.81
-5.85
5.85
17.21
27.16
34.91
40.08
42.72
43.13
41.75
39.04
35.57
32.07
29.38
28.19
28.78
30.80
33.34
35.29
35.73
34.29
31.21
27.02
22.29
17.24
11.85
5.94
-0.59
-7.74
-15.50
-24.02
-33.52
-44.09
-55.34
-66.20
-74.98
-79.73
-78.89
-71.87
-59.39
-43.30
-26.09
-10.19
2.73
12.03
18.04
21.73
24.19
26.29
28.49
30.93
33.59
36.30
38.74
40.43
40.84
39.59
36.77
32.94
28.96
25.62
23.34
22.16
21.92
22.62
24.56
28.08
33.16
39.02
44.10
46.42
44.29
36.99
25.19
10.81
-3.48
-15.00
-21.67
-22.30
-16.59
-4.90
11.82
32.04
53.66
74.07
90.64
101.46
105.95
105.14
101.30
97.10
94.72
95.17
98.35
103.25
108.39
112.18
113.20
110.36
103.17
91.83
77.21
60.65
43.54
26.93
11.38
-3.05
-16.54
-29.28
-41.27
-52.17
-61.40
-68.30
-72.46
-74.01
-73.81
-73.31
-74.05
-77.08
-82.35
-88.62
-93.82
-95.84
-93.29
-86.11
-75.47
-63.30
-51.54
-41.41
-33.18
-26.41
-20.44
-14.87
-9.84
-5.81
-3.20
-2.10
-2.12
-2.54
-2.66
-2.09
-0.88
0.50
1.50
1.54
0.22
-2.69
-7.21
-13.11
-19.88
-26.70
-32.64
-36.88
-39.03
-39.33
-38.58
-37.94
-38.56
-41.26
-46.43
-53.93
-63.19
-73.10
-82.21
-88.85
-91.52
-89.36
-82.36
-71.40
-57.88
-43.30
-28.87
-15.39
-3.28
7.33
16.43
24.19
30.82
36.58
41.66
46.13
50.05
53.41
56.22
58.31
59.22
58.27
54.72
48.15
38.62
26.74
13.33
-0.84
-15.36
-30.15
-45.27
-60.63
-75.84
-90.32
-103.37
-114.44
-123.35
-130.37
-136.33
-142.40
-149.81
-159.25
-170.45
-181.90
-191.25
-196.02
-194.50
-186.20
-171.64
-151.92
-128.25
-101.95
-74.64
-48.27
-24.59
-4.27
14.00
33.48
58.33
91.75
134.34
183.49
234.07
280.07
316.37
339.82
349.54
346.53
333.12
312.38
287.55
261.69
237.21
215.73
197.95
183.69
172.00
161.47
150.61
138.43
124.84
110.90
98.33
88.64
82.16
77.60
72.43
63.98
50.62
32.39
10.97
-11.13
-31.45
-48.23
-60.62
-68.56
-72.49
-73.16
-71.50
-68.46
-64.98
-61.71
-59.01
-56.82
-54.72
-52.02
-47.99
-42.16
-34.61
-26.10
-17.83
-11.08
-6.66
-4.68
-4.55
-5.36
-6.29
-6.96
-7.44
-8.06
-9.07
-10.38
-11.42
-11.44
-9.80
-6.33
-1.50
3.70
8.19
11.22
12.65
12.97
12.98
13.42
14.62
16.33
17.92
18.66
18.13
16.39
14.01
11.81
10.53
10.50
11.68
13.81
16.77
20.82
26.53
34.46
44.66
56.45
68.28
78.18
84.23
85.00
79.73
68.48
51.98
31.57
9.24
-12.51
-30.93
-43.58
-48.86
-46.61
-37.95
-24.93
-9.60
6.63
23.16
39.80
56.13
71.15
83.37
91.66
95.97
97.80
99.87
105.17
115.76
131.83
151.41
170.88
185.95
192.91
189.84
176.89
156.03
130.24
102.53
75.43
50.97
30.82
16.35
8.35
6.60
9.64
15.18
20.87
25.16
27.71
29.08
30.16
31.49
32.96
33.87
33.33
30.39
24.26
14.28
0.01
-18.62
-41.28
-67.26
-95.66
-125.55
-156.20
-187.24
-218.70
-251.09
-285.15
-321.56
-360.38
-400.47
-439.31
-473.30
-498.71
-512.61
-513.71
-502.34
-480.05
-448.77
-410.17
-365.46
-315.51
-261.09
-203.03
-142.38
-80.44
-19.12
38.91
90.23
131.19
158.83
171.76
170.75
158.52
139.07
116.79
95.62
78.50
67.13
61.84
61.73
64.87
68.80
71.11
70.18
65.61
58.28
49.97
42.62
37.68
35.53
35.56
36.56
37.43
37.80
38.40
40.79
46.82
57.73
73.47
92.32
111.11
125.87
132.69
128.64
112.39
84.54
47.64
5.81
-35.73
-71.53
-96.73
-108.22
-105.36
-90.25
-67.20
-41.42
-17.61
1.23
14.09
21.55
24.85
25.01
22.26
16.13
5.96
-8.45
-26.31
-45.81
-64.48
-79.95
-90.86
-97.36
-101.26
-105.45
-113.01
-126.04
-144.94
-168.07
-192.09
-212.87
-226.56
-230.71
-224.83
-210.52
-190.79
-169.34
-149.56
-133.71
-122.35
-114.11
-106.09
-94.85
-77.72
-53.86
-25.00
5.11
31.83
51.15
60.96
61.49
54.91
44.57
34.09
26.63
24.43
28.48
38.14
51.28
64.60
74.59
78.47
75.05
64.98
50.51
34.69
20.47
10.04
4.45
3.70
7.07
13.54
22.07
31.87
42.26
52.46
61.48
68.18
71.69
72.02
70.43
69.20
70.93
77.46
89.17
104.82
122.02
138.09
150.89
159.23
162.91
162.60
159.47
154.97
150.40
146.48
143.13
139.27
133.32
123.79
110.07
92.72
73.40
54.26
37.08
22.77
11.16
1.27
-8.02
-17.49
-27.20
-36.34
-43.59
-47.51
-47.00
-41.72
-32.15
-19.50
-5.44
8.24
19.77
27.55
30.23
27.07
18.34
5.70
-7.89
-18.85
-24.10
-22.13
-13.77
-1.78
10.17
18.92
23.01
23.11
21.39
20.41
21.93
26.06
31.09
34.05
31.46
20.47
-0.14
-29.43
-64.16
-99.51
-130.23
-152.13
-163.06
-163.39
-155.51
-142.92
-129.09
-116.68
-107.02
-99.97
-94.07
-86.86
-75.60
-58.18
-34.03
-4.67
26.54
55.12
76.66
88.03
88.11
78.02
60.90
41.07
22.99
10.22
4.42
5.07
9.79
15.27
18.47
17.67
12.94
5.97
-0.64
-4.48
-4.27
-0.27
5.89
12.04
16.52
18.87
19.98
21.46
24.46
28.94
33.33
35.10
31.80
22.08
6.25
-13.67
-34.49
-52.81
-65.94
-72.54
-72.85
-68.24
-60.42
-50.72
-39.82
-28.13
-16.54
-6.76
-1.08
-1.44
-8.30
-20.10
-33.74
-45.82
-53.96
-57.57
-57.64
-55.89
-53.83
-52.20
-51.03
-49.99
-48.81
-47.34
-45.53
-43.18
-39.94
-35.45
-29.52
-22.23
-13.87
-4.67
5.38
16.49
28.72
41.63
53.97
63.86
69.23
68.67
62.04
50.59
36.68
22.91
11.49
3.66
-0.35
-1.11
0.44
3.30
6.61
9.79
12.33
13.86
14.13
13.13
11.17
8.88
6.99
5.95
5.73
5.72
4.96
2.60
-1.77
-7.94
-15.23
-22.76
-29.75
-35.55
-39.71
-41.87
-41.78
-39.42
-34.98
-28.95
-21.97
-14.75
-7.99
-2.31
1.85
4.27
5.10
4.80
4.04
3.51
3.69
4.79
6.68
9.05
11.50
13.60
15.00
15.48
14.98
13.64
11.77
9.69
7.58
5.31
2.43
-1.62
-7.19
-14.20
-22.12
-30.15
-37.65
-44.37
-50.41
-56.02
-61.25
-65.59
-68.04
-67.18
-61.56
-50.22
-33.21
-11.74
11.82
34.57
53.83
67.86
76.25
79.80
79.96
78.38
76.40
74.98
74.61
75.37
76.86
77.99
77.20
72.68
62.95
47.27
25.85
-0.32
-29.75
-60.75
-91.48
-119.84
-143.29
-159.04
-164.54
-158.43
-141.25
-115.71
-85.97
-56.35
-29.94
-7.85
10.57
26.85
42.23
57.03
70.59
81.95
90.51
96.50
100.72
104.09
107.08
109.49
110.66
110.00
107.43
103.51
99.29
95.69
93.14
91.30
89.30
86.13
81.24
74.72
67.21
59.60
52.60
46.58
41.55
37.49
34.53
33.04
33.36
35.57
39.17
43.15
46.26
47.48
46.43
43.51
39.65
35.98
33.34
32.04
31.78
31.81
31.24
29.34
25.70
20.24
12.90
3.35
-9.18
-25.52
-45.90
-69.18
-92.60
-112.41
-125.01
-128.43
-123.07
-111.63
-97.88
-85.17
-75.32
-68.20
-62.38
-56.15
-48.44
-39.29
-29.57
-20.46
-12.86
-7.08
-2.85
0.41
3.39
6.73
11.12
17.37
26.29
38.57
54.28
72.66
92.01
110.13
124.89
134.88
139.86
140.66
138.74
135.52
131.93
128.19
124.19
119.76
114.94
109.96
104.85
99.17
91.96
82.08
68.75
52.08
33.09
13.42
-5.40
-22.53
-38.01
-52.57
-66.89
-81.14
-94.80
-107.15
-117.80
-127.13
-136.05
-145.29
-154.54
-162.13
-165.31
-161.35
-148.72
-127.88
-101.39
-73.25
-47.80
-28.70
-18.27
-17.19
-24.60
-38.34
-55.31
-71.90
-84.55
-90.42
-87.93
-77.14
-59.75
-38.64
-17.09
2.04
16.97
27.16
33.09
35.76
36.18
35.02
32.68
29.35
25.17
20.21
14.35
7.08
-2.34
-14.54
-29.56
-46.48
-63.48
-78.35
-89.18
-94.92
-95.49
-91.48
-83.68
-72.60
-58.53
-41.84
-23.47
-5.10
10.94
22.29
27.37
25.95
19.48
10.61
2.51
-2.19
-2.16
2.30
9.55
17.34
23.76
27.81
29.45
29.25
27.71
24.94
20.62
14.52
6.87
-1.40
-9.10
-15.30
-19.87
-23.40
-26.77
-30.50
-34.40
-37.70
-39.42
-38.83
-35.66
-29.93
-21.72
-10.93
2.56
18.66
36.79
55.70
73.59
88.32
97.75
100.36
95.62
84.27
68.27
50.22
32.51
16.70
3.14
-8.69
-19.61
-29.99
-39.51
-47.36
-52.79
-55.61
-56.35
-55.97
-55.52
-55.82
-57.41
-60.68
-65.96
-73.32
-82.34
-91.76
-99.74
-104.46
-104.77
-100.87
-94.07
-86.31
-79.32
-74.18
-71.32
-71.10
-74.29
-82.19
-96.13
-116.68
-142.95
-172.46
-201.56
-226.31
-243.26
-250.18
-246.29
-232.30
-210.14
-182.57
-152.67
-123.30
-96.50
-73.19
-53.18
-35.41
-18.57
-1.47
16.65
36.04
56.62
78.26
100.88
124.58
149.60
176.29
205.22
237.14
272.52
310.90
350.22
386.76
415.95
433.94
439.00
432.08
416.27
395.36
372.38
349.00
325.75
302.75
280.37
259.32
240.26
223.28
207.69
192.19
175.27
155.65
132.60
106.20
77.47
48.14
20.15
-5.21
-28.03
-49.94
-73.41
-100.29
-130.66
-162.34
-191.55
-214.38
-228.29
-232.77
-229.07
-219.44
-206.12
-190.99
-175.79
-162.40
-152.61
-147.52
-146.24
-145.36
-139.30
-122.50
-92.27
-50.84
-5.44
34.52
61.71
74.34
76.82
77.46
84.36
101.71
128.63
160.76
193.22
223.13
250.27
275.72
300.03
321.82
337.48
342.54
333.29
308.15
268.32
217.56
160.93
103.48
49.12
0.01
-43.19
-80.95
-114.25
-144.02
-170.42
-192.18
-206.73
-210.87
-202.33
-181.16
-150.48
-115.90
-83.76
-59.25
-45.01
-41.09
-45.73
-56.31
-70.22
-85.10
-99.09
-110.91
-120.27
-128.02
-135.93
-145.90
-158.91
-174.22
-189.19
-199.93
-202.57
-194.67
-176.05
-148.98
-117.33
-85.49
-57.36
-35.64
-21.58
-15.23
-15.89
-22.45
-33.78
-48.87
-66.81
-86.92
-108.34
-129.82
-149.59
-165.32
-174.64
-175.92
-168.96
-155.34
-137.86
-119.60
-102.79
-88.23
-75.29
-62.66
-49.24
-34.76
-19.91
-5.77
6.65
16.96
25.40
32.65
39.48
46.42
53.63
60.98
68.10
74.61
80.24
84.82
88.43
91.18
93.37
95.42
97.78
100.87
105.08
110.73
118.16
127.68
139.32
152.41
165.41
175.97
181.58
180.46
172.34
158.70
142.23
125.83
111.60
100.33
91.74
85.07
79.65
75.16
71.44
68.19
65.00
61.56
57.98
54.92
53.24
53.62
56.05
59.91
64.22
68.11
71.16
73.37
75.05
76.64
78.63
81.54
85.83
91.71
98.91
106.68
113.86
119.30
122.21
122.25
119.51
114.29
106.83
97.36
86.14
73.71
60.95
49.05
39.29
32.74
29.94
30.63
33.72
37.59
40.52
41.44
40.24
37.86
35.81
35.42
36.95
39.20
39.69
35.70
25.66
10.28
-7.28
-22.49
-31.41
-32.54
-27.49
-20.00
-13.98
-11.49
-12.08
-13.52
-13.44
-10.54
-4.64
4.13
16.02
31.45
50.03
69.49
85.84
94.60
92.89
80.71
60.93
37.77
14.73
-6.85
-28.07
-51.32
-78.56
-109.63
-141.75
-170.21
-190.05
-198.00
-193.80
-180.12
-161.43
-142.07
-124.98
-111.40
-101.42
-95.00
-92.38
-93.81
-98.92
-106.28
-113.65
-118.78
-120.24
-117.79
-112.14
-104.49
-95.94
-87.24
-78.76
-70.67
-63.10
-56.26
-50.50
-46.15
-43.46
-42.40
-42.60
-43.34
-43.92
-43.69
-42.30
-39.67
-35.93
-31.34
-26.33
-21.37
-16.92
-13.28
-10.45
-8.14
-5.93
-3.59
-1.24
0.66
1.55
1.11
-0.55
-3.05
-5.94
-9.01
-12.38
-16.25
-20.70
-25.41
-29.70
-32.69
-33.62
-32.06
-27.97
-21.68
-13.79
-5.14
3.37
10.88
16.79
20.92
23.51
25.08
26.12
26.89
27.36
27.37
26.76
25.51
23.66
21.27
18.35
14.89
10.99
6.88
2.94
-0.52
-3.44
-6.09
-8.90
-12.24
-16.15
-20.33
-24.28
-27.57
-30.08
-32.00
-33.79
-35.85
-38.36
-41.17
-43.83
-45.73
-46.27
-45.04
-41.81
-36.61
-29.66
-21.33
-12.17
-2.85
5.90
13.41
19.26
23.38
26.07
27.89
29.41
30.88
32.22
32.95
32.57
30.77
27.78
24.28
21.21
19.45
19.34
20.64
22.58
24.19
24.72
23.86
21.80
18.99
15.91
12.84
9.78
6.65
3.36
-0.05
-3.43
-6.64
-9.68
-12.82
-16.55
-21.41
-27.72
-35.46
-44.19
-53.19
-61.59
-68.61
-73.72
-76.71
-77.60
-76.68
-74.35
-71.07
-67.36
-63.63
-60.24
-57.50
-55.70
-55.13
-56.08
-58.74
-63.11
-68.95
-75.86
-83.34
-90.98
-98.53
-105.94
-113.54
-122.03
-132.35
-145.22
-160.40
-176.12
-189.01
-194.96
-190.39
-173.54
-144.91
-107.03
-63.57
-18.53
24.18
61.08
89.31
107.12
114.35
112.58
104.62
93.58
82.17
72.42
65.88
63.56
65.90
72.35
81.42
91.20
100.33
108.89
118.43
131.14
148.63
171.24
198.12
227.97
259.72
292.71
326.14
358.26
385.94
404.98
411.30
402.24
377.67
340.25
294.85
246.95
201.09
159.68
122.98
89.73
58.45
28.18
-1.53
-31.05
-61.08
-92.12
-123.41
-152.11
-173.69
-183.64
-179.78
-163.65
-140.18
-115.74
-95.65
-82.67
-77.06
-77.79
-83.95
-95.25
-111.64
-132.33
-155.28
-177.34
-194.97
-205.35
-207.02
-200.32
-187.26
-170.83
-154.08
-139.08
-126.42
-115.40
-104.99
-94.95
-86.35
-81.12
-80.85
-85.56
-93.08
-99.67
-101.29
-95.01
-79.87
-56.88
-28.38
2.81
33.97
62.72
86.92
104.72
114.63
115.95
109.14
96.01
79.34
62.23
47.17
35.25
26.00
17.83
8.89
-2.03
-14.97
-28.91
-42.23
-53.43
-61.59
-66.53
-68.53
-67.91
-64.65
-58.17
-47.47
-31.55
-9.94
16.80
46.78
76.93
103.36
122.28
130.78
127.49
112.80
88.77
58.69
26.48
-4.10
-30.19
-50.32
-64.80
-75.54
-85.34
-96.97
-112.24
-131.57
-153.99
-177.81
-201.17
-222.50
-240.42
-253.47
-259.92
-258.01
-246.49
-225.41
-196.47
-162.78
-127.99
-95.12
-65.55
-38.91
-13.56
12.30
39.65
68.30
97.25
125.50
152.60
178.59
203.29
225.56
243.12
253.35
254.49
246.78
232.55
215.20
197.66
181.08
164.68
146.61
125.46
101.37
76.16
52.63
33.06
18.31
7.46
-1.59
-11.02
-22.00
-34.16
-45.62
-53.64
-55.75
-50.56
-38.40
-21.11
-1.45
17.81
34.64
48.10
58.11
64.95
68.85
69.83
67.94
63.51
57.35
50.63
44.49
39.90
37.49
37.89
41.85
50.32
64.19
83.66
108.00
135.31
162.88
187.89
208.11
222.44
230.89
234.32
233.86
230.47
224.77
216.95
206.79
193.52
175.88
152.67
123.76
91.06
58.68
31.83
14.79
8.90
12.02
19.71
27.66
33.91
39.55
47.53
60.45
78.59
99.42
118.72
132.50
138.64
137.55
131.89
125.47
121.83
122.99
128.64
136.28
142.11
142.69
136.33
123.60
106.82
88.73
71.33
55.30
40.39
26.24
13.04
1.57
-7.42
-13.87
-18.77
-23.86
-30.94
-41.31
-55.38
-72.84
-93.18
-116.23
-142.19
-171.23
-202.68
-234.54
-263.78
-286.97
-301.50
-306.23
-301.79
-290.11
-273.93
-256.37
-240.55
-229.30
-224.47
-226.42
-233.48
-242.12
-247.84
-246.35
-234.59
-211.34
-177.62
-136.43
-92.77
-52.52
-21.10
-1.98
4.81
2.59
-2.82
-5.12
0.56
16.08
39.89
67.41
92.01
106.80
106.67
90.38
61.27
26.57
-5.29
-27.86
-39.07
-41.62
-41.19
-43.82
-53.66
-72.42
-100.11
-136.33
-180.47
-230.65
-282.72
-329.71
-363.55
-377.64
-369.71
-342.71
-303.48
-259.91
-217.68
-178.72
-141.60
-103.75
-63.48
-21.18
21.17
61.44
98.75
134.09
169.93
209.39
255.11
307.99
366.27
425.08
477.10
514.24
530.18
522.54
493.71
449.77
398.04
344.42
291.82
240.44
189.56
139.50
92.41
51.46
18.85
-6.02
-26.75
-48.41
-75.21
-108.61
-146.82
-186.55
-225.28
-262.49
-299.03
-334.99
-368.01
-393.57
-407.03
-406.07
-391.56
-366.65
-334.75
-298.39
-259.26
-219.41
-181.88
-149.81
-124.73
-105.25
-87.72
-68.71
-47.40
-26.12
-8.70
2.38
7.77
10.19
11.95
12.97
10.40
0.53
-18.54
-45.36
-75.44
-103.16
-124.04
-135.96
-138.84
-133.18
-119.11
-96.37
-65.54
-29.34
7.05
37.14
55.27
58.90
49.53
31.65
10.44
-10.80
-31.43
-52.62
-75.72
-100.74
-125.85
-147.98
-163.93
-171.23
-169.12
-157.88
-138.29
-111.43
-79.06
-43.39
-6.61
29.57
64.47
97.23
127.46
155.49
182.42
209.59
238.75
271.79
309.65
351.71
393.03
426.02
443.12
439.10
412.27
365.42
305.12
239.77
177.86
123.66
78.17
40.84
16.78
11.01
24.15
50.38
74.73
93.62
106.43
112.75
114.29
111.07
102.19
86.98
65.89
40.53
14.09
-12.42
-39.33
-67.69
-99.21
-136.52
-182.42
-238.88
-305.50
-377.73
-448.48
-508.34
-547.68
-560.20
-545.59
-509.51
-461.17
-409.49
-359.80
-314.30
-272.62
-233.71
-197.55
-165.40
-138.60
-117.14
-98.97
-80.45
-58.45
-31.38
0.37
34.60
68.58
100.28
129.24
156.68
184.92
216.13
251.66
291.84
336.11
383.13
430.61
475.16
512.72
539.68
554.46
558.65
556.98
555.58
559.51
570.47
585.93
600.08
606.19
599.00
576.44
539.73
492.41
438.82
382.61
326.12
270.18
214.77
159.75
105.52
53.16
3.89
-41.40
-82.59
-120.31
-155.53
-189.03
-221.25
-252.74
-284.36
-316.96
-350.13
-380.93
-403.47
-410.32
-395.53
-357.51
-300.52
-233.20
-165.12
-103.18
-49.81
-3.92
36.59
72.61
103.21
126.67
142.16
150.44
153.17
151.66
145.81
134.43
116.27
91.40
61.78
30.81
2.09
-21.91
-40.64
-55.38
-68.63
-83.04
-100.31
-120.64
-142.83
-164.93
-185.38
-203.83
-221.40
-240.50
-264.31
-296.07
-338.30
-391.65
-453.60
-518.00
-575.79
-617.45
-636.27
-630.80
-605.30
-567.84
-526.96
-488.61
-454.98
-425.23
-397.58
-371.00
-345.67
-322.27
-300.90
-280.49
-259.14
-235.19
-207.96
-178.10
-147.33
-117.59
-90.09
-64.87
-40.78
-16.00
11.07
41.14
73.79
107.65
141.13
173.29
204.06
234.24
264.89
296.55
329.06
362.02
395.78
431.94
472.47
517.97
565.59
608.32
636.68
641.74
618.49
567.53
494.84
409.63
322.05
241.37
175.06
128.29
103.00
96.98
103.39
112.09
112.49
97.39
65.62
22.50
-22.55
-60.06
-84.79
-98.09
-107.19
-121.91
-150.05
-193.65
-247.65
-301.69
-344.12
-366.04
-364.00
-340.17
-300.38
-251.30
-198.19
-144.17
-90.65
-38.37
12.21
60.76
107.52
153.00
197.25
238.92
274.89
301.20
314.57
314.11
301.58
280.70
255.53
229.10
202.90
177.16
151.49
125.45
98.89
71.90
45.08
19.56
-3.06
-21.17
-33.71
-40.51
-42.26
-40.06
-35.04
-28.16
-20.27
-12.22
-4.77
1.59
6.93
11.66
16.39
21.54
27.22
33.19
39.06
44.54
49.52
54.17
58.85
63.78
68.75
73.01
75.41
74.80
70.48
62.40
51.13
37.54
22.69
7.59
-6.72
-19.20
-29.12
-36.17
-40.62
-43.05
-44.12
-44.18
-43.40
-42.05
-40.79
-40.60
-42.39
-46.48
-52.38
-59.16
-65.87
-72.07
-77.84
-83.43
-88.77
-93.14
-95.38
-94.37
-89.75
-82.17
-73.24
-64.93
-58.79
-55.42
-54.31
-54.32
-54.19
-53.28
-51.71
-50.28
-49.89
-50.95
-53.17
-55.53
-56.86
-56.27
-53.63
-49.43
-44.54
-39.89
-36.05
-33.38
-31.82
-31.03
-30.48
-29.41
-27.10
-23.38
-19.19
-16.59
-17.89
-24.02
-33.49
-42.33
-45.40
-38.37
-19.21
11.58
51.70
97.74
145.76
191.23
229.52
256.70
270.63
271.58
261.67
243.39
218.26
186.43
147.61
102.66
54.54
7.63
-33.57
-66.01
-88.89
-102.97
-109.50
-109.01
-101.04
-84.96
-61.16
-31.83
-1.20
25.48
43.61
50.77
47.47
36.84
23.30
11.01
2.84
-0.08
1.97
7.69
15.28
22.66
28.01
30.11
28.64
24.13
17.32
8.69
-1.94
-15.29
-31.99
-52.01
-74.19
-96.60
-117.32
-135.22
-150.43
-163.98
-176.97
-189.68
-201.23
-210.08
-214.90
-215.50
-213.11
-210.00
-208.42
-209.60
-213.11
-216.96
-218.40
-215.08
-206.04
-191.87
-174.26
-154.74
-133.73
-110.13
-82.10
-48.36
-9.67
30.70
67.83
96.67
113.95
119.17
114.63
104.74
95.24
92.30
101.42
125.61
163.22
206.82
244.63
264.80
260.85
235.31
199.29
167.41
151.03
153.13
167.73
183.74
190.69
182.94
160.22
125.20
80.63
28.34
-29.53
-88.34
-140.40
-176.91
-191.50
-183.53
-158.81
-127.34
-99.50
-82.18
-77.01
-81.09
-89.46
-97.61
-103.08
-105.47
-105.74
-105.29
-105.42
-107.22
-111.47
-118.33
-127.05
-135.70
-141.54
-142.03
-135.90
-123.83
-108.27
-92.21
-77.83
-65.47
-53.61
-39.81
-22.06
0.26
26.25
54.30
83.14
112.72
144.03
178.24
215.51
254.46
292.29
325.81
352.54
371.30
382.07
385.41
382.14
373.39
360.72
345.98
330.56
314.49
296.19
273.04
242.85
205.06
160.93
112.90
63.77
16.43
-25.84
-58.95
-78.48
-81.17
-66.64
-38.38
-2.95
32.27
61.50
81.80
92.71
95.06
89.50
76.19
55.34
27.90
-4.00
-37.71
-71.07
-103.40
-135.56
-169.15
-204.95
-241.60
-275.26
-300.80
-313.78
-312.47
-298.63
-276.82
-252.65
-230.62
-212.88
-199.14
-187.68
-176.69
-165.23
-153.44
-142.19
-132.43
-124.68
-118.86
-114.38
-110.52
-106.72
-102.92
-99.25
-95.73
-91.82
-86.45
-78.38
-67.06
-53.19
-38.63
-25.74
-16.23
-10.47
-7.42
-5.36
-2.85
0.54
4.23
7.15
8.43
7.78
5.54
2.34
-1.22
-4.71
-7.77
-10.00
-10.86
-9.89
-6.92
-2.28
3.10
7.83
10.45
9.85
5.66
-1.61
-10.55
-19.23
-25.75
-28.71
-27.66
-23.21
-16.84
-10.35
-5.29
-2.41
-1.57
-1.92
-2.47
-2.46
-1.67
-0.34
1.09
2.23
2.88
2.93
2.33
1.01
-1.14
-4.26
-8.49
-14.04
-21.16
-30.00
-40.29
-51.06
-60.61
-66.86
-67.76
-61.99
-49.44
-31.27
-9.66
12.74
33.47
50.74
63.66
72.26
77.28
79.83
81.06
81.98
83.17
84.85
86.86
88.79
90.18
90.76
90.59
90.13
90.03
90.70
92.12
93.63
94.16
92.70
88.70
82.41
74.67
66.63
59.20
52.65
46.50
39.79
31.46
20.83
8.09
-5.66
-18.69
-29.20
-35.97
-38.74
-38.08
-34.99
-30.30
-24.28
-16.74
-7.43
3.52
15.42
27.29
38.32
48.31
57.55
66.46
75.01
82.51
87.77
89.68
87.89
83.02
76.49
69.90
64.33
59.91
55.96
51.52
45.94
39.23
31.97
24.97
18.80
13.45
8.37
2.86
-3.53
-10.67
-17.79
-23.77
-27.55
-28.66
-27.36
-24.58
-21.44
-18.77
-16.74
-14.85
-12.34
-8.75
-4.30
0.07
3.31
4.72
4.40
3.19
2.16
2.01
2.73
3.61
3.76
2.57
0.02
-3.36
-6.86
-9.88
-12.22
-14.11
-15.93
-18.03
-20.56
-23.39
-26.28
-29.13
-32.08
-35.57
-40.08
-45.77
-52.18
-58.19
-62.45
-63.91
-62.38
-58.66
-54.24
-50.63
-48.78
-48.68
-49.62
-50.61
-50.89
-50.25
-48.97
-47.57
-46.46
-45.81
-45.58
-45.73
-46.40
-47.92
-50.57
-54.26
-58.45
-62.33
-65.15
-66.48
-66.00
-63.09
-56.52
-44.64
-26.38
-2.24
24.95
50.43
69.05
77.14
73.90
61.59
44.44
26.96
12.40
2.13
-4.20
-7.87
-10.10
-11.66
-12.54
-12.31
-10.46
-6.83
-1.83
3.54
8.04
10.68
11.07
9.73
7.77
6.48
6.84
9.37
14.24
21.40
30.63
41.27
51.94
60.63
65.25
64.59
59.11
50.98
43.27
38.66
38.32
41.65
46.80
51.66
54.84
55.93
55.26
53.53
51.34
49.06
46.77
44.30
41.12
36.39
29.02
17.84
1.92
-19.10
-44.63
-72.94
-101.23
-126.43
-146.36
-160.80
-171.71
-181.98
-193.50
-205.46
-214.11
-214.31
-202.21
-177.35
-142.95
-104.50
-67.13
-33.61
-3.74
24.41
52.43
79.88
103.89
120.25
125.19
117.31
98.63
74.29
51.17
35.90
33.07
44.54
69.53
105.29
147.89
192.63
234.34
267.89
289.08
295.42
286.76
265.35
235.41
202.42
171.94
148.10
132.45
123.54
117.67
110.93
101.47
90.83
83.54
84.73
96.94
118.16
141.96
159.85
164.61
152.76
124.79
83.73
33.17
-23.64
-83.16
-140.74
-190.50
-226.93
-247.14
-252.53
-248.20
-240.36
-233.09
-226.42
-217.05
-201.09
-176.80
-145.80
-112.15
-80.15
-52.62
-30.57
-14.05
-3.17
1.71
0.69
-5.02
-12.84
-19.53
-22.46
-20.48
-14.41
-6.48
0.46
3.88
2.35
-3.98
-13.44
-23.28
-30.75
-34.10
-33.20
-29.49
-24.96
-20.88
-16.96
-11.73
-3.85
6.68
18.24
28.45
35.45
38.59
38.22
34.79
28.21
17.63
2.13
-18.42
-42.79
-68.55
-92.71
-112.49
-126.06
-132.59
-132.29
-126.18
-115.79
-102.62
-87.70
-71.30
-53.29
-33.74
-13.08
8.11
29.78
52.79
78.59
108.17
140.80
173.43
201.12
218.67
222.67
212.82
191.95
164.70
135.72
108.28
83.66
61.47
40.44
19.23
-3.07
-26.41
-49.61
-70.63
-87.26
-98.15
-103.35
-104.01
-101.55
-96.87
-90.41
-82.92
-76.45
-74.49
-80.57
-96.13
-118.74
-142.14
-158.32
-160.61
-146.15
-116.66
-76.99
-32.83
11.11
51.73
87.22
116.52
139.24
155.92
168.03
177.48
185.62
192.19
195.31
192.54
182.32
164.97
142.44
117.09
90.69
64.16
38.07
13.40
-8.32
-25.72
-38.45
-47.40
-54.30
-60.58
-66.66
-71.73
-74.34
-73.20
-67.81
-58.30
-45.10
-28.44
-8.38
14.63
39.09
62.24
80.60
90.98
91.83
84.02
70.44
55.00
40.84
29.35
20.21
12.39
5.30
-0.55
-3.89
-3.76
-0.31
5.03
10.19
13.41
13.93
12.05
8.60
4.17
-1.26
-8.09
-16.51
-25.91
-34.90
-41.91
-45.92
-46.93
-45.81
-43.66
-41.18
-38.40
-35.02
-30.89
-26.36
-22.26
-19.40
-18.13
-18.21
-18.93
-19.63
-20.12
-20.67
-21.80
-23.86
-26.78
-30.10
-33.27
-35.95
-38.02
-39.46
-40.05
-39.33
-36.74
-31.99
-25.43
-18.10
-11.52
-7.15
-5.92
-8.07
-13.11
-20.03
-27.66
-34.86
-40.91
-45.69
-49.82
-54.43
-60.44
-67.80
-74.89
-78.80
-76.60
-66.83
-50.60
-31.53
-14.26
-2.64
1.95
0.65
-3.82
-8.73
-12.57
-15.33
-17.91
-21.46
-26.76
-34.20
-43.84
-55.40
-67.98
-79.73
-87.99
-89.70
-82.33
-64.57
-36.70
-0.28
42.63
90.02
140.15
190.99
239.72
282.55
315.34
334.94
340.38
333.34
317.28
295.92
271.63
244.87
214.80
180.48
141.94
100.49
58.14
16.92
-21.59
-56.15
-85.56
-108.45
-123.59
-130.26
-128.53
-119.28
-103.87
-83.95
-61.27
-37.88
-16.13
1.63
13.82
20.18
22.14
22.18
22.63
24.45
26.71
27.20
23.80
15.89
5.03
-5.59
-12.48
-13.24
-7.33
4.01
18.20
31.86
41.14
42.30
32.76
12.49
-15.04
-43.17
-64.01
-71.29
-62.62
-40.40
-10.51
20.17
46.22
64.88
75.94
80.50
79.74
74.49
65.38
53.42
40.13
27.35
16.53
8.31
2.22
-2.84
-8.05
-13.99
-20.48
-26.70
-31.57
-34.28
-34.43
-32.23
-28.34
-23.71
-19.35
-16.17
-14.80
-15.57
-18.49
-23.22
-29.03
-34.95
-39.98
-43.48
-45.35
-46.14
-46.86
-48.73
-53.05
-61.16
-74.24
-92.94
-116.62
-142.93
-167.97
-187.22
-197.08
-196.13
-185.55
-168.54
-148.66
-128.70
-109.96
-92.53
-76.14
-60.79
-46.97
-35.23
-25.65
-17.57
-9.73
-0.87
9.75
22.09
35.28
47.99
58.86
66.85
71.45
72.71
71.22
67.92
63.71
59.26
54.86
50.65
46.80
43.73
42.00
41.97
43.59
46.11
48.58
50.22
50.73
50.34
49.31
47.54
44.39
39.12
31.36
21.69
11.53
2.59
-3.86
-7.47
-8.81
-8.83
-8.32
-7.63
-6.77
-5.99
-5.96
-7.73
-12.11
-19.07
-27.55
-35.67
-41.50
-43.75
-42.13
-37.26
-30.21
-22.15
-14.00
-6.42
0.41
6.89
14.10
23.51
36.41
53.22
72.87
92.88
110.04
121.50
125.72
122.97
115.12
105.10
96.02
90.36
89.31
92.33
97.43
101.88
103.53
101.88
98.50
96.09
96.90
101.34
107.54
112.43
113.44
109.51
101.29
90.54
79.50
70.87
67.84
73.39
89.02
113.40
141.88
167.78
184.85
189.67
182.70
167.30
147.63
126.74
105.79
84.52
62.15
37.81
10.64
-20.51
-56.87
-99.36
-147.76
-200.25
-253.15
-300.89
-337.26
-357.11
-358.42
-343.60
-319.29
-294.16
-275.91
-268.71
-272.24
-283.11
-297.41
-313.20
-331.26
-353.63
-380.80
-409.50
-432.61
-441.47
-429.55
-395.40
-343.25
-280.75
-215.62
-152.52
-92.37
-33.86
23.98
79.57
128.89
167.29
192.03
203.91
206.90
206.10
205.35
205.75
205.65
202.10
192.90
177.94
159.44
140.97
126.03
116.84
113.95
116.48
122.75
130.85
138.85
145.06
148.35
148.51
146.25
142.78
138.88
134.14
126.96
115.41
98.62
77.65
55.45
35.30
19.11
6.17
-6.63
-23.24
-46.57
-77.00
-112.00
-147.06
-177.44
-199.89
-213.70
-220.67
-224.08
-227.18
-231.61
-236.72
-240.07
-238.99
-232.26
-220.96
-208.02
-196.60
-188.71
-184.77
-184.18
-186.31
-190.81
-196.87
-202.43
-204.19
-198.67
-184.24
-162.00
-135.33
-107.80
-81.12
-54.60
-26.75
2.46
30.36
52.03
62.67
59.81
44.36
19.87
-9.11
-38.38
-64.34
-83.56
-92.41
-87.66
-67.93
-35.07
5.49
46.20
79.84
102.08
112.65
114.55
112.02
108.20
104.02
98.45
89.95
78.01
63.84
49.86
38.53
31.06
27.03
24.59
21.54
16.16
7.84
-2.93
-15.08
-27.70
-40.58
-54.29
-69.70
-87.14
-105.88
-124.07
-139.17
-148.80
-151.19
-145.36
-131.18
-109.22
-80.77
-47.89
-13.19
20.59
51.14
77.15
98.38
115.29
128.51
138.33
144.68
147.51
147.40
145.88
145.03
146.57
151.00
157.29
163.48
167.70
168.75
165.98
158.54
145.08
123.98
94.28
56.77
14.24
-29.05
-68.52
-100.36
-122.25
-133.35
-134.13
-126.14
-111.90
-94.65
-77.75
-63.78
-53.92
-47.74
-43.79
-40.43
-36.57
-31.91
-26.64
-20.94
-14.63
-7.03
2.64
14.71
28.70
43.36
57.05
68.35
76.54
81.56
83.50
82.12
76.48
65.39
48.29
26.35
2.76
-17.89
-31.12
-34.38
-28.04
-15.19
-0.30
12.75
21.62
25.71
25.51
21.63
14.66
5.45
-4.26
-11.79
-14.23
-9.66
1.87
18.32
36.38
52.90
65.84
74.62
79.69
82.04
82.65
82.67
83.36
85.96
91.17
98.58
106.48
112.27
113.42
108.50
97.71
82.62
65.23
47.31
29.72
12.72
-3.61
-18.94
-32.48
-43.22
-50.30
-53.25
-52.15
-47.57
-40.35
-31.49
-21.86
-12.19
-2.89
5.78
13.63
20.37
25.60
28.94
30.26
29.79
28.11
25.92
23.83
22.13
20.77
19.49
18.00
16.19
14.10
12.00
10.19
8.94
8.40
8.58
9.46
11.03
13.24
15.92
18.62
20.58
20.81
18.45
13.19
5.41
-3.81
-13.08
-21.00
-26.53
-29.09
-28.48
-24.90
-18.78
-10.82
-1.92
6.95
14.91
21.29
25.85
28.75
30.39
31.28
31.76
31.88
31.53
30.54
28.94
27.03
25.36
24.54
24.86
26.20
28.01
29.56
30.24
29.77
28.23
25.99
23.40
20.65
17.65
14.14
9.93
4.97
-0.46
-5.86
-10.70
-14.45
-16.72
-17.25
-15.91
-12.63
-7.60
-1.21
5.90
12.96
19.22
24.19
27.75
30.16
31.85
33.22
34.39
35.18
35.19
34.08
31.77
28.59
25.20
22.34
20.41
19.45
19.12
18.91
18.50
17.80
16.95
16.15
15.40
14.47
13.01
10.69
7.42
3.32
-1.31
-6.09
-10.68
-14.78
-18.16
-20.61
-21.92
-21.92
-20.43
-17.33
-12.70
-6.85
-0.37
5.98
11.56
15.96
19.11
21.28
22.71
23.51
23.61
22.87
21.35
19.46
17.81
17.03
17.43
18.76
20.30
21.17
20.69
18.64
15.30
11.31
7.28
3.65
0.50
-2.32
-5.00
-7.71
-10.46
-13.23
-15.99
-18.82
-21.75
-24.65
-27.14
-28.61
-28.40
-26.15
-21.96
-16.44
-10.47
-4.83
0.09
4.29
8.03
11.58
14.93
17.80
19.80
20.68
20.51
19.65
18.56
17.59
16.82
16.04
14.91
13.18
10.85
8.19
5.60
3.41
1.69
0.29
-1.17
-2.98
-5.32
-8.13
-11.27
-14.61
-18.17
-22.06
-26.33
-30.70
-34.52
-36.87
-36.89
-34.17
-29.00
-22.28
-15.18
-8.68
-3.25
1.17
5.02
8.68
12.28
15.61
18.24
19.84
20.33
19.93
19.06
18.19
17.56
17.19
16.87
16.30
15.36
14.07
12.63
11.26
10.09
9.03
7.89
6.51
4.80
2.84
0.76
-1.44
-3.89
-6.83
-10.47
-14.75
-19.25
-23.26
-25.93
-26.56
-24.88
-21.09
-15.87
-10.04
-4.35
0.81
5.29
9.15
12.42
15.01
16.80
17.72
17.83
17.33
16.52
15.58
14.62
13.61
12.52
11.41
10.44
9.85
9.83
10.32
11.08
11.65
11.54
10.48
8.44
5.73
2.75
-0.11
-2.66
-4.89
-6.80
-8.45
-9.81
-10.91
-11.85
-12.86
-14.18
-15.93
-18.02
-20.14
-21.82
-22.61
-22.24
-20.70
-18.18
-14.98
-11.40
-7.60
-3.65
0.38
4.28
7.71
10.19
11.37
11.17
9.91
8.17
6.61
5.72
5.60
6.04
6.63
7.00
7.03
6.81
6.59
6.50
6.45
6.14
5.25
3.64
1.45
-0.88
-2.94
-4.49
-5.67
-6.85
-8.48
-10.85
-13.98
-17.68
-21.58
-25.30
-28.47
-30.69
-31.63
-31.04
-28.86
-25.29
-20.72
-15.69
-10.71
-6.20
-2.40
0.58
2.78
4.30
5.27
5.79
5.89
5.53
4.73
3.72
2.98
3.14
4.65
7.51
11.10
14.40
16.41
16.63
15.22
12.87
10.32
7.98
5.79
3.41
0.62
-2.47
-5.41
-7.72
-9.28
-10.53
-12.17
-14.94
-19.02
-23.93
-28.57
-31.70
-32.39
-30.41
-26.18
-20.56
-14.48
-8.61
-3.21
1.75
6.41
10.78
14.69
17.79
19.75
20.50
20.29
19.65
19.19
19.33
20.05
20.92
21.41
21.09
19.96
18.39
16.89
15.77
14.99
14.14
12.79
10.68
7.95
5.02
2.33
0.15
-1.58
-3.11
-4.74
-6.70
-9.05
-11.76
-14.77
-18.05
-21.53
-25.03
-28.18
-30.45
-31.31
-30.36
-27.58
-23.35
-18.30
-13.10
-8.20
-3.74
0.43
4.55
8.73
12.86
16.59
19.53
21.48
22.45
22.69
22.54
22.21
21.77
21.15
20.29
19.29
18.48
18.15
18.45
19.14
19.70
19.54
18.38
16.33
13.88
11.60
9.75
8.21
6.56
4.34
1.40
-2.10
-5.72
-9.01
-11.65
-13.68
-15.34
-16.97
-18.92
-21.34
-24.19
-27.17
-29.85
-31.81
-32.76
-32.60
-31.38
-29.17
-26.01
-21.89
-16.90
-11.32
-5.65
-0.58
3.36
5.89
7.16
7.66
7.97
8.52
9.46
10.62
11.67
12.31
12.39
12.00
11.43
10.95
10.75
10.80
10.86
10.58
9.58
7.66
4.85
1.45
-2.08
-5.24
-7.71
-9.54
-11.13
-13.11
-16.05
-20.14
-25.04
-30.00
-34.27
-37.40
-39.43
-40.86
-42.30
-44.18
-46.65
-49.59
-52.51
-54.20
-52.72
-46.02
-33.06
-15.19
3.48
17.34
21.55
14.29
-2.30
-22.98
-41.69
-54.07
-59.01
-58.51
-56.14
-55.29
-57.71
-63.30
-70.64
-78.10
-84.66
-90.21
-95.70
-102.13
-109.78
-117.86
-124.64
-128.03
-126.41
-119.29
-107.57
-93.13
-78.27
-65.07
-54.62
-46.93
-40.97
-35.20
-28.12
-18.74
-6.74
7.58
23.37
39.20
53.27
63.64
68.96
69.08
65.32
59.97
55.38
52.82
52.06
51.81
50.27
46.07
38.88
29.15
17.82
5.79
-6.23
-17.45
-26.73
-32.35
-32.41
-25.48
-11.36
8.31
30.23
50.08
63.74
68.54
64.21
53.08
39.53
28.66
24.94
31.21
48.18
74.50
107.22
142.16
174.62
200.21
215.81
220.24
214.51
201.26
183.67
164.37
144.79
125.25
105.69
86.32
67.80
51.08
36.76
24.83
14.85
6.39
-0.47
-5.16
-6.91
-5.35
-0.84
5.40
11.86
17.27
21.13
23.87
26.33
29.22
32.60
35.77
37.69
37.56
35.36
31.83
28.12
25.17
23.15
21.38
18.76
14.41
8.25
1.15
-5.46
-10.21
-12.43
-12.39
-11.05
-9.59
-8.81
-8.87
-9.38
-9.70
-9.38
-8.39
-7.00
-5.58
-4.27
-2.93
-1.23
1.07
3.88
6.66
8.69
9.36
8.59
6.80
4.79
3.30
2.64
2.58
2.62
2.35
1.75
1.21
1.29
2.27
3.86
5.27
5.60
4.31
1.52
-2.07
-5.56
-8.26
-10.04
-11.30
-12.65
-14.54
-17.01
-19.65
-21.92
-23.41
-24.12
-24.42
-24.86
-25.77
-26.96
-27.75
-27.30
-25.02
-20.95
-15.81
-10.67
-6.41
-3.28
-0.87
1.61
4.80
8.75
12.83
16.05
17.66
17.46
15.93
13.89
12.06
10.67
9.43
7.84
5.57
2.81
0.16
-1.58
-1.96
-1.14
0.14
0.90
0.38
-1.53
-4.32
-7.11
-9.18
-10.37
-11.13
-12.19
-14.14
-17.07
-20.54
-23.91
-26.74
-28.97
-30.90
-32.72
-34.26
-34.88
-33.78
-30.42
-24.98
-18.38
-11.85
-6.50
-2.79
-0.44
1.22
2.85
4.65
6.28
7.13
6.80
5.37
3.52
2.18
2.05
3.19
5.03
6.58
7.10
6.42
4.98
3.57
2.76
2.51
2.23
1.10
-1.31
-4.76
-8.36
-11.08
-12.28
-12.15
-11.59
-11.83
-13.71
-17.32
-21.88
-26.13
-28.87
-29.45
-27.96
-25.01
-21.30
-17.28
-13.04
-8.46
-3.60
1.12
4.93
7.05
7.15
5.64
3.49
1.91
1.69
2.93
4.97
6.86
7.85
7.77
7.08
6.48
6.49
7.10
7.77
7.71
6.37
3.73
0.33
-3.00
-5.53
-6.96
-7.52
-7.74
-8.15
-9.07
-10.47
-12.23
-14.24
-16.67
-19.71
-23.41
-27.28
-30.37
-31.51
-29.84
-25.26
-18.59
-11.26
-4.70
0.17
3.25
5.07
6.33
7.39
8.11
7.98
6.58
3.97
0.70
-2.37
-4.59
-5.87
-6.72
-7.93
-10.12
-13.38
-17.23
-20.92
-23.90
-26.04
-27.65
-29.25
-31.13
-33.19
-34.89
-35.58
-34.75
-32.32
-28.73
-24.73
-21.16
-18.56
-17.10
-16.47
-16.12
-15.52
-14.43
-12.96
-11.44
-10.13
-8.98
-7.61
-5.48
-2.26
1.88
6.23
9.74
11.42
10.70
7.59
2.68
-3.04
-8.35
-12.13
-13.50
-12.11
-8.20
-2.58
3.55
8.97
12.83
14.85
15.36
15.21
15.31
16.34
18.41
20.96
23.06
23.73
22.49
19.59
16.08
13.46
13.09
15.65
20.86
27.62
34.50
40.19
44.01
45.86
46.06
45.01
43.10
40.76
38.66
37.69
38.73
42.29
48.07
54.96
61.26
65.32
65.91
62.63
55.90
46.77
36.66
27.12
19.55
14.97
13.93
16.42
21.86
29.27
37.29
44.46
49.32
50.82
48.59
43.05
35.23
26.38
17.44
8.83
0.51
-7.77
-16.12
-24.42
-32.37
-39.88
-47.22
-55.00
-63.86
-73.97
-84.80
-94.98
-102.72
-106.26
-104.53
-97.57
-86.61
-73.85
-61.89
-53.01
-48.76
-49.75
-55.83
-66.18
-79.53
-93.93
-106.97
-116.00
-118.81
-114.30
-102.94
-86.64
-68.06
-49.83
-33.85
-21.06
-11.72
-5.58
-2.27
-1.29
-1.96
-3.33
-4.38
-4.17
-2.03
2.31
8.68
16.46
24.81
32.77
39.44
44.15
46.46
46.18
43.30
38.04
30.86
22.54
14.12
6.66
1.05
-2.33
-3.66
-3.57
-2.84
-2.07
-1.51
-1.18
-1.00
-1.16
-2.04
-4.12
-7.67
-12.54
-18.19
-23.84
-28.88
-32.94
-35.90
-37.65
-37.93
-36.24
-32.08
-25.15
-15.59
-4.07
8.38
20.55
31.38
40.04
46.07
49.34
49.95
48.24
44.65
39.67
33.88
27.99
22.80
19.16
17.84
19.32
23.69
30.62
39.54
49.84
60.92
72.32
83.42
93.36
100.97
104.97
104.39
98.94
89.06
75.83
60.47
43.93
26.69
8.93
-9.15
-26.96
-43.44
-57.34
-67.66
-74.03
-76.82
-76.88
-75.10
-72.04
-67.89
-62.71
-56.77
-50.78
-45.68
-42.31
-40.85
-40.74
-40.88
-40.18
-38.09
-34.84
-31.25
-28.23
-26.23
-25.06
-24.01
-22.31
-19.51
-15.85
-12.15
-9.43
-8.49
-9.58
-12.42
-16.40
-20.93
-25.59
-30.07
-33.94
-36.50
-36.83
-34.13
-28.14
-19.37
-9.02
1.43
10.75
18.35
24.28
28.99
33.00
36.44
39.04
40.31
39.86
37.68
34.27
30.51
27.29
25.13
23.99
23.35
22.56
21.15
19.09
16.67
14.30
12.15
10.09
7.77
4.97
1.75
-1.46
-4.21
-6.28
-7.99
-9.93
-12.70
-16.34
-20.17
-22.97
-23.48
-20.97
-15.52
-8.03
0.22
8.11
14.99
20.72
25.48
29.35
32.22
33.74
33.61
31.87
29.08
26.15
24.09
23.48
24.27
25.79
27.02
27.15
25.86
23.45
20.59
17.98
15.94
14.44
13.13
11.66
9.88
7.88
5.79
3.58
0.94
-2.72
-7.81
-14.27
-21.32
-27.65
-31.77
-32.67
-30.14
-24.83
-17.85
-10.23
-2.65
4.68
11.82
18.65
24.78
29.64
32.71
33.89
33.54
32.34
30.95
29.70
28.53
27.07
24.95
22.04
18.55
14.97
11.81
9.35
7.56
6.12
4.67
3.00
1.20
-0.43
-1.51
-1.93
-1.94
-2.16
-3.30
-5.88
-9.91
-14.84
-19.73
-23.62
-25.85
-26.22
-24.86
-22.10
-18.22
-13.41
-7.87
-1.99
3.64
8.36
11.66
13.43
13.99
13.93
13.85
14.09
14.60
15.04
15.05
14.43
13.23
11.67
10.03
8.48
6.96
5.27
3.27
0.98
-1.33
-3.22
-4.33
-4.58
-4.27
-3.94
-4.10
-4.95
-6.40
-8.12
-9.94
-11.91
-14.33
-17.46
-21.12
-24.66
-26.98
-27.06
-24.42
-19.41
-13.03
-6.62
-1.20
2.78
5.53
7.60
9.49
11.37
13.02
14.10
14.37
13.96
13.22
12.53
11.96
11.22
9.82
7.48
4.38
1.13
-1.50
-2.93
-3.15
-2.70
-2.32
-2.61
-3.69
-5.23
-6.71
-7.77
-8.44
-9.12
-10.34
-12.38
-15.21
-18.36
-21.18
-23.10
-23.83
-23.38
-21.98
-19.90
-17.31
-14.25
-10.73
-6.80
-2.72
1.12
4.23
6.29
7.25
7.37
7.08
6.80
6.73
6.74
6.57
5.94
4.84
3.50
2.31
1.57
1.33
1.33
1.20
0.65
-0.34
-1.53
-2.58
-3.23
-3.48
-3.57
-3.87
-4.58
-5.66
-6.85
-7.83
-8.47
-9.01
-10.00
-11.95
-15.08
-19.00
-22.80
-25.32
-25.69
-23.68
-19.81
-15.06
-10.44
-6.54
-3.37
-0.53
2.39
5.48
8.40
10.59
11.64
11.51
10.54
9.33
8.39
7.90
7.71
7.49
7.03
6.34
5.66
5.28
5.37
5.77
6.08
5.94
5.20
4.11
3.14
2.77
3.05
3.56
3.60
2.54
0.22
-2.90
-6.05
-8.51
-9.98
-10.73
-11.34
-12.37
-14.09
-16.36
-18.76
-20.78
-22.06
-22.44
-21.93
-20.59
-18.41
-15.31
-11.21
-6.18
-0.60
4.88
9.44
12.51
13.96
14.15
13.76
13.45
13.46
13.65
13.60
13.02
11.97
10.88
10.30
10.54
11.46
12.49
12.90
12.19
10.34
7.81
5.30
3.35
2.08
1.17
0.04
-1.74
-4.18
-6.91
-9.28
-10.83
-11.47
-11.62
-11.98
-13.17
-15.44
-18.52
-21.76
-24.42
-26.00
-26.38
-25.71
-24.25
-22.09
-19.15
-15.26
-10.46
-5.12
0.06
4.26
6.99
8.17
8.22
7.80
7.44
7.32
7.17
6.55
5.22
3.36
1.54
0.51
0.75
2.20
4.22
5.97
6.76
6.46
5.40
4.16
3.16
2.37
1.37
-0.35
-3.02
-6.32
-9.52
-11.78
-12.70
-12.47
-11.95
-12.13
-13.71
-16.65
-20.20
-23.23
-24.79
-24.44
-22.37
-19.16
-15.34
-11.23
-6.89
-2.28
2.38
6.66
9.94
11.81
12.19
11.46
10.26
9.17
8.48
8.10
7.68
6.91
5.74
4.41
3.37
3.02
3.46
4.40
5.33
5.73
5.33
4.21
2.70
1.12
-0.35
-1.77
-3.33
-5.11
-7.05
-8.92
-10.47
-11.65
-12.69
-14.02
-16.01
-18.66
-21.51
-23.67
-24.18
-22.35
-18.16
-12.28
-5.85
-0.04
4.37
7.16
8.67
9.42
9.81
9.94
9.69
8.96
7.92
6.98
6.71
7.39
8.78
10.23
10.95
10.51
9.00
6.97
5.13
3.90
3.23
2.65
1.61
-0.13
-2.39
-4.65
-6.32
-7.13
-7.24
-7.20
-7.69
-9.16
-11.59
-14.50
-17.11
-18.67
-18.81
-17.58
-15.37
-12.58
-9.44
-5.96
-2.08
2.03
5.88
8.76
10.09
9.73
8.09
6.01
4.31
3.41
3.19
3.15
2.78
1.94
0.85
-0.01
-0.29
-0.11
0.01
-0.62
-2.44
-5.39
-8.90
-12.20
-14.74
-16.45
-17.74
-19.26
-21.44
-24.23
-27.02
-28.92
-29.14
-27.41
-24.00
-19.63
-15.03
-10.71
-6.82
-3.26
0.07
3.04
5.31
6.52
6.53
5.58
4.27
3.34
3.35
4.43
6.24
8.17
9.67
10.47
10.68
10.71
10.91
11.35
11.80
11.87
11.30
10.18
8.88
7.86
7.28
6.91
6.15
4.35
1.27
-2.74
-6.72
-9.41
-9.64
-6.75
-0.77
7.63
17.36
27.27
36.47
44.55
51.47
57.47
62.75
67.29
70.85
73.08
73.77
72.93
70.90
68.09
64.88
61.41
57.65
53.45
48.59
42.85
36.02
27.92
18.20
6.52
-7.62
-24.71
-45.22
-69.49
-97.95
-131.21
-169.93
-214.15
-262.27
-310.27
-351.86
-379.85
-388.57
-375.90
-344.18
-299.19
-247.75
-195.25
-144.39
-95.75
-49.47
-6.82
29.44
56.23
71.76
76.87
74.89
70.30
66.90
66.60
69.03
72.50
75.26
76.37
76.02
74.99
73.93
72.86
71.20
68.19
63.50
57.44
50.96
45.21
40.90
38.01
35.78
33.20
29.63
25.24
21.17
18.94
19.88
24.46
32.17
41.79
52.00
61.83
70.84
78.99
86.22
92.27
96.71
99.23
99.88
99.06
97.36
95.23
92.75
89.75
85.99
81.42
76.43
71.63
67.64
64.77
62.73
60.82
58.17
54.23
48.99
42.95
36.84
31.17
25.91
20.50
14.16
6.42
-2.60
-12.06
-20.72
-27.42
-31.47
-32.73
-31.56
-28.46
-23.80
-17.80
-10.67
-2.83
4.99
11.85
17.00
20.14
21.54
21.82
21.69
21.43
20.87
19.58
17.25
14.02
10.52
7.59
5.91
5.56
6.01
6.38
5.81
3.85
0.60
-3.40
-7.46
-11.13
-14.34
-17.40
-20.79
-24.92
-29.91
-35.59
-41.56
-47.42
-52.69
-56.89
-59.40
-59.48
-56.45
-50.00
-40.36
-28.43
-15.53
-3.00
8.26
17.86
25.95
32.93
39.05
44.23
48.04
49.96
49.71
47.58
44.36
41.13
38.78
37.66
37.43
37.36
36.74
35.26
33.13
30.81
28.68
26.71
24.46
21.35
17.09
11.86
6.33
1.28
-2.83
-6.04
-8.88
-12.06
-16.08
-20.99
-26.47
-32.10
-37.66
-43.24
-49.04
-55.01
-60.53
-64.38
-65.15
-61.77
-54.12
-43.10
-30.37
-17.65
-6.14
3.85
12.72
21.09
29.24
36.77
42.88
46.74
48.10
47.37
45.54
43.61
42.13
41.00
39.68
37.66
34.81
31.56
28.64
26.66
25.69
25.18
24.29
22.23
18.79
14.36
9.80
5.88
2.91
0.60
-1.80
-4.94
-9.09
-13.89
-18.64
-22.65
-25.67
-27.98
-30.20
-33.03
-36.93
-42.00
-48.03
-54.54
-61.01
-66.79
-71.20
-73.53
-73.16
-69.74
-63.27
-54.28
-43.66
-32.65
-22.40
-13.73
-6.91
-1.73
2.30
5.66
8.48
10.49
11.21
10.37
8.21
5.47
3.16
2.09
2.49
3.98
5.81
7.34
8.36
9.08
9.85
10.80
11.61
11.66
10.37
7.70
4.14
0.62
-2.07
-3.66
-4.50
-5.38
-7.03
-9.68
-12.94
-15.97
-17.93
-18.42
-17.71
-16.58
-16.02
-16.77
-19.02
-22.45
-26.36
-30.00
-32.80
-34.29
-34.08
-31.75
-26.95
-19.55
-9.92
1.04
12.07
21.91
29.73
35.34
39.07
41.56
43.33
44.58
45.15
44.74
43.12
40.39
37.02
33.73
31.18
29.78
29.50
29.95
30.69
31.36
31.88
32.28
32.49
32.22
30.99
28.40
24.41
19.53
14.58
10.44
7.55
5.77
4.47
2.85
0.40
-2.87
-6.49
-9.89
-12.78
-15.39
-18.28
-21.97
-26.34
-30.61
-33.42
-33.50
-30.21
-23.88
-15.67
-6.99
1.05
7.91
13.58
18.21
21.81
24.10
24.74
23.58
20.89
17.37
13.86
11.07
9.30
8.42
8.04
7.68
7.09
6.26
5.38
4.71
4.31
3.94
3.16
1.52
-1.14
-4.68
-8.58
-12.33
-15.55
-18.32
-21.05
-24.31
-28.43
-33.33
-38.44
-42.83
-45.55
-45.86
-43.49
-38.68
-31.99
-24.10
-15.63
-7.09
1.07
8.37
14.25
18.30
20.40
20.83
20.29
19.48
18.83
18.31
17.46
15.79
13.21
10.11
7.24
5.26
4.39
4.21
3.99
3.02
1.07
-1.58
-4.31
-6.56
-8.22
-9.61
-11.31
-13.83
-17.38
-21.78
-26.63
-31.39
-35.54
-38.55
-39.89
-39.06
-35.65
-29.60
-21.32
-11.64
-1.73
7.27
14.51
19.66
22.93
24.88
26.17
27.20
28.04
28.44
28.05
26.69
24.52
21.98
19.58
17.65
16.13
14.65
12.68
9.89
6.35
2.54
-0.90
-3.52
-5.28
-6.63
-8.27
-10.77
-14.31
-18.65
-23.30
-27.78
-31.83
-35.27
-37.94
-39.37
-38.87
-35.80
-29.84
-21.35
-11.37
-1.35
7.34
13.81
17.95
20.32
21.76
22.96
24.08
24.74
24.28
22.25
18.69
14.22
9.77
6.07
3.41
1.51
-0.20
-2.18
-4.56
-7.03
-9.15
-10.66
-11.68
-12.71
-14.34
-16.88
-20.24
-23.96
-27.53
-30.69
-33.63
-36.74
-40.24
-43.78
-46.38
-46.72
-43.73
-37.14
-27.70
-16.87
-6.29
2.88
10.15
15.70
20.01
23.45
26.11
27.83
28.42
27.97
26.88
25.74
25.01
24.82
24.85
24.59
23.63
21.96
19.93
18.12
16.91
16.23
15.54
14.05
11.27
7.19
2.37
-2.38
-6.37
-9.41
-11.91
-14.61
-18.23
-23.08
-28.86
-34.73
-39.57
-42.39
-42.61
-40.15
-35.33
-28.67
-20.71
-11.93
-2.83
6.13
14.40
21.49
27.07
31.04
33.58
35.04
35.79
36.03
35.72
34.69
32.74
29.97
26.67
23.35
20.46
18.20
16.35
14.41
11.92
8.69
4.98
1.35
-1.65
-3.78
-5.32
-6.91
-9.18
-12.38
-16.25
-20.12
-23.43
-26.07
-28.56
-31.78
-36.45
-42.64
-49.70
-56.53
-62.23
-66.52
-69.85
-72.90
-76.04
-78.92
-80.50
-79.58
-75.54
-68.63
-60.05
-51.38
-43.86
-37.99
-33.38
-29.13
-24.42
-18.95
-13.10
-7.69
-3.61
-1.30
-0.63
-1.03
-1.80
-2.53
-3.18
-3.96
-5.07
-6.48
-7.91
-9.08
-9.96
-10.92
-12.53
-15.25
-18.95
-22.84
-25.59
-25.90
-22.97
-16.90
-8.52
1.00
10.63
19.79
28.31
36.23
43.48
49.73
54.55
57.63
59.07
59.34
59.18
59.27
59.92
61.05
62.25
63.15
63.52
63.44
63.16
62.92
62.64
61.92
60.22
57.11
52.61
47.18
41.59
36.52
32.27
28.66
25.12
21.04
16.04
10.17
3.84
-2.23
-7.30
-10.70
-12.02
-11.03
-7.75
-2.37
4.69
12.84
21.35
29.40
36.29
41.65
45.42
47.94
49.68
51.00
51.97
52.38
51.82
50.01
46.98
43.11
38.98
35.14
31.88
29.16
26.71
24.16
21.29
18.01
14.34
10.29
5.71
0.45
-5.60
-12.23
-19.03
-25.46
-31.23
-36.51
-41.91
-48.17
-55.61
-63.63
-70.78
-75.11
-74.93
-69.52
-59.45
-46.30
-32.12
-18.69
-7.09
2.38
9.97
16.09
20.96
24.58
26.84
27.79
27.78
27.38
27.12
27.30
27.75
27.91
27.24
25.48
22.78
19.73
16.88
14.53
12.50
10.28
7.33
3.46
-1.14
-5.96
-10.46
-14.39
-17.82
-21.09
-24.57
-28.40
-32.41
-36.35
-40.06
-43.75
-47.91
-53.13
-59.62
-66.92
-73.80
-78.65
-79.95
-76.98
-69.99
-60.11
-48.78
-37.24
-26.15
-15.64
-5.69
3.52
11.44
17.37
20.78
21.68
20.65
18.59
16.39
14.56
13.19
12.20
11.53
11.43
12.33
14.71
18.67
23.79
29.11
33.41
35.68
35.44
32.83
28.43
22.92
16.77
10.17
3.17
-4.01
-10.85
-16.70
-21.03
-23.81
-25.59
-27.25
-29.54
-32.54
-35.50
-37.09
-35.88
-31.03
-22.62
-11.72
0.13
11.47
21.36
29.50
36.03
41.09
44.61
46.26
45.76
43.22
39.31
35.13
31.80
29.99
29.65
30.11
30.47
30.06
28.83
27.24
25.91
25.19
24.82
24.06
22.07
18.35
13.09
7.04
1.15
-3.97
-8.18
-11.89
-15.64
-19.76
-24.18
-28.50
-32.37
-35.61
-38.31
-40.55
-42.09
-42.18
-39.85
-34.23
-25.09
-13.15
0.14
13.01
24.01
32.45
38.41
42.52
45.46
47.64
48.99
49.23
48.14
45.90
43.16
40.72
39.27
38.88
39.09
39.17
38.47
36.85
34.67
32.56
30.95
29.77
28.41
26.08
22.29
17.16
11.40
6.00
1.61
-1.75
-4.74
-8.32
-13.21
-19.45
-26.33
-32.66
-37.21
-39.19
-38.43
-35.31
-30.39
-24.18
-16.97
-8.95
-0.31
8.45
16.63
23.43
28.23
30.89
31.73
31.44
30.65
29.69
28.45
26.53
23.63
19.76
15.47
11.50
8.48
6.58
5.35
4.10
2.17
-0.59
-3.83
-6.86
-9.18
-10.71
-11.93
-13.59
-16.26
-20.07
-24.64
-29.27
-33.30
-36.30
-38.02
-38.28
-36.72
-32.94
-26.66
-18.03
-7.90
2.47
11.70
18.87
23.82
27.05
29.36
31.44
33.41
34.89
35.28
34.24
32.05
29.55
27.90
28.00
30.06
33.48
37.11
39.76
40.76
40.24
38.95
37.98
38.18
39.90
42.81
46.13
48.76
49.66
48.00
43.39
36.12
27.19
18.31
11.61
9.18
12.39
21.15
33.44
45.61
53.23
52.34
40.72
18.21
-13.96
-54.33
-101.78
-154.96
-210.98
-264.30
-307.17
-331.83
-333.37
-311.86
-272.47
-223.56
-174.08
-131.40
-100.26
-82.70
-77.90
-82.11
-88.79
-89.88
-78.23
-50.41
-8.38
40.99
88.65
126.47
149.38
155.70
146.09
122.25
86.62
43.12
-2.24
-41.66
-67.45
-74.66
-63.08
-37.30
-4.91
26.13
49.73
62.37
62.68
50.81
28.22
-1.91
-34.52
-63.56
-83.73
-92.28
-89.90
-79.87
-66.18
-51.50
-36.43
-20.21
-2.16
16.96
34.84
48.54
55.93
56.68
52.37
45.70
39.45
35.55
34.82
37.19
42.10
49.03
57.61
67.50
78.12
88.56
97.57
103.86
106.58
105.60
101.61
95.81
89.40
83.13
77.04
70.63
63.28
54.72
45.31
35.93
27.68
21.34
17.10
14.40
12.27
9.72
6.15
1.58
-3.49
-8.44
-12.91
-16.96
-21.05
-25.65
-30.93
-36.51
-41.56
-45.07
-46.29
-44.91
-41.09
-35.28
-27.94
-19.52
-10.46
-1.23
7.56
15.34
21.63
26.19
29.13
30.70
31.31
31.30
30.94
30.28
29.29
27.90
26.11
24.09
22.19
20.72
19.81
19.22
18.48
17.17
15.13
12.58
9.94
7.46
5.07
2.32
-1.32
-6.06
-11.67
-17.51
-22.92
-27.52
-31.49
-35.42
-39.95
-45.38
-51.38
-57.06
-61.24
-62.92
-61.59
-57.36
-50.81
-42.62
-33.37
-23.39
-12.88
-2.12
8.37
17.88
25.69
31.47
35.33
37.82
39.63
41.24
42.72
43.79
43.99
43.09
41.24
38.97
36.95
35.70
35.29
35.36
35.30
34.54
32.78
30.11
26.86
23.40
19.93
16.48
12.91
9.14
5.14
1.01
-3.16
-7.36
-11.65
-16.11
-20.74
-25.43
-29.96
-34.19
-38.18
-42.22
-46.79
-52.27
-58.56
-64.90
-69.91
-71.90
-69.56
-62.55
-51.68
-38.77
-25.93
-14.82
-6.17
0.18
4.91
8.62
11.48
13.32
13.96
13.59
12.79
12.30
12.59
13.62
14.79
15.31
14.78
13.42
12.05
11.68
12.95
15.75
19.22
22.10
23.33
22.48
19.77
15.92
11.67
7.41
3.07
-1.71
-7.19
-13.27
-19.39
-24.82
-28.91
-31.43
-32.59
-32.93
-33.02
-33.25
-33.78
-34.61
-35.85
-37.66
-40.19
-43.28
-46.27
-48.07
-47.43
-43.44
-35.91
-25.50
-13.54
-1.48
9.58
19.13
27.27
34.40
40.88
46.72
51.61
55.13
57.04
57.49
56.92
55.85
54.59
53.08
51.05
48.27
44.84
41.26
38.24
36.34
35.62
35.65
35.62
34.82
32.91
30.00
26.48
22.65
18.39
13.14
6.21
-2.81
-13.53
-24.77
-34.81
-42.06
-45.71
-46.02
-44.18
-41.81
-40.32
-40.52
-42.59
-46.16
-50.65
-55.36
-59.53
-62.24
-62.53
-59.59
-53.11
-43.50
-31.87
-19.77
-8.75
0.13
6.50
10.63
13.17
14.76
15.78
16.31
16.21
15.42
14.12
12.78
11.99
12.16
13.34
15.11
16.78
17.72
17.64
16.74
15.52
14.47
13.79
13.24
12.38
10.78
8.37
5.42
2.50
0.05
-1.74
-3.06
-4.36
-6.04
-8.36
-11.35
-14.92
-19.00
-23.62
-28.85
-34.48
-39.86
-43.93
-45.48
-43.75
-38.87
-31.92
-24.56
-18.33
-13.97
-11.32
-9.67
-8.46
-7.79
-8.46
-11.49
-17.37
-25.67
-35.16
-44.40
-52.43
-59.10
-64.87
-70.31
-75.64
-80.45
-83.77
-84.18
-79.99
-69.61
-52.16
-28.35
-1.07
24.78
43.50
50.50
44.05
26.01
1.18
-24.55
-46.13
-60.79
-68.28
-70.11
-68.39
-64.72
-59.54
-52.19
-41.47
-26.39
-6.90
15.85
39.80
62.50
81.88
96.71
106.67
112.06
113.54
111.92
108.09
103.10
98.05
93.87
91.05
89.44
88.16
85.95
81.62
74.39
64.25
51.92
38.77
26.56
17.04
11.51
10.38
12.97
17.61
22.24
25.15
25.60
24.01
21.55
19.42
18.13
17.23
15.69
12.67
8.19
3.31
-0.15
-0.47
3.20
10.48
19.98
30.03
39.54
48.33
57.05
66.53
77.24
88.87
100.52
110.97
118.88
123.11
122.80
117.41
106.86
91.56
72.88
53.56
37.43
28.50
29.51
40.52
58.19
76.45
88.18
87.97
74.39
50.46
22.04
-4.48
-24.50
-36.39
-40.90
-40.40
-37.13
-32.39
-26.59
-20.54
-15.02
-10.65
-7.52
-4.78
-2.63
-1.78
-3.33
-8.66
-20.38
-40.00
-66.84
-97.73
-126.77
-150.15
-165.70
-172.72
-172.30
-168.89
-166.78
-168.36
-173.01
-176.23
-176.35
-173.05
-166.32
-156.72
-147.65
-142.04
-141.30
-144.92
-149.26
-155.21
-164.62
-177.79
-172.88
-133.30
-55.62
46.51
135.50
204.67
254.94
288.33
311.70
327.61
334.47
330.82
317.13
296.49
275.83
257.49
241.91
229.28
219.14
208.91
196.49
181.27
164.32
149.21
135.79
122.43
107.91
91.19
70.38
44.80
15.37
-15.73
-45.24
-73.16
-101.44
-132.32
-167.65
-209.47
-255.96
-300.56
-333.69
-346.04
-333.59
-298.21
-246.40
-187.79
-135.83
-100.00
-83.28
-83.14
-94.89
-114.65
-139.44
-166.07
-191.71
-219.18
-249.05
-278.20
-301.79
-317.48
-327.02
-334.95
-345.93
-364.84
-402.19
-462.15
-539.20
-619.99
-689.91
-738.41
-761.01
-758.49
-689.52
-545.12
-352.40
-158.30
2.25
118.68
195.93
238.49
259.83
268.36
262.99
245.30
222.06
202.52
192.40
191.75
197.29
206.70
218.32
227.08
231.66
234.96
241.52
253.53
269.53
286.56
303.27
319.42
333.27
345.80
360.81
382.95
414.18
451.74
488.77
516.75
527.34
513.99
476.10
419.10
351.71
281.76
213.27
146.14
78.11
7.03
-67.04
-140.16
-205.55
-256.31
-288.54
-303.27
-306.06
-304.69
-306.11
-313.32
-324.45
-334.04
-336.00
-326.53
-305.60
-276.47
-243.71
-211.04
-180.16
-151.03
-123.02
-96.01
-70.88
-49.17
-32.04
-19.40
-9.78
-0.91
9.26
21.82
36.57
52.44
68.51
85.06
103.76
126.72
154.75
185.68
214.09
232.77
235.65
220.20
188.52
146.28
100.13
55.35
14.61
-21.58
-53.64
-81.68
-105.30
-124.11
-138.29
-148.76
-156.64
-162.52
-166.05
-166.16
-161.46
-150.93
-134.33
-112.28
-86.16
-57.77
-28.96
-1.16
24.71
48.50
70.70
92.19
114.00
136.96
161.74
188.68
217.73
248.24
278.75
306.94
329.97
345.09
350.46
345.73
332.08
311.75
287.12
259.92
230.90
200.30
168.71
137.83
110.54
89.94
78.01
74.38
76.22
79.21
79.25
74.12
64.02
50.85
36.87
23.29
9.88
-4.44
-20.37
-37.29
-53.06
-64.84
-70.31
-68.81
-61.47
-50.77
-39.26
-28.73
-19.70
-11.84
-4.65
2.00
7.79
12.14
14.54
14.85
13.23
10.11
6.28
2.83
1.12
2.13
5.76
10.37
13.01
10.48
0.66
-17.12
-42.43
-74.52
-112.35
-153.69
-194.17
-227.42
-247.14
-250.01
-237.64
-216.00
-192.40
-171.86
-155.10
-139.49
-121.80
-101.05
-79.08
-59.01
-42.94
-30.53
-19.54
-7.47
7.03
23.91
42.56
62.41
83.17
104.37
124.91
143.18
157.81
168.44
176.21
183.38
192.31
204.36
219.04
234.18
246.85
254.75
257.40
256.35
254.49
254.68
258.38
264.95
271.90
275.83
273.67
263.68
245.60
220.44
189.99
156.45
122.13
89.39
60.55
37.63
22.09
14.47
14.13
19.15
26.61
33.09
35.47
31.64
20.77
3.25
-19.80
-46.73
-75.39
-102.82
-125.49
-139.87
-143.73
-137.39
-124.16
-109.55
-99.54
-98.29
-106.63
-121.83
-138.60
-151.08
-154.74
-147.70
-131.08
-108.31
-83.95
-62.40
-46.95
-39.29
-39.30
-45.24
-53.82
-60.76
-61.76
-53.76
-36.23
-11.83
14.10
35.03
45.23
41.35
23.10
-7.13
-45.25
-86.62
-127.03
-163.51
-195.12
-222.81
-248.59
-274.12
-299.27
-321.60
-337.21
-342.44
-335.69
-318.12
-292.92
-263.56
-232.38
-200.26
-167.46
-134.94
-105.06
-81.05
-65.60
-59.44
-60.89
-66.53
-72.87
-77.95
-82.17
-87.96
-98.50
-116.06
-140.87
-170.74
-201.57
-228.37
-246.53
-252.89
-246.20
-227.32
-198.80
-164.13
-126.89
-90.01
-55.47
-24.40
2.53
24.87
42.39
55.35
64.81
72.57
80.79
91.45
105.95
124.85
147.60
172.46
196.61
216.53
228.80
231.24
223.65
208.09
188.18
167.87
150.16
136.49
126.78
120.19
115.80
112.95
111.12
109.54
107.20
103.16
97.25
90.33
84.17
80.64
80.80
84.39
89.92
95.43
99.37
101.13
101.06
100.02
98.87
97.99
97.27
96.23
94.31
91.12
86.58
81.02
74.98
69.14
64.07
60.10
57.15
54.86
52.66
50.04
46.79
42.97
38.97
35.06
31.34
27.54
23.24
18.11
12.15
5.82
-0.25
-5.46
-9.47
-12.11
-13.31
-12.92
-10.77
-6.87
-1.52
4.60
10.60
15.63
19.21
21.29
22.23
22.54
22.63
22.67
22.53
21.96
20.71
18.70
15.88
12.17
7.33
1.08
-6.71
-15.76
-25.20
-33.78
-40.28
-43.88
-44.51
-42.82
-39.89
-36.77
-34.18
-32.28
-30.86
-29.64
-28.50
-27.66
-27.46
-28.23
-29.91
-32.10
-34.19
-35.54
-35.83
-35.07
-33.53
-31.55
-29.42
-27.28
-25.15
-23.00
-20.79
-18.53
-16.22
-13.92
-11.64
-9.35
-6.93
-4.21
-1.08
2.38
5.94
9.27
12.09
14.29
15.99
17.32
18.33
18.79
18.37
16.74
13.84
9.98
5.76
1.79
-1.62
-4.54
-7.34
-10.41
-13.92
-17.62
-21.09
-23.92
-26.07
-27.91
-30.01
-32.82
-36.28
-39.81
-42.38
-42.90
-40.63
-35.45
-27.83
-18.68
-9.00
0.43
9.12
16.81
23.32
28.39
31.63
32.70
31.51
28.38
24.03
19.39
15.18
11.67
8.61
5.48
1.80
-2.62
-7.60
-12.70
-17.55
-22.02
-26.22
-30.42
-34.78
-39.29
-43.71
-47.71
-51.04
-53.53
-55.12
-55.73
-55.30
-53.81
-51.39
-48.29
-44.80
-41.10
-37.16
-32.66
-27.23
-20.63
-12.92
-4.50
4.02
12.00
18.95
24.68
29.17
32.63
35.22
37.10
38.37
39.02
39.03
38.38
37.09
35.25
33.01
30.50
27.80
24.92
21.88
18.81
16.06
14.12
13.47
14.32
16.43
19.11
21.45
22.78
22.98
22.58
22.48
23.46
25.81
29.20
32.90
36.26
39.16
42.14
46.19
52.24
60.62
70.88
81.92
92.55
101.85
109.52
115.85
121.38
126.58
131.87
137.51
143.62
149.96
155.59
158.69
156.86
147.94
130.92
106.63
77.53
46.91
17.58
-9.07
-33.41
-57.13
-82.21
-109.89
-139.80
-169.82
-196.60
-216.65
-227.72
-229.73
-224.96
-217.05
-209.38
-203.68
-199.30
-193.96
-185.46
-173.37
-159.68
-148.17
-142.59
-144.74
-153.49
-165.20
-174.97
-178.49
-173.35
-159.78
-140.78
-121.81
-109.71
-111.10
-130.16
-166.41
-214.00
-262.76
-301.09
-319.68
-314.43
-287.55
-246.30
-200.17
-157.58
-123.59
-99.17
-82.16
-69.09
-56.88
-43.87
-29.84
-15.27
-0.55
14.20
28.96
43.21
55.76
65.24
70.88
73.18
73.94
75.55
80.06
88.72
102.06
120.06
142.44
168.44
196.37
223.50
246.44
261.79
266.97
260.45
241.87
212.18
174.08
132.47
94.23
66.83
55.91
63.03
84.65
113.33
140.54
159.78
168.41
167.54
160.37
150.31
139.95
131.22
126.06
126.96
136.37
155.59
183.70
217.34
251.60
281.64
304.16
317.91
323.37
321.74
314.24
301.84
285.68
267.34
248.82
231.96
217.55
204.96
192.17
176.60
156.15
129.91
98.38
63.14
25.91
-11.98
-49.87
-87.69
-125.50
-163.15
-200.49
-237.94
-276.59
-317.56
-360.72
-403.51
-441.35
-469.47
-485.60
-491.55
-492.43
-493.60
-497.28
-500.84
-498.08
-482.69
-451.72
-406.69
-351.99
-291.81
-228.39
-162.76
-97.37
-38.42
4.67
23.06
13.23
-19.71
-62.64
-99.24
-116.10
-107.25
-74.78
-26.25
29.41
84.72
134.42
174.50
201.26
211.66
204.56
182.01
149.14
112.77
79.19
52.52
34.25
23.99
20.46
21.98
26.50
31.26
33.07
29.14
18.35
2.06
-16.17
-31.47
-39.34
-36.91
-23.45
-0.03
31.29
68.17
108.22
148.68
186.14
216.54
235.98
241.89
234.04
214.80
188.51
160.04
133.34
110.64
92.26
77.28
64.42
52.66
41.45
30.38
18.91
6.13
-8.98
-27.18
-48.54
-71.99
-95.65
-117.31
-135.23
-148.54
-157.38
-162.49
-164.68
-164.37
-161.55
-155.91
-147.20
-135.40
-120.72
-103.52
-84.25
-63.48
-41.93
-20.48
-0.12
18.17
33.62
45.65
54.21
59.83
63.66
67.22
72.04
79.12
88.60
99.76
111.35
122.06
130.93
137.44
141.38
142.54
140.65
135.40
126.86
115.71
103.43
91.89
82.71
76.49
72.51
69.02
64.18
57.04
48.14
39.26
32.48
29.11
29.10
31.23
33.95
36.31
38.43
41.14
45.27
50.88
56.90
61.51
62.75
59.32
50.95
38.43
23.35
7.51
-7.47
-20.53
-31.24
-39.57
-45.78
-50.05
-52.49
-53.18
-52.29
-50.28
-47.75
-45.38
-43.69
-42.88
-42.89
-43.51
-44.52
-45.80
-47.36
-49.27
-51.59
-54.39
-57.64
-61.14
-64.43
-66.78
-67.31
-65.21
-59.98
-51.70
-41.05
-29.15
-17.32
-6.68
2.02
8.51
12.90
15.49
16.61
16.55
15.62
14.20
12.81
12.03
12.38
14.09
16.96
20.31
23.24
24.97
25.10
23.82
21.77
19.75
18.25
17.20
15.91
13.46
9.14
2.77
-5.20
-13.97
-22.69
-30.63
-37.22
-41.92
-44.05
-42.92
-38.14
-29.88
-19.04
-7.02
4.72
15.11
23.72
30.63
36.16
40.45
43.39
44.67
44.06
41.69
38.07
33.99
30.15
27.00
24.57
22.60
20.68
18.54
16.10
13.44
10.74
8.05
5.26
2.11
-1.67
-6.16
-11.26
-16.77
-22.53
-28.55
-35.01
-42.00
-49.34
-56.36
-61.98
-64.96
-64.35
-59.73
-51.41
-40.30
-27.59
-14.46
-1.78
9.91
20.38
29.49
37.04
42.68
46.08
47.07
45.91
43.21
39.87
36.72
34.28
32.61
31.40
30.19
28.64
26.72
24.57
22.46
20.57
18.86
17.13
15.11
12.62
9.66
6.43
3.17
0.08
-2.77
-5.53
-8.51
-12.05
-16.42
-21.69
-27.70
-34.10
-40.47
-46.42
-51.63
-55.83
-58.84
-60.38
-60.15
-57.84
-53.10
-45.82
-36.25
-25.21
-14.06
-4.50
1.92
4.36
3.13
-0.37
-4.10
-6.21
-5.74
-2.99
0.58
2.87
1.61
-5.16
-18.72
-38.98
-63.94
-89.26
-108.75
-115.86
-105.72
-76.87
-31.74
24.41
86.15
149.89
214.50
279.91
344.61
404.04
451.18
479.41
486.11
474.66
453.36
431.88
417.15
410.73
409.39
407.85
401.99
390.67
375.32
358.01
339.68
319.54
295.91
267.63
234.99
199.89
164.95
132.44
103.54
78.29
56.08
36.12
18.00
1.49
-13.60
-27.79
-41.98
-57.16
-73.94
-92.21
-111.30
-130.11
-147.69
-163.64
-178.15
-192.04
-206.64
-223.51
-243.78
-266.90
-289.64
-306.07
-309.02
-292.65
-255.23
-200.43
-136.57
-73.93
-21.48
15.45
35.76
41.53
36.35
23.92
7.50
-10.21
-26.93
-41.05
-51.94
-60.20
-67.50
-76.16
-88.83
-107.30
-131.70
-159.80
-187.18
-208.31
-218.28
-214.56
-197.82
-171.45
-140.10
-108.01
-77.79
-50.26
-25.02
-1.52
20.22
39.22
53.69
61.53
60.80
50.38
30.53
3.06
-28.63
-60.42
-88.44
-110.25
-125.36
-135.31
-143.13
-152.21
-165.58
-185.46
-212.57
-245.62
-280.68
-311.44
-331.20
-336.02
-327.60
-313.76
-305.26
-310.01
-327.74
-348.58
-357.11
-339.92
-292.77
-223.32
-148.13
-85.63
-49.21
-43.58
-65.02
-104.56
-151.35
-194.68
-225.02
-235.13
-221.57
-186.54
-138.33
-89.06
-50.35
-29.09
-25.20
-33.16
-46.21
-60.36
-75.90
-95.57
-120.53
-147.29
-167.99
-173.96
-160.60
-130.38
-92.13
-57.15
-33.75
-23.54
-22.26
-22.84
-18.95
-7.47
11.34
35.53
63.14
93.15
125.05
156.51
182.54
196.74
194.10
173.81
140.51
102.24
67.89
44.95
36.02
39.07
50.26
66.00
83.72
101.43
115.03
120.30
116.86
105.14
86.46
64.61
44.33
29.35
21.01
14.67
5.29
-4.67
-13.37
-21.16
-27.14
-30.13
-29.61
-26.16
-26.89
-37.44
-50.97
-62.79
-73.51
-83.53
-93.65
-105.02
-118.44
-140.71
-175.03
-208.33
-232.43
-249.24
-262.71
-277.76
-297.81
-277.43
-189.99
-103.87
-47.51
-5.49
26.47
53.85
83.99
124.15
177.50
232.99
275.32
302.87
314.03
306.56
285.07
256.35
225.63
194.62
157.44
111.20
68.74
43.16
40.92
63.41
103.80
149.50
186.10
198.72
179.97
137.54
83.22
27.28
-21.42
-58.81
-83.93
-97.52
-102.35
-100.56
-90.40
-71.75
-47.58
-16.28
15.97
39.93
49.14
42.57
23.56
-1.80
-28.48
-53.38
-73.67
-87.65
-93.08
-87.77
-71.10
-45.93
-17.93
3.53
9.72
-2.98
-31.34
-64.48
-88.48
-92.91
-75.80
-43.87
-8.78
18.66
32.66
32.54
21.63
4.02
-17.65
-42.34
-69.16
-96.03
-119.39
-135.21
-141.30
-137.76
-127.09
-113.31
-100.50
-91.38
-86.82
-85.86
-86.63
-87.61
-88.22
-88.85
-90.53
-94.11
-99.73
-106.52
-112.79
-116.57
-116.41
-111.71
-102.79
-90.59
-75.97
-59.24
-39.98
-17.40
8.95
38.41
69.24
99.06
125.85
148.71
168.07
185.17
201.21
216.77
231.60
245.03
256.32
265.04
270.93
273.93
274.16
272.13
268.96
266.50
266.90
271.92
282.06
295.98
310.37
320.64
322.22
312.03
289.66
257.46
219.75
181.30
145.84
115.32
89.99
69.21
52.34
39.13
29.64
23.74
20.72
19.33
18.10
15.80
11.77
6.01
-1.09
-9.14
-17.92
-27.49
-37.91
-48.84
-59.31
-67.67
-72.07
-71.11
-64.50
-53.36
-39.90
-26.66
-15.60
-7.59
-2.45
0.60
2.24
2.73
1.95
-0.33
-4.17
-9.40
-15.84
-23.38
-31.83
-40.59
-48.44
-53.83
-55.63
-54.00
-50.54
-47.70
-47.37
-49.85
-53.54
-55.79
-54.28
-48.00
-37.41
-23.44
-6.45
14.41
40.64
73.19
111.28
152.12
191.66
226.09
253.24
273.18
287.86
299.78
310.69
320.84
329.05
333.76
334.16
330.89
325.74
320.55
316.08
311.25
303.43
289.64
267.84
237.77
200.91
159.88
117.88
78.35
44.65
19.52
4.15
-2.65
-4.48
-6.27
-12.47
-25.30
-44.38
-67.64
-93.42
-122.02
-155.64
-196.47
-243.92
-292.94
-334.50
-358.28
-356.26
-325.22
-267.42
-189.68
-101.40
-12.65
67.00
129.51
169.10
183.15
172.52
141.19
94.94
39.89
-18.61
-76.26
-129.61
-175.80
-212.84
-239.88
-257.19
-265.72
-266.45
-260.10
-247.61
-230.94
-213.37
-198.98
-191.28
-191.68
-198.74
-208.71
-217.00
-220.01
-216.37
-207.05
-194.78
-182.54
-172.15
-163.20
-152.87
-136.55
-109.38
-68.25
-13.70
48.92
110.21
159.64
189.46
198.07
190.94
178.35
171.21
176.48
194.50
219.12
240.30
248.35
237.82
209.90
172.40
137.47
117.73
121.80
151.30
200.17
256.86
308.71
346.03
364.40
364.34
349.25
323.09
289.42
251.48
212.74
177.14
148.36
128.54
117.37
112.13
108.63
102.91
92.66
77.65
59.23
39.16
18.28
-4.02
-29.28
-58.57
-91.13
-123.66
-151.20
-168.97
-174.52
-169.16
-157.58
-146.18
-140.54
-143.44
-154.25
-169.62
-185.11
-196.87
-202.59
-201.64
-194.72
-183.13
-168.33
-151.85
-135.21
-119.98
-107.52
-98.56
-92.96
-89.80
-87.81
-86.04
-84.40
-83.66
-85.04
-89.33
-96.32
-104.49
-111.38
-114.30
-111.27
-101.68
-86.45
-67.74
-48.28
-30.60
-16.54
-7.05
-2.36
-2.28
-6.28
-13.50
-22.57
-31.56
-38.21
-40.53
-37.39
-28.91
-16.42
-1.88
12.67
25.73
36.35
43.99
48.11
47.99
43.00
33.00
18.73
1.83
-15.55
-31.50
-44.99
-56.18
-66.18
-76.31
-87.50
-99.80
-112.60
-125.11
-136.90
-148.20
-159.71
-172.10
-185.64
-200.10
-215.07
-230.24
-245.64
-261.26
-276.82
-291.36
-303.49
-311.86
-315.75
-315.27
-311.27
-304.72
-296.12
-285.20
-271.01
-252.33
-228.23
-198.50
-163.72
-125.24
-84.93
-44.73
-6.30
29.42
62.62
94.75
128.18
165.32
207.27
252.73
297.77
336.82
364.74
378.92
380.35
373.24
363.18
355.01
351.31
352.03
355.23
358.12
357.87
351.81
338.20
317.32
292.35
269.02
253.59
249.59
255.25
263.40
263.86
247.62
210.43
154.25
86.08
14.73
-52.36
-110.78
-158.89
-196.19
-221.58
-232.48
-225.60
-198.91
-153.99
-97.64
-41.26
2.04
21.54
12.22
-24.10
-80.12
-145.64
-210.32
-265.14
-302.90
-318.56
-309.89
-278.40
-229.80
-173.34
-119.64
-77.75
-52.83
-45.06
-50.33
-62.09
-73.55
-79.76
-78.72
-71.32
-60.39
-49.06
-39.46
-32.02
-25.81
-19.26
-11.13
-0.74
12.16
27.59
45.36
64.63
83.70
100.22
112.11
118.54
120.42
120.00
119.80
121.49
125.29
130.39
135.64
140.28
143.91
146.30
147.14
146.24
143.91
141.11
139.09
138.50
138.76
137.92
133.21
121.99
102.73
75.12
40.05
-0.79
-45.15
-90.43
-134.13
-174.79
-213.11
-252.02
-295.26
-344.59
-397.25
-445.59
-479.35
-489.87
-473.96
-435.10
-381.60
-322.60
-264.33
-208.71
-154.38
-99.16
-41.84
17.30
77.27
136.72
193.64
244.57
284.22
306.58
307.08
284.58
242.41
187.74
129.53
76.46
35.28
10.17
2.71
11.99
35.01
67.18
103.50
139.86
173.96
205.35
234.53
261.86
286.82
308.15
324.45
334.84
338.75
335.56
324.08
302.57
269.59
224.82
169.63
106.57
38.69
-30.98
-99.35
-162.92
-217.81
-260.29
-287.93
-300.15
-298.01
-283.29
-257.29
-220.24
-171.59
-111.06
-39.86
38.50
118.22
191.96
252.27
293.06
310.88
305.73
280.82
241.79
195.44
148.62
107.36
76.14
57.63
52.48
59.13
73.84
91.15
104.97
110.14
103.55
84.36
54.11
16.09
-26.06
-70.12
-116.08
-165.09
-217.09
-268.68
-313.38
-343.47
-352.66
-338.66
-304.07
-254.82
-196.96
-134.37
-68.72
-2.44
58.88
107.22
134.92
138.11
118.96
85.50
47.86
19.12
9.25
19.29
42.25
69.29
94.91
117.85
139.14
159.78
179.34
196.33
208.00
212.68
210.70
204.02
194.88
184.86
174.25
161.73
147.48
130.24
109.39
85.59
60.46
35.91
13.45
-6.07
-22.54
-36.76
-50.67
-65.84
-83.01
-101.98
-121.95
-141.89
-160.98
-178.58
-194.82
-210.89
-228.26
-248.46
-272.80
-301.98
-335.43
-370.72
-402.99
-426.02
-433.85
-422.32
-390.52
-341.31
-280.64
-215.99
-154.92
-102.89
-63.43
-37.72
-24.65
-21.00
-22.01
-22.24
-16.52
-1.41
26.78
69.24
124.84
189.46
255.46
312.40
349.40
358.58
336.44
289.76
228.66
164.50
106.06
57.17
16.78
-18.85
-53.77
-93.37
-136.50
-184.26
-236.91
-292.87
-347.80
-394.83
-426.29
-436.12
-425.61
-393.73
-346.57
-290.97
-232.05
-171.94
-110.09
-44.70
45.08
130.58
211.51
280.93
331.24
356.56
354.67
327.53
279.99
217.35
140.55
56.28
-31.98
-117.98
-192.28
-244.78
-268.93
-265.53
-243.62
-219.73
-204.47
-205.56
-222.59
-248.39
-273.58
-291.14
-298.82
-298.57
-295.41
-289.63
-280.89
-267.12
-246.51
-219.26
-188.08
-157.06
-129.83
-108.83
-92.49
-78.62
-64.97
-50.43
-35.42
-21.27
-9.26
0.38
8.42
17.12
28.39
43.42
62.34
84.29
107.96
132.10
155.95
179.25
202.18
225.14
248.30
271.19
292.35
309.49
320.14
322.63
316.99
305.12
290.09
274.79
260.70
247.52
233.78
218.18
200.69
182.69
166.21
152.55
141.36
130.78
118.49
103.04
84.73
65.46
47.61
32.71
20.54
9.22
-3.79
-20.45
-41.19
-64.87
-89.39
-112.70
-133.54
-151.61
-167.28
-181.14
-193.65
-204.90
-214.40
-220.94
-222.65
-217.34
-203.41
-180.75
-151.31
-118.65
-86.93
-59.35
-36.95
-18.55
-1.35
18.08
42.77
74.37
111.96
151.44
185.82
207.18
209.98
194.17
166.33
138.09
122.07
127.17
155.35
201.11
253.63
300.43
330.96
338.90
323.00
286.71
236.99
182.69
132.82
94.80
73.09
68.66
78.85
98.05
119.30
136.21
145.18
146.68
144.92
145.92
154.40
171.26
192.59
210.88
217.60
206.02
173.34
121.45
56.87
-10.18
-67.55
-103.73
-111.06
-88.62
-43.31
11.76
61.31
92.90
100.65
86.13
56.27
19.74
-16.36
-48.04
-74.12
-94.83
-110.59
-121.54
-127.85
-130.34
-130.64
-130.90
-132.87
-137.13
-142.67
-147.36
-148.87
-145.87
-138.59
-128.69
-118.48
-109.85
-103.75
-100.08
-98.32
-98.10
-99.66
-103.62
-110.58
-120.56
-132.75
-145.76
-158.05
-168.69
-177.69
-186.10
-195.62
-207.76
-223.00
-240.31
-257.03
-269.59
-274.50
-269.48
-254.25
-230.51
-201.36
-170.15
-139.47
-110.58
-83.40
-57.14
-31.01
-4.75
21.31
46.58
70.75
94.09
117.54
142.46
170.30
202.36
239.43
281.20
325.69
368.92
405.46
429.92
438.82
431.96
412.58
385.84
356.84
328.94
303.37
280.18
259.46
241.95
228.55
219.20
211.85
202.73
187.59
163.16
128.22
83.89
33.43
-18.07
-64.15
-97.78
-112.93
-106.52
-79.90
-39.08
6.85
48.40
78.22
92.58
90.99
75.04
46.94
8.81
-37.22
-88.51
-141.42
-191.55
-234.46
-266.81
-286.84
-294.49
-290.80
-276.80
-253.02
-219.25
-175.14
-120.73
-56.93
14.28
89.69
164.74
233.62
289.98
328.41
346.12
344.07
326.71
300.33
270.78
242.08
216.28
194.41
177.60
167.41
165.03
170.29
181.09
193.91
205.06
211.92
213.47
210.14
203.20
193.86
182.59
168.81
151.02
127.29
96.07
56.84
10.44
-41.14
-95.39
-149.85
-202.53
-251.86
-296.56
-335.49
-367.93
-393.96
-414.87
-433.40
-453.41
-479.12
-513.54
-556.79
-604.92
-650.15
-682.98
-695.43
-684.18
-651.78
-605.49
-554.07
-504.40
-459.45
-418.62
-379.66
-340.74
-301.59
-262.99
-225.36
-187.84
-148.10
-103.44
-51.87
7.09
72.46
142.21
213.68
283.73
348.57
404.06
446.26
472.45
481.91
476.17
458.39
432.29
401.19
367.40
332.54
297.91
264.85
234.67
208.30
185.94
167.03
150.57
135.57
121.47
108.28
96.51
86.71
79.18
73.69
69.57
65.97
62.28
58.42
55.04
53.19
53.89
57.69
64.18
72.15
79.82
85.57
88.51
88.69
86.93
84.24
81.20
77.74
73.36
67.70
61.08
54.66
49.98
48.28
49.87
54.19
60.25
67.38
75.67
85.80
98.48
113.87
131.31
149.61
167.73
185.13
201.68
217.07
230.10
238.58
239.83
231.87
214.38
189.16
159.57
129.45
102.00
78.60
59.50
44.62
34.11
28.46
28.10
33.03
42.62
55.69
70.27
84.65
97.74
109.24
119.16
127.41
133.61
137.11
137.22
132.18
120.88
103.57
81.80
57.64
32.92
8.90
-13.63
-34.19
-55.96
-81.35
-110.50
-141.03
-169.77
-194.45
-214.09
-228.55
-238.26
-250.87
-272.53
-304.57
-343.01
-382.00
-417.14
-446.23
-468.62
-484.55
-505.84
-541.95
-594.73
-657.54
-720.62
-776.54
-821.38
-854.08
-875.19
-900.85
-944.30
-1009.01
-1087.61
-1169.43
-1248.01
-1322.40
-1394.52
-1376.46
-1217.58
-925.33
-563.33
-204.71
104.60
347.75
525.10
645.43
721.84
754.57
746.18
705.72
648.44
589.45
538.45
499.86
475.06
463.66
452.43
430.77
395.72
352.60
310.12
274.96
250.23
236.33
231.86
227.35
214.61
190.93
159.55
126.49
97.01
74.31
59.86
53.87
52.60
49.33
41.56
30.56
19.60
11.94
9.68
13.50
22.65
34.17
45.04
53.96
61.31
68.67
77.88
90.48
107.55
129.51
155.85
184.61
212.40
234.36
245.49
242.61
225.90
