1605241050.00
64.000000
-0.00
-0.00
-0.00
-0.00
-0.00
-0.00
-0.00
-0.00
-0.00
-0.00
0.00
0.01
0.01
-0.00
-0.03
-0.05
-0.05
0.00
0.13
0.36
0.66
1.01
1.37
1.72
2.06
2.40
2.79
3.24
3.81
4.44
5.10
5.74
6.33
6.90
7.49
8.21
9.10
10.26
11.61
13.00
14.30
15.43
16.42
17.46
18.78
20.58
23.09
26.13
29.39
32.57
35.46
38.13
40.95
44.38
48.80
54.64
61.51
68.87
76.06
82.68
88.81
95.02
102.14
110.83
121.72
134.25
147.49
160.36
172.14
182.86
193.32
205.14
217.36
232.40
250.78
272.29
295.29
316.51
331.56
336.06
327.18
304.63
271.09
230.30
186.04
140.82
95.55
50.29
5.25
-38.69
-80.14
-117.64
-151.07
-181.27
-209.79
-238.24
-267.82
-299.06
-331.50
-363.59
-392.49
-414.60
-426.57
-426.44
-414.45
-393.03
-365.83
-336.43
-307.28
-279.33
-252.73
-227.53
-204.11
-183.13
-164.97
-149.34
-135.20
-121.31
-106.81
-91.65
-76.55
-62.64
-50.81
-41.33
-33.75
-27.20
-20.80
-14.07
-7.07
-0.29
5.65
10.33
13.72
16.07
17.83
19.39
21.02
22.76
24.53
26.15
27.40
28.13
28.28
27.97
27.46
27.01
26.78
26.73
26.62
26.18
25.29
24.01
22.62
21.42
20.56
20.02
19.61
19.13
18.51
17.79
17.09
16.49
15.96
15.40
14.71
13.86
12.95
12.14
11.58
11.33
11.32
11.36
11.26
10.82
9.99
8.87
7.71
6.90
6.77
7.51
9.00
10.85
12.56
13.71
14.14
13.96
13.47
12.92
12.44
12.00
11.49
10.85
10.16
9.54
9.09
8.80
8.58
8.26
7.76
7.07
6.26
5.44
4.72
4.15
3.72
3.39
3.09
2.75
2.28
1.66
0.89
0.04
-0.81
-1.60
-2.30
-2.94
-3.56
-4.20
-4.84
-5.48
-6.06
-6.58
-7.01
-7.38
-7.74
-8.12
-8.53
-8.94
-9.31
-9.55
-9.63
-9.52
-9.24
-8.85
-8.41
-7.97
-7.54
-7.12
-6.67
-6.16
-5.62
-5.05
-4.54
-4.11
-3.81
-3.59
-3.41
-3.21
-2.96
-2.64
-2.21
-1.63
-0.87
0.04
0.98
1.79
2.35
2.60
2.64
2.62
2.72
3.03
3.49
3.98
4.35
4.47
4.32
4.00
3.64
3.41
3.41
3.61
3.97
4.36
4.72
5.01
5.26
5.49
5.72
5.91
6.00
5.99
5.87
5.74
5.67
5.72
5.89
6.09
6.22
6.20
6.04
5.78
5.55
5.43
5.44
5.51
5.50
5.33
5.01
4.65
4.41
4.39
4.60
4.90
5.14
5.17
5.00
4.71
4.42
4.21
4.05
3.87
3.62
3.32
3.05
2.93
3.01
3.23
3.47
3.59
3.47
3.14
2.65
2.16
1.79
1.63
1.71
1.98
2.31
2.57
2.67
2.56
2.30
1.98
1.72
1.60
1.63
1.75
1.84
1.81
1.62
1.29
0.91
0.60
0.42
0.40
0.48
0.58
0.62
0.61
0.59
0.61
0.71
0.88
1.06
1.19
1.22
1.18
1.08
0.99
0.94
0.97
1.09
1.25
1.43
1.58
1.68
1.74
1.77
1.79
1.78
1.73
1.62
1.46
1.27
1.05
0.82
0.57
0.31
0.12
0.05
0.17
0.50
0.94
1.40
1.78
2.02
2.15
2.18
2.11
1.92
1.60
1.21
0.85
0.66
0.68
0.87
1.10
1.25
1.24
1.10
0.93
0.80
0.76
0.73
0.64
0.44
0.15
-0.13
-0.29
-0.27
-0.11
0.06
0.15
0.13
0.05
0.02
0.09
0.25
0.37
0.34
0.10
-0.27
-0.58
-0.69
-0.52
-0.15
0.26
0.57
0.69
0.64
0.44
0.18
-0.11
-0.35
-0.51
-0.54
-0.45
-0.30
-0.18
-0.15
-0.25
-0.44
-0.66
-0.86
-0.98
-0.96
-0.79
-0.52
-0.24
-0.10
-0.20
-0.52
-0.91
-1.16
-1.09
-0.73
-0.26
0.05
-0.04
-0.56
-1.39
-2.30
-3.07
-3.57
-3.81
-3.85
-3.80
-3.73
-3.70
-3.72
-3.80
-3.90
-3.96
-3.88
-3.53
-2.84
-1.79
-0.44
1.07
2.57
3.93
5.06
5.99
6.77
7.47
8.10
8.64
9.02
9.18
9.08
8.75
8.22
7.56
6.80
6.00
5.22
4.50
3.86
3.30
2.81
2.35
1.86
1.30
0.63
-0.20
-1.15
-2.14
-3.05
-3.68
-3.90
-3.65
-3.05
-2.30
-1.68
-1.39
-1.47
-1.79
-2.09
-2.13
-1.83
-1.27
-0.65
-0.19
0.01
0.01
-0.07
-0.10
-0.03
0.11
0.24
0.31
0.30
0.25
0.19
0.15
0.12
0.11
0.14
0.26
0.52
0.91
1.36
1.77
1.99
1.94
1.64
1.17
0.67
0.20
-0.22
-0.61
-0.98
-1.31
-1.53
-1.59
-1.56
-1.54
-1.63
-1.87
-2.16
-2.33
-2.25
-1.89
-1.32
-0.68
-0.09
0.38
0.70
0.92
1.06
1.17
1.30
1.52
1.87
2.35
2.92
3.49
3.94
4.19
4.22
4.02
3.61
3.04
2.36
1.61
0.86
0.18
-0.41
-0.87
-1.18
-1.33
-1.32
-1.17
-0.94
-0.70
-0.52
-0.42
-0.42
-0.46
-0.49
-0.43
-0.28
-0.06
0.18
0.37
0.48
0.54
0.60
0.73
0.95
1.25
1.56
1.83
2.02
2.11
2.12
2.05
1.91
1.71
1.49
1.33
1.29
1.38
1.54
1.68
1.70
1.57
1.33
1.04
0.77
0.55
0.37
0.20
0.02
-0.20
-0.43
-0.69
-0.97
-1.30
-1.70
-2.18
-2.72
-3.27
-3.73
-4.00
-3.97
-3.64
-3.10
-2.55
-2.19
-2.18
-2.50
-2.99
-3.43
-3.67
-3.67
-3.51
-3.34
-3.26
-3.26
-3.29
-3.28
-3.19
-3.05
-2.88
-2.65
-2.32
-1.82
-1.16
-0.42
0.33
0.99
1.54
1.99
2.32
2.50
2.48
2.28
1.97
1.70
1.58
1.65
1.82
1.95
1.91
1.67
1.29
0.88
0.53
0.28
0.08
-0.14
-0.42
-0.75
-1.06
-1.29
-1.36
-1.27
-1.04
-0.78
-0.56
-0.48
-0.53
-0.70
-0.91
-1.06
-1.10
-1.02
-0.88
-0.74
-0.67
-0.68
-0.73
-0.72
-0.58
-0.28
0.13
0.55
0.90
1.11
1.21
1.26
1.35
1.51
1.73
1.94
2.06
2.03
1.87
1.63
1.41
1.27
1.26
1.36
1.54
1.75
1.92
1.99
1.95
1.81
1.64
1.51
1.48
1.51
1.51
1.35
1.00
0.53
0.12
-0.08
0.02
0.33
0.68
0.88
0.85
0.63
0.33
0.05
-0.18
-0.40
-0.62
-0.83
-0.95
-0.92
-0.75
-0.52
-0.36
-0.36
-0.53
-0.79
-1.01
-1.13
-1.16
-1.17
-1.23
-1.39
-1.61
-1.86
-2.09
-2.27
-2.40
-2.49
-2.58
-2.73
-2.96
-3.29
-3.67
-4.05
-4.34
-4.48
-4.47
-4.32
-4.10
-3.91
-3.83
-3.92
-4.18
-4.58
-5.01
-5.36
-5.58
-5.70
-5.85
-6.12
-6.56
-7.00
-7.14
-6.56
-4.93
-2.12
1.70
6.13
10.69
14.96
18.63
21.53
23.60
24.75
24.98
24.32
22.93
21.03
18.85
16.51
14.06
11.51
8.93
6.47
4.32
2.62
1.40
0.55
-0.14
-0.83
-1.65
-2.60
-3.66
-4.77
-5.88
-6.95
-7.98
-8.89
-9.58
-9.97
-9.95
-9.54
-8.84
-8.01
-7.21
-6.55
-6.02
-5.57
-5.10
-4.55
-3.92
-3.23
-2.54
-1.88
-1.27
-0.75
-0.32
0.00
0.24
0.43
0.63
0.86
1.14
1.45
1.77
2.06
2.34
2.58
2.77
2.85
2.77
2.52
2.12
1.67
1.24
0.91
0.69
0.55
0.43
0.30
0.15
0.01
-0.11
-0.22
-0.31
-0.37
-0.36
-0.21
0.13
0.61
1.08
1.35
1.27
0.84
0.20
-0.40
-0.71
-0.65
-0.28
0.19
0.53
0.61
0.44
0.14
-0.17
-0.38
-0.48
-0.50
-0.50
-0.50
-0.51
-0.53
-0.54
-0.55
-0.54
-0.49
-0.37
-0.18
0.05
0.26
0.39
0.42
0.33
0.15
-0.08
-0.33
-0.54
-0.67
-0.68
-0.57
-0.38
-0.16
0.03
0.15
0.21
0.24
0.27
0.36
0.50
0.68
0.85
0.96
0.99
0.95
0.89
0.87
0.90
0.97
1.02
1.02
0.97
0.90
0.82
0.73
0.60
0.40
0.15
-0.13
-0.39
-0.62
-0.83
-1.06
-1.31
-1.53
-1.64
-1.59
-1.40
-1.16
-0.96
-0.85
-0.81
-0.78
-0.70
-0.55
-0.39
-0.27
-0.23
-0.22
-0.18
-0.03
0.20
0.47
0.65
0.66
0.45
0.08
-0.37
-0.78
-1.03
-1.06
-0.85
-0.51
-0.16
0.07
0.15
0.13
0.14
0.26
0.52
0.83
1.04
1.07
0.87
0.53
0.12
-0.27
-0.62
-0.93
-1.21
-1.43
-1.53
-1.49
-1.31
-1.06
-0.84
-0.70
-0.70
-0.82
-1.03
-1.28
-1.52
-1.74
-1.94
-2.14
-2.34
-2.54
-2.70
-2.76
-2.68
-2.46
-2.11
-1.71
-1.33
-1.00
-0.76
-0.61
-0.54
-0.55
-0.61
-0.67
-0.66
-0.50
-0.18
0.27
0.70
0.96
0.98
0.82
0.60
0.48
0.54
0.78
1.08
1.32
1.43
1.41
1.33
1.29
1.32
1.45
1.61
1.72
1.72
1.55
1.23
0.81
0.38
0.05
-0.14
-0.18
-0.13
-0.07
-0.08
-0.17
-0.33
-0.52
-0.69
-0.82
-0.88
-0.89
-0.86
-0.87
-0.95
-1.14
-1.44
-1.77
-1.99
-1.99
-1.71
-1.20
-0.58
0.04
0.55
0.93
1.20
1.35
1.36
1.20
0.90
0.53
0.22
0.05
0.04
0.13
0.20
0.19
0.09
-0.04
-0.10
-0.05
0.09
0.28
0.43
0.51
0.52
0.49
0.45
0.39
0.32
0.21
0.08
-0.02
-0.09
-0.09
0.00
0.22
0.58
1.11
1.78
2.49
3.08
3.40
3.35
2.96
2.39
1.85
1.54
1.51
1.71
1.95
2.06
1.98
1.72
1.39
1.14
1.01
0.98
0.95
0.79
0.46
0.02
-0.42
-0.73
-0.85
-0.81
-0.72
-0.68
-0.76
-0.94
-1.13
-1.22
-1.15
-0.91
-0.62
-0.41
-0.38
-0.57
-0.91
-1.28
-1.59
-1.80
-1.95
-2.07
-2.17
-2.20
-2.08
-1.79
-1.36
-0.89
-0.48
-0.15
0.13
0.42
0.76
1.11
1.39
1.52
1.42
1.11
0.67
0.20
-0.21
-0.48
-0.60
-0.56
-0.41
-0.16
0.18
0.60
1.05
1.46
1.70
1.71
1.47
1.06
0.61
0.20
-0.11
-0.31
-0.37
-0.27
0.01
0.44
0.88
1.19
1.22
0.94
0.45
-0.07
-0.45
-0.60
-0.51
-0.29
-0.03
0.17
0.29
0.32
0.30
0.28
0.28
0.31
0.34
0.37
0.36
0.33
0.25
0.12
-0.04
-0.20
-0.24
-0.04
0.45
1.18
1.94
2.47
2.54
2.11
1.30
0.36
-0.46
-0.98
-1.19
-1.16
-0.99
-0.76
-0.53
-0.35
-0.27
-0.35
-0.58
-0.91
-1.18
-1.26
-1.05
-0.60
-0.04
0.40
0.55
0.36
-0.08
-0.59
-1.00
-1.23
-1.32
-1.37
-1.47
-1.61
-1.70
-1.66
-1.43
-1.10
-0.80
-0.68
-0.78
-1.03
-1.31
-1.46
-1.40
-1.14
-0.78
-0.49
-0.35
-0.42
-0.64
-0.90
-1.05
-0.93
-0.50
0.20
0.98
1.64
1.97
1.87
1.40
0.72
0.06
-0.39
-0.52
-0.38
-0.10
0.15
0.24
0.17
0.02
-0.07
0.01
0.27
0.61
0.89
1.04
1.06
1.06
1.12
1.29
1.51
1.68
1.73
1.62
1.40
1.13
0.84
0.53
0.18
-0.18
-0.51
-0.72
-0.75
-0.62
-0.42
-0.24
-0.18
-0.23
-0.36
-0.51
-0.62
-0.70
-0.77
-0.83
-0.86
-0.81
-0.64
-0.41
-0.23
-0.20
-0.39
-0.72
-1.04
-1.19
-1.12
-0.88
-0.60
-0.44
-0.44
-0.59
-0.78
-0.89
-0.83
-0.60
-0.25
0.14
0.51
0.81
1.01
1.09
1.05
0.86
0.53
0.11
-0.26
-0.47
-0.41
-0.10
0.33
0.69
0.83
0.68
0.31
-0.11
-0.44
-0.57
-0.47
-0.22
0.06
0.26
0.30
0.16
-0.13
-0.49
-0.82
-1.01
-0.98
-0.73
-0.30
0.23
0.73
1.11
1.32
1.33
1.18
0.89
0.50
0.10
-0.25
-0.44
-0.42
-0.15
0.27
0.73
1.06
1.18
1.09
0.84
0.54
0.24
-0.03
-0.28
-0.52
-0.72
-0.81
-0.75
-0.55
-0.29
-0.06
0.06
0.02
-0.17
-0.44
-0.72
-0.98
-1.16
-1.24
-1.19
-1.04
-0.80
-0.54
-0.32
-0.19
-0.19
-0.29
-0.43
-0.56
-0.57
-0.43
-0.14
0.24
0.58
0.75
0.70
0.43
0.03
-0.35
-0.59
-0.61
-0.42
-0.10
0.21
0.43
0.51
0.48
0.40
0.36
0.38
0.48
0.60
0.70
0.73
0.71
0.65
0.60
0.59
0.62
0.65
0.66
0.59
0.45
0.27
0.09
-0.05
-0.12
-0.13
-0.11
-0.10
-0.13
-0.23
-0.41
-0.68
-1.00
-1.30
-1.51
-1.57
-1.49
-1.29
-1.07
-0.91
-0.85
-0.86
-0.87
-0.81
-0.65
-0.39
-0.13
0.06
0.12
0.03
-0.13
-0.31
-0.43
-0.47
-0.45
-0.40
-0.34
-0.25
-0.11
0.13
0.48
0.88
1.24
1.47
1.50
1.35
1.11
0.87
0.70
0.60
0.54
0.49
0.46
0.46
0.50
0.52
0.46
0.30
0.07
-0.16
-0.29
-0.30
-0.23
-0.14
-0.08
-0.04
0.01
0.08
0.11
0.04
-0.13
-0.37
-0.57
-0.64
-0.55
-0.35
-0.14
0.00
0.07
0.11
0.20
0.38
0.62
0.85
0.98
0.96
0.79
0.53
0.25
0.00
-0.16
-0.20
-0.13
0.05
0.31
0.57
0.73
0.73
0.55
0.25
-0.06
-0.30
-0.42
-0.44
-0.39
-0.24
-0.02
0.26
0.52
0.63
0.50
0.16
-0.29
-0.69
-0.91
-0.93
-0.84
-0.70
-0.53
-0.32
-0.05
0.23
0.40
0.37
0.11
-0.25
-0.52
-0.59
-0.44
-0.21
-0.08
-0.16
-0.44
-0.79
-1.07
-1.19
-1.14
-0.99
-0.79
-0.59
-0.41
-0.28
-0.22
-0.25
-0.32
-0.36
-0.31
-0.13
0.16
0.47
0.73
0.87
0.90
0.82
0.70
0.56
0.44
0.31
0.17
-0.00
-0.20
-0.37
-0.45
-0.41
-0.23
0.06
0.37
0.65
0.83
0.91
0.89
0.82
0.71
0.58
0.42
0.23
0.02
-0.16
-0.28
-0.28
-0.17
-0.00
0.13
0.20
0.17
0.12
0.10
0.12
0.15
0.14
0.06
-0.06
-0.15
-0.16
-0.08
0.04
0.15
0.21
0.21
0.18
0.13
0.07
-0.02
-0.11
-0.20
-0.26
-0.27
-0.23
-0.18
-0.09
0.07
0.34
0.73
1.14
1.44
1.50
1.23
0.72
0.14
-0.32
-0.54
-0.52
-0.38
-0.29
-0.32
-0.49
-0.69
-0.79
-0.73
-0.51
-0.23
0.02
0.19
0.29
0.36
0.42
0.49
0.52
0.48
0.39
0.27
0.16
0.10
0.05
-0.04
-0.18
-0.36
-0.52
-0.60
-0.58
-0.48
-0.35
-0.27
-0.27
-0.35
-0.49
-0.63
-0.71
-0.69
-0.54
-0.29
-0.01
0.21
0.30
0.24
0.11
0.00
0.02
0.19
0.47
0.73
0.85
0.75
0.46
0.09
-0.22
-0.38
-0.37
-0.24
-0.08
0.04
0.12
0.15
0.17
0.18
0.20
0.22
0.23
0.27
0.35
0.46
0.56
0.58
0.47
0.23
-0.08
-0.36
-0.47
-0.36
-0.05
0.35
0.65
0.69
0.42
-0.07
-0.63
-1.08
-1.30
-1.28
-1.08
-0.78
-0.46
-0.12
0.20
0.48
0.65
0.67
0.54
0.36
0.25
0.30
0.49
0.71
0.81
0.70
0.39
-0.02
-0.43
-0.74
-0.96
-1.10
-1.16
-1.11
-0.88
-0.44
0.13
0.69
1.05
1.09
0.80
0.32
-0.17
-0.47
-0.50
-0.28
0.06
0.35
0.47
0.37
0.10
-0.23
-0.50
-0.66
-0.67
-0.59
-0.45
-0.29
-0.13
0.04
0.18
0.26
0.23
0.08
-0.18
-0.48
-0.72
-0.76
-0.53
-0.08
0.49
0.98
1.20
1.08
0.68
0.14
-0.34
-0.59
-0.56
-0.32
0.05
0.44
0.79
1.09
1.29
1.34
1.18
0.80
0.25
-0.32
-0.75
-0.94
-0.87
-0.63
-0.36
-0.17
-0.08
-0.06
-0.03
0.03
0.12
0.18
0.14
-0.05
-0.37
-0.75
-1.08
-1.24
-1.18
-0.91
-0.56
-0.24
-0.06
-0.03
-0.07
-0.09
0.02
0.22
0.44
0.56
0.49
0.22
-0.18
-0.60
-0.92
-1.05
-0.98
-0.72
-0.32
0.11
0.44
0.56
0.39
-0.03
-0.56
-1.03
-1.30
-1.31
-1.09
-0.74
-0.35
0.04
0.41
0.74
0.99
1.12
1.08
0.89
0.64
0.43
0.37
0.47
0.69
0.91
1.06
1.13
1.15
1.18
1.26
1.35
1.35
1.18
0.81
0.32
-0.16
-0.49
-0.58
-0.45
-0.21
-0.00
0.10
0.05
-0.11
-0.29
-0.42
-0.45
-0.40
-0.35
-0.36
-0.45
-0.59
-0.70
-0.70
-0.55
-0.34
-0.16
-0.13
-0.27
-0.53
-0.80
-0.98
-1.02
-0.95
-0.79
-0.57
-0.29
0.06
0.47
0.85
1.09
1.12
0.90
0.53
0.13
-0.14
-0.21
-0.09
0.15
0.42
0.64
0.79
0.85
0.81
0.66
0.40
0.09
-0.17
-0.25
-0.10
0.26
0.73
1.18
1.50
1.62
1.51
1.20
0.71
0.11
-0.47
-0.91
-1.14
-1.15
-1.03
-0.88
-0.81
-0.81
-0.84
-0.82
-0.70
-0.51
-0.32
-0.20
-0.20
-0.32
-0.54
-0.78
-0.95
-0.99
-0.84
-0.47
0.07
0.65
1.13
1.32
1.17
0.71
0.06
-0.63
-1.25
-1.71
-2.00
-2.07
-1.89
-1.48
-0.85
-0.10
0.61
1.11
1.31
1.21
0.94
0.68
0.56
0.60
0.74
0.85
0.82
0.65
0.43
0.27
0.29
0.46
0.71
0.89
0.94
0.85
0.71
0.61
0.60
0.65
0.71
0.70
0.59
0.40
0.19
0.03
-0.03
0.03
0.19
0.41
0.64
0.80
0.84
0.76
0.58
0.34
0.11
-0.05
-0.14
-0.18
-0.23
-0.30
-0.39
-0.48
-0.52
-0.54
-0.51
-0.46
-0.37
-0.26
-0.12
0.03
0.13
0.14
0.05
-0.10
-0.24
-0.31
-0.27
-0.18
-0.08
-0.04
-0.10
-0.21
-0.34
-0.44
-0.48
-0.49
-0.50
-0.54
-0.61
-0.67
-0.69
-0.63
-0.49
-0.32
-0.16
-0.10
-0.19
-0.44
-0.77
-1.08
-1.24
-1.21
-1.00
-0.71
-0.41
-0.17
-0.00
0.08
0.09
0.00
-0.12
-0.21
-0.15
0.12
0.59
1.12
1.56
1.79
1.78
1.55
1.16
0.67
0.13
-0.37
-0.70
-0.73
-0.47
-0.01
0.43
0.68
0.64
0.37
0.03
-0.27
-0.48
-0.64
-0.79
-0.89
-0.90
-0.74
-0.42
-0.07
0.16
0.19
0.03
-0.18
-0.31
-0.26
-0.04
0.30
0.67
1.00
1.24
1.35
1.33
1.19
1.00
0.85
0.76
0.70
0.62
0.46
0.22
-0.04
-0.26
-0.43
-0.62
-0.87
-1.16
-1.37
-1.38
-1.12
-0.67
-0.20
0.10
0.17
0.06
-0.10
-0.18
-0.17
-0.14
-0.17
-0.31
-0.52
-0.73
-0.87
-0.92
-0.93
-0.96
-1.03
-1.12
-1.16
-1.10
-0.91
-0.58
-0.18
0.23
0.54
0.67
0.58
0.25
-0.22
-0.71
-1.05
-1.14
-0.97
-0.61
-0.19
0.15
0.37
0.45
0.45
0.41
0.35
0.27
0.19
0.12
0.09
0.13
0.25
0.41
0.56
0.65
0.67
0.64
0.57
0.49
0.40
0.32
0.27
0.27
0.34
0.47
0.59
0.65
0.62
0.53
0.45
0.49
0.67
0.93
1.16
1.26
1.21
1.08
0.99
1.00
1.07
1.11
1.01
0.74
0.40
0.10
-0.06
-0.05
0.06
0.18
0.27
0.30
0.31
0.29
0.22
0.06
-0.18
-0.47
-0.69
-0.76
-0.65
-0.44
-0.24
-0.14
-0.14
-0.21
-0.25
-0.21
-0.11
0.01
0.09
0.10
0.02
-0.13
-0.39
-0.75
-1.19
-1.58
-1.76
-1.62
-1.17
-0.55
0.01
0.32
0.32
0.10
-0.21
-0.48
-0.67
-0.78
-0.83
-0.82
-0.73
-0.59
-0.44
-0.34
-0.34
-0.41
-0.45
-0.39
-0.18
0.11
0.38
0.52
0.50
0.41
0.35
0.43
0.64
0.89
1.03
0.95
0.64
0.19
-0.24
-0.51
-0.59
-0.49
-0.29
-0.04
0.22
0.46
0.64
0.69
0.57
0.29
-0.06
-0.33
-0.44
-0.40
-0.32
-0.31
-0.43
-0.62
-0.76
-0.76
-0.59
-0.37
-0.18
-0.08
-0.02
0.07
0.28
0.59
0.88
1.06
1.04
0.87
0.64
0.47
0.41
0.45
0.50
0.50
0.40
0.21
0.01
-0.16
-0.28
-0.36
-0.47
-0.67
-0.95
-1.25
-1.43
-1.35
-0.95
-0.30
0.41
0.96
1.19
1.09
0.78
0.48
0.35
0.40
0.55
0.65
0.63
0.50
0.34
0.26
0.30
0.42
0.53
0.56
0.46
0.29
0.12
0.02
0.01
0.06
0.08
0.02
-0.17
-0.41
-0.63
-0.73
-0.66
-0.48
-0.26
-0.08
0.00
0.01
0.00
0.02
0.09
0.20
0.33
0.43
0.47
0.47
0.44
0.38
0.31
0.27
0.24
0.24
0.25
0.27
0.28
0.27
0.24
0.19
0.12
0.01
-0.13
-0.29
-0.47
-0.65
-0.78
-0.85
-0.82
-0.68
-0.46
-0.18
0.07
0.24
0.26
0.11
-0.17
-0.51
-0.80
-0.98
-0.99
-0.84
-0.56
-0.24
0.07
0.32
0.47
0.56
0.59
0.58
0.49
0.32
0.11
-0.07
-0.12
-0.02
0.20
0.43
0.57
0.58
0.48
0.35
0.26
0.23
0.22
0.18
0.10
0.00
-0.07
-0.06
0.02
0.14
0.26
0.33
0.32
0.23
0.04
-0.23
-0.55
-0.85
-1.03
-0.99
-0.71
-0.24
0.28
0.71
0.95
1.00
0.93
0.84
0.76
0.66
0.48
0.20
-0.12
-0.38
-0.51
-0.49
-0.39
-0.29
-0.25
-0.29
-0.36
-0.42
-0.46
-0.52
-0.64
-0.82
-1.02
-1.16
-1.17
-1.02
-0.70
-0.27
0.15
0.46
0.57
0.50
0.34
0.23
0.32
0.64
1.07
1.43
1.56
1.41
1.09
0.76
0.58
0.57
0.68
0.80
0.84
0.74
0.53
0.21
-0.13
-0.43
-0.59
-0.58
-0.41
-0.20
-0.05
-0.02
-0.09
-0.19
-0.27
-0.30
-0.33
-0.39
-0.47
-0.52
-0.49
-0.37
-0.21
-0.06
0.02
0.01
-0.09
-0.24
-0.42
-0.56
-0.65
-0.66
-0.62
-0.59
-0.63
-0.73
-0.85
-0.92
-0.87
-0.74
-0.63
-0.59
-0.65
-0.75
-0.80
-0.73
-0.58
-0.40
-0.26
-0.14
0.02
0.28
0.65
1.05
1.33
1.41
1.24
0.95
0.65
0.50
0.53
0.72
1.00
1.27
1.50
1.62
1.63
1.49
1.20
0.79
0.31
-0.12
-0.38
-0.44
-0.32
-0.12
0.06
0.21
0.38
0.68
1.12
1.63
2.01
2.08
1.75
1.12
0.38
-0.25
-0.65
-0.80
-0.76
-0.62
-0.42
-0.19
0.01
0.12
0.06
-0.19
-0.56
-0.92
-1.11
-1.08
-0.87
-0.59
-0.40
-0.34
-0.41
-0.51
-0.57
-0.56
-0.52
-0.49
-0.53
-0.60
-0.64
-0.60
-0.47
-0.28
-0.11
-0.01
-0.01
-0.10
-0.25
-0.39
-0.44
-0.37
-0.19
0.02
0.15
0.14
0.03
-0.06
0.01
0.27
0.63
0.88
0.84
0.48
-0.06
-0.54
-0.75
-0.63
-0.28
0.13
0.45
0.58
0.55
0.41
0.23
0.06
-0.07
-0.19
-0.34
-0.54
-0.82
-1.10
-1.27
-1.22
-0.90
-0.38
0.19
0.63
0.78
0.63
0.29
-0.07
-0.29
-0.31
-0.17
0.00
0.10
0.07
-0.05
-0.18
-0.24
-0.25
-0.28
-0.40
-0.60
-0.80
-0.87
-0.75
-0.45
-0.10
0.20
0.38
0.46
0.55
0.70
0.90
1.08
1.11
0.93
0.56
0.11
-0.28
-0.51
-0.53
-0.37
-0.08
0.26
0.55
0.72
0.67
0.39
-0.06
-0.55
-0.92
-1.05
-0.87
-0.47
0.03
0.48
0.75
0.81
0.65
0.35
0.00
-0.26
-0.35
-0.26
-0.04
0.18
0.31
0.35
0.33
0.34
0.39
0.45
0.44
0.29
0.00
-0.34
-0.63
-0.77
-0.75
-0.57
-0.30
0.03
0.34
0.57
0.66
0.57
0.34
0.04
-0.24
-0.43
-0.50
-0.50
-0.46
-0.43
-0.40
-0.34
-0.24
-0.10
0.05
0.16
0.22
0.19
0.11
-0.01
-0.14
-0.24
-0.31
-0.34
-0.34
-0.33
-0.30
-0.27
-0.24
-0.21
-0.17
-0.15
-0.15
-0.18
-0.22
-0.24
-0.19
-0.03
0.21
0.50
0.77
0.94
1.00
0.94
0.83
0.71
0.62
0.56
0.51
0.45
0.37
0.27
0.14
-0.01
-0.20
-0.43
-0.66
-0.86
-0.99
-1.01
-0.95
-0.87
-0.82
-0.83
-0.87
-0.89
-0.84
-0.73
-0.60
-0.47
-0.36
-0.22
-0.02
0.24
0.47
0.60
0.55
0.34
0.08
-0.13
-0.19
-0.05
0.24
0.61
0.96
1.23
1.34
1.27
1.05
0.73
0.39
0.12
-0.04
-0.06
0.07
0.28
0.49
0.56
0.42
0.08
-0.36
-0.75
-0.97
-1.04
-1.07
-1.20
-1.52
-1.95
-2.36
-2.59
-2.60
-2.48
-2.37
-2.42
-2.62
-2.91
-3.17
-3.29
-3.28
-3.20
-3.17
-3.29
-3.64
-4.20
-4.89
-5.55
-6.04
-6.32
-6.47
-6.68
-7.19
-8.12
-9.43
-10.93
-12.31
-13.36
-14.00
-14.38
-14.75
-15.38
-16.44
-17.96
-19.79
-21.63
-23.05
-23.50
-22.47
-19.61
-14.96
-9.02
-2.62
3.28
8.00
11.34
13.58
15.23
16.71
18.11
19.23
19.79
19.73
19.33
19.16
19.75
21.35
23.84
26.74
29.53
31.83
33.55
34.82
35.94
37.15
38.49
39.81
40.73
40.77
39.51
36.67
32.25
26.49
19.78
12.59
5.37
-1.44
-7.49
-12.43
-15.97
-17.97
-18.49
-17.84
-16.54
-15.11
-13.98
-13.37
-13.28
-13.55
-14.01
-14.53
-15.08
-15.62
-16.12
-16.46
-16.52
-16.20
-15.52
-14.57
-13.51
-12.48
-11.57
-10.85
-10.35
-10.11
-10.15
-10.44
-10.87
-11.33
-11.70
-11.89
-11.89
-11.70
-11.36
-10.84
-10.11
-9.07
-7.63
-5.71
-3.29
-0.35
3.08
6.90
10.96
15.05
18.86
22.05
24.30
25.35
25.15
23.78
21.52
18.72
15.73
12.81
10.10
7.65
5.46
3.52
1.88
0.55
-0.46
-1.18
-1.73
-2.23
-2.75
-3.30
-3.79
-4.12
-4.25
-4.19
-4.05
-3.95
-3.95
-4.02
-4.04
-3.88
-3.46
-2.83
-2.13
-1.51
-1.08
-0.88
-0.83
-0.85
-0.87
-0.93
-1.07
-1.32
-1.64
-1.91
-2.01
-1.86
-1.55
-1.21
-1.05
-1.12
-1.39
-1.70
-1.89
-1.91
-1.83
-1.76
-1.77
-1.83
-1.84
-1.71
-1.45
-1.18
-1.04
-1.08
-1.18
-1.16
-0.86
-0.29
0.39
0.93
1.14
1.00
0.66
0.35
0.27
0.52
1.05
1.71
2.32
2.71
2.75
2.43
1.77
0.87
-0.13
-1.13
-2.03
-2.81
-3.42
-3.83
-3.99
-3.92
-3.68
-3.37
-3.14
-3.09
-3.24
-3.51
-3.78
-3.91
-3.85
-3.62
-3.28
-2.91
-2.52
-2.06
-1.51
-0.85
-0.14
0.51
1.01
1.28
1.34
1.24
1.08
0.94
0.84
0.75
0.62
0.40
0.09
-0.25
-0.52
-0.65
-0.61
-0.43
-0.19
0.03
0.17
0.22
0.17
0.05
-0.14
-0.40
-0.70
-1.00
-1.23
-1.32
-1.23
-0.96
-0.57
-0.14
0.21
0.41
0.45
0.40
0.40
0.57
0.97
1.55
2.13
2.55
2.67
2.50
2.14
1.75
1.44
1.26
1.14
1.00
0.78
0.48
0.13
-0.20
-0.47
-0.65
-0.73
-0.67
-0.48
-0.17
0.19
0.51
0.72
0.78
0.73
0.61
0.47
0.31
0.13
-0.09
-0.31
-0.50
-0.67
-0.90
-1.29
-1.87
-2.57
-3.16
-3.37
-3.06
-2.25
-1.23
-0.34
0.17
0.22
-0.07
-0.47
-0.78
-0.93
-0.94
-0.90
-0.86
-0.87
-0.92
-0.97
-1.02
-1.04
-1.00
-0.92
-0.82
-0.73
-0.69
-0.68
-0.68
-0.67
-0.67
-0.74
-0.91
-1.19
-1.48
-1.64
-1.59
-1.31
-0.91
-0.52
-0.26
-0.14
-0.11
-0.07
0.03
0.19
0.43
0.76
1.20
1.74
2.33
2.86
3.23
3.36
3.25
2.96
2.57
2.15
1.74
1.39
1.15
1.07
1.17
1.46
1.86
2.27
2.58
2.73
2.64
2.31
1.76
1.03
0.21
-0.57
-1.19
-1.56
-1.63
-1.42
-1.02
-0.59
-0.26
-0.10
-0.13
-0.28
-0.46
-0.56
-0.54
-0.43
-0.29
-0.21
-0.22
-0.31
-0.39
-0.34
-0.10
0.37
1.01
1.70
2.31
2.70
2.82
2.67
2.32
1.91
1.55
1.32
1.22
1.19
1.12
0.97
0.72
0.41
0.10
-0.23
-0.59
-0.96
-1.30
-1.48
-1.38
-0.93
-0.22
0.55
1.12
1.30
1.07
0.58
0.07
-0.20
-0.11
0.34
1.00
1.64
2.06
2.17
2.00
1.64
1.22
0.81
0.46
0.16
-0.08
-0.21
-0.22
-0.14
-0.01
0.05
-0.01
-0.18
-0.35
-0.39
-0.24
0.07
0.39
0.51
0.31
-0.23
-0.96
-1.70
-2.27
-2.56
-2.59
-2.43
-2.20
-1.99
-1.85
-1.80
-1.79
-1.79
-1.78
-1.74
-1.68
-1.61
-1.52
-1.40
-1.23
-0.99
-0.68
-0.37
-0.11
0.04
0.10
0.11
0.15
0.25
0.37
0.44
0.39
0.22
0.02
-0.09
0.02
0.38
0.91
1.46
1.92
2.26
2.51
2.75
3.02
3.25
3.38
3.31
3.04
2.62
2.15
1.67
1.18
0.67
0.17
-0.22
-0.36
-0.16
0.37
1.10
1.79
2.27
2.43
2.28
1.89
1.33
0.70
0.07
-0.50
-0.95
-1.25
-1.45
-1.60
-1.78
-2.02
-2.33
-2.66
-2.99
-3.30
-3.58
-3.81
-3.96
-3.98
-3.84
-3.56
-3.19
-2.79
-2.45
-2.22
-2.12
-2.15
-2.24
-2.29
-2.22
-1.97
-1.58
-1.11
-0.66
-0.25
0.10
0.46
0.84
1.23
1.57
1.79
1.83
1.69
1.45
1.21
1.07
1.05
1.15
1.30
1.44
1.51
1.51
1.43
1.28
1.08
0.86
0.64
0.46
0.34
0.28
0.26
0.21
0.11
-0.05
-0.23
-0.37
-0.42
-0.39
-0.33
-0.29
-0.32
-0.42
-0.50
-0.49
-0.34
-0.04
0.31
0.61
0.77
0.80
0.77
0.78
0.90
1.11
1.29
1.32
1.12
0.70
0.15
-0.40
-0.85
-1.14
-1.28
-1.28
-1.21
-1.09
-0.93
-0.73
-0.47
-0.09
0.43
1.13
1.94
2.75
3.43
3.85
3.95
3.72
3.25
2.63
1.92
1.17
0.42
-0.26
-0.79
-1.07
-1.07
-0.83
-0.43
0.02
0.44
0.80
1.13
1.43
1.70
1.88
1.93
1.84
1.61
1.30
0.97
0.66
0.37
0.07
-0.24
-0.57
-0.88
-1.11
-1.25
-1.31
-1.35
-1.44
-1.58
-1.73
-1.82
-1.77
-1.58
-1.37
-1.24
-1.30
-1.57
-1.97
-2.36
-2.59
-2.53
-2.18
-1.58
-0.88
-0.24
0.20
0.37
0.29
0.09
-0.08
-0.13
-0.01
0.20
0.42
0.55
0.55
0.43
0.26
0.07
-0.09
-0.19
-0.25
-0.28
-0.31
-0.38
-0.50
-0.63
-0.72
-0.74
-0.71
-0.72
-0.88
-1.26
-1.85
-2.52
-3.11
-3.47
-3.59
-3.54
-3.44
-3.39
-3.40
-3.42
-3.37
-3.18
-2.83
-2.36
-1.83
-1.27
-0.72
-0.24
0.14
0.34
0.24
-0.23
-1.09
-2.27
-3.57
-4.77
-5.69
-6.36
-6.96
-7.80
-9.09
-10.87
-12.93
-14.91
-16.50
-17.59
-18.32
-18.95
-19.74
-20.80
-22.07
-23.34
-24.34
-24.79
-24.32
-22.51
-18.95
-13.38
-5.95
2.74
11.66
19.67
25.83
29.67
31.23
30.91
29.22
26.67
23.64
20.44
17.36
14.63
12.40
10.67
9.32
8.11
6.87
5.56
4.26
3.15
2.41
2.12
2.22
2.52
2.82
2.94
2.86
2.61
2.29
1.95
1.58
1.12
0.57
-0.04
-0.65
-1.19
-1.66
-2.07
-2.44
-2.68
-2.62
-2.09
-0.99
0.60
2.46
4.34
5.99
7.34
8.39
9.25
9.98
10.58
10.97
11.08
10.93
10.63
10.38
10.33
10.47
10.62
10.55
10.07
9.21
8.19
7.31
6.74
6.45
6.19
5.69
4.80
3.55
2.13
0.76
-0.42
-1.32
-1.94
-2.29
-2.40
-2.30
-2.10
-1.90
-1.78
-1.74
-1.71
-1.59
-1.30
-0.83
-0.22
0.42
0.97
1.29
1.29
0.98
0.45
-0.16
-0.70
-1.06
-1.27
-1.40
-1.55
-1.81
-2.18
-2.64
-3.13
-3.64
-4.14
-4.60
-4.96
-5.14
-5.10
-4.86
-4.50
-4.10
-3.66
-3.15
-2.50
-1.70
-0.93
-0.45
-0.56
-1.34
-2.61
-3.92
-4.80
-4.88
-4.15
-2.86
-1.40
-0.14
0.72
1.12
1.06
0.53
-0.42
-1.68
-2.99
-4.03
-4.51
-4.40
-3.84
-3.17
-2.71
-2.63
-2.90
-3.41
-4.04
-4.74
-5.54
-6.45
-7.44
-8.40
-9.14
-9.56
-9.64
-9.51
-9.41
-9.62
-10.36
-11.70
-13.49
-15.45
-17.19
-18.42
-19.03
-19.09
-18.80
-18.37
-17.89
-17.30
-16.39
-14.84
-12.27
-8.35
-2.91
3.92
11.68
19.54
26.57
31.93
35.22
36.47
36.14
34.82
33.01
31.01
28.86
26.56
24.15
21.79
19.75
18.22
17.21
16.53
15.89
15.03
13.93
12.77
11.91
11.62
12.02
13.06
14.53
16.05
17.11
17.08
15.38
11.74
6.51
0.60
-4.74
-8.47
-10.25
-10.58
-10.49
-10.92
-12.26
-14.14
-15.76
-16.35
-15.59
-13.71
-11.29
-8.95
-7.07
-5.73
-4.74
-3.87
-2.99
-2.12
-1.44
-1.09
-1.13
-1.49
-1.97
-2.34
-2.44
-2.24
-1.86
-1.50
-1.33
-1.46
-1.84
-2.32
-2.72
-2.85
-2.67
-2.26
-1.83
-1.58
-1.65
-2.01
-2.45
-2.77
-2.77
-2.47
-1.99
-1.54
-1.33
-1.40
-1.71
-2.13
-2.53
-2.83
-3.02
-3.10
-3.08
-2.91
-2.55
-2.01
-1.39
-0.82
-0.45
-0.39
-0.61
-1.01
-1.45
-1.77
-1.92
-1.90
-1.77
-1.63
-1.54
-1.52
-1.50
-1.41
-1.16
-0.76
-0.28
0.12
0.28
0.11
-0.34
-0.94
-1.51
-1.88
-1.99
-1.84
-1.56
-1.23
-0.94
-0.69
-0.46
-0.21
0.04
0.26
0.40
0.39
0.23
-0.07
-0.45
-0.85
-1.20
-1.46
-1.59
-1.60
-1.56
-1.52
-1.56
-1.66
-1.78
-1.87
-1.88
-1.82
-1.73
-1.60
-1.37
-0.99
-0.44
0.18
0.71
1.02
1.05
0.87
0.61
0.40
0.27
0.15
-0.03
-0.28
-0.52
-0.61
-0.46
-0.06
0.47
0.96
1.24
1.23
0.92
0.39
-0.24
-0.80
-1.15
-1.23
-1.05
-0.68
-0.27
0.08
0.32
0.48
0.63
0.78
0.91
0.96
0.90
0.76
0.67
0.72
0.95
1.26
1.52
1.56
1.30
0.80
0.18
-0.39
-0.79
-0.93
-0.81
-0.43
0.16
0.88
1.61
2.23
2.59
2.59
2.20
1.48
0.60
-0.22
-0.73
-0.78
-0.37
0.30
0.94
1.25
1.07
0.44
-0.49
-1.50
-2.42
-3.18
-3.72
-4.00
-3.95
-3.53
-2.82
-1.96
-1.13
-0.52
-0.18
-0.07
-0.11
-0.20
-0.26
-0.28
-0.27
-0.25
-0.24
-0.26
-0.27
-0.22
-0.06
0.18
0.42
0.56
0.51
0.31
0.03
-0.23
-0.42
-0.58
-0.78
-1.08
-1.41
-1.70
-1.85
-1.86
-1.77
-1.67
-1.55
-1.41
-1.18
-0.87
-0.54
-0.26
-0.08
0.03
0.16
0.38
0.70
1.06
1.37
1.54
1.55
1.46
1.34
1.22
1.08
0.86
0.53
0.12
-0.24
-0.40
-0.30
0.02
0.37
0.54
0.33
-0.24
-1.05
-1.85
-2.42
-2.61
-2.36
-1.71
-0.80
0.20
1.10
1.77
2.17
2.36
2.46
2.55
2.66
2.73
2.71
2.56
2.32
2.07
1.85
1.67
1.48
1.23
0.92
0.57
0.20
-0.16
-0.50
-0.82
-1.07
-1.22
-1.20
-1.02
-0.69
-0.31
-0.01
0.14
0.11
-0.06
-0.26
-0.40
-0.46
-0.48
-0.55
-0.72
-1.02
-1.35
-1.60
-1.68
-1.55
-1.24
-0.84
-0.42
-0.05
0.23
0.41
0.51
0.54
0.54
0.54
0.57
0.60
0.60
0.51
0.29
-0.06
-0.47
-0.84
-1.05
-1.05
-0.82
-0.43
0.02
0.42
0.72
0.91
1.04
1.14
1.23
1.30
1.28
1.12
0.76
0.25
-0.33
-0.87
-1.26
-1.45
-1.43
-1.26
-0.98
-0.62
-0.20
0.27
0.75
1.19
1.49
1.59
1.47
1.16
0.76
0.39
0.09
-0.12
-0.30
-0.54
-0.89
-1.34
-1.81
-2.18
-2.34
-2.26
-1.93
-1.45
-0.92
-0.44
-0.07
0.16
0.27
0.27
0.18
0.05
-0.09
-0.17
-0.16
-0.03
0.21
0.49
0.71
0.79
0.68
0.42
0.12
-0.11
-0.19
-0.14
0.00
0.15
0.24
0.27
0.30
0.36
0.50
0.73
1.02
1.35
1.65
1.87
1.95
1.89
1.73
1.55
1.44
1.46
1.60
1.82
2.03
2.22
2.36
2.44
2.45
2.34
2.06
1.60
1.03
0.46
-0.01
-0.35
-0.56
-0.75
-1.00
-1.35
-1.78
-2.20
-2.53
-2.71
-2.76
-2.75
-2.79
-2.95
-3.20
-3.48
-3.65
-3.62
-3.32
-2.80
-2.15
-1.50
-0.99
-0.70
-0.64
-0.80
-1.10
-1.43
-1.68
-1.76
-1.61
-1.23
-0.72
-0.18
0.27
0.57
0.71
0.73
0.68
0.59
0.44
0.22
-0.06
-0.33
-0.52
-0.57
-0.48
-0.27
0.02
0.37
0.77
1.16
1.51
1.74
1.84
1.87
1.98
2.26
2.73
3.26
3.67
3.79
3.55
3.05
2.41
1.81
1.32
1.04
1.00
1.23
1.69
2.26
2.76
2.98
2.80
2.20
1.25
0.09
-1.12
-2.20
-2.99
-3.33
-3.17
-2.60
-1.82
-1.10
-0.64
-0.53
-0.73
-1.12
-1.55
-1.92
-2.13
-2.13
-1.86
-1.36
-0.72
-0.09
0.37
0.59
0.60
0.48
0.34
0.20
0.05
-0.16
-0.43
-0.74
-1.02
-1.23
-1.36
-1.42
-1.46
-1.49
-1.50
-1.44
-1.30
-1.07
-0.80
-0.54
-0.34
-0.22
-0.11
0.02
0.21
0.45
0.67
0.77
0.70
0.43
0.00
-0.48
-0.86
-1.01
-0.84
-0.37
0.25
0.83
1.20
1.26
1.06
0.68
0.22
-0.25
-0.68
-1.01
-1.14
-1.00
-0.58
0.03
0.62
1.01
1.13
1.01
0.77
0.51
0.23
-0.11
-0.56
-1.06
-1.49
-1.68
-1.52
-1.02
-0.30
0.42
0.92
1.02
0.65
-0.14
-1.17
-2.11
-2.67
-2.61
-1.93
-0.83
0.35
1.27
1.72
1.67
1.26
0.64
-0.02
-0.64
-1.18
-1.61
-1.86
-1.88
-1.64
-1.20
-0.66
-0.12
0.31
0.63
0.87
1.05
1.21
1.35
1.46
1.58
1.75
1.96
2.20
2.41
2.52
2.51
2.38
2.15
1.85
1.48
1.01
0.50
0.04
-0.24
-0.26
-0.01
0.38
0.74
0.91
0.86
0.64
0.35
0.09
-0.09
-0.22
-0.35
-0.52
-0.73
-0.98
-1.24
-1.47
-1.63
-1.70
-1.68
-1.58
-1.45
-1.28
-1.07
-0.79
-0.44
-0.05
0.29
0.47
0.47
0.32
0.13
0.02
0.05
0.19
0.36
0.46
0.41
0.23
-0.02
-0.26
-0.40
-0.41
-0.30
-0.12
0.12
0.46
1.00
1.77
2.73
3.68
4.35
4.53
4.13
3.28
2.26
1.38
0.84
0.68
0.75
0.83
0.77
0.49
0.09
-0.30
-0.55
-0.66
-0.70
-0.76
-0.90
-1.05
-1.12
-1.04
-0.81
-0.55
-0.36
-0.30
-0.32
-0.34
-0.27
-0.09
0.14
0.35
0.50
0.57
0.61
0.65
0.75
0.90
1.10
1.29
1.36
1.19
0.71
-0.06
-0.98
-1.81
-2.33
-2.43
-2.10
-1.46
-0.67
0.09
0.67
1.00
1.04
0.86
0.55
0.24
-0.02
-0.23
-0.40
-0.57
-0.67
-0.63
-0.40
-0.02
0.35
0.53
0.42
0.04
-0.45
-0.88
-1.13
-1.21
-1.22
-1.28
-1.40
-1.53
-1.57
-1.45
-1.21
-0.92
-0.72
-0.67
-0.75
-0.87
-0.92
-0.82
-0.58
-0.26
0.05
0.30
0.45
0.48
0.36
0.06
-0.42
-1.00
-1.51
-1.76
-1.61
-1.05
-0.17
0.84
1.77
2.45
2.73
2.55
1.94
1.01
-0.03
-0.95
-1.52
-1.64
-1.30
-0.61
0.29
1.22
1.99
2.42
2.40
1.92
1.11
0.18
-0.63
-1.20
-1.52
-1.70
-1.87
-2.07
-2.26
-2.33
-2.21
-1.94
-1.62
-1.40
-1.34
-1.43
-1.59
-1.74
-1.83
-1.90
-2.00
-2.14
-2.31
-2.44
-2.46
-2.33
-2.08
-1.77
-1.48
-1.25
-1.08
-0.94
-0.77
-0.56
-0.33
-0.17
-0.15
-0.30
-0.55
-0.80
-0.95
-0.97
-0.91
-0.86
-0.87
-0.94
-1.00
-0.96
-0.78
-0.51
-0.26
-0.15
-0.25
-0.50
-0.81
-1.03
-1.06
-0.90
-0.57
-0.14
0.34
0.83
1.34
1.86
2.37
2.85
3.32
3.81
4.36
4.97
5.56
5.98
6.08
5.82
5.24
4.53
3.90
3.50
3.35
3.36
3.42
3.43
3.38
3.30
3.20
3.05
2.78
2.39
1.94
1.58
1.50
1.76
2.36
3.12
3.83
4.30
4.41
4.12
3.45
2.51
1.39
0.21
-0.94
-1.98
-2.86
-3.52
-3.92
-4.02
-3.83
-3.44
-3.03
-2.76
-2.76
-3.01
-3.42
-3.81
-4.03
-3.98
-3.63
-2.99
-2.10
-0.97
0.33
1.66
2.84
3.61
3.79
3.33
2.34
1.09
-0.11
-1.01
-1.48
-1.59
-1.48
-1.34
-1.28
-1.31
-1.40
-1.47
-1.49
-1.44
-1.35
-1.20
-1.02
-0.80
-0.55
-0.30
-0.08
0.08
0.16
0.18
0.16
0.15
0.18
0.29
0.47
0.72
1.03
1.39
1.77
2.12
2.38
2.49
2.39
2.09
1.64
1.11
0.55
0.02
-0.45
-0.82
-1.05
-1.10
-0.96
-0.67
-0.34
-0.10
-0.04
-0.20
-0.55
-1.01
-1.43
-1.74
-1.89
-1.91
-1.87
-1.83
-1.80
-1.79
-1.75
-1.67
-1.54
-1.41
-1.27
-1.14
-1.00
-0.85
-0.70
-0.56
-0.44
-0.30
-0.12
0.12
0.40
0.63
0.74
0.62
0.28
-0.28
-0.97
-1.67
-2.24
-2.58
-2.60
-2.33
-1.85
-1.35
-1.01
-0.95
-1.14
-1.46
-1.71
-1.74
-1.47
-0.98
-0.37
0.22
0.73
1.13
1.43
1.62
1.69
1.67
1.57
1.48
1.47
1.57
1.77
1.98
2.11
2.08
1.87
1.52
1.12
0.76
0.49
0.34
0.29
0.32
0.39
0.46
0.45
0.29
-0.10
-0.72
-1.46
-2.14
-2.56
-2.58
-2.22
-1.58
-0.88
-0.33
-0.05
-0.04
-0.21
-0.41
-0.51
-0.43
-0.21
0.04
0.20
0.22
0.12
0.05
0.13
0.43
0.87
1.29
1.54
1.53
1.31
1.04
0.84
0.82
0.94
1.09
1.15
1.05
0.80
0.48
0.15
-0.14
-0.41
-0.70
-1.02
-1.32
-1.49
-1.43
-1.09
-0.50
0.17
0.74
1.05
1.06
0.83
0.50
0.25
0.14
0.18
0.26
0.27
0.16
-0.03
-0.19
-0.18
0.02
0.37
0.70
0.88
0.86
0.68
0.48
0.35
0.31
0.28
0.17
-0.07
-0.40
-0.68
-0.81
-0.73
-0.51
-0.26
-0.12
-0.13
-0.29
-0.51
-0.72
-0.85
-0.89
-0.87
-0.80
-0.70
-0.56
-0.41
-0.24
-0.04
0.24
0.61
1.10
1.64
2.10
2.34
2.24
1.81
1.17
0.50
-0.01
-0.27
-0.28
-0.11
0.13
0.33
0.41
0.32
0.05
-0.38
-0.90
-1.46
-1.98
-2.42
-2.78
-3.06
-3.26
-3.30
-3.12
-2.65
-1.88
-0.90
0.07
0.78
0.99
0.62
-0.19
-1.17
-1.95
-2.29
-2.11
-1.52
-0.73
0.05
0.71
1.22
1.61
1.91
2.09
2.14
2.04
1.82
1.55
1.30
1.18
1.23
1.44
1.79
2.16
2.47
2.65
2.72
2.73
2.76
2.87
3.05
3.21
3.24
3.03
2.54
1.80
0.92
0.03
-0.71
-1.18
-1.26
-0.93
-0.23
0.75
1.87
2.97
3.91
4.58
4.86
4.72
4.13
3.17
2.00
0.82
-0.17
-0.84
-1.17
-1.28
-1.33
-1.48
-1.81
-2.30
-2.83
-3.26
-3.50
-3.50
-3.27
-2.82
-2.15
-1.28
-0.26
0.79
1.71
2.33
2.51
2.25
1.66
0.89
0.11
-0.54
-1.04
-1.40
-1.69
-1.95
-2.19
-2.37
-2.45
-2.42
-2.30
-2.16
-2.02
-1.90
-1.76
-1.57
-1.32
-1.07
-0.90
-0.88
-1.01
-1.22
-1.38
-1.35
-1.08
-0.62
-0.12
0.24
0.35
0.22
-0.06
-0.34
-0.47
-0.41
-0.20
0.08
0.33
0.55
0.74
0.95
1.22
1.52
1.78
1.88
1.73
1.28
0.60
-0.15
-0.77
-1.10
-1.08
-0.77
-0.28
0.25
0.74
1.12
1.38
1.46
1.36
1.09
0.68
0.23
-0.17
-0.47
-0.66
-0.78
-0.86
-0.93
-0.96
-0.93
-0.85
-0.76
-0.71
-0.76
-0.92
-1.11
-1.24
-1.21
-0.99
-0.65
-0.29
-0.02
0.10
0.12
0.11
0.11
0.14
0.14
0.07
-0.08
-0.24
-0.29
-0.17
0.10
0.41
0.59
0.53
0.17
-0.42
-1.14
-1.85
-2.43
-2.78
-2.81
-2.50
-1.91
-1.14
-0.37
0.25
0.64
0.77
0.72
0.57
0.39
0.26
0.26
0.44
0.82
1.34
1.86
2.20
2.24
1.93
1.34
0.64
0.01
-0.38
-0.46
-0.21
0.34
1.07
1.84
2.52
2.96
3.11
2.94
2.52
1.91
1.24
0.58
-0.00
-0.47
-0.81
-1.01
-1.03
-0.83
-0.42
0.14
0.75
1.23
1.41
1.23
0.74
0.10
-0.47
-0.80
-0.77
-0.41
0.21
0.92
1.57
2.02
2.17
2.02
1.64
1.14
0.59
0.04
-0.51
-1.04
-1.47
-1.67
-1.52
-1.01
-0.29
0.36
0.66
0.49
-0.09
-0.83
-1.47
-1.86
-2.00
-2.00
-2.01
-2.09
-2.22
-2.33
-2.38
-2.40
-2.44
-2.57
-2.79
-3.05
-3.26
-3.36
-3.35
-3.27
-3.23
-3.29
-3.49
-3.82
-4.23
-4.61
-4.90
-5.03
-4.98
-4.83
-4.64
-4.55
-4.61
-4.83
-5.14
-5.47
-5.72
-5.87
-5.94
-5.95
-5.94
-5.89
-5.74
-5.46
-5.03
-4.48
-3.88
-3.31
-2.81
-2.41
-2.12
-1.91
-1.80
-1.80
-1.92
-2.15
-2.44
-2.68
-2.77
-2.59
-2.08
-1.27
-0.24
0.91
2.10
3.26
4.34
5.35
6.24
7.03
7.69
8.24
8.71
9.09
9.38
9.52
9.50
9.33
9.08
8.79
8.50
8.18
7.78
7.27
6.70
6.19
5.84
5.70
5.71
5.76
5.74
5.63
5.51
5.47
5.61
5.88
6.16
6.27
6.08
5.56
4.83
4.11
3.60
3.47
3.77
4.49
5.50
6.65
7.76
8.62
9.09
9.08
8.58
7.65
6.39
4.96
3.49
2.13
0.98
0.08
-0.64
-1.33
-2.12
-3.10
-4.22
-5.34
-6.32
-7.10
-7.70
-8.19
-8.62
-8.94
-9.10
-9.09
-9.00
-9.04
-9.43
-10.32
-11.66
-13.23
-14.69
-15.69
-15.97
-15.47
-14.39
-13.07
-11.95
-11.35
-11.36
-11.76
-12.18
-12.24
-11.79
-10.90
-9.91
-9.28
-9.43
-10.58
-12.70
-15.35
-17.71
-18.66
-17.10
-12.32
-4.42
5.66
16.33
25.91
33.11
37.44
39.17
39.08
37.99
36.52
34.98
33.43
31.86
30.23
28.56
26.84
25.01
22.99
20.68
18.02
15.00
11.74
8.41
5.22
2.37
-0.01
-1.87
-3.25
-4.21
-4.83
-5.12
-5.09
-4.78
-4.25
-3.64
-3.09
-2.72
-2.62
-2.84
-3.37
-4.11
-4.90
-5.53
-5.83
-5.71
-5.25
-4.65
-4.18
-4.08
-4.44
-5.21
-6.20
-7.19
-7.93
-8.33
-8.37
-8.17
-7.91
-7.70
-7.60
-7.56
-7.49
-7.29
-6.91
-6.37
-5.71
-4.99
-4.25
-3.50
-2.75
-1.97
-1.18
-0.39
0.35
0.98
1.41
1.60
1.54
1.30
1.01
0.77
0.65
0.61
0.61
0.59
0.55
0.49
0.43
0.34
0.14
-0.23
-0.78
-1.42
-2.03
-2.43
-2.56
-2.40
-2.06
-1.62
-1.22
-0.92
-0.81
-0.91
-1.21
-1.64
-2.10
-2.46
-2.65
-2.63
-2.41
-2.05
-1.61
-1.17
-0.80
-0.59
-0.61
-0.85
-1.26
-1.69
-1.98
-2.00
-1.69
-1.10
-0.34
0.42
1.06
1.45
1.56
1.44
1.15
0.85
0.62
0.56
0.65
0.83
0.96
0.93
0.68
0.25
-0.27
-0.78
-1.21
-1.52
-1.72
-1.83
-1.86
-1.84
-1.80
-1.82
-1.94
-2.19
-2.48
-2.72
-2.81
-2.74
-2.55
-2.32
-2.13
-2.03
-2.00
-2.00
-2.01
-1.99
-1.92
-1.75
-1.45
-0.99
-0.43
0.15
0.61
0.86
0.89
0.74
0.54
0.38
0.31
0.30
0.26
0.12
-0.17
-0.55
-0.88
-0.96
-0.67
-0.00
0.90
1.77
2.35
2.53
2.35
2.03
1.75
1.61
1.56
1.43
1.14
0.73
0.36
0.21
0.36
0.70
1.01
1.06
0.76
0.18
-0.47
-1.00
-1.25
-1.19
-0.89
-0.47
-0.05
0.28
0.47
0.54
0.53
0.52
0.54
0.62
0.69
0.71
0.65
0.54
0.42
0.36
0.37
0.44
0.54
0.63
0.67
0.64
0.55
0.40
0.22
0.03
-0.14
-0.26
-0.31
-0.32
-0.32
-0.35
-0.44
-0.57
-0.71
-0.80
-0.75
-0.55
-0.22
0.16
0.48
0.65
0.63
0.50
0.41
0.49
0.82
1.31
1.78
2.00
1.83
1.29
0.55
-0.13
-0.59
-0.77
-0.81
-0.88
-1.13
-1.60
-2.19
-2.75
-3.15
-3.31
-3.24
-2.98
-2.56
-2.03
-1.40
-0.70
0.01
0.60
0.97
1.05
0.86
0.54
0.28
0.24
0.50
1.00
1.60
2.10
2.39
2.42
2.26
2.02
1.79
1.62
1.52
1.46
1.43
1.39
1.30
1.13
0.90
0.64
0.48
0.51
0.76
1.18
1.62
1.91
1.96
1.76
1.39
0.94
0.48
0.03
-0.40
-0.75
-0.95
-0.89
-0.56
-0.03
0.50
0.83
0.80
0.41
-0.20
-0.80
-1.19
-1.27
-1.11
-0.85
-0.65
-0.56
-0.57
-0.58
-0.52
-0.36
-0.17
-0.00
0.11
0.17
0.23
0.31
0.40
0.46
0.47
0.42
0.36
0.31
0.31
0.34
0.36
0.30
0.11
-0.25
-0.73
-1.24
-1.66
-1.85
-1.77
-1.48
-1.11
-0.82
-0.70
-0.78
-0.96
-1.08
-1.06
-0.82
-0.43
-0.00
0.36
0.54
0.54
0.38
0.15
-0.10
-0.34
-0.58
-0.82
-1.02
-1.12
-1.05
-0.83
-0.58
-0.49
-0.71
-1.28
-2.13
-3.07
-3.86
-4.29
-4.26
-3.72
-2.76
-1.52
-0.25
0.80
1.45
1.63
1.40
0.93
0.42
-0.01
-0.30
-0.44
-0.47
-0.42
-0.30
-0.12
0.12
0.39
0.62
0.76
0.77
0.65
0.42
0.16
-0.06
-0.19
-0.25
-0.29
-0.37
-0.52
-0.70
-0.85
-0.89
-0.78
-0.53
-0.18
0.20
0.57
0.91
1.19
1.39
1.49
1.52
1.53
1.55
1.63
1.76
1.89
1.98
1.99
1.97
1.99
2.11
2.33
2.58
2.78
2.88
2.90
2.88
2.90
2.98
3.09
3.15
3.08
2.82
2.36
1.74
1.02
0.29
-0.36
-0.87
-1.23
-1.50
-1.80
-2.22
-2.81
-3.48
-4.11
-4.54
-4.68
-4.51
-4.05
-3.39
-2.60
-1.82
-1.15
-0.75
-0.69
-0.94
-1.35
-1.71
-1.83
-1.69
-1.36
-1.03
-0.81
-0.73
-0.66
-0.47
-0.06
0.50
1.07
1.46
1.57
1.45
1.25
1.09
1.07
1.14
1.22
1.23
1.14
0.98
0.80
0.65
0.56
0.56
0.67
0.94
1.35
1.82
2.28
2.61
2.76
2.74
2.61
2.45
2.30
2.16
2.02
1.87
1.72
1.56
1.38
1.18
0.94
0.69
0.43
0.19
-0.02
-0.19
-0.33
-0.43
-0.45
-0.37
-0.18
0.08
0.32
0.48
0.53
0.49
0.44
0.41
0.36
0.18
-0.23
-0.89
-1.70
-2.47
-2.98
-3.12
-2.90
-2.48
-2.04
-1.73
-1.59
-1.61
-1.78
-2.12
-2.62
-3.22
-3.73
-3.88
-3.46
-2.40
-0.91
0.66
1.90
2.53
2.49
1.88
0.94
-0.08
-0.99
-1.65
-1.96
-1.85
-1.30
-0.38
0.73
1.80
2.59
2.96
2.86
2.38
1.66
0.89
0.18
-0.36
-0.71
-0.93
-1.06
-1.17
-1.31
-1.52
-1.83
-2.24
-2.71
-3.16
-3.47
-3.55
-3.36
-2.98
-2.58
-2.37
-2.50
-2.96
-3.59
-4.12
-4.34
-4.18
-3.77
-3.35
-3.15
-3.30
-3.75
-4.31
-4.75
-4.85
-4.55
-3.87
-2.94
-1.92
-0.97
-0.19
0.37
0.75
1.06
1.38
1.77
2.24
2.74
3.14
3.37
3.37
3.19
2.90
2.66
2.56
2.71
3.14
3.84
4.75
5.76
6.77
7.63
8.24
8.54
8.55
8.34
8.02
7.71
7.47
7.25
6.98
6.53
5.82
4.83
3.65
2.45
1.45
0.85
0.79
1.26
2.12
3.11
3.91
4.29
4.09
3.36
2.22
0.85
-0.56
-1.89
-3.02
-3.88
-4.41
-4.62
-4.55
-4.35
-4.17
-4.14
-4.30
-4.59
-4.85
-4.94
-4.78
-4.37
-3.80
-3.21
-2.73
-2.45
-2.35
-2.40
-2.50
-2.57
-2.54
-2.40
-2.20
-2.01
-1.88
-1.85
-1.92
-2.04
-2.18
-2.34
-2.52
-2.79
-3.16
-3.59
-3.99
-4.20
-4.15
-3.83
-3.39
-3.05
-3.05
-3.52
-4.48
-5.82
-7.32
-8.79
-10.05
-11.03
-11.76
-12.39
-13.11
-14.04
-15.20
-16.33
-17.03
-16.86
-15.42
-12.47
-7.87
-1.59
6.17
14.88
23.58
31.04
36.09
38.08
37.19
34.33
30.79
27.75
25.82
25.09
25.22
25.86
26.75
27.68
28.37
28.29
26.84
23.55
18.43
12.00
5.21
-0.90
-5.65
-8.82
-10.73
-11.88
-12.78
-13.64
-14.45
-15.02
-15.21
-15.00
-14.49
-13.87
-13.27
-12.78
-12.36
-11.97
-11.55
-11.08
-10.59
-10.06
-9.47
-8.79
-7.99
-7.09
-6.14
-5.20
-4.30
-3.44
-2.62
-1.90
-1.35
-1.05
-1.00
-1.10
-1.17
-1.02
-0.61
-0.04
0.45
0.62
0.37
-0.21
-0.85
-1.29
-1.31
-0.92
-0.28
0.36
0.78
0.92
0.84
0.71
0.67
0.75
0.88
0.94
0.83
0.57
0.26
0.06
0.07
0.31
0.62
0.81
0.70
0.25
-0.51
-1.43
-2.33
-3.03
-3.39
-3.26
-2.61
-1.46
-0.01
1.45
2.56
3.09
2.97
2.33
1.46
0.63
0.02
-0.35
-0.57
-0.75
-0.95
-1.18
-1.39
-1.53
-1.55
-1.48
-1.39
-1.35
-1.44
-1.66
-1.94
-2.13
-2.09
-1.70
-0.95
0.09
1.25
2.33
3.19
3.69
3.81
3.57
3.02
2.27
1.43
0.61
-0.13
-0.74
-1.19
-1.49
-1.60
-1.51
-1.21
-0.75
-0.24
0.20
0.44
0.45
0.30
0.13
0.08
0.24
0.58
0.99
1.36
1.59
1.68
1.64
1.55
1.43
1.26
1.02
0.70
0.33
-0.01
-0.21
-0.21
0.03
0.48
1.06
1.63
2.10
2.36
2.38
2.13
1.64
0.92
0.01
-0.97
-1.87
-2.47
-2.58
-2.15
-1.32
-0.40
0.31
0.59
0.44
0.05
-0.33
-0.56
-0.61
-0.58
-0.60
-0.72
-0.85
-0.88
-0.74
-0.43
-0.09
0.13
0.10
-0.18
-0.64
-1.13
-1.55
-1.79
-1.83
-1.68
-1.39
-1.02
-0.65
-0.32
-0.09
0.04
0.05
-0.02
-0.13
-0.17
-0.07
0.23
0.70
1.19
1.53
1.57
1.31
0.86
0.41
0.11
-0.00
-0.00
0.01
-0.01
-0.07
-0.11
-0.11
-0.06
-0.03
-0.04
-0.12
-0.23
-0.31
-0.34
-0.32
-0.27
-0.25
-0.32
-0.51
-0.85
-1.27
-1.67
-1.89
-1.83
-1.45
-0.82
-0.09
0.57
1.01
1.18
1.09
0.81
0.45
0.11
-0.11
-0.17
-0.07
0.13
0.36
0.49
0.43
0.12
-0.43
-1.13
-1.81
-2.26
-2.32
-1.95
-1.25
-0.45
0.20
0.54
0.54
0.33
0.11
0.03
0.16
0.45
0.79
1.09
1.30
1.45
1.53
1.51
1.32
0.91
0.29
-0.47
-1.25
-1.97
-2.58
-3.07
-3.40
-3.51
-3.32
-2.79
-1.98
-1.05
-0.20
0.38
0.59
0.48
0.18
-0.14
-0.34
-0.35
-0.18
0.09
0.36
0.60
0.77
0.85
0.82
0.63
0.27
-0.16
-0.53
-0.66
-0.45
0.05
0.63
1.09
1.23
1.06
0.70
0.38
0.27
0.45
0.83
1.23
1.47
1.45
1.17
0.72
0.25
-0.11
-0.26
-0.15
0.26
0.92
1.77
2.63
3.30
3.56
3.32
2.62
1.66
0.71
0.01
-0.32
-0.30
-0.03
0.35
0.74
1.07
1.31
1.40
1.29
0.92
0.31
-0.41
-1.08
-1.52
-1.67
-1.55
-1.28
-0.99
-0.75
-0.56
-0.36
-0.14
0.10
0.31
0.41
0.38
0.21
-0.03
-0.27
-0.44
-0.52
-0.51
-0.44
-0.34
-0.20
-0.01
0.22
0.47
0.72
0.89
0.95
0.91
0.79
0.65
0.54
0.46
0.39
0.33
0.28
0.22
0.15
0.02
-0.19
-0.46
-0.72
-0.87
-0.80
-0.49
-0.01
0.51
0.91
1.06
0.92
0.55
-0.01
-0.68
-1.39
-2.03
-2.51
-2.67
-2.40
-1.71
-0.74
0.26
0.96
1.12
0.66
-0.31
-1.53
-2.68
-3.47
-3.74
-3.45
-2.70
-1.66
-0.58
0.28
0.74
0.74
0.39
-0.11
-0.52
-0.70
-0.60
-0.31
0.06
0.44
0.80
1.13
1.41
1.61
1.69
1.64
1.47
1.26
1.11
1.05
1.09
1.17
1.21
1.10
0.78
0.22
-0.49
-1.19
-1.68
-1.86
-1.72
-1.39
-1.04
-0.79
-0.63
-0.45
-0.11
0.43
1.10
1.72
2.12
2.20
1.98
1.54
0.98
0.36
-0.29
-0.93
-1.46
-1.79
-1.82
-1.54
-1.02
-0.39
0.21
0.65
0.92
1.02
1.05
1.07
1.14
1.20
1.19
1.03
0.74
0.42
0.19
0.19
0.39
0.68
0.89
0.87
0.61
0.19
-0.22
-0.50
-0.58
-0.53
-0.47
-0.49
-0.67
-0.95
-1.23
-1.40
-1.39
-1.22
-0.96
-0.72
-0.57
-0.49
-0.45
-0.43
-0.47
-0.63
-0.96
-1.43
-1.90
-2.17
-2.05
-1.47
-0.50
0.66
1.78
2.67
3.23
3.50
3.56
3.49
3.32
3.02
2.57
1.99
1.35
0.80
0.44
0.30
0.33
0.39
0.35
0.15
-0.15
-0.40
-0.50
-0.37
-0.06
0.35
0.74
1.04
1.20
1.19
1.02
0.69
0.28
-0.16
-0.56
-0.89
-1.14
-1.30
-1.33
-1.16
-0.73
-0.10
0.59
1.15
1.41
1.31
0.90
0.28
-0.43
-1.11
-1.69
-2.09
-2.28
-2.25
-2.05
-1.80
-1.58
-1.45
-1.44
-1.52
-1.66
-1.83
-1.99
-2.10
-2.09
-1.98
-1.79
-1.61
-1.50
-1.50
-1.57
-1.63
-1.56
-1.30
-0.81
-0.14
0.60
1.20
1.53
1.52
1.25
0.92
0.77
0.90
1.25
1.63
1.84
1.79
1.54
1.24
1.04
0.94
0.87
0.74
0.53
0.30
0.15
0.15
0.25
0.36
0.34
0.11
-0.35
-0.95
-1.56
-2.01
-2.15
-1.92
-1.38
-0.70
-0.06
0.42
0.73
0.94
1.12
1.27
1.34
1.23
0.92
0.47
0.03
-0.27
-0.39
-0.38
-0.35
-0.38
-0.46
-0.55
-0.61
-0.67
-0.80
-1.08
-1.49
-1.92
-2.18
-2.08
-1.59
-0.80
0.10
0.89
1.41
1.60
1.42
0.93
0.15
-0.82
-1.81
-2.62
-3.07
-3.04
-2.61
-2.00
-1.52
-1.40
-1.75
-2.48
-3.33
-4.05
-4.44
-4.53
-4.48
-4.48
-4.66
-5.01
-5.40
-5.64
-5.55
-4.93
-3.59
-1.40
1.63
5.23
8.89
11.99
14.06
14.90
14.73
13.95
13.02
12.19
11.50
10.82
10.03
9.05
7.91
6.68
5.40
4.10
2.81
1.54
0.33
-0.80
-1.84
-2.76
-3.52
-4.10
-4.54
-4.86
-5.11
-5.27
-5.26
-4.99
-4.43
-3.67
-2.87
-2.24
-1.93
-1.95
-2.24
-2.66
-3.05
-3.28
-3.26
-2.92
-2.31
-1.58
-0.94
-0.55
-0.50
-0.70
-0.99
-1.18
-1.15
-0.91
-0.60
-0.36
-0.30
-0.44
-0.69
-0.93
-1.04
-0.96
-0.71
-0.35
0.03
0.39
0.71
0.99
1.24
1.43
1.53
1.54
1.48
1.38
1.29
1.26
1.30
1.47
1.79
2.24
2.73
3.13
3.28
3.09
2.60
1.94
1.29
0.78
0.44
0.23
0.09
-0.06
-0.23
-0.39
-0.50
-0.53
-0.49
-0.41
-0.34
-0.33
-0.43
-0.68
-1.03
-1.44
-1.83
-2.16
-2.41
-2.58
-2.66
-2.60
-2.35
-1.89
-1.23
-0.46
0.31
0.97
1.46
1.73
1.80
1.73
1.59
1.46
1.33
1.16
0.89
0.50
0.06
-0.31
-0.49
-0.45
-0.28
-0.13
-0.11
-0.22
-0.37
-0.41
-0.28
-0.01
0.29
0.49
0.54
0.48
0.39
0.32
0.31
0.34
0.40
0.47
0.57
0.68
0.77
0.81
0.79
0.71
0.62
0.55
0.51
0.48
0.41
0.27
0.09
-0.01
0.07
0.43
1.04
1.77
2.43
2.80
2.76
2.27
1.38
0.20
-1.16
-2.56
-3.84
-4.80
-5.27
-5.13
-4.44
-3.42
-2.36
-1.54
-1.09
-0.98
-1.06
-1.11
-1.00
-0.70
-0.33
-0.03
0.06
-0.06
-0.31
-0.55
-0.66
-0.63
-0.50
-0.39
-0.39
-0.48
-0.60
-0.65
-0.59
-0.46
-0.34
-0.30
-0.32
-0.34
-0.24
0.02
0.39
0.77
1.03
1.10
1.01
0.84
0.64
0.45
0.22
-0.09
-0.47
-0.86
-1.13
-1.15
-0.86
-0.29
0.45
1.19
1.76
2.03
1.99
1.70
1.30
0.96
0.83
0.93
1.22
1.56
1.81
1.84
1.64
1.22
0.65
-0.01
-0.70
-1.36
-1.89
-2.21
-2.25
-2.00
-1.54
-0.95
-0.37
0.08
0.35
0.42
0.34
0.19
0.06
0.06
0.21
0.50
0.84
1.11
1.20
1.08
0.81
0.47
0.16
-0.05
-0.15
-0.15
-0.12
-0.09
-0.08
-0.08
-0.07
-0.02
0.08
0.20
0.27
0.24
0.07
-0.25
-0.69
-1.19
-1.67
-2.02
-2.12
-1.86
-1.25
-0.38
0.54
1.34
1.88
2.15
2.23
2.21
2.09
1.83
1.34
0.63
-0.19
-0.93
-1.42
-1.59
-1.49
-1.27
-1.07
-0.97
-0.96
-0.97
-0.97
-0.96
-0.98
-1.07
-1.22
-1.36
-1.40
-1.25
-0.94
-0.52
-0.09
0.27
0.51
0.63
0.64
0.58
0.45
0.27
0.03
-0.26
-0.61
-0.99
-1.36
-1.68
-1.92
-2.08
-2.17
-2.24
-2.28
-2.27
-2.14
-1.80
-1.20
-0.31
0.81
2.04
3.22
4.19
4.83
5.09
4.99
4.58
3.91
3.05
2.11
1.21
0.49
0.06
-0.04
0.12
0.40
0.64
0.75
0.72
0.62
0.55
0.57
0.69
0.86
1.02
1.10
1.09
0.97
0.77
0.51
0.23
-0.03
-0.21
-0.21
0.00
0.43
0.95
1.40
1.54
1.25
0.54
-0.44
-1.44
-2.24
-2.72
-2.85
-2.71
-2.35
-1.84
-1.22
-0.56
0.02
0.35
0.35
0.02
-0.52
-1.06
-1.44
-1.60
-1.58
-1.49
-1.43
-1.43
-1.46
-1.46
-1.41
-1.32
-1.23
-1.19
-1.20
-1.20
-1.15
-1.01
-0.77
-0.47
-0.12
0.26
0.65
1.01
1.29
1.46
1.51
1.46
1.36
1.26
1.15
1.00
0.76
0.41
0.02
-0.30
-0.47
-0.48
-0.39
-0.32
-0.32
-0.40
-0.45
-0.36
-0.06
0.43
1.01
1.57
2.01
2.30
2.42
2.35
2.09
1.67
1.20
0.84
0.76
1.02
1.54
2.15
2.63
2.83
2.69
2.22
1.52
0.70
-0.14
-0.89
-1.49
-1.92
-2.19
-2.31
-2.31
-2.18
-1.93
-1.58
-1.20
-0.86
-0.60
-0.44
-0.34
-0.28
-0.26
-0.31
-0.45
-0.67
-0.91
-1.12
-1.23
-1.24
-1.14
-0.94
-0.66
-0.34
-0.07
0.07
0.04
-0.11
-0.25
-0.28
-0.13
0.18
0.54
0.88
1.14
1.34
1.53
1.73
1.92
2.05
2.08
1.99
1.86
1.71
1.59
1.48
1.34
1.11
0.79
0.40
0.02
-0.24
-0.32
-0.23
-0.06
0.05
-0.03
-0.33
-0.79
-1.25
-1.57
-1.67
-1.57
-1.34
-1.07
-0.76
-0.35
0.19
0.82
1.38
1.65
1.47
0.80
-0.18
-1.21
-2.00
-2.34
-2.18
-1.60
-0.76
0.11
0.81
1.23
1.35
1.21
0.93
0.61
0.30
0.01
-0.26
-0.51
-0.69
-0.79
-0.81
-0.80
-0.83
-0.93
-1.05
-1.16
-1.19
-1.17
-1.15
-1.22
-1.38
-1.60
-1.74
-1.69
-1.39
-0.92
-0.48
-0.24
-0.32
-0.65
-1.04
-1.24
-1.14
-0.76
-0.23
0.28
0.66
0.94
1.18
1.42
1.62
1.67
1.46
0.98
0.36
-0.21
-0.55
-0.57
-0.34
0.01
0.31
0.43
0.37
0.17
-0.07
-0.28
-0.45
-0.60
-0.75
-0.90
-1.00
-0.96
-0.76
-0.43
-0.06
0.25
0.43
0.50
0.51
0.55
0.64
0.77
0.90
0.96
0.97
0.96
0.97
0.99
0.97
0.88
0.67
0.37
0.05
-0.22
-0.39
-0.43
-0.39
-0.30
-0.28
-0.39
-0.68
-1.10
-1.53
-1.83
-1.91
-1.77
-1.52
-1.28
-1.09
-0.93
-0.70
-0.38
-0.02
0.25
0.30
0.11
-0.25
-0.61
-0.83
-0.83
-0.61
-0.22
0.26
0.73
1.09
1.27
1.25
1.09
0.88
0.74
0.76
0.91
1.11
1.27
1.31
1.24
1.10
0.94
0.82
0.78
0.86
1.05
1.32
1.60
1.81
1.87
1.74
1.43
0.98
0.48
-0.00
-0.37
-0.56
-0.54
-0.31
0.08
0.54
0.95
1.21
1.26
1.05
0.59
-0.07
-0.85
-1.65
-2.36
-2.91
-3.25
-3.37
-3.25
-2.89
-2.26
-1.43
-0.53
0.27
0.81
1.02
0.97
0.78
0.56
0.35
0.13
-0.16
-0.50
-0.81
-0.97
-0.92
-0.68
-0.38
-0.13
-0.01
-0.01
-0.05
-0.06
-0.08
-0.16
-0.37
-0.70
-1.08
-1.39
-1.53
-1.50
-1.36
-1.18
-0.99
-0.75
-0.45
-0.08
0.26
0.43
0.37
0.09
-0.27
-0.51
-0.54
-0.34
-0.03
0.25
0.43
0.53
0.67
0.90
1.22
1.54
1.71
1.66
1.40
1.06
0.77
0.64
0.65
0.72
0.70
0.53
0.23
-0.11
-0.38
-0.49
-0.44
-0.29
-0.17
-0.15
-0.24
-0.40
-0.50
-0.45
-0.21
0.13
0.42
0.51
0.31
-0.15
-0.71
-1.21
-1.56
-1.71
-1.69
-1.49
-1.10
-0.50
0.25
0.99
1.51
1.65
1.38
0.86
0.31
-0.02
-0.07
0.07
0.25
0.32
0.22
0.03
-0.13
-0.17
-0.07
0.12
0.30
0.39
0.37
0.24
0.05
-0.15
-0.32
-0.43
-0.45
-0.40
-0.34
-0.36
-0.53
-0.88
-1.32
-1.68
-1.78
-1.44
-0.61
0.62
2.02
3.28
4.11
4.34
3.94
3.09
2.05
1.08
0.36
-0.10
-0.36
-0.56
-0.74
-0.88
-0.87
-0.61
-0.10
0.57
1.20
1.60
1.66
1.44
1.09
0.85
0.86
1.11
1.46
1.71
1.71
1.45
1.03
0.63
0.36
0.27
0.31
0.37
0.35
0.20
-0.06
-0.37
-0.66
-0.91
-1.12
-1.32
-1.51
-1.64
-1.63
-1.38
-0.90
-0.29
0.29
0.66
0.71
0.46
0.02
-0.46
-0.86
-1.10
-1.19
-1.16
-1.05
-0.88
-0.64
-0.33
-0.02
0.24
0.36
0.29
0.05
-0.26
-0.57
-0.81
-0.98
-1.09
-1.15
-1.15
-1.01
-0.73
-0.34
0.06
0.37
0.53
0.57
0.55
0.52
0.50
0.48
0.41
0.30
0.20
0.18
0.24
0.36
0.43
0.36
0.14
-0.15
-0.38
-0.44
-0.30
-0.05
0.22
0.38
0.37
0.18
-0.17
-0.64
-1.16
-1.62
-1.87
-1.78
-1.30
-0.50
0.45
1.28
1.83
2.01
1.86
1.54
1.22
1.02
0.97
1.02
1.06
0.98
0.73
0.34
-0.10
-0.49
-0.77
-0.98
-1.21
-1.59
-2.14
-2.77
-3.30
-3.58
-3.48
-3.04
-2.39
-1.66
-1.00
-0.45
-0.05
0.22
0.36
0.40
0.37
0.34
0.37
0.50
0.69
0.90
1.09
1.24
1.35
1.41
1.46
1.50
1.58
1.73
1.95
2.16
2.31
2.33
2.24
2.11
2.02
1.99
1.98
1.86
1.55
1.02
0.33
-0.43
-1.15
-1.76
-2.20
-2.41
-2.36
-2.06
-1.59
-1.06
-0.62
-0.36
-0.34
-0.55
-0.98
-1.55
-2.18
-2.76
-3.16
-3.28
-3.07
-2.54
-1.77
-0.89
-0.06
0.57
0.88
0.81
0.41
-0.17
-0.73
-1.05
-1.03
-0.65
-0.01
0.74
1.47
2.05
2.40
2.47
2.28
1.90
1.47
1.10
0.86
0.77
0.76
0.76
0.75
0.73
0.76
0.85
0.98
1.11
1.19
1.19
1.13
1.08
1.06
1.05
1.01
0.90
0.68
0.37
-0.00
-0.39
-0.79
-1.19
-1.58
-1.89
-2.04
-1.90
-1.47
-0.84
-0.19
0.29
0.48
0.41
0.22
0.04
-0.10
-0.27
-0.59
-1.11
-1.73
-2.25
-2.44
-2.21
-1.66
-1.00
-0.48
-0.26
-0.39
-0.83
-1.50
-2.28
-3.01
-3.49
-3.50
-2.96
-1.90
-0.55
0.78
1.82
2.43
2.60
2.39
1.92
1.30
0.66
0.16
-0.06
0.06
0.44
0.90
1.23
1.29
1.06
0.67
0.26
-0.06
-0.25
-0.30
-0.24
-0.06
0.23
0.58
0.88
1.00
0.86
0.48
-0.01
-0.42
-0.62
-0.54
-0.24
0.17
0.61
1.00
1.36
1.67
1.93
2.10
2.13
2.01
1.75
1.42
1.08
0.79
0.55
0.34
0.11
-0.15
-0.41
-0.64
-0.78
-0.79
-0.69
-0.51
-0.32
-0.16
-0.09
-0.14
-0.31
-0.57
-0.86
-1.08
-1.16
-1.07
-0.84
-0.56
-0.31
-0.16
-0.10
-0.07
-0.02
0.05
0.11
0.09
-0.06
-0.33
-0.64
-0.90
-1.01
-0.96
-0.79
-0.59
-0.44
-0.41
-0.50
-0.71
-1.03
-1.42
-1.82
-2.13
-2.23
-1.99
-1.38
-0.44
0.67
1.71
2.46
2.78
2.69
2.28
1.75
1.29
0.97
0.81
0.74
0.67
0.57
0.48
0.46
0.55
0.73
0.91
1.01
0.97
0.82
0.62
0.47
0.40
0.37
0.29
0.05
-0.37
-0.91
-1.43
-1.79
-1.89
-1.71
-1.35
-0.89
-0.45
-0.08
0.23
0.47
0.66
0.77
0.80
0.78
0.75
0.78
0.87
1.01
1.11
1.12
1.05
0.96
0.90
0.90
0.91
0.87
0.75
0.59
0.50
0.60
0.92
1.38
1.82
2.07
2.04
1.72
1.20
0.63
0.14
-0.15
-0.19
0.02
0.44
0.96
1.43
1.70
1.60
1.06
0.08
-1.19
-2.51
-3.64
-4.38
-4.65
-4.50
-4.06
-3.45
-2.78
-2.09
-1.44
-0.88
-0.51
-0.41
-0.60
-0.99
-1.41
-1.68
-1.67
-1.39
-0.94
-0.49
-0.19
-0.11
-0.25
-0.50
-0.77
-0.97
-1.07
-1.07
-0.94
-0.71
-0.38
-0.00
0.37
0.69
0.91
1.07
1.16
1.24
1.29
1.33
1.35
1.35
1.27
1.07
0.67
0.05
-0.72
-1.45
-1.90
-1.91
-1.44
-0.64
0.25
1.00
1.52
1.80
1.95
2.02
2.02
1.91
1.62
1.18
0.65
0.18
-0.14
-0.22
-0.09
0.20
0.56
0.88
1.09
1.12
0.97
0.64
0.22
-0.22
-0.58
-0.82
-0.91
-0.87
-0.71
-0.46
-0.14
0.22
0.55
0.78
0.86
0.75
0.45
0.05
-0.36
-0.65
-0.73
-0.58
-0.31
-0.07
-0.02
-0.21
-0.60
-1.02
-1.28
-1.25
-0.94
-0.46
0.05
0.47
0.72
0.76
0.60
0.25
-0.22
-0.70
-1.08
-1.26
-1.26
-1.14
-1.03
-1.03
-1.13
-1.27
-1.37
-1.41
-1.44
-1.53
-1.76
-2.09
-2.42
-2.62
-2.58
-2.30
-1.84
-1.28
-0.74
-0.29
0.01
0.15
0.11
-0.06
-0.29
-0.51
-0.65
-0.72
-0.73
-0.67
-0.55
-0.36
-0.15
0.02
0.06
-0.03
-0.18
-0.24
-0.08
0.33
0.90
1.46
1.90
2.16
2.34
2.55
2.83
3.13
3.31
3.25
2.92
2.39
1.79
1.26
0.88
0.66
0.57
0.58
0.63
0.70
0.75
0.75
0.73
0.70
0.71
0.76
0.85
0.95
1.07
1.20
1.31
1.37
1.33
1.15
0.89
0.63
0.48
0.49
0.61
0.73
0.74
0.58
0.33
0.09
-0.03
-0.03
0.06
0.10
-0.02
-0.34
-0.81
-1.32
-1.69
-1.81
-1.66
-1.30
-0.89
-0.55
-0.38
-0.39
-0.54
-0.78
-1.03
-1.21
-1.23
-1.02
-0.56
0.12
0.87
1.56
2.05
2.29
2.31
2.17
1.92
1.61
1.25
0.85
0.47
0.17
0.01
-0.03
0.01
0.07
0.11
0.16
0.21
0.26
0.26
0.16
-0.06
-0.34
-0.59
-0.68
-0.55
-0.19
0.32
0.83
1.20
1.30
1.09
0.57
-0.12
-0.83
-1.40
-1.71
-1.74
-1.55
-1.21
-0.82
-0.46
-0.18
-0.02
0.02
-0.04
-0.16
-0.30
-0.41
-0.49
-0.57
-0.68
-0.83
-0.99
-1.12
-1.13
-1.00
-0.71
-0.31
0.13
0.52
0.76
0.79
0.57
0.14
-0.39
-0.85
-1.07
-0.94
-0.47
0.18
0.77
1.08
1.00
0.62
0.11
-0.35
-0.65
-0.81
-0.92
-1.02
-1.12
-1.11
-0.94
-0.59
-0.18
0.13
0.21
0.03
-0.29
-0.55
-0.57
-0.29
0.22
0.76
1.13
1.25
1.15
0.98
0.89
0.92
1.03
1.10
1.03
0.82
0.51
0.21
-0.02
-0.15
-0.23
-0.29
-0.38
-0.50
-0.66
-0.82
-0.95
-1.07
-1.17
-1.27
-1.38
-1.45
-1.40
-1.17
-0.75
-0.16
0.48
1.06
1.49
1.72
1.75
1.60
1.31
0.91
0.47
0.09
-0.18
-0.29
-0.28
-0.21
-0.15
-0.14
-0.19
-0.29
-0.44
-0.65
-0.89
-1.07
-1.11
-0.95
-0.65
-0.31
-0.08
-0.07
-0.26
-0.55
-0.81
-0.93
-0.89
-0.72
-0.52
-0.31
-0.13
0.06
0.28
0.53
0.77
0.99
1.15
1.22
1.19
1.08
0.90
0.71
0.59
0.59
0.75
1.07
1.51
2.00
2.48
2.86
3.06
2.97
2.56
1.86
0.98
0.11
-0.54
-0.89
-0.97
-0.90
-0.81
-0.79
-0.80
-0.77
-0.66
-0.45
-0.20
-0.01
0.07
0.02
-0.14
-0.36
-0.57
-0.74
-0.82
-0.81
-0.72
-0.60
-0.46
-0.36
-0.32
-0.33
-0.39
-0.47
-0.50
-0.39
-0.12
0.28
0.72
1.04
1.11
0.87
0.35
-0.33
-1.04
-1.64
-1.99
-2.04
-1.80
-1.34
-0.82
-0.43
-0.25
-0.32
-0.54
-0.77
-0.90
-0.88
-0.74
-0.57
-0.47
-0.49
-0.63
-0.87
-1.13
-1.32
-1.34
-1.14
-0.74
-0.22
0.28
0.61
0.71
0.61
0.43
0.32
0.36
0.57
0.87
1.15
1.32
1.37
1.35
1.31
1.26
1.21
1.16
1.12
1.11
1.17
1.24
1.27
1.18
0.94
0.59
0.25
0.04
0.03
0.23
0.60
1.03
1.47
1.88
2.27
2.64
2.99
3.31
3.53
3.62
3.56
3.40
3.24
3.21
3.36
3.65
3.95
4.08
3.88
3.31
2.39
1.25
0.02
-1.13
-2.09
-2.75
-3.03
-2.95
-2.57
-2.06
-1.59
-1.27
-1.16
-1.19
-1.29
-1.38
-1.47
-1.58
-1.76
-2.01
-2.34
-2.70
-3.06
-3.40
-3.70
-3.94
-4.10
-4.12
-4.02
-3.80
-3.54
-3.33
-3.25
-3.32
-3.52
-3.73
-3.85
-3.75
-3.33
-2.55
-1.47
-0.25
0.90
1.73
2.16
2.22
2.08
1.94
1.95
2.11
2.35
2.61
2.88
3.21
3.61
4.02
4.29
4.28
4.00
3.57
3.20
3.00
2.98
2.99
2.85
2.49
1.93
1.30
0.70
0.18
-0.26
-0.65
-0.97
-1.18
-1.23
-1.13
-0.96
-0.83
-0.84
-1.03
-1.35
-1.70
-1.97
-2.08
-2.02
-1.84
-1.60
-1.36
-1.15
-1.01
-0.96
-0.98
-1.04
-1.07
-1.00
-0.80
-0.55
-0.37
-0.40
-0.71
-1.24
-1.81
-2.20
-2.24
-1.89
-1.25
-0.48
0.24
0.81
1.21
1.49
1.69
1.83
1.87
1.75
1.47
1.07
0.69
0.47
0.45
0.60
0.76
0.78
0.56
0.11
-0.46
-1.02
-1.46
-1.72
-1.77
-1.62
-1.28
-0.80
-0.30
0.11
0.33
0.35
0.23
0.03
-0.17
-0.34
-0.49
-0.64
-0.75
-0.78
-0.71
-0.54
-0.35
-0.22
-0.22
-0.32
-0.46
-0.55
-0.55
-0.44
-0.29
-0.13
-0.01
0.06
0.08
0.04
-0.07
-0.21
-0.37
-0.47
-0.46
-0.31
-0.05
0.23
0.47
0.60
0.59
0.48
0.33
0.20
0.11
0.08
0.11
0.18
0.27
0.35
0.38
0.32
0.18
-0.03
-0.29
-0.53
-0.71
-0.79
-0.74
-0.61
-0.46
-0.36
-0.34
-0.38
-0.41
-0.38
-0.24
-0.06
0.06
0.02
-0.24
-0.66
-1.11
-1.43
-1.52
-1.33
-0.91
-0.37
0.20
0.71
1.05
1.21
1.18
1.02
0.80
0.60
0.46
0.38
0.30
0.15
-0.10
-0.47
-0.90
-1.33
-1.67
-1.86
-1.86
-1.68
-1.36
-0.98
-0.61
-0.32
-0.15
-0.11
-0.15
-0.22
-0.27
-0.31
-0.38
-0.52
-0.80
-1.21
-1.69
-2.14
-2.45
-2.56
-2.51
-2.42
-2.40
-2.56
-2.88
-3.28
-3.65
-3.89
-3.98
-4.01
-4.08
-4.26
-4.57
-4.91
-5.14
-5.22
-5.17
-5.10
-5.15
-5.34
-5.58
-5.68
-5.44
-4.70
-3.43
-1.64
0.59
3.11
5.72
8.14
10.05
11.24
11.69
11.57
11.17
10.77
10.48
10.27
10.00
9.56
8.98
8.41
8.01
7.88
7.97
8.08
7.97
7.47
6.52
5.23
3.80
2.43
1.22
0.17
-0.81
-1.80
-2.78
-3.65
-4.26
-4.50
-4.37
-3.98
-3.50
-3.08
-2.83
-2.73
-2.74
-2.77
-2.81
-2.87
-2.99
-3.21
-3.51
-3.83
-4.10
-4.22
-4.16
-3.95
-3.64
-3.34
-3.07
-2.84
-2.56
-2.17
-1.63
-1.01
-0.41
0.03
0.26
0.29
0.21
0.13
0.12
0.20
0.34
0.55
0.81
1.14
1.53
1.95
2.29
2.46
2.40
2.14
1.78
1.48
1.36
1.48
1.79
2.17
2.46
2.55
2.39
2.01
1.55
1.13
0.88
0.86
1.03
1.29
1.51
1.59
1.45
1.13
0.72
0.35
0.11
0.07
0.22
0.53
0.95
1.41
1.84
2.16
2.28
2.13
1.73
1.17
0.61
0.18
-0.07
-0.17
-0.22
-0.31
-0.46
-0.61
-0.69
-0.68
-0.63
-0.63
-0.72
-0.90
-1.07
-1.17
-1.18
-1.13
-1.12
-1.16
-1.21
-1.18
-1.00
-0.64
-0.19
0.24
0.54
0.64
0.56
0.36
0.12
-0.07
-0.17
-0.15
-0.02
0.17
0.36
0.52
0.62
0.63
0.55
0.35
0.04
-0.33
-0.71
-1.00
-1.13
-1.03
-0.73
-0.32
0.05
0.25
0.21
-0.03
-0.34
-0.55
-0.56
-0.37
-0.09
0.13
0.20
0.12
0.01
-0.04
-0.00
0.09
0.16
0.17
0.15
0.18
0.34
0.66
1.10
1.55
1.92
2.09
2.02
1.73
1.30
0.89
0.61
0.53
0.61
0.73
0.74
0.54
0.17
-0.27
-0.63
-0.86
-0.98
-1.06
-1.16
-1.29
-1.36
-1.31
-1.10
-0.82
-0.57
-0.48
-0.58
-0.78
-0.95
-0.96
-0.80
-0.54
-0.35
-0.35
-0.58
-0.97
-1.42
-1.80
-2.02
-2.04
-1.89
-1.67
-1.45
-1.32
-1.30
-1.32
-1.34
-1.29
-1.19
-1.11
-1.13
-1.27
-1.50
-1.71
-1.80
-1.77
-1.71
-1.73
-1.87
-2.08
-2.21
-2.16
-1.94
-1.68
-1.60
-1.79
-2.23
-2.78
-3.24
-3.50
-3.59
-3.58
-3.57
-3.55
-3.46
-3.20
-2.76
-2.22
-1.74
-1.50
-1.58
-2.02
-2.75
-3.63
-4.50
-5.22
-5.68
-5.88
-5.90
-5.88
-5.97
-6.27
-6.83
-7.61
-8.57
-9.70
-11.04
-12.63
-14.49
-16.54
-18.62
-20.45
-21.71
-22.11
-21.35
-19.25
-15.68
-10.66
-4.40
2.71
10.03
16.83
22.40
26.21
28.11
28.27
27.17
25.41
23.52
21.86
20.56
19.62
18.94
18.43
18.02
17.70
17.47
17.35
17.32
17.39
17.61
18.01
18.64
19.42
20.14
20.49
20.17
19.06
17.27
15.14
13.07
11.31
9.90
8.65
7.36
5.89
4.28
2.64
1.10
-0.38
-1.91
-3.60
-5.49
-7.44
-9.21
-10.59
-11.43
-11.75
-11.69
-11.40
-11.03
-10.66
-10.34
-10.04
-9.73
-9.39
-8.96
-8.44
-7.84
-7.24
-6.70
-6.25
-5.89
-5.56
-5.23
-4.90
-4.63
-4.44
-4.34
-4.29
-4.22
-4.11
-3.95
-3.79
-3.69
-3.62
-3.55
-3.38
-3.07
-2.62
-2.12
-1.66
-1.31
-1.13
-1.10
-1.13
-1.13
-1.03
-0.81
-0.53
-0.28
-0.16
-0.20
-0.36
-0.55
-0.66
-0.63
-0.51
-0.39
-0.36
-0.48
-0.67
-0.83
-0.90
-0.83
-0.69
-0.57
-0.48
-0.40
-0.29
-0.13
0.04
0.09
-0.06
-0.42
-0.85
-1.15
-1.17
-0.90
-0.49
-0.18
-0.11
-0.28
-0.55
-0.71
-0.66
-0.39
-0.02
0.31
0.53
0.61
0.58
0.48
0.30
0.03
-0.33
-0.73
-1.12
-1.40
-1.55
-1.55
-1.45
-1.33
-1.26
-1.32
-1.51
-1.78
-2.06
-2.26
-2.38
-2.43
-2.48
-2.55
-2.66
-2.76
-2.83
-2.84
-2.79
-2.65
-2.40
-2.03
-1.55
-1.01
-0.50
-0.11
0.10
0.17
0.15
0.16
0.26
0.52
0.92
1.39
1.84
2.14
2.22
2.07
1.80
1.56
1.46
1.53
1.68
1.78
1.74
1.55
1.29
1.10
1.07
1.20
1.43
1.69
1.91
2.11
2.31
2.53
2.73
2.84
2.78
2.54
2.18
1.82
1.56
1.45
1.41
1.34
1.14
0.76
0.30
-0.14
-0.47
-0.67
-0.80
-0.93
-1.06
-1.11
-1.00
-0.66
-0.15
0.39
0.79
0.94
0.87
0.66
0.43
0.29
0.24
0.25
0.28
0.31
0.31
0.30
0.26
0.19
0.07
-0.08
-0.22
-0.31
-0.31
-0.19
0.02
0.25
0.42
0.44
0.26
-0.09
-0.50
-0.82
-0.97
-0.91
-0.71
-0.48
-0.31
-0.24
-0.25
-0.30
-0.37
-0.45
-0.58
-0.75
-0.96
-1.16
-1.27
-1.27
-1.17
-1.05
-1.01
-1.10
-1.27
-1.39
-1.33
-1.01
-0.50
0.02
0.34
0.33
0.04
-0.34
-0.57
-0.50
-0.14
0.39
0.90
1.25
1.42
1.41
1.28
1.09
0.88
0.73
0.70
0.87
1.24
1.73
2.19
2.50
2.57
2.41
2.11
1.80
1.56
1.43
1.44
1.53
1.66
1.76
1.77
1.66
1.42
1.09
0.78
0.58
0.56
0.66
0.80
0.84
0.69
0.30
-0.26
-0.92
-1.55
-2.04
-2.29
-2.26
-1.96
-1.48
-0.97
-0.56
-0.36
-0.40
-0.64
-0.99
-1.37
-1.69
-1.90
-1.94
-1.79
-1.45
-0.98
-0.48
-0.01
0.36
0.65
0.85
0.96
0.95
0.76
0.41
-0.04
-0.48
-0.80
-0.90
-0.79
-0.53
-0.24
-0.02
0.09
0.09
0.04
0.00
-0.02
-0.07
-0.22
-0.49
-0.85
-1.20
-1.41
-1.42
-1.22
-0.88
-0.54
-0.26
-0.05
0.11
0.26
0.40
0.48
0.45
0.30
0.09
-0.12
-0.30
-0.45
-0.63
-0.85
-1.05
-1.13
-0.94
-0.46
0.22
0.88
1.32
1.40
1.16
0.76
0.43
0.35
0.56
0.96
1.40
1.70
1.73
1.46
0.98
0.43
-0.05
-0.37
-0.50
-0.47
-0.37
-0.26
-0.17
-0.12
-0.11
-0.10
-0.10
-0.08
-0.05
0.01
0.09
0.17
0.21
0.19
0.11
-0.05
-0.26
-0.47
-0.60
-0.62
-0.53
-0.37
-0.25
-0.24
-0.31
-0.39
-0.35
-0.13
0.23
0.56
0.72
0.61
0.27
-0.15
-0.52
-0.77
-0.95
-1.16
-1.47
-1.81
-2.10
-2.21
-2.08
-1.74
-1.30
-0.86
-0.45
-0.08
0.28
0.64
0.96
1.17
1.28
1.30
1.30
1.36
1.46
1.57
1.60
1.47
1.15
0.67
0.11
-0.41
-0.80
-1.03
-1.11
-1.09
-0.99
-0.83
-0.61
-0.32
0.03
0.40
0.75
1.00
1.11
1.05
0.79
0.38
-0.12
-0.59
-0.88
-0.90
-0.61
-0.13
0.38
0.75
0.86
0.72
0.40
0.02
-0.28
-0.42
-0.36
-0.10
0.32
0.79
1.22
1.53
1.67
1.66
1.57
1.45
1.34
1.25
1.17
1.10
1.06
1.06
1.10
1.13
1.07
0.91
0.67
0.45
0.31
0.26
0.25
0.15
-0.11
-0.48
-0.80
-0.89
-0.66
-0.14
0.45
0.90
1.06
0.90
0.49
-0.03
-0.56
-1.03
-1.37
-1.50
-1.37
-0.96
-0.38
0.22
0.68
0.91
0.92
0.80
0.62
0.41
0.12
-0.26
-0.73
-1.20
-1.55
-1.71
-1.68
-1.56
-1.46
-1.44
-1.46
-1.44
-1.29
-1.00
-0.66
-0.41
-0.35
-0.47
-0.66
-0.75
-0.64
-0.31
0.11
0.45
0.57
0.42
0.06
-0.36
-0.68
-0.81
-0.71
-0.47
-0.18
0.07
0.23
0.31
0.36
0.44
0.59
0.86
1.28
1.82
2.45
3.07
3.58
3.84
3.78
3.36
2.69
1.93
1.30
1.00
1.10
1.52
2.02
2.32
2.23
1.68
0.83
-0.05
-0.70
-0.98
-0.91
-0.66
-0.44
-0.37
-0.47
-0.61
-0.67
-0.56
-0.32
-0.04
0.13
0.10
-0.11
-0.39
-0.61
-0.67
-0.60
-0.49
-0.44
-0.51
-0.65
-0.79
-0.82
-0.72
-0.55
-0.43
-0.48
-0.78
-1.28
-1.87
-2.40
-2.74
-2.81
-2.62
-2.20
-1.63
-0.99
-0.37
0.14
0.46
0.55
0.40
0.09
-0.26
-0.49
-0.49
-0.26
0.11
0.43
0.54
0.41
0.07
-0.32
-0.68
-0.96
-1.23
-1.58
-2.05
-2.57
-2.98
-3.13
-2.98
-2.60
-2.16
-1.84
-1.68
-1.60
-1.47
-1.18
-0.75
-0.30
0.02
0.14
0.12
0.09
0.20
0.48
0.84
1.14
1.31
1.34
1.34
1.38
1.45
1.45
1.30
0.96
0.51
0.13
-0.06
-0.02
0.20
0.45
0.61
0.65
0.57
0.43
0.31
0.21
0.12
0.04
-0.04
-0.14
-0.29
-0.50
-0.81
-1.18
-1.50
-1.69
-1.65
-1.39
-0.99
-0.59
-0.29
-0.14
-0.13
-0.22
-0.36
-0.53
-0.66
-0.73
-0.68
-0.51
-0.23
0.10
0.42
0.70
0.92
1.08
1.15
1.11
0.98
0.79
0.65
0.63
0.78
1.06
1.40
1.72
1.95
2.06
2.04
1.91
1.67
1.38
1.09
0.83
0.65
0.54
0.50
0.50
0.55
0.60
0.65
0.68
0.77
0.99
1.43
2.15
3.08
4.06
4.85
5.23
5.09
4.40
3.29
1.95
0.56
-0.68
-1.67
-2.35
-2.73
-2.87
-2.85
-2.75
-2.58
-2.30
-1.86
-1.25
-0.52
0.18
0.71
0.96
0.89
0.54
0.01
-0.57
-1.08
-1.45
-1.60
-1.49
-1.16
-0.66
-0.08
0.50
0.99
1.35
1.53
1.49
1.17
0.63
-0.05
-0.68
-1.07
-1.14
-0.91
-0.54
-0.24
-0.16
-0.35
-0.74
-1.14
-1.38
-1.35
-1.07
-0.65
-0.24
0.00
0.04
-0.10
-0.34
-0.57
-0.69
-0.66
-0.50
-0.25
0.01
0.21
0.30
0.22
-0.02
-0.36
-0.72
-0.99
-1.10
-1.05
-0.91
-0.80
-0.81
-0.93
-1.08
-1.11
-0.93
-0.55
-0.12
0.19
0.27
0.16
-0.03
-0.15
-0.12
0.04
0.22
0.34
0.39
0.41
0.45
0.54
0.63
0.71
0.75
0.78
0.80
0.79
0.68
0.40
-0.06
-0.62
-1.10
-1.35
-1.26
-0.87
-0.29
0.34
0.88
1.27
1.49
1.55
1.48
1.29
1.00
0.67
0.35
0.12
0.01
-0.00
-0.01
-0.13
-0.47
-1.05
-1.80
-2.59
-3.24
-3.60
-3.58
-3.17
-2.48
-1.67
-0.94
-0.44
-0.23
-0.24
-0.35
-0.40
-0.29
0.01
0.45
0.93
1.39
1.77
2.03
2.16
2.16
2.02
1.79
1.52
1.28
1.13
1.09
1.14
1.20
1.18
0.99
0.61
0.09
-0.43
-0.81
-0.93
-0.79
-0.46
-0.07
0.25
0.41
0.37
0.14
-0.19
-0.52
-0.71
-0.67
-0.41
-0.02
0.32
0.46
0.35
0.07
-0.22
-0.35
-0.24
0.09
0.52
0.94
1.26
1.46
1.55
1.53
1.38
1.08
0.66
0.19
-0.23
-0.49
-0.61
-0.61
-0.56
-0.50
-0.42
-0.27
-0.04
0.22
0.43
0.52
0.45
0.29
0.10
-0.04
-0.14
-0.23
-0.38
-0.61
-0.89
-1.16
-1.35
-1.45
-1.48
-1.49
-1.48
-1.44
-1.29
-1.00
-0.60
-0.20
0.04
0.00
-0.33
-0.89
-1.49
-1.97
-2.23
-2.27
-2.17
-2.01
-1.84
-1.66
-1.43
-1.11
-0.73
-0.36
-0.08
0.10
0.21
0.31
0.46
0.67
0.90
1.09
1.20
1.22
1.18
1.11
1.04
0.96
0.85
0.69
0.49
0.25
0.03
-0.12
-0.15
-0.04
0.19
0.49
0.73
0.83
0.73
0.43
-0.02
-0.52
-0.98
-1.31
-1.51
-1.59
-1.60
-1.59
-1.59
-1.59
-1.58
-1.53
-1.43
-1.28
-1.10
-0.95
-0.85
-0.77
-0.66
-0.49
-0.23
0.10
0.43
0.70
0.89
1.04
1.22
1.50
1.88
2.29
2.66
2.93
3.10
3.17
3.17
3.06
2.77
2.28
1.63
0.97
0.43
0.15
0.11
0.21
0.32
0.32
0.20
-0.02
-0.28
-0.55
-0.82
-1.06
-1.26
-1.39
-1.45
-1.44
-1.40
-1.35
-1.25
-1.08
-0.81
-0.44
-0.02
0.40
0.74
0.96
1.03
0.96
0.76
0.51
0.28
0.15
0.15
0.30
0.55
0.88
1.25
1.62
1.97
2.22
2.29
2.14
1.79
1.30
0.79
0.39
0.14
0.08
0.16
0.34
0.54
0.71
0.75
0.64
0.39
0.08
-0.16
-0.24
-0.14
0.07
0.31
0.49
0.64
0.79
0.99
1.24
1.48
1.65
1.71
1.66
1.47
1.15
0.64
-0.02
-0.73
-1.34
-1.70
-1.75
-1.56
-1.30
-1.12
-1.09
-1.16
-1.25
-1.28
-1.23
-1.14
-1.06
-1.03
-1.04
-1.05
-1.00
-0.82
-0.53
-0.15
0.20
0.45
0.51
0.41
0.22
0.04
-0.10
-0.19
-0.29
-0.43
-0.62
-0.81
-0.98
-1.13
-1.28
-1.42
-1.49
-1.42
-1.15
-0.73
-0.27
0.09
0.25
0.24
0.14
0.08
0.15
0.32
0.50
0.61
0.59
0.45
0.28
0.15
0.12
0.16
0.23
0.25
0.18
0.06
-0.06
-0.12
-0.12
-0.11
-0.18
-0.37
-0.62
-0.84
-0.88
-0.73
-0.44
-0.14
0.02
0.01
-0.12
-0.27
-0.34
-0.28
-0.14
0.02
0.16
0.23
0.20
0.07
-0.17
-0.46
-0.71
-0.83
-0.75
-0.49
-0.17
0.09
0.19
0.14
0.05
0.05
0.20
0.52
0.90
1.25
1.49
1.58
1.54
1.44
1.30
1.16
1.00
0.82
0.62
0.40
0.21
0.06
-0.02
-0.04
-0.04
-0.08
-0.22
-0.47
-0.80
-1.14
-1.38
-1.44
-1.29
-0.94
-0.49
-0.03
0.32
0.51
0.54
0.47
0.37
0.28
0.23
0.20
0.18
0.16
0.17
0.19
0.20
0.11
-0.13
-0.53
-1.02
-1.46
-1.71
-1.69
-1.41
-0.94
-0.42
0.04
0.38
0.59
0.66
0.62
0.51
0.36
0.23
0.19
0.29
0.53
0.88
1.25
1.49
1.50
1.21
0.67
-0.02
-0.67
-1.13
-1.32
-1.25
-1.01
-0.73
-0.50
-0.39
-0.36
-0.36
-0.34
-0.27
-0.19
-0.11
-0.06
-0.03
-0.01
0.01
0.04
0.09
0.16
0.26
0.39
0.54
0.63
0.61
0.44
0.14
-0.21
-0.53
-0.68
-0.63
-0.37
-0.00
0.35
0.57
0.56
0.31
-0.08
-0.51
-0.83
-0.98
-0.98
-0.90
-0.81
-0.73
-0.66
-0.58
-0.46
-0.37
-0.35
-0.47
-0.71
-0.96
-1.13
-1.10
-0.89
-0.59
-0.33
-0.21
-0.27
-0.47
-0.73
-0.98
-1.13
-1.18
-1.15
-1.10
-1.08
-1.16
-1.32
-1.53
-1.73
-1.89
-1.98
-2.03
-2.06
-2.04
-1.89
-1.54
-0.96
-0.23
0.51
1.12
1.51
1.71
1.77
1.77
1.75
1.68
1.53
1.31
1.06
0.89
0.87
1.03
1.28
1.50
1.57
1.47
1.26
1.08
1.06
1.23
1.53
1.84
2.03
2.08
2.03
1.96
1.93
1.90
1.80
1.55
1.17
0.74
0.36
0.10
-0.04
-0.14
-0.27
-0.46
-0.67
-0.82
-0.83
-0.65
-0.30
0.14
0.56
0.88
1.05
1.03
0.82
0.42
-0.13
-0.74
-1.30
-1.65
-1.68
-1.38
-0.84
-0.21
0.35
0.74
0.95
1.01
1.00
0.96
0.94
0.93
0.95
0.99
0.96
0.79
0.43
-0.10
-0.66
-1.09
-1.25
-1.16
-0.95
-0.84
-0.96
-1.32
-1.78
-2.18
-2.41
-2.42
-2.28
-2.06
-1.81
-1.58
-1.41
-1.34
-1.41
-1.59
-1.79
-1.93
-1.89
-1.66
-1.27
-0.85
-0.49
-0.29
-0.26
-0.38
-0.58
-0.75
-0.79
-0.60
-0.18
0.42
1.06
1.58
1.88
1.91
1.75
1.51
1.32
1.27
1.36
1.50
1.59
1.57
1.42
1.19
0.97
0.78
0.62
0.48
0.32
0.14
-0.04
-0.17
-0.22
-0.19
-0.05
0.19
0.52
0.91
1.30
1.60
1.77
1.78
1.66
1.49
1.32
1.17
1.05
0.97
0.96
1.05
1.22
1.43
1.56
1.50
1.22
0.77
0.24
-0.27
-0.70
-1.08
-1.48
-1.89
-2.27
-2.50
-2.44
-2.06
-1.41
-0.61
0.18
0.80
1.15
1.18
0.84
0.18
-0.69
-1.58
-2.22
-2.43
-2.14
-1.42
-0.50
0.38
1.04
1.40
1.49
1.40
1.21
1.01
0.89
0.91
1.09
1.37
1.64
1.74
1.57
1.15
0.58
0.05
-0.32
-0.46
-0.41
-0.28
-0.16
-0.10
-0.12
-0.19
-0.27
-0.35
-0.40
-0.43
-0.40
-0.27
0.00
0.42
0.91
1.34
1.56
1.47
1.08
0.51
-0.09
-0.55
-0.80
-0.82
-0.66
-0.38
-0.07
0.22
0.40
0.45
0.36
0.19
-0.01
-0.17
-0.32
-0.47
-0.68
-0.92
-1.17
-1.39
-1.56
-1.67
-1.75
-1.81
-1.83
-1.81
-1.70
-1.54
-1.34
-1.19
-1.12
-1.15
-1.25
-1.34
-1.32
-1.11
-0.72
-0.23
0.23
0.59
0.83
1.04
1.30
1.66
2.05
2.33
2.36
2.13
1.73
1.36
1.15
1.12
1.13
1.05
0.76
0.31
-0.16
-0.50
-0.66
-0.68
-0.67
-0.71
-0.79
-0.88
-0.90
-0.83
-0.70
-0.51
-0.29
0.01
0.38
0.80
1.22
1.57
1.80
1.90
1.90
1.84
1.74
1.60
1.45
1.28
1.12
0.96
0.76
0.50
0.16
-0.25
-0.69
-1.06
-1.28
-1.34
-1.23
-1.05
-0.89
-0.84
-0.90
-1.05
-1.19
-1.24
-1.15
-0.93
-0.64
-0.36
-0.17
-0.04
0.08
0.24
0.48
0.79
1.10
1.34
1.48
1.52
1.48
1.37
1.17
0.87
0.46
-0.01
-0.46
-0.83
-1.08
-1.19
-1.19
-1.10
-0.93
-0.71
-0.48
-0.29
-0.21
-0.25
-0.42
-0.63
-0.82
-0.91
-0.92
-0.91
-0.96
-1.10
-1.31
-1.48
-1.49
-1.29
-0.89
-0.41
-0.00
0.24
0.31
0.27
0.26
0.33
0.48
0.62
0.68
0.61
0.44
0.23
0.01
-0.23
-0.54
-0.90
-1.25
-1.46
-1.46
-1.23
-0.85
-0.47
-0.15
0.07
0.24
0.40
0.53
0.54
0.37
0.02
-0.36
-0.59
-0.55
-0.20
0.32
0.80
1.05
1.02
0.73
0.34
0.00
-0.20
-0.23
-0.14
0.02
0.20
0.36
0.50
0.59
0.59
0.46
0.20
-0.17
-0.54
-0.78
-0.76
-0.48
0.02
0.59
1.08
1.36
1.40
1.23
0.93
0.58
0.23
-0.07
-0.30
-0.44
-0.49
-0.44
-0.29
-0.04
0.31
0.71
1.08
1.34
1.41
1.30
1.11
0.99
1.01
1.17
1.33
1.30
0.92
0.22
-0.63
-1.37
-1.77
-1.70
-1.19
-0.41
0.45
1.19
1.69
1.90
1.83
1.56
1.21
0.87
0.60
0.39
0.21
0.03
-0.19
-0.44
-0.73
-1.05
-1.40
-1.74
-2.02
-2.14
-2.04
-1.68
-1.09
-0.34
0.44
1.07
1.42
1.41
1.02
0.33
-0.53
-1.39
-2.07
-2.46
-2.50
-2.24
-1.81
-1.35
-0.97
-0.72
-0.54
-0.34
-0.10
0.17
0.40
0.50
0.47
0.38
0.31
0.33
0.44
0.63
0.85
1.07
1.25
1.37
1.41
1.38
1.32
1.24
1.16
1.05
0.88
0.64
0.42
0.31
0.39
0.62
0.90
1.10
1.13
1.00
0.81
0.64
0.53
0.46
0.34
0.17
-0.03
-0.21
-0.31
-0.37
-0.42
-0.54
-0.69
-0.83
-0.90
-0.90
-0.89
-0.94
-1.08
-1.23
-1.29
-1.16
-0.88
-0.56
-0.32
-0.19
-0.10
0.06
0.31
0.57
0.70
0.61
0.31
-0.04
-0.27
-0.26
-0.09
0.12
0.21
0.13
-0.08
-0.33
-0.51
-0.58
-0.53
-0.40
-0.19
0.08
0.42
0.82
1.24
1.61
1.86
1.95
1.87
1.64
1.32
0.94
0.54
0.15
-0.18
-0.42
-0.53
-0.48
-0.32
-0.14
-0.05
-0.11
-0.32
-0.60
-0.83
-0.93
-0.89
-0.78
-0.66
-0.58
-0.50
-0.37
-0.18
0.02
0.16
0.14
-0.06
-0.36
-0.67
-0.89
-1.01
-1.11
-1.24
-1.43
-1.64
-1.76
-1.71
-1.48
-1.15
-0.82
-0.58
-0.46
-0.40
-0.31
-0.14
0.11
0.39
0.62
0.79
0.91
1.01
1.07
1.04
0.87
0.53
0.08
-0.35
-0.64
-0.71
-0.56
-0.23
0.22
0.68
1.06
1.29
1.34
1.26
1.14
1.07
1.07
1.07
0.96
0.69
0.30
-0.05
-0.24
-0.21
-0.02
0.19
0.33
0.38
0.38
0.36
0.31
0.17
-0.11
-0.48
-0.85
-1.06
-1.04
-0.82
-0.55
-0.40
-0.47
-0.71
-0.97
-1.09
-0.98
-0.68
-0.31
-0.02
0.12
0.13
0.09
0.09
0.18
0.34
0.54
0.71
0.80
0.78
0.65
0.43
0.19
0.01
-0.07
-0.06
-0.01
-0.03
-0.16
-0.36
-0.52
-0.56
-0.41
-0.15
0.13
0.33
0.44
0.50
0.57
0.69
0.86
1.05
1.18
1.22
1.14
0.94
0.63
0.23
-0.15
-0.43
-0.52
-0.39
-0.08
0.32
0.67
0.87
0.90
0.79
0.63
0.51
0.50
0.60
0.78
0.98
1.14
1.19
1.13
0.97
0.74
0.49
0.24
0.03
-0.14
-0.27
-0.39
-0.49
-0.57
-0.60
-0.55
-0.42
-0.27
-0.17
-0.17
-0.30
-0.49
-0.65
-0.66
-0.51
-0.29
-0.16
-0.26
-0.63
-1.19
-1.74
-2.10
-2.19
-2.07
-1.91
-1.85
-1.95
-2.11
-2.21
-2.16
-1.94
-1.61
-1.27
-0.95
-0.68
-0.41
-0.15
0.07
0.21
0.26
0.22
0.15
0.07
0.03
0.04
0.10
0.19
0.27
0.30
0.27
0.17
0.06
-0.02
-0.05
-0.03
0.00
0.02
-0.01
-0.11
-0.27
-0.51
-0.84
-1.19
-1.51
-1.70
-1.74
-1.63
-1.43
-1.23
-1.05
-0.89
-0.72
-0.51
-0.28
-0.05
0.14
0.30
0.42
0.51
0.56
0.52
0.40
0.24
0.12
0.12
0.28
0.51
0.69
0.70
0.53
0.28
0.14
0.23
0.55
0.98
1.32
1.49
1.51
1.49
1.53
1.64
1.72
1.63
1.34
0.90
0.48
0.24
0.20
0.27
0.29
0.13
-0.22
-0.63
-0.94
-1.00
-0.79
-0.45
-0.14
0.00
-0.05
-0.22
-0.36
-0.37
-0.25
-0.09
0.01
-0.01
-0.10
-0.16
-0.09
0.20
0.68
1.26
1.81
2.20
2.34
2.23
1.90
1.43
0.93
0.47
0.07
-0.25
-0.50
-0.62
-0.61
-0.47
-0.28
-0.13
-0.13
-0.28
-0.51
-0.68
-0.65
-0.35
0.16
0.75
1.24
1.47
1.36
0.97
0.43
-0.03
-0.24
-0.13
0.26
0.77
1.21
1.43
1.37
1.06
0.62
0.21
-0.03
-0.02
0.26
0.76
1.38
1.96
2.38
2.51
2.29
1.70
0.80
-0.28
-1.31
-2.05
-2.30
-2.04
-1.43
-0.74
-0.23
-0.06
-0.17
-0.42
-0.61
-0.67
-0.65
-0.67
-0.83
-1.17
-1.58
-1.91
-2.02
-1.83
-1.37
-0.71
-0.01
0.59
0.97
1.10
0.98
0.71
0.40
0.11
-0.16
-0.48
-0.94
-1.55
-2.25
-2.89
-3.30
-3.34
-2.93
-2.17
-1.22
-0.29
0.40
0.73
0.69
0.34
-0.18
-0.71
-1.14
-1.38
-1.39
-1.20
-0.85
-0.41
0.05
0.49
0.86
1.15
1.35
1.46
1.51
1.50
1.47
1.41
1.32
1.19
1.04
0.90
0.81
0.79
0.78
0.73
0.61
0.47
0.38
0.42
0.56
0.69
0.66
0.40
-0.04
-0.50
-0.82
-0.91
-0.79
-0.60
-0.44
-0.37
-0.37
-0.39
-0.38
-0.33
-0.27
-0.23
-0.19
-0.11
0.02
0.22
0.46
0.69
0.83
0.87
0.81
0.69
0.59
0.57
0.66
0.80
0.86
0.70
0.22
-0.53
-1.39
-2.09
-2.39
-2.18
-1.49
-0.52
0.46
1.21
1.57
1.49
1.02
0.29
-0.47
-1.05
-1.24
-0.95
-0.23
0.70
1.57
2.08
2.08
1.55
0.62
-0.47
-1.45
-2.09
-2.24
-1.88
-1.09
-0.07
0.96
1.79
2.30
2.43
2.23
1.77
1.15
0.49
-0.11
-0.56
-0.82
-0.90
-0.90
-0.90
-0.96
-1.08
-1.21
-1.26
-1.18
-0.97
-0.68
-0.35
-0.03
0.22
0.37
0.40
0.29
0.09
-0.14
-0.29
-0.30
-0.17
0.05
0.26
0.37
0.36
0.25
0.11
0.03
0.03
0.05
-0.04
-0.37
-0.98
-1.74
-2.35
-2.50
-2.01
-0.92
0.48
1.80
2.68
2.96
2.65
1.92
0.94
-0.09
-1.03
-1.71
-2.02
-1.90
-1.41
-0.74
-0.13
0.21
0.21
-0.09
-0.52
-0.94
-1.21
-1.31
-1.25
-1.06
-0.76
-0.36
0.10
0.59
1.05
1.38
1.51
1.39
1.02
0.45
-0.22
-0.85
-1.30
-1.47
-1.30
-0.82
-0.14
0.57
1.15
1.47
1.50
1.30
0.96
0.59
0.29
0.10
-0.01
-0.03
-0.03
-0.03
-0.08
-0.17
-0.27
-0.34
-0.32
-0.20
-0.02
0.14
0.18
0.08
-0.13
-0.34
-0.43
-0.33
-0.06
0.31
0.65
0.86
0.90
0.79
0.55
0.26
-0.04
-0.29
-0.46
-0.49
-0.36
-0.14
0.06
0.11
-0.13
-0.66
-1.34
-1.95
-2.25
-2.07
-1.42
-0.50
0.43
1.12
1.44
1.43
1.23
1.02
0.94
1.00
1.16
1.32
1.38
1.32
1.14
0.93
0.76
0.71
0.81
1.01
1.23
1.36
1.31
1.07
0.68
0.28
-0.01
-0.10
0.01
0.22
0.41
0.46
0.34
0.06
-0.34
-0.81
-1.31
-1.79
-2.12
-2.17
-1.82
-1.03
0.03
1.13
1.98
2.40
2.35
1.90
1.17
0.25
-0.76
-1.73
-2.45
-2.71
-2.37
-1.48
-0.29
0.82
1.51
1.61
1.16
0.36
-0.49
-1.17
-1.54
-1.61
-1.44
-1.15
-0.86
-0.61
-0.43
-0.28
-0.13
0.03
0.17
0.26
0.25
0.11
-0.14
-0.47
-0.82
-1.13
-1.38
-1.53
-1.61
-1.64
-1.64
-1.60
-1.52
-1.43
-1.38
-1.42
-1.60
-1.93
-2.31
-2.67
-2.89
-2.94
-2.81
-2.60
-2.41
-2.28
-2.23
-2.18
-2.03
-1.69
-1.11
-0.34
0.51
1.27
1.82
2.09
2.11
2.00
1.87
1.85
1.95
2.13
2.31
2.41
2.45
2.49
2.65
2.96
3.38
3.74
3.87
3.65
3.10
2.33
1.52
0.85
0.44
0.34
0.54
1.03
1.75
2.61
3.46
4.06
4.23
3.85
2.99
1.88
0.78
-0.04
-0.49
-0.60
-0.49
-0.32
-0.19
-0.18
-0.33
-0.62
-1.01
-1.40
-1.63
-1.62
-1.37
-1.00
-0.70
-0.61
-0.76
-1.05
-1.32
-1.40
-1.22
-0.81
-0.23
0.41
1.00
1.43
1.56
1.27
0.53
-0.57
-1.78
-2.76
-3.21
-3.00
-2.21
-1.11
-0.01
0.83
1.32
1.51
1.52
1.42
1.22
0.86
0.30
-0.42
-1.15
-1.74
-2.04
-2.06
-1.91
-1.75
-1.71
-1.85
-2.12
-2.46
-2.77
-2.95
-2.91
-2.59
-2.00
-1.19
-0.30
0.51
1.13
1.56
1.88
2.19
2.59
3.07
3.56
3.96
4.23
4.38
4.41
4.31
4.03
3.49
2.70
1.76
0.88
0.24
-0.06
-0.10
-0.05
-0.13
-0.41
-0.85
-1.33
-1.70
-1.92
-2.01
-2.05
-2.10
-2.19
-2.29
-2.35
-2.34
-2.21
-1.98
-1.70
-1.40
-1.14
-0.95
-0.81
-0.68
-0.52
-0.30
-0.09
0.07
0.11
0.01
-0.20
-0.46
-0.71
-0.86
-0.87
-0.67
-0.27
0.29
0.89
1.40
1.69
1.72
1.50
1.12
0.69
0.30
-0.02
-0.32
-0.64
-1.01
-1.41
-1.77
-2.06
-2.26
-2.36
-2.37
-2.26
-1.99
-1.53
-0.88
-0.09
0.75
1.53
2.17
2.63
2.88
2.90
2.72
2.41
2.10
1.93
1.98
2.23
2.54
2.70
2.55
2.04
1.27
0.44
-0.22
-0.54
-0.42
0.12
1.00
2.07
3.14
4.05
4.61
4.76
4.48
3.89
3.15
2.40
1.71
1.09
0.44
-0.27
-1.05
-1.77
-2.32
-2.57
-2.55
-2.36
-2.18
-2.15
-2.26
-2.44
-2.52
-2.39
-2.01
-1.49
-0.96
-0.57
-0.40
-0.47
-0.69
-0.98
-1.22
-1.33
-1.27
-1.04
-0.65
-0.17
0.36
0.85
1.25
1.46
1.42
1.10
0.50
-0.28
-1.09
-1.74
-2.05
-1.95
-1.43
-0.61
0.33
1.20
1.82
2.12
2.07
1.71
1.14
0.44
-0.25
-0.83
-1.23
-1.42
-1.47
-1.46
-1.44
-1.43
-1.40
-1.31
-1.17
-0.98
-0.82
-0.71
-0.66
-0.63
-0.63
-0.69
-0.84
-1.09
-1.38
-1.63
-1.73
-1.63
-1.37
-1.01
-0.64
-0.33
-0.08
0.14
0.36
0.60
0.85
1.07
1.23
1.28
1.21
1.01
0.71
0.29
-0.19
-0.71
-1.18
-1.50
-1.55
-1.27
-0.68
0.12
0.96
1.64
2.07
2.21
2.12
1.91
1.68
1.48
1.29
1.05
0.72
0.30
-0.10
-0.34
-0.29
0.08
0.63
1.16
1.42
1.30
0.80
0.02
-0.86
-1.67
-2.25
-2.46
-2.20
-1.44
-0.29
1.02
2.17
2.90
3.07
2.71
1.98
1.08
0.20
-0.56
-1.10
-1.35
-1.22
-0.70
0.15
1.14
2.00
2.53
2.65
2.41
2.01
1.61
1.31
1.08
0.85
0.57
0.27
-0.01
-0.21
-0.34
-0.48
-0.74
-1.19
-1.79
-2.42
-2.92
-3.15
-3.11
-2.86
-2.55
-2.31
-2.21
-2.22
-2.27
-2.26
-2.12
-1.87
-1.56
-1.27
-1.07
-0.96
-0.88
-0.74
-0.49
-0.12
0.28
0.65
0.94
1.16
1.37
1.58
1.78
1.89
1.84
1.57
1.13
0.60
0.11
-0.21
-0.28
-0.05
0.46
1.21
2.11
3.02
3.88
4.62
5.25
5.75
6.06
6.09
5.75
5.02
3.97
2.77
1.63
0.66
-0.10
-0.69
-1.23
-1.77
-2.35
-2.91
-3.37
-3.67
-3.76
-3.64
-3.30
-2.80
-2.19
-1.57
-1.04
-0.67
-0.52
-0.58
-0.80
-1.07
-1.30
-1.38
-1.27
-0.96
-0.50
-0.00
0.41
0.66
0.75
0.75
0.75
0.80
0.84
0.77
0.49
0.01
-0.56
-1.05
-1.33
-1.36
-1.26
-1.15
-1.15
-1.26
-1.43
-1.56
-1.59
-1.52
-1.40
-1.25
-1.11
-1.00
-0.90
-0.84
-0.78
-0.70
-0.59
-0.47
-0.38
-0.35
-0.36
-0.38
-0.34
-0.23
-0.05
0.10
0.13
-0.03
-0.35
-0.71
-0.94
-0.85
-0.35
0.54
1.65
2.74
3.55
3.88
3.69
3.06
2.19
1.28
0.51
-0.04
-0.35
-0.42
-0.28
0.06
0.57
1.20
1.88
2.47
2.85
2.90
2.57
1.92
1.09
0.23
-0.49
-1.01
-1.30
-1.39
-1.33
-1.12
-0.80
-0.39
0.03
0.38
0.56
0.56
0.41
0.19
-0.00
-0.15
-0.30
-0.52
-0.85
-1.29
-1.75
-2.15
-2.39
-2.47
-2.41
-2.28
-2.17
-2.11
-2.10
-2.06
-1.92
-1.62
-1.18
-0.71
-0.34
-0.19
-0.26
-0.43
-0.50
-0.34
0.06
0.58
0.99
1.12
0.93
0.53
0.14
-0.06
0.03
0.35
0.75
1.06
1.22
1.24
1.17
1.07
0.94
0.72
0.37
-0.07
-0.54
-0.91
-1.13
-1.21
-1.25
-1.37
-1.65
-2.13
-2.74
-3.32
-3.72
-3.78
-3.43
-2.71
-1.74
-0.73
0.14
0.73
1.01
1.06
1.00
0.96
1.03
1.24
1.59
1.98
2.34
2.58
2.67
2.61
2.49
2.36
2.24
2.07
1.78
1.33
0.80
0.35
0.14
0.29
0.75
1.37
1.90
2.20
2.19
1.92
1.50
1.03
0.59
0.22
-0.05
-0.22
-0.29
-0.27
-0.23
-0.20
-0.22
-0.31
-0.46
-0.66
-0.88
-1.12
-1.33
-1.51
-1.60
-1.59
-1.47
-1.27
-1.06
-0.90
-0.83
-0.83
-0.87
-0.92
-0.97
-1.01
-1.02
-0.96
-0.77
-0.45
-0.05
0.34
0.65
0.87
1.09
1.43
1.94
2.55
3.09
3.37
3.31
2.90
2.26
1.54
0.82
0.18
-0.33
-0.66
-0.75
-0.56
-0.10
0.56
1.28
1.90
2.34
2.54
2.56
2.49
2.38
2.26
2.08
1.77
1.29
0.64
-0.08
-0.72
-1.14
-1.31
-1.26
-1.12
-0.99
-0.95
-1.04
-1.26
-1.59
-2.02
-2.53
-3.07
-3.54
-3.87
-3.99
-3.93
-3.79
-3.64
-3.54
-3.46
-3.28
-2.91
-2.31
-1.57
-0.82
-0.23
0.14
0.32
0.39
0.46
0.57
0.69
0.77
0.77
0.67
0.53
0.40
0.34
0.41
0.62
0.95
1.33
1.68
1.90
1.96
1.87
1.72
1.63
1.64
1.76
1.89
1.89
1.66
1.18
0.50
-0.22
-0.80
-1.10
-1.03
-0.63
-0.01
0.71
1.40
2.00
2.44
2.67
2.64
2.34
1.83
1.24
0.72
0.35
0.13
-0.00
-0.15
-0.39
-0.70
-1.05
-1.34
-1.54
-1.61
-1.55
-1.37
-1.10
-0.79
-0.50
-0.26
-0.12
-0.06
-0.08
-0.13
-0.20
-0.26
-0.30
-0.32
-0.30
-0.29
-0.33
-0.42
-0.58
-0.73
-0.82
-0.79
-0.67
-0.53
-0.49
-0.64
-1.01
-1.57
-2.20
-2.77
-3.17
-3.41
-3.57
-3.80
-4.22
-4.87
-5.70
-6.57
-7.30
-7.77
-7.96
-7.99
-8.05
-8.33
-8.95
-9.86
-10.85
-11.70
-12.26
-12.54
-12.70
-12.98
-13.51
-14.33
-15.27
-16.12
-16.65
-16.60
-15.67
-13.44
-9.49
-3.73
3.44
10.98
17.53
21.91
23.60
23.00
21.23
19.64
19.25
20.47
23.07
26.45
29.97
33.14
35.65
37.29
37.95
37.58
36.24
34.12
31.47
28.48
25.29
21.89
18.19
14.07
9.47
4.48
-0.64
-5.53
-9.83
-13.28
-15.78
-17.39
-18.28
-18.66
-18.71
-18.57
-18.30
-17.90
-17.36
-16.67
-15.85
-14.95
-14.00
-13.00
-11.90
-10.62
-9.13
-7.49
-5.87
-4.46
-3.38
-2.65
-2.17
-1.83
-1.54
-1.25
-0.98
-0.75
-0.54
-0.33
-0.07
0.21
0.46
0.63
0.69
0.69
0.69
0.78
0.99
1.28
1.55
1.69
1.61
1.30
0.80
0.16
-0.50
-1.10
-1.55
-1.82
-1.88
-1.73
-1.42
-1.04
-0.70
-0.50
-0.47
-0.59
-0.74
-0.81
-0.72
-0.48
-0.19
0.04
0.14
0.10
-0.03
-0.16
-0.24
-0.24
-0.17
-0.08
0.01
0.05
0.02
-0.10
-0.32
-0.60
-0.84
-0.98
-0.97
-0.80
-0.53
-0.25
-0.03
0.09
0.08
-0.03
-0.22
-0.45
-0.67
-0.87
-1.05
-1.26
-1.52
-1.82
-2.11
-2.29
-2.32
-2.21
-2.05
-1.97
-2.05
-2.27
-2.52
-2.67
-2.64
-2.45
-2.16
-1.89
-1.66
-1.48
-1.31
-1.12
-0.96
-0.85
-0.85
-0.93
-1.04
-1.10
-1.03
-0.82
-0.48
-0.07
0.36
0.77
1.16
1.51
1.78
1.92
1.91
1.74
1.46
1.17
0.93
0.80
0.75
0.68
0.51
0.19
-0.23
-0.66
-0.95
-1.00
-0.79
-0.39
0.11
0.65
1.21
1.78
2.34
2.79
2.98
2.79
2.22
1.39
0.54
-0.11
-0.42
-0.38
-0.09
0.29
0.65
0.93
1.11
1.23
1.27
1.25
1.15
1.02
0.86
0.72
0.62
0.57
0.56
0.60
0.66
0.71
0.71
0.64
0.51
0.40
0.39
0.52
0.79
1.09
1.31
1.35
1.19
0.87
0.49
0.15
-0.08
-0.16
-0.11
0.06
0.31
0.60
0.89
1.16
1.35
1.46
1.49
1.42
1.26
0.99
0.63
0.20
-0.29
-0.81
-1.35
-1.90
-2.41
-2.84
-3.10
-3.17
-3.05
-2.85
-2.69
-2.66
-2.75
-2.80
-2.62
-2.10
-1.25
-0.26
0.63
1.21
1.43
1.32
1.04
0.71
0.40
0.17
0.05
0.04
0.17
0.40
0.66
0.86
0.88
0.69
0.30
-0.24
-0.82
-1.31
-1.61
-1.65
-1.40
-0.92
-0.33
0.22
0.60
0.75
0.67
0.47
0.27
0.21
0.33
0.57
0.82
0.98
1.00
0.92
0.82
0.77
0.78
0.76
0.65
0.40
0.05
-0.30
-0.55
-0.63
-0.54
-0.32
-0.07
0.12
0.18
0.06
-0.25
-0.67
-1.11
-1.46
-1.63
-1.60
-1.39
-1.09
-0.76
-0.48
-0.27
-0.15
-0.09
-0.08
-0.10
-0.14
-0.18
-0.20
-0.14
0.04
0.39
0.86
1.38
1.82
2.08
2.06
1.74
1.15
0.37
-0.47
-1.16
-1.54
-1.53
-1.19
-0.73
-0.37
-0.24
-0.31
-0.34
-0.11
0.46
1.30
2.16
2.79
3.04
2.91
2.48
1.87
1.19
0.51
-0.11
-0.58
-0.82
-0.81
-0.60
-0.32
-0.10
-0.03
-0.12
-0.27
-0.35
-0.29
-0.06
0.28
0.62
0.84
0.87
0.71
0.40
0.03
-0.33
-0.64
-0.84
-0.93
-0.91
-0.81
-0.68
-0.57
-0.52
-0.54
-0.63
-0.78
-0.96
-1.18
-1.47
-1.84
-2.29
-2.76
-3.18
-3.47
-3.59
-3.59
-3.57
-3.64
-3.84
-4.12
-4.35
-4.39
-4.15
-3.66
-3.02
-2.38
-1.86
-1.50
-1.27
-1.11
-1.00
-0.93
-0.89
-0.82
-0.66
-0.36
0.10
0.66
1.21
1.70
2.16
2.72
3.52
4.67
6.11
7.66
9.01
9.93
10.26
10.01
9.33
8.37
7.29
6.16
5.00
3.84
2.74
1.81
1.12
0.62
0.20
-0.28
-0.92
-1.63
-2.22
-2.50
-2.40
-2.03
-1.65
-1.51
-1.71
-2.16
-2.61
-2.81
-2.63
-2.11
-1.42
-0.76
-0.31
-0.14
-0.26
-0.63
-1.19
-1.86
-2.49
-2.92
-3.01
-2.70
-2.05
-1.22
-0.40
0.28
0.77
1.12
1.39
1.66
1.92
2.16
2.36
2.51
2.62
2.71
2.70
2.52
2.09
1.36
0.41
-0.61
-1.49
-2.05
-2.21
-1.99
-1.53
-0.99
-0.54
-0.31
-0.34
-0.59
-0.97
-1.35
-1.62
-1.70
-1.60
-1.35
-1.01
-0.63
-0.24
0.13
0.42
0.57
0.50
0.20
-0.27
-0.79
-1.22
-1.41
-1.33
-1.05
-0.67
-0.31
-0.02
0.22
0.45
0.67
0.83
0.82
0.58
0.12
-0.47
-1.01
-1.41
-1.61
-1.68
-1.67
-1.62
-1.53
-1.39
-1.23
-1.11
-1.11
-1.24
-1.45
-1.66
-1.76
-1.73
-1.62
-1.53
-1.52
-1.64
-1.81
-1.93
-1.90
-1.68
-1.33
-1.00
-0.78
-0.74
-0.81
-0.84
-0.68
-0.23
0.48
1.30
2.07
2.68
3.08
3.30
3.40
3.37
3.21
2.91
2.49
2.06
1.75
1.63
1.72
1.89
1.96
1.80
1.38
0.80
0.22
-0.19
-0.34
-0.27
-0.05
0.19
0.36
0.42
0.36
0.20
-0.03
-0.28
-0.50
-0.64
-0.68
-0.60
-0.41
-0.17
0.10
0.35
0.59
0.80
1.00
1.16
1.27
1.31
1.26
1.16
1.04
0.94
0.89
0.90
0.95
1.02
1.08
1.07
0.95
0.68
0.31
-0.07
-0.30
-0.29
-0.05
0.33
0.69
0.86
0.78
0.47
0.07
-0.29
-0.49
-0.51
-0.38
-0.18
-0.03
-0.02
-0.19
-0.56
-1.06
-1.57
-1.97
-2.16
-2.11
-1.83
-1.39
-0.89
-0.42
-0.08
0.04
-0.08
-0.42
-0.85
-1.21
-1.36
-1.21
-0.78
-0.22
0.33
0.71
0.86
0.77
0.53
0.24
0.02
-0.08
-0.05
0.01
-0.01
-0.19
-0.54
-0.97
-1.36
-1.63
-1.71
-1.64
-1.48
-1.29
-1.11
-0.95
-0.81
-0.67
-0.56
-0.49
-0.48
-0.54
-0.64
-0.75
-0.81
-0.78
-0.68
-0.53
-0.33
-0.08
0.29
0.77
1.33
1.86
2.22
2.31
2.10
1.67
1.12
0.57
0.12
-0.22
-0.42
-0.47
-0.40
-0.23
-0.01
0.20
0.38
0.50
0.53
0.47
0.30
0.04
-0.25
-0.50
-0.63
-0.62
-0.50
-0.37
-0.31
-0.38
-0.55
-0.75
-0.85
-0.78
-0.55
-0.26
-0.02
0.08
0.02
-0.11
-0.22
-0.20
-0.02
0.30
0.68
1.01
1.21
1.26
1.16
1.00
0.82
0.66
0.52
0.34
0.09
-0.19
-0.43
-0.53
-0.40
-0.07
0.34
0.68
0.84
0.79
0.56
0.25
-0.06
-0.30
-0.40
-0.37
-0.21
0.02
0.24
0.38
0.43
0.42
0.41
0.44
0.54
0.69
0.83
0.92
0.94
0.91
0.84
0.72
0.55
0.28
-0.06
-0.43
-0.75
-0.96
-1.04
-1.02
-1.00
-1.08
-1.30
-1.65
-2.05
-2.40
-2.61
-2.66
-2.57
-2.37
-2.13
-1.88
-1.63
-1.37
-1.09
-0.82
-0.58
-0.42
-0.35
-0.35
-0.37
-0.33
-0.15
0.16
0.56
0.96
1.29
1.50
1.56
1.53
1.45
1.38
1.35
1.39
1.51
1.69
1.92
2.13
2.27
2.29
2.16
1.92
1.62
1.34
1.09
0.88
0.66
0.40
0.13
-0.09
-0.17
-0.03
0.29
0.70
1.06
1.23
1.18
0.92
0.57
0.20
-0.14
-0.47
-0.80
-1.13
-1.38
-1.47
-1.33
-0.99
-0.53
-0.09
0.22
0.36
0.37
0.34
0.34
0.41
0.49
0.51
0.40
0.17
-0.12
-0.38
-0.54
-0.59
-0.55
-0.43
-0.23
0.04
0.40
0.75
0.97
0.94
0.62
0.11
-0.39
-0.67
-0.62
-0.31
0.09
0.36
0.39
0.23
-0.00
-0.14
-0.14
-0.03
0.06
0.02
-0.19
-0.53
-0.89
-1.18
-1.33
-1.33
-1.22
-1.06
-0.86
-0.61
-0.29
0.08
0.48
0.80
0.94
0.86
0.59
0.24
-0.06
-0.24
-0.29
-0.31
-0.37
-0.51
-0.69
-0.81
-0.79
-0.57
-0.23
0.12
0.29
0.15
-0.32
-1.02
-1.72
-2.19
-2.29
-1.99
-1.44
-0.83
-0.34
-0.05
0.03
-0.03
-0.17
-0.33
-0.50
-0.64
-0.74
-0.77
-0.71
-0.58
-0.40
-0.23
-0.06
0.10
0.26
0.43
0.60
0.78
0.99
1.22
1.50
1.78
2.00
2.08
1.99
1.78
1.55
1.45
1.57
1.88
2.23
2.43
2.33
1.91
1.29
0.66
0.24
0.14
0.34
0.74
1.15
1.42
1.47
1.30
0.99
0.62
0.28
0.01
-0.17
-0.26
-0.28
-0.19
0.00
0.29
0.63
0.97
1.20
1.28
1.15
0.83
0.39
-0.03
-0.32
-0.37
-0.21
0.06
0.28
0.33
0.16
-0.14
-0.46
-0.71
-0.86
-0.97
-1.13
-1.36
-1.61
-1.80
-1.83
-1.71
-1.50
-1.33
-1.26
-1.29
-1.34
-1.31
-1.15
-0.85
-0.51
-0.22
-0.06
-0.04
-0.13
-0.22
-0.27
-0.23
-0.17
-0.15
-0.18
-0.23
-0.23
-0.12
0.06
0.16
0.02
-0.45
-1.17
-1.90
-2.38
-2.41
-1.99
-1.29
-0.55
0.02
0.30
0.27
0.00
-0.42
-0.92
-1.40
-1.78
-2.00
-2.01
-1.78
-1.32
-0.69
0.02
0.66
1.09
1.26
1.16
0.92
0.69
0.57
0.62
0.81
1.07
1.32
1.57
1.79
2.01
2.19
2.27
2.20
1.98
1.66
1.36
1.14
1.03
0.97
0.87
0.65
0.30
-0.15
-0.62
-1.01
-1.24
-1.27
-1.10
-0.75
-0.35
-0.00
0.17
0.12
-0.11
-0.40
-0.61
-0.67
-0.61
-0.54
-0.58
-0.79
-1.14
-1.50
-1.73
-1.70
-1.39
-0.83
-0.13
0.53
0.99
1.11
0.83
0.20
-0.62
-1.41
-1.94
-2.05
-1.72
-1.07
-0.30
0.38
0.79
0.89
0.75
0.47
0.20
0.02
-0.04
0.00
0.12
0.27
0.42
0.56
0.66
0.74
0.79
0.80
0.78
0.71
0.58
0.39
0.17
0.00
-0.08
-0.06
0.04
0.16
0.29
0.42
0.58
0.78
0.99
1.14
1.16
1.01
0.69
0.32
0.05
0.01
0.22
0.61
0.99
1.18
1.07
0.69
0.15
-0.36
-0.75
-0.98
-1.12
-1.22
-1.28
-1.25
-1.02
-0.60
-0.07
0.38
0.57
0.41
-0.06
-0.72
-1.37
-1.87
-2.13
-2.12
-1.87
-1.45
-0.93
-0.39
0.07
0.34
0.37
0.16
-0.23
-0.66
-1.01
-1.18
-1.16
-0.98
-0.76
-0.55
-0.39
-0.24
-0.07
0.18
0.48
0.78
1.03
1.15
1.15
1.07
0.98
0.94
0.95
0.98
0.99
0.93
0.82
0.71
0.67
0.76
0.97
1.24
1.47
1.57
1.48
1.21
0.82
0.42
0.11
-0.05
-0.07
-0.03
0.00
-0.05
-0.18
-0.33
-0.40
-0.33
-0.13
0.14
0.36
0.43
0.31
0.04
-0.27
-0.48
-0.49
-0.28
0.06
0.37
0.50
0.34
-0.10
-0.75
-1.49
-2.18
-2.67
-2.87
-2.74
-2.31
-1.68
-0.98
-0.36
0.11
0.41
0.57
0.62
0.59
0.51
0.41
0.34
0.33
0.39
0.51
0.61
0.66
0.60
0.46
0.23
-0.03
-0.29
-0.49
-0.59
-0.59
-0.52
-0.46
-0.45
-0.51
-0.58
-0.58
-0.47
-0.26
-0.05
0.09
0.13
0.11
0.09
0.14
0.27
0.47
0.72
1.00
1.31
1.60
1.79
1.80
1.56
1.15
0.71
0.42
0.36
0.50
0.69
0.75
0.57
0.16
-0.37
-0.87
-1.18
-1.25
-1.08
-0.76
-0.41
-0.15
-0.06
-0.15
-0.36
-0.61
-0.84
-1.05
-1.29
-1.62
-2.05
-2.53
-2.95
-3.19
-3.20
-2.98
-2.62
-2.23
-1.90
-1.74
-1.75
-1.92
-2.14
-2.27
-2.15
-1.66
-0.76
0.44
1.76
2.98
3.92
4.54
4.85
4.94
4.90
4.75
4.49
4.14
3.71
3.23
2.72
2.16
1.53
0.83
0.16
-0.36
-0.60
-0.51
-0.17
0.26
0.62
0.81
0.81
0.67
0.46
0.22
0.02
-0.09
-0.06
0.13
0.40
0.61
0.61
0.29
-0.34
-1.16
-1.98
-2.60
-2.89
-2.80
-2.39
-1.78
-1.16
-0.67
-0.42
-0.43
-0.61
-0.86
-1.03
-1.04
-0.86
-0.50
-0.03
0.47
0.92
1.23
1.34
1.28
1.11
0.94
0.86
0.87
0.92
0.90
0.75
0.46
0.14
-0.11
-0.21
-0.16
-0.04
0.07
0.12
0.13
0.13
0.14
0.14
0.10
0.02
-0.07
-0.11
-0.06
0.06
0.25
0.49
0.78
1.09
1.37
1.50
1.35
0.87
0.10
-0.80
-1.62
-2.22
-2.55
-2.65
-2.56
-2.30
-1.85
-1.26
-0.62
-0.10
0.18
0.18
0.02
-0.10
0.05
0.54
1.30
2.13
2.80
3.17
3.20
2.96
2.55
2.09
1.64
1.23
0.86
0.50
0.15
-0.16
-0.39
-0.53
-0.59
-0.63
-0.72
-0.90
-1.17
-1.44
-1.63
-1.66
-1.51
-1.25
-0.95
-0.72
-0.62
-0.68
-0.89
-1.15
-1.39
-1.55
-1.62
-1.65
-1.68
-1.71
-1.70
-1.57
-1.29
-0.89
-0.46
-0.11
0.13
0.25
0.32
0.38
0.41
0.41
0.38
0.37
0.42
0.57
0.80
1.03
1.18
1.18
1.03
0.79
0.54
0.37
0.33
0.44
0.71
1.05
1.39
1.60
1.62
1.43
1.10
0.76
0.53
0.49
0.63
0.87
1.08
1.18
1.13
0.94
0.72
0.54
0.49
0.57
0.73
0.89
0.93
0.76
0.35
-0.23
-0.86
-1.41
-1.76
-1.86
-1.77
-1.58
-1.40
-1.30
-1.29
-1.33
-1.39
-1.46
-1.55
-1.64
-1.70
-1.68
-1.49
-1.08
-0.46
0.32
1.16
1.99
2.72
3.30
3.65
3.70
3.40
2.78
1.99
1.21
0.62
0.31
0.24
0.29
0.32
0.25
0.11
-0.04
-0.12
-0.12
-0.03
0.13
0.36
0.67
1.04
1.41
1.71
1.87
1.87
1.71
1.44
1.06
0.59
0.03
-0.58
-1.18
-1.71
-2.09
-2.34
-2.46
-2.53
-2.56
-2.59
-2.57
-2.49
-2.29
-2.00
-1.65
-1.34
-1.11
-0.98
-0.91
-0.86
-0.80
-0.75
-0.78
-0.96
-1.28
-1.63
-1.91
-1.99
-1.82
-1.43
-0.92
-0.38
0.10
0.50
0.79
0.99
1.10
1.13
1.13
1.13
1.15
1.18
1.21
1.20
1.14
1.02
0.86
0.66
0.46
0.30
0.27
0.38
0.63
0.92
1.16
1.25
1.17
0.95
0.69
0.45
0.29
0.23
0.25
0.36
0.52
0.68
0.77
0.70
0.45
0.03
-0.45
-0.91
-1.24
-1.44
-1.54
-1.59
-1.62
-1.65
-1.68
-1.69
-1.67
-1.57
-1.34
-0.88
-0.16
0.79
1.85
2.80
3.43
3.58
3.20
2.34
1.18
-0.06
-1.17
-1.95
-2.32
-2.31
-2.01
-1.58
-1.18
-0.89
-0.75
-0.72
-0.73
-0.71
-0.59
-0.36
-0.04
0.34
0.71
0.97
1.10
1.04
0.82
0.46
0.02
-0.45
-0.87
-1.21
-1.45
-1.63
-1.79
-1.95
-2.10
-2.18
-2.12
-1.86
-1.40
-0.81
-0.18
0.32
0.60
0.63
0.49
0.29
0.15
0.13
0.22
0.36
0.52
0.69
0.90
1.16
1.46
1.70
1.79
1.68
1.43
1.13
0.90
0.84
0.91
1.05
1.15
1.16
1.10
1.00
0.91
0.85
0.81
0.77
0.72
0.68
0.70
0.78
0.90
0.95
0.87
0.61
0.23
-0.13
-0.32
-0.27
0.01
0.37
0.65
0.71
0.55
0.21
-0.20
-0.60
-0.97
-1.31
-1.61
-1.86
-1.98
-1.95
-1.74
-1.42
-1.09
-0.87
-0.86
-1.08
-1.43
-1.75
-1.86
-1.66
-1.17
-0.55
0.01
0.35
0.42
0.32
0.16
0.06
0.09
0.20
0.34
0.48
0.60
0.71
0.80
0.84
0.79
0.59
0.24
-0.18
-0.55
-0.71
-0.56
-0.10
0.53
1.14
1.56
1.70
1.59
1.35
1.10
0.90
0.75
0.63
0.53
0.47
0.47
0.55
0.64
0.68
0.60
0.41
0.16
-0.06
-0.18
-0.17
-0.03
0.19
0.44
0.68
0.90
1.04
1.09
1.03
0.88
0.66
0.41
0.16
-0.08
-0.33
-0.56
-0.73
-0.77
-0.67
-0.48
-0.31
-0.29
-0.51
-0.92
-1.41
-1.84
-2.14
-2.31
-2.38
-2.33
-2.14
-1.72
-1.12
-0.43
0.15
0.50
0.60
0.55
0.49
0.53
0.66
0.79
0.83
0.77
0.64
0.49
0.35
0.19
-0.02
-0.30
-0.59
-0.79
-0.83
-0.69
-0.41
-0.12
0.09
0.18
0.15
0.08
0.02
0.02
0.08
0.17
0.31
0.51
0.76
1.01
1.19
1.18
0.92
0.45
-0.13
-0.66
-1.03
-1.19
-1.14
-0.92
-0.59
-0.19
0.23
0.59
0.85
0.96
0.89
0.67
0.35
0.02
-0.23
-0.35
-0.34
-0.23
-0.10
-0.02
-0.02
-0.08
-0.16
-0.19
-0.13
0.01
0.15
0.20
0.06
-0.29
-0.79
-1.33
-1.74
-1.92
-1.79
-1.41
-0.88
-0.34
0.05
0.20
0.10
-0.18
-0.48
-0.67
-0.65
-0.45
-0.17
0.07
0.19
0.20
0.20
0.26
0.44
0.70
0.98
1.19
1.31
1.36
1.34
1.27
1.12
0.86
0.52
0.18
-0.04
-0.03
0.22
0.63
1.05
1.33
1.39
1.29
1.14
1.04
1.05
1.16
1.33
1.54
1.78
2.05
2.34
2.61
2.82
2.94
3.01
3.04
3.04
3.01
2.93
2.77
2.56
2.28
1.93
1.46
0.80
-0.04
-0.98
-1.87
-2.56
-2.96
-3.03
-2.77
-2.17
-1.27
-0.14
1.02
1.91
2.23
1.82
0.74
-0.76
-2.30
-3.56
-4.35
-4.68
-4.67
-4.47
-4.21
-3.95
-3.73
-3.59
-3.57
-3.64
-3.75
-3.74
-3.49
-2.94
-2.20
-1.47
-0.95
-0.73
-0.75
-0.77
-0.60
-0.15
0.46
1.01
1.28
1.20
0.85
0.43
0.14
0.10
0.30
0.66
1.08
1.48
1.83
2.12
2.32
2.39
2.31
2.08
1.80
1.58
1.56
1.80
2.29
2.92
3.53
3.98
4.18
4.09
3.69
3.04
2.21
1.32
0.52
-0.05
-0.37
-0.45
-0.43
-0.43
-0.56
-0.86
-1.35
-2.01
-2.75
-3.49
-4.06
-4.31
-4.11
-3.48
-2.56
-1.59
-0.80
-0.29
-0.06
0.03
0.07
0.11
0.08
-0.11
-0.50
-0.99
-1.42
-1.60
-1.45
-1.04
-0.54
-0.16
-0.02
-0.11
-0.34
-0.60
-0.82
-1.02
-1.28
-1.64
-2.08
-2.53
-2.85
-2.94
-2.73
-2.26
-1.63
-0.96
-0.34
0.17
0.60
0.97
1.33
1.64
1.86
1.89
1.69
1.28
0.75
0.24
-0.12
-0.25
-0.14
0.16
0.57
1.00
1.40
1.73
2.00
2.18
2.25
2.19
2.01
1.75
1.48
1.27
1.13
1.04
0.91
0.70
0.37
-0.01
-0.35
-0.56
-0.57
-0.39
-0.09
0.25
0.54
0.70
0.71
0.55
0.25
-0.12
-0.50
-0.81
-0.98
-0.96
-0.78
-0.51
-0.24
-0.08
-0.05
-0.10
-0.13
-0.08
0.07
0.22
0.28
0.16
-0.16
-0.60
-1.08
-1.50
-1.79
-1.93
-1.90
-1.74
-1.50
-1.26
-1.07
-0.97
-0.95
-0.97
-0.94
-0.84
-0.62
-0.29
0.13
0.60
1.04
1.39
1.60
1.64
1.52
1.27
0.96
0.64
0.37
0.20
0.14
0.17
0.27
0.42
0.58
0.71
0.76
0.69
0.47
0.17
-0.12
-0.28
-0.24
-0.02
0.27
0.51
0.64
0.66
0.65
0.68
0.75
0.78
0.68
0.37
-0.11
-0.64
-1.07
-1.28
-1.21
-0.91
-0.51
-0.12
0.20
0.40
0.52
0.57
0.60
0.63
0.66
0.71
0.77
0.80
0.79
0.74
0.69
0.71
0.83
1.02
1.16
1.14
0.87
0.40
-0.13
-0.55
-0.71
-0.61
-0.35
-0.05
0.15
0.19
0.07
-0.15
-0.42
-0.67
-0.82
-0.85
-0.76
-0.60
-0.44
-0.32
-0.28
-0.29
-0.36
-0.44
-0.53
-0.59
-0.61
-0.56
-0.45
-0.30
-0.17
-0.06
-0.01
-0.01
-0.04
-0.10
-0.16
-0.20
-0.19
-0.12
0.00
0.16
0.30
0.38
0.38
0.30
0.19
0.10
0.09
0.15
0.21
0.19
0.02
-0.29
-0.65
-0.88
-0.84
-0.53
-0.06
0.37
0.60
0.53
0.21
-0.19
-0.49
-0.53
-0.28
0.18
0.68
1.04
1.14
0.96
0.62
0.30
0.14
0.19
0.38
0.60
0.70
0.63
0.39
0.06
-0.25
-0.43
-0.39
-0.08
0.45
1.07
1.62
1.96
2.01
1.83
1.53
1.21
0.90
0.61
0.30
-0.05
-0.40
-0.70
-0.93
-1.12
-1.30
-1.50
-1.68
-1.78
-1.75
-1.57
-1.27
-0.90
-0.54
-0.26
-0.11
-0.13
-0.30
-0.58
-0.86
-1.03
-1.01
-0.80
-0.48
-0.12
0.19
0.46
0.72
1.02
1.36
1.67
1.86
1.85
1.63
1.26
0.88
0.63
0.59
0.76
1.05
1.34
1.53
1.57
1.49
1.32
1.11
0.86
0.56
0.21
-0.15
-0.47
-0.68
-0.75
-0.69
-0.54
-0.37
-0.25
-0.25
-0.38
-0.63
-0.92
-1.16
-1.28
-1.28
-1.23
-1.23
-1.34
-1.53
-1.72
-1.74
-1.50
-1.04
-0.48
0.00
0.25
0.23
0.01
-0.25
-0.43
-0.47
-0.39
-0.27
-0.19
-0.16
-0.16
-0.11
-0.01
0.10
0.14
0.01
-0.31
-0.72
-1.04
-1.13
-0.96
-0.62
-0.30
-0.16
-0.23
-0.42
-0.56
-0.52
-0.28
0.08
0.46
0.78
1.04
1.26
1.40
1.41
1.19
0.72
0.10
-0.47
-0.77
-0.68
-0.19
0.52
1.22
1.65
1.67
1.30
0.68
0.03
-0.45
-0.65
-0.58
-0.31
-0.00
0.26
0.40
0.42
0.38
0.35
0.39
0.53
0.75
1.02
1.28
1.50
1.65
1.73
1.69
1.51
1.15
0.62
0.01
-0.55
-0.92
-1.03
-0.94
-0.79
-0.73
-0.86
-1.13
-1.39
-1.47
-1.28
-0.85
-0.30
0.18
0.53
0.73
0.86
0.99
1.15
1.26
1.25
1.06
0.70
0.24
-0.20
-0.57
-0.85
-1.10
-1.33
-1.54
-1.67
-1.67
-1.54
-1.34
-1.18
-1.15
-1.26
-1.46
-1.67
-1.79
-1.73
-1.49
-1.09
-0.57
-0.02
0.42
0.61
0.48
0.04
-0.59
-1.18
-1.56
-1.59
-1.30
-0.79
-0.23
0.21
0.38
0.23
-0.28
-1.09
-2.07
-3.04
-3.77
-4.11
-3.92
-3.21
-2.04
-0.57
0.95
2.27
3.11
3.33
2.90
1.98
0.90
0.00
-0.39
-0.18
0.56
1.59
2.60
3.40
3.88
4.05
3.97
3.72
3.34
2.91
2.51
2.24
2.18
2.34
2.63
2.93
3.14
3.17
3.00
2.62
2.03
1.30
0.52
-0.15
-0.54
-0.54
-0.17
0.46
1.16
1.77
2.23
2.53
2.74
2.88
2.92
2.83
2.57
2.12
1.50
0.70
-0.29
-1.42
-2.62
-3.76
-4.69
-5.30
-5.54
-5.44
-5.05
-4.41
-3.55
-2.49
-1.28
-0.06
0.98
1.69
1.97
1.78
1.21
0.38
-0.57
-1.48
-2.23
-2.75
-3.01
-3.03
-2.87
-2.65
-2.45
-2.33
-2.28
-2.28
-2.28
-2.26
-2.21
-2.13
-2.02
-1.87
-1.69
-1.52
-1.40
-1.39
-1.48
-1.63
-1.74
-1.71
-1.47
-1.02
-0.44
0.16
0.69
1.08
1.31
1.41
1.46
1.52
1.61
1.70
1.70
1.54
1.19
0.73
0.33
0.10
0.12
0.32
0.58
0.78
0.87
0.90
0.96
1.16
1.50
1.92
2.29
2.51
2.55
2.45
2.26
2.05
1.84
1.64
1.40
1.14
0.86
0.60
0.41
0.30
0.26
0.24
0.22
0.20
0.20
0.24
0.32
0.40
0.43
0.38
0.24
0.01
-0.28
-0.63
-1.01
-1.41
-1.77
-2.05
-2.18
-2.18
-2.10
-1.99
-1.90
-1.82
-1.70
-1.51
-1.29
-1.11
-1.09
-1.26
-1.58
-1.90
-2.05
-1.93
-1.55
-1.04
-0.55
-0.21
-0.03
0.07
0.19
0.42
0.74
1.11
1.46
1.74
1.97
2.18
2.39
2.60
2.75
2.78
2.66
2.41
2.09
1.77
1.52
1.37
1.31
1.29
1.26
1.17
1.02
0.78
0.50
0.21
-0.05
-0.27
-0.46
-0.61
-0.75
-0.83
-0.79
-0.59
-0.26
0.12
0.41
0.49
0.33
0.00
-0.31
-0.44
-0.28
0.12
0.62
1.03
1.21
1.10
0.76
0.31
-0.12
-0.38
-0.42
-0.21
0.20
0.77
1.41
2.01
2.51
2.80
2.82
2.52
1.93
1.14
0.27
-0.56
-1.28
-1.90
-2.47
-3.01
-3.47
-3.74
-3.73
-3.43
-2.93
-2.39
-1.94
-1.60
-1.32
-1.05
-0.75
-0.50
-0.39
-0.45
-0.71
-1.08
-1.50
-1.91
-2.27
-2.56
-2.75
-2.80
-2.67
-2.35
-1.89
-1.36
-0.83
-0.34
0.10
0.50
0.84
1.13
1.34
1.50
1.62
1.73
1.88
2.04
2.18
2.26
2.22
2.07
1.81
1.48
1.08
0.66
0.25
-0.06
-0.19
-0.12
0.12
0.36
0.46
0.29
-0.11
-0.60
-1.03
-1.28
-1.38
-1.42
-1.49
-1.65
-1.83
-1.93
-1.82
-1.45
-0.88
-0.22
0.41
0.92
1.31
1.64
1.95
2.23
2.38
2.27
1.79
0.99
0.06
-0.73
-1.18
-1.22
-0.96
-0.62
-0.37
-0.27
-0.23
-0.13
0.14
0.60
1.16
1.65
1.97
2.08
2.01
1.87
1.67
1.42
1.05
0.55
-0.05
-0.63
-1.02
-1.16
-1.06
-0.81
-0.55
-0.33
-0.14
0.09
0.37
0.64
0.78
0.70
0.42
0.05
-0.20
-0.23
-0.00
0.35
0.70
0.92
1.01
1.09
1.23
1.48
1.74
1.87
1.70
1.17
0.31
-0.70
-1.60
-2.17
-2.26
-1.89
-1.22
-0.48
0.12
0.45
0.48
0.28
-0.06
-0.46
-0.86
-1.19
-1.43
-1.51
-1.44
-1.24
-0.94
-0.60
-0.24
0.09
0.36
0.54
0.63
0.64
0.64
0.71
0.88
1.11
1.31
1.36
1.18
0.78
0.26
-0.26
-0.66
-0.88
-0.93
-0.87
-0.78
-0.73
-0.78
-0.91
-1.10
-1.31
-1.52
-1.67
-1.70
-1.55
-1.19
-0.68
-0.12
0.32
0.51
0.42
0.16
-0.11
-0.22
-0.13
0.12
0.39
0.56
0.56
0.43
0.21
-0.01
-0.19
-0.33
-0.41
-0.46
-0.48
-0.49
-0.48
-0.47
-0.44
-0.42
-0.42
-0.47
-0.56
-0.68
-0.75
-0.72
-0.58
-0.37
-0.20
-0.17
-0.33
-0.59
-0.84
-1.01
-1.08
-1.12
-1.17
-1.27
-1.35
-1.32
-1.13
-0.83
-0.48
-0.15
0.15
0.47
0.87
1.35
1.83
2.19
2.29
2.07
1.54
0.79
-0.08
-0.96
-1.73
-2.31
-2.64
-2.68
-2.47
-2.09
-1.63
-1.16
-0.72
-0.33
-0.00
0.21
0.26
0.15
-0.08
-0.31
-0.44
-0.39
-0.19
0.11
0.43
0.73
1.01
1.28
1.53
1.70
1.78
1.76
1.66
1.56
1.49
1.48
1.53
1.60
1.67
1.71
1.69
1.60
1.44
1.28
1.21
1.28
1.50
1.77
1.95
1.92
1.68
1.31
0.98
0.86
0.99
1.36
1.84
2.30
2.61
2.73
2.61
2.25
1.66
0.89
0.05
-0.72
-1.28
-1.54
-1.51
-1.29
-1.01
-0.79
-0.72
-0.83
-1.06
-1.35
-1.62
-1.80
-1.84
-1.73
-1.53
-1.31
-1.16
-1.14
-1.26
-1.47
-1.72
-1.96
-2.20
-2.42
-2.57
-2.60
-2.44
-2.08
-1.57
-1.01
-0.49
-0.06
0.30
0.64
0.99
1.31
1.50
1.48
1.25
0.90
0.54
0.30
0.19
0.19
0.22
0.21
0.15
0.05
-0.07
-0.20
-0.38
-0.63
-0.95
-1.27
-1.50
-1.55
-1.38
-1.00
-0.50
0.01
0.42
0.68
0.76
0.72
0.63
0.57
0.54
0.54
0.56
0.59
0.66
0.77
0.86
0.87
0.72
0.42
0.01
-0.35
-0.56
-0.55
-0.35
-0.03
0.31
0.59
0.78
0.89
0.95
1.00
1.09
1.20
1.31
1.38
1.38
1.27
1.07
0.82
0.52
0.19
-0.18
-0.60
-1.04
-1.44
-1.70
-1.78
-1.66
-1.37
-0.97
-0.54
-0.14
0.17
0.40
0.53
0.57
0.53
0.38
0.15
-0.16
-0.47
-0.69
-0.76
-0.66
-0.47
-0.29
-0.20
-0.25
-0.38
-0.50
-0.49
-0.30
0.04
0.47
0.95
1.43
1.90
2.36
2.75
3.01
3.04
2.81
2.35
1.74
1.11
0.58
0.19
-0.07
-0.28
-0.50
-0.74
-0.95
-1.04
-0.97
-0.75
-0.47
-0.27
-0.22
-0.35
-0.62
-0.94
-1.21
-1.37
-1.35
-1.17
-0.87
-0.51
-0.16
0.11
0.28
0.36
0.37
0.30
0.16
-0.04
-0.27
-0.47
-0.57
-0.53
-0.36
-0.14
0.05
0.19
0.28
0.33
0.36
0.34
0.24
0.03
-0.25
-0.48
-0.58
-0.48
-0.21
0.11
0.33
0.34
0.11
-0.26
-0.62
-0.84
-0.87
-0.76
-0.64
-0.63
-0.76
-0.95
-1.04
-0.93
-0.63
-0.26
0.04
0.19
0.21
0.25
0.42
0.77
1.23
1.68
1.98
2.09
2.08
2.04
2.06
2.16
2.24
2.19
1.92
1.45
0.85
0.28
-0.15
-0.39
-0.44
-0.41
-0.36
-0.34
-0.35
-0.37
-0.40
-0.45
-0.53
-0.62
-0.72
-0.80
-0.89
-1.00
-1.18
-1.43
-1.68
-1.87
-1.92
-1.77
-1.42
-0.92
-0.38
0.07
0.33
0.35
0.17
-0.14
-0.44
-0.65
-0.73
-0.68
-0.54
-0.31
0.01
0.42
0.85
1.21
1.41
1.40
1.20
0.88
0.53
0.22
0.02
-0.05
0.00
0.14
0.30
0.43
0.46
0.41
0.32
0.29
0.38
0.60
0.90
1.15
1.25
1.13
0.82
0.41
0.03
-0.26
-0.45
-0.60
-0.80
-1.07
-1.40
-1.67
-1.82
-1.80
-1.65
-1.45
-1.29
-1.23
-1.28
-1.41
-1.55
-1.63
-1.57
-1.31
-0.87
-0.31
0.23
0.65
0.89
0.99
1.00
0.99
0.98
0.94
0.85
0.73
0.65
0.65
0.69
0.69
0.55
0.24
-0.17
-0.54
-0.72
-0.68
-0.48
-0.22
-0.01
0.13
0.22
0.32
0.47
0.68
0.92
1.13
1.26
1.25
1.08
0.76
0.32
-0.19
-0.71
-1.19
-1.53
-1.67
-1.56
-1.20
-0.69
-0.16
0.22
0.38
0.30
0.06
-0.22
-0.48
-0.71
-0.93
-1.15
-1.32
-1.39
-1.33
-1.13
-0.88
-0.66
-0.54
-0.49
-0.42
-0.21
0.17
0.65
1.09
1.37
1.41
1.24
0.97
0.69
0.44
0.24
0.11
0.04
0.05
0.13
0.21
0.23
0.15
0.01
-0.10
-0.12
-0.01
0.18
0.41
0.64
0.87
1.13
1.41
1.65
1.80
1.82
1.71
1.54
1.33
1.11
0.88
0.64
0.42
0.28
0.21
0.21
0.19
0.09
-0.15
-0.53
-0.99
-1.40
-1.61
-1.51
-1.03
-0.25
0.65
1.43
1.87
1.87
1.48
0.82
0.08
-0.58
-1.05
-1.28
-1.24
-0.90
-0.28
0.56
1.50
2.36
2.99
3.28
3.19
2.77
2.12
1.35
0.57
-0.14
-0.71
-1.11
-1.31
-1.29
-1.06
-0.65
-0.15
0.32
0.65
0.75
0.62
0.31
-0.05
-0.38
-0.59
-0.72
-0.81
-0.92
-1.02
-1.07
-0.99
-0.76
-0.46
-0.24
-0.21
-0.37
-0.60
-0.71
-0.59
-0.29
0.01
0.06
-0.27
-0.95
-1.76
-2.40
-2.63
-2.37
-1.75
-1.00
-0.35
0.07
0.22
0.13
-0.12
-0.48
-0.93
-1.41
-1.84
-2.12
-2.12
-1.82
-1.26
-0.61
-0.04
0.31
0.38
0.28
0.15
0.11
0.20
0.35
0.44
0.37
0.18
-0.02
-0.07
0.11
0.49
0.93
1.28
1.45
1.46
1.39
1.37
1.45
1.58
1.69
1.70
1.61
1.47
1.32
1.20
1.06
0.83
0.46
-0.01
-0.45
-0.71
-0.64
-0.24
0.41
1.11
1.69
2.01
2.00
1.68
1.11
0.38
-0.39
-1.10
-1.63
-1.89
-1.87
-1.59
-1.17
-0.74
-0.43
-0.29
-0.27
-0.32
-0.34
-0.31
-0.28
-0.34
-0.57
-0.97
-1.44
-1.81
-1.95
-1.76
-1.29
-0.65
-0.00
0.50
0.74
0.68
0.33
-0.25
-0.91
-1.51
-1.93
-2.06
-1.89
-1.46
-0.90
-0.37
-0.03
0.01
-0.23
-0.68
-1.16
-1.55
-1.74
-1.71
-1.45
-1.00
-0.39
0.34
1.07
1.63
1.89
1.80
1.47
1.10
0.89
0.91
1.12
1.34
1.43
1.34
1.12
0.91
0.79
0.76
0.78
0.75
0.68
0.59
0.55
0.60
0.73
0.90
1.10
1.32
1.57
1.84
2.07
2.20
2.18
2.02
1.79
1.58
1.44
1.33
1.17
0.86
0.35
-0.36
-1.17
-1.94
-2.53
-2.80
-2.67
-2.15
-1.32
-0.33
0.62
1.36
1.76
1.73
1.31
0.56
-0.39
-1.39
-2.30
-2.99
-3.34
-3.28
-2.83
-2.12
-1.36
-0.76
-0.50
-0.62
-1.04
-1.58
-2.07
-2.39
-2.48
-2.33
-1.98
-1.50
-0.93
-0.33
0.26
0.80
1.26
1.62
1.83
1.88
1.81
1.69
1.57
1.51
1.49
1.46
1.36
1.14
0.83
0.44
0.05
-0.31
-0.58
-0.73
-0.70
-0.50
-0.18
0.19
0.50
0.70
0.75
0.71
0.64
0.59
0.59
0.62
0.64
0.57
0.33
-0.13
-0.79
-1.53
-2.13
-2.39
-2.19
-1.57
-0.68
0.24
0.99
1.48
1.70
1.67
1.42
0.99
0.42
-0.16
-0.61
-0.81
-0.71
-0.42
-0.10
0.08
0.04
-0.21
-0.58
-0.97
-1.28
-1.41
-1.28
-0.87
-0.25
0.42
0.91
1.06
0.86
0.48
0.15
0.06
0.25
0.60
0.91
1.03
0.93
0.69
0.45
0.34
0.39
0.56
0.75
0.87
0.85
0.66
0.35
0.00
-0.26
-0.34
-0.24
-0.02
0.22
0.38
0.41
0.37
0.33
0.37
0.49
0.62
0.67
0.59
0.39
0.10
-0.20
-0.48
-0.72
-0.95
-1.14
-1.24
-1.18
-0.90
-0.42
0.16
0.69
1.03
1.09
0.90
0.54
0.12
-0.28
-0.66
-1.02
-1.33
-1.55
-1.61
-1.47
-1.16
-0.77
-0.40
-0.19
-0.21
-0.47
-0.94
-1.50
-2.02
-2.36
-2.42
-2.18
-1.68
-1.05
-0.37
0.27
0.84
1.32
1.65
1.75
1.56
1.11
0.52
0.03
-0.19
-0.08
0.26
0.58
0.66
0.41
-0.09
-0.61
-0.91
-0.90
-0.61
-0.19
0.16
0.36
0.38
0.27
0.12
-0.00
-0.06
-0.02
0.09
0.23
0.34
0.34
0.16
-0.19
-0.65
-1.07
-1.30
-1.25
-0.89
-0.32
0.31
0.82
1.11
1.15
0.99
0.74
0.51
0.37
0.36
0.47
0.61
0.68
0.56
0.21
-0.30
-0.74
-0.89
-0.57
0.18
1.15
2.00
2.46
2.41
1.96
1.32
0.74
0.38
0.25
0.29
0.38
0.42
0.37
0.27
0.16
0.08
0.01
-0.10
-0.32
-0.62
-0.93
-1.10
-1.02
-0.65
-0.07
0.56
1.04
1.28
1.30
1.20
1.13
1.17
1.29
1.37
1.29
0.94
0.31
-0.48
-1.27
-1.83
-1.99
-1.70
-1.06
-0.27
0.43
0.89
1.03
0.95
0.78
0.67
0.66
0.71
0.68
0.45
-0.02
-0.64
-1.24
-1.64
-1.73
-1.54
-1.19
-0.86
-0.69
-0.70
-0.87
-1.09
-1.33
-1.55
-1.76
-1.97
-2.11
-2.08
-1.79
-1.22
-0.49
0.22
0.72
0.89
0.77
0.50
0.29
0.24
0.36
0.52
0.59
0.54
0.42
0.37
0.47
0.71
0.95
1.06
0.98
0.73
0.45
0.26
0.21
0.28
0.39
0.48
0.56
0.64
0.76
0.90
0.99
0.98
0.85
0.65
0.48
0.43
0.53
0.71
0.87
0.88
0.72
0.40
0.02
-0.30
-0.46
-0.41
-0.16
0.20
0.54
0.73
0.66
0.33
-0.20
-0.82
-1.44
-1.98
-2.38
-2.57
-2.52
-2.19
-1.68
-1.15
-0.80
-0.80
-1.14
-1.68
-2.22
-2.55
-2.61
-2.41
-2.03
-1.52
-0.90
-0.17
0.60
1.30
1.76
1.85
1.58
1.06
0.51
0.13
0.02
0.19
0.54
0.95
1.34
1.66
1.90
2.05
2.11
2.03
1.79
1.41
0.94
0.47
0.12
-0.00
0.12
0.42
0.79
1.06
1.11
0.92
0.53
0.04
-0.45
-0.85
-1.11
-1.22
-1.18
-1.06
-0.95
-0.92
-0.98
-1.05
-1.05
-0.93
-0.75
-0.66
-0.85
-1.42
-2.34
-3.46
-4.59
-5.58
-6.37
-6.97
-7.36
-7.58
-7.61
-7.47
-7.19
-6.81
-6.32
-5.75
-5.09
-4.30
-3.37
-2.26
-0.97
0.48
2.04
3.68
5.36
7.09
8.80
10.42
11.77
12.70
13.14
13.17
13.03
12.98
13.20
13.69
14.25
14.62
14.54
13.87
12.62
10.91
8.95
6.93
5.03
3.33
1.88
0.69
-0.26
-1.01
-1.59
-2.09
-2.57
-3.08
-3.64
-4.20
-4.69
-5.02
-5.19
-5.22
-5.21
-5.23
-5.38
-5.67
-6.12
-6.69
-7.29
-7.80
-8.08
-8.04
-7.70
-7.21
-6.80
-6.74
-7.12
-7.91
-8.87
-9.72
-10.23
-10.31
-10.09
-9.83
-9.85
-10.35
-11.36
-12.69
-14.01
-15.02
-15.57
-15.73
-15.78
-16.04
-16.79
-18.17
-20.22
-22.82
-25.62
-27.97
-28.88
-27.29
-22.52
-14.63
-4.60
5.90
15.13
21.82
25.57
26.72
26.04
24.28
21.94
19.29
16.50
13.83
11.53
9.79
8.66
7.98
7.53
7.16
6.90
6.88
7.34
8.38
9.91
11.58
12.88
13.31
12.62
10.92
8.70
6.63
5.30
4.98
5.53
6.49
7.33
7.70
7.56
7.10
6.59
6.21
5.92
5.57
4.99
4.16
3.20
2.34
1.77
1.53
1.55
1.66
1.78
1.94
2.27
2.90
3.83
4.91
5.88
6.42
6.32
5.49
4.00
2.01
-0.26
-2.57
-4.72
-6.55
-8.01
-9.13
-10.01
-10.73
-11.31
-11.71
-11.84
-11.65
-11.16
-10.46
-9.60
-8.62
-7.52
-6.32
-5.14
-4.20
-3.68
-3.65
-4.00
-4.49
-4.85
-4.86
-4.46
-3.67
-2.59
-1.31
0.09
1.54
2.98
4.28
5.31
5.88
5.81
4.91
3.09
0.36
-3.04
-6.76
-10.36
-13.47
-15.96
-17.96
-19.86
-22.17
-25.31
-29.46
-34.48
-39.95
-45.37
-50.37
-54.81
-58.91
-62.97
-67.28
-71.88
-76.54
-80.92
-84.78
-88.20
-91.59
-95.54
-100.60
-107.02
-114.75
-123.63
-133.54
-144.31
-155.44
-165.59
-172.50
-173.30
-165.41
-147.43
-119.60
-83.43
-40.99
5.69
54.67
103.56
149.09
187.40
215.04
230.33
234.15
229.64
220.81
211.07
202.24
194.72
188.27
182.89
179.04
177.27
177.56
178.98
179.97
179.10
175.81
170.73
165.49
161.97
161.53
164.53
170.13
176.53
181.38
182.36
177.65
166.43
149.06
127.06
102.70
78.16
54.65
31.87
8.25
-17.95
-47.26
-78.11
-107.13
-130.43
-145.31
-151.40
-150.56
-145.77
-139.61
-133.41
-127.22
-120.63
-113.70
-107.28
-102.57
-100.42
-100.62
-101.94
-102.57
-100.97
-96.43
-89.37
-80.97
-72.53
-64.90
-58.15
-51.70
-44.81
-37.04
-28.63
-20.35
-13.16
-7.80
-4.58
-3.34
-3.66
-5.05
-7.03
-9.17
-11.06
-12.34
-12.76
-12.24
-10.92
-9.14
-7.32
-5.85
-4.95
-4.62
-4.62
-4.61
-4.26
-3.42
-2.12
-0.60
0.88
2.12
3.03
3.63
3.97
4.03
3.74
3.02
1.91
0.55
-0.76
-1.71
-2.11
-1.97
-1.50
-1.03
-0.83
-1.05
-1.67
-2.55
-3.54
-4.53
-5.46
-6.29
-6.93
-7.31
-7.39
-7.17
-6.79
-6.39
-6.14
-6.18
-6.64
-7.53
-8.80
-10.25
-11.56
-12.36
-12.32
-11.29
-9.32
-6.60
-3.38
0.07
3.49
6.66
9.35
11.42
12.88
13.96
15.06
16.61
18.86
21.74
24.84
27.60
29.54
30.37
30.15
29.13
27.66
26.05
24.50
23.10
21.82
20.53
19.00
16.95
14.17
10.56
6.17
1.22
-3.96
-8.94
-13.15
-16.03
-17.14
-16.41
-14.28
-11.54
-9.10
-7.56
-6.92
-6.71
-6.19
-4.83
-2.55
0.32
3.18
5.49
6.91
7.39
7.11
6.33
5.36
4.42
3.61
2.90
2.12
1.11
-0.21
-1.78
-3.40
-4.81
-5.79
-6.25
-6.25
-5.95
-5.59
-5.38
-5.45
-5.84
-6.46
-7.16
-7.75
-8.08
-8.05
-7.66
-6.99
-6.17
-5.40
-4.86
-4.69
-4.97
-5.68
-6.63
-7.51
-7.99
-7.80
-6.92
-5.56
-4.13
-3.06
-2.60
-2.77
-3.33
-3.91
-4.20
-4.08
-3.56
-2.81
-2.01
-1.28
-0.68
-0.20
0.18
0.51
0.81
1.08
1.33
1.54
1.70
1.80
1.80
1.68
1.43
1.04
0.54
-0.01
-0.55
-1.02
-1.38
-1.61
-1.69
-1.64
-1.49
-1.30
-1.14
-1.04
-1.01
-1.00
-0.96
-0.86
-0.71
-0.56
-0.45
-0.38
-0.34
-0.30
-0.24
-0.18
-0.14
-0.09
-0.00
0.13
0.30
0.39
0.27
-0.14
-0.80
-1.58
-2.24
-2.58
-2.48
-1.96
-1.13
-0.18
0.72
1.43
1.88
2.08
2.08
1.99
1.88
1.76
1.60
1.33
0.91
0.38
-0.15
-0.52
-0.62
-0.42
-0.02
0.48
0.97
1.41
1.80
2.15
2.42
2.53
2.40
2.02
1.45
0.85
0.38
0.16
0.23
0.50
0.85
1.11
1.16
0.99
0.68
0.37
0.19
0.18
0.25
0.26
0.08
-0.31
-0.81
-1.23
-1.40
-1.26
-0.89
-0.46
-0.13
-0.00
-0.05
-0.18
-0.30
-0.37
-0.42
-0.49
-0.61
-0.77
-0.87
-0.83
-0.60
-0.22
0.20
0.52
0.68
0.66
0.53
0.38
0.26
0.14
-0.04
-0.33
-0.73
-1.15
-1.47
-1.61
-1.59
-1.52
-1.51
-1.64
-1.88
-2.13
-2.26
-2.23
-2.06
-1.84
-1.66
-1.55
-1.51
-1.53
-1.56
-1.62
-1.73
-1.89
-2.08
-2.21
-2.18
-1.89
-1.28
-0.42
0.57
1.46
2.03
2.12
1.72
0.96
0.10
-0.58
-0.85
-0.64
-0.02
0.85
1.77
2.59
3.21
3.58
3.69
3.54
3.15
2.58
1.97
1.48
1.22
1.22
1.40
1.60
1.70
1.65
1.47
1.23
1.02
0.85
0.76
0.74
0.80
0.87
0.87
0.69
0.24
-0.47
-1.32
-2.11
-2.69
-2.93
-2.87
-2.61
-2.28
-2.00
-1.81
-1.71
-1.63
-1.49
-1.21
-0.77
-0.21
0.35
0.78
0.96
0.88
0.57
0.17
-0.22
-0.54
-0.76
-0.92
-1.02
-1.04
-0.92
-0.63
-0.20
0.27
0.63
0.78
0.77
0.69
0.73
0.96
1.33
1.70
1.88
1.79
1.47
1.07
0.72
0.50
0.38
0.28
0.19
0.10
0.08
0.16
0.32
0.51
0.69
0.80
0.85
0.81
0.69
0.45
0.10
-0.30
-0.67
-0.94
-1.05
-1.01
-0.87
-0.70
-0.60
-0.62
-0.78
-1.09
-1.47
-1.83
-2.04
-2.00
-1.69
-1.17
-0.55
0.02
0.44
0.64
0.65
0.54
0.39
0.27
0.21
0.23
0.32
0.52
0.86
1.33
1.88
2.42
2.81
2.93
2.75
2.30
1.71
1.13
0.69
0.42
0.30
0.25
0.18
0.04
-0.19
-0.45
-0.67
-0.80
-0.82
-0.76
-0.67
-0.60
-0.61
-0.69
-0.88
-1.15
-1.46
-1.73
-1.88
-1.86
-1.68
-1.42
-1.20
-1.14
-1.27
-1.53
-1.81
-1.98
-1.95
-1.68
-1.18
-0.50
0.28
1.07
1.80
2.37
2.76
2.91
2.84
2.57
2.18
1.76
1.38
1.06
0.78
0.53
0.29
0.07
-0.10
-0.23
-0.35
-0.52
-0.73
-0.92
-0.98
-0.80
-0.33
0.36
1.15
1.86
2.35
2.53
2.38
1.98
1.42
0.83
0.31
-0.15
-0.58
-1.06
-1.63
-2.24
-2.76
-3.08
-3.13
-2.96
-2.70
-2.48
-2.41
-2.50
-2.67
-2.81
-2.80
-2.52
-1.94
-1.07
-0.01
1.06
1.95
2.47
2.55
2.20
1.58
0.86
0.24
-0.18
-0.36
-0.34
-0.16
0.10
0.42
0.72
0.93
0.97
0.78
0.42
-0.00
-0.30
-0.34
-0.08
0.38
0.87
1.23
1.37
1.30
1.12
0.91
0.76
0.67
0.66
0.71
0.81
0.92
1.01
1.02
0.95
0.83
0.69
0.58
0.49
0.41
0.33
0.23
0.12
-0.00
-0.16
-0.37
-0.64
-0.94
-1.21
-1.37
-1.39
-1.27
-1.06
-0.81
-0.59
-0.46
-0.43
-0.53
-0.77
-1.10
-1.46
-1.73
-1.81
-1.59
-1.10
-0.39
0.40
1.11
1.61
1.84
1.77
1.43
0.90
0.31
-0.23
-0.60
-0.74
-0.63
-0.31
0.14
0.61
0.98
1.16
1.10
0.80
0.32
-0.22
-0.69
-0.98
-1.06
-0.96
-0.72
-0.37
0.02
0.42
0.77
1.03
1.16
1.18
1.08
0.91
0.67
0.35
-0.05
-0.50
-0.92
-1.20
-1.25
-1.08
-0.78
-0.49
-0.34
-0.37
-0.50
-0.64
-0.65
-0.49
-0.18
0.25
0.70
1.14
1.50
1.71
1.71
1.47
1.02
0.44
-0.13
-0.61
-0.92
-1.07
-1.07
-0.96
-0.79
-0.56
-0.31
-0.07
0.14
0.31
0.39
0.40
0.34
0.22
0.07
-0.09
-0.21
-0.29
-0.27
-0.13
0.15
0.52
0.89
1.15
1.21
1.04
0.71
0.33
-0.00
-0.25
-0.43
-0.55
-0.62
-0.64
-0.58
-0.51
-0.48
-0.59
-0.88
-1.32
-1.80
-2.23
-2.54
-2.74
-2.90
-3.12
-3.42
-3.80
-4.14
-4.32
-4.19
-3.66
-2.71
-1.44
-0.05
1.23
2.23
2.85
3.12
3.14
3.04
2.91
2.75
2.51
2.15
1.67
1.17
0.76
0.58
0.68
0.99
1.35
1.56
1.47
1.07
0.51
0.02
-0.19
-0.03
0.42
1.00
1.54
1.92
2.07
2.00
1.72
1.23
0.62
-0.00
-0.44
-0.55
-0.25
0.40
1.21
1.94
2.39
2.44
2.12
1.55
0.90
0.31
-0.14
-0.43
-0.58
-0.61
-0.51
-0.34
-0.14
-0.04
-0.11
-0.39
-0.82
-1.30
-1.71
-2.01
-2.18
-2.25
-2.20
-2.00
-1.58
-0.94
-0.17
0.60
1.17
1.43
1.28
0.78
0.03
-0.78
-1.44
-1.81
-1.80
-1.46
-0.90
-0.27
0.30
0.72
0.96
0.97
0.74
0.30
-0.23
-0.67
-0.83
-0.59
-0.04
0.62
1.10
1.20
0.89
0.35
-0.15
-0.41
-0.34
-0.05
0.26
0.41
0.33
0.04
-0.33
-0.66
-0.91
-1.05
-1.11
-1.11
-1.08
-0.98
-0.83
-0.69
-0.63
-0.75
-1.07
-1.56
-2.07
-2.47
-2.63
-2.54
-2.26
-1.88
-1.49
-1.12
-0.73
-0.26
0.33
0.98
1.62
2.13
2.43
2.49
2.37
2.13
1.89
1.74
1.70
1.74
1.79
1.77
1.62
1.40
1.20
1.14
1.29
1.64
2.10
2.51
2.73
2.69
2.41
2.03
1.69
1.49
1.47
1.52
1.53
1.38
1.04
0.57
0.10
-0.27
-0.50
-0.64
-0.76
-0.94
-1.18
-1.43
-1.64
-1.74
-1.69
-1.51
-1.22
-0.88
-0.53
-0.21
0.06
0.26
0.36
0.33
0.18
-0.06
-0.30
-0.44
-0.42
-0.30
-0.19
-0.26
-0.59
-1.14
-1.76
-2.24
-2.39
-2.17
-1.64
-0.95
-0.27
0.27
0.59
0.70
0.65
0.59
0.61
0.76
1.00
1.17
1.15
0.87
0.40
-0.10
-0.46
-0.61
-0.57
-0.45
-0.33
-0.22
-0.07
0.12
0.34
0.46
0.37
0.02
-0.54
-1.15
-1.65
-1.94
-2.02
-2.00
-1.97
-2.00
-2.04
-2.03
-1.87
-1.54
-1.06
-0.53
-0.02
0.38
0.61
0.63
0.44
0.05
-0.49
-1.09
-1.67
-2.12
-2.34
-2.27
-1.92
-1.34
-0.62
0.13
0.83
1.44
1.93
2.31
2.53
2.57
2.43
2.17
1.92
1.82
1.95
2.29
2.75
3.18
3.43
3.45
3.25
2.85
2.35
1.82
1.36
1.01
0.79
0.68
0.61
0.49
0.27
-0.06
-0.50
-1.00
-1.50
-1.97
-2.35
-2.64
-2.83
-2.96
-3.06
-3.14
-3.18
-3.15
-2.98
-2.65
-2.19
-1.68
-1.23
-0.88
-0.67
-0.53
-0.39
-0.19
0.05
0.28
0.44
0.47
0.37
0.19
0.03
-0.07
-0.07
0.03
0.18
0.33
0.43
0.43
0.35
0.23
0.16
0.20
0.34
0.50
0.59
0.55
0.38
0.21
0.17
0.34
0.74
1.26
1.79
2.21
2.47
2.58
2.55
2.36
1.99
1.43
0.75
0.07
-0.45
-0.74
-0.79
-0.70
-0.58
-0.55
-0.64
-0.85
-1.13
-1.43
-1.71
-1.91
-1.98
-1.89
-1.64
-1.29
-0.96
-0.72
-0.60
-0.57
-0.49
-0.27
0.11
0.60
1.08
1.44
1.60
1.58
1.45
1.26
1.05
0.82
0.56
0.32
0.15
0.13
0.28
0.57
0.90
1.20
1.38
1.43
1.37
1.22
0.97
0.60
0.12
-0.44
-1.00
-1.44
-1.67
-1.66
-1.45
-1.13
-0.80
-0.53
-0.37
-0.31
-0.31
-0.34
-0.33
-0.24
-0.09
0.05
0.10
-0.02
-0.30
-0.63
-0.87
-0.89
-0.66
-0.26
0.18
0.53
0.75
0.84
0.84
0.82
0.80
0.80
0.79
0.76
0.67
0.50
0.28
0.02
-0.22
-0.41
-0.53
-0.58
-0.59
-0.54
-0.42
-0.22
0.03
0.28
0.43
0.42
0.26
0.03
-0.15
-0.16
0.05
0.44
0.90
1.33
1.62
1.75
1.71
1.51
1.15
0.65
0.02
-0.65
-1.26
-1.65
-1.72
-1.47
-0.98
-0.43
-0.01
0.17
0.10
-0.11
-0.32
-0.42
-0.40
-0.33
-0.32
-0.41
-0.59
-0.75
-0.78
-0.62
-0.31
0.08
0.42
0.62
0.65
0.49
0.20
-0.13
-0.41
-0.53
-0.43
-0.11
0.38
0.91
1.36
1.63
1.67
1.46
1.05
0.53
0.01
-0.39
-0.57
-0.52
-0.32
-0.08
0.08
0.13
0.11
0.09
0.10
0.11
0.06
-0.09
-0.31
-0.55
-0.73
-0.87
-1.04
-1.31
-1.71
-2.17
-2.55
-2.71
-2.58
-2.18
-1.60
-1.00
-0.47
-0.11
0.07
0.09
0.01
-0.07
-0.08
0.03
0.23
0.47
0.66
0.77
0.78
0.74
0.70
0.69
0.69
0.67
0.58
0.43
0.28
0.18
0.18
0.27
0.43
0.59
0.69
0.68
0.52
0.19
-0.28
-0.81
-1.26
-1.50
-1.41
-0.96
-0.26
0.52
1.20
1.65
1.83
1.76
1.55
1.29
1.07
0.90
0.76
0.64
0.49
0.31
0.13
-0.06
-0.23
-0.39
-0.53
-0.68
-0.89
-1.17
-1.51
-1.84
-2.06
-2.08
-1.85
-1.40
-0.84
-0.29
0.13
0.42
0.60
0.71
0.79
0.83
0.83
0.81
0.82
0.86
0.91
0.91
0.79
0.51
0.12
-0.28
-0.60
-0.80
-0.89
-0.92
-0.92
-0.89
-0.80
-0.61
-0.30
0.10
0.53
0.91
1.13
1.13
0.87
0.39
-0.24
-0.83
-1.26
-1.42
-1.28
-0.91
-0.42
0.07
0.47
0.74
0.89
0.97
1.00
1.02
1.01
0.98
0.92
0.85
0.80
0.76
0.71
0.60
0.39
0.03
-0.44
-0.97
-1.45
-1.78
-1.87
-1.73
-1.39
-0.93
-0.42
0.08
0.53
0.91
1.21
1.39
1.44
1.35
1.15
0.91
0.69
0.55
0.48
0.41
0.26
-0.02
-0.41
-0.83
-1.15
-1.28
-1.20
-1.00
-0.84
-0.84
-1.05
-1.40
-1.76
-1.99
-2.03
-1.90
-1.70
-1.55
-1.47
-1.44
-1.36
-1.14
-0.74
-0.21
0.38
0.94
1.36
1.60
1.62
1.40
0.95
0.33
-0.39
-1.09
-1.64
-1.92
-1.88
-1.56
-1.08
-0.58
-0.21
-0.03
-0.04
-0.16
-0.32
-0.47
-0.59
-0.69
-0.74
-0.71
-0.53
-0.16
0.38
1.03
1.69
2.27
2.70
2.94
2.95
2.76
2.42
2.03
1.69
1.47
1.34
1.25
1.11
0.89
0.62
0.36
0.14
-0.08
-0.43
-1.02
-1.86
-2.77
-3.44
-3.52
-2.82
-1.39
0.45
2.29
3.69
4.41
4.41
3.84
2.94
1.96
1.08
0.42
0.05
-0.04
0.11
0.42
0.79
1.13
1.37
1.48
1.45
1.33
1.17
1.05
1.03
1.10
1.24
1.34
1.30
1.08
0.69
0.23
-0.18
-0.43
-0.47
-0.35
-0.18
-0.10
-0.17
-0.41
-0.75
-1.10
-1.40
-1.63
-1.83
-2.03
-2.24
-2.41
-2.47
-2.39
-2.18
-1.95
-1.77
-1.72
-1.76
-1.80
-1.74
-1.52
-1.18
-0.83
-0.58
-0.51
-0.61
-0.80
-1.00
-1.11
-1.09
-0.94
-0.66
-0.29
0.09
0.38
0.50
0.42
0.19
-0.01
-0.02
0.29
0.93
1.76
2.56
3.13
3.34
3.19
2.78
2.24
1.72
1.28
0.93
0.65
0.43
0.29
0.26
0.35
0.54
0.76
0.91
0.93
0.78
0.50
0.16
-0.18
-0.49
-0.74
-0.93
-1.04
-1.07
-1.02
-0.92
-0.79
-0.66
-0.52
-0.40
-0.31
-0.30
-0.40
-0.61
-0.86
-1.03
-0.98
-0.64
-0.06
0.59
1.06
1.15
0.82
0.21
-0.43
-0.77
-0.65
-0.07
0.78
1.60
2.18
2.40
2.31
2.04
1.68
1.26
0.77
0.18
-0.42
-0.90
-1.09
-0.96
-0.56
-0.09
0.26
0.37
0.24
0.01
-0.19
-0.25
-0.17
-0.01
0.17
0.34
0.53
0.76
1.07
1.39
1.66
1.80
1.74
1.47
1.03
0.50
-0.05
-0.55
-0.97
-1.30
-1.52
-1.66
-1.73
-1.75
-1.73
-1.66
-1.57
-1.46
-1.38
-1.37
-1.44
-1.54
-1.61
-1.58
-1.45
-1.22
-0.98
-0.76
-0.57
-0.40
-0.21
-0.01
0.14
0.18
0.06
-0.21
-0.56
-0.89
-1.07
-0.99
-0.58
0.14
1.06
1.96
2.62
2.88
2.70
2.20
1.57
0.96
0.42
-0.09
-0.64
-1.23
-1.77
-2.10
-2.11
-1.84
-1.41
-1.02
-0.81
-0.76
-0.76
-0.67
-0.45
-0.15
0.07
0.08
-0.14
-0.46
-0.69
-0.70
-0.47
-0.16
0.07
0.09
-0.09
-0.35
-0.54
-0.55
-0.36
-0.01
0.48
1.10
1.83
2.59
3.22
3.52
3.39
2.81
1.93
0.97
0.14
-0.45
-0.76
-0.85
-0.79
-0.67
-0.55
-0.47
-0.46
-0.53
-0.67
-0.84
-0.95
-0.90
-0.64
-0.16
0.43
0.99
1.37
1.50
1.43
1.26
1.05
0.83
0.57
0.22
-0.17
-0.54
-0.79
-0.89
-0.89
-0.87
-0.92
-1.09
-1.37
-1.70
-2.01
-2.15
-2.04
-1.60
-0.88
-0.02
0.76
1.26
1.38
1.13
0.64
0.05
-0.51
-0.92
-1.07
-0.91
-0.41
0.37
1.28
2.15
2.78
3.09
3.05
2.70
2.12
1.44
0.78
0.26
-0.02
-0.05
0.08
0.25
0.32
0.24
0.02
-0.25
-0.52
-0.76
-0.97
-1.16
-1.30
-1.33
-1.26
-1.14
-1.03
-1.01
-1.07
-1.15
-1.15
-1.04
-0.86
-0.71
-0.69
-0.82
-1.06
-1.34
-1.58
-1.75
-1.85
-1.86
-1.78
-1.58
-1.27
-0.87
-0.39
0.14
0.70
1.25
1.75
2.12
2.29
2.25
2.03
1.72
1.38
1.08
0.78
0.49
0.22
0.01
-0.05
0.05
0.26
0.48
0.61
0.62
0.58
0.58
0.70
0.97
1.35
1.75
2.09
2.31
2.36
2.21
1.86
1.35
0.75
0.13
-0.44
-0.90
-1.22
-1.34
-1.22
-0.86
-0.34
0.18
0.52
0.53
0.18
-0.41
-1.05
-1.52
-1.71
-1.60
-1.24
-0.72
-0.15
0.40
0.86
1.19
1.36
1.35
1.16
0.78
0.23
-0.42
-1.05
-1.50
-1.65
-1.46
-1.00
-0.40
0.14
0.47
0.55
0.39
0.10
-0.24
-0.53
-0.73
-0.81
-0.78
-0.64
-0.44
-0.21
0.01
0.21
0.38
0.56
0.78
1.05
1.34
1.57
1.67
1.58
1.33
1.00
0.70
0.47
0.33
0.20
-0.01
-0.34
-0.76
-1.18
-1.48
-1.60
-1.53
-1.35
-1.16
-1.01
-0.92
-0.87
-0.84
-0.82
-0.85
-0.99
-1.25
-1.60
-1.97
-2.24
-2.36
-2.33
-2.22
-2.12
-2.09
-2.14
-2.16
-2.02
-1.61
-0.90
0.01
0.94
1.70
2.18
2.35
2.32
2.19
2.04
1.89
1.69
1.41
1.08
0.77
0.55
0.46
0.45
0.46
0.40
0.24
0.01
-0.18
-0.21
0.04
0.56
1.25
1.90
2.33
2.39
2.14
1.72
1.34
1.13
1.12
1.23
1.33
1.37
1.30
1.11
0.76
0.21
-0.52
-1.35
-2.09
-2.53
-2.55
-2.17
-1.55
-0.90
-0.37
-0.01
0.27
0.51
0.70
0.74
0.52
0.01
-0.65
-1.27
-1.68
-1.82
-1.80
-1.74
-1.75
-1.80
-1.76
-1.53
-1.13
-0.72
-0.49
-0.58
-0.97
-1.50
-1.95
-2.15
-2.06
-1.74
-1.30
-0.87
-0.49
-0.20
-0.00
0.08
0.08
0.01
-0.07
-0.12
-0.09
0.03
0.22
0.46
0.71
0.96
1.16
1.31
1.35
1.24
0.92
0.36
-0.37
-1.12
-1.60
-1.53
-0.74
0.71
2.49
4.17
5.31
5.69
5.32
4.43
3.33
2.28
1.45
0.91
0.64
0.59
0.70
0.91
1.14
1.31
1.35
1.21
0.93
0.56
0.23
0.01
-0.09
-0.15
-0.25
-0.46
-0.74
-0.96
-0.98
-0.75
-0.33
0.12
0.40
0.45
0.28
0.01
-0.22
-0.38
-0.47
-0.57
-0.72
-0.92
-1.11
-1.20
-1.14
-0.91
-0.58
-0.22
0.09
0.31
0.44
0.52
0.53
0.45
0.23
-0.17
-0.68
-1.17
-1.50
-1.53
-1.26
-0.82
-0.40
-0.18
-0.26
-0.63
-1.20
-1.83
-2.34
-2.58
-2.44
-1.86
-0.92
0.18
1.19
1.86
2.07
1.85
1.38
0.88
0.51
0.35
0.33
0.35
0.31
0.15
-0.11
-0.40
-0.63
-0.79
-0.89
-0.99
-1.12
-1.30
-1.47
-1.59
-1.59
-1.48
-1.29
-1.10
-0.97
-0.89
-0.82
-0.64
-0.22
0.45
1.32
2.18
2.81
3.07
2.92
2.49
1.96
1.52
1.23
1.07
0.95
0.78
0.56
0.31
0.10
-0.07
-0.18
-0.25
-0.28
-0.25
-0.14
0.02
0.19
0.28
0.26
0.11
-0.09
-0.28
-0.41
-0.48
-0.51
-0.53
-0.55
-0.54
-0.47
-0.36
-0.28
-0.26
-0.33
-0.41
-0.44
-0.35
-0.18
-0.01
0.08
0.06
-0.03
-0.13
-0.20
-0.25
-0.31
-0.41
-0.51
-0.54
-0.47
-0.28
-0.08
0.06
0.08
0.00
-0.08
-0.09
0.01
0.17
0.31
0.30
0.10
-0.28
-0.75
-1.16
-1.37
-1.29
-0.91
-0.34
0.27
0.75
0.99
0.99
0.79
0.47
0.13
-0.18
-0.43
-0.61
-0.69
-0.66
-0.48
-0.19
0.15
0.46
0.65
0.70
0.68
0.68
0.77
0.96
1.16
1.26
1.20
0.99
0.73
0.50
0.34
0.21
0.03
-0.26
-0.68
-1.18
-1.68
-2.07
-2.26
-2.15
-1.71
-0.93
0.08
1.18
2.19
2.91
3.23
3.07
2.48
1.54
0.39
-0.84
-1.97
-2.86
-3.42
-3.59
-3.41
-2.96
-2.36
-1.73
-1.13
-0.61
-0.17
0.16
0.34
0.32
0.12
-0.18
-0.47
-0.60
-0.52
-0.26
0.09
0.46
0.77
1.05
1.32
1.56
1.77
1.90
1.89
1.76
1.50
1.12
0.64
0.08
-0.45
-0.84
-0.97
-0.80
-0.39
0.09
0.47
0.62
0.54
0.26
-0.12
-0.53
-0.95
-1.36
-1.74
-2.04
-2.23
-2.29
-2.23
-2.06
-1.82
-1.49
-1.09
-0.59
0.02
0.72
1.47
2.21
2.82
3.21
3.29
3.01
2.44
1.68
0.91
0.29
-0.07
-0.15
-0.03
0.16
0.34
0.45
0.52
0.59
0.72
0.94
1.20
1.45
1.63
1.65
1.48
1.10
0.58
0.03
-0.40
-0.59
-0.50
-0.25
0.01
0.12
0.03
-0.21
-0.48
-0.63
-0.62
-0.44
-0.19
0.05
0.27
0.46
0.69
0.99
1.34
1.70
1.94
2.00
1.81
1.36
0.73
0.04
-0.59
-1.05
-1.30
-1.32
-1.18
-0.93
-0.68
-0.49
-0.43
-0.57
-0.92
-1.42
-1.98
-2.45
-2.71
-2.71
-2.46
-2.02
-1.51
-1.00
-0.54
-0.17
0.11
0.28
0.36
0.41
0.47
0.57
0.73
0.89
1.03
1.13
1.21
1.34
1.55
1.82
2.08
2.19
2.07
1.67
1.09
0.46
-0.09
-0.47
-0.72
-0.92
-1.14
-1.39
-1.57
-1.61
-1.48
-1.22
-0.96
-0.78
-0.73
-0.79
-0.90
-1.06
-1.28
-1.57
-1.90
-2.17
-2.29
-2.21
-1.95
-1.64
-1.38
-1.23
-1.18
-1.13
-1.00
-0.77
-0.47
-0.17
0.09
0.37
0.78
1.43
2.35
3.44
4.47
5.18
5.42
5.17
4.55
3.77
3.00
2.33
1.75
1.19
0.59
-0.08
-0.79
-1.45
-1.98
-2.32
-2.44
-2.38
-2.21
-2.01
-1.81
-1.60
-1.40
-1.21
-1.10
-1.12
-1.26
-1.46
-1.61
-1.60
-1.44
-1.19
-0.96
-0.84
-0.84
-0.90
-0.97
-0.96
-0.90
-0.80
-0.70
-0.62
-0.57
-0.53
-0.52
-0.54
-0.62
-0.75
-0.88
-0.96
-0.93
-0.75
-0.42
-0.01
0.41
0.74
0.94
0.99
0.87
0.62
0.24
-0.24
-0.74
-1.20
-1.54
-1.75
-1.90
-2.06
-2.26
-2.39
-2.25
-1.63
-0.42
1.25
3.10
4.74
5.87
6.34
6.15
5.48
4.54
3.53
2.63
1.95
1.54
1.41
1.52
1.79
2.11
2.35
2.42
2.30
2.03
1.70
1.38
1.11
0.84
0.49
0.08
-0.36
-0.71
-0.89
-0.89
-0.79
-0.66
-0.55
-0.39
-0.15
0.21
0.62
0.92
0.98
0.75
0.34
-0.10
-0.39
-0.49
-0.45
-0.43
-0.51
-0.74
-1.04
-1.29
-1.43
-1.43
-1.31
-1.13
-0.91
-0.67
-0.43
-0.22
-0.09
-0.07
-0.16
-0.32
-0.50
-0.64
-0.68
-0.64
-0.52
-0.38
-0.28
-0.28
-0.37
-0.52
-0.65
-0.69
-0.63
-0.50
-0.35
-0.24
-0.16
-0.12
-0.09
-0.07
-0.08
-0.15
-0.26
-0.41
-0.52
-0.57
-0.47
-0.17
0.35
1.05
1.83
2.50
2.90
2.94
2.62
2.05
1.40
0.78
0.23
-0.22
-0.58
-0.82
-0.89
-0.77
-0.49
-0.16
0.08
0.12
-0.08
-0.46
-0.90
-1.25
-1.44
-1.45
-1.36
-1.27
-1.23
-1.25
-1.26
-1.21
-1.06
-0.84
-0.63
-0.49
-0.47
-0.55
-0.68
-0.80
-0.84
-0.75
-0.53
-0.22
0.11
0.39
0.55
0.58
0.49
0.33
0.13
-0.09
-0.34
-0.63
-0.99
-1.41
-1.87
-2.33
-2.74
-3.08
-3.36
-3.60
-3.81
-3.93
-3.83
-3.34
-2.37
-0.99
0.60
2.04
3.05
3.52
3.51
3.23
2.87
2.53
2.22
1.87
1.46
1.05
0.74
0.60
0.61
0.70
0.74
0.68
0.54
0.43
0.43
0.62
0.96
1.41
1.88
2.29
2.60
2.77
2.81
2.71
2.49
2.15
1.70
1.13
0.44
-0.33
-1.13
-1.85
-2.39
-2.65
-2.64
-2.43
-2.14
-1.88
-1.75
-1.76
-1.89
-2.07
-2.26
-2.37
-2.38
-2.27
-2.03
-1.69
-1.33
-1.02
-0.83
-0.77
-0.82
-0.92
-1.02
-1.14
-1.29
-1.48
-1.64
-1.66
-1.44
-0.97
-0.36
0.22
0.66
0.97
1.26
1.65
2.17
2.73
3.15
3.27
3.09
2.69
2.22
1.78
1.37
0.91
0.35
-0.27
-0.81
-1.14
-1.16
-0.93
-0.61
-0.37
-0.32
-0.49
-0.79
-1.13
-1.43
-1.63
-1.73
-1.70
-1.60
-1.51
-1.52
-1.71
-2.03
-2.32
-2.38
-2.05
-1.33
-0.38
0.57
1.36
1.93
2.30
2.46
2.38
2.01
1.39
0.71
0.28
0.35
0.99
2.02
3.10
3.88
4.22
4.21
4.06
3.94
3.86
3.66
3.17
2.34
1.27
0.23
-0.54
-0.89
-0.79
-0.36
0.25
0.87
1.40
1.74
1.88
1.84
1.70
1.60
1.63
1.83
2.11
2.35
2.40
2.21
1.84
1.41
1.04
0.76
0.54
0.27
-0.11
-0.58
-1.03
-1.32
-1.38
-1.24
-1.07
-1.03
-1.22
-1.61
-2.05
-2.35
-2.40
-2.19
-1.80
-1.34
-0.90
-0.49
-0.12
0.22
0.49
0.63
0.60
0.42
0.16
-0.06
-0.13
-0.02
0.28
0.68
1.05
1.27
1.27
1.06
0.73
0.42
0.24
0.20
0.22
0.17
-0.02
-0.35
-0.71
-0.97
-1.05
-0.94
-0.72
-0.43
-0.15
0.12
0.34
0.48
0.49
0.34
0.08
-0.20
-0.42
-0.54
-0.59
-0.64
-0.76
-0.95
-1.15
-1.31
-1.41
-1.49
-1.60
-1.79
-2.01
-2.16
-2.14
-1.89
-1.44
-0.89
-0.38
-0.03
0.09
-0.02
-0.33
-0.75
-1.18
-1.47
-1.50
-1.23
-0.72
-0.13
0.34
0.55
0.47
0.18
-0.15
-0.41
-0.49
-0.42
-0.26
-0.06
0.12
0.26
0.36
0.44
0.52
0.61
0.72
0.85
0.96
0.99
0.91
0.68
0.34
-0.03
-0.31
-0.43
-0.35
-0.16
0.04
0.18
0.25
0.30
0.41
0.59
0.77
0.84
0.73
0.45
0.11
-0.13
-0.16
0.07
0.52
1.06
1.55
1.87
1.88
1.55
0.91
0.10
-0.69
-1.28
-1.59
-1.62
-1.48
-1.32
-1.21
-1.20
-1.22
-1.22
-1.13
-0.94
-0.69
-0.47
-0.34
-0.33
-0.41
-0.55
-0.74
-1.00
-1.33
-1.71
-2.03
-2.14
-1.92
-1.40
-0.75
-0.20
0.06
-0.01
-0.24
-0.38
-0.25
0.16
0.70
1.14
1.33
1.26
1.04
0.84
0.77
0.85
0.98
1.09
1.14
1.18
1.30
1.56
1.94
2.35
2.65
2.73
2.54
2.14
1.61
1.04
0.48
-0.05
-0.54
-0.94
-1.16
-1.14
-0.89
-0.50
-0.14
0.04
-0.02
-0.24
-0.45
-0.51
-0.37
-0.08
0.17
0.23
0.03
-0.38
-0.84
-1.19
-1.29
-1.15
-0.89
-0.63
-0.51
-0.55
-0.74
-0.99
-1.21
-1.33
-1.28
-1.01
-0.51
0.16
0.88
1.45
1.73
1.65
1.29
0.82
0.44
0.25
0.22
0.25
0.23
0.13
-0.02
-0.14
-0.16
-0.13
-0.10
-0.14
-0.24
-0.35
-0.35
-0.19
0.14
0.55
0.90
1.11
1.14
1.01
0.80
0.56
0.30
0.06
-0.18
-0.43
-0.68
-0.95
-1.22
-1.49
-1.71
-1.87
-1.95
-1.98
-1.99
-1.99
-1.96
-1.86
-1.66
-1.35
-0.95
-0.53
-0.13
0.25
0.60
0.91
1.17
1.33
1.38
1.35
1.24
1.10
0.90
0.65
0.34
0.02
-0.22
-0.31
-0.21
0.04
0.37
0.71
1.00
1.22
1.37
1.43
1.36
1.10
0.61
-0.05
-0.75
-1.30
-1.55
-1.42
-0.95
-0.31
0.30
0.72
0.86
0.73
0.39
-0.07
-0.52
-0.83
-0.91
-0.68
-0.18
0.46
1.05
1.46
1.59
1.47
1.21
0.88
0.52
0.15
-0.18
-0.39
-0.37
-0.05
0.53
1.23
1.83
2.20
2.29
2.19
1.99
1.77
1.51
1.16
0.71
0.23
-0.12
-0.25
-0.15
0.02
0.07
-0.16
-0.63
-1.22
-1.71
-1.98
-1.99
-1.86
-1.71
-1.63
-1.65
-1.74
-1.82
-1.85
-1.80
-1.71
-1.59
-1.44
-1.25
-1.01
-0.71
-0.41
-0.18
-0.07
-0.09
-0.17
-0.20
-0.11
0.08
0.28
0.38
0.33
0.17
0.01
-0.07
-0.08
-0.07
-0.14
-0.30
-0.49
-0.62
-0.61
-0.45
-0.23
-0.04
0.05
0.01
-0.12
-0.32
-0.56
-0.79
-0.97
-1.02
-0.88
-0.52
-0.01
0.53
0.95
1.16
1.16
1.00
0.81
0.67
0.61
0.64
0.80
1.13
1.66
2.34
3.07
3.63
3.83
3.60
2.98
2.13
1.25
0.49
-0.10
-0.53
-0.83
-1.01
-1.09
-1.11
-1.15
-1.30
-1.59
-1.99
-2.40
-2.67
-2.71
-2.51
-2.14
-1.73
-1.41
-1.24
-1.23
-1.29
-1.30
-1.15
-0.78
-0.24
0.35
0.82
1.04
0.98
0.71
0.39
0.15
0.08
0.17
0.33
0.48
0.57
0.59
0.55
0.43
0.20
-0.16
-0.58
-0.97
-1.20
-1.21
-1.05
-0.83
-0.71
-0.74
-0.83
-0.83
-0.60
-0.09
0.56
1.14
1.44
1.37
0.98
0.42
-0.12
-0.52
-0.69
-0.59
-0.17
0.59
1.63
2.80
3.90
4.67
4.96
4.74
4.12
3.30
2.47
1.77
1.20
0.73
0.33
-0.03
-0.29
-0.41
-0.38
-0.23
-0.08
-0.04
-0.17
-0.48
-0.86
-1.22
-1.42
-1.43
-1.25
-0.96
-0.65
-0.45
-0.42
-0.60
-0.95
-1.35
-1.68
-1.83
-1.73
-1.41
-0.95
-0.47
-0.11
0.03
-0.10
-0.43
-0.84
-1.19
-1.35
-1.33
-1.16
-0.98
-0.85
-0.81
-0.86
-0.97
-1.14
-1.39
-1.65
-1.80
-1.69
-1.19
-0.31
0.80
1.89
2.72
3.15
3.20
2.99
2.70
2.42
2.21
1.99
1.72
1.37
1.00
0.64
0.35
0.17
0.06
0.02
0.03
0.06
0.11
0.14
0.14
0.09
0.03
-0.00
0.05
0.17
0.31
0.40
0.36
0.19
-0.08
-0.43
-0.81
-1.21
-1.60
-1.94
-2.19
-2.31
-2.31
-2.26
-2.21
-2.17
-2.10
-1.90
-1.47
-0.82
-0.04
0.67
1.14
1.22
0.92
0.37
-0.26
-0.76
-1.01
-1.00
-0.78
-0.48
-0.20
-0.03
0.01
-0.03
-0.12
-0.23
-0.33
-0.40
-0.44
-0.44
-0.44
-0.48
-0.62
-0.88
-1.17
-1.30
-1.03
-0.22
1.09
2.68
4.18
5.21
5.58
5.27
4.46
3.41
2.35
1.45
0.75
0.25
-0.06
-0.21
-0.19
-0.04
0.16
0.33
0.38
0.31
0.14
-0.05
-0.22
-0.35
-0.50
-0.68
-0.92
-1.13
-1.26
-1.26
-1.13
-0.93
-0.71
-0.47
-0.23
-0.01
0.13
0.13
-0.03
-0.35
-0.72
-1.05
-1.24
-1.25
-1.08
-0.73
-0.25
0.31
0.87
1.31
1.53
1.50
1.19
0.67
-0.01
-0.72
-1.36
-1.80
-1.98
-1.87
-1.55
-1.13
-0.74
-0.43
-0.20
-0.00
0.18
0.33
0.40
0.34
0.18
-0.04
-0.23
-0.35
-0.39
-0.42
-0.50
-0.66
-0.84
-0.94
-0.88
-0.61
-0.19
0.25
0.58
0.75
0.79
0.80
0.87
1.02
1.19
1.24
1.11
0.80
0.42
0.12
-0.04
-0.05
0.05
0.20
0.38
0.57
0.76
0.89
0.90
0.73
0.43
0.10
-0.18
-0.35
-0.45
-0.58
-0.84
-1.23
-1.68
-2.06
-2.22
-2.10
-1.68
-1.01
-0.19
0.68
1.49
2.15
2.61
2.84
2.85
2.69
2.42
2.11
1.75
1.33
0.83
0.25
-0.31
-0.77
-1.02
-1.04
-0.88
-0.69
-0.59
-0.66
-0.87
-1.13
-1.33
-1.38
-1.29
-1.14
-1.02
-0.99
-1.03
-1.07
-1.02
-0.82
-0.53
-0.24
-0.05
0.01
-0.01
-0.03
0.00
0.07
0.10
0.04
-0.10
-0.27
-0.39
-0.44
-0.47
-0.53
-0.63
-0.72
-0.68
-0.44
0.00
0.53
0.96
1.14
1.03
0.65
0.14
-0.37
-0.79
-1.08
-1.20
-1.14
-0.88
-0.45
0.10
0.62
0.99
1.14
1.09
0.95
0.84
0.86
1.04
1.33
1.63
1.84
1.94
1.90
1.74
1.51
1.23
0.92
0.62
0.37
0.21
0.17
0.28
0.50
0.73
0.89
0.87
0.68
0.38
0.10
-0.07
-0.07
0.06
0.21
0.26
0.15
-0.13
-0.51
-0.86
-1.07
-1.07
-0.87
-0.56
-0.25
-0.05
0.01
-0.06
-0.21
-0.38
-0.55
-0.72
-0.91
-1.12
-1.36
-1.64
-1.94
-2.25
-2.52
-2.69
-2.67
-2.42
-1.91
-1.19
-0.34
0.49
1.15
1.53
1.58
1.33
0.90
0.40
-0.03
-0.34
-0.48
-0.46
-0.32
-0.09
0.17
0.40
0.52
0.50
0.37
0.21
0.09
0.05
0.07
0.08
0.09
0.12
0.21
0.38
0.57
0.67
0.56
0.24
-0.21
-0.63
-0.87
-0.86
-0.66
-0.40
-0.21
-0.15
-0.20
-0.29
-0.34
-0.34
-0.33
-0.37
-0.50
-0.69
-0.84
-0.86
-0.72
-0.45
-0.17
0.01
0.05
-0.03
-0.16
-0.29
-0.39
-0.48
-0.60
-0.76
-0.91
-0.99
-0.95
-0.81
-0.63
-0.49
-0.43
-0.45
-0.46
-0.34
-0.08
0.27
0.57
0.71
0.59
0.30
-0.04
-0.29
-0.36
-0.29
-0.15
-0.04
-0.04
-0.18
-0.53
-1.11
-1.97
-3.06
-4.20
-5.13
-5.60
-5.49
-4.85
-3.86
-2.77
-1.76
-0.86
-0.04
0.82
1.79
2.86
4.01
5.15
6.24
7.25
8.16
8.95
9.54
9.82
9.68
9.07
8.02
6.73
5.43
4.33
3.54
3.00
2.60
2.21
1.77
1.33
0.97
0.72
0.54
0.30
-0.11
-0.70
-1.40
-2.06
-2.55
-2.80
-2.86
-2.82
-2.78
-2.78
-2.81
-2.85
-2.86
-2.85
-2.82
-2.81
-2.79
-2.76
-2.71
-2.63
-2.53
-2.38
-2.17
-1.91
-1.63
-1.38
-1.22
-1.18
-1.22
-1.23
-1.13
-0.89
-0.52
-0.11
0.24
0.46
0.53
0.45
0.29
0.12
0.03
0.05
0.18
0.37
0.58
0.76
0.92
1.07
1.19
1.23
1.13
0.83
0.37
-0.18
-0.68
-1.04
-1.21
-1.22
-1.12
-0.93
-0.70
-0.44
-0.17
0.08
0.30
0.47
0.56
0.54
0.38
0.09
-0.26
-0.54
-0.61
-0.38
0.09
0.65
1.08
1.24
1.07
0.65
0.10
-0.48
-1.03
-1.47
-1.76
-1.83
-1.66
-1.33
-0.98
-0.82
-0.97
-1.39
-1.90
-2.25
-2.23
-1.77
-0.99
-0.09
0.67
1.14
1.26
1.10
0.84
0.64
0.59
0.67
0.79
0.85
0.80
0.69
0.64
0.70
0.86
1.06
1.19
1.23
1.21
1.21
1.30
1.47
1.64
1.71
1.63
1.45
1.30
1.28
1.43
1.70
1.97
2.08
1.95
1.58
1.04
0.43
-0.17
-0.69
-1.12
-1.47
-1.75
-1.95
-2.06
-2.10
-2.04
-1.90
-1.67
-1.35
-0.97
-0.59
-0.26
-0.01
0.11
0.14
0.09
0.01
-0.09
-0.19
-0.32
-0.49
-0.72
