1603950453.00
64.000000
-0.00
-0.00
-0.00
-0.00
-0.00
-0.00
-0.00
-0.00
-0.00
-0.00
0.00
0.01
0.01
-0.00
-0.03
-0.05
-0.05
0.00
0.13
0.36
0.66
1.01
1.37
1.72
2.06
2.40
2.79
3.24
3.80
4.42
5.06
5.66
6.20
6.68
7.15
7.68
8.31
9.14
10.09
11.04
11.88
12.56
13.14
13.76
14.65
15.96
17.91
20.32
22.90
25.38
27.58
29.57
31.68
34.32
37.81
42.54
48.15
54.10
59.83
64.97
69.58
74.14
79.34
85.71
93.76
103.00
112.62
121.73
129.77
136.75
143.30
150.75
157.77
166.64
177.95
191.79
206.97
220.57
228.25
225.36
208.53
176.87
132.76
80.05
23.07
-34.94
-92.44
-149.16
-205.23
-260.37
-313.74
-363.87
-409.83
-450.91
-486.50
-515.74
-537.23
-549.22
-549.96
-538.37
-514.21
-478.67
-433.88
-382.45
-327.02
-269.84
-212.63
-156.66
-102.95
-52.37
-5.90
35.58
71.43
101.35
125.50
144.38
158.69
169.15
176.37
180.75
182.57
182.07
179.51
175.23
169.65
163.18
156.15
148.81
141.30
133.69
126.02
118.33
110.69
103.15
95.80
88.68
81.83
75.26
68.98
62.98
57.25
51.81
46.67
41.83
37.32
33.15
29.30
25.77
22.52
19.53
16.78
14.27
12.00
9.99
8.26
6.78
5.53
4.46
3.50
2.60
1.77
1.03
0.43
-0.00
-0.26
-0.41
-0.56
-0.81
-1.23
-1.80
-2.41
-2.91
-3.18
-3.18
-3.03
-2.93
-3.12
-3.72
-4.67
-5.76
-6.68
-7.18
-7.19
-6.91
-6.69
-6.93
-7.82
-9.31
-11.04
-12.54
-13.46
-13.70
-13.44
-13.10
-13.08
-13.72
-15.24
-17.70
-20.91
-24.19
-26.33
-25.83
-21.49
-13.11
-1.81
10.19
20.40
27.08
29.84
29.56
27.74
25.66
23.89
22.32
20.65
18.77
16.94
15.59
15.02
15.21
15.82
16.42
16.75
16.89
17.15
17.89
19.30
21.32
23.59
25.69
27.21
27.92
27.89
27.30
26.37
25.14
23.52
21.32
18.36
14.75
10.56
6.11
1.72
-2.32
-5.89
-8.99
-11.68
-13.99
-15.94
-17.53
-18.70
-19.38
-19.50
-19.03
-18.04
-16.71
-15.33
-14.16
-13.34
-12.84
-12.45
-11.98
-11.30
-10.46
-9.55
-8.73
-8.05
-7.56
-7.20
-7.00
-6.91
-6.84
-6.58
-5.91
-4.67
-2.88
-0.77
1.29
2.99
4.16
4.82
5.12
5.23
5.24
5.20
5.11
4.98
4.85
4.78
4.77
4.77
4.74
4.64
4.50
4.39
4.33
4.32
4.32
4.25
4.08
3.83
3.53
3.15
2.77
2.38
1.94
1.48
1.04
0.65
0.30
-0.11
-0.65
-1.32
-2.03
-2.68
-3.19
-3.59
-4.02
-4.61
-5.41
-6.38
-7.41
-8.43
-9.43
-10.36
-11.13
-11.55
-11.34
-10.35
-8.60
-6.35
-3.89
-1.49
0.69
2.69
4.50
6.14
7.50
8.48
9.00
9.10
8.94
8.69
8.49
8.41
8.40
8.41
8.37
8.23
7.98
7.60
7.14
6.64
6.18
5.80
5.50
5.21
4.83
4.22
3.34
2.25
1.04
-0.10
-1.06
-1.78
-2.30
-2.73
-3.18
-3.72
-4.38
-5.17
-6.10
-7.14
-8.24
-9.24
-10.00
-10.38
-10.31
-9.83
-9.06
-8.13
-7.19
-6.35
-5.62
-4.95
-4.24
-3.36
-2.21
-0.79
0.83
2.50
4.07
5.41
6.45
7.17
7.61
7.78
7.75
7.56
7.28
6.94
6.57
6.22
5.87
5.53
5.19
4.81
4.37
3.85
3.28
2.69
2.08
1.46
0.82
0.18
-0.44
-1.01
-1.54
-2.11
-2.80
-3.67
-4.69
-5.77
-6.78
-7.61
-8.20
-8.48
-8.37
-7.80
-6.73
-5.26
-3.62
-2.10
-0.94
-0.21
0.20
0.44
0.65
0.83
0.90
0.81
0.58
0.34
0.20
0.20
0.24
0.20
0.03
-0.18
-0.27
-0.11
0.36
1.03
1.72
2.29
2.66
2.85
2.93
2.91
2.76
2.41
1.84
1.11
0.33
-0.35
-0.84
-1.14
-1.37
-1.67
-2.15
-2.84
-3.65
-4.49
-5.30
-6.09
-6.89
-7.64
-8.20
-8.39
-8.08
-7.26
-6.06
-4.69
-3.31
-2.02
-0.84
0.23
1.20
2.07
2.86
3.57
4.23
4.82
5.27
5.52
5.56
5.44
5.27
5.13
5.11
5.18
5.30
5.41
5.46
5.40
5.16
4.70
3.97
3.01
1.93
0.87
-0.04
-0.76
-1.31
-1.79
-2.33
-3.00
-3.81
-4.70
-5.53
-6.22
-6.71
-7.03
-7.26
-7.50
-7.78
-8.09
-8.33
-8.40
-8.20
-7.73
-7.00
-6.04
-4.89
-3.57
-2.14
-0.70
0.60
1.60
2.24
2.54
2.60
2.59
2.63
2.78
3.05
3.38
3.70
3.95
4.12
4.19
4.17
4.04
3.78
3.42
3.01
2.62
2.29
2.00
1.70
1.31
0.81
0.23
-0.35
-0.87
-1.33
-1.78
-2.29
-2.85
-3.45
-4.01
-4.53
-5.06
-5.62
-6.22
-6.71
-6.93
-6.72
-6.03
-4.97
-3.68
-2.31
-0.90
0.58
2.23
4.07
6.04
8.00
9.76
11.21
12.37
13.38
14.40
15.55
16.82
18.08
19.17
20.01
20.65
21.24
21.93
22.84
23.93
25.07
26.09
26.86
27.30
27.39
27.08
26.26
24.82
22.69
19.89
16.54
12.82
8.89
4.76
0.40
-4.31
-9.38
-14.68
-20.01
-25.07
-29.59
-33.30
-35.99
-37.44
-37.53
-36.28
-33.88
-30.73
-27.31
-24.09
-21.32
-19.09
-17.29
-15.74
-14.26
-12.79
-11.33
-9.94
-8.71
-7.68
-6.88
-6.30
-5.92
-5.70
-5.54
-5.32
-4.95
-4.39
-3.70
-3.01
-2.42
-2.02
-1.81
-1.73
-1.73
-1.78
-1.93
-2.21
-2.64
-3.20
-3.87
-4.60
-5.37
-6.15
-6.89
-7.49
-7.88
-8.04
-8.00
-7.90
-7.87
-7.99
-8.28
-8.64
-8.93
-9.02
-8.84
-8.41
-7.84
-7.27
-6.81
-6.50
-6.27
-5.97
-5.45
-4.63
-3.59
-2.49
-1.52
-0.76
-0.10
0.64
1.64
2.93
4.39
5.78
6.94
7.83
8.60
9.41
10.39
11.53
12.62
13.42
13.68
13.28
12.22
10.60
8.53
6.11
3.41
0.47
-2.61
-5.69
-8.58
-11.09
-13.10
-14.59
-15.59
-16.09
-16.04
-15.26
-13.62
-11.10
-7.88
-4.37
-1.02
1.79
3.89
5.38
6.47
7.37
8.13
8.64
8.70
8.23
7.30
6.23
5.35
4.94
5.04
5.49
6.03
6.52
6.93
7.37
7.91
8.54
9.18
9.70
10.05
10.18
10.02
9.48
8.38
6.68
4.44
1.97
-0.39
-2.33
-3.75
-4.74
-5.50
-6.16
-6.76
-7.22
-7.43
-7.33
-6.93
-6.33
-5.66
-5.07
-4.66
-4.48
-4.57
-4.91
-5.47
-6.18
-6.94
-7.62
-8.10
-8.38
-8.51
-8.60
-8.71
-8.78
-8.68
-8.25
-7.41
-6.20
-4.74
-3.16
-1.49
0.27
2.13
4.04
5.85
7.38
8.51
9.17
9.33
8.99
8.10
6.62
4.60
2.16
-0.44
-2.93
-5.08
-6.81
-8.17
-9.27
-10.31
-11.41
-12.60
-13.81
-14.85
-15.45
-15.36
-14.47
-12.78
-10.47
-7.85
-5.20
-2.77
-0.72
0.93
2.27
3.41
4.44
5.36
6.08
6.44
6.39
6.02
5.54
5.23
5.22
5.52
5.97
6.40
6.73
7.01
7.35
7.80
8.30
8.70
8.81
8.56
7.97
7.17
6.26
5.32
4.38
3.39
2.29
1.03
-0.45
-2.19
-4.20
-6.47
-8.90
-11.34
-13.53
-15.14
-15.91
-15.70
-14.56
-12.78
-10.73
-8.76
-7.07
-5.69
-4.49
-3.31
-2.06
-0.78
0.43
1.39
2.03
2.37
2.53
2.67
2.92
3.32
3.81
4.30
4.69
4.95
5.06
5.03
4.81
4.36
3.64
2.73
1.81
1.09
0.74
0.80
1.17
1.65
2.03
2.15
1.91
1.28
0.31
-0.90
-2.23
-3.55
-4.74
-5.70
-6.34
-6.53
-6.21
-5.37
-4.07
-2.46
-0.69
1.10
2.86
4.57
6.21
7.70
8.96
9.90
10.50
10.78
10.79
10.57
10.18
9.66
9.12
8.66
8.38
8.33
8.45
8.62
8.65
8.38
7.70
6.63
5.29
3.86
2.55
1.51
0.80
0.39
0.19
0.04
-0.24
-0.85
-1.93
-3.51
-5.39
-7.30
-8.85
-9.78
-10.00
-9.57
-8.68
-7.53
-6.20
-4.75
-3.17
-1.46
0.36
2.27
4.24
6.21
8.08
9.71
10.94
11.71
12.02
12.01
11.85
11.69
11.61
11.56
11.41
11.01
10.22
9.06
7.62
6.09
4.62
3.28
2.04
0.82
-0.41
-1.69
-2.98
-4.27
-5.61
-7.06
-8.62
-10.24
-11.77
-13.06
-13.98
-14.46
-14.47
-13.95
-12.88
-11.21
-9.05
-6.56
-3.90
-1.24
1.37
3.88
6.27
8.40
10.21
11.60
12.61
13.32
13.81
14.12
14.20
13.96
13.36
12.47
11.44
10.45
9.65
9.05
8.57
8.06
7.36
6.42
5.29
4.10
2.96
1.94
1.00
0.01
-1.17
-2.67
-4.50
-6.55
-8.60
-10.38
-11.67
-12.30
-12.26
-11.66
-10.65
-9.37
-7.86
-6.09
-4.00
-1.65
0.83
3.25
5.48
7.46
9.21
10.75
12.04
12.97
13.42
13.37
12.92
12.31
11.79
11.53
11.51
11.59
11.57
11.27
10.58
9.54
8.21
6.66
5.00
3.30
1.62
0.03
-1.46
-2.87
-4.27
-5.76
-7.45
-9.37
-11.50
-13.73
-15.84
-17.58
-18.66
-18.87
-18.09
-16.41
-14.01
-11.16
-8.12
-5.08
-2.14
0.66
3.28
5.67
7.75
9.46
10.72
11.54
11.97
12.10
12.03
11.83
11.51
11.03
10.35
9.50
8.58
7.73
7.09
6.68
6.41
6.07
5.48
4.55
3.28
1.84
0.41
-0.83
-1.82
-2.60
-3.28
-4.01
-4.87
-5.92
-7.19
-8.70
-10.47
-12.48
-14.63
-16.71
-18.43
-19.49
-19.64
-18.84
-17.19
-14.96
-12.43
-9.86
-7.41
-5.11
-2.95
-0.90
1.04
2.81
4.32
5.50
6.28
6.67
6.73
6.54
6.16
5.62
4.91
4.06
3.13
2.22
1.48
1.00
0.83
0.88
1.02
1.04
0.79
0.22
-0.63
-1.57
-2.41
-3.01
-3.36
-3.57
-3.83
-4.29
-5.01
-5.88
-6.75
-7.47
-7.96
-8.19
-8.16
-7.80
-7.03
-5.76
-4.03
-1.96
0.26
2.46
4.55
6.51
8.29
9.81
10.96
11.70
12.05
12.18
12.25
12.35
12.42
12.31
11.87
11.07
10.04
9.00
8.17
7.62
7.33
7.14
6.89
6.45
5.78
4.91
3.87
2.76
1.65
0.61
-0.31
-1.10
-1.78
-2.43
-3.13
-3.93
-4.90
-6.05
-7.35
-8.71
-10.01
-11.05
-11.65
-11.68
-11.10
-10.01
-8.58
-7.02
-5.50
-4.12
-2.87
-1.67
-0.48
0.74
1.89
2.87
3.59
4.02
4.23
4.32
4.38
4.40
4.37
4.20
3.89
3.48
3.02
2.54
2.01
1.40
0.72
0.03
-0.57
-1.04
-1.37
-1.58
-1.71
-1.81
-1.91
-2.11
-2.52
-3.27
-4.40
-5.87
-7.44
-8.81
-9.68
-9.85
-9.26
-8.02
-6.32
-4.39
-2.44
-0.63
0.96
2.27
3.32
4.16
4.86
5.46
5.98
6.34
6.43
6.19
5.62
4.85
4.06
3.36
2.76
2.20
1.64
1.08
0.66
0.54
0.82
1.44
2.23
2.96
3.48
3.74
3.78
3.64
3.27
2.64
1.68
0.42
-1.01
-2.48
-3.87
-5.15
-6.34
-7.51
-8.67
-9.70
-10.45
-10.73
-10.45
-9.65
-8.46
-7.02
-5.42
-3.70
-1.84
0.11
2.02
3.73
5.07
6.00
6.61
7.06
7.45
7.83
8.12
8.24
8.16
7.99
7.86
7.90
8.14
8.45
8.67
8.64
8.28
7.64
6.80
5.87
4.87
3.79
2.61
1.30
-0.07
-1.44
-2.71
-3.92
-5.12
-6.44
-7.91
-9.47
-10.93
-12.10
-12.85
-13.15
-13.05
-12.62
-11.92
-10.94
-9.69
-8.16
-6.42
-4.53
-2.57
-0.65
1.10
2.53
3.55
4.12
4.36
4.48
4.68
5.06
5.60
6.19
6.69
7.00
7.11
7.04
6.81
6.41
5.78
4.86
3.63
2.19
0.72
-0.60
-1.63
-2.34
-2.86
-3.39
-4.12
-5.17
-6.53
-8.16
-9.93
-11.75
-13.46
-14.85
-15.63
-15.56
-14.57
-12.88
-10.89
-9.02
-7.54
-6.39
-5.32
-4.04
-2.46
-0.75
0.77
1.80
2.22
2.14
1.83
1.56
1.51
1.70
2.05
2.45
2.79
3.04
3.21
3.37
3.61
3.97
4.43
4.87
5.11
5.02
4.52
3.62
2.43
1.08
-0.32
-1.63
-2.79
-3.77
-4.54
-5.10
-5.43
-5.51
-5.34
-4.95
-4.44
-3.91
-3.42
-2.95
-2.32
-1.33
0.20
2.25
4.59
6.80
8.46
9.31
9.34
8.76
7.90
7.06
6.35
5.75
5.19
4.62
4.10
3.77
3.70
3.81
3.93
3.82
3.32
2.42
1.25
0.01
-1.21
-2.34
-3.45
-4.61
-5.91
-7.41
-9.13
-11.02
-12.94
-14.65
-15.85
-16.31
-15.92
-14.82
-13.25
-11.55
-9.94
-8.51
-7.20
-5.87
-4.40
-2.71
-0.83
1.14
3.06
4.80
6.26
7.37
8.12
8.54
8.70
8.69
8.60
8.53
8.49
8.45
8.34
8.06
7.55
6.76
5.73
4.50
3.11
1.59
-0.04
-1.77
-3.54
-5.25
-6.83
-8.21
-9.36
-10.27
-10.99
-11.50
-11.82
-11.97
-11.96
-11.85
-11.68
-11.40
-10.92
-10.08
-8.73
-6.80
-4.38
-1.68
1.00
3.41
5.42
7.04
8.35
9.41
10.20
10.62
10.60
10.13
9.29
8.23
7.06
5.86
4.66
3.49
2.48
1.74
1.34
1.24
1.27
1.26
1.10
0.82
0.47
0.12
-0.31
-0.93
-1.90
-3.21
-4.71
-6.15
-7.26
-7.89
-7.96
-7.50
-6.54
-5.06
-3.04
-0.55
2.27
5.13
7.73
9.84
11.38
12.45
13.26
14.03
14.90
15.86
16.77
17.44
17.70
17.50
16.87
16.00
15.04
14.15
13.36
12.65
11.90
11.03
9.96
8.66
7.14
5.46
3.64
1.73
-0.23
-2.22
-4.18
-6.07
-7.82
-9.34
-10.59
-11.49
-11.97
-11.99
-11.57
-10.78
-9.70
-8.44
-7.06
-5.59
-4.04
-2.43
-0.83
0.64
1.88
2.82
3.51
4.06
4.67
5.49
6.56
7.79
8.94
9.73
9.97
9.67
8.99
8.17
7.38
6.66
5.96
5.24
4.55
4.01
3.72
3.71
3.84
3.90
3.70
3.17
2.40
1.54
0.71
-0.08
-0.95
-2.03
-3.43
-5.08
-6.82
-8.33
-9.32
-9.56
-9.00
-7.77
-6.10
-4.31
-2.62
-1.19
-0.10
0.64
1.03
1.08
0.80
0.30
-0.35
-1.05
-1.77
-2.51
-3.26
-3.96
-4.47
-4.62
-4.33
-3.60
-2.57
-1.46
-0.47
0.27
0.71
0.85
0.73
0.41
-0.07
-0.62
-1.17
-1.70
-2.24
-2.87
-3.70
-4.80
-6.15
-7.63
-9.04
-10.20
-10.99
-11.39
-11.45
-11.22
-10.74
-9.96
-8.82
-7.29
-5.33
-3.01
-0.45
2.16
4.58
6.62
8.19
9.31
10.14
10.84
11.52
12.14
12.60
12.79
12.72
12.53
12.38
12.38
12.47
12.49
12.25
11.60
10.52
9.05
7.26
5.26
3.17
1.18
-0.60
-2.15
-3.57
-5.14
-7.11
-9.58
-12.40
-15.18
-17.43
-18.79
-19.09
-18.43
-17.09
-15.35
-13.42
-11.39
-9.29
-7.13
-4.99
-2.95
-1.13
0.42
1.66
2.65
3.41
3.99
4.39
4.59
4.57
4.33
3.92
3.45
3.07
2.89
2.92
3.07
3.17
3.07
2.75
2.30
1.84
1.44
1.06
0.57
-0.13
-1.04
-2.01
-2.93
-3.70
-4.40
-5.21
-6.23
-7.42
-8.57
-9.38
-9.69
-9.49
-9.03
-8.54
-8.16
-7.85
-7.40
-6.64
-5.51
-4.14
-2.77
-1.65
-0.89
-0.49
-0.30
-0.20
-0.09
0.00
0.06
0.06
-0.01
-0.10
-0.19
-0.25
-0.34
-0.51
-0.79
-1.19
-1.66
-2.14
-2.58
-2.99
-3.37
-3.76
-4.14
-4.50
-4.81
-5.10
-5.37
-5.66
-6.00
-6.38
-6.77
-7.15
-7.45
-7.61
-7.55
-7.25
-6.70
-5.96
-5.06
-4.00
-2.77
-1.30
0.40
2.24
4.05
5.63
6.85
7.63
8.00
8.07
7.92
7.66
7.38
7.18
7.12
7.23
7.43
7.64
7.71
7.54
7.10
6.44
5.66
4.90
4.25
3.71
3.25
2.75
2.15
1.38
0.43
-0.68
-1.98
-3.46
-5.04
-6.57
-7.84
-8.59
-8.67
-8.08
-6.97
-5.52
-3.92
-2.26
-0.59
1.01
2.45
3.61
4.46
5.04
5.51
5.99
6.52
7.02
7.33
7.36
7.17
6.94
6.84
6.98
7.24
7.40
7.24
6.69
5.84
4.86
3.96
3.23
2.64
2.09
1.43
0.53
-0.71
-2.35
-4.36
-6.57
-8.74
-10.54
-11.75
-12.28
-12.24
-11.81
-11.16
-10.32
-9.19
-7.63
-5.55
-3.02
-0.29
2.32
4.49
6.04
6.98
7.46
7.65
7.72
7.75
7.73
7.69
7.63
7.55
7.45
7.28
6.95
6.40
5.63
4.72
3.80
2.96
2.21
1.46
0.57
-0.54
-1.84
-3.20
-4.47
-5.59
-6.60
-7.66
-8.91
-10.38
-11.95
-13.35
-14.29
-14.56
-14.07
-12.92
-11.29
-9.34
-7.19
-4.82
-2.17
0.79
3.93
6.99
9.63
11.58
12.76
13.31
13.49
13.56
13.60
13.60
13.47
13.15
12.67
12.12
11.58
11.12
10.71
10.31
9.87
9.33
8.64
7.78
6.75
5.63
4.53
3.55
2.71
1.94
1.12
0.13
-1.09
-2.53
-4.13
-5.89
-7.81
-9.85
-11.89
-13.69
-14.96
-15.53
-15.36
-14.59
-13.42
-11.99
-10.35
-8.43
-6.17
-3.52
-0.59
2.44
5.37
7.98
10.15
11.79
12.87
13.44
13.56
13.32
12.81
12.11
11.33
10.56
9.86
9.25
8.67
8.03
7.16
5.94
4.33
2.39
0.28
-1.78
-3.62
-5.13
-6.33
-7.31
-8.20
-9.09
-10.05
-11.08
-12.17
-13.27
-14.35
-15.39
-16.40
-17.36
-18.24
-18.91
-19.23
-19.05
-18.30
-17.05
-15.38
-13.44
-11.28
-8.90
-6.28
-3.47
-0.59
2.15
4.60
6.68
8.44
9.99
11.37
12.53
13.29
13.48
13.00
11.97
10.61
9.21
7.99
7.01
6.21
5.51
4.89
4.37
4.04
3.90
3.85
3.74
3.40
2.77
1.93
1.05
0.31
-0.21
-0.58
-0.97
-1.53
-2.39
-3.56
-4.98
-6.53
-8.09
-9.54
-10.74
-11.54
-11.80
-11.42
-10.40
-8.84
-6.91
-4.78
-2.58
-0.37
1.82
3.95
5.92
7.64
8.99
9.98
10.65
11.15
11.58
12.02
12.41
12.66
12.67
12.42
11.96
11.42
10.91
10.48
10.11
9.67
9.09
8.28
7.21
5.90
4.42
2.87
1.39
0.12
-0.89
-1.68
-2.39
-3.16
-4.14
-5.37
-6.77
-8.25
-9.65
-10.86
-11.78
-12.32
-12.43
-12.06
-11.19
-9.85
-8.12
-6.06
-3.79
-1.42
0.92
3.14
5.15
6.97
8.67
10.29
11.86
13.32
14.52
15.34
15.70
15.62
15.18
14.46
13.52
12.37
11.05
9.69
8.47
7.55
7.02
6.81
6.73
6.59
6.23
5.59
4.66
3.49
2.10
0.54
-1.11
-2.72
-4.21
-5.58
-6.98
-8.60
-10.57
-12.87
-15.23
-17.26
-18.61
-19.05
-18.53
-17.18
-15.14
-12.55
-9.49
-6.09
-2.53
0.92
4.05
6.69
8.76
10.26
11.23
11.70
11.78
11.59
11.25
10.88
10.46
9.95
9.29
8.48
7.64
6.94
6.50
6.34
6.34
6.26
5.90
5.13
3.96
2.55
1.11
-0.20
-1.27
-2.14
-2.93
-3.80
-4.85
-6.07
-7.36
-8.59
-9.73
-10.82
-11.91
-13.02
-14.04
-14.75
-14.93
-14.42
-13.20
-11.37
-9.10
-6.56
-3.91
-1.27
1.24
3.54
5.51
7.14
8.46
9.51
10.39
11.14
11.78
12.24
12.46
12.35
11.91
11.18
10.29
9.39
8.60
7.97
7.44
6.90
6.23
5.37
4.34
3.23
2.10
1.00
-0.10
-1.26
-2.48
-3.74
-4.98
-6.17
-7.34
-8.56
-9.93
-11.42
-12.86
-14.03
-14.71
-14.85
-14.48
-13.74
-12.74
-11.51
-10.01
-8.25
-6.26
-4.20
-2.26
-0.57
0.82
1.99
3.01
3.96
4.86
5.67
6.32
6.73
6.86
6.75
6.46
6.11
5.80
5.57
5.38
5.16
4.85
4.44
3.98
3.55
3.17
2.84
2.49
2.05
1.50
0.85
0.09
-0.76
-1.74
-2.85
-4.04
-5.22
-6.31
-7.22
-7.94
-8.48
-8.85
-8.97
-8.71
-7.95
-6.60
-4.67
-2.28
0.41
3.24
6.02
8.62
10.94
12.93
14.59
16.01
17.26
18.37
19.29
19.89
20.04
19.68
18.84
17.64
16.13
14.31
12.13
9.57
6.77
4.01
1.61
-0.24
-1.57
-2.62
-3.68
-4.99
-6.58
-8.38
-10.26
-12.09
-13.83
-15.44
-16.88
-18.12
-19.11
-19.83
-20.28
-20.44
-20.28
-19.79
-18.99
-17.92
-16.69
-15.37
-14.03
-12.66
-11.28
-9.88
-8.52
-7.19
-5.91
-4.61
-3.19
-1.57
0.23
2.07
3.75
5.02
5.77
5.96
5.72
5.26
4.76
4.29
3.89
3.51
3.08
2.55
1.86
1.00
0.01
-1.02
-1.92
-2.58
-2.95
-3.09
-3.13
-3.24
-3.57
-4.16
-5.03
-6.09
-7.23
-8.27
-9.02
-9.37
-9.27
-8.81
-8.13
-7.34
-6.45
-5.39
-4.04
-2.40
-0.62
1.07
2.40
3.25
3.60
3.63
3.56
3.61
3.92
4.50
5.28
6.12
6.90
7.52
7.94
8.16
8.19
8.01
7.66
7.13
6.51
5.88
5.36
4.95
4.56
4.03
3.26
2.24
1.09
-0.02
-1.00
-1.88
-2.86
-4.10
-5.69
-7.47
-9.16
-10.42
-11.04
-10.95
-10.24
-9.03
-7.44
-5.57
-3.54
-1.51
0.33
1.84
2.98
3.82
4.48
5.12
5.82
6.59
7.34
7.94
8.32
8.45
8.41
8.34
8.41
8.68
9.13
9.55
9.73
9.47
8.77
7.82
6.88
6.18
5.82
5.73
5.71
5.58
5.30
4.90
4.45
4.00
3.50
2.93
2.32
1.76
1.45
1.51
2.02
2.98
4.37
6.20
8.47
11.16
14.18
17.37
20.59
23.70
26.63
29.29
31.63
33.55
34.92
35.59
35.41
34.14
31.57
27.51
21.94
15.03
7.17
-1.17
-9.49
-17.39
-24.56
-30.77
-35.84
-39.65
-42.21
-43.66
-44.25
-44.31
-44.09
-43.69
-43.13
-42.38
-41.45
-40.44
-39.52
-38.85
-38.47
-38.28
-38.01
-37.41
-36.22
-34.32
-31.66
-28.31
-24.40
-20.11
-15.65
-11.19
-6.91
-2.95
0.61
3.68
6.21
8.18
9.65
10.72
11.52
12.17
12.72
13.11
13.29
13.23
13.03
12.91
13.08
13.64
14.50
15.39
15.98
16.02
15.42
14.27
12.74
11.02
9.22
7.39
5.53
3.62
1.63
-0.44
-2.57
-4.77
-6.97
-9.06
-10.86
-12.19
-12.93
-13.03
-12.56
-11.66
-10.42
-8.90
-7.08
-4.95
-2.56
-0.05
2.44
4.75
6.81
8.55
9.96
11.02
11.73
12.19
12.59
13.20
14.21
15.70
17.59
19.67
21.71
23.56
25.15
26.46
27.45
28.12
28.44
28.40
28.02
27.34
26.44
25.38
24.28
23.28
22.46
21.82
21.22
20.42
19.23
17.56
15.52
13.34
11.30
9.60
8.30
7.35
6.62
6.05
5.68
5.63
6.03
6.89
8.07
9.32
10.33
10.89
10.96
10.68
10.25
9.88
9.65
9.55
9.45
9.18
8.57
7.54
6.07
4.25
2.17
-0.13
-2.69
-5.59
-8.87
-12.47
-16.17
-19.76
-23.11
-26.27
-29.40
-32.64
-35.94
-39.08
-41.74
-43.68
-44.91
-45.60
-46.03
-46.37
-46.61
-46.57
-46.01
-44.77
-42.80
-40.21
-37.15
-33.82
-30.29
-26.59
-22.66
-18.43
-13.96
-9.38
-4.97
-0.99
2.37
5.13
7.37
9.25
10.85
12.14
13.06
13.58
13.80
13.85
13.89
13.98
14.04
13.96
13.59
12.89
11.90
10.72
9.50
8.34
7.32
6.45
5.68
4.92
4.09
3.12
2.03
0.86
-0.30
-1.47
-2.67
-3.94
-5.33
-6.70
-7.87
-8.60
-8.68
-8.05
-6.78
-5.05
-3.10
-1.11
0.78
2.53
4.12
5.57
6.82
7.79
8.39
8.59
8.41
7.90
7.16
6.28
5.35
4.48
3.81
3.50
3.58
4.02
4.62
5.17
5.48
5.55
5.44
5.31
5.24
5.19
5.02
4.56
3.68
2.36
0.68
-1.19
-3.07
-4.84
-6.50
-8.16
-10.01
-12.22
-14.81
-17.60
-20.23
-22.33
-23.60
-23.98
-23.56
-22.52
-21.05
-19.26
-17.22
-14.95
-12.53
-10.03
-7.57
-5.24
-3.14
-1.30
0.30
1.72
3.09
4.53
6.11
7.79
9.40
10.67
11.41
11.52
11.07
10.24
9.26
8.29
7.40
6.55
5.64
4.62
3.47
2.24
1.03
-0.12
-1.23
-2.38
-3.68
-5.23
-7.04
-9.05
-11.15
-13.20
-15.10
-16.81
-18.33
-19.67
-20.79
-21.60
-21.97
-21.82
-21.08
-19.78
-18.05
-16.03
-13.91
-11.88
-10.07
-8.53
-7.23
-6.09
-5.05
-4.11
-3.34
-2.81
-2.56
-2.53
-2.59
-2.55
-2.26
-1.64
-0.73
0.37
1.50
2.58
3.58
4.58
5.65
6.84
8.07
9.15
9.87
10.15
10.04
9.75
9.49
9.35
9.25
9.02
8.50
7.61
6.40
4.99
3.49
1.98
0.53
-0.77
-1.76
-2.26
-2.16
-1.44
-0.21
1.39
3.21
5.19
7.33
9.61
11.99
14.38
16.64
18.61
20.20
21.35
22.06
22.35
22.27
21.92
21.44
20.96
20.63
20.50
20.53
20.59
20.48
19.99
19.03
17.68
16.11
14.57
13.21
12.03
10.90
9.65
8.21
6.63
5.04
3.54
2.13
0.70
-0.87
-2.66
-4.66
-6.80
-9.04
-11.38
-13.75
-15.97
-17.72
-18.67
-18.64
-17.62
-15.87
-13.70
-11.38
-9.05
-6.68
-4.23
-1.72
0.77
3.09
5.11
6.76
8.03
8.93
9.49
9.75
9.71
9.42
8.92
8.26
7.49
6.70
5.95
5.30
4.75
4.23
3.61
2.74
1.52
-0.03
-1.81
-3.66
-5.46
-7.20
-9.00
-10.99
-13.28
-15.87
-18.62
-21.38
-24.00
-26.43
-28.75
-31.07
-33.49
-36.00
-38.46
-40.63
-42.32
-43.45
-44.02
-44.16
-43.94
-43.36
-42.40
-41.07
-39.45
-37.77
-36.28
-35.17
-34.51
-34.24
-34.30
-34.66
-35.30
-36.17
-37.07
-37.68
-37.54
-36.17
-33.23
-28.58
-22.32
-14.74
-6.22
2.85
12.19
21.56
30.79
39.61
47.71
54.68
60.17
63.99
66.08
66.62
65.81
63.88
61.01
57.37
53.16
48.59
43.88
39.27
34.89
30.87
27.25
24.11
21.46
19.30
17.60
16.32
15.45
15.02
15.08
15.65
16.67
17.95
19.25
20.28
20.88
20.98
20.64
19.99
19.17
18.35
17.66
17.19
16.92
16.76
16.54
16.15
15.49
14.59
13.52
12.36
11.21
10.13
9.14
8.24
7.33
6.32
5.11
3.70
2.16
0.67
-0.68
-1.86
-2.99
-4.23
-5.73
-7.50
-9.52
-11.64
-13.75
-15.71
-17.38
-18.64
-19.36
-19.52
-19.05
-17.98
-16.27
-13.92
-10.98
-7.61
-4.10
-0.77
2.09
4.37
6.11
7.46
8.57
9.52
10.30
10.87
11.18
11.25
11.10
10.79
10.35
9.80
9.16
8.47
7.75
7.03
6.33
5.61
4.80
3.84
2.70
1.38
-0.06
-1.56
-3.07
-4.56
-6.02
-7.49
-8.97
-10.51
-12.12
-13.86
-15.72
-17.66
-19.55
-21.16
-22.24
-22.56
-21.98
-20.55
-18.43
-15.87
-13.10
-10.29
-7.49
-4.71
-1.91
0.88
3.61
6.15
8.37
10.21
11.66
12.77
13.64
14.35
14.86
15.11
14.99
14.46
13.58
12.53
11.49
10.62
9.95
9.40
8.80
8.02
6.97
5.70
4.29
2.88
1.56
0.34
-0.80
-1.98
-3.28
-4.77
-6.48
-8.37
-10.41
-12.55
-14.76
-17.02
-19.24
-21.29
-22.97
-24.07
-24.40
-23.86
-22.39
-20.07
-17.01
-13.42
-9.55
-5.62
-1.89
1.45
4.31
6.64
8.47
9.82
10.72
11.21
11.33
11.19
10.86
10.44
10.00
9.60
9.30
9.12
9.02
8.88
8.56
7.94
7.02
5.90
4.77
3.82
3.08
2.47
1.82
0.99
-0.09
-1.38
-2.81
-4.33
-5.96
-7.82
-9.95
-12.32
-14.77
-17.00
-18.63
-19.37
-19.00
-17.53
-15.17
-12.21
-8.96
-5.66
-2.41
0.73
3.70
6.43
8.82
10.79
12.36
13.59
14.51
15.13
15.41
15.33
15.00
14.62
14.37
14.33
14.41
14.40
14.10
13.44
12.50
11.42
10.32
9.21
8.03
6.71
5.25
3.67
2.04
0.33
-1.48
-3.39
-5.41
-7.45
-9.47
-11.50
-13.54
-15.59
-17.56
-19.27
-20.51
-21.11
-21.00
-20.13
-18.51
-16.12
-13.03
-9.38
-5.40
-1.38
2.48
6.03
9.28
12.19
14.71
16.73
18.13
18.93
19.21
19.17
18.95
18.61
18.12
17.43
16.55
15.59
14.66
13.80
12.96
11.98
10.71
9.07
7.15
5.12
3.19
1.48
-0.02
-1.40
-2.77
-4.19
-5.64
-7.13
-8.63
-10.21
-11.93
-13.84
-15.93
-18.10
-20.17
-21.87
-22.91
-23.07
-22.23
-20.44
-17.86
-14.74
-11.28
-7.62
-3.81
0.04
3.83
7.38
10.54
13.20
15.33
16.94
18.04
18.60
18.61
18.14
17.33
16.42
15.62
15.03
14.63
14.32
13.93
13.36
12.53
11.47
10.22
8.85
7.44
6.03
4.65
3.27
1.87
0.41
-1.12
-2.72
-4.41
-6.22
-8.19
-10.33
-12.59
-14.89
-17.15
-19.31
-21.32
-23.19
-24.81
-26.03
-26.61
-26.30
-24.94
-22.56
-19.37
-15.67
-11.78
-7.89
-4.11
-0.44
3.08
6.33
9.09
11.17
12.50
13.17
13.44
13.58
13.80
14.12
14.41
14.51
14.29
13.72
12.86
11.80
10.66
9.48
8.28
7.04
5.74
4.32
2.77
1.13
-0.50
-1.98
-3.24
-4.24
-5.09
-5.94
-6.93
-8.16
-9.64
-11.35
-13.23
-15.20
-17.19
-19.07
-20.70
-21.90
-22.52
-22.38
-21.36
-19.41
-16.56
-12.99
-8.94
-4.64
-0.32
3.88
7.83
11.36
14.29
16.42
17.67
18.15
18.13
17.96
17.90
18.02
18.25
18.36
18.22
17.74
16.99
16.01
14.89
13.67
12.36
10.95
9.46
7.88
6.18
4.33
2.31
0.14
-2.07
-4.25
-6.35
-8.39
-10.46
-12.69
-15.12
-17.69
-20.22
-22.41
-23.99
-24.71
-24.41
-23.11
-20.91
-18.03
-14.69
-11.14
-7.56
-4.03
-0.59
2.78
6.03
9.05
11.65
13.64
14.91
15.51
15.59
15.37
15.01
14.61
14.15
13.59
12.91
12.15
11.37
10.66
10.03
9.44
8.75
7.86
6.75
5.48
4.23
3.18
2.37
1.75
1.19
0.56
-0.17
-0.93
-1.63
-2.28
-3.02
-4.08
-5.71
-7.99
-10.87
-14.02
-17.04
-19.52
-21.17
-21.84
-21.53
-20.38
-18.55
-16.31
-13.86
-11.38
-8.92
-6.46
-3.90
-1.16
1.74
4.69
7.51
10.05
12.23
14.04
15.45
16.44
16.93
16.91
16.47
15.80
15.09
14.43
13.78
13.00
11.95
10.63
9.14
7.69
6.44
5.45
4.70
4.08
3.49
2.85
2.11
1.23
0.18
-1.05
-2.44
-3.95
-5.48
-6.94
-8.28
-9.51
-10.63
-11.67
-12.55
-13.14
-13.20
-12.54
-11.01
-8.59
-5.40
-1.61
2.58
7.01
11.63
16.45
21.46
26.65
32.05
37.70
43.77
50.58
58.54
67.95
78.89
91.03
103.67
115.88
126.78
135.80
142.76
147.81
151.27
153.41
154.42
154.47
153.83
152.99
152.62
153.28
155.26
158.30
161.58
163.84
163.52
159.13
149.58
134.47
114.45
91.19
67.34
46.23
31.32
25.42
29.79
43.22
61.84
79.67
90.12
87.96
70.85
39.82
-1.47
-48.44
-97.32
-146.11
-194.47
-243.15
-293.35
-346.33
-403.17
-464.03
-527.12
-587.70
-638.32
-670.74
-678.81
-661.05
-621.43
-567.80
-508.59
-449.92
-394.10
-340.45
-287.16
-233.03
-177.93
-121.96
-64.66
-4.91
57.68
121.36
181.67
232.54
268.86
288.85
295.18
293.75
291.13
291.67
295.94
300.99
302.21
295.53
278.92
252.62
218.64
179.93
139.80
101.53
68.01
41.18
21.79
9.23
2.06
-1.30
-2.03
-0.69
2.45
7.05
12.46
17.89
22.71
26.70
30.00
32.79
34.96
35.93
34.84
30.89
23.81
14.34
4.40
-2.97
-4.40
2.84
19.72
44.58
73.02
98.78
115.54
118.95
108.25
86.56
59.52
32.95
10.53
-7.25
-22.25
-36.77
-51.54
-65.13
-74.83
-78.61
-76.55
-70.97
-65.11
-61.32
-59.98
-59.62
-58.18
-54.37
-48.43
-41.85
-36.46
-33.38
-32.59
-33.03
-33.20
-31.93
-28.89
-24.64
-20.25
-16.78
-14.78
-14.15
-14.22
-14.14
-13.29
-11.55
-9.22
-6.89
-5.09
-4.07
-3.74
-3.74
-3.70
-3.33
-2.58
-1.61
-0.66
0.09
0.55
0.77
0.85
0.94
1.08
1.29
1.51
1.68
1.76
1.77
1.73
1.68
1.64
1.62
1.62
1.62
1.62
1.61
1.61
1.60
1.59
1.58
1.57
1.57
1.56
1.56
1.55
1.54
1.54
1.53
1.53
1.52
1.51
1.51
1.50
1.49
1.49
1.48
1.48
1.47
1.47
1.46
1.45
1.45
1.44
1.44
1.43
1.42
1.42
1.41
1.41
1.40
1.40
1.39
1.39
1.38
1.37
1.37
1.36
1.36
1.35
1.35
1.34
1.34
1.33
1.33
1.32
1.32
1.31
1.31
1.30
1.30
1.29
1.28
1.28
1.27
1.27
1.26
1.26
1.25
1.25
1.24
1.24
1.23
1.23
1.23
1.22
1.21
1.21
1.21
1.20
1.20
1.19
1.19
1.18
1.18
1.17
1.17
1.17
1.16
1.16
1.15
1.15
1.14
1.14
1.13
1.13
1.12
1.12
1.11
1.11
1.11
1.10
1.10
1.09
1.09
1.08
1.08
1.08
1.07
1.07
1.06
1.06
1.05
1.05
1.05
1.04
1.04
1.03
1.03
1.03
1.02
1.02
1.01
1.01
1.00
1.00
1.00
0.99
0.99
0.99
0.98
0.98
0.97
0.97
0.97
0.96
0.96
0.96
0.96
0.95
0.95
0.95
0.94
0.92
0.90
0.87
0.84
0.82
0.81
0.82
0.87
0.95
1.06
1.18
1.30
1.39
1.47
1.52
1.57
1.62
1.69
1.77
1.85
1.93
2.00
2.05
2.09
2.16
2.26
2.40
2.57
2.73
2.85
2.92
2.96
3.01
3.14
3.41
3.84
4.40
4.99
5.52
5.93
6.22
6.49
6.87
7.51
8.46
9.69
11.02
12.26
13.25
13.95
14.48
15.07
15.96
17.28
18.99
20.86
22.56
23.82
24.56
24.99
25.65
27.30
30.63
35.98
42.99
50.50
56.66
59.26
56.39
46.88
30.84
9.65
-14.26
-37.98
-58.80
-74.78
-85.12
-90.17
-91.19
-89.84
-87.72
-85.94
-84.96
-84.64
-84.40
-83.60
-81.67
-78.28
-73.31
-66.77
-58.81
-49.62
-39.57
-29.16
-18.97
-9.59
-1.45
5.21
10.31
13.76
15.45
15.20
12.94
8.83
3.40
-2.59
-8.36
-13.42
-17.69
-21.44
-25.09
-28.91
-32.92
-36.94
-40.71
-44.10
-47.09
-49.71
-51.99
-53.85
-55.18
-55.91
-55.99
-55.42
-54.19
-52.28
-49.68
-46.37
-42.39
-37.71
-32.19
-25.51
-17.29
-7.24
4.50
17.31
30.14
41.76
51.25
58.27
63.18
66.84
70.28
74.28
79.21
85.00
91.39
98.21
105.55
113.81
123.53
135.16
148.88
164.38
180.93
197.39
212.54
225.24
234.79
241.19
245.30
248.76
253.42
260.44
269.48
278.30
283.37
281.13
269.50
248.82
221.64
191.59
161.82
133.85
107.38
80.96
52.96
22.13
-12.25
-50.43
-91.90
-134.85
-175.83
-210.28
-233.94
-244.72
-243.81
-235.52
-225.43
-218.14
-215.58
-216.81
-219.22
-220.23
-218.43
-213.66
-206.37
-196.91
-185.28
-171.53
-156.27
-140.83
-126.99
-116.28
-109.46
-106.23
-105.53
-106.01
-106.53
-106.44
-105.56
-104.05
-102.13
-99.96
-97.58
-94.83
-91.48
-87.25
-81.90
-75.29
-67.47
-58.70
-49.35
-39.76
-30.15
-20.61
-11.35
-2.87
3.96
8.25
9.51
8.16
5.58
3.77
4.66
9.33
17.72
28.63
40.29
50.98
59.53
65.49
68.93
70.18
69.54
67.26
63.56
58.73
53.21
47.50
42.00
36.98
32.54
28.70
25.46
22.85
20.89
19.65
19.23
19.85
21.76
25.24
30.43
37.28
45.43
54.20
62.46
68.69
71.31
69.12
61.95
50.82
37.82
25.32
15.14
7.96
3.26
-0.14
-3.43
-7.33
-11.98
-17.16
-22.48
-27.62
-32.27
-36.15
-38.99
-40.60
-40.97
-40.31
-39.10
-37.99
-37.69
-38.89
-41.96
-46.87
-53.13
-59.87
-66.15
-71.12
-74.25
-75.18
-73.66
-69.35
-61.85
-50.85
-36.40
-19.11
-0.24
18.56
35.62
49.69
60.20
67.35
71.83
74.39
75.47
74.98
72.38
67.04
58.61
47.31
33.91
19.49
5.09
-8.68
-21.74
-34.35
-46.76
-58.74
-69.50
-77.76
-82.26
-82.39
-78.67
-72.65
-66.60
-62.66
-62.14
-65.20
-70.79
-76.96
-81.10
-80.62
-73.84
-61.11
-45.31
-31.33
-24.30
-27.13
-38.66
-53.43
-63.52
-61.68
-44.21
-12.23
29.15
72.83
112.11
141.94
159.32
163.01
153.43
132.60
104.12
72.57
42.41
17.07
-1.96
-15.03
-23.53
-28.80
-31.44
-31.19
-27.35
-19.38
-7.10
9.09
28.40
49.64
71.31
91.58
108.59
120.89
127.79
129.58
127.22
121.89
114.59
105.85
95.94
85.08
73.68
62.44
52.26
44.02
38.39
35.62
35.42
36.88
38.67
39.33
37.71
33.27
26.14
17.07
7.17
-2.32
-10.13
-15.15
-16.42
-13.28
-5.44
6.80
22.56
40.41
58.62
75.57
89.97
101.16
108.90
113.19
114.00
111.15
104.44
93.91
80.02
63.63
45.97
28.33
11.99
-1.95
-12.70
-19.96
-24.06
-25.91
-26.76
-27.75
-29.51
-32.07
-35.03
-37.90
-40.49
-42.90
-45.42
-48.21
-51.00
-53.16
-53.87
-52.48
-48.79
-43.06
-35.93
-28.12
-20.19
-12.45
-4.90
2.59
10.19
17.90
25.55
32.75
39.09
44.16
47.70
49.63
49.98
48.78
46.09
41.88
36.24
29.38
21.68
13.60
5.59
-2.05
-9.16
-15.67
-21.59
-26.99
-32.02
-36.93
-42.07
-47.70
-53.92
-60.53
-67.08
-73.01
-77.84
-81.30
-83.32
-83.92
-83.10
-80.77
-76.77
-71.09
-63.93
-55.80
-47.40
-39.50
-32.72
-27.44
-23.75
-21.59
-20.72
-20.87
-21.74
-23.04
-24.55
-26.12
-27.62
-28.91
-29.74
-29.77
-28.66
-26.15
-22.22
-17.10
-11.20
-4.97
1.20
7.02
12.25
16.60
19.78
21.56
21.97
21.30
20.11
19.00
18.41
18.44
18.98
19.78
20.67
21.66
22.80
24.09
25.34
26.13
25.96
24.44
21.43
17.08
11.78
6.03
0.31
-5.00
-9.59
-13.28
-15.87
-17.30
-17.55
-16.76
-15.11
-12.85
-10.18
-7.26
-4.20
-1.12
1.79
4.31
6.18
7.20
7.33
6.61
5.26
3.53
1.64
-0.33
-2.46
-4.97
-8.11
-12.13
-17.06
-22.77
-28.88
-34.84
-40.05
-43.94
-46.16
-46.60
-45.45
-43.13
-40.21
-37.19
-34.47
-32.25
-30.56
-29.33
-28.36
-27.35
-25.97
-23.88
-20.93
-17.15
-12.86
-8.48
-4.40
-0.82
2.25
5.00
7.58
10.12
12.59
14.96
17.19
19.33
21.44
23.57
25.64
27.46
28.68
29.00
28.20
26.29
23.46
20.00
16.27
12.48
8.82
5.36
2.20
-0.55
-2.82
-4.52
-5.69
-6.44
-6.91
-7.25
-7.59
-8.03
-8.68
-9.63
-11.02
-12.94
-15.39
-18.29
-21.37
-24.26
-26.50
-27.71
-27.64
-26.25
-23.70
-20.25
-16.18
-11.73
-7.09
-2.42
2.13
6.39
10.27
13.74
16.86
19.72
22.40
24.88
27.11
29.02
30.60
31.92
33.08
34.11
34.95
35.40
35.24
34.29
32.57
30.19
27.39
24.42
21.50
18.81
16.51
14.71
13.43
12.57
11.87
11.00
9.66
7.71
5.23
2.45
-0.34
-2.99
-5.44
-7.83
-10.34
-13.07
-16.02
-18.97
-21.55
-23.36
-24.08
-23.58
-21.99
-19.57
-16.63
-13.37
-9.86
-6.07
-2.02
2.14
6.19
9.84
12.91
15.41
17.47
19.24
20.77
21.96
22.60
22.49
21.59
20.09
18.30
16.63
15.39
14.71
14.50
14.57
14.65
14.52
14.06
13.33
12.57
12.14
12.50
14.00
16.76
20.54
24.65
28.10
29.85
29.12
25.66
19.82
12.41
4.39
-3.40
-10.37
-16.19
-20.68
-23.67
-25.03
-24.70
-22.82
-19.71
-15.75
-11.36
-6.80
-2.27
2.04
5.95
9.21
11.62
13.04
13.43
12.92
11.77
10.32
9.00
8.08
7.65
7.56
7.46
7.03
6.08
4.62
2.80
0.81
-1.17
-3.03
-4.69
-6.09
-7.19
-8.05
-8.77
-9.45
-10.11
-10.70
-11.11
-11.31
-11.38
-11.52
-11.95
-12.81
-14.10
-15.67
-17.26
-18.55
-19.22
-19.04
-17.93
-15.94
-13.24
-10.00
-6.36
-2.36
1.99
6.62
11.46
16.32
21.10
25.67
29.97
33.95
37.55
40.69
43.32
45.41
46.97
48.02
48.62
48.90
49.02
49.13
49.32
49.52
49.52
49.04
47.79
45.56
42.24
37.82
32.39
26.14
19.37
12.46
5.83
-0.15
-5.27
-9.46
-12.80
-15.46
-17.67
-19.66
-21.71
-24.01
-26.67
-29.57
-32.36
-34.58
-35.85
-36.00
-35.16
-33.65
-31.83
-29.94
-27.99
-25.90
-23.63
-21.28
-19.11
-17.44
-16.51
-16.37
-16.88
-17.74
-18.60
-19.12
-19.12
-18.57
-17.60
-16.44
-15.25
-14.09
-12.84
-11.33
-9.48
-7.38
-5.28
-3.50
-2.28
-1.65
-1.51
-1.68
-2.02
-2.51
-3.18
-4.08
-5.27
-6.74
-8.43
-10.23
-12.07
-13.84
-15.51
-17.10
-18.74
-20.59
-22.80
-25.47
-28.52
-31.79
-34.97
-37.75
-39.81
-40.93
-40.97
-39.88
-37.66
-34.30
-29.81
-24.20
-17.56
-10.06
-2.04
6.12
13.98
21.17
27.43
32.62
36.62
39.32
40.61
40.41
38.89
36.46
33.76
31.46
30.04
29.58
29.76
30.01
29.78
28.79
27.04
24.88
22.82
21.58
21.84
24.17
28.69
34.90
41.54
46.86
49.12
47.10
40.53
30.07
17.08
3.06
-10.72
-23.44
-34.69
-44.29
-52.11
-58.03
-61.99
-63.98
-64.16
-62.75
-59.94
-55.85
-50.46
-43.75
-35.84
-27.10
-18.16
-9.76
-2.53
3.18
7.38
10.38
12.57
14.36
16.01
17.66
19.41
21.27
23.19
25.07
26.74
27.97
28.58
28.36
27.20
24.99
21.72
17.49
12.59
7.51
2.91
-0.55
-2.39
-2.43
-0.82
1.97
5.38
8.81
11.80
14.03
15.20
15.10
13.52
10.37
5.77
0.14
-5.86
-11.42
-15.80
-18.50
-19.43
-18.78
-16.99
-14.55
-11.86
-9.19
-6.67
-4.38
-2.34
-0.60
0.78
1.72
2.19
2.20
1.87
1.39
0.99
0.87
1.15
1.86
3.01
4.49
6.15
7.78
9.05
9.62
9.20
7.62
4.89
1.23
-3.04
-7.54
-11.90
-15.83
-19.14
-21.71
-23.56
-24.79
-25.59
-26.25
-27.05
-28.27
-30.12
-32.69
-35.92
-39.66
-43.62
-47.35
-50.41
-52.32
-52.77
-51.69
-49.27
-45.91
-42.06
-38.05
-33.98
-29.80
-25.41
-20.76
-15.96
-11.20
-6.66
-2.46
1.37
4.86
8.04
10.91
13.39
15.43
17.01
18.25
19.37
20.66
22.39
24.70
27.56
30.79
34.11
37.32
40.23
42.68
44.47
45.27
44.70
42.42
38.32
32.54
25.50
17.70
9.65
1.76
-5.66
-12.38
-18.21
-22.99
-26.71
-29.43
-31.34
-32.54
-32.97
-32.36
-30.34
-26.63
-21.22
-14.47
-6.93
0.77
8.20
15.14
21.63
27.82
33.83
39.63
45.10
50.00
54.16
57.50
60.10
62.20
64.08
66.01
68.09
70.27
72.27
73.74
74.30
73.75
72.15
69.80
67.07
64.24
61.40
58.48
55.29
51.59
47.05
41.23
33.65
23.95
12.23
-0.80
-13.89
-25.59
-34.75
-40.98
-44.59
-46.43
-47.36
-47.91
-48.16
-47.86
-46.67
-44.30
-40.67
-35.89
-30.23
-24.00
-17.55
-11.20
-5.25
0.02
4.36
7.60
9.76
11.03
11.77
12.38
13.17
14.21
15.33
16.23
16.58
16.26
15.33
14.05
12.72
11.47
10.24
8.76
6.80
4.22
1.08
-2.38
-5.93
-9.46
-12.94
-16.41
-19.83
-23.12
-26.22
-29.15
-32.06
-35.12
-38.36
-41.49
-43.97
-45.14
-44.54
-42.09
-38.14
-33.31
-28.27
-23.52
-19.31
-15.71
-12.65
-10.12
-8.11
-6.63
-5.59
-4.82
-4.06
-3.05
-1.66
0.10
2.03
3.85
5.30
6.24
6.63
6.52
5.93
4.82
3.12
0.74
-2.25
-5.68
-9.30
-12.92
-16.44
-19.93
-23.49
-27.16
-30.88
-34.57
-38.15
-41.67
-45.21
-48.79
-52.25
-55.20
-57.15
-57.71
-56.66
-54.07
-50.19
-45.42
-40.11
-34.60
-29.13
-23.85
-18.86
-14.15
-9.73
-5.69
-2.17
0.58
2.34
3.03
2.74
1.82
0.69
-0.12
-0.16
0.91
3.22
6.65
10.77
14.90
18.24
20.12
20.10
18.08
14.22
8.77
1.92
-6.28
-15.88
-26.84
-38.88
-51.36
-63.33
-73.71
-81.61
-86.59
-88.72
-88.62
-87.06
-84.75
-82.17
-79.40
-76.21
-72.16
-66.79
-59.69
-50.63
-39.67
-27.11
-13.50
0.56
14.47
27.71
39.81
50.34
58.91
65.25
69.38
71.65
72.68
73.23
73.94
75.23
77.31
80.17
83.67
87.48
91.10
93.87
95.13
94.33
91.22
85.87
78.60
69.89
60.22
50.05
39.75
29.70
20.30
11.97
5.06
-0.17
-3.67
-5.60
-6.26
-6.07
-5.35
-4.29
-2.96
-1.38
0.39
2.21
3.91
5.36
6.56
7.58
8.50
9.32
9.88
9.97
9.40
8.14
6.28
4.01
1.45
-1.37
-4.51
-8.03
-11.90
-15.95
-19.99
-23.85
-27.55
-31.23
-35.16
-39.49
-44.23
-49.10
-53.63
-57.29
-59.61
-60.40
-59.71
-57.84
-55.19
-52.07
-48.62
-44.83
-40.66
-36.22
-31.72
-27.48
-23.71
-20.36
-17.06
-13.28
-8.55
-2.66
4.19
11.41
18.19
23.67
27.14
28.15
26.58
22.63
16.77
9.59
1.65
-6.74
-15.59
-25.20
-35.93
-47.86
-60.62
-73.30
-84.78
-94.10
-100.80
-105.19
-108.21
-111.24
-115.49
-121.63
-129.36
-137.14
-142.33
-141.63
-132.00
-111.60
-80.63
-41.52
1.61
44.04
81.69
112.10
134.73
150.53
161.16
168.03
171.85
172.51
169.45
162.21
150.80
135.74
117.95
98.41
78.03
57.49
37.47
18.70
2.14
-11.21
-20.60
-25.75
-27.11
-25.66
-22.52
-18.48
-13.56
-7.07
1.96
14.09
28.87
44.73
59.38
70.55
76.67
77.33
73.24
65.98
57.54
49.83
44.36
41.99
42.95
46.91
53.28
61.28
70.03
78.48
85.44
89.73
90.49
87.37
80.58
70.63
58.04
43.06
25.86
6.88
-12.82
-31.54
-47.29
-58.43
-64.22
-65.01
-62.03
-56.86
-50.88
-44.95
-39.38
-34.05
-28.68
-22.98
-16.76
-10.02
-2.97
3.94
10.12
14.86
17.52
17.58
14.80
9.25
1.33
-8.12
-18.03
-27.20
-34.58
-39.48
-41.65
-41.23
-38.69
-34.73
-30.16
-25.81
-22.34
-20.11
-18.97
-18.37
-17.57
-16.04
-13.65
-10.77
-8.02
-5.98
-4.93
-4.80
-5.26
-5.88
-6.32
-6.31
-5.58
-3.88
-0.99
3.15
8.33
14.07
19.92
25.70
31.82
39.21
48.93
61.49
76.20
90.89
102.49
108.10
106.28
97.78
85.31
72.45
62.26
56.26
54.22
54.74
55.91
55.83
52.69
44.59
29.74
7.08
-22.91
-57.85
-93.72
-126.11
-151.51
-168.37
-177.10
-179.42
-177.26
-171.91
-163.87
-153.13
-139.83
-124.62
-108.65
-93.24
-79.37
-67.37
-56.93
-47.39
-38.09
-28.71
-19.28
-10.12
-1.55
6.32
13.70
20.96
28.54
36.72
45.50
54.75
64.32
74.22
84.67
96.02
108.57
122.31
136.94
151.77
165.88
178.21
187.61
192.93
193.10
187.42
175.80
159.04
138.80
117.30
96.83
79.13
65.01
54.17
45.45
37.28
28.19
17.27
4.49
-9.30
-22.63
-33.87
-41.81
-45.95
-46.74
-45.30
-43.08
-41.39
-41.02
-42.17
-44.44
-47.12
-49.42
-50.75
-50.90
-50.00
-48.52
-47.01
-45.98
-45.69
-46.10
-46.95
-47.77
-48.06
-47.37
-45.43
-42.23
-38.09
-33.52
-29.16
-25.54
-22.99
-21.66
-21.53
-22.47
-24.31
-26.84
-29.84
-33.11
-36.47
-39.68
-42.51
-44.66
-45.88
-46.12
-45.55
-44.62
-43.97
-44.13
-45.52
-48.27
-52.14
-56.39
-59.63
-60.09
-56.14
-47.10
-33.80
-18.64
-4.73
5.35
10.60
12.00
11.84
12.70
16.35
23.27
32.76
43.45
53.70
61.89
66.64
66.98
62.74
54.72
44.58
34.40
26.16
21.06
19.37
20.56
23.56
27.18
30.35
32.23
32.33
30.50
26.93
22.07
16.52
10.79
5.18
-0.30
-5.83
-11.59
-17.65
-23.84
-29.87
-35.48
-40.59
-45.34
-49.92
-54.46
-58.82
-62.58
-65.22
-66.24
-65.45
-62.93
-59.05
-54.34
-49.33
-44.45
-39.94
-35.72
-31.48
-26.80
-21.33
-15.05
-8.32
-1.75
4.02
8.62
12.00
14.38
16.03
17.09
17.52
17.25
16.31
14.91
13.34
11.81
10.19
8.09
4.96
0.38
-5.70
-12.92
-20.59
-27.83
-33.86
-38.11
-40.37
-40.84
-40.01
-38.65
-37.48
-37.11
-37.86
-39.71
-42.36
-45.32
-48.04
-49.96
-50.61
-49.66
-46.89
-42.23
-35.73
-27.51
-17.85
-7.12
4.12
15.25
25.56
34.45
41.47
46.39
49.19
50.07
49.42
47.71
45.46
43.12
40.97
39.18
37.79
36.77
36.06
35.54
35.10
34.66
34.25
34.01
34.17
34.88
36.06
37.33
38.12
37.92
36.59
34.49
32.52
31.77
33.15
36.92
42.45
48.21
52.04
51.68
45.43
32.67
14.09
-8.35
-32.00
-54.26
-73.19
-87.85
-98.27
-105.07
-108.99
-110.59
-110.12
-107.61
-103.01
-96.38
-87.88
-77.77
-66.45
-54.42
-42.40
-31.15
-21.44
-13.78
-8.22
-4.34
-1.37
1.59
5.23
9.84
15.32
21.25
27.18
32.73
37.71
42.02
45.62
48.49
50.63
52.10
52.96
53.20
52.72
51.36
48.99
45.73
41.93
38.17
35.04
32.88
31.71
31.21
30.82
29.94
28.15
25.20
21.22
16.62
12.06
8.32
6.15
6.10
8.36
12.78
18.89
26.01
33.43
40.49
46.59
51.30
54.27
55.28
54.27
51.34
46.81
41.21
35.18
29.42
24.48
20.67
17.94
16.00
14.30
12.34
9.76
6.42
2.39
-2.14
-6.99
-11.98
-16.95
-21.77
-26.24
-30.19
-33.48
-36.06
-38.01
-39.52
-40.79
-42.00
-43.28
-44.66
-46.14
-47.77
-49.63
-51.81
-54.37
-57.25
-60.17
-62.70
-64.37
-64.74
-63.54
-60.73
-56.38
-50.63
-43.67
-35.75
-27.22
-18.53
-10.14
-2.43
4.40
10.32
15.45
19.88
23.70
26.96
29.73
32.15
34.31
36.17
37.61
38.40
38.42
37.70
36.45
34.91
33.23
31.34
29.03
26.11
22.51
18.44
14.25
10.30
6.72
3.36
-0.18
-4.29
-9.21
-14.80
-20.68
-26.35
-31.51
-36.09
-40.35
-44.66
-49.33
-54.43
-59.81
-65.07
-69.72
-73.24
-75.18
-75.26
-73.42
-69.75
-64.38
-57.41
-48.93
-39.19
-28.66
-18.04
-8.05
0.84
8.52
15.28
21.37
26.89
31.55
34.93
36.73
37.09
36.57
35.87
35.62
36.09
37.21
38.72
40.30
41.68
42.57
42.72
41.98
40.36
38.13
35.74
33.73
32.53
32.36
33.13
34.52
36.06
37.28
37.79
37.36
35.98
33.70
30.61
26.66
21.65
15.34
7.55
-1.60
-11.67
-21.91
-31.46
-39.53
-45.54
-49.17
-50.37
-49.30
-46.29
-41.69
-35.92
-29.29
-22.12
-14.65
-7.12
0.21
7.10
13.34
18.79
23.38
27.06
29.85
31.82
33.09
33.81
34.18
34.36
34.41
34.32
34.07
33.58
32.81
31.73
30.31
28.52
26.40
24.04
21.69
19.63
18.10
17.17
16.69
16.29
15.60
14.42
12.74
10.82
8.90
7.14
5.47
3.75
1.87
-0.13
-2.04
-3.70
-5.12
-6.54
-8.32
-10.69
-13.61
-16.69
-19.30
-20.77
-20.59
-18.47
-14.46
-8.89
-2.28
4.76
11.67
18.06
23.73
28.69
33.05
36.92
40.30
43.10
45.15
46.18
45.88
43.90
39.93
33.86
25.79
16.19
5.79
-4.57
-14.10
-22.17
-28.45
-32.88
-35.65
-37.12
-37.67
-37.60
-37.13
-36.37
-35.41
-34.41
-33.54
-32.94
-32.61
-32.41
-32.10
-31.52
-30.70
-29.87
-29.37
-29.44
-30.16
-31.43
-33.01
-34.57
-35.75
-36.21
-35.58
-33.64
-30.28
-25.56
-19.61
-12.58
-4.57
4.35
14.04
24.22
34.44
44.19
52.95
60.27
65.86
69.63
71.70
72.46
72.53
72.60
73.25
74.73
76.87
79.21
81.14
82.23
82.31
81.58
80.38
79.06
77.81
76.61
75.40
74.15
72.96
72.05
71.61
71.75
72.49
73.89
75.98
78.63
81.27
82.68
81.09
74.61
61.88
42.68
18.10
-9.82
-38.66
-66.33
-91.34
-112.79
-130.15
-143.09
-151.42
-155.23
-155.05
-151.76
-146.45
-140.03
-132.94
-125.08
-115.96
-105.15
-92.74
-79.49
-66.74
-55.94
-48.05
-43.25
-40.93
-39.95
-39.19
-37.94
-36.03
-33.74
-31.49
-29.59
-28.11
-26.86
-25.54
-23.93
-21.93
-19.55
-16.89
-13.98
-10.81
-7.38
-3.73
-0.07
3.36
6.28
8.56
10.15
11.10
11.51
11.52
11.35
11.28
11.62
12.54
13.92
15.34
16.17
15.82
14.05
11.08
7.56
4.38
2.28
1.70
2.64
4.76
7.60
10.78
14.13
17.70
21.66
26.04
30.69
35.19
39.07
41.99
43.90
45.04
45.76
46.36
46.94
47.45
47.75
47.76
47.52
47.14
46.67
46.09
45.22
43.84
41.82
39.16
35.99
32.56
29.03
25.51
21.98
18.30
14.36
10.08
5.46
0.59
-4.42
-9.41
-14.26
-18.82
-22.96
-26.54
-29.53
-32.00
-34.21
-36.54
-39.32
-42.63
-46.24
-49.56
-51.90
-52.71
-51.86
-49.59
-46.40
-42.77
-39.00
-35.19
-31.35
-27.55
-24.02
-21.09
-19.15
-18.58
-19.79
-23.09
-28.56
-35.90
-44.22
-52.22
-58.45
-61.84
-61.96
-59.18
-54.37
-48.51
-42.36
-36.31
-30.46
-24.82
-19.41
-14.31
-9.55
-5.05
-0.72
3.48
7.44
10.86
13.42
14.97
15.63
15.73
15.70
15.88
16.38
17.08
17.74
18.06
17.82
16.83
15.05
12.57
9.71
6.95
4.87
3.92
4.28
5.87
8.43
11.68
15.48
19.87
24.93
30.62
36.69
42.71
48.25
53.10
57.36
61.32
65.31
69.44
73.63
77.58
80.97
83.57
85.17
85.65
84.80
82.42
78.40
72.88
66.22
58.96
51.63
44.59
37.99
31.81
25.92
20.16
14.38
8.46
2.40
-3.70
-9.56
-14.89
-19.43
-23.15
-26.30
-29.30
-32.58
-36.44
-40.95
-45.94
-51.19
-56.51
-61.82
-67.14
-72.45
-77.61
-82.32
-86.19
-88.79
-89.85
-89.22
-86.91
-83.04
-77.75
-71.20
-63.58
-55.13
-46.16
-37.06
-28.23
-20.02
-12.72
-6.42
-1.10
3.38
7.20
10.53
13.53
16.29
18.86
21.29
23.58
25.68
27.52
28.99
30.03
30.62
30.82
30.73
30.41
29.88
29.06
27.88
26.23
24.13
21.66
18.95
16.13
13.22
10.15
6.78
2.97
-1.29
-5.96
-10.93
-16.05
-21.14
-25.92
-30.02
-32.97
-34.34
-33.90
-31.70
-28.09
-23.57
-18.57
-13.37
-8.05
-2.58
3.04
8.66
13.98
18.66
22.39
25.07
26.81
27.89
28.61
29.18
29.64
29.87
29.70
29.11
28.16
27.06
26.00
25.03
24.04
22.87
21.34
19.37
17.04
14.48
11.87
9.32
6.89
4.57
2.30
0.07
-2.16
-4.36
-6.53
-8.69
-10.96
-13.44
-16.27
-19.46
-22.95
-26.65
-30.51
-34.52
-38.72
-43.00
-47.13
-50.63
-52.98
-53.80
-52.94
-50.49
-46.70
-41.82
-36.03
-29.53
-22.54
-15.37
-8.37
-1.81
4.18
9.58
14.43
18.75
22.46
25.47
27.74
29.30
30.21
30.58
30.47
29.98
29.21
28.34
27.50
26.79
26.11
25.29
24.13
22.52
20.49
18.17
15.74
13.31
10.91
8.51
6.10
3.68
1.29
-1.09
-3.56
-6.22
-9.12
-12.14
-15.08
-17.72
-20.04
-22.21
-24.63
-27.63
-31.36
-35.70
-40.18
-44.19
-47.14
-48.58
-48.25
-46.14
-42.41
-37.39
-31.47
-25.06
-18.51
-12.02
-5.72
0.36
6.21
11.76
16.93
21.60
25.66
29.00
31.61
33.50
34.70
35.27
35.30
34.92
34.23
33.37
32.43
31.44
30.38
29.15
27.69
26.01
24.17
22.28
20.49
18.84
17.38
16.09
14.93
13.87
12.84
11.72
10.41
8.76
6.74
4.41
1.88
-0.70
-3.22
-5.68
-8.14
-10.77
-13.71
-17.01
-20.54
-23.95
-26.72
-28.30
-28.29
-26.50
-23.01
-18.07
-11.97
-4.96
2.75
11.01
19.56
28.10
36.25
43.65
50.05
55.35
59.53
62.72
65.09
66.86
68.34
69.88
71.81
74.28
77.16
79.96
81.88
81.98
79.45
73.86
65.26
54.14
41.35
27.89
14.68
2.39
-8.64
-18.47
-27.36
-35.58
-43.24
-50.18
-56.16
-61.03
-64.91
-68.22
-71.46
-75.03
-79.02
-83.20
-87.05
-90.01
-91.56
-91.35
-89.19
-85.05
-79.13
-71.78
-63.50
-54.80
-46.19
-38.07
-30.71
-24.32
-19.03
-14.81
-11.54
-8.98
-6.86
-4.97
-3.27
-1.95
-1.32
-1.69
-3.27
-5.98
-9.53
-13.46
-17.36
-20.95
-24.17
-27.15
-30.13
-33.27
-36.58
-39.88
-42.76
-44.74
-45.40
-44.48
-42.03
-38.37
-34.04
-29.57
-25.40
-21.82
-18.96
-16.95
-15.96
-16.14
-17.56
-20.13
-23.50
-27.19
-30.72
-33.63
-35.60
-36.40
-35.94
-34.38
-32.22
-30.19
-29.11
-29.56
-31.69
-35.19
-39.45
-43.88
-48.04
-51.78
-55.13
-58.16
-60.83
-62.96
-64.30
-64.46
-63.09
-59.89
-54.74
-47.69
-38.94
-28.76
-17.49
-5.53
6.58
18.06
28.03
35.67
40.54
42.69
42.73
41.58
40.23
39.50
39.94
41.75
44.93
49.23
54.24
59.48
64.46
68.81
72.40
75.27
77.61
79.61
81.35
82.75
83.58
83.51
82.31
79.91
76.53
72.60
68.65
65.18
62.42
60.34
58.58
56.69
54.25
51.00
46.96
42.30
37.27
32.05
26.68
21.14
15.47
9.94
5.02
1.29
-0.77
-0.96
0.55
3.46
7.41
12.14
17.42
22.97
28.31
32.87
36.16
38.00
38.63
38.52
38.13
37.62
36.76
35.00
31.77
26.72
19.98
12.13
4.02
-3.46
-9.70
-14.48
-18.03
-20.84
-23.50
-26.44
-29.83
-33.51
-37.03
-39.82
-41.38
-41.42
-39.94
-37.19
-33.53
-29.30
-24.68
-19.74
-14.53
-9.14
-3.82
1.15
5.49
9.07
11.92
14.16
15.97
17.48
18.78
19.93
20.97
21.96
22.90
23.82
24.69
25.50
26.18
26.72
27.00
26.92
26.31
25.08
23.28
21.08
18.80
16.68
14.80
13.02
11.10
8.85
6.33
3.89
2.11
1.51
2.30
4.26
6.82
9.30
11.13
12.03
11.93
10.90
8.95
6.03
2.10
-2.80
-8.43
-14.38
-20.25
-25.69
-30.50
-34.56
-37.64
-39.31
-38.95
-36.03
-30.36
-22.37
-13.09
-3.89
3.98
9.78
13.42
15.26
15.76
15.18
13.47
10.42
5.95
0.19
-6.48
-13.55
-20.56
-27.16
-33.13
-38.31
-42.59
-45.88
-48.13
-49.30
-49.47
-48.84
-47.77
-46.70
-45.92
-45.42
-44.73
-43.01
-39.30
-32.77
-22.90
-9.53
7.15
26.51
47.27
67.45
84.34
95.03
97.26
90.24
75.12
54.88
33.35
14.10
-0.56
-9.94
-14.64
-15.83
-14.61
-11.70
-7.61
-2.99
1.27
4.17
5.04
4.04
2.16
0.85
1.33
3.99
8.26
13.00
17.10
20.03
22.00
23.69
25.82
28.85
32.96
38.22
44.73
52.51
61.31
70.29
78.05
82.89
83.39
78.83
69.42
56.22
40.74
24.59
9.17
-4.44
-15.56
-23.92
-29.61
-33.03
-34.79
-35.53
-35.66
-35.28
-34.16
-31.86
-28.03
-22.53
-15.63
-7.93
-0.30
6.37
11.32
14.10
14.67
13.32
10.66
7.38
4.17
1.49
-0.49
-1.89
-3.09
-4.50
-6.46
-9.03
-12.02
-15.08
-17.86
-20.20
-22.13
-23.86
-25.55
-27.27
-28.92
-30.37
-31.61
-32.82
-34.34
-36.49
-39.36
-42.71
-46.04
-48.76
-50.45
-51.03
-50.69
-49.79
-48.50
-46.72
-44.01
-39.78
-33.56
-25.28
-15.40
-4.83
5.26
13.87
20.40
24.83
27.71
29.86
32.13
35.06
38.75
42.96
47.24
51.27
55.01
58.76
63.05
68.53
75.65
84.48
94.41
104.08
111.50
114.45
111.15
100.99
84.86
65.08
44.73
26.68
12.68
2.87
-4.06
-10.09
-17.09
-26.08
-37.06
-49.26
-61.70
-73.56
-84.36
-93.86
-101.79
-107.73
-111.22
-112.10
-110.77
-108.16
-105.43
-103.42
-102.23
-101.16
-99.08
-94.90
-88.08
-78.80
-67.82
-56.10
-44.41
-33.14
-22.33
-11.84
-1.63
8.26
17.56
25.94
33.09
38.86
43.21
46.25
48.12
48.89
48.49
46.79
43.66
39.16
33.59
27.57
21.85
17.12
13.76
11.61
10.01
8.01
4.72
-0.32
-6.97
-14.52
-21.91
-28.03
-31.83
-32.44
-29.13
-21.48
-9.51
6.05
23.84
42.13
59.31
74.45
87.46
99.00
110.04
121.41
133.29
145.14
155.69
163.19
165.89
162.40
152.15
135.60
114.16
89.94
65.28
42.22
22.24
6.09
-6.19
-15.12
-21.63
-26.85
-31.75
-36.99
-42.72
-48.69
-54.47
-59.71
-64.32
-68.41
-72.12
-75.50
-78.39
-80.50
-81.57
-81.47
-80.24
-78.09
-75.24
-71.93
-68.32
-64.51
-60.59
-56.70
-53.07
-50.06
-48.00
-47.03
-46.97
-47.37
-47.71
-47.69
-47.42
-47.33
-47.89
-49.40
-51.80
-54.70
-57.56
-59.95
-61.53
-62.14
-61.67
-59.95
-56.83
-52.19
-46.01
-38.45
-29.84
-20.64
-11.37
-2.54
5.51
12.67
19.15
25.34
31.69
38.47
45.65
52.94
59.82
65.79
70.43
73.56
75.32
76.11
76.55
77.29
78.79
81.06
83.49
84.83
83.56
78.27
68.24
53.73
35.96
16.73
-2.16
-19.37
-34.28
-46.89
-57.52
-66.50
-74.06
-80.35
-85.59
-90.18
-94.55
-98.91
-103.11
-106.61
-108.67
-108.65
-106.23
-101.52
-95.00
-87.36
-79.34
-71.56
-64.47
-58.28
-52.91
-47.96
-42.69
-36.12
-27.26
-15.44
-0.75
15.80
32.40
46.78
56.76
60.77
58.10
49.05
34.99
18.41
2.50
-9.72
-16.53
-18.21
-17.03
-16.08
-17.86
-23.15
-30.92
-39.21
-46.35
-51.61
-55.18
-57.46
-58.55
-58.13
-55.98
-52.44
-48.56
-45.69
-44.89
-46.53
-50.19
-55.02
-59.93
-63.92
-66.14
-66.00
-63.14
-57.62
-49.83
-40.38
-29.93
-18.90
-7.47
4.43
16.88
29.75
42.57
54.54
64.81
72.71
78.08
81.27
83.09
84.44
86.03
88.14
90.59
92.85
94.27
94.46
93.32
91.15
88.48
85.91
83.90
82.64
82.17
82.31
82.82
83.26
83.14
82.13
80.11
77.42
74.68
72.51
71.15
70.14
68.38
64.44
57.21
46.37
32.57
17.23
2.03
-11.68
-23.16
-32.34
-39.45
-44.61
-47.64
-47.98
-45.09
-38.88
-30.00
-19.67
-9.32
-0.06
7.62
13.78
18.70
22.50
25.04
25.98
25.09
22.54
18.91
15.02
11.70
9.46
8.45
8.39
8.81
9.19
9.18
8.67
7.78
6.78
5.85
4.93
3.73
1.84
-1.08
-5.02
-9.62
-14.26
-18.34
-21.47
-23.53
-24.71
-25.30
-25.59
-25.86
-26.36
-27.41
-29.37
-32.53
-36.96
-42.41
-48.31
-53.93
-58.56
-61.70
-63.05
-62.54
-60.20
-56.15
-50.54
-43.69
-36.03
-28.04
-20.20
-12.88
-6.33
-0.72
3.82
7.13
9.12
9.74
9.01
6.93
3.48
-1.37
-7.53
-14.73
-22.42
-29.93
-36.63
-42.06
-46.01
-48.51
-49.69
-49.73
-48.80
-47.10
-44.79
-42.02
-38.84
-35.16
-30.75
-25.34
-18.73
-10.94
-2.39
6.22
13.92
19.74
22.91
22.95
19.77
13.64
5.15
-4.77
-14.94
-23.96
-30.43
-33.18
-31.49
-25.19
-14.79
-1.26
14.12
30.03
45.24
58.60
68.97
75.21
76.34
72.01
62.96
51.23
39.78
31.66
28.97
32.18
40.14
50.78
61.90
71.85
79.58
84.28
85.04
80.94
71.55
57.61
41.24
25.36
12.68
4.61
0.89
0.03
0.26
0.33
-0.47
-2.89
-8.29
-18.52
-34.89
-56.81
-81.13
-102.80
-116.67
-119.58
-111.55
-95.45
-75.57
-55.86
-38.98
-26.18
-17.92
-14.47
-15.88
-21.63
-30.24
-39.23
-45.83
-47.82
-44.41
-36.38
-25.71
-14.74
-5.36
1.56
6.14
9.19
11.62
14.09
16.84
19.74
22.47
24.60
25.73
25.52
23.85
20.91
17.15
13.22
9.74
7.17
5.60
4.90
4.72
4.69
4.48
3.82
2.47
0.18
-3.19
-7.56
-12.59
-17.75
-22.45
-26.26
-28.98
-30.54
-30.86
-29.69
-26.64
-21.43
-14.11
-5.23
4.38
13.92
22.96
31.57
40.04
48.55
56.87
64.38
70.37
74.42
76.57
77.34
77.49
77.75
78.66
80.56
83.58
87.70
92.73
98.25
103.60
108.11
111.28
113.06
113.86
114.37
115.10
116.05
116.56
115.43
111.41
103.66
92.11
77.59
61.60
45.92
32.27
21.93
15.63
13.41
14.70
18.47
23.54
28.74
33.25
36.62
38.74
39.79
40.06
40.01
40.13
40.96
42.81
45.73
49.35
53.03
56.10
58.12
58.91
58.52
56.94
54.08
49.79
43.98
36.77
28.51
19.62
10.48
1.33
-7.70
-16.50
-24.90
-32.84
-40.37
-47.82
-55.73
-64.65
-74.87
-86.26
-98.25
-110.04
-120.83
-130.03
-137.32
-142.55
-145.67
-146.62
-145.46
-142.45
-138.14
-133.30
-128.63
-124.49
-120.67
-116.55
-111.30
-104.31
-95.45
-85.12
-74.07
-63.14
-52.95
-43.84
-35.78
-28.61
-22.09
-16.07
-10.52
-5.48
-1.09
2.46
4.94
6.13
5.87
4.19
1.35
-2.19
-5.87
-9.18
-11.73
-13.27
-13.67
-12.89
-10.98
-8.10
-4.53
-0.58
3.62
8.18
13.49
20.04
28.16
37.85
48.70
60.00
70.84
80.19
87.02
90.36
89.63
84.93
77.17
68.03
59.44
53.03
49.58
48.85
49.85
51.35
52.38
52.49
51.68
50.07
47.54
43.54
37.24
27.87
15.10
-0.67
-18.42
-36.74
-54.24
-69.72
-82.34
-91.49
-96.79
-98.11
-95.70
-90.17
-82.54
-73.96
-65.54
-58.14
-52.25
-48.01
-45.13
-43.01
-40.79
-37.62
-32.95
-26.74
-19.56
-12.33
-5.96
-1.01
2.46
4.79
6.46
7.86
9.07
9.92
10.10
9.30
7.33
4.24
0.27
-4.15
-8.53
-12.47
-15.77
-18.54
-21.08
-23.70
-26.39
-28.75
-30.09
-29.70
-27.33
-23.29
-18.43
-13.80
-10.22
-8.00
-6.97
-6.63
-6.51
-6.35
-6.13
-6.01
-6.12
-6.46
-6.87
-7.10
-6.93
-6.21
-4.87
-2.80
0.08
3.83
8.36
13.39
18.51
23.43
28.16
33.18
39.14
46.56
55.27
64.29
72.03
76.87
77.75
74.74
68.94
62.20
56.37
52.70
51.47
52.04
53.25
53.99
53.68
52.46
50.99
50.04
50.11
51.24
53.26
55.98
59.36
63.20
66.67
68.08
65.06
55.47
38.44
15.01
-12.00
-38.91
-62.45
-80.49
-92.27
-97.88
-97.72
-92.24
-82.13
-68.61
-53.48
-38.68
-25.57
-14.39
-4.21
6.46
18.95
33.69
50.10
66.90
82.59
95.89
105.82
111.67
112.91
109.48
102.06
92.45
83.21
76.78
74.28
74.73
75.21
72.12
62.85
46.98
26.44
4.54
-15.47
-31.57
-43.10
-50.33
-53.66
-53.37
-49.83
-44.06
-37.91
-33.77
-33.63
-38.24
-46.82
-57.37
-67.63
-75.98
-81.88
-85.83
-88.68
-90.99
-92.58
-92.59
-89.93
-83.86
-74.49
-62.83
-50.57
-39.41
-30.53
-24.09
-19.30
-14.80
-9.35
-2.44
5.47
13.16
19.33
23.26
25.31
26.79
29.58
35.36
45.04
58.47
74.35
90.49
104.06
112.03
111.67
101.34
81.35
54.32
24.84
-1.95
-21.99
-33.72
-38.28
-38.59
-37.77
-37.88
-39.55
-42.48
-46.34
-51.14
-57.13
-64.16
-71.30
-77.07
-80.18
-80.35
-78.57
-76.75
-76.86
-79.98
-85.84
-92.81
-98.50
-100.65
-97.91
-90.43
-79.74
-68.19
-58.03
-50.52
-45.54
-41.90
-38.04
-32.84
-26.16
-18.70
-11.57
-5.70
-1.42
1.47
3.44
4.89
5.93
6.44
6.30
5.60
4.67
4.04
4.21
5.52
8.15
12.14
17.52
24.17
31.73
39.47
46.37
51.46
54.22
54.78
53.78
51.88
49.27
45.49
39.68
31.16
19.98
7.06
-5.99
-17.42
-25.80
-30.34
-30.82
-27.59
-21.35
-13.06
-3.68
6.02
15.60
24.92
33.98
42.63
50.37
56.39
59.76
59.83
56.49
50.37
42.78
35.49
30.24
28.21
29.54
33.19
37.23
39.51
38.51
33.88
26.46
17.83
9.44
2.06
-4.39
-10.58
-17.13
-24.24
-31.63
-38.70
-44.97
-50.24
-54.59
-58.12
-60.74
-62.13
-61.97
-60.29
-57.65
-55.08
-53.78
-54.56
-57.60
-62.30
-67.56
-72.22
-75.41
-76.75
-76.28
-74.18
-70.53
-65.25
-58.25
-49.58
-39.61
-29.02
-18.64
-9.20
-1.17
5.31
10.35
14.18
17.06
19.21
20.79
21.88
22.51
22.69
22.36
21.50
20.08
18.05
15.37
11.96
7.87
3.31
-1.28
-5.37
-8.48
-10.37
-11.18
-11.33
-11.41
-11.91
-13.11
-15.03
-17.43
-20.00
-22.33
-24.11
-25.07
-25.14
-24.41
-23.16
-21.79
-20.74
-20.25
-20.30
-20.51
-20.32
-19.20
-16.90
-13.57
-9.75
-6.12
-3.27
-1.43
-0.45
0.08
0.60
1.38
2.37
3.31
3.88
3.91
3.46
2.82
2.33
2.25
2.61
3.29
4.11
5.00
6.01
7.27
8.89
10.77
12.67
14.28
15.35
15.80
15.74
15.37
14.87
14.39
13.93
13.39
12.66
11.66
10.34
8.74
6.87
4.66
1.96
-1.48
-5.81
-10.99
-16.71
-22.39
-27.36
-30.97
-32.83
-32.80
-31.08
-28.02
-24.00
-19.42
-14.49
-9.40
-4.25
0.86
5.77
10.39
14.69
18.71
22.48
25.99
29.06
31.39
32.72
32.91
32.05
30.46
28.52
26.55
24.70
23.01
21.33
19.50
17.38
14.92
12.11
9.07
5.94
2.83
-0.21
-3.19
-6.19
-9.20
-12.18
-15.03
-17.67
-20.10
-22.40
-24.70
-27.15
-29.85
-32.92
-36.48
-40.62
-45.37
-50.49
-55.48
-59.57
-61.93
-61.94
-59.32
-54.21
-47.10
-38.56
-29.07
-18.93
-8.40
2.12
11.99
20.38
26.56
30.27
31.86
32.24
32.47
33.36
35.18
37.69
40.43
42.96
45.01
46.43
47.02
46.50
44.73
41.89
38.74
36.41
35.91
37.68
41.22
45.13
47.70
47.57
44.22
38.10
30.42
22.58
15.77
10.68
7.46
5.82
5.15
4.70
3.74
1.83
-1.05
-4.47
-7.70
-10.05
-11.14
-11.00
-9.96
-8.40
-6.60
-4.64
-2.46
0.00
2.78
5.87
9.28
13.00
16.87
20.61
23.83
26.22
27.75
28.67
29.49
30.77
32.86
35.80
39.39
43.28
47.12
50.60
53.49
55.57
56.70
56.72
55.54
53.15
49.63
45.20
40.18
34.93
29.78
24.91
20.29
15.71
10.76
4.86
-2.64
-12.34
-24.58
-39.19
-55.45
-72.11
-87.68
-100.79
-110.55
-116.59
-119.04
-118.23
-114.47
-107.93
-98.61
-86.52
-71.85
-55.11
-37.16
-19.11
-1.98
13.56
27.50
40.43
53.23
66.69
81.22
96.84
113.35
130.50
148.04
165.46
181.71
195.01
203.16
203.98
195.96
178.82
153.64
122.67
88.84
55.08
23.81
-3.46
-26.23
-44.79
-59.82
-72.06
-82.03
-89.99
-96.08
-100.39
-103.11
-104.40
-104.35
-102.94
-100.03
-95.55
-89.50
-82.04
-73.42
-63.83
-53.33
-41.89
-29.46
-16.24
-2.78
10.01
21.06
29.45
34.75
37.10
37.20
36.07
34.76
34.10
34.56
36.21
38.80
41.90
45.05
47.77
49.68
50.45
49.86
47.80
44.34
39.67
34.14
28.10
21.86
15.60
9.42
3.41
-2.28
-7.44
-11.91
-15.56
-18.42
-20.65
-22.38
-23.78
-25.03
-26.35
-27.99
-30.19
-33.08
-36.53
-40.13
-43.29
-45.41
-46.12
-45.32
-43.24
-40.24
-36.69
-32.81
-28.65
-24.11
-19.15
-13.79
-8.27
-2.95
1.69
5.23
7.36
8.03
7.43
5.97
4.18
2.55
1.44
1.00
1.24
2.07
3.39
5.04
6.80
8.44
9.70
10.43
10.60
10.33
9.81
9.22
8.68
8.20
7.79
7.40
7.01
6.61
6.19
5.72
5.19
4.56
3.78
2.82
1.68
0.39
-1.03
-2.60
-4.47
-6.83
-9.79
-13.30
-17.02
-20.48
-23.18
-24.80
-25.20
-24.41
-22.51
-19.53
-15.48
-10.45
-4.71
1.29
7.04
12.08
16.11
19.04
20.98
22.14
22.75
23.05
23.19
23.18
22.91
22.23
20.98
19.15
16.92
14.61
12.53
10.92
9.88
9.32
9.08
9.01
9.03
9.13
9.37
9.76
10.28
10.80
11.13
11.12
10.65
9.78
8.63
7.40
6.21
5.11
3.97
2.61
0.82
-1.53
-4.45
-7.85
-11.52
-15.21
-18.58
-21.29
-23.02
-23.52
-22.73
-20.84
-18.24
-15.45
-12.98
-11.12
-9.86
-8.87
-7.61
-5.60
-2.49
1.75
6.96
12.86
19.18
25.69
32.19
38.39
43.94
48.44
51.56
53.19
53.41
52.56
51.04
49.20
47.23
45.09
42.61
39.63
36.15
32.38
28.70
25.47
22.83
20.65
18.57
16.11
12.94
8.96
4.30
-0.69
-5.59
-10.03
-13.78
-16.85
-19.39
-21.69
-24.04
-26.65
-29.66
-33.06
-36.73
-40.41
-43.71
-46.08
-47.04
-46.32
-43.97
-40.38
-36.11
-31.70
-27.44
-23.40
-19.36
-15.10
-10.46
-5.42
-0.10
5.33
10.63
15.60
20.01
23.67
26.34
27.87
28.17
27.30
25.45
22.95
20.16
17.34
14.65
12.07
9.58
7.14
4.84
2.78
1.04
-0.39
-1.64
-2.87
-4.28
-5.97
-8.03
-10.45
-13.18
-16.05
-18.80
-21.13
-22.86
-24.07
-25.18
-26.87
-29.73
-34.06
-39.59
-45.56
-50.98
-54.93
-56.98
-57.21
-56.18
-54.62
-53.03
-51.49
-49.60
-46.79
-42.56
-36.92
-30.36
-23.79
-18.20
-14.33
-12.44
-12.24
-12.84
-12.78
-10.22
-3.28
9.20
26.96
48.01
69.08
86.65
98.38
103.91
104.67
102.76
99.62
95.22
88.38
77.85
63.55
47.06
31.04
18.06
9.42
4.81
2.75
1.54
0.00
-2.20
-4.84
-7.66
-10.63
-13.98
-18.02
-22.77
-27.94
-32.91
-36.95
-39.39
-39.79
-38.09
-34.57
-29.86
-24.78
-20.17
-16.66
-14.43
-13.20
-12.33
-11.08
-9.01
-6.11
-2.85
0.04
1.90
2.41
1.59
-0.25
-2.78
-5.72
-8.96
-12.44
-16.18
-20.28
-24.89
-30.16
-35.98
-41.83
-46.73
-49.59
-49.64
-46.82
-41.89
-36.06
-30.43
-25.37
-20.43
-14.55
-6.73
3.50
15.61
28.13
38.82
45.17
44.91
36.66
20.43
-2.12
-27.93
-53.31
-74.92
-90.69
-100.11
-103.96
-103.56
-100.11
-94.32
-86.59
-77.33
-67.20
-57.07
-47.71
-39.40
-31.91
-24.64
-17.07
-9.13
-1.21
6.03
12.09
16.86
20.70
24.14
27.56
30.91
33.75
35.52
35.86
34.90
33.20
31.53
30.52
30.37
30.82
31.28
31.20
30.30
28.77
27.12
25.92
25.41
25.35
25.01
23.56
20.43
15.67
9.99
4.49
0.17
-2.51
-3.84
-4.77
-6.47
-9.89
-15.38
-22.50
-29.94
-35.43
-35.93
-28.28
-10.34
17.69
52.51
88.19
118.05
136.96
143.19
138.72
127.83
114.91
102.67
91.55
80.62
68.99
56.74
45.02
35.18
27.90
22.70
18.34
13.48
7.56
0.98
-5.04
-9.16
-10.51
-9.01
-5.35
-0.44
5.00
10.80
17.31
24.98
33.94
43.70
53.17
61.05
66.37
68.91
69.37
69.06
69.44
71.61
75.84
81.39
86.64
89.52
88.05
80.95
68.04
50.34
29.77
8.73
-10.57
-26.47
-38.05
-45.06
-47.73
-46.51
-41.89
-34.29
-24.02
-11.30
3.44
19.36
34.92
47.89
55.56
55.24
44.89
23.76
-7.03
-44.42
-83.79
-119.96
-148.45
-166.58
-174.08
-172.78
-165.72
-156.00
-145.93
-136.70
-128.60
-121.45
-114.87
-108.51
-101.97
-94.84
-86.78
-77.67
-67.73
-57.42
-47.35
-38.06
-29.88
-22.80
-16.44
-10.13
-3.14
5.13
14.89
25.80
37.14
47.99
57.64
65.76
72.47
78.04
82.65
86.04
87.65
86.77
82.97
76.32
67.37
56.99
46.09
35.50
25.91
18.00
12.34
9.24
8.52
9.49
11.06
12.09
11.76
9.83
6.63
2.87
-0.63
-3.24
-4.62
-4.75
-3.86
-2.40
-0.96
-0.21
-0.88
-3.59
-8.83
-16.79
-27.31
-39.78
-53.24
-66.49
-78.32
-87.66
-93.85
-96.71
-96.43
-93.60
-88.84
-82.71
-75.60
-67.73
-59.27
-50.47
-41.71
-33.48
-26.30
-20.60
-16.64
-14.49
-14.01
-14.91
-16.78
-19.10
-21.20
-22.37
-21.81
-18.80
-12.79
-3.58
8.58
22.89
38.11
52.77
65.40
74.85
80.37
81.73
79.21
73.61
66.18
58.48
52.11
48.25
47.22
48.12
48.90
46.91
39.75
26.21
6.76
-16.46
-40.39
-61.92
-78.77
-89.91
-95.48
-96.39
-93.87
-89.13
-83.16
-76.76
-70.47
-64.52
-58.84
-53.00
-46.48
-38.82
-29.91
-20.11
-10.24
-1.34
5.67
10.30
12.67
13.42
13.43
13.47
13.99
14.98
16.18
17.28
18.07
18.55
18.81
18.94
18.98
18.92
18.74
18.38
17.74
16.69
15.13
13.02
10.49
7.76
5.13
2.81
0.87
-0.82
-2.47
-4.39
-6.81
-9.92
-13.73
-18.06
-22.49
-26.42
-29.23
-30.50
-30.09
-28.20
-25.20
-21.46
-17.19
-12.45
-7.20
-1.49
4.52
10.57
16.36
21.68
26.35
30.32
33.56
36.06
37.87
39.08
39.78
40.08
40.00
39.52
38.61
37.28
35.55
33.54
31.30
28.83
26.03
22.76
18.95
14.65
10.09
5.53
1.24
-2.65
-6.17
-9.44
-12.52
-15.42
-18.02
-20.19
-21.90
-23.25
-24.52
-26.01
-27.99
-30.66
-34.01
-37.96
-42.25
-46.48
-50.10
-52.51
-53.26
-52.12
-49.23
-44.98
-39.87
-34.33
-28.57
-22.63
-16.42
-9.89
-3.03
4.12
11.53
19.25
27.39
36.05
45.23
54.70
63.99
72.49
79.55
84.68
87.61
88.42
87.44
85.16
82.03
78.36
74.22
69.47
63.86
57.21
49.54
41.15
32.58
24.43
17.25
11.35
6.80
3.42
0.90
-1.21
-3.32
-5.82
-9.00
-13.01
-17.80
-23.11
-28.44
-33.20
-36.84
-39.06
-39.87
-39.55
-38.46
-36.91
-35.00
-32.63
-29.59
-25.72
-21.02
-15.57
-9.64
-3.50
2.47
7.97
12.69
16.51
19.46
21.70
23.47
24.93
26.16
27.13
27.81
28.15
28.15
27.84
27.22
26.37
25.37
24.35
23.39
22.49
21.57
20.48
19.06
17.23
14.98
12.34
9.35
6.05
2.53
-1.07
-4.59
-7.86
-10.85
-13.62
-16.35
-19.25
-22.52
-26.20
-30.14
-33.95
-37.05
-38.88
-39.06
-37.55
-34.67
-30.94
-26.85
-22.71
-18.57
-14.28
-9.70
-4.81
0.25
5.20
9.77
13.75
17.05
19.74
21.94
23.76
25.26
26.38
27.01
27.11
26.70
25.90
24.89
23.77
22.58
21.27
19.75
17.91
15.69
13.05
10.00
6.59
2.92
-0.85
-4.58
-8.11
-11.28
-14.00
-16.19
-17.85
-18.97
-19.65
-19.99
-20.19
-20.55
-21.39
-23.01
-25.56
-28.92
-32.70
-36.33
-39.19
-40.83
-41.05
-39.91
-37.64
-34.49
-30.71
-26.47
-21.93
-17.16
-12.21
-7.13
-1.97
3.15
8.02
12.42
16.08
18.83
20.56
21.34
21.32
20.75
19.91
18.98
18.00
16.85
15.37
13.41
11.00
8.30
5.57
3.04
0.84
-1.01
-2.61
-4.08
-5.51
-7.01
-8.64
-10.45
-12.40
-14.41
-16.30
-17.96
-19.40
-20.77
-22.34
-24.40
-27.04
-30.11
-33.22
-35.83
-37.45
-37.78
-36.73
-34.40
-30.96
-26.54
-21.26
-15.22
-8.64
-1.82
4.80
10.77
15.67
19.29
21.58
22.74
23.07
22.95
22.68
22.43
22.30
22.28
22.40
22.66
23.09
23.66
24.23
24.60
24.56
23.99
22.91
21.45
19.78
18.07
16.40
14.78
13.18
11.57
9.89
8.10
6.18
4.10
1.89
-0.45
-2.90
-5.49
-8.28
-11.38
-14.85
-18.70
-22.77
-26.75
-30.24
-32.79
-34.08
-33.98
-32.55
-29.97
-26.49
-22.33
-17.66
-12.64
-7.48
-2.42
2.30
6.53
10.21
13.38
16.08
18.32
20.09
21.39
22.30
23.01
23.70
24.47
25.29
25.97
26.32
26.15
25.40
24.18
22.64
20.97
19.28
17.58
15.80
13.78
11.39
8.61
5.59
2.60
-0.01
-2.03
-3.40
-4.30
-5.03
-5.91
-7.21
-9.11
-11.67
-14.79
-18.18
-21.34
-23.76
-24.96
-24.73
-23.12
-20.43
-17.07
-13.43
-9.83
-6.50
-3.59
-1.17
0.76
2.23
3.33
4.02
4.19
3.71
2.53
0.75
-1.39
-3.61
-5.77
-7.86
-10.03
-12.30
-14.50
-16.17
-16.71
-15.66
-12.95
-8.97
-4.41
0.06
4.06
7.58
10.86
14.10
17.24
19.99
21.98
22.97
23.01
22.33
21.13
19.38
16.86
13.20
8.13
1.71
-5.70
-13.40
-20.59
-26.50
-30.59
-32.59
-32.54
-30.66
-27.30
-22.81
-17.49
-11.62
-5.51
0.45
5.78
10.03
12.84
14.09
13.90
12.60
10.58
8.33
6.25
4.71
4.11
4.78
6.99
10.74
15.69
21.17
26.26
30.13
32.22
32.38
30.77
27.72
23.49
18.28
12.24
5.64
-1.08
-7.38
-12.76
-16.95
-19.98
-22.13
-23.77
-25.26
-26.79
-28.40
-29.99
-31.36
-32.26
-32.44
-31.68
-29.80
-26.72
-22.37
-16.81
-10.19
-2.79
4.98
12.70
20.01
26.71
32.73
38.11
42.79
46.66
49.55
51.24
51.62
50.68
48.55
45.48
41.79
37.82
33.88
30.20
26.89
23.94
21.24
18.67
16.08
13.42
10.67
7.95
5.37
3.04
0.93
-1.07
-3.19
-5.60
-8.35
-11.32
-14.35
-17.26
-20.00
-22.61
-25.17
-27.79
-30.48
-33.23
-35.92
-38.36
-40.27
-41.34
-41.35
-40.19
-37.90
-34.59
-30.38
-25.36
-19.59
-13.19
-6.37
0.52
7.10
12.93
17.60
20.81
22.43
22.53
21.36
19.29
16.67
13.75
10.69
7.58
4.51
1.66
-0.78
-2.60
-3.68
-3.99
-3.62
-2.72
-1.47
-0.09
1.24
2.45
3.50
4.42
5.20
5.77
5.99
5.72
4.88
3.54
1.87
0.09
-1.69
-3.47
-5.42
-7.85
-11.02
-15.10
-19.97
-25.25
-30.33
-34.47
-37.04
-37.66
-36.30
-33.23
-28.85
-23.58
-17.76
-11.68
-5.59
0.23
5.53
10.14
14.00
17.19
19.88
22.20
24.26
26.03
27.43
28.33
28.68
28.45
27.70
26.52
24.99
23.16
21.03
18.63
16.01
13.29
10.61
8.03
5.57
3.17
0.79
-1.58
-3.91
-6.14
-8.29
-10.43
-12.69
-15.17
-17.94
-20.98
-24.23
-27.56
-30.79
-33.67
-35.91
-37.23
-37.45
-36.47
-34.31
-31.05
-26.76
-21.54
-15.57
-9.13
-2.58
3.72
9.51
14.63
19.04
22.76
25.81
28.21
29.94
31.04
31.62
31.81
31.73
31.50
31.14
30.66
30.02
29.15
27.99
26.52
24.75
22.74
20.53
18.20
15.80
13.45
11.25
9.31
7.67
6.24
4.84
3.25
1.30
-1.05
-3.70
-6.53
-9.44
-12.46
-15.69
-19.26
-23.21
-27.50
-31.92
-36.19
-39.90
-42.63
-44.02
-43.84
-42.11
-39.03
-34.90
-30.02
-24.58
-18.65
-12.26
-5.53
1.30
7.90
13.94
19.20
23.61
27.19
30.06
32.32
34.07
35.40
36.35
36.93
37.11
36.86
36.16
35.11
33.86
32.56
31.25
29.92
28.47
26.83
25.00
23.11
21.26
19.51
17.74
15.73
13.26
10.25
6.76
3.05
-0.59
-3.95
-6.97
-9.77
-12.57
-15.65
-19.23
-23.41
-28.09
-33.02
-37.76
-41.76
-44.52
-45.62
-44.89
-42.43
-38.54
-33.68
-28.32
-22.81
-17.35
-11.98
-6.68
-1.46
3.54
8.12
12.07
15.22
17.48
18.88
19.43
19.20
18.27
16.79
14.96
13.05
11.28
9.78
8.57
7.59
6.74
5.95
5.22
4.60
4.17
4.01
4.15
4.54
5.03
5.38
5.35
4.71
3.34
1.18
-1.73
-5.30
-9.39
-13.78
-18.20
-22.32
-25.84
-28.45
-29.97
-30.33
-29.60
-27.98
-25.75
-23.15
-20.34
-17.35
-14.06
-10.31
-5.97
-1.03
4.31
9.72
14.80
19.21
22.68
25.15
26.68
27.44
27.59
27.25
26.53
25.49
24.19
22.74
21.22
19.71
18.25
16.92
15.75
14.72
13.72
12.56
11.01
8.96
6.46
3.71
0.94
-1.68
-4.13
-6.49
-8.89
-11.34
-13.80
-16.25
-18.75
-21.45
-24.50
-27.97
-31.74
-35.62
-39.40
-42.93
-46.09
-48.68
-50.41
-50.89
-49.85
-47.19
-43.15
-38.10
-32.47
-26.54
-20.40
-14.02
-7.38
-0.57
6.16
12.44
17.95
22.51
26.14
29.00
31.28
33.11
34.51
35.45
35.93
36.06
36.00
35.82
35.46
34.72
33.35
31.21
28.33
24.87
21.03
17.04
13.03
9.18
5.61
2.37
-0.62
-3.60
-6.91
-10.85
-15.51
-20.76
-26.31
-31.83
-37.11
-42.11
-46.97
-51.85
-56.85
-61.81
-66.34
-69.79
-71.38
-70.42
-66.51
-59.66
-50.35
-39.45
-28.03
-17.11
-7.40
0.85
7.80
13.84
19.34
24.49
29.19
33.21
36.33
38.45
39.62
39.89
39.31
37.91
35.77
33.15
30.41
27.94
25.99
24.59
23.59
22.75
21.96
21.19
20.57
20.26
20.39
20.97
21.91
22.97
23.86
24.29
24.06
23.28
22.39
22.18
23.55
27.11
32.82
39.62
45.59
48.43
46.26
38.32
25.37
9.55
-6.18
-18.78
-25.78
-25.69
-18.16
-4.01
14.96
36.21
56.90
74.35
86.57
92.50
92.10
86.16
76.06
63.40
49.84
36.76
25.07
15.08
6.60
-0.90
-7.97
-14.93
-21.79
-28.29
-34.04
-38.67
-41.98
-43.94
-44.69
-44.51
-43.69
-42.56
-41.37
-40.30
-39.43
-38.76
-38.26
-37.94
-37.79
-37.87
-38.19
-38.75
-39.50
-40.42
-41.54
-42.98
-44.90
-47.30
-50.00
-52.52
-54.27
-54.69
-53.49
-50.66
-46.44
-41.16
-35.11
-28.47
-21.43
-14.16
-6.92
-0.02
6.27
11.75
16.37
20.16
23.19
25.52
27.15
28.11
28.45
28.33
27.95
27.47
27.00
26.55
26.13
25.72
25.31
24.89
24.34
23.54
22.38
20.83
18.99
16.95
14.78
12.44
9.84
6.96
3.92
0.93
-1.81
-4.21
-6.38
-8.51
-10.86
-13.60
-16.87
-20.71
-25.07
-29.76
-34.34
-38.25
-40.84
-41.64
-40.47
-37.54
-33.32
-28.42
-23.28
-18.18
-13.16
-8.21
-3.39
1.17
5.21
8.56
11.09
12.90
14.13
15.03
15.75
16.41
17.03
17.58
18.02
18.32
18.43
18.29
17.87
17.13
16.07
14.72
13.14
11.41
9.57
7.66
5.66
3.56
1.37
-0.88
-3.11
-5.25
-7.26
-9.17
-11.04
-13.00
-15.14
-17.51
-20.13
-22.99
-26.01
-29.06
-31.88
-34.14
-35.47
-35.55
-34.29
-31.76
-28.22
-23.97
-19.25
-14.17
-8.74
-2.95
3.10
9.18
14.90
19.85
23.67
26.27
27.79
28.60
29.10
29.60
30.16
30.70
31.02
31.02
30.70
30.08
29.13
27.72
25.70
23.04
19.88
16.54
13.33
10.45
7.80
5.18
2.35
-0.84
-4.35
-8.06
-11.84
-15.61
-19.36
-23.07
-26.72
-30.27
-33.66
-36.81
-39.60
-41.83
-43.20
-43.40
-42.22
-39.60
-35.69
-30.81
-25.33
-19.57
-13.72
-7.86
-1.99
3.87
9.64
15.18
20.37
25.11
29.35
33.02
36.02
38.26
39.67
40.26
40.19
39.62
38.75
37.65
36.36
34.88
33.23
31.42
29.53
27.62
25.75
23.99
22.39
20.88
19.32
17.49
15.26
12.60
9.71
6.86
4.32
2.21
0.47
-1.04
-2.53
-4.19
-6.22
-8.77
-11.96
-15.74
-19.92
-24.09
-27.72
-30.28
-31.38
-30.83
-28.70
-25.29
-20.98
-16.17
-11.09
-5.84
-0.37
5.37
11.30
17.15
22.48
26.88
30.03
31.86
32.48
32.10
30.84
28.75
25.74
21.75
16.86
11.36
5.71
0.40
-4.16
-7.76
-10.35
-11.91
-12.44
-11.87
-10.16
-7.45
-4.07
-0.56
2.47
4.54
5.40
5.13
4.07
2.65
1.28
0.16
-0.73
-1.59
-2.70
-4.28
-6.46
-9.28
-12.71
-16.67
-20.97
-25.27
-29.03
-31.68
-32.74
-32.05
-29.81
-26.52
-22.73
-18.86
-15.08
-11.34
-7.57
-3.73
0.10
3.75
7.10
10.11
12.79
15.12
16.97
18.15
18.44
17.76
16.22
14.10
11.82
9.69
7.89
6.36
4.88
3.20
1.15
-1.31
-4.13
-7.25
-10.64
-14.29
-18.08
-21.82
-25.21
-28.00
-30.05
-31.46
-32.47
-33.37
-34.35
-35.52
-36.90
-38.54
-40.53
-42.98
-45.92
-49.13
-52.20
-54.58
-55.72
-55.28
-53.16
-49.57
-44.88
-39.42
-33.42
-26.99
-20.16
-13.02
-5.76
1.38
8.14
14.35
19.89
24.67
28.51
31.27
32.93
33.64
33.76
33.71
33.83
34.25
34.87
35.48
35.89
35.96
35.65
34.94
33.86
32.50
31.01
29.60
28.44
27.56
26.81
25.94
24.70
22.88
20.48
17.61
14.50
11.35
8.30
5.39
2.59
-0.14
-2.91
-5.79
-8.91
-12.41
-16.31
-20.42
-24.35
-27.50
-29.34
-29.58
-28.27
-25.73
-22.34
-18.35
-13.87
-8.96
-3.82
1.21
5.68
9.30
12.03
14.14
15.94
17.72
19.53
21.25
22.67
23.59
23.87
23.52
22.69
21.63
20.65
19.96
19.60
19.43
19.12
18.43
17.26
15.70
14.00
12.37
10.92
9.65
8.44
7.16
5.69
3.96
1.88
-0.60
-3.42
-6.47
-9.55
-12.45
-15.04
-17.35
-19.52
-21.73
-24.06
-26.38
-28.39
-29.72
-30.11
-29.53
-28.13
-26.11
-23.54
-20.31
-16.20
-11.13
-5.21
1.17
7.51
13.40
18.58
22.96
26.48
29.15
31.00
32.12
32.69
32.91
32.94
32.80
32.42
31.73
30.73
29.43
27.92
26.23
24.33
22.21
19.90
17.52
15.25
13.21
11.41
9.76
8.08
6.16
3.89
1.27
-1.54
-4.32
-6.88
-9.11
-11.06
-12.85
-14.65
-16.59
-18.75
-21.17
-23.85
-26.65
-29.25
-31.23
-32.07
-31.39
-29.13
-25.54
-21.10
-16.31
-11.52
-6.88
-2.39
2.01
6.34
10.56
14.63
18.47
22.01
25.17
27.91
30.15
31.88
33.05
33.60
33.52
32.84
31.70
30.33
28.98
27.79
26.78
25.81
24.72
23.42
21.82
19.97
17.89
15.71
13.53
11.52
9.82
8.45
7.32
6.21
4.91
3.29
1.35
-0.83
-3.12
-5.36
-7.47
-9.35
-10.93
-12.19
-13.10
-13.65
-13.78
-13.34
-12.19
-10.19
-7.33
-3.83
-0.07
3.47
6.38
8.51
10.08
11.60
13.72
17.00
21.63
27.44
33.91
40.42
46.39
51.39
55.15
57.61
58.85
59.09
58.66
57.87
56.98
56.12
55.29
54.38
53.11
51.09
47.85
42.97
36.29
28.01
18.69
9.16
0.12
-7.95
-14.99
-21.15
-26.65
-31.59
-35.88
-39.41
-42.17
-44.32
-46.16
-48.00
-50.00
-52.17
-54.38
-56.47
-58.35
-60.07
-61.80
-63.77
-66.15
-68.91
-71.82
-74.37
-75.98
-76.13
-74.55
-71.33
-66.80
-61.46
-55.68
-49.73
-43.67
-37.54
-31.42
-25.47
-19.88
-14.86
-10.49
-6.81
-3.77
-1.33
0.53
1.85
2.67
3.12
3.41
3.74
4.21
4.83
5.47
5.94
6.06
5.77
5.06
4.05
2.87
1.69
0.61
-0.30
-1.07
-1.82
-2.65
-3.65
-4.83
-6.13
-7.48
-8.90
-10.47
-12.36
-14.69
-17.45
-20.48
-23.43
-25.91
-27.57
-28.24
-27.90
-26.67
-24.72
-22.15
-19.03
-15.40
-11.33
-6.99
-2.56
1.71
5.64
9.01
11.67
13.52
14.55
15.01
15.30
15.94
17.36
19.69
22.70
25.87
28.65
30.58
31.57
31.69
31.19
30.28
29.04
27.53
25.77
23.88
22.04
20.43
19.13
18.10
17.10
15.83
14.04
11.61
8.56
5.08
1.43
-2.12
-5.40
-8.34
-11.04
-13.71
-16.64
-20.07
-24.10
-28.57
-33.11
-37.16
-40.16
-41.66
-41.50
-39.75
-36.63
-32.43
-27.42
-21.81
-15.82
-9.69
-3.67
2.00
7.17
11.76
15.75
19.17
22.00
24.19
25.68
26.40
26.38
25.71
24.59
23.24
21.89
20.63
19.47
18.28
16.91
15.24
13.27
11.14
8.96
6.89
4.95
3.05
1.10
-1.01
-3.30
-5.68
-8.04
-10.26
-12.24
-13.94
-15.34
-16.41
-17.13
-17.50
-17.53
-17.24
-16.60
-15.49
-13.65
-10.81
-6.67
-1.21
5.33
12.26
18.60
23.22
25.18
23.96
19.65
13.02
5.27
-2.17
-8.03
-11.47
-12.21
-10.47
-6.85
-2.12
3.00
7.84
11.92
14.92
16.67
17.26
16.97
16.24
15.55
15.24
15.38
15.81
16.18
16.18
15.67
14.75
13.69
12.76
12.06
11.41
10.49
9.02
6.96
4.56
2.20
0.21
-1.40
-2.83
-4.42
-6.37
-8.61
-10.89
-12.94
-14.70
-16.30
-18.03
-20.17
-22.86
-26.08
-29.72
-33.62
-37.56
-41.28
-44.37
-46.36
-46.81
-45.50
-42.47
-38.06
-32.81
-27.28
-21.89
-16.82
-12.07
-7.52
-3.10
1.21
5.34
9.22
12.77
15.94
18.59
20.53
21.55
21.55
20.66
19.27
17.89
16.98
16.75
17.09
17.69
18.13
18.07
17.34
15.92
13.95
11.65
9.27
7.02
5.04
3.33
1.77
0.21
-1.54
-3.62
-6.10
-8.96
-12.12
-15.47
-18.89
-22.27
-25.53
-28.55
-31.19
-33.23
-34.43
-34.56
-33.46
-31.09
-27.58
-23.15
-18.12
-12.74
-7.28
-1.86
3.40
8.47
13.30
17.84
21.98
25.58
28.54
30.73
32.13
32.78
32.80
32.35
31.59
30.59
29.37
27.95
26.36
24.70
23.06
21.48
19.93
18.27
16.40
14.32
12.15
10.06
8.21
6.64
5.23
3.82
2.24
0.45
-1.50
-3.46
-5.35
-7.09
-8.76
-10.48
-12.36
-14.50
-16.91
-19.62
-22.65
-25.99
-29.57
-33.12
-36.21
-38.24
-38.74
-37.47
-34.54
-30.38
-25.42
-20.05
-14.38
-8.35
-1.86
5.02
12.04
18.78
24.80
29.73
33.25
35.10
35.09
33.16
29.52
24.73
19.59
14.88
11.13
8.44
6.50
4.84
3.13
1.35
-0.21
-1.19
-1.40
-0.99
-0.36
0.04
-0.09
-0.79
-1.84
-3.00
-4.19
-5.57
-7.48
-10.16
-13.62
-17.54
-21.48
-25.07
-28.22
-31.13
-34.17
-37.70
-41.94
-46.96
-52.74
-59.11
-65.59
-71.34
-75.17
-75.87
-72.64
-65.42
-54.96
-42.44
-29.04
-15.54
-2.23
10.83
23.60
35.81
47.04
56.90
65.22
71.96
77.20
80.90
82.85
82.80
80.54
76.11
69.87
62.42
54.49
46.73
39.60
33.33
27.89
23.18
19.03
15.35
12.14
9.40
7.18
5.48
4.32
3.68
3.53
3.71
3.93
3.77
2.84
0.87
-2.13
-5.97
-10.31
-14.86
-19.44
-23.95
-28.32
-32.41
-36.00
-38.85
-40.70
-41.38
-40.76
-38.81
-35.58
-31.30
-26.33
-21.09
-15.92
-11.01
-6.39
-2.04
2.06
5.86
9.24
12.13
14.52
16.45
17.99
19.13
19.80
19.92
19.43
18.38
16.93
15.31
13.74
12.37
11.22
10.20
9.20
8.12
6.96
5.75
4.60
3.56
2.70
2.03
1.55
1.25
1.08
0.93
0.70
0.27
-0.42
-1.41
-2.74
-4.48
-6.75
-9.66
-13.26
-17.43
-21.96
-26.54
-30.86
-34.61
-37.48
-39.26
-39.76
-38.95
-36.88
-33.70
-29.51
-24.43
-18.57
-12.07
-5.18
1.77
8.43
14.52
19.87
24.46
28.38
31.78
34.79
37.46
39.75
41.50
42.50
42.57
41.65
39.90
37.64
35.22
32.87
30.61
28.28
25.64
22.49
18.81
14.72
10.47
6.24
2.15
-1.80
-5.62
-9.36
-13.03
-16.65
-20.27
-23.96
-27.78
-31.72
-35.69
-39.58
-43.30
-46.94
-50.63
-54.49
-58.46
-62.26
-65.39
-67.28
-67.50
-65.84
-62.43
-57.60
-51.80
-45.41
-38.73
-31.89
-24.90
-17.79
-10.63
-3.63
2.85
8.43
12.76
15.67
17.19
17.58
17.21
16.52
15.96
15.86
16.41
17.62
19.37
21.42
23.54
25.49
27.16
28.47
29.43
30.06
30.38
30.41
30.14
29.55
28.58
27.17
25.27
22.91
20.14
17.08
13.84
10.52
7.14
3.67
0.07
-3.71
-7.57
-11.30
-14.49
-16.63
-17.24
-16.05
-13.04
-8.52
-3.01
2.91
8.72
14.09
18.79
22.77
26.02
28.60
30.61
32.17
33.38
34.28
34.89
35.14
34.97
34.35
33.36
32.11
30.76
29.43
28.16
26.93
25.69
24.33
22.77
20.93
18.75
16.26
13.57
10.91
8.51
6.55
5.04
3.80
2.57
1.15
-0.55
-2.42
-4.36
-6.28
-8.27
-10.50
-13.15
-16.29
-19.87
-23.81
-28.04
-32.55
-37.28
-42.06
-46.49
-50.04
-52.16
-52.48
-50.83
-47.36
-42.41
-36.42
-29.80
-22.89
-15.86
-8.80
-1.72
5.35
12.33
19.05
25.37
31.15
36.33
40.82
44.51
47.22
48.82
49.25
48.70
47.50
46.01
44.49
42.95
41.24
39.09
36.33
32.85
28.73
24.10
19.08
13.87
8.62
3.50
-1.31
-5.68
-9.60
-13.06
-16.12
-18.79
-21.03
-22.81
-24.17
-25.24
-26.29
-27.61
-29.45
-31.95
-35.12
-38.77
-42.57
-46.02
-48.59
-49.77
-49.28
-47.10
-43.49
-38.86
-33.59
-27.93
-21.96
-15.72
-9.26
-2.71
3.75
9.92
15.65
20.80
25.19
28.68
31.10
32.44
32.80
32.44
31.63
30.64
29.58
28.46
27.17
25.60
23.68
21.46
19.06
16.66
14.41
12.35
10.42
8.52
6.57
4.68
3.12
2.39
3.08
5.80
10.98
18.72
28.52
39.19
48.90
55.47
56.89
51.83
40.14
22.96
2.52
-18.26
-36.41
-49.40
-55.59
-54.43
-46.36
-32.72
-15.39
3.35
21.21
36.12
46.58
51.90
52.40
49.23
44.01
38.30
33.18
29.04
25.78
23.06
20.66
18.58
16.97
15.97
15.54
15.52
15.63
15.59
15.22
14.42
13.15
11.41
9.20
6.55
3.60
0.51
-2.51
-5.34
-7.95
-10.46
-13.03
-15.82
-18.93
-22.33
-25.90
-29.47
-32.86
-35.94
-38.68
-41.10
-43.30
-45.36
-47.25
-48.81
-49.73
-49.71
-48.51
-46.11
-42.66
-38.43
-33.68
-28.45
-22.70
-16.33
-9.35
-2.00
5.31
12.09
18.02
23.02
27.25
30.91
34.12
36.81
38.77
39.78
39.78
38.83
36.99
34.19
30.19
24.77
18.03
10.66
3.81
-1.16
-3.21
-2.06
1.78
7.11
12.56
16.94
19.50
19.97
18.43
15.22
10.74
5.46
-0.15
-5.74
-11.11
-16.21
-21.17
-26.21
-31.56
-37.39
-43.70
-50.20
-56.38
-61.52
-64.93
-66.20
-65.26
-62.40
-58.12
-52.87
-46.99
-40.67
-34.03
-27.20
-20.37
-13.81
-7.83
-2.72
1.24
3.92
5.38
5.92
5.96
5.85
5.75
5.58
5.11
4.16
2.76
1.11
-0.50
-1.84
-2.87
-3.65
-4.35
-5.09
-5.94
-6.96
-8.20
-9.67
-11.34
-13.17
-15.05
-16.89
-18.66
-20.40
-22.17
-24.12
-26.38
-29.03
-32.11
-35.55
-39.30
-43.27
-47.36
-51.40
-55.11
-58.08
-59.89
-60.17
-58.74
-55.56
-50.76
-44.57
-37.30
-29.36
-21.14
-13.00
-5.11
2.47
9.82
16.94
23.70
29.81
34.96
38.95
41.83
43.83
45.31
46.57
47.75
48.83
49.72
50.33
50.59
50.49
50.05
49.23
47.98
46.30
44.22
41.86
39.36
36.87
34.41
31.95
29.37
26.59
23.56
20.27
16.83
13.30
9.78
6.30
2.79
-0.89
-4.91
-9.37
-14.24
-19.23
-23.88
-27.68
-30.17
-31.11
-30.50
-28.53
-25.51
-21.78
-17.60
-13.16
-8.52
-3.74
1.16
6.01
10.54
14.39
17.27
19.06
19.94
20.44
21.30
23.31
27.15
33.20
41.36
51.02
61.01
69.88
76.24
79.19
78.58
74.99
69.44
62.89
56.02
49.08
42.10
35.09
28.20
21.65
15.55
9.85
4.39
-0.92
-5.97
-10.46
-14.09
-16.77
-18.78
-20.65
-23.01
-26.31
-30.71
-36.05
-41.91
-47.75
-52.99
-57.11
-59.69
-60.49
-59.55
-57.18
-53.86
-50.07
-46.07
-41.80
-37.01
-31.39
-24.83
-17.54
-9.99
-2.71
3.85
9.45
14.03
17.64
20.36
22.31
23.63
24.54
25.23
25.86
26.46
26.95
27.18
27.04
26.48
25.55
24.29
22.76
20.99
18.99
16.79
14.43
11.91
9.20
6.17
2.77
-1.02
-5.05
-9.06
-12.78
-16.03
-18.74
-21.02
-23.04
-25.06
-27.30
-29.97
-33.17
-36.83
-40.63
-44.05
-46.47
-47.32
-46.24
-43.12
-38.12
-31.59
-24.03
-16.03
-8.17
-0.93
5.46
11.02
15.97
20.57
24.85
28.65
31.54
33.12
33.12
31.61
29.01
26.06
23.76
23.11
24.90
29.46
36.41
44.70
52.79
59.06
62.26
61.76
57.68
50.66
41.65
31.63
21.47
11.87
3.39
-3.53
-8.64
-11.83
-13.23
-13.19
-12.21
-10.94
-9.99
-9.84
-10.71
-12.63
-15.45
-19.04
-23.26
-27.98
-32.96
-37.79
-41.93
-44.77
-45.75
-44.37
-40.24
-33.17
-23.26
-11.15
1.96
14.47
24.81
31.94
35.65
36.57
35.75
34.19
32.48
30.66
28.47
25.61
22.00
17.83
13.47
9.26
5.34
1.63
-2.07
-5.92
-9.89
-13.77
-17.27
-20.16
-22.38
-24.00
-25.19
-26.11
-26.92
-27.77
-28.87
-30.33
-32.21
-34.35
-36.42
-37.98
-38.51
-37.52
-34.57
-29.50
-22.54
-14.39
-6.01
1.78
8.72
15.23
22.12
30.05
38.97
47.87
55.19
59.38
59.62
56.02
49.54
41.52
33.23
25.56
19.09
14.09
10.64
8.68
7.95
8.02
8.34
8.41
7.87
6.59
4.70
2.49
0.29
-1.62
-3.07
-4.03
-4.63
-5.09
-5.64
-6.46
-7.61
-9.01
-10.50
-11.93
-13.23
-14.48
-15.90
-17.72
-20.12
-23.05
-26.27
-29.40
-32.10
-34.17
-35.72
-37.06
-38.61
-40.75
-43.67
-47.32
-51.39
-55.41
-58.77
-60.90
-61.35
-59.88
-56.53
-51.59
-45.48
-38.63
-31.41
-24.07
-16.87
-10.03
-3.76
1.74
6.37
10.16
13.21
15.71
17.85
19.73
21.38
22.75
23.81
24.57
25.13
25.55
25.87
26.00
25.82
25.21
24.13
22.57
20.62
18.35
15.85
13.21
10.51
7.77
4.94
1.93
-1.36
-4.93
-8.66
-12.38
-15.90
-19.21
-22.48
-25.99
-29.99
-34.58
-39.51
-44.23
-47.94
-49.86
-49.47
-46.67
-41.77
-35.41
-28.23
-20.74
-13.21
-5.79
1.35
8.02
13.99
19.14
23.47
27.11
30.10
32.36
33.57
33.32
31.30
27.50
22.34
16.64
11.42
7.62
5.86
6.23
8.31
11.36
14.58
17.27
19.07
19.87
19.79
19.01
17.68
15.85
13.44
10.27
6.18
1.13
-4.68
-10.86
-16.93
-22.51
-27.39
-31.57
-35.17
-38.32
-41.12
-43.70
-46.27
-49.01
-51.99
-55.01
-57.52
-58.80
-58.23
-55.60
-51.15
-45.53
-39.46
-33.44
-27.61
-21.88
-16.03
-10.02
-4.00
1.67
6.61
10.49
13.13
14.52
14.87
14.69
14.84
16.40
20.51
27.90
38.58
51.55
65.04
77.02
85.74
90.36
91.04
88.73
84.65
79.77
74.53
68.86
62.49
55.27
47.26
38.75
30.05
21.34
12.66
3.96
-4.67
-13.07
-20.99
-28.17
-34.49
-39.83
-44.02
-46.84
-48.03
-47.42
-45.06
-41.20
-36.22
-30.50
-24.33
-17.98
-11.65
-5.58
0.06
5.08
9.41
12.98
15.80
17.90
19.42
20.55
21.51
22.48
23.49
24.41
25.07
25.29
25.03
24.34
23.33
22.10
20.73
19.29
17.86
16.54
15.44
14.55
13.81
13.05
12.08
10.74
9.01
6.95
4.68
2.33
-0.00
-2.28
-4.51
-6.68
-8.81
-10.95
-13.23
-15.81
-18.84
-22.32
-26.03
-29.46
-31.98
-32.99
-32.15
-29.47
-25.33
-20.22
-14.62
-8.80
-2.87
3.18
9.30
15.36
21.14
26.36
30.72
33.90
35.55
35.32
32.96
28.40
21.80
13.59
4.40
-5.01
-13.82
-21.24
-26.64
-29.60
-29.92
-27.66
-23.06
-16.50
-8.42
0.69
10.35
20.02
29.19
37.34
44.08
49.17
52.57
54.41
54.91
54.21
52.33
49.13
44.38
37.86
29.45
19.18
7.19
-6.20
-20.50
-34.92
-48.46
-60.04
-68.75
-74.11
-76.22
-75.64
-73.18
-69.58
-65.36
-60.75
-55.76
-50.34
-44.46
-38.10
-31.28
-24.10
-16.80
-9.75
-3.37
2.10
6.77
11.12
15.77
21.09
26.94
32.51
36.63
38.16
36.43
31.50
24.10
15.37
6.48
-1.64
-8.51
-14.09
-18.71
-22.92
-27.24
-32.05
-37.39
-43.02
-48.43
-53.02
-56.32
-58.03
-58.22
-57.20
-55.47
-53.61
-52.14
-51.43
-51.50
-52.06
-52.43
-51.74
-49.16
-44.21
-36.82
-27.34
-16.39
-4.55
7.77
20.33
32.98
45.52
57.60
68.82
78.76
87.08
93.57
98.07
100.42
100.41
97.82
92.55
84.72
74.73
63.29
51.22
39.32
28.23
18.37
9.92
2.92
-2.71
-7.13
-10.53
-13.14
-15.16
-16.73
-17.89
-18.65
-18.95
-18.76
-18.16
-17.43
-17.02
-17.47
-19.18
-22.17
-26.01
-29.86
-32.71
-33.78
-32.68
-29.49
-24.64
-18.67
-12.02
-4.91
2.58
10.44
18.54
26.58
34.11
40.66
45.81
49.35
51.31
51.85
51.22
49.69
47.51
44.95
42.32
39.94
38.07
36.82
36.04
35.43
34.57
33.13
30.98
28.20
25.02
21.66
18.21
14.63
10.79
6.64
2.25
-2.15
-6.33
-10.15
-13.59
-16.76
-19.74
-22.57
-25.25
-27.82
-30.49
-33.58
-37.45
-42.24
-47.69
-53.15
-57.73
-60.66
-61.58
-60.69
-58.65
-56.14
-53.59
-50.96
-47.81
-43.51
-37.58
-29.92
-20.79
-10.74
-0.40
9.60
18.83
27.02
34.11
40.23
45.62
50.55
55.17
59.38
62.83
65.01
65.45
63.94
60.60
55.91
50.48
44.84
39.29
33.93
28.69
23.50
18.36
13.29
8.29
3.36
-1.54
-6.35
-10.94
-15.19
-19.00
-22.46
-25.79
-29.33
-33.41
-38.29
-43.98
-50.30
-56.76
-62.75
-67.62
-70.85
-72.21
-71.74
-69.66
-66.19
-61.40
-55.29
-47.87
-39.34
-30.08
-20.63
-11.41
-2.70
5.47
13.23
20.75
28.22
35.76
43.44
51.18
58.74
65.70
71.65
76.39
80.09
83.16
86.00
88.63
90.53
90.80
88.53
83.22
74.97
64.39
52.30
39.41
26.18
12.95
0.05
-12.02
-22.65
-31.31
-37.76
-42.17
-45.10
-47.30
-49.42
-51.86
-54.57
-57.18
-59.13
-59.90
-59.13
-56.74
-52.85
-47.68
-41.47
-34.49
-26.96
-19.14
-11.35
-3.90
2.93
8.94
14.05
18.32
21.96
25.15
27.97
30.33
31.95
32.58
32.04
30.45
28.17
25.70
23.43
21.51
19.84
18.19
16.35
14.27
12.09
10.01
8.21
6.70
5.35
3.90
2.08
-0.32
-3.43
-7.30
-11.93
-17.26
-23.06
-29.00
-34.63
-39.55
-43.47
-46.36
-48.43
-50.07
-51.70
-53.54
-55.57
-57.43
-58.57
-58.43
-56.62
-53.06
-48.00
-41.85
-35.01
-27.75
-20.21
-12.44
-4.59
3.09
10.29
16.76
22.44
27.43
31.90
35.97
39.60
42.62
44.85
46.20
46.73
46.66
46.29
45.89
45.68
45.73
45.94
46.06
45.77
44.79
43.08
40.88
38.64
36.78
35.49
34.60
33.58
31.87
29.09
25.33
21.11
17.21
14.37
13.04
13.21
14.42
15.89
16.80
16.53
14.93
12.35
9.53
7.45
7.00
8.77
12.92
19.05
26.32
33.55
39.52
43.18
43.94
41.72
36.92
30.27
22.60
14.71
7.26
0.70
-4.73
-9.01
-12.25
-14.58
-15.99
-16.39
-15.65
-13.80
-11.22
-8.52
-6.48
-5.76
-6.75
-9.48
-13.73
-19.12
-25.24
-31.58
-37.63
-42.88
-46.92
-49.64
-51.24
-52.22
-53.16
-54.55
-56.59
-59.12
-61.81
-64.18
-65.90
-66.77
-66.80
-66.07
-64.75
-62.96
-60.81
-58.35
-55.52
-52.17
-48.12
-43.23
-37.49
-31.09
-24.32
-17.47
-10.75
-4.34
1.57
6.71
10.71
13.26
14.30
14.06
12.98
11.50
9.84
8.01
5.87
3.44
0.97
-1.08
-2.23
-2.13
-0.78
1.56
4.39
7.23
9.67
11.53
12.78
13.55
13.91
13.85
13.23
11.82
9.49
6.24
2.29
-2.06
-6.53
-10.99
-15.46
-20.01
-24.70
-29.54
-34.51
-39.54
-44.52
-49.24
-53.29
-56.14
-57.18
-55.93
-52.18
-46.05
-37.91
-28.30
-17.77
-6.84
4.02
14.41
23.96
32.40
39.67
45.86
51.34
56.65
62.43
69.27
77.50
86.95
96.87
106.00
112.84
116.07
114.93
109.38
100.03
87.90
74.21
60.18
46.99
35.71
27.22
21.91
19.51
19.07
19.17
18.41
15.81
11.10
4.65
-2.82
-10.57
-18.18
-25.51
-32.64
-39.54
-46.03
-51.67
-55.96
-58.52
-59.20
-58.11
-55.54
-51.83
-47.29
-42.16
-36.59
-30.72
-24.60
-18.26
-11.65
-4.68
2.72
10.50
18.35
25.75
32.04
36.60
39.19
40.04
39.81
39.33
39.23
39.66
40.24
40.29
39.09
36.17
31.39
24.92
17.06
8.17
-1.30
-10.75
-19.46
-26.65
-31.67
-34.20
-34.32
-32.50
-29.51
-26.11
-22.94
-20.38
-18.56
-17.39
-16.68
-16.15
-15.53
-14.49
-12.68
-9.73
-5.42
0.19
6.67
13.27
19.07
23.33
25.71
26.33
25.62
24.02
21.80
18.90
15.19
10.60
5.38
-0.02
-5.07
-9.40
-12.93
-15.77
-18.08
-19.89
-21.06
-21.30
-20.34
-18.07
-14.59
-10.27
-5.53
-0.83
3.57
7.57
11.27
14.77
18.11
21.16
23.63
25.25
25.81
25.30
23.83
21.57
18.69
15.35
11.73
8.10
4.78
1.97
-0.34
-2.51
-5.12
-8.75
-13.68
-19.69
-26.09
-31.84
-35.95
-37.75
-37.08
-34.27
-29.96
-24.80
-19.24
-13.48
-7.55
-1.48
4.58
10.27
15.10
18.66
20.73
21.36
20.91
19.84
18.66
17.76
17.28
17.18
17.27
17.32
17.12
16.58
15.67
14.34
12.51
10.05
6.85
2.89
-1.64
-6.41
-11.03
-15.23
-18.99
-22.56
-26.38
-30.85
-36.11
-42.05
-48.30
-54.45
-60.18
-65.24
-69.38
-72.28
-73.55
-72.87
-70.15
-65.60
-59.69
-52.97
-45.97
-39.13
-32.91
-27.72
-23.85
-21.25
-19.42
-17.37
-13.89
-7.90
1.11
12.84
26.22
39.62
51.31
59.85
64.40
64.82
61.63
55.87
48.86
41.86
35.87
31.38
28.32
26.12
23.97
21.09
17.00
11.70
5.57
-0.80
-6.86
-12.32
-17.24
-22.00
-27.18
-33.34
-40.73
-49.14
-57.75
-65.35
-70.69
-72.79
-71.31
-66.57
-59.33
-50.49
-40.80
-30.71
-20.43
-10.17
-0.28
8.67
16.07
21.44
24.71
26.15
26.39
26.10
25.83
25.82
26.05
26.39
26.77
27.29
28.18
29.67
31.90
34.78
38.09
41.46
44.54
47.02
48.65
49.26
48.81
47.29
44.79
41.38
37.08
31.83
25.54
18.17
9.89
1.01
-8.08
-17.16
-26.31
-36.04
-47.00
-59.75
-74.36
-90.32
-106.52
-121.66
-134.61
-144.75
-152.13
-157.33
-161.06
-163.79
-165.39
-165.19
-162.28
-155.99
-146.30
-133.97
-120.29
-106.77
-94.82
-85.59
-79.73
-77.07
-76.20
-74.37
-68.10
-54.50
-32.77
-5.02
24.22
49.62
67.20
75.62
76.30
72.20
66.35
60.78
56.43
53.65
52.66
53.64
56.46
60.38
64.07
66.10
65.49
62.14
56.76
50.55
44.74
40.12
36.91
34.77
33.00
30.84
27.81
24.01
20.13
17.31
16.74
19.16
24.60
32.34
41.25
50.28
58.79
66.75
74.55
82.62
91.11
99.80
108.09
115.27
120.77
124.30
125.88
125.77
124.34
121.94
118.86
115.31
111.44
107.38
103.13
98.60
93.59
87.95
81.74
75.37
69.64
65.48
63.69
64.54
67.65
72.08
76.65
80.39
82.79
83.96
84.45
85.02
86.35
88.90
92.91
98.30
104.70
111.31
116.94
120.24
120.06
115.94
108.41
98.94
89.53
82.01
77.38
75.29
74.09
71.41
65.14
54.33
39.60
22.77
6.05
-8.77
-20.81
-30.09
-37.08
-42.49
-47.09
-51.83
-57.75
-65.59
-75.31
-85.82
-95.31
-102.12
-105.59
-106.46
-106.40
-107.17
-109.62
-113.41
-117.28
-119.85
-120.26
-118.55
-115.39
-111.64
-107.94
-104.50
-101.30
-98.27
-95.50
-93.09
-90.98
-88.66
-85.32
-80.21
-73.12
-64.71
-56.33
-49.57
-45.47
-44.15
-44.74
-45.83
-46.14
-45.03
-42.61
-39.54
-36.56
-34.17
-32.51
-31.39
-30.56
-29.78
-28.87
-27.75
-26.33
-24.55
-22.45
-20.17
-18.03
-16.37
-15.50
-15.55
-16.33
-17.42
-18.13
-17.81
-15.98
-12.51
-7.71
-2.18
3.32
8.18
12.04
14.88
16.90
18.31
19.28
19.79
19.75
19.02
17.52
15.26
12.32
8.97
5.57
2.63
0.71
0.22
1.33
3.93
7.68
12.15
16.93
21.61
25.82
29.18
31.42
32.40
32.24
31.22
29.70
28.00
26.21
24.26
21.98
19.22
15.94
12.24
8.32
4.40
0.59
-3.10
-6.77
-10.50
-14.34
-18.16
-21.73
-24.77
-27.10
-28.69
-29.66
-30.30
-30.92
-31.76
-32.95
-34.40
-35.85
-36.92
-37.18
-36.34
-34.23
-30.89
-26.52
-21.40
-15.83
-10.11
-4.49
0.92
6.06
10.92
15.43
19.49
22.89
25.47
27.18
28.08
28.36
28.22
27.78
27.09
26.12
24.88
23.42
21.84
20.21
18.55
16.87
15.18
13.51
11.99
10.69
9.60
8.58
7.35
5.66
3.41
0.75
-2.01
-4.52
-6.63
-8.44
-10.29
-12.60
-15.62
-19.33
-23.44
-27.47
-30.92
-33.38
-34.64
-34.64
-33.45
-31.21
-28.08
-24.22
-19.80
-15.08
-10.43
-6.20
-2.69
-0.01
1.98
3.52
4.79
5.85
6.62
6.91
6.67
5.93
4.88
3.76
2.75
1.98
1.54
1.42
1.53
1.72
1.75
1.42
0.65
-0.56
-2.04
-3.58
-5.00
-6.21
-7.18
-7.97
-8.72
-9.62
-10.87
-12.66
-15.04
-17.89
-20.88
-23.49
-25.19
-25.56
-24.43
-21.96
-18.55
-14.67
-10.71
-6.87
-3.19
0.28
3.47
6.24
8.51
10.27
11.65
12.84
13.91
14.82
15.42
15.58
15.27
14.59
13.71
12.76
11.80
10.85
9.89
8.94
8.03
7.18
6.33
5.33
4.07
2.46
0.56
-1.52
-3.62
-5.62
-7.50
-9.33
-11.23
-13.35
-15.83
-18.73
-22.04
-25.58
-29.04
-31.93
-33.69
-33.86
-32.18
-28.77
-24.03
-18.54
-12.86
-7.43
-2.44
2.08
6.19
9.98
13.42
16.46
18.97
20.82
21.91
22.25
21.88
20.94
19.64
18.18
16.71
15.33
14.03
12.76
11.52
10.27
9.04
7.84
6.72
5.67
4.66
3.59
2.34
0.78
-1.14
-3.37
-5.74
-8.08
-10.26
-12.29
-14.29
-16.48
-19.00
-21.91
-25.07
-28.26
-31.07
-33.07
-33.79
-32.90
-30.35
-26.39
-21.54
-16.35
-11.29
-6.52
-2.04
2.27
6.48
10.50
14.19
17.38
20.02
22.12
23.71
24.80
25.34
25.32
24.82
23.99
23.03
22.10
21.25
20.42
19.46
18.32
17.02
15.73
14.67
13.92
13.39
12.84
12.02
10.78
9.18
7.41
5.68
4.07
2.52
0.89
-0.92
-2.92
-5.06
-7.28
-9.61
-12.20
-15.17
-18.54
-22.04
-25.22
-27.54
-28.52
-27.95
-25.91
-22.76
-18.97
-14.94
-10.92
-6.94
-2.93
1.18
5.37
9.52
13.43
16.92
19.84
22.10
23.66
24.54
24.81
24.61
24.15
23.61
23.16
22.91
22.86
22.98
23.17
23.23
22.96
22.14
20.69
18.73
16.53
14.45
12.75
11.45
10.35
9.13
7.54
5.50
3.16
0.77
-1.44
-3.37
-5.07
-6.69
-8.41
-10.38
-12.69
-15.33
-18.21
-21.12
-23.81
-25.95
-27.27
-27.57
-26.78
-24.97
-22.29
-18.97
-15.20
-11.17
-6.94
-2.60
1.77
6.00
9.85
13.08
15.52
17.16
18.12
18.63
18.95
19.24
19.54
19.78
19.84
19.59
19.05
18.28
17.41
16.50
15.53
14.39
13.02
11.44
9.78
8.17
6.69
5.27
3.77
2.08
0.18
-1.84
-3.90
-5.95
-7.98
-9.98
-11.87
-13.53
-14.88
-16.00
-17.20
-18.86
-21.31
-24.56
-28.31
-31.99
-34.92
-36.53
-36.51
-34.87
-31.86
-27.90
-23.47
-18.93
-14.53
-10.35
-6.36
-2.49
1.33
5.06
8.62
11.84
14.55
16.57
17.85
18.41
18.42
18.12
17.71
17.32
16.94
16.49
15.87
15.05
14.11
13.16
12.29
11.51
10.74
9.80
8.58
7.01
5.18
3.27
1.41
-0.37
-2.17
-4.21
-6.67
-9.61
-13.03
-16.78
-20.75
-24.80
-28.75
-32.29
-35.03
-36.55
-36.60
-35.19
-32.66
-29.52
-26.30
-23.30
-20.56
-17.94
-15.24
-12.39
-9.58
-7.28
-6.02
-6.19
-7.82
-10.51
-13.47
-15.89
-17.18
-17.05
-15.41
-12.08
-6.68
1.28
12.15
25.78
41.39
57.76
73.48
87.35
98.48
106.26
110.36
110.74
107.90
102.91
97.36
92.95
90.91
91.54
94.23
97.86
101.38
104.26
106.58
108.73
110.88
112.78
113.82
113.33
111.07
107.33
102.80
98.36
94.77
92.54
91.99
93.27
96.38
101.13
107.15
114.02
121.36
128.95
136.62
144.08
150.78
155.87
158.42
157.73
153.62
146.63
137.89
128.84
120.93
115.20
112.08
111.28
111.87
112.52
111.88
108.99
103.51
95.85
86.91
77.64
68.60
59.60
49.74
37.78
22.66
4.06
-17.34
-39.98
-61.69
-80.26
-94.00
-102.29
-105.88
-106.86
-108.21
-112.98
-123.32
-139.82
-161.30
-185.21
-208.48
-228.33
-243.09
-252.35
-256.82
-257.86
-256.84
-254.72
-251.85
-248.09
-243.03
-236.36
-228.02
-218.13
-207.00
-194.91
-182.26
-169.50
-157.22
-145.98
-136.17
-127.81
-120.58
-113.92
-107.27
-100.27
-92.89
-85.41
-78.24
-71.85
-66.50
-62.23
-58.91
-56.34
-54.43
-53.20
-52.74
-52.98
-53.59
-53.94
-53.30
-51.17
-47.43
-42.39
-36.55
-30.37
-24.04
-17.53
-10.77
-3.78
3.20
9.83
15.79
20.91
25.17
28.61
31.22
32.96
33.79
33.75
33.03
31.95
30.83
29.93
29.33
28.96
28.60
27.98
26.85
25.08
22.69
19.82
16.71
13.55
10.47
7.47
4.52
1.57
-1.36
-4.22
-6.88
-9.32
-11.56
-13.68
-15.84
-18.18
-20.82
-23.78
-26.92
-29.93
-32.29
-33.44
-32.91
-30.54
-26.56
-21.48
-15.94
-10.41
-5.10
0.07
5.22
10.40
15.45
20.05
23.90
26.82
28.81
30.02
30.65
30.89
30.86
30.68
30.38
30.02
29.63
29.28
28.97
28.74
28.51
28.14
27.47
26.40
24.93
23.17
21.29
19.42
17.62
15.90
14.25
12.69
11.24
9.85
8.40
6.75
4.77
2.40
-0.35
-3.50
-7.02
-10.83
-14.68
-18.07
-20.36
-20.98
-19.63
-16.50
-12.15
-7.33
-2.70
1.37
4.77
7.59
9.89
11.69
12.89
13.46
13.53
13.37
13.37
13.83
14.88
16.38
18.05
19.59
20.83
21.77
22.51
23.12
23.67
24.15
24.56
25.04
25.77
26.93
28.56
30.40
31.82
31.81
29.17
22.86
12.39
-1.84
-18.58
-35.89
-51.72
-64.38
-72.84
-76.79
-76.44
-72.29
-65.03
-55.49
-44.63
-33.42
-22.70
-13.01
-4.51
2.90
9.45
15.31
20.49
24.87
28.27
30.55
31.70
31.84
31.22
30.08
28.64
27.04
25.33
23.61
21.94
20.43
19.04
17.66
16.00
13.66
10.31
5.70
-0.17
-7.09
-14.65
-22.33
-29.59
-35.99
-41.26
-45.36
-48.49
-50.98
-53.18
-55.27
-57.20
-58.63
-59.02
-57.79
-54.54
-49.23
-42.22
-34.12
-25.67
-17.43
-9.64
-2.26
4.95
12.23
19.63
27.01
34.06
40.41
45.71
49.62
51.96
52.67
51.92
50.16
47.96
45.88
44.19
42.78
41.21
38.90
35.42
30.70
24.99
18.75
12.43
6.32
0.46
-5.20
-10.79
-16.33
-21.76
-27.01
-32.06
-36.99
-41.92
-46.81
-51.42
-55.19
-57.46
-57.67
-55.58
-51.37
-45.53
-38.67
-31.36
-23.99
-16.77
-9.84
-3.34
2.62
7.90
12.50
16.49
20.02
23.25
26.25
28.90
30.98
32.22
32.50
31.92
30.81
29.64
28.82
28.61
28.94
29.52
29.90
29.61
28.35
26.07
23.04
19.66
16.37
13.45
10.81
8.13
4.90
0.69
-4.67
-10.98
-17.66
-23.84
-28.58
-31.11
-30.99
-28.32
-23.57
-17.46
-10.69
-3.78
2.98
9.42
15.41
20.76
25.23
28.69
31.11
32.61
33.34
33.43
32.91
31.74
29.90
27.40
24.42
21.22
18.18
15.62
13.73
12.40
11.34
10.10
8.30
5.77
2.64
-0.79
-4.22
-7.50
-10.66
-13.93
-17.58
-21.85
-26.80
-32.22
-37.66
-42.40
-45.65
-46.77
-45.44
-41.76
-36.08
-28.85
-20.42
-10.99
-0.79
9.84
20.33
29.97
38.11
44.23
48.17
50.07
50.38
49.67
48.60
47.70
47.21
46.96
46.37
44.73
41.42
36.28
29.69
22.39
15.19
8.63
2.90
-2.20
-6.95
-11.54
-15.99
-20.21
-24.25
-28.46
-33.43
-39.75
-47.66
-56.77
-66.13
-74.40
-80.33
-83.14
-82.81
-79.98
-75.62
-70.64
-65.53
-60.37
-54.93
-49.03
-42.82
-36.86
-31.96
-28.78
-27.58
-28.08
-29.68
-31.80
-34.16
-36.85
-40.06
-43.86
-47.88
-51.43
-53.64
-53.88
-52.11
-49.13
-46.66
-47.20
-53.37
-67.13
-88.76
-116.25
-145.45
-170.85
-187.13
-190.69
-180.87
-160.23
-134.15
-109.31
-91.76
-84.93
-88.31
-97.45
-105.47
-105.76
-94.61
-72.74
-44.71
-16.79
5.73
20.37
27.65
30.09
30.71
32.09
36.18
44.52
58.31
78.08
103.11
131.18
158.93
182.97
201.00
212.56
218.91
222.15
224.26
226.49
229.11
231.71
233.60
234.15
232.85
229.46
223.99
216.83
208.75
200.74
193.68
188.05
183.65
179.67
174.95
168.43
159.34
147.45
133.04
116.88
100.00
83.44
67.87
53.33
39.08
23.94
6.85
-12.50
-33.35
-54.00
-72.26
-86.23
-94.79
-97.86
-96.20
-91.03
-83.45
-74.23
-63.77
-52.17
-39.62
-26.33
-12.63
1.28
15.45
30.15
45.68
62.07
78.81
94.81
108.59
118.73
124.25
124.84
120.95
113.52
103.77
92.86
81.73
70.99
60.87
51.30
41.95
32.47
22.53
12.04
1.07
-10.12
-21.21
-31.86
-41.86
-51.10
-59.61
-67.52
-75.03
-82.34
-89.56
-96.63
-103.30
-109.04
-113.15
-114.87
-113.56
-108.97
-101.29
-91.10
-79.17
-66.16
-52.46
-38.20
-23.41
-8.16
7.31
22.61
37.21
50.50
61.82
70.47
75.87
77.71
76.13
71.68
65.28
57.93
50.48
43.45
37.04
31.15
25.59
20.12
14.62
9.21
4.25
0.30
-2.09
-2.68
-1.60
0.54
2.94
4.88
5.99
6.34
6.32
6.40
6.96
8.13
9.79
11.48
12.49
11.92
8.98
3.27
-4.90
-14.52
-24.13
-32.31
-38.09
-41.22
-41.98
-40.98
-38.78
-35.82
-32.39
-28.78
-25.35
-22.51
-20.57
-19.63
-19.57
-20.10
-20.86
-21.58
-22.21
-22.85
-23.73
-24.99
-26.62
-28.40
-30.03
-31.23
-31.87
-32.05
-32.10
-32.46
-33.54
-35.66
-38.86
-42.94
-47.53
-52.21
-56.75
-61.16
-65.69
-70.75
-76.72
-83.70
-91.54
-99.79
-107.88
-115.27
-121.62
-126.76
-130.69
-133.52
-135.21
-135.55
-134.21
-130.97
-125.94
-119.69
-113.11
-107.34
-103.43
-102.03
-103.10
-105.64
-107.67
-106.35
-98.48
-81.25
-53.44
-16.10
27.41
72.18
113.23
146.79
171.18
186.70
195.23
198.86
199.24
197.61
195.02
192.60
191.31
191.64
193.22
195.37
196.60
195.14
189.72
180.01
166.68
150.89
134.03
117.17
101.99
89.21
78.65
69.71
62.13
56.38
53.38
54.21
58.96
67.60
77.96
86.15
88.17
81.77
67.44
47.91
27.10
2.02
-25.13
-49.28
-65.98
-74.09
-75.00
-70.55
-62.20
-51.19
-40.08
-29.82
-21.34
-15.55
-12.66
-12.53
-14.15
-16.59
-19.35
-24.07
-31.05
-40.56
-52.90
-68.20
-86.17
-106.71
-130.33
-147.00
-154.29
-152.58
-144.44
-132.93
-120.29
-107.32
-94.35
-81.24
-67.73
-55.26
-44.22
-34.53
-26.01
-18.26
-10.42
-2.09
7.14
17.69
28.59
39.66
51.15
63.02
73.10
83.07
93.54
104.72
116.63
128.45
139.80
150.80
160.99
170.29
179.11
187.36
195.05
202.32
208.94
215.00
220.86
225.89
229.70
232.21
232.76
230.56
224.53
212.93
193.18
169.52
143.13
114.81
85.38
55.33
25.21
-4.34
-32.60
-58.77
-81.85
-101.94
-118.90
-132.52
-142.79
-149.86
-153.95
-155.34
-154.34
-151.07
-146.49
-141.21
-135.66
-130.20
-125.07
-120.42
-116.20
-112.17
-107.85
-103.16
-97.81
-91.55
-84.19
-75.76
-66.43
-56.39
-45.80
-34.66
-23.15
-11.37
0.42
11.73
21.84
29.89
35.17
37.36
36.65
33.57
28.89
23.34
17.20
10.32
2.30
-7.27
-18.46
-30.80
-43.48
-55.73
-67.08
-77.73
-88.42
-100.22
-114.21
-131.33
-152.18
-176.70
-203.74
-230.81
-254.21
-269.94
-274.89
-268.01
-250.62
-225.86
-197.50
-168.66
-141.27
-116.23
-93.97
-74.85
-59.24
-47.15
-37.91
-30.23
-22.61
-13.79
-3.20
8.80
20.74
30.21
34.54
31.80
21.87
6.84
-9.56
-23.43
-32.24
-35.80
-35.92
-35.17
-35.44
-37.08
-39.23
-40.70
-41.01
-40.64
-40.70
-42.14
-45.15
-49.14
-53.13
-56.27
-58.34
-59.85
-61.85
-65.41
-71.25
-79.45
-89.42
-100.22
-110.91
-120.90
-130.16
-139.11
-148.43
-158.63
-169.81
-181.58
-193.20
-203.89
-213.05
-220.54
-226.58
-231.76
-236.92
-243.05
-251.17
-261.97
-275.41
-290.27
-304.19
-314.09
-317.20
-311.99
-298.79
-279.51
-256.90
-233.44
-210.67
-189.08
-168.51
-148.73
-129.73
-111.74
-94.90
-79.10
-63.92
-48.94
-34.03
-19.44
-5.79
6.20
16.06
23.70
29.48
33.97
37.73
41.11
44.18
46.73
48.54
49.45
49.58
49.22
48.77
48.59
48.85
49.57
50.58
51.68
52.70
53.55
54.25
54.84
55.38
55.90
56.46
57.06
57.75
58.60
59.68
60.98
62.51
64.24
66.14
68.29
70.89
74.13
78.20
83.15
88.82
94.90
101.04
107.03
112.89
118.87
125.40
132.86
141.39
150.87
160.95
171.31
181.80
192.63
204.23
217.08
231.52
247.66
265.46
284.81
305.49
327.01
348.50
368.79
386.63
401.21
412.34
420.41
425.88
428.62
427.40
419.96
403.71
376.85
339.46
293.94
244.61
196.38
153.41
118.11
91.26
72.73
62.08
58.87
61.92
68.75
75.46
77.74
72.55
59.47
40.84
20.77
3.21
-9.45
-16.95
-20.51
-21.81
-22.13
-22.15
-22.14
-22.51
-24.06
-27.97
-35.39
-46.76
-61.40
-77.34
-91.84
-102.22
-106.82
-105.36
-98.77
-88.31
-74.67
-57.67
-36.58
-11.29
16.85
44.66
67.97
83.13
88.54
85.26
76.47
65.64
54.98
44.46
32.14
15.57
-6.75
-34.41
-65.07
-95.14
-120.78
-138.49
-145.52
-139.96
-120.78
-88.15
-43.80
8.79
64.71
118.32
164.45
199.43
221.56
231.05
229.22
217.86
198.71
173.34
143.26
110.07
75.42
40.99
8.54
-20.25
-43.82
-61.11
-71.89
-77.06
-78.55
-78.71
-79.67
-82.62
-87.76
-94.33
-100.98
-106.08
-108.18
-106.36
-100.59
-91.92
-82.09
-72.89
-65.33
-59.32
-53.75
-47.21
-38.75
-28.37
-17.16
-6.92
0.46
3.53
1.78
-4.24
-13.01
-22.49
-30.82
-36.88
-40.53
-42.21
-42.54
-41.62
-39.02
-33.99
-26.02
-15.39
-3.32
8.13
16.50
19.49
15.74
5.34
-9.85
-26.41
-40.36
-48.43
-49.16
-43.32
-33.43
-22.65
-13.83
-8.89
-8.60
-12.64
-19.61
-27.24
-32.73
-33.59
-28.43
-17.62
-3.20
11.99
25.49
36.15
44.40
51.62
59.22
67.75
76.59
84.56
90.65
94.81
98.04
101.94
107.78
115.87
125.45
134.92
142.29
145.55
142.76
132.41
113.71
87.11
54.55
19.27
-14.93
-44.61
-67.48
-82.53
-89.82
-90.15
-84.79
-75.61
-64.99
-55.48
-49.23
-47.41
-49.83
-55.28
-62.13
-68.94
-74.78
-79.16
-81.82
-82.58
-81.54
-79.09
-75.66
-71.19
-64.69
-54.45
-39.07
-18.73
4.06
25.00
39.76
45.94
44.18
37.59
29.95
23.80
19.52
15.87
11.32
5.38
-1.25
-7.03
-10.64
-11.61
-10.24
-7.08
-2.47
3.66
11.34
20.18
29.07
36.35
40.25
39.42
33.40
22.91
9.85
-3.07
-13.01
-18.03
-17.94
-14.50
-10.74
-9.56
-12.34
-18.24
-24.82
-29.33
-30.28
-28.14
-24.96
-23.20
-24.65
-29.91
-38.52
-49.55
-61.93
-74.31
-84.95
-91.58
-91.85
-84.17
-68.44
-46.41
-21.30
3.27
24.37
40.61
52.14
60.07
65.47
68.80
69.77
67.87
63.01
55.95
48.10
41.14
36.26
33.81
33.30
33.82
34.56
35.21
35.90
36.82
37.76
37.98
36.48
32.59
26.54
19.64
13.88
11.06
12.00
16.14
21.83
27.04
30.14
30.20
27.14
21.50
14.23
6.53
-0.48
-6.19
-10.82
-15.39
-21.39
-29.99
-41.26
-53.95
-65.66
-73.78
-76.34
-72.67
-63.41
-50.05
-34.36
-17.88
-1.86
12.57
24.30
32.22
35.74
35.16
31.92
28.29
26.47
27.78
32.19
38.56
45.39
51.64
57.07
61.99
66.65
70.77
73.55
74.09
71.97
67.39
60.99
53.31
44.40
33.86
21.43
7.78
-5.18
-14.61
-17.93
-14.07
-4.29
7.99
18.57
24.24
24.04
19.52
13.66
9.24
7.41
7.25
6.38
2.17
-7.11
-21.61
-40.03
-60.10
-79.32
-95.59
-107.53
-114.53
-116.57
-114.02
-107.61
-98.37
-87.50
-76.28
-65.69
-56.07
-47.04
-37.74
-27.58
-16.87
-6.93
0.27
3.13
1.19
-4.51
-11.93
-18.92
-24.07
-26.94
-27.81
-27.22
-25.39
-22.24
-17.60
-11.76
-5.81
-1.47
-0.63
-4.56
-13.36
-25.71
-39.16
-50.96
-58.91
-61.93
-60.28
-55.09
-48.00
-40.63
-34.56
-31.20
-31.63
-36.20
-44.11
-53.29
-60.87
-64.01
-60.95
-51.44
-36.71
-18.79
0.29
18.92
36.04
50.87
62.67
70.76
74.74
74.86
72.15
68.21
64.61
62.33
61.45
61.26
60.96
60.14
59.12
58.62
59.15
60.54
61.79
61.62
59.14
54.37
48.14
41.61
35.66
30.70
26.72
23.54
20.99
18.72
16.05
12.08
6.10
-1.77
-10.32
-17.55
-21.51
-21.32
-17.66
-12.47
-8.06
-6.13
-7.35
-11.69
-19.04
-29.64
-43.64
-60.21
-76.72
-88.97
-92.55
-84.69
-65.82
-39.52
-11.26
13.72
32.08
42.98
47.40
47.27
44.57
41.11
38.46
37.78
39.57
43.37
47.84
51.29
52.33
50.46
46.21
40.98
36.58
34.60
35.85
40.00
45.59
50.46
52.70
51.47
47.31
41.80
36.60
32.49
29.12
25.42
20.18
12.63
2.60
-9.39
-22.04
-33.11
-39.78
-39.38
-30.64
-14.59
5.31
24.22
37.59
42.83
40.00
31.39
20.43
10.57
4.68
4.79
11.90
25.67
44.17
64.13
81.71
93.68
98.27
95.70
88.01
78.27
69.70
64.76
64.53
68.29
73.80
77.95
77.88
72.20
61.55
48.41
36.00
27.21
23.72
26.03
33.66
45.46
59.69
74.05
86.13
94.03
96.97
95.29
89.95
81.54
69.79
53.64
31.91
3.99
-30.00
-69.37
-113.03
-158.96
-203.83
-242.91
-271.23
-285.40
-285.08
-273.19
-254.54
-233.62
-212.91
-192.57
-171.24
-147.43
-120.32
-89.81
-56.21
-19.91
18.28
56.79
93.22
124.92
150.00
167.95
179.79
187.29
192.07
194.76
194.68
190.26
179.57
161.21
134.68
100.68
61.10
18.66
-23.40
-61.83
-93.68
-116.66
-129.46
-132.03
-125.54
-112.18
-94.43
-74.32
-53.02
-30.94
-8.42
13.66
33.60
49.43
59.98
65.53
67.78
68.78
69.94
71.49
73.06
74.49
76.20
78.67
81.31
81.86
76.83
63.17
39.98
9.28
-24.80
-57.97
-87.62
-113.63
-137.68
-161.76
-186.62
-211.36
-233.95
-252.24
-265.15
-273.14
-278.11
-282.84
-290.56
-304.58
-327.80
-361.57
-404.47
-451.51
-494.77
-525.65
-537.91
-530.06
-505.82
-472.20
-436.39
-403.08
-373.51
-346.54
-320.59
-295.17
-271.13
-249.67
-231.18
-214.67
-198.18
-179.90
-159.10
-136.51
-114.19
-94.44
-78.89
-67.66
-59.26
-50.86
-39.50
-23.09
-1.19
24.94
53.07
81.16
108.21
134.81
162.92
195.01
233.21
278.81
332.26
392.99
459.01
526.22
588.31
637.96
668.75
677.07
663.45
632.09
589.00
539.99
489.02
438.11
388.73
342.27
299.71
261.00
224.53
186.81
143.70
90.99
25.63
-51.43
-135.37
-218.30
-290.83
-344.28
-373.84
-378.84
-363.76
-336.29
-301.79
-262.53
-218.74
-170.38
-118.62
-67.23
-19.50
21.61
54.51
82.37
110.72
143.22
179.75
216.70
247.41
267.78
275.80
254.81
198.50
115.97
27.10
-48.69
-93.86
-114.68
-120.57
-118.62
-112.14
-100.60
-77.88
-38.97
17.18
87.48
165.56
247.40
330.20
410.89
471.24
493.83
467.35
394.50
291.50
178.95
75.66
-7.51
-68.79
-110.69
-135.45
-145.44
-143.27
-132.76
-119.78
-110.06
-108.95
-120.68
-145.70
-178.41
-210.35
-232.46
-238.24
-226.09
-199.08
-161.22
-123.77
-96.42
-82.07
-77.61
-76.65
-73.79
-67.37
-59.29
-53.13
-52.16
-56.33
-62.23
-65.76
-64.26
-57.77
-48.74
-40.85
-37.07
-38.95
-45.33
-52.83
-57.84
-57.85
-52.36
-42.89
-32.14
-22.60
-15.54
-10.10
-3.56
7.05
23.51
45.71
71.94
99.87
127.26
151.87
169.76
178.12
173.90
155.65
124.98
86.90
48.29
15.05
-10.55
-30.40
-48.33
-67.23
-86.27
-100.93
-105.65
-97.53
-78.61
-55.43
-36.08
-26.24
-27.45
-36.27
-46.82
-54.42
-57.54
-57.76
-57.76
-59.06
-60.78
-60.36
-55.05
-43.65
-27.27
-8.86
7.90
20.25
27.24
29.90
30.61
31.92
35.33
40.55
45.71
48.21
46.07
38.78
27.83
16.25
7.53
4.14
6.44
12.54
18.99
22.50
20.98
14.57
5.73
-2.12
-5.93
-4.12
3.10
13.82
24.86
31.54
28.21
10.34
-23.86
-71.63
-125.37
-174.31
-208.22
-221.15
-214.18
-194.52
-170.55
-148.58
-130.50
-114.53
-97.55
-79.11
-60.19
-43.14
-30.17
-19.72
-7.92
9.47
34.15
63.96
94.12
119.77
138.32
150.90
164.44
187.51
226.91
285.08
359.60
444.21
530.52
608.82
653.57
644.65
574.70
455.07
311.31
170.88
52.66
-36.53
-99.44
-143.14
-171.77
-186.89
-189.01
-180.17
-164.99
-149.23
-137.59
-132.22
-132.61
-134.50
-133.10
-125.32
-111.17
-93.53
-76.38
-63.12
-55.42
-53.02
-53.05
-52.32
-48.56
-41.45
-32.84
-24.85
-19.25
-16.74
-16.83
-17.61
-17.19
-14.18
-8.20
0.11
9.71
19.59
29.20
38.51
48.06
58.04
68.54
79.38
90.12
100.30
109.64
118.12
126.05
133.91
141.58
148.98
155.96
162.22
167.40
170.93
171.99
169.21
165.07
160.09
154.43
148.08
141.05
133.47
125.65
118.08
111.26
105.65
100.74
95.91
90.42
83.65
75.30
65.57
55.10
44.74
35.27
26.59
18.25
9.58
-0.01
-10.67
-21.90
-32.69
-41.84
-48.29
-51.98
-53.40
-53.73
-54.59
-57.68
-64.15
-73.85
-84.75
-92.99
-93.79
-82.75
-57.48
-18.74
29.54
81.26
129.95
170.52
200.37
219.49
229.75
233.84
234.19
232.37
229.01
224.06
217.14
207.84
195.75
180.42
161.26
137.74
109.76
77.75
42.81
6.44
-29.81
-64.70
-97.37
-127.30
-154.02
-176.84
-194.80
-206.83
-212.04
-210.02
-201.10
-186.31
-167.17
-145.38
-122.28
-98.64
-74.65
-50.13
-24.88
1.04
26.99
51.80
74.01
92.28
105.74
114.22
118.21
118.57
116.11
111.17
103.64
93.04
78.97
61.51
41.34
19.64
-2.40
-24.15
-45.97
-69.09
-95.32
-126.22
-162.46
-203.53
-248.05
-294.25
-340.82
-387.33
-434.09
-481.96
-532.23
-586.36
-645.53
-709.71
-776.38
-839.64
-890.92
-921.16
-924.06
-898.58
-849.32
-784.83
-714.24
-644.42
-578.81
-518.29
-462.98
-413.66
-372.03
-339.67
-317.02
-302.82
-294.65
-289.96
-287.02
-285.09
-284.23
-284.50
-285.27
-285.14
-282.13
-274.40
-260.91
-241.76
-218.14
-191.82
-164.42
-136.74
-108.64
-79.08
-46.82
-11.04
28.14
69.45
110.79
149.86
184.85
214.92
240.29
261.98
281.06
298.12
312.85
324.11
330.50
331.15
326.36
317.67
307.50
298.22
291.30
286.79
283.58
280.23
275.91
271.15
267.78
268.19
274.59
288.46
310.54
340.62
377.11
416.18
451.23
473.78
475.81
453.09
407.64
347.43
283.59
226.15
180.99
149.45
130.44
123.27
129.00
149.37
184.04
228.49
274.01
310.18
328.44
324.66
299.91
258.97
207.81
151.29
92.18
31.36
-30.98
-93.88
-154.71
-209.41
-253.88
-285.69
-305.16
-315.04
-318.75
-318.29
-312.77
-298.94
-273.08
-233.41
-181.51
-122.05
-61.20
-4.43
44.62
84.39
114.58
135.27
146.72
149.60
145.56
137.01
126.65
116.54
107.70
100.27
94.12
89.31
86.23
85.22
86.07
88.13
90.48
92.56
94.23
95.37
95.26
92.11
83.59
67.67
43.75
13.13
-21.24
-55.38
-85.34
-108.07
-122.28
-128.85
-130.82
-132.57
-138.35
-150.51
-168.16
-187.03
-200.78
-203.25
-190.81
-163.60
-125.18
-80.89
-35.77
7.17
47.38
86.16
125.04
164.31
202.21
235.34
259.79
272.53
272.43
260.26
238.00
207.96
172.16
132.32
90.37
48.88
11.00
-20.14
-42.47
-55.72
-61.63
-63.23
-63.84
-65.87
-70.16
-75.87
-81.06
-83.73
-82.70
-78.25
-71.85
-65.47
-60.62
-57.63
-55.54
-52.77
-47.90
-40.32
-30.43
-19.18
-7.60
3.66
14.27
24.08
32.99
40.92
48.01
54.58
60.82
66.32
69.73
69.03
62.34
48.97
30.18
9.03
-10.48
-25.02
-33.41
-37.18
-39.90
-45.34
-55.38
-68.96
-82.34
-91.02
-92.16
-86.42
-78.10
-73.99
-81.29
-105.46
-148.80
-209.47
-281.19
-354.00
-416.33
-458.33
-475.18
-468.68
-446.29
-417.75
-391.20
-370.56
-355.50
-343.27
-331.05
-317.34
-301.78
-284.12
-263.47
-238.44
-208.18
-173.20
-135.60
-98.34
-64.35
-35.38
-11.60
8.21
26.04
43.85
62.68
82.40
101.92
119.80
134.98
147.36
157.93
168.37
180.45
195.29
212.94
232.31
251.52
268.59
281.99
291.15
296.45
298.93
299.97
300.86
302.78
306.71
313.10
321.36
329.53
334.36
332.26
320.58
298.92
269.46
236.27
203.87
175.63
153.12
136.21
124.04
115.78
111.13
109.95
111.79
115.52
119.45
121.97
122.02
119.38
114.63
108.64
102.12
95.39
88.33
80.72
72.54
64.05
55.73
48.08
41.44
35.89
31.27
27.32
23.73
20.23
16.66
13.02
9.46
6.16
3.28
0.78
-1.50
-3.89
-6.63
-9.89
-13.62
-17.65
-21.84
-26.08
-30.38
-34.74
-39.07
-43.00
-45.96
-47.31
-46.57
-43.59
-38.73
-32.59
-25.87
-19.09
-12.43
-5.80
0.92
7.88
14.96
21.87
28.17
33.48
37.49
40.13
41.52
41.91
41.67
41.12
40.47
39.71
38.74
37.37
35.45
32.98
30.06
26.94
23.90
21.15
18.80
16.74
14.72
12.48
9.82
6.70
3.25
-0.35
-3.96
-7.45
-10.83
-14.10
-17.28
-20.40
-23.57
-26.88
-30.39
-34.03
-37.45
-40.14
-41.49
-40.96
-38.35
-33.78
-27.75
-20.88
-13.81
-6.98
-0.62
5.14
10.28
14.74
18.46
21.35
23.43
24.76
25.56
26.01
26.26
26.39
26.33
26.00
25.31
24.23
22.82
21.27
19.71
18.17
16.59
14.73
12.39
9.44
5.91
1.99
-2.01
-5.83
-9.36
-12.64
-15.93
-19.54
-23.70
-28.50
-33.71
-38.88
-43.35
-46.48
-47.74
-46.92
-44.12
-39.72
-34.21
-28.07
-21.63
-15.13
-8.66
-2.26
3.95
9.75
14.83
18.90
21.76
23.35
23.80
23.36
22.35
21.05
19.66
18.28
16.95
15.71
14.64
13.77
13.10
12.55
11.94
11.07
9.74
7.83
5.30
2.23
-1.24
-4.93
-8.69
-12.39
-15.99
-19.52
-23.09
-26.88
-30.99
-35.39
-39.88
-44.00
-47.22
-48.97
-48.79
-46.51
-42.21
-36.28
-29.26
-21.75
-14.23
-7.05
-0.34
5.91
11.71
17.08
21.89
25.99
29.19
31.40
32.63
33.00
32.75
32.13
31.32
30.49
29.68
28.81
27.78
26.45
24.74
22.66
20.29
17.83
15.42
13.08
10.71
8.19
5.38
2.29
-0.94
-4.09
-6.99
-9.60
-12.06
-14.62
-17.59
-21.24
-25.70
-30.95
-36.76
-42.59
-47.73
-51.37
-52.82
-51.78
-48.39
-43.17
-36.74
-29.69
-22.35
-14.90
-7.46
-0.18
6.73
13.08
18.77
23.76
28.03
31.58
34.31
36.15
37.10
37.28
36.90
36.20
35.35
34.45
33.48
32.39
31.10
29.57
27.73
25.59
23.24
20.77
18.31
15.92
13.57
11.17
8.59
5.78
2.77
-0.28
-3.23
-6.07
-8.96
-12.15
-15.81
-19.92
-24.24
-28.43
-32.25
-35.64
-38.62
-41.16
-42.97
-43.49
-42.09
-38.35
-32.35
-24.67
-16.33
-8.40
-1.80
3.12
6.51
9.03
11.49
14.48
18.06
21.61
24.11
24.54
22.29
17.45
10.76
3.31
-3.78
-9.58
-13.54
-15.64
-16.73
-18.71
-24.33
