1589228684.00
64.000000
-0.00
-0.00
-0.00
-0.00
-0.00
-0.00
-0.00
-0.00
-0.00
-0.00
0.00
0.01
0.01
-0.00
-0.03
-0.05
-0.05
0.00
0.13
0.36
0.66
1.01
1.37
1.72
2.06
2.40
2.79
3.24
3.80
4.42
5.06
5.66
6.20
6.68
7.15
7.68
8.31
9.14
10.09
11.04
11.88
12.56
13.14
13.76
14.65
15.96
17.91
20.32
22.90
25.38
27.58
29.57
31.68
34.32
37.81
42.54
48.15
54.10
59.83
64.97
69.58
74.14
79.34
85.71
93.76
103.00
112.62
121.73
129.77
136.75
143.30
150.75
157.77
166.64
177.95
191.79
206.97
220.57
228.25
225.36
208.53
176.87
132.76
80.05
23.07
-34.94
-92.44
-149.16
-205.23
-260.37
-313.74
-363.87
-409.83
-450.91
-486.50
-515.74
-537.23
-549.22
-549.96
-538.37
-514.21
-478.67
-433.88
-382.45
-327.02
-269.84
-212.63
-156.66
-102.95
-52.37
-5.90
35.58
71.43
101.35
125.50
144.38
158.69
169.15
176.38
180.77
182.61
182.10
179.50
175.16
169.50
162.94
155.84
148.46
140.94
133.34
125.67
117.96
110.26
102.64
95.20
88.02
81.14
74.58
68.32
62.33
56.56
51.03
45.74
40.76
36.16
31.97
28.18
24.72
21.46
18.30
15.18
12.16
9.38
6.99
5.10
3.68
2.55
1.46
0.17
-1.43
-3.23
-4.98
-6.37
-7.17
-7.40
-7.35
-7.45
-8.08
-9.42
-11.30
-13.28
-14.89
-15.78
-15.93
-15.62
-15.32
-15.48
-16.45
-18.47
-21.55
-25.31
-28.79
-30.46
-28.70
-22.49
-12.10
0.81
13.75
24.38
31.40
34.83
35.64
35.00
33.70
31.98
29.82
27.23
24.43
21.75
19.44
17.55
15.98
14.65
13.47
12.40
11.37
10.37
9.42
8.68
8.29
8.27
8.39
8.21
7.35
5.70
3.58
1.72
0.89
1.63
3.96
7.30
10.71
13.32
14.63
14.68
13.97
13.15
12.70
12.78
13.23
13.78
14.27
14.71
15.17
15.71
16.15
16.18
15.40
13.67
10.86
7.12
2.78
-1.85
-6.43
-10.67
-14.26
-16.92
-18.47
-18.93
-18.51
-17.56
-16.43
-15.40
-14.56
-13.98
-13.63
-13.53
-13.67
-13.94
-14.14
-14.04
-13.48
-12.43
-11.04
-9.56
-8.19
-7.10
-6.30
-5.78
-5.50
-5.42
-5.50
-5.68
-5.85
-5.84
-5.51
-4.69
-3.35
-1.58
0.36
2.10
3.26
3.56
2.94
1.57
-0.21
-2.07
-3.74
-5.14
-6.25
-7.09
-7.62
-7.75
-7.40
-6.58
-5.53
-4.58
-4.10
-4.30
-5.12
-6.30
-7.43
-8.14
-8.15
-7.33
-5.60
-2.93
0.66
4.99
9.69
14.20
17.95
20.51
21.71
21.62
20.41
18.31
15.49
12.17
8.72
5.52
2.98
1.26
0.26
-0.37
-1.06
-2.16
-3.80
-5.86
-8.12
-10.28
-12.08
-13.31
-13.73
-13.17
-11.54
-8.91
-5.56
-1.92
1.53
4.41
6.44
7.54
7.65
6.79
5.01
2.48
-0.49
-3.48
-6.03
-7.82
-8.83
-9.36
-9.85
-10.78
-12.39
-14.62
-17.10
-19.29
-20.61
-20.62
-19.09
-16.03
-11.72
-6.62
-1.29
3.71
7.95
11.21
13.44
14.78
15.38
15.44
15.09
14.43
13.57
12.58
11.54
10.46
9.39
8.34
7.36
6.51
5.81
5.21
4.60
3.87
3.04
2.29
1.99
2.53
4.23
7.20
11.27
16.02
20.87
25.16
28.23
29.66
29.34
27.65
25.39
23.50
22.77
23.46
25.24
27.33
28.83
29.14
28.09
25.97
23.24
20.29
17.33
14.33
11.04
6.94
1.21
-7.11
-18.65
-33.12
-48.85
-63.05
-72.72
-75.89
-72.64
-65.26
-57.26
-51.88
-50.86
-53.97
-59.61
-65.88
-71.44
-75.77
-78.88
-80.72
-81.02
-79.37
-75.51
-69.66
-62.48
-54.78
-47.26
-40.18
-33.45
-26.69
-19.50
-11.65
-3.23
5.33
13.34
20.04
24.84
27.55
28.34
27.68
26.15
24.26
22.43
20.97
20.13
20.11
20.91
22.31
23.82
24.78
24.57
22.86
19.71
15.57
11.14
7.16
4.23
2.75
2.86
4.50
7.39
11.04
14.85
18.18
20.55
21.75
21.88
21.27
20.31
19.32
18.45
17.73
17.06
16.33
15.46
14.42
13.22
11.91
10.52
9.04
7.42
5.59
3.57
1.52
-0.21
-1.18
-1.05
0.33
2.77
5.86
9.05
11.83
13.79
14.73
14.65
13.71
12.22
10.60
9.23
8.33
7.91
7.81
7.78
7.61
7.21
6.62
5.87
4.91
3.67
2.04
0.06
-2.02
-3.80
-4.88
-4.98
-4.06
-2.30
0.01
2.62
5.29
7.88
10.19
11.98
13.01
13.15
12.46
11.14
9.53
7.95
6.62
5.60
4.83
4.23
3.69
3.11
2.40
1.48
0.32
-1.03
-2.41
-3.56
-4.11
-3.76
-2.37
-0.08
2.73
5.49
7.72
9.13
9.71
9.61
9.02
8.08
6.82
5.30
3.66
2.16
1.07
0.57
0.60
0.95
1.32
1.44
1.21
0.66
-0.11
-0.98
-1.85
-2.66
-3.32
-3.66
-3.54
-2.84
-1.61
-0.04
1.54
2.77
3.38
3.26
2.49
1.25
-0.23
-1.76
-3.17
-4.37
-5.23
-5.67
-5.63
-5.13
-4.30
-3.42
-2.79
-2.70
-3.25
-4.36
-5.65
-6.66
-6.92
-6.17
-4.39
-1.85
1.09
3.97
6.43
8.15
8.93
8.68
7.43
5.36
2.81
0.19
-2.10
-3.77
-4.77
-5.18
-5.19
-4.97
-4.63
-4.23
-3.81
-3.52
-3.52
-3.91
-4.65
-5.48
-5.97
-5.70
-4.44
-2.20
0.69
3.77
6.59
8.79
10.20
10.81
10.73
10.14
9.22
8.14
7.00
5.85
4.69
3.57
2.50
1.56
0.77
0.12
-0.51
-1.26
-2.24
-3.46
-4.81
-6.01
-6.74
-6.70
-5.76
-3.98
-1.66
0.79
2.97
4.53
5.28
5.20
4.37
2.98
1.31
-0.37
-1.81
-2.86
-3.50
-3.81
-3.91
-3.98
-4.16
-4.58
-5.31
-6.39
-7.70
-9.02
-10.05
-10.49
-10.14
-8.99
-7.21
-5.07
-2.87
-0.88
0.67
1.63
1.92
1.52
0.52
-0.93
-2.68
-4.54
-6.36
-8.00
-9.34
-10.30
-10.91
-11.30
-11.74
-12.54
-13.97
-16.14
-18.93
-22.01
-24.94
-27.27
-28.64
-28.93
-28.15
-26.51
-24.28
-21.75
-19.16
-16.63
-14.19
-11.77
-9.27
-6.57
-3.60
-0.29
3.34
7.24
11.26
15.13
18.45
20.81
21.88
21.52
19.90
17.39
14.53
11.78
9.38
7.40
5.71
4.19
2.78
1.52
0.46
-0.48
-1.48
-2.88
-5.09
-8.43
-13.09
-18.95
-25.63
-32.51
-38.87
-44.10
-47.90
-50.37
-51.87
-52.73
-52.98
-52.28
-49.95
-45.26
-37.60
-26.70
-12.71
3.69
21.33
38.79
54.92
69.38
82.94
97.05
112.93
130.46
147.59
160.87
166.82
163.54
151.71
134.42
116.07
101.06
92.85
93.61
104.05
123.32
148.88
176.58
201.40
218.70
225.66
221.91
209.52
191.85
172.36
153.59
136.95
122.97
111.57
102.32
94.30
86.21
76.59
64.38
49.38
32.53
15.71
1.09
-9.63
-15.91
-18.48
-19.03
-19.62
-21.95
-27.04
-35.06
-45.58
-57.82
-70.82
-83.68
-95.58
-105.90
-114.11
-119.86
-122.85
-122.82
-119.59
-113.03
-103.10
-89.91
-73.71
-54.91
-34.22
-12.60
8.72
28.53
45.89
60.39
72.07
81.28
88.27
92.98
95.01
93.85
89.10
80.68
68.96
54.75
39.14
23.41
8.82
-3.65
-13.58
-21.26
-27.63
-33.96
-41.22
-49.67
-58.65
-66.93
-73.44
-77.79
-80.44
-82.22
-83.53
-83.75
-81.24
-74.20
-61.76
-44.76
-25.69
-7.70
6.67
16.64
23.27
28.86
35.74
45.29
57.57
71.56
85.73
98.62
109.07
116.17
119.18
117.58
111.40
101.37
89.00
76.09
64.13
53.74
44.55
35.54
25.59
14.01
0.62
-14.39
-30.74
-48.30
-66.91
-86.32
-106.06
-125.54
-144.24
-161.90
-178.45
-193.76
-207.43
-218.72
-226.86
-231.31
-232.14
-230.01
-226.18
-222.23
-219.77
-219.97
-223.23
-228.85
-235.13
-239.96
-241.65
-239.72
-235.08
-229.46
-224.48
-220.75
-217.64
-213.69
-207.52
-198.45
-186.65
-172.75
-157.18
-139.72
-119.53
-95.53
-67.02
-34.23
1.62
38.58
74.62
108.14
138.32
165.06
188.55
208.87
225.72
238.54
246.79
250.34
249.59
245.47
239.10
231.66
224.21
217.49
211.88
207.08
202.17
195.72
186.26
172.82
155.28
134.47
111.81
88.88
66.84
46.25
27.05
8.77
-9.20
-27.48
-46.55
-66.53
-86.93
-106.52
-123.29
-135.00
-139.92
-137.56
-129.09
-117.02
-104.25
-93.03
-84.35
-77.95
-72.98
-68.84
-65.46
-63.22
-62.29
-62.22
-61.94
-60.16
-55.99
-49.10
-39.74
-28.20
-14.64
0.77
17.41
33.88
47.88
56.79
58.41
51.88
38.12
19.64
0.06
-16.72
-27.41
-30.16
-25.11
-14.48
-2.07
7.86
11.82
8.26
-1.87
-15.46
-28.13
-35.52
-34.40
-23.28
-2.57
25.76
58.69
92.55
123.29
147.03
160.77
163.08
154.77
138.97
120.32
103.48
91.38
84.33
80.34
76.34
69.94
60.65
49.76
39.25
30.21
21.73
11.11
-5.02
-29.05
-61.16
-98.82
-137.57
-172.23
-198.41
-213.65
-217.98
-213.78
-205.01
-195.98
-190.10
-188.93
-191.87
-196.53
-199.76
-198.81
-192.22
-180.22
-164.45
-147.43
-131.84
-119.81
-112.48
-109.82
-110.61
-112.87
-114.32
-113.01
-107.74
-98.20
-84.91
-69.03
-52.09
-35.71
-21.31
-9.77
-1.31
4.62
9.04
13.09
17.60
22.89
28.77
34.76
40.35
45.14
48.98
51.94
54.29
56.47
58.89
61.90
65.60
69.95
74.89
80.42
86.51
92.91
98.97
103.55
105.38
103.39
96.99
86.05
70.61
50.71
26.45
-1.67
-32.34
-63.43
-92.45
-117.23
-136.45
-149.61
-156.50
-156.50
-148.47
-131.13
-103.84
-67.35
-23.77
24.03
73.51
123.09
171.95
219.32
263.64
302.56
333.86
356.81
372.75
384.44
394.36
403.00
408.37
407.30
397.68
380.29
359.05
339.31
325.25
317.95
314.98
311.90
304.47
290.39
269.82
244.71
217.48
189.96
163.02
136.60
110.19
83.16
55.02
25.47
-5.42
-37.27
-69.27
-100.40
-129.78
-156.95
-182.11
-206.13
-230.29
-255.82
-283.42
-312.74
-342.06
-368.43
-388.40
-399.18
-399.73
-391.22
-376.53
-359.01
-341.07
-323.45
-305.48
-286.02
-264.43
-241.09
-217.09
-193.58
-171.25
-150.19
-130.20
-111.01
-92.53
-74.64
-57.25
-40.20
-23.49
-7.29
8.16
22.64
36.02
48.08
58.30
65.79
69.48
68.75
63.78
55.71
46.22
36.86
28.28
19.98
10.55
-1.67
-17.77
-37.75
-60.42
-83.65
-104.79
-121.13
-130.38
-130.95
-122.37
-105.46
-82.33
-55.91
-29.29
-4.84
16.10
33.30
47.01
57.48
64.74
68.74
69.74
68.42
65.72
62.44
59.07
55.87
53.26
52.11
53.47
58.16
66.10
76.22
86.68
95.65
101.80
104.66
104.37
101.44
96.36
89.49
81.01
70.91
59.04
45.31
29.98
14.01
-0.94
-12.88
-20.17
-22.10
-19.25
-13.16
-5.75
1.39
7.37
11.92
15.08
16.83
16.97
15.31
11.90
7.20
1.96
-3.16
-7.80
-12.11
-16.52
-21.41
-26.83
-32.47
-37.86
-42.67
-46.96
-51.17
-55.81
-61.06
-66.53
-71.23
-73.84
-73.18
-68.56
-60.03
-48.30
-34.51
-19.95
-5.86
6.75
17.10
24.67
29.26
30.93
30.03
27.10
22.79
17.80
12.87
8.66
5.70
4.22
4.04
4.55
4.87
4.10
1.53
-3.09
-9.50
-16.95
-24.33
-30.39
-33.92
-34.07
-30.49
-23.36
-13.37
-1.57
10.80
22.53
32.54
40.12
44.98
47.27
47.45
46.02
43.39
39.80
35.38
30.38
25.25
20.55
16.76
14.03
12.05
10.13
7.42
3.24
-2.69
-10.13
-18.32
-26.09
-32.10
-35.07
-34.10
-28.88
-19.80
-7.85
5.55
18.92
30.91
40.55
47.28
51.01
52.01
50.86
48.29
45.05
41.65
38.36
35.12
31.81
28.33
24.81
21.51
18.62
16.07
13.41
9.97
5.24
-0.83
-7.59
-13.80
-18.01
-19.08
-16.52
-10.57
-2.02
8.09
18.68
28.79
37.57
44.28
48.32
49.37
47.46
43.05
36.94
29.99
22.99
16.47
10.68
5.60
1.02
-3.40
-8.01
-13.14
-18.95
-25.37
-32.16
-38.87
-44.94
-49.67
-52.32
-52.08
-48.31
-40.76
-29.86
-16.85
-3.44
8.53
17.73
23.64
26.46
26.78
25.19
22.02
17.55
12.28
7.16
3.41
1.98
3.03
5.74
8.62
10.17
9.50
6.55
1.93
-3.61
-9.46
-15.29
-20.73
-25.19
-27.82
-27.77
-24.55
-18.26
-9.44
1.12
12.62
24.26
35.14
44.19
50.27
52.51
50.67
45.27
37.48
28.65
19.94
12.14
5.71
0.98
-1.84
-2.73
-2.12
-0.95
-0.48
-1.65
-4.57
-8.33
-11.29
-11.76
-8.73
-2.22
6.87
17.24
27.67
37.27
45.40
51.64
55.76
57.89
58.72
59.36
60.99
64.33
69.32
75.05
80.14
83.14
82.90
78.84
70.92
59.67
46.08
31.44
17.03
3.81
-7.70
-17.35
-25.01
-30.35
-32.73
-31.46
-26.25
-17.49
-6.39
5.30
15.80
23.84
28.98
31.72
33.06
34.12
35.64
37.78
40.24
42.56
44.37
45.53
46.09
46.20
45.99
45.63
45.16
44.49
43.34
41.30
38.22
34.47
30.97
28.85
28.81
30.69
33.55
36.28
38.28
39.82
41.70
44.59
48.48
52.62
55.95
57.70
57.69
56.20
53.62
50.05
45.24
38.88
30.75
20.86
9.26
-4.11
-19.56
-37.42
-57.70
-79.74
-102.25
-123.56
-142.16
-157.12
-168.07
-175.10
-178.23
-177.32
-172.14
-162.70
-149.53
-133.62
-116.15
-98.03
-79.73
-61.46
-43.56
-26.84
-12.42
-1.33
6.07
10.33
12.75
14.85
17.69
21.57
26.03
30.29
33.74
36.27
38.22
40.20
42.69
45.84
49.34
52.51
54.63
55.13
53.87
51.17
47.78
44.52
41.98
40.37
39.46
38.93
38.64
38.87
40.17
43.06
47.60
53.33
59.48
65.38
70.80
75.91
81.04
86.32
91.53
96.23
100.00
102.79
104.85
106.55
108.06
109.10
108.84
106.00
99.08
86.76
68.33
43.99
15.10
-16.15
-47.30
-76.40
-102.75
-127.21
-152.07
-180.23
-214.22
-255.08
-301.77
-351.04
-398.03
-437.30
-464.07
-475.21
-469.71
-448.55
-414.10
-369.41
-317.64
-261.64
-203.78
-145.88
-89.31
-35.15
15.54
61.57
101.65
134.66
160.09
178.21
190.06
197.06
200.44
200.86
198.46
193.28
185.68
176.58
167.23
158.69
151.32
144.70
138.07
130.88
123.20
115.70
109.25
104.29
100.51
96.91
92.24
85.47
76.20
64.75
51.90
38.59
25.58
13.32
1.90
-8.75
-18.67
-27.71
-35.49
-41.62
-45.96
-48.76
-50.67
-52.39
-54.33
-56.37
-57.92
-58.12
-56.18
-51.66
-44.64
-35.69
-25.78
-16.00
-7.36
-0.53
4.25
7.12
8.45
8.73
8.40
7.97
8.07
9.44
12.72
18.09
25.07
32.51
38.86
42.78
43.45
40.82
35.47
28.23
19.90
11.09
2.29
-6.00
-13.21
-18.69
-21.89
-22.61
-21.08
-17.96
-14.12
-10.34
-7.10
-4.34
-1.50
2.26
7.70
15.19
24.47
34.76
45.01
54.36
62.31
68.76
73.98
78.40
82.68
87.63
94.23
103.32
115.24
129.37
144.01
156.66
164.81
166.81
162.51
153.30
141.58
129.95
120.30
113.44
109.20
106.79
105.30
103.90
101.85
98.31
92.30
83.02
70.23
54.67
37.94
22.00
8.51
-1.76
-8.99
-14.00
-17.65
-20.50
-22.66
-24.09
-24.87
-25.30
-25.86
-27.00
-28.91
-31.45
-34.19
-36.47
-37.63
-37.12
-34.75
-30.81
-26.01
-21.36
-17.79
-15.88
-15.79
-17.37
-20.41
-24.85
-30.80
-38.30
-47.16
-56.79
-66.30
-74.68
-81.13
-85.25
-87.17
-87.53
-87.25
-87.24
-88.18
-90.25
-93.17
-96.25
-98.61
-99.37
-97.75
-93.25
-85.74
-75.54
-63.49
-50.83
-38.86
-28.60
-20.51
-14.42
-9.72
-5.71
-1.85
2.04
5.82
9.17
11.73
13.23
13.54
12.70
10.90
8.44
5.66
2.79
-0.13
-3.31
-7.08
-11.81
-17.69
-24.63
-32.12
-39.36
-45.46
-49.64
-51.51
-51.08
-48.71
-44.96
-40.36
-35.35
-30.35
-25.76
-21.99
-19.40
-18.14
-18.11
-19.00
-20.38
-21.91
-23.35
-24.59
-25.54
-26.09
-26.14
-25.67
-24.80
-23.77
-22.84
-22.18
-21.78
-21.46
-20.97
-20.05
-18.60
-16.67
-14.45
-12.24
-10.31
-8.90
-8.09
-7.86
-8.00
-8.31
-8.66
-9.09
-9.78
-10.95
-12.72
-15.01
-17.53
-19.90
-21.84
-23.30
-24.35
-25.21
-26.01
-26.82
-27.59
-28.30
-29.00
-29.78
-30.77
-32.00
-33.45
-35.01
-36.61
-38.21
-39.89
-41.78
-44.01
-46.70
-49.86
-53.48
-57.49
-61.80
-66.35
-71.10
-76.05
-81.22
-86.65
-92.39
-98.40
-104.56
-110.62
-116.22
-121.05
-124.87
-127.57
-129.15
-129.57
-128.73
-126.56
-123.15
-118.90
-114.38
-109.93
-105.32
-99.51
-90.98
-78.39
-61.36
-40.87
-19.14
1.13
17.63
29.08
35.35
37.14
35.42
31.07
24.79
17.28
9.35
1.91
-4.31
-9.03
-12.56
-15.65
-19.09
-23.41
-28.67
-34.46
-40.18
-45.11
-48.55
-49.81
-48.30
-43.67
-35.98
-25.87
-14.51
-3.25
6.70
14.62
20.37
24.31
27.05
29.21
31.21
33.30
35.51
37.74
39.79
41.39
42.21
41.90
40.14
36.66
31.36
24.36
16.14
7.52
-0.41
-6.56
-10.17
-11.11
-9.93
-7.67
-5.44
-4.03
-3.66
-4.08
-4.98
-6.29
-8.39
-11.98
-17.60
-25.16
-33.73
-41.71
-47.40
-49.64
-48.35
-44.47
-39.69
-35.75
-34.05
-35.28
-39.40
-45.67
-52.96
-59.91
-65.31
-68.26
-68.35
-65.46
-59.53
-50.26
-36.84
-18.11
7.10
39.29
77.61
119.55
161.07
197.52
224.81
240.61
244.93
239.79
228.28
213.42
197.36
181.29
165.86
151.74
139.94
131.62
127.70
128.48
133.48
141.56
151.24
161.02
169.62
176.14
180.07
181.23
179.59
175.17
167.98
158.10
145.85
131.80
116.79
101.62
86.85
72.73
59.19
46.08
33.25
20.65
8.36
-3.54
-14.81
-25.01
-33.38
-39.00
-40.99
-38.86
-32.84
-23.87
-13.42
-3.13
5.62
11.99
15.75
17.19
16.83
15.23
12.85
10.05
7.18
4.59
2.60
1.31
0.52
-0.22
-1.51
-3.82
-7.40
-12.19
-17.88
-24.04
-30.10
-35.38
-39.10
-40.45
-38.76
-33.73
-25.54
-14.87
-2.69
9.84
21.60
31.56
38.86
42.94
43.62
41.16
36.23
29.73
22.54
15.31
8.33
1.65
-4.84
-11.23
-17.52
-23.62
-29.47
-35.06
-40.38
-45.38
-49.72
-52.81
-53.90
-52.32
-47.79
-40.64
-31.77
-22.38
-13.68
-6.51
-1.18
2.45
4.72
5.95
6.25
5.53
3.64
0.51
-3.63
-8.29
-12.86
-16.91
-20.31
-23.35
-26.54
-30.31
-34.83
-39.77
-44.51
-48.19
-50.03
-49.48
-46.32
-40.73
-33.23
-24.65
-15.87
-7.70
-0.70
4.84
8.80
11.06
11.43
9.72
5.92
0.32
-6.45
-13.52
-20.13
-25.79
-30.52
-34.70
-38.97
-43.93
-49.91
-56.78
-63.83
-69.98
-73.95
-74.62
-71.49
-64.77
-55.43
-44.89
-34.58
-25.53
-18.21
-12.52
-8.08
-4.51
-1.60
0.66
2.23
3.09
3.36
3.20
2.81
2.35
1.91
1.61
1.56
1.89
2.64
3.83
5.45
7.45
9.89
12.83
16.32
20.34
24.73
29.34
33.98
38.57
43.03
47.17
50.62
52.90
53.56
52.40
49.73
46.31
43.15
41.11
40.51
41.02
41.75
41.60
39.67
35.62
29.63
22.38
14.84
8.00
2.82
0.02
-0.02
2.54
7.06
12.47
17.63
21.66
24.18
25.27
25.26
24.45
23.02
21.03
18.56
15.86
13.27
11.07
9.34
7.94
6.53
4.83
2.60
-0.27
-3.83
-7.98
-12.44
-16.64
-19.72
-20.85
-19.44
-15.50
-9.60
-2.75
4.00
9.75
13.96
16.35
16.90
15.71
13.02
9.21
4.75
0.11
-4.30
-8.21
-11.51
-14.23
-16.59
-18.91
-21.61
-25.07
-29.42
-34.47
-39.60
-43.97
-46.72
-47.26
-45.44
-41.52
-36.09
-29.86
-23.56
-17.84
-13.28
-10.32
-9.22
-9.97
-12.25
-15.50
-19.01
-22.11
-24.36
-25.54
-25.69
-25.02
-23.86
-22.54
-21.43
-20.78
-20.74
-21.21
-21.86
-22.15
-21.46
-19.21
-15.05
-9.05
-1.65
6.31
13.88
20.16
24.57
26.87
27.16
25.72
22.82
18.70
13.58
7.75
1.65
-4.21
-9.40
-13.72
-17.28
-20.44
-23.57
-27.00
-30.81
-34.89
-38.98
-42.67
-45.48
-46.92
-46.61
-44.45
-40.69
-35.90
-30.85
-26.34
-23.05
-21.51
-22.12
-25.13
-30.60
-38.28
-47.61
-57.72
-67.65
-76.62
-84.26
-90.73
-96.65
-102.87
-110.15
-118.96
-129.25
-140.43
-151.45
-160.99
-167.82
-171.04
-170.29
-165.72
-157.81
-147.14
-134.26
-119.77
-104.49
-89.51
-76.17
-65.68
-58.72
-55.17
-54.06
-53.86
-52.86
-49.61
-43.21
-33.69
-22.13
-10.72
-2.29
0.48
-3.93
-15.05
-30.29
-45.59
-56.61
-60.14
-54.88
-41.58
-22.37
0.07
23.23
45.09
64.05
78.81
88.34
92.06
90.09
83.29
73.09
61.06
48.47
36.19
24.65
14.06
4.58
-3.76
-11.14
-18.04
-25.10
-32.90
-41.67
-51.15
-60.51
-68.44
-73.32
-73.53
-67.83
-56.00
-39.29
-20.47
-3.24
8.93
14.01
12.13
5.45
-2.87
-9.83
-13.55
-13.50
-10.23
-4.82
1.38
7.00
10.68
11.19
7.66
-0.05
-11.31
-24.74
-38.38
-50.02
-57.42
-58.60
-52.34
-38.60
-18.80
4.30
27.42
47.81
64.07
76.30
85.64
93.39
100.19
105.90
109.95
111.89
111.82
110.25
107.68
104.15
99.24
92.31
83.02
71.55
58.60
45.09
31.87
19.73
9.41
1.77
-2.12
-1.24
5.07
16.76
32.85
51.65
71.11
89.30
104.82
116.93
125.47
130.69
132.93
132.57
129.93
125.38
119.53
113.25
107.60
103.54
101.57
101.38
101.86
101.53
99.21
94.71
89.11
84.56
83.50
87.73
97.61
111.87
128.06
143.34
155.47
163.35
167.14
167.69
165.77
161.49
154.28
143.51
129.26
112.98
97.16
84.40
76.23
72.35
70.70
68.27
62.39
51.57
35.91
16.94
-2.85
-20.74
-34.39
-42.40
-44.89
-43.76
-42.43
-44.83
-53.98
-70.56
-92.47
-115.46
-134.76
-146.81
-150.39
-146.67
-138.35
-128.45
-119.37
-112.55
-108.65
-107.82
-109.79
-113.71
-118.08
-120.85
-119.96
-113.84
-101.80
-84.00
-61.33
-35.14
-7.08
21.01
47.21
69.72
87.15
98.66
104.11
103.92
98.89
90.12
78.89
66.53
54.24
42.93
33.10
24.88
18.22
13.00
9.01
6.00
3.66
1.71
-0.02
-1.63
-3.40
-5.80
-9.51
-15.05
-22.38
-30.69
-38.53
-44.30
-46.83
-45.67
-41.07
-33.66
-24.24
-13.62
-2.62
7.91
17.27
25.20
32.02
38.57
45.90
54.90
66.01
79.06
93.27
107.31
119.58
128.40
132.38
130.87
124.12
113.34
100.34
87.02
74.87
64.57
56.05
48.62
41.34
33.35
24.23
14.10
3.59
-6.37
-14.89
-21.36
-25.57
-27.66
-27.90
-26.59
-23.95
-20.14
-15.43
-10.21
-4.97
-0.31
3.16
4.70
3.56
-0.79
-8.32
-18.16
-28.68
-38.03
-44.79
-48.50
-49.78
-49.80
-49.44
-48.70
-46.62
-41.87
-33.67
-22.30
-9.09
4.35
16.97
28.88
41.18
55.07
70.86
87.00
100.01
105.17
97.69
73.97
32.43
-25.93
-97.17
-174.38
-248.28
-308.84
-347.49
-359.55
-345.49
-310.50
-262.35
-208.49
-153.68
-99.24
-44.24
12.25
69.16
122.73
167.68
199.18
214.84
215.35
203.83
184.21
159.72
132.02
101.80
69.78
37.73
8.52
-14.70
-29.77
-36.36
-35.95
-31.05
-24.10
-16.75
-9.69
-2.87
4.01
11.16
18.57
26.07
33.40
40.30
46.53
51.84
56.00
58.91
60.62
61.41
61.63
61.53
61.13
60.22
58.51
55.91
52.59
48.93
45.32
41.83
38.20
33.97
28.77
22.70
16.36
10.65
6.43
4.17
3.77
4.66
6.11
7.50
8.47
9.03
9.36
9.63
9.81
9.66
8.88
7.30
5.01
2.39
-0.07
-2.03
-3.46
-4.57
-5.68
-7.00
-8.56
-10.19
-11.76
-13.19
-14.49
-15.63
-16.42
-16.56
-15.79
-14.03
-11.49
-8.58
-5.72
-3.09
-0.62
1.95
4.81
7.94
11.09
13.85
15.88
17.08
17.62
17.78
17.88
18.05
18.31
18.51
18.50
18.03
16.87
14.81
11.74
7.80
3.35
-1.12
-5.20
-8.68
-11.69
-14.46
-17.18
-19.80
-22.12
-23.88
-24.98
-25.58
-25.96
-26.41
-27.02
-27.74
-28.36
-28.64
-28.44
-27.71
-26.50
-24.90
-23.04
-21.02
-18.91
-16.82
-14.90
-13.36
-12.39
-12.05
-12.16
-12.28
-11.79
-10.12
-7.04
-2.74
2.15
6.78
10.35
12.34
12.70
11.75
10.08
8.27
6.74
5.63
4.89
4.40
4.12
4.09
4.43
5.16
6.10
6.92
7.24
6.85
5.79
4.36
2.99
2.00
1.57
1.62
1.99
2.54
3.23
4.13
5.30
6.70
8.05
8.96
9.06
8.19
6.47
4.35
2.37
1.03
0.58
0.98
1.91
3.01
3.94
4.50
4.64
4.34
3.63
2.50
1.01
-0.74
-2.56
-4.22
-5.52
-6.33
-6.61
-6.33
-5.45
-3.91
-1.70
1.07
4.13
7.14
9.81
12.03
13.89
15.58
17.28
19.03
20.77
22.39
23.81
25.06
26.18
27.17
27.93
28.33
28.23
27.58
26.43
24.83
22.83
20.47
17.84
15.12
12.58
10.45
8.81
7.55
6.39
5.04
3.27
1.04
-1.56
-4.39
-7.36
-10.44
-13.68
-17.13
-20.78
-24.48
-28.07
-31.36
-34.32
-37.05
-39.80
-42.80
-46.14
-49.72
-53.27
-56.53
-59.29
-61.48
-63.07
-63.98
-64.08
-63.24
-61.41
-58.70
-55.42
-51.93
-48.56
-45.50
-42.79
-40.37
-38.11
-35.95
-33.85
-31.89
-30.10
-28.44
-26.72
-24.64
-21.91
-18.42
-14.33
-10.08
-6.16
-2.99
-0.69
0.89
2.08
3.22
4.51
5.95
7.47
8.96
10.40
11.80
13.16
14.42
15.47
16.27
16.88
17.49
18.27
19.27
20.32
21.05
21.17
20.58
19.55
18.46
17.61
16.86
15.70
13.53
10.06
5.61
1.09
-2.45
-4.35
-4.59
-3.83
-2.98
-2.77
-3.42
-4.66
-6.05
-7.23
-8.15
-9.00
-10.13
-11.76
-13.91
-16.41
-18.93
-21.17
-22.93
-24.19
-25.08
-25.79
-26.50
-27.28
-28.12
-29.06
-30.15
-31.43
-32.80
-33.89
-34.13
-33.02
-30.41
-26.60
-22.19
-17.85
-13.93
-10.42
-7.06
-3.57
0.15
4.07
8.10
12.23
16.55
21.04
25.49
29.39
32.04
32.67
30.66
25.66
17.70
7.27
-4.72
-17.07
-28.53
-38.12
-45.39
-50.39
-53.54
-55.31
-55.94
-55.44
-53.72
-50.86
-47.19
-43.23
-39.50
-36.18
-33.15
-30.04
-26.50
-22.44
-18.08
-13.82
-10.01
-6.85
-4.34
-2.40
-0.85
0.47
1.77
3.30
5.23
7.64
10.44
13.45
16.46
19.34
22.06
24.61
26.89
28.72
29.85
30.03
29.13
27.07
23.82
19.34
13.85
7.97
2.85
0.04
0.94
6.14
15.00
25.72
35.87
43.31
46.90
46.71
43.71
39.18
34.10
28.96
23.85
18.79
13.97
9.83
6.91
5.69
6.49
9.28
13.82
19.67
26.33
33.22
39.72
44.97
47.91
47.37
42.40
32.75
19.13
3.24
-12.68
-26.59
-37.22
-44.33
-48.44
-50.43
-51.09
-51.03
-50.79
-50.94
-52.06
-54.54
-58.37
-63.04
-67.73
-71.63
-74.25
-75.59
-76.08
-76.40
-77.37
-79.70
-83.83
-89.71
-96.71
-103.74
-109.58
-113.36
-114.86
-114.56
-113.40
-112.48
-112.77
-114.97
-119.36
-125.68
-132.99
-139.61
-143.33
-142.00
-134.21
-119.91
-100.50
-78.45
-56.45
-36.56
-19.60
-5.08
8.19
21.40
34.97
48.34
60.19
69.06
74.01
74.93
72.43
67.38
60.51
52.15
42.33
31.08
18.69
5.87
-6.41
-17.18
-25.79
-32.12
-36.62
-40.11
-43.35
-46.84
-50.60
-54.30
-57.41
-59.31
-59.30
-56.68
-50.79
-41.40
-29.14
-15.64
-3.31
5.57
9.72
9.55
6.95
4.55
4.51
7.75
13.76
21.15
28.54
35.28
41.72
48.90
57.82
68.83
81.28
93.84
105.09
114.12
120.87
125.92
129.97
133.31
135.53
135.73
133.12
127.48
119.36
109.82
99.85
89.93
79.85
69.06
57.08
43.98
30.50
17.81
7.21
-0.35
-4.48
-5.45
-4.07
-1.50
1.06
2.77
3.44
3.65
4.50
7.03
11.66
17.81
24.05
28.71
30.64
29.65
26.53
22.64
19.26
17.13
16.34
16.56
17.28
18.07
18.62
18.70
18.17
17.05
15.62
14.45
14.27
15.71
19.00
23.80
29.25
34.23
37.76
39.33
39.05
37.49
35.45
33.53
32.01
30.82
29.70
28.51
27.28
26.19
25.33
24.54
23.39
21.39
18.17
13.83
8.86
4.05
0.20
-2.00
-2.06
0.35
5.51
13.47
23.94
36.13
48.80
60.66
70.73
78.74
85.12
90.76
96.56
103.21
111.09
120.30
130.69
141.86
153.01
162.96
170.42
174.31
174.14
170.16
163.26
154.57
145.21
136.02
127.55
120.08
113.63
108.02
102.88
97.66
91.89
85.19
77.43
68.73
59.30
49.35
38.95
28.06
16.65
4.87
-6.90
-18.05
-27.99
-36.28
-42.81
-47.82
-51.80
-55.33
-58.90
-62.78
-66.85
-70.52
-72.77
-72.50
-68.97
-62.34
-53.84
-45.50
-39.42
-37.00
-38.43
-42.77
-48.50
-54.28
-59.36
-63.68
-67.53
-71.12
-74.39
-77.04
-78.81
-79.64
-79.75
-79.46
-79.12
-79.03
-79.52
-80.95
-83.58
-87.38
-91.74
-95.51
-97.27
-95.84
-90.71
-82.27
-71.60
-59.99
-48.52
-37.76
-27.79
-18.48
-9.74
-1.65
5.55
11.60
16.40
19.98
22.52
24.14
24.88
24.69
23.45
21.15
17.90
14.02
10.03
6.62
4.61
4.77
7.66
13.44
21.83
32.21
43.83
56.00
68.16
79.81
90.45
99.50
106.42
110.85
112.65
111.92
108.83
103.59
96.49
88.00
78.80
69.69
61.35
54.06
47.66
41.77
36.08
30.60
25.58
21.26
17.60
14.26
10.88
7.48
4.65
3.46
4.89
9.38
16.48
25.07
33.74
41.25
46.75
49.80
50.22
48.09
43.84
38.23
32.19
26.45
21.22
16.05
10.05
2.28
-7.78
-20.17
-34.48
-50.08
-66.27
-82.33
-97.45
-110.61
-120.70
-126.65
-127.77
-124.05
-116.27
-106.04
-95.40
-86.51
-81.11
-80.31
-84.47
-93.29
-105.99
-121.40
-138.08
-154.37
-168.60
-179.31
-185.53
-186.85
-183.51
-176.17
-165.85
-153.79
-141.29
-129.57
-119.51
-111.40
-104.87
-98.88
-92.09
-83.27
-71.76
-57.61
-41.54
-24.66
-8.20
6.79
19.48
29.35
36.16
39.94
40.99
39.67
36.32
31.21
24.57
16.78
8.46
0.40
-6.69
-12.51
-17.29
-21.66
-26.21
-31.16
-36.20
-40.55
-43.21
-43.27
-40.04
-33.27
-23.20
-10.60
3.32
17.13
29.51
39.52
46.68
50.86
52.09
50.44
46.10
39.66
32.17
25.09
19.86
17.42
17.77
20.00
22.65
24.24
23.95
21.88
18.95
16.45
15.43
16.32
18.87
22.43
26.45
30.76
35.55
41.09
47.40
54.06
60.28
65.23
68.34
69.33
68.19
64.92
59.45
51.71
41.76
30.02
17.26
4.43
-7.53
-18.06
-26.96
-34.32
-40.39
-45.41
-49.60
-53.11
-56.09
-58.63
-60.74
-62.41
-63.54
-64.15
-64.20
-63.64
-62.31
-59.89
-56.09
-50.77
-44.04
-36.26
-27.89
-19.50
-11.76
-5.53
-1.76
-1.20
-3.97
-9.21
-15.33
-20.54
-23.68
-24.68
-24.61
-24.98
-27.00
-31.00
-36.45
-42.42
-48.19
-53.59
-58.93
-64.65
-70.89
-77.39
-83.55
-88.79
-92.74
-95.25
-96.27
-95.62
-92.90
-87.73
-79.99
-70.08
-58.92
-47.68
-37.49
-29.02
-22.35
-17.04
-12.34
-7.40
-1.59
5.44
13.69
22.81
32.31
41.68
50.62
59.03
67.02
74.63
81.63
87.45
91.32
92.60
90.99
86.63
80.02
71.81
62.66
53.20
44.11
36.23
30.44
27.40
27.18
29.07
31.68
33.36
32.77
29.30
23.21
15.33
6.68
-1.88
-9.80
-16.76
-22.52
-26.82
-29.45
-30.44
-30.00
-28.50
-26.16
-22.99
-18.83
-13.56
-7.34
-0.65
5.88
11.70
16.51
20.34
23.28
25.29
26.11
25.33
22.63
18.05
12.04
5.23
-1.84
-8.97
-16.32
-24.22
-32.97
-42.49
-52.34
-61.88
-70.56
-78.10
-84.67
-90.79
-97.08
-104.05
-111.84
-120.11
-128.16
-135.10
-140.19
-143.00
-143.42
-141.45
-136.87
-129.12
-117.34
-100.85
-79.64
-54.76
-28.16
-2.26
20.76
39.41
53.07
61.83
66.22
67.04
65.29
62.14
58.86
56.58
56.01
57.25
59.76
62.65
64.99
66.17
66.02
64.82
63.13
61.52
60.26
59.16
57.65
55.15
51.43
46.94
42.75
40.10
39.75
41.59
44.56
47.08
47.70
45.66
41.01
34.38
26.55
18.06
9.18
0.08
-8.94
-17.36
-24.63
-30.39
-34.71
-38.11
-41.32
-45.02
-49.57
-54.96
-60.97
-67.27
-73.60
-79.81
-85.86
-91.72
-97.24
-102.02
-105.38
-106.46
-104.38
-98.52
-88.80
-75.70
-60.41
-44.56
-30.01
-18.53
-11.36
-8.91
-10.66
-15.23
-20.83
-25.72
-28.75
-29.59
-28.66
-26.82
-24.99
-23.87
-23.78
-24.78
-26.86
-30.04
-34.38
-39.74
-45.56
-50.76
-53.93
-53.73
-49.30
-40.61
-28.34
-13.66
2.20
18.32
34.18
49.56
64.34
78.14
90.31
99.91
105.92
107.56
104.53
97.28
86.86
74.81
62.77
52.08
43.63
37.66
33.81
31.27
29.07
26.30
22.49
17.72
12.56
7.87
4.52
3.05
3.55
5.65
8.57
11.37
13.12
13.08
10.90
6.61
0.66
-6.35
-13.82
-21.42
-29.08
-36.84
-44.74
-52.52
-59.77
-65.94
-70.51
-73.15
-73.70
-72.11
-68.43
-62.74
-55.10
-45.45
-33.63
-19.46
-2.94
15.56
35.29
55.37
75.12
94.28
113.04
131.63
149.96
167.35
182.77
195.32
204.66
211.18
215.71
218.97
221.13
221.64
219.57
214.10
204.94
192.51
177.63
161.25
144.06
126.50
108.97
92.11
76.80
63.95
54.03
46.77
41.15
35.79
29.56
22.04
13.54
4.77
-3.71
-11.83
-19.86
-28.24
-37.07
-46.04
-54.62
-62.36
-69.20
-75.45
-81.65
-88.18
-95.06
-101.94
-108.26
-113.49
-117.31
-119.63
-120.50
-120.25
-119.29
-118.16
-117.31
-116.76
-115.88
-113.30
-107.22
-96.12
-79.55
-58.61
-35.79
-14.19
3.69
16.82
25.94
32.89
39.60
47.14
55.26
62.78
68.35
71.19
71.44
69.90
67.54
65.01
62.59
60.36
58.53
57.47
57.51
58.57
60.06
61.07
60.93
59.69
58.24
57.99
60.23
65.56
73.61
83.18
92.63
100.17
104.10
102.96
95.85
82.76
64.90
44.51
24.37
6.83
-6.79
-16.48
-23.10
-27.80
-31.37
-34.24
-36.56
-38.58
-40.71
-43.36
-46.67
-50.29
-53.64
-56.07
-57.29
-57.36
-56.60
-55.34
-53.81
-52.22
-50.85
-50.14
-50.55
-52.43
-55.78
-60.15
-64.77
-68.76
-71.34
-72.03
-70.73
-67.72
-63.52
-58.76
-53.98
-49.48
-45.41
-41.88
-39.27
-38.24
-39.71
-44.42
-52.45
-62.95
-74.08
-83.49
-88.96
-89.02
-83.26
-72.40
-57.99
-42.20
-27.42
-15.84
-9.04
-7.43
-10.12
-15.05
-19.66
-21.60
-19.43
-12.96
-3.11
8.30
19.09
27.09
30.48
28.18
20.07
7.06
-9.07
-25.95
-41.12
-52.49
-58.69
-59.31
-55.05
-47.66
-39.53
-33.01
-29.54
-29.14
-30.44
-31.31
-29.78
-24.81
-16.52
-5.99
5.40
16.43
26.24
34.18
39.62
41.95
40.91
37.00
31.69
27.00
24.85
26.27
31.05
37.97
45.46
52.26
57.89
62.49
66.52
70.27
73.78
76.97
79.94
83.05
86.81
91.62
97.54
104.23
111.07
117.33
122.27
125.15
125.19
121.66
114.05
102.39
87.40
70.47
53.28
37.41
23.91
13.10
4.67
-1.99
-7.50
-12.11
-15.57
-17.24
-16.46
-12.92
-7.08
-0.24
5.82
9.41
9.58
6.41
0.94
-5.35
-11.20
-16.03
-19.96
-23.56
-27.49
-32.13
-37.56
-43.60
-49.91
-56.04
-61.47
-65.57
-67.71
-67.34
-64.19
-58.35
-50.30
-40.81
-30.82
-21.20
-12.65
-5.58
-0.07
4.09
7.24
9.72
11.72
13.29
14.46
15.25
15.72
15.93
15.79
15.17
13.99
12.51
11.48
12.03
15.34
22.17
32.43
45.11
58.60
71.11
81.13
87.66
90.02
87.76
80.47
67.98
50.64
29.61
6.80
-15.54
-35.45
-51.87
-64.80
-75.15
-84.21
-93.10
-102.48
-112.47
-122.85
-133.17
-142.85
-151.07
-156.77
-158.86
-156.68
-150.37
-141.14
-130.87
-121.42
-113.79
-107.55
-101.03
-92.02
-78.76
-60.66
-38.38
-13.43
12.55
38.35
63.24
86.75
108.31
127.05
142.11
152.91
159.55
162.78
163.69
163.29
162.20
160.60
158.34
155.15
150.70
144.58
136.40
125.87
113.01
98.25
82.29
65.83
49.19
32.24
14.61
-3.92
-23.00
-41.71
-58.76
-72.97
-83.63
-90.62
-94.24
-94.88
-92.79
-87.94
-80.16
-69.44
-56.12
-41.11
-25.66
-11.09
1.72
12.57
21.90
30.36
38.21
45.09
49.97
51.77
49.96
44.96
38.07
30.99
25.11
21.11
18.82
17.56
16.37
14.30
10.59
4.76
-3.16
-12.54
-22.19
-30.68
-36.81
-40.11
-40.95
-40.41
-39.79
-40.14
-41.91
-44.93
-48.69
-52.62
-56.35
-59.67
-62.46
-64.44
-65.13
-63.86
-60.02
-53.34
-44.11
-33.13
-21.52
-10.37
-0.50
7.69
14.19
19.08
22.44
24.31
24.81
24.35
23.73
23.99
26.11
30.60
37.25
45.24
53.45
60.87
66.94
71.52
74.70
76.54
76.90
75.46
72.05
66.87
60.64
54.45
49.48
46.52
45.73
46.52
47.88
48.67
48.09
45.83
42.06
37.24
31.83
26.20
20.63
15.36
10.69
6.89
4.10
2.13
0.50
-1.44
-4.23
-7.99
-12.34
-16.53
-19.82
-21.73
-22.24
-21.67
-20.46
-18.96
-17.32
-15.70
-14.29
-13.35
-13.18
-13.93
-15.62
-18.16
-21.45
-25.45
-30.04
-34.98
-39.85
-44.17
-47.56
-49.91
-51.38
-52.23
-52.74
-53.04
-53.17
-53.14
-53.00
-52.81
-52.73
-52.90
-53.41
-54.31
-55.49
-56.69
-57.43
-57.10
-55.08
-50.94
-44.61
-36.48
-27.33
-18.18
-9.94
-3.28
1.52
4.57
6.17
6.69
6.46
5.71
4.62
3.38
2.21
1.26
0.51
-0.32
-1.63
-3.82
-6.88
-10.31
-13.22
-14.70
-14.28
-12.12
-9.03
-5.92
-3.45
-1.61
0.13
2.57
6.28
11.41
17.61
24.25
30.64
36.23
40.81
44.44
47.35
49.85
52.25
54.76
57.57
60.79
64.33
67.85
70.71
72.07
71.17
67.45
60.62
50.54
37.06
20.00
-0.73
-24.68
-50.63
-76.50
-99.78
-118.23
-130.52
-136.59
-137.43
-134.52
-129.21
-122.30
-113.97
-104.05
-92.32
-78.73
-63.53
-47.14
-30.09
-12.83
4.41
21.80
39.97
59.79
81.96
106.44
132.21
157.29
179.23
195.75
205.22
206.76
200.07
185.32
163.15
134.94
102.95
70.08
39.32
12.84
-8.53
-25.49
-39.72
-53.00
-66.43
-80.00
-92.63
-102.74
-108.76
-109.61
-104.90
-95.00
-81.05
-64.87
-48.67
-34.67
-24.58
-19.21
-18.35
-21.00
-25.79
-31.53
-37.57
-43.82
-50.67
-58.73
-68.58
-80.51
-94.12
-108.20
-120.62
-128.73
-130.03
-123.06
-107.95
-86.46
-61.40
-35.77
-11.85
9.19
27.22
42.60
55.56
65.90
73.11
76.78
77.05
74.80
71.41
68.25
66.34
66.18
67.96
71.82
77.89
86.15
96.08
106.55
116.03
123.09
126.87
127.26
124.67
119.60
112.40
103.23
92.25
79.84
66.53
52.86
39.21
25.85
13.06
1.29
-8.96
-17.33
-23.86
-28.95
-33.10
-36.52
-39.02
-40.07
-39.30
-36.93
-33.82
-31.27
-30.46
-31.89
-35.19
-39.37
-43.31
-46.36
-48.46
-50.04
-51.43
-52.53
-52.65
-50.91
-46.64
-39.72
-30.56
-19.87
-8.42
3.00
13.40
21.52
26.05
26.11
21.77
14.13
4.97
-3.94
-11.44
-17.30
-22.04
-26.55
-31.64
-37.82
-45.17
-53.42
-62.08
-70.67
-78.92
-86.82
-94.49
-101.86
-108.30
-112.63
-113.41
-109.54
-100.77
-87.82
-72.08
-55.09
-38.00
-21.47
-5.71
9.20
22.98
34.99
44.26
49.69
50.38
46.06
37.28
25.36
12.03
-1.12
-13.15
-23.91
-33.95
-44.12
-55.21
-67.69
-81.51
-96.09
-110.21
-122.18
-130.11
-132.54
-129.06
-120.67
-109.69
-99.01
-91.08
-87.06
-86.47
-87.60
-88.35
-87.17
-83.69
-78.70
-73.73
-70.37
-69.75
-72.24
-77.49
-84.62
-92.55
-100.21
-106.89
-112.49
-117.54
-123.13
-130.39
-140.01
-151.72
-164.29
-175.75
-184.16
-188.31
-188.31
-185.68
-182.69
-181.50
-183.28
-187.86
-193.93
-199.81
-204.09
-206.04
-205.56
-202.87
-198.28
-192.09
-184.71
-176.69
-168.69
-161.15
-154.11
-147.17
-139.62
-130.83
-120.51
-108.73
-95.87
-82.44
-68.94
-55.73
-42.95
-30.56
-18.35
-6.09
6.37
18.97
31.47
43.54
54.87
65.25
74.65
83.16
90.89
97.94
104.33
110.05
115.11
119.57
123.56
127.20
130.56
133.62
136.28
138.43
140.05
141.25
142.30
143.51
145.17
147.37
150.07
153.09
156.21
159.30
162.39
165.71
169.71
175.03
182.29
191.70
202.78
214.14
223.65
228.95
228.18
220.60
206.90
189.15
170.34
153.69
141.93
136.68
138.21
145.51
156.63
169.24
181.14
190.53
196.17
197.36
193.92
186.22
175.28
162.59
149.73
137.94
127.69
118.71
110.25
101.50
91.95
81.44
69.95
57.42
43.84
29.43
14.93
1.73
-8.46
-14.12
-14.51
-9.92
-1.60
8.78
19.59
29.59
37.97
44.35
48.67
51.20
52.46
53.15
53.87
54.95
56.38
57.86
59.05
59.70
59.66
58.81
56.86
53.52
48.62
42.46
35.98
30.56
27.71
28.50
33.32
41.68
52.49
64.35
75.88
85.93
93.64
98.49
100.36
99.53
96.73
92.96
89.33
86.74
85.60
85.72
86.37
86.50
85.07
81.38
75.32
67.38
58.51
49.91
42.75
38.01
36.34
38.00
42.77
49.91
58.20
66.28
72.94
77.50
79.89
80.41
79.45
77.17
73.51
68.33
61.57
53.32
43.69
32.64
20.13
6.37
-7.84
-21.27
-32.67
-41.58
-48.73
-55.75
-64.38
-75.46
-88.34
-101.05
-111.05
-116.20
-115.40
-108.86
-97.84
-84.18
-69.86
-56.63
-45.66
-37.30
-31.13
-26.22
-21.62
-16.86
-12.20
-8.46
-6.64
-7.43
-10.97
-16.75
-23.75
-30.61
-35.94
-38.58
-37.93
-34.13
-28.02
-20.80
-13.50
-6.47
0.66
8.75
18.50
30.00
42.53
54.77
65.35
73.22
77.85
79.19
77.51
73.42
67.97
62.72
59.50
59.90
64.55
72.69
82.24
90.44
94.91
94.37
89.02
80.34
70.39
61.22
54.39
50.78
50.58
53.36
58.14
63.63
68.50
71.69
72.68
71.58
69.00
65.75
62.33
58.78
54.54
48.81
41.02
31.27
20.52
10.29
2.02
-3.58
-6.89
-9.22
-12.22
-17.22
-24.72
-34.39
-45.30
-56.23
-66.02
-73.66
-78.37
-79.61
-77.12
-70.95
-61.52
-49.66
-36.54
-23.60
-12.30
-3.83
1.10
2.38
0.44
-3.90
-9.72
-16.11
-22.29
-27.64
-31.78
-34.59
-36.25
-37.10
-37.50
-37.69
-37.70
-37.44
-36.83
-35.86
-34.61
-33.16
-31.48
-29.41
-26.77
-23.37
-19.25
-14.61
-9.80
-5.26
-1.38
1.48
3.04
3.05
1.32
-2.21
-7.36
-13.65
-20.41
-26.87
-32.45
-36.83
-40.02
-42.17
-43.51
-44.32
-44.92
-45.70
-47.01
-48.89
-50.94
-52.25
-51.74
-48.49
-42.24
-33.46
-23.33
-13.25
-4.47
2.24
6.70
9.08
9.76
9.10
7.44
5.06
2.26
-0.62
-3.33
-5.67
-7.58
-9.09
-10.23
-11.15
-12.02
-13.16
-14.91
-17.50
-20.85
-24.49
-27.70
-29.65
-29.81
-28.04
-24.66
-20.26
-15.49
-10.93
-7.03
-4.05
-2.14
-1.31
-1.46
-2.34
-3.72
-5.35
-7.09
-8.85
-10.61
-12.38
-14.13
-15.87
-17.60
-19.40
-21.39
-23.72
-26.52
-29.78
-33.31
-36.74
-39.58
-41.39
-41.99
-41.44
-40.03
-38.07
-35.76
-33.07
-29.88
-26.18
-22.22
-18.52
-15.69
-14.22
-14.13
-15.04
-16.27
-17.17
-17.37
-16.89
-15.98
-14.97
-14.10
-13.54
-13.45
-14.07
-15.61
-18.10
-21.20
-24.19
-26.15
-26.28
-24.16
-19.85
-13.82
-6.80
0.43
7.09
12.53
16.31
18.33
18.84
18.42
17.64
16.91
16.27
15.54
14.46
12.91
10.92
8.61
6.07
3.34
0.39
-2.79
-6.12
-9.44
-12.57
-15.23
-17.10
-17.80
-17.04
-14.75
-11.20
-6.93
-2.54
1.53
5.14
8.31
11.00
12.97
13.85
13.33
11.43
8.51
5.22
2.15
-0.34
-2.19
-3.58
-4.74
-5.89
-7.19
-8.80
-10.85
-13.39
-16.32
-19.34
-21.99
-23.73
-24.12
-22.85
-19.83
-15.23
-9.48
-3.27
2.59
7.33
10.51
12.09
12.42
12.03
11.35
10.54
9.48
7.95
5.90
3.55
1.28
-0.56
-1.85
-2.81
-3.84
-5.28
-7.30
-9.82
-12.63
-15.43
-17.87
-19.54
-20.00
-18.86
-16.01
-11.73
-6.69
-1.72
2.47
5.53
7.49
8.67
9.46
10.07
10.52
10.61
10.10
8.81
6.71
3.95
0.82
-2.31
-5.19
-7.67
-9.81
-11.75
-13.59
-15.32
-16.78
-17.76
-18.10
-17.78
-16.95
-15.75
-14.28
-12.52
-10.42
-8.05
-5.67
-3.76
-2.78
-3.01
-4.28
-6.11
-7.83
-8.93
-9.17
-8.67
-7.79
-6.91
-6.33
-6.20
-6.53
-7.32
-8.60
-10.43
-12.90
-15.90
-19.13
-21.99
-23.77
-23.89
-22.09
-18.62
-14.08
-9.27
-4.90
-1.47
0.74
1.62
1.15
-0.53
-3.11
-6.10
-8.97
-11.24
-12.60
-12.93
-12.31
-11.00
-9.41
-8.14
-7.80
-8.78
-11.05
-14.06
-16.96
-18.88
-19.30
-18.16
-15.79
-12.67
-9.30
-6.11
-3.55
-2.03
-1.80
-2.82
-4.60
-6.41
-7.57
-7.69
-6.83
-5.23
-3.14
-0.63
2.38
5.84
9.42
12.51
14.47
14.93
13.99
12.23
10.46
9.42
9.59
11.10
13.77
17.29
21.19
24.97
28.13
30.28
31.14
30.72
29.19
26.86
23.96
20.54
16.45
11.45
5.49
-1.18
-7.96
-14.05
-18.74
-21.70
-23.14
-23.70
-24.21
-25.38
-27.49
-30.28
-33.03
-34.83
-34.93
-33.05
-29.41
-24.55
-19.06
-13.24
-7.13
-0.66
6.02
12.46
17.87
21.47
22.83
22.07
19.80
16.93
14.29
12.39
11.35
10.96
10.83
10.52
9.66
8.05
5.71
2.88
0.01
-2.33
-3.57
-3.28
-1.33
2.11
6.56
11.47
16.46
21.43
26.57
32.15
38.25
44.61
50.62
55.53
58.75
60.07
59.75
58.31
56.37
54.34
52.44
50.62
48.67
46.30
43.20
39.14
34.10
28.35
22.50
17.38
13.79
12.21
12.52
14.05
15.71
16.30
14.87
10.88
4.27
-4.56
-14.86
-25.61
-35.71
-44.16
-50.37
-54.30
-56.60
-58.44
-61.18
-65.93
-73.25
-83.00
-94.37
-106.23
-117.35
-126.67
-133.37
-136.87
-136.78
-132.99
-125.83
-116.07
-104.95
-93.83
-83.93
-76.01
-70.37
-67.02
-65.76
-66.34
-68.33
-71.06
-73.64
-75.18
-75.03
-72.99
-69.37
-64.85
-60.41
-57.20
-56.46
-59.28
-66.21
-76.87
-89.75
-102.48
-112.54
-118.04
-118.22
-113.46
-104.83
-93.59
-80.83
-67.45
-54.30
-42.38
-32.72
-26.16
-22.99
-22.69
-23.96
-25.01
-24.07
-19.80
-11.58
0.51
15.85
33.50
52.29
70.81
87.42
100.49
108.82
112.10
111.03
107.02
101.38
94.71
86.63
76.30
63.33
48.47
33.82
21.99
14.96
13.08
14.75
17.27
18.09
15.98
11.46
6.07
1.35
-2.21
-5.28
-9.01
-14.05
-20.00
-25.54
-29.28
-30.61
-29.93
-28.29
-26.61
-25.11
-23.33
-20.62
-16.70
-11.96
-7.23
-3.43
-1.19
-0.75
-2.04
-4.82
-8.71
-13.20
-17.73
-21.83
-25.28
-28.10
-30.32
-31.70
-31.66
-29.44
-24.50
-16.68
-6.11
7.25
23.85
44.51
69.87
99.76
132.89
167.08
199.88
229.23
253.81
273.06
286.97
295.93
300.66
302.13
301.23
298.45
293.55
285.73
274.23
259.09
241.49
223.45
207.00
193.30
182.21
172.57
162.99
152.63
141.57
130.60
120.76
112.77
106.85
102.73
99.84
97.42
94.65
90.58
84.25
74.90
62.18
46.36
28.32
9.32
-9.27
-26.38
-41.41
-54.37
-65.71
-76.15
-86.39
-97.02
-108.40
-120.75
-134.08
-148.18
-162.54
-176.26
-188.26
-197.43
-203.00
-204.69
-202.78
-197.97
-191.14
-183.10
-174.48
-165.73
-157.20
-149.28
-142.30
-136.46
-131.61
-127.25
-122.65
-117.20
-110.80
-104.04
-98.13
-94.42
-93.80
-96.19
-100.39
-104.37
-105.97
-103.58
-96.74
-86.17
-73.44
-60.37
-48.48
-38.67
-31.18
-25.79
-22.00
-19.32
-17.31
-15.70
-14.46
-13.73
-13.83
-15.09
-17.66
-21.40
-25.89
-30.50
-34.64
-37.84
-39.74
-40.11
-38.68
-35.21
-29.60
-22.09
-13.41
-4.75
2.52
7.40
9.55
9.52
8.52
8.04
9.25
12.80
18.56
25.85
33.58
40.51
45.43
47.41
46.00
41.31
34.09
25.56
17.14
10.16
5.69
4.39
6.50
11.81
19.66
28.99
38.54
47.08
53.77
58.27
60.75
61.65
61.39
60.25
58.22
55.21
51.20
46.47
41.61
37.53
35.21
35.44
38.51
43.92
50.44
56.25
59.49
58.86
54.05
45.86
35.98
26.37
18.73
13.98
12.19
12.74
14.71
17.25
19.70
21.59
22.58
22.36
20.74
17.75
13.66
8.85
3.59
-2.08
-8.30
-15.15
-22.45
-29.65
-35.95
-40.66
-43.51
-44.71
-45.01
-45.44
-47.03
-50.58
-56.34
-63.95
-72.47
-80.62
-87.28
-91.83
-94.36
-95.59
-96.47
-97.79
-99.91
-102.82
-106.25
-109.92
-113.53
-116.60
-118.24
-117.11
-111.66
-100.58
-83.32
-60.36
-33.17
-3.83
25.46
52.85
77.14
97.88
115.31
130.19
143.45
155.93
167.98
179.33
189.12
196.11
198.99
196.70
188.56
174.48
154.99
131.26
104.93
77.74
51.15
26.03
2.70
-18.86
-38.63
-56.40
-71.86
-84.94
-96.01
-105.77
-114.81
-122.92
-128.80
-130.43
-125.95
-114.76
-98.19
-79.26
-61.69
-48.56
-41.41
-39.95
-42.48
-46.66
-50.20
-51.45
-49.79
-45.91
-41.84
-40.41
-44.24
-54.41
-69.52
-85.65
-97.49
-100.12
-90.77
-69.49
-38.88
-2.90
34.42
69.79
100.83
125.97
144.25
155.42
160.19
160.37
158.54
157.27
158.03
160.34
161.65
158.17
146.31
124.16
92.41
54.15
13.94
-23.56
-54.93
-78.56
-94.59
-104.35
-109.45
-111.04
-109.42
-104.10
-94.33
-79.79
-61.05
-39.75
-18.27
0.90
15.69
24.81
27.93
25.73
19.83
12.65
6.77
4.10
5.12
8.71
12.72
15.24
15.67
14.92
14.80
16.65
20.37
24.31
26.22
24.42
18.74
10.35
0.92
-8.44
-17.63
-27.19
-37.43
-47.62
-55.97
-60.35
-59.48
-53.85
-45.66
-37.66
-31.53
-26.87
-21.47
-12.94
-0.63
13.23
24.37
28.54
23.89
12.03
-2.97
-16.75
-26.81
-33.17
-37.55
-41.65
-46.04
-50.25
-53.75
-56.85
-60.87
-67.30
-76.83
-88.78
-101.32
-112.21
-119.61
-122.32
-119.84
-112.13
-99.66
-83.50
-65.26
-46.78
-29.46
-13.79
0.86
15.83
32.54
51.73
73.10
95.40
116.77
135.39
150.02
160.22
166.38
169.34
169.98
168.89
166.12
161.29
153.76
143.10
129.30
112.99
95.21
77.01
59.03
41.31
23.37
4.58
-15.30
-35.83
-55.92
-74.15
-89.29
-100.50
-107.51
-110.30
-108.95
-103.56
-94.37
-82.05
-67.87
-53.56
-41.01
-31.79
-26.68
-25.52
-27.25
-30.33
-33.23
-34.92
-35.07
-34.03
-32.50
-31.20
-30.59
-30.73
-31.33
-31.89
-31.84
-30.75
-28.41
-24.85
-20.27
-14.90
-8.96
-2.64
3.77
9.80
14.82
18.25
19.81
19.75
18.80
17.85
17.58
18.22
19.53
21.07
22.40
23.34
23.78
23.65
22.73
20.72
17.44
13.05
8.15
3.71
0.75
0.03
1.75
5.50
10.41
15.43
19.65
22.51
23.79
23.47
21.53
17.97
12.83
6.49
-0.27
-6.27
-10.36
-11.79
-10.59
-7.60
-4.15
-1.54
-0.64
-1.60
-4.05
-7.32
-10.82
-14.16
-17.14
-19.63
-21.46
-22.47
-22.55
-21.83
-20.65
-19.52
-18.90
-18.93
-19.26
-19.10
-17.45
-13.49
-6.96
1.74
11.74
22.09
32.12
41.49
50.02
57.36
62.84
65.63
65.19
61.64
55.99
49.72
44.28
40.53
38.55
37.84
37.71
37.64
37.36
36.83
36.02
34.90
33.47
31.81
30.11
28.58
27.24
25.98
24.59
22.98
21.26
19.67
18.40
17.37
16.12
14.04
10.65
6.03
0.84
-3.79
-6.71
-7.26
-5.53
-2.34
1.15
3.93
5.55
6.18
6.35
6.54
6.79
6.72
5.70
3.35
-0.23
-4.43
-8.43
-11.65
-14.01
-16.00
-18.34
-21.65
-26.03
-31.01
-35.73
-39.21
-40.70
-39.90
-36.97
-32.42
-26.91
-21.05
-15.27
-9.71
-4.35
0.89
5.94
10.46
13.97
15.96
16.24
15.03
12.90
10.59
8.69
7.43
6.69
6.18
5.57
4.73
3.72
2.83
2.41
2.86
4.51
7.51
11.68
16.55
21.44
25.72
29.06
31.48
33.27
34.66
35.57
35.55
33.90
30.14
24.30
17.11
9.75
3.44
-1.04
-3.58
-4.64
-4.92
-4.93
-4.82
-4.44
-3.62
-2.30
-0.58
1.38
3.47
5.63
7.72
9.47
10.48
10.37
8.97
6.36
2.82
-1.33
-5.87
-10.61
-15.33
-19.73
-23.54
-26.77
-29.79
-33.35
-38.28
-45.03
-53.54
-63.11
-72.79
-81.61
-88.92
-94.45
-98.11
-99.76
-99.13
-95.83
-89.58
-80.45
-68.97
-56.03
-42.71
-30.07
-18.94
-9.88
-3.13
1.38
3.94
5.06
5.34
5.40
5.79
6.88
8.75
11.09
13.16
14.00
12.65
8.63
2.13
-5.93
-14.12
-20.93
-25.23
-26.50
-24.97
-21.48
-17.25
-13.51
-11.25
-10.95
-12.54
-15.53
-19.25
-23.10
-26.63
-29.52
-31.49
-32.19
-31.41
-29.14
-25.76
-21.95
-18.42
-15.69
-13.84
-12.59
-11.44
-9.94
-7.83
-5.07
-1.70
2.24
6.77
11.97
17.89
24.49
31.58
38.77
45.48
50.96
54.41
55.23
53.24
48.86
43.06
37.07
31.98
28.38
26.23
24.97
23.87
22.34
20.14
17.39
14.51
12.06
10.63
10.78
12.96
17.36
23.81
31.74
40.29
48.45
55.31
60.19
62.74
62.86
60.65
56.38
50.50
43.62
36.51
29.97
24.64
20.82
18.33
16.56
14.63
11.69
7.19
1.14
-5.85
-12.74
-18.37
-21.89
-22.92
-21.67
-18.75
-14.87
-10.61
-6.34
-2.30
1.28
4.00
5.42
5.18
3.24
0.08
-3.41
-6.24
-7.73
-7.77
-6.94
-6.22
-6.59
-8.66
-12.50
-17.65
-23.29
-28.42
-31.89
-32.51
-29.24
-21.37
-8.78
7.94
27.49
48.11
67.91
85.44
99.91
111.25
119.76
125.57
128.38
127.69
123.40
116.36
108.53
102.21
98.81
97.87
97.07
93.31
84.37
70.13
52.37
33.41
14.33
-5.82
-29.42
-58.51
-93.10
-130.56
-166.50
-196.64
-218.44
-231.67
-237.85
-239.06
-237.06
-232.97
-227.60
-221.87
-216.77
-213.07
-210.94
-209.76
-208.34
-205.31
-199.44
-189.84
-176.08
-158.34
-137.32
-113.99
-89.21
-63.41
-36.37
-7.73
22.52
53.43
83.03
108.75
128.26
140.26
144.80
143.03
136.54
126.74
114.56
100.68
85.96
71.70
59.56
51.00
46.82
46.91
50.48
56.63
64.67
74.21
84.74
95.32
104.51
110.83
113.50
113.05
111.37
111.14
114.79
123.52
136.79
152.52
167.99
180.79
189.49
193.55
192.73
186.46
173.80
154.28
128.97
101.04
75.20
56.00
45.81
43.76
46.09
47.97
45.40
36.71
22.68
5.65
-11.55
-26.63
-38.24
-46.04
-50.49
-52.48
-52.78
-51.59
-48.30
-41.78
-30.97
-15.44
4.25
26.89
51.20
76.43
102.57
130.12
159.66
191.42
225.18
260.21
295.31
328.68
357.96
380.52
393.95
396.95
389.82
374.59
354.40
332.49
311.18
291.27
272.22
252.77
231.89
209.19
184.88
159.31
132.51
104.09
73.57
40.80
6.26
-29.24
-64.86
-100.29
-135.77
-171.96
-209.63
-249.71
-293.35
-341.65
-394.73
-450.43
-503.81
-548.00
-576.41
-585.12
-573.95
-545.92
-505.47
-456.98
-404.27
-351.25
-302.42
-262.36
-234.21
-218.11
-210.84
-207.24
-202.57
-194.39
-182.87
-169.59
-155.90
-142.28
-128.42
-114.04
-99.37
-85.12
-72.13
-61.11
-52.57
-46.92
-44.31
-44.30
-45.53
-45.81
-42.85
-35.27
-23.47
-9.62
3.22
12.49
17.27
18.46
18.09
18.10
19.31
21.35
23.24
24.33
24.91
26.12
29.29
35.25
43.78
53.78
63.70
72.24
78.81
83.77
88.34
94.20
103.00
115.76
132.53
152.32
173.27
192.96
208.79
218.32
219.52
211.27
193.89
169.68
142.90
118.82
102.16
95.41
97.87
106.03
115.18
121.47
123.21
120.91
115.96
108.92
98.48
81.76
55.82
19.33
-26.62
-78.96
-133.93
-188.11
-238.49
-281.92
-314.97
-334.66
-340.31
-335.44
-328.01
-328.33
-345.06
-381.06
-431.41
-484.75
-527.49
-548.75
-543.96
-515.25
-469.32
-413.94
-355.10
-295.87
-237.10
-179.05
-122.84
-70.73
-25.05
13.26
45.62
75.36
106.04
139.46
174.43
207.13
232.83
248.24
253.05
250.00
243.51
237.59
234.24
233.06
231.97
228.63
221.58
210.72
196.97
181.65
165.78
149.89
134.20
119.12
105.64
95.19
88.93
87.06
88.48
91.21
93.31
93.94
93.69
94.04
96.35
100.81
106.22
110.59
112.22
110.61
106.71
102.42
99.73
100.02
103.67
110.20
118.30
125.98
130.87
130.71
124.26
112.16
97.15
83.20
73.81
70.16
70.41
70.39
65.62
52.99
31.59
2.16
-33.97
-75.44
-120.58
-166.82
-210.50
-247.98
-277.00
-297.77
-312.39
-323.27
-331.42
-335.84
-334.35
-325.23
-308.34
-285.19
-258.16
-229.57
-201.18
-174.28
-149.63
-127.39
-106.63
-85.38
-61.33
-33.22
-1.89
29.42
56.28
74.86
83.56
83.67
78.71
72.97
69.85
70.90
75.82
83.18
91.48
99.64
107.03
113.03
116.62
116.48
111.66
102.26
89.78
76.70
65.57
58.01
54.14
52.94
52.94
53.04
52.94
52.86
53.08
53.53
53.67
52.81
50.53
47.08
43.40
40.84
40.60
43.30
48.65
55.57
62.52
67.93
70.50
69.50
64.82
57.13
47.77
38.55
31.28
27.17
26.54
28.86
33.20
38.75
45.23
52.79
61.62
71.47
81.62
91.08
99.09
105.50
110.72
115.52
120.62
126.48
133.20
140.68
148.56
156.16
162.34
165.51
163.95
156.54
143.35
125.99
107.18
89.83
76.01
66.32
60.02
55.80
52.53
49.72
47.41
45.58
43.58
39.77
31.81
17.24
-5.63
-37.11
-75.71
-118.34
-160.86
-198.85
-228.53
-247.38
-254.58
-251.05
-239.20
-222.23
-203.25
-184.28
-165.47
-145.03
-119.91
-87.21
-45.70
3.33
56.26
108.33
155.14
193.64
222.32
240.76
249.17
248.22
239.36
224.67
206.21
185.09
160.77
131.65
96.69
57.11
16.98
-18.02
-43.20
-57.10
-62.18
-63.49
-66.11
-72.83
-83.28
-94.46
-102.22
-102.70
-93.45
-73.89
-45.54
-11.78
22.77
53.19
75.55
88.01
91.38
88.96
85.70
86.72
95.78
114.06
139.69
168.58
195.77
217.12
230.32
234.85
231.29
220.45
202.97
179.51
151.22
119.83
87.16
54.46
21.88
-11.42
-46.46
-83.65
-122.36
-161.12
-198.47
-233.68
-267.19
-300.56
-335.98
-375.53
-420.29
-469.53
-520.33
-567.95
-606.89
-632.55
-642.49
-636.94
-618.06
-588.68
-551.13
-506.83
-456.69
-401.70
-343.44
-283.86
-224.95
-168.47
-116.12
-69.77
-31.49
-2.92
15.73
26.17
32.01
37.75
47.22
62.63
84.28
111.00
140.86
171.23
198.30
216.76
220.48
204.50
167.68
114.19
52.68
-6.74
-56.31
-92.81
-117.24
-132.32
-139.68
-138.61
-127.11
-104.08
-71.08
-32.16
7.88
45.89
81.60
117.40
156.65
201.35
250.56
300.23
344.41
377.37
395.64
398.75
388.57
367.70
337.96
300.25
255.41
205.54
154.52
107.17
67.48
37.25
15.76
0.87
-9.47
-16.21
-19.25
-18.40
-14.08
-7.86
-2.15
0.29
-3.04
-13.73
-31.97
-56.14
-82.70
-106.81
-123.68
-129.98
-124.95
-110.64
-91.14
-71.13
-54.48
-43.22
-37.50
-36.20
-37.72
-40.74
-44.52
-48.83
-53.70
-59.13
-64.92
-70.71
-76.33
-82.25
-89.72
-100.33
-114.95
-132.50
-149.41
-160.23
-159.30
-142.85
-110.21
-63.81
-8.26
50.81
107.52
156.50
193.78
217.91
230.88
237.83
245.25
258.25
278.37
303.11
327.44
346.17
355.75
354.63
342.26
318.07
281.26
231.65
171.06
104.09
37.62
-20.88
-65.46
-93.71
-107.46
-111.98
-113.59
-116.96
-123.24
-130.10
-133.70
-131.42
-123.68
-113.81
-105.82
-101.80
-100.39
-97.39
-88.26
-70.87
-46.96
-21.64
-0.99
10.61
12.13
5.81
-4.32
-14.40
-22.08
-26.70
-28.66
-28.46
-26.25
-22.11
-16.62
-11.24
-8.04
-8.74
-13.70
-21.36
-28.67
-32.23
-29.66
-20.56
-6.52
9.48
24.20
35.09
40.85
41.48
37.94
31.65
24.01
16.19
9.01
3.08
-1.16
-3.39
-3.40
-1.27
2.55
7.22
11.59
14.52
15.19
13.41
9.72
5.35
1.94
1.09
3.86
10.35
19.62
29.98
39.45
46.38
49.96
50.29
48.14
44.48
39.95
34.68
28.54
21.74
15.31
11.04
10.89
15.91
25.42
36.85
46.53
51.02
48.48
39.25
25.56
10.62
-2.48
-11.58
-15.91
-16.14
-14.10
-12.29
-13.09
-18.25
-28.47
-43.34
-61.73
-82.22
-103.47
-124.24
-143.35
-159.72
-172.90
-183.78
-194.74
-208.78
-227.65
-250.02
-270.75
-282.30
-277.69
-253.55
-211.80
-158.65
-101.61
-46.17
5.88
55.92
106.34
158.50
211.54
262.56
307.41
341.41
359.80
358.33
334.43
288.99
227.54
160.00
98.18
52.06
26.33
19.07
23.17
29.70
31.43
25.09
11.35
-6.74
-25.72
-43.15
-57.77
-68.86
-75.68
-77.75
-75.37
-70.12
-64.70
-61.95
-63.87
-70.60
-80.41
-90.54
-98.38
-102.59
-103.65
-103.26
-103.05
-103.30
-102.22
-96.60
-83.57
-62.60
-36.52
-11.06
7.33
14.08
8.23
-7.27
-26.92
-44.62
-55.37
-56.24
-46.83
-29.15
-7.30
13.16
26.59
28.82
18.50
-2.53
-30.03
-59.07
-85.66
-107.79
-125.38
-139.39
-150.68
-159.45
-165.20
-167.41
-166.15
-162.30
-156.98
-150.74
-142.92
-131.75
-115.38
-93.10
-66.09
-37.23
-10.04
12.60
29.32
40.28
46.71
50.39
53.43
58.04
66.18
78.87
95.41
113.09
127.90
135.96
135.13
125.87
111.08
94.98
81.91
75.24
76.90
87.24
105.12
127.99
152.26
173.96
189.86
198.40
200.22
197.64
193.59
190.38
188.87
188.57
188.39
187.48
185.64
183.21
180.55
177.56
173.65
168.06
160.24
150.12
137.96
124.05
108.52
91.44
73.15
54.46
36.53
20.49
6.89
-4.55
-14.77
-24.77
-35.12
-45.64
-55.66
-64.61
-72.49
-80.03
-88.16
-97.29
-106.80
-115.02
-120.01
-120.53
-116.71
-110.04
-102.52
-95.62
-89.62
-83.71
-76.71
-67.95
-57.65
-46.68
-35.94
-25.85
-16.53
-8.33
-2.19
0.56
-0.82
-5.38
-9.84
-9.30
1.13
24.13
58.64
99.74
140.02
171.95
190.19
192.95
182.05
161.76
137.13
112.57
90.94
73.41
59.92
49.63
41.44
34.21
26.94
18.95
10.15
1.16
-6.92
-12.85
-15.92
-16.32
-15.13
-13.80
-13.54
-14.84
-17.31
-19.92
-21.43
-20.80
-17.35
-10.93
-1.94
8.52
18.71
26.59
30.40
29.46
24.42
17.15
9.88
4.23
0.57
-1.90
-4.41
-7.72
-11.56
-14.85
-16.50
-16.32
-15.32
-15.27
-17.71
-23.03
-30.05
-36.51
-40.02
-39.03
-33.41
-24.30
-13.45
-2.52
7.36
15.72
22.46
27.51
30.61
31.32
29.20
24.07
16.15
6.08
-5.21
-16.68
-27.31
-36.25
-42.86
-46.88
-48.49
-48.23
-46.85
-44.99
-43.04
-41.06
-38.96
-36.74
-34.54
-32.57
-31.03
-30.00
-29.56
-29.85
-31.00
-32.81
-34.30
-33.59
-28.29
-16.71
0.97
22.02
41.69
54.81
57.83
50.13
34.19
14.39
-4.85
-20.49
-31.55
-38.92
-44.57
-50.77
-59.34
-71.07
-85.25
-99.47
-109.85
-112.08
-102.87
-81.47
-50.34
-14.76
18.87
44.94
60.36
65.20
62.18
55.42
49.01
45.79
46.76
50.71
54.37
52.87
41.01
15.15
-24.96
-75.28
-128.34
-175.83
-211.51
-233.27
-243.11
-245.26
-243.64
-240.34
-235.56
-228.99
-221.16
-213.91
-209.39
-208.55
-210.08
-210.59
-205.95
-193.19
-171.77
-143.73
-112.88
-83.21
-57.46
-36.53
-19.67
-5.25
8.51
23.14
39.84
59.57
82.82
109.29
137.81
166.73
194.76
221.68
248.36
275.84
304.16
331.60
355.01
371.08
377.74
374.75
363.33
344.99
320.61
290.36
254.32
213.32
169.32
125.01
83.03
45.22
12.50
-14.83
-36.53
-52.23
-61.67
-65.22
-64.33
-61.51
-59.65
-61.11
-66.82
-76.03
-86.67
-96.26
-102.77
-105.25
-103.82
-99.34
-92.85
-85.16
-76.79
-68.02
-59.03
-49.92
-40.60
-30.81
-20.20
-8.52
4.01
16.67
28.30
37.60
43.57
45.67
43.86
38.48
29.99
18.96
6.01
-8.10
-22.62
-36.88
-50.32
-62.37
-72.13
-78.29
-79.22
-73.55
-60.74
-41.58
-18.08
7.06
31.31
52.82
70.59
84.14
93.09
96.97
95.38
88.37
76.67
61.68
45.07
28.39
12.71
-1.31
-13.18
-22.47
-28.73
-31.76
-31.96
-30.37
-28.52
-27.98
-29.74
-33.92
-39.76
-45.97
-51.23
-54.59
-55.72
-54.87
-52.66
-49.88
-47.31
-45.64
-45.32
-46.60
-49.48
-53.80
-59.28
-65.60
-72.34
-78.98
-84.85
-89.28
-91.75
-92.09
-90.55
-87.61
-83.78
-79.41
-74.72
-69.88
-65.25
-61.37
-58.80
-57.77
-57.89
-58.13
-57.07
-53.41
-46.36
-35.87
-22.61
-7.71
7.61
22.28
35.57
47.00
56.24
63.05
67.26
68.84
68.13
65.74
62.48
59.04
55.74
52.47
48.75
44.06
38.09
30.92
23.00
14.98
7.46
0.86
-4.65
-9.18
-13.04
-16.56
-19.91
-22.94
-25.12
-25.72
-24.08
-19.85
-13.18
-4.60
5.13
15.20
24.88
33.54
40.58
45.53
48.14
48.57
47.40
45.60
44.14
43.71
44.41
45.76
46.72
46.06
42.70
35.98
25.81
12.63
-2.72
-19.29
-36.12
-52.43
-67.56
-80.94
-91.98
-100.03
-104.41
-104.64
-100.51
-92.30
-80.78
-67.06
-52.32
-37.62
-23.69
-10.98
0.30
10.08
18.37
25.32
31.22
36.47
41.47
46.51
51.72
57.16
62.88
68.93
75.30
81.76
87.77
92.55
95.15
94.74
90.76
82.99
71.59
57.04
40.08
21.70
2.99
-14.78
-30.44
-42.99
-51.81
-56.86
-58.61
-58.01
-56.14
-53.95
-51.99
-50.37
-48.89
-47.30
-45.50
-43.58
-41.69
-39.87
-37.96
-35.58
-32.27
-27.76
-22.00
-15.30
-8.17
-1.17
5.23
10.80
15.51
19.49
22.91
25.94
28.72
31.42
34.21
37.20
40.34
43.26
45.28
45.52
43.18
37.81
29.51
18.93
7.19
-4.50
-15.02
-23.57
-29.80
-33.70
-35.55
-35.77
-34.90
-33.54
-32.31
-31.83
-32.49
-34.41
-37.34
-40.65
-43.53
-45.09
-44.55
-41.38
-35.43
-26.91
-16.43
-4.82
7.01
18.36
28.77
38.16
46.64
54.44
61.65
68.18
73.69
77.62
79.31
78.24
74.19
67.36
58.39
48.13
37.37
26.63
16.05
5.56
-4.93
-15.32
-25.20
-33.96
-40.94
-45.66
-47.93
-47.85
-45.73
-42.02
-37.12
-31.48
-25.57
-19.87
-14.86
-10.79
-7.60
-4.82
-1.75
2.33
7.87
14.98
23.33
32.31
41.14
48.98
55.12
59.20
61.45
62.71
64.22
67.09
71.80
77.87
83.96
88.44
90.01
88.10
82.98
75.43
66.37
56.53
46.28
35.75
24.91
13.81
2.60
-8.40
-18.82
-28.30
-36.58
-43.55
-49.21
-53.67
-57.25
-60.49
-64.19
-69.13
-75.78
-83.96
-92.78
-101.01
-107.54
-111.87
-114.21
-115.17
-115.38
-115.06
-113.96
-111.58
-107.50
-101.62
-94.20
-85.64
-76.39
-66.81
-57.25
-48.05
-39.61
-32.32
-26.46
-22.06
-18.91
-16.54
-14.41
-12.12
-9.57
-6.94
-4.56
-2.72
-1.49
-0.73
-0.25
0.06
0.12
-0.29
-1.36
-3.07
-5.06
-6.68
-7.20
-6.04
-2.96
1.88
7.96
14.58
21.04
26.76
31.34
34.66
36.74
37.80
38.17
38.24
38.36
38.74
39.34
39.92
40.14
39.73
38.58
36.82
34.64
32.25
29.72
27.02
24.10
20.92
17.50
13.98
10.56
7.50
5.19
4.03
4.34
6.21
9.42
13.46
17.71
21.65
24.93
27.43
29.14
30.06
30.19
29.51
28.13
26.25
24.21
22.34
20.82
19.69
18.81
18.01
17.15
16.18
15.02
13.57
11.67
9.27
6.60
4.20
2.82
3.09
5.30
9.29
14.59
20.62
26.99
33.52
40.06
46.42
52.28
57.37
61.62
65.32
68.91
72.86
77.41
82.49
87.89
93.36
98.71
103.84
108.60
112.77
116.08
118.21
118.95
118.11
115.56
111.14
104.75
96.40
86.39
75.32
63.97
53.11
43.39
35.09
28.18
22.35
17.07
11.74
5.74
-1.41
-9.95
-19.73
-30.26
-40.78
-50.54
-59.04
-66.17
-72.20
-77.60
-82.79
-87.93
-93.01
-97.84
-102.29
-106.35
-110.08
-113.37
-115.81
-116.68
-115.14
-110.62
-103.10
-93.27
-82.33
-71.65
-62.26
-54.63
-48.70
-44.06
-40.31
-37.27
-35.01
-33.60
-33.00
-32.91
-32.88
-32.50
-31.60
-30.29
-28.93
-27.85
-27.23
-27.02
-27.01
-27.03
-27.02
-27.10
-27.45
-28.07
-28.77
-29.05
-28.30
-25.96
-21.76
-15.80
-8.58
-0.86
6.48
12.73
17.49
20.79
23.01
24.76
26.59
28.82
31.43
34.09
36.29
37.48
37.24
35.40
32.10
27.72
22.79
17.69
12.63
7.56
2.30
-3.21
-8.79
-13.91
-17.81
-19.76
-19.31
-16.42
-11.49
-5.20
1.61
8.09
13.52
17.31
19.13
18.91
16.78
13.09
8.26
2.73
-3.13
-9.01
-14.69
-20.03
-24.87
-29.08
-32.53
-35.06
-36.67
-37.54
-38.17
-39.34
-41.89
-46.41
-52.95
-60.83
-68.74
-74.98
-77.95
-76.47
-70.09
-59.11
-44.50
-27.69
-10.27
6.28
20.85
32.74
41.75
48.03
52.04
54.36
55.59
56.16
56.21
55.65
54.17
51.43
47.20
41.36
33.90
24.95
14.73
3.60
-7.90
-19.20
-29.77
-39.32
-47.79
-55.25
-61.69
-66.88
-70.32
-71.35
-69.43
-64.40
-56.69
-47.30
-37.54
-28.61
-21.25
-15.49
-10.83
-6.64
-2.60
1.15
4.07
5.70
5.96
5.35
4.67
4.80
6.33
9.45
14.08
19.88
26.34
32.78
38.47
42.83
45.66
47.28
48.35
49.53
51.14
52.99
54.49
54.92
53.76
50.82
46.20
40.12
32.90
24.86
16.32
7.66
-0.81
-8.85
-16.36
-23.29
-29.61
-35.28
-40.31
-44.79
-48.94
-52.98
-57.04
-61.08
-64.83
-67.91
-69.89
-70.36
-68.94
-65.21
-58.81
-49.56
-37.72
-24.12
-10.08
2.83
13.28
20.53
24.54
25.89
25.41
23.83
21.58
18.76
15.35
11.40
7.09
2.79
-1.07
-4.16
-6.35
-7.71
-8.54
-9.25
-10.26
-11.87
-14.13
-16.76
-19.22
-20.81
-20.90
-19.14
-15.59
-10.75
-5.39
-0.32
3.86
6.90
8.84
9.82
9.88
8.85
6.45
2.52
-2.77
-8.87
-14.99
-20.40
-24.68
-27.75
-29.71
-30.61
-30.36
-28.90
-26.49
-23.83
-22.00
-22.00
-24.36
-28.75
-34.03
-38.59
-40.76
-39.34
-33.72
-24.08
-11.15
3.80
19.16
33.12
43.93
50.30
51.81
49.21
44.33
39.62
37.18
37.96
41.29
45.16
47.13
45.32
39.03
28.73
15.41
-0.13
-17.57
-36.74
-56.91
-76.07
-90.88
-97.56
-93.16
-76.97
-51.16
-20.54
8.67
30.28
39.59
34.41
15.63
-12.73
-44.26
-71.65
-88.72
-92.48
-84.02
-67.94
-50.18
-35.42
-25.41
-19.01
-13.80
-8.30
-3.32
-1.68
-6.65
-20.03
-40.95
-65.95
-90.02
-108.00
-115.63
-110.26
-91.09
-59.33
-18.12
27.84
73.07
112.46
142.33
161.16
169.54
169.69
164.53
156.93
149.01
141.82
135.22
128.12
119.04
106.85
91.39
73.78
56.11
40.66
28.94
21.23
16.62
13.43
9.86
4.37
-4.10
-15.95
-30.57
-46.03
-59.29
-66.97
-66.84
-58.91
-45.82
-31.75
-20.61
-14.39
-12.60
-13.01
-13.13
-11.52
-8.06
-3.42
1.82
7.55
13.94
20.81
27.35
32.23
34.25
32.98
29.00
23.71
18.80
15.73
15.36
18.02
23.52
31.42
41.03
51.51
61.86
71.04
78.02
82.02
82.62
79.86
74.28
66.80
58.46
50.21
42.50
35.29
28.11
20.35
11.58
1.75
-8.79
-19.51
-29.92
-39.72
-48.69
-56.56
-62.93
-67.39
-69.76
-70.38
-70.09
-70.04
-71.24
-74.19
-78.72
-84.08
-89.10
-92.56
-93.33
-90.65
-84.23
-74.38
-62.05
-48.63
-35.70
-24.69
-16.53
-11.66
-9.97
-11.03
-14.21
-18.79
-24.00
-29.00
-32.88
-34.61
-33.13
-27.53
-17.37
-2.93
14.70
33.98
53.30
71.54
88.28
103.61
117.73
130.58
141.67
150.19
155.36
156.55
153.41
145.81
133.98
118.64
101.31
84.17
69.60
59.47
54.37
53.41
54.63
55.80
55.32
52.64
48.21
42.91
37.57
32.65
28.13
23.71
18.94
13.32
6.54
-1.31
-9.50
-16.68
-21.16
-21.60
-17.54
-9.72
0.14
9.86
17.44
21.47
21.31
16.88
8.52
-3.19
-17.46
-33.20
-49.01
-63.35
-74.85
-82.73
-87.21
-89.64
-92.16
-97.02
-105.60
-117.65
-130.91
-141.53
-145.19
-138.47
-120.09
-91.45
-56.18
-18.94
15.97
45.72
69.32
87.16
100.17
109.18
114.66
116.92
116.49
114.23
111.04
107.42
103.11
97.14
88.46
76.65
62.49
47.95
35.57
27.40
24.21
25.15
28.19
30.99
31.93
30.56
27.48
23.79
20.36
17.38
14.35
10.46
5.06
-1.89
-9.75
-17.31
-23.31
-26.92
-28.10
-27.71
-27.07
-27.39
-29.12
-31.66
-33.64
-33.51
-30.24
-23.81
-15.05
-5.20
4.70
14.15
23.12
31.67
39.53
46.06
50.37
51.90
50.69
47.45
43.20
38.84
34.88
31.56
29.10
27.87
28.21
29.97
32.13
32.89
30.30
23.26
12.17
-1.08
-13.79
-23.61
-29.35
-31.20
-30.26
-27.91
-25.17
-22.58
-20.29
-18.35
-16.81
-15.78
-15.25
-15.02
-14.61
-13.32
-10.51
-5.84
0.37
7.07
12.75
15.83
15.36
11.33
4.54
-3.82
-12.74
-21.71
-30.69
-39.72
-48.69
-57.25
-64.93
-71.43
-76.73
-81.02
-84.54
-87.36
-89.25
-89.78
-88.53
-85.32
-80.45
-74.69
-69.11
-64.76
-62.25
-61.57
-62.01
-62.50
-62.02
-60.11
-56.95
-53.26
-49.82
-46.95
-44.24
-40.72
-35.29
-27.29
-16.80
-4.45
9.00
23.15
38.01
53.69
69.84
85.41
98.78
108.28
112.90
112.52
107.88
100.09
90.22
79.13
67.49
55.90
45.01
35.34
27.16
20.37
14.49
8.85
2.85
-3.76
-10.75
-17.42
-22.83
-26.12
-26.86
-25.23
-21.97
-18.06
-14.37
-11.36
-9.03
-7.12
-5.36
-3.66
-2.08
-0.69
0.64
2.31
4.79
8.32
12.70
17.21
20.87
22.82
22.64
20.46
16.84
12.46
7.78
2.99
-1.85
-6.62
-10.88
-13.90
-14.83
-13.12
-8.81
-2.65
4.08
10.01
14.17
16.30
16.81
16.43
15.82
15.29
14.80
14.14
13.13
11.75
10.02
7.94
5.41
2.32
-1.28
-5.07
-8.55
-11.16
-12.51
-12.48
-11.25
-9.23
-6.91
-4.83
-3.42
-2.95
-3.41
-4.56
-5.98
-7.26
-8.14
-8.55
-8.60
-8.40
-8.01
-7.42
-6.58
-5.53
-4.41
-3.47
-2.96
-3.01
-3.60
-4.52
-5.40
-5.87
-5.62
-4.55
-2.73
-0.45
1.95
4.15
5.99
7.47
8.71
9.78
10.66
11.17
11.04
10.11
8.41
6.21
3.96
2.05
0.67
-0.25
-0.98
-1.82
-2.96
-4.43
-6.10
-7.84
-9.54
-11.06
-12.17
-12.50
-11.64
-9.33
-5.63
-1.04
3.66
7.63
10.29
11.44
11.27
10.20
8.67
6.98
5.30
3.63
1.94
0.21
-1.55
-3.30
-4.98
-6.53
-7.93
-9.17
-10.21
-11.04
-11.53
-11.51
-10.78
-9.17
-6.67
-3.43
0.22
3.92
7.37
10.40
12.98
15.16
16.97
18.35
19.24
19.54
19.25
18.46
17.32
16.07
14.90
13.96
13.30
12.88
12.51
11.94
10.89
9.18
6.81
3.99
1.11
-1.40
-3.15
-3.97
-3.87
-3.06
-1.89
-0.74
0.02
0.16
-0.41
-1.55
-3.05
-4.60
-5.99
-7.11
-7.89
-8.31
-8.33
-8.02
-7.54
-7.22
-7.41
-8.32
-9.87
-11.72
-13.37
-14.31
-14.25
-13.08
-10.86
-7.84
-4.39
-0.99
1.83
3.66
4.38
4.16
3.40
2.49
1.65
0.92
0.18
-0.64
-1.48
-2.20
-2.70
-2.98
-3.16
-3.42
-3.88
-4.54
-5.37
-6.29
-7.22
-8.07
-8.63
-8.59
-7.65
-5.59
-2.45
1.45
5.63
9.57
12.85
15.21
16.55
16.89
16.31
14.95
12.97
10.57
7.98
5.44
3.22
1.47
0.21
-0.67
-1.41
-2.28
-3.39
-4.74
-6.21
-7.64
-8.90
-9.89
-10.50
-10.62
-10.19
-9.25
-7.98
-6.65
-5.49
-4.63
-4.07
-3.79
-3.79
-4.20
-5.10
-6.44
-7.92
-9.10
-9.59
-9.27
-8.33
-7.18
-6.15
-5.41
-4.94
-4.63
-4.47
-4.51
-4.79
-5.19
-5.35
-4.86
-3.48
-1.26
1.37
3.88
5.86
7.20
8.05
8.64
9.05
9.16
8.69
7.47
5.52
3.15
0.82
-1.04
-2.20
-2.68
-2.69
-2.52
-2.46
-2.69
-3.31
-4.36
-5.75
-7.29
-8.65
-9.49
-9.55
-8.74
-7.22
-5.31
-3.44
-1.99
-1.24
-1.28
-2.07
-3.47
-5.29
-7.36
-9.52
-11.65
-13.57
-15.03
-15.80
-15.71
-14.78
-13.21
-11.34
-9.49
-7.84
-6.36
-4.87
-3.18
-1.07
1.55
4.78
8.66
13.25
18.52
24.35
30.47
36.48
41.91
46.29
49.23
50.47
50.02
48.13
45.32
42.28
39.67
37.91
36.98
36.50
35.81
34.28
31.53
27.61
22.90
17.99
13.46
9.73
6.95
4.98
3.47
1.99
0.14
-2.24
-5.01
-7.78
-10.06
-11.51
-12.09
-12.07
-11.99
-12.41
-13.66
-15.73
-18.22
-20.53
-22.00
-22.23
-21.18
-19.23
-16.96
-14.98
-13.66
-13.06
-12.88
-12.68
-12.00
-10.62
-8.51
-5.89
-2.98
0.03
3.09
6.13
9.02
11.41
12.81
12.73
10.85
7.05
1.47
-5.66
-14.04
-23.40
-33.47
-44.06
-54.99
-66.12
-77.21
-87.81
-97.19
-104.49
-108.96
-110.25
-108.54
-104.43
-98.67
-91.81
-84.05
-75.36
-65.64
-55.05
-44.01
-33.14
-23.06
-14.10
-6.27
0.65
7.02
13.08
18.82
23.98
28.18
31.09
32.57
32.80
32.11
30.80
29.04
26.81
24.10
21.09
18.25
16.28
15.78
17.00
19.66
23.12
26.58
29.50
31.71
33.36
34.79
36.36
38.30
40.75
43.74
47.18
50.77
54.05
56.44
57.40
56.63
54.14
50.19
45.17
39.45
33.33
27.11
21.13
15.80
11.61
8.94
7.97
8.58
10.41
12.90
15.48
17.67
19.20
20.06
20.39
20.40
20.18
19.73
18.95
17.81
16.42
14.98
13.69
12.53
11.30
9.66
7.41
4.64
1.74
-0.76
-2.40
-2.95
-2.39
-0.78
1.85
5.47
9.94
14.81
19.25
22.24
22.92
20.97
16.77
11.24
5.50
0.37
-3.93
-7.71
-11.47
-15.58
-19.97
-24.17
-27.61
-29.93
-31.15
-31.67
-32.01
-32.59
-33.54
-34.69
-35.73
-36.31
-36.13
-34.99
-32.84
-29.77
-26.04
-22.02
-18.15
-14.82
-12.30
-10.71
-9.99
-10.02
-10.62
-11.59
-12.80
-14.08
-15.30
-16.29
-16.88
-16.93
-16.42
-15.49
-14.41
-13.57
-13.29
-13.68
-14.61
-15.73
-16.58
-16.76
-15.99
-14.22
-11.63
-8.54
-5.38
-2.55
-0.34
1.14
1.90
2.03
1.66
0.87
-0.23
-1.53
-2.83
-3.97
-4.83
-5.40
-5.80
-6.16
-6.59
-7.10
-7.63
-8.14
-8.59
-9.04
-9.48
-9.83
-9.86
-9.26
-7.88
-5.75
-3.21
-0.76
1.14
2.27
2.68
2.61
2.29
1.80
1.05
-0.06
-1.54
-3.21
-4.82
-6.13
-7.06
-7.70
-8.22
-8.75
-9.34
-9.95
-10.57
-11.19
-11.82
-12.36
-12.59
-12.21
-10.94
-8.71
-5.68
-2.25
1.14
4.10
6.38
7.95
8.80
9.01
8.59
7.58
6.08
4.27
2.43
0.85
-0.18
-0.55
-0.27
0.46
1.36
2.08
2.36
2.08
1.22
-0.04
-1.43
-2.60
-3.17
-2.85
-1.48
0.84
3.77
6.76
9.23
10.81
11.40
11.19
10.50
9.55
8.43
7.09
5.53
3.89
2.50
1.68
1.54
1.90
2.32
2.29
1.47
-0.17
-2.36
-4.67
-6.68
-8.05
-8.61
-8.35
-7.32
-5.65
-3.48
-0.96
1.77
4.48
6.94
8.86
9.98
10.14
9.35
7.78
5.72
3.53
1.50
-0.11
-1.15
-1.57
-1.43
-0.88
-0.21
0.27
0.21
-0.61
-2.28
-4.64
-7.28
-9.65
-11.14
-11.30
-9.93
-7.23
-3.70
0.01
3.29
5.76
7.28
7.92
7.82
7.07
5.71
3.75
1.35
-1.20
-3.53
-5.27
-6.27
-6.59
-6.48
-6.25
-6.12
-6.21
-6.55
-7.10
-7.81
-8.58
-9.18
-9.31
-8.65
-7.05
-4.63
-1.76
1.04
3.32
4.85
5.65
5.89
5.73
5.23
4.36
3.12
1.58
-0.05
-1.50
-2.57
-3.16
-3.34
-3.25
-3.02
-2.80
-2.71
-2.86
-3.35
-4.20
-5.28
-6.31
-6.89
-6.65
-5.37
-3.07
-0.00
3.35
6.47
8.88
10.35
10.86
10.63
9.91
8.94
7.74
6.19
4.09
1.35
-1.90
-5.26
-8.24
-10.39
-11.52
-11.75
-11.40
-10.82
-10.25
-9.72
-9.09
-8.16
-6.75
-4.80
-2.35
0.51
3.63
6.82
9.88
12.59
14.77
16.30
17.18
17.49
17.45
17.37
17.53
18.08
18.95
19.86
20.43
20.44
19.92
19.18
18.61
18.44
18.54
18.50
17.82
16.22
13.70
10.62
7.52
4.97
3.46
3.32
4.57
6.91
9.69
12.01
13.05
12.38
10.10
6.82
3.37
0.43
-1.65
-2.89
-3.52
-3.79
-3.88
-3.87
-3.89
-4.12
-4.79
-6.07
-7.95
-10.24
-12.58
-14.54
-15.74
-15.89
-14.79
-12.29
-8.33
-2.93
3.78
11.55
20.03
28.84
37.47
45.37
51.92
56.54
58.85
58.81
56.80
53.51
49.76
46.19
43.08
40.18
36.85
32.26
25.80
17.32
7.30
-3.31
-13.45
-22.30
-29.48
-34.99
-39.04
-41.85
-43.51
-44.12
-43.88
-43.20
-42.64
-42.78
-43.99
-46.33
-49.51
-53.00
-56.14
-58.34
-59.14
-58.34
-55.98
-52.34
-47.86
-43.01
-38.18
-33.68
-29.69
-26.30
-23.58
-21.53
-20.05
-18.86
-17.49
-15.37
-12.09
-7.60
-2.29
3.14
7.93
11.54
13.85
15.07
15.56
15.59
15.23
14.43
13.10
11.31
9.32
7.51
6.23
5.69
5.84
6.42
7.00
7.13
6.47
4.87
2.49
-0.28
-2.84
-4.59
-5.10
-4.23
-2.17
0.61
3.55
6.18
8.16
9.37
9.80
9.51
8.63
7.27
5.61
3.82
2.06
0.45
-0.88
-1.83
-2.33
-2.41
-2.24
-2.13
-2.41
-3.36
-5.01
-7.21
-9.59
-11.71
-13.11
-13.44
-12.48
-10.22
-6.90
-2.90
1.26
5.12
8.35
10.78
12.32
12.95
12.64
11.45
9.55
7.27
5.09
3.44
2.61
2.60
3.16
3.89
4.33
4.17
3.28
1.69
-0.44
-2.87
-5.27
-7.19
-8.19
-7.88
-6.18
-3.30
0.19
3.65
6.56
8.68
10.03
10.70
10.78
10.20
8.90
6.92
4.52
2.13
0.15
-1.17
-1.85
-2.09
-2.15
-2.22
-2.39
-2.78
-3.50
-4.72
-6.42
-8.34
-9.94
-10.60
-9.93
-7.97
-5.26
-2.57
-0.61
0.25
0.04
-0.98
-2.52
-4.49
-7.01
-10.31
-14.56
-19.68
-25.24
-30.52
-34.71
-37.27
-38.23
-38.31
-38.75
-40.81
-45.28
-52.09
-60.34
-68.64
-75.61
-80.29
-82.34
-82.07
-80.32
-78.29
-77.27
-78.13
-80.60
-82.65
-80.36
-68.71
-43.27
-2.34
51.47
111.11
166.70
208.49
229.73
228.47
207.34
171.88
128.29
81.71
35.75
-7.09
-44.75
-75.24
-96.94
-108.89
-110.87
-102.90
-84.51
-54.10
-9.13
52.57
130.75
220.89
313.81
397.27
459.37
492.24
494.37
470.42
428.61
377.33
322.61
267.84
214.92
166.02
124.23
92.70
73.12
64.55
63.68
66.12
68.10
67.43
63.57
57.25
49.60
41.67
34.14
27.23
20.68
13.90
6.36
-2.01
-10.62
-18.50
-24.78
-29.22
-32.41
-35.49
-39.52
-45.04
-51.86
-59.31
-66.78
-74.03
-81.34
-89.18
-97.91
-107.44
-117.29
-126.75
-135.24
-142.54
-148.88
-154.80
-160.98
-168.04
-176.36
-186.07
-196.98
-208.57
-219.95
-229.99
-237.58
-241.82
-242.01
-237.58
-227.86
-212.21
-190.35
-162.94
-131.83
-99.89
-70.22
-45.10
-25.34
-10.31
1.36
10.79
18.36
23.80
26.89
28.18
29.15
31.62
36.86
44.93
54.61
64.01
71.42
75.94
77.53
76.65
73.79
69.28
63.42
56.78
50.30
45.08
41.94
41.04
41.79
43.10
43.83
43.21
40.92
37.21
32.75
28.56
25.95
26.16
29.95
36.88
44.97
50.97
51.37
43.84
28.44
7.70
-14.47
-34.70
-51.81
-67.16
-83.55
-103.25
-126.45
-151.28
-175.20
-196.89
-217.05
-237.56
-259.47
-281.58
-300.47
-312.45
-315.82
-312.00
-304.47
-296.41
-288.50
-278.69
-263.77
-241.87
-213.99
-183.55
-154.40
-128.79
-106.37
-85.10
-62.95
-39.43
-15.70
6.35
25.50
42.12
57.89
74.80
94.01
115.25
137.19
158.30
177.71
195.59
212.85
230.33
248.28
266.05
282.40
295.99
305.80
311.38
312.79
310.53
305.40
298.41
290.68
283.26
276.95
272.14
268.69
266.11
263.71
260.80
256.89
251.68
245.07
237.05
227.74
217.31
206.03
194.18
181.95
169.36
156.23
142.37
127.75
112.70
97.83
83.86
71.38
60.61
51.52
43.94
37.70
32.65
28.45
24.36
19.24
11.71
0.47
-15.23
-35.59
-60.31
-88.94
-121.10
-156.62
-195.43
-237.32
-281.77
-327.59
-372.91
-415.05
-450.77
-476.77
-490.32
-489.84
-475.16
-447.49
-409.01
-362.53
-311.15
-258.08
-206.48
-159.12
-118.13
-84.61
-58.67
-39.54
-25.97
-16.59
-10.16
-5.58
-1.92
1.71
6.05
11.67
18.84
27.39
36.71
45.88
53.86
59.80
63.18
63.95
62.52
59.63
56.22
53.17
51.15
50.42
50.77
51.67
52.46
52.62
51.86
50.13
47.39
43.61
38.75
32.92
26.44
19.82
13.57
7.96
2.99
-1.58
-6.06
-10.62
-15.28
-19.92
-24.45
-28.80
-32.86
-36.38
-38.98
-40.21
-39.72
-37.40
-33.37
-27.93
-21.47
-14.41
-7.23
-0.43
5.48
10.11
13.28
15.05
15.69
15.52
14.80
13.72
12.38
10.92
9.47
8.13
6.91
5.70
4.29
2.56
0.49
-1.68
-3.63
-4.97
-5.39
-4.69
-2.81
0.20
4.17
8.76
13.50
17.85
21.33
23.64
24.71
24.69
23.83
22.40
20.67
18.87
17.19
15.72
14.46
13.30
12.05
10.60
8.95
7.21
5.58
4.31
3.57
3.50
4.13
5.44
7.24
9.25
11.13
12.63
13.62
14.10
14.08
13.44
11.81
8.63
3.38
-4.17
-13.62
-23.84
-33.20
-40.16
-44.03
-45.53
-46.78
-50.52
-58.87
-72.15
-88.49
-104.32
-115.66
-119.36
-113.80
-99.08
-76.74
-49.60
-21.60
2.87
20.18
29.11
31.95
34.23
42.70
62.56
95.09
137.10
182.28
223.72
256.08
276.48
284.01
278.71
260.94
231.45
191.89
144.89
93.64
40.88
-12.00
-65.03
-118.81
-173.17
-226.21
-274.38
-313.71
-341.40
-357.01
-362.39
-360.58
-354.34
-345.08
-332.89
-317.37
-298.54
-277.25
-254.92
-232.71
-211.09
-189.86
-168.71
-147.77
-127.87
-110.22
-95.88
-85.14
-77.24
-70.52
-62.98
-52.94
-39.71
-23.86
-6.93
9.26
23.45
35.47
46.15
56.57
67.21
77.43
85.66
90.30
90.54
86.83
80.68
73.85
67.60
62.41
58.10
54.39
51.24
48.84
47.15
45.56
42.92
38.04
30.54
21.28
12.29
6.02
4.28
7.61
15.21
25.50
36.79
47.77
57.48
65.13
69.95
71.30
68.94
63.28
55.32
46.37
37.60
29.79
23.32
18.22
14.37
11.51
9.28
7.23
4.91
2.10
-1.10
-4.11
-5.93
-5.43
-1.68
5.59
15.86
27.75
39.47
49.35
56.36
60.45
62.26
62.71
62.42
61.43
59.33
55.69
50.57
44.63
38.96
34.51
31.64
29.92
28.28
25.63
21.32
15.57
9.40
4.29
1.63
2.25
6.24
13.05
21.75
31.43
41.34
50.91
59.60
66.84
72.00
74.55
74.22
71.16
65.96
59.46
52.61
46.18
40.59
35.83
31.51
27.04
21.84
15.61
8.36
0.51
-7.14
-13.59
-17.76
-18.77
-16.24
-10.43
-2.25
7.02
16.18
24.46
31.64
37.87
43.42
48.36
52.55
55.70
57.52
57.86
56.68
54.06
50.22
45.49
40.24
34.72
28.90
22.58
15.63
8.24
1.12
-4.71
-8.26
-8.95
-6.73
-1.92
5.05
13.84
24.11
35.30
46.44
56.21
63.27
66.73
66.36
62.70
56.74
49.63
42.34
35.56
29.67
24.81
21.00
18.16
16.16
14.77
13.70
12.70
11.71
10.99
11.05
12.52
15.82
20.91
27.13
33.42
38.56
41.66
42.45
41.33
39.18
36.92
35.18
34.14
33.53
32.96
32.13
31.06
29.99
29.18
28.71
28.42
27.93
26.84
24.91
22.16
18.88
15.64
13.10
11.94
12.67
15.56
20.58
27.47
35.74
44.72
53.59
61.47
67.46
70.90
71.49
69.39
65.18
59.70
53.88
48.60
44.48
41.77
40.26
39.24
37.83
35.30
31.43
26.71
22.18
18.99
17.80
18.32
19.24
18.65
14.83
7.07
-3.83
-15.68
-25.83
-32.34
-35.00
-35.64
-37.57
-44.43
-58.85
-81.48
-110.53
-142.14
-171.19
-192.57
-202.44
-199.24
-184.08
-160.36
-132.62
-105.08
-80.49
-59.73
-42.14
-26.40
-11.35
3.59
18.40
32.61
45.47
55.98
63.00
65.53
63.11
56.22
46.36
35.65
26.18
19.31
15.47
14.26
14.89
16.52
18.55
20.64
22.58
24.20
25.32
25.69
25.04
23.11
19.87
15.64
11.11
7.12
4.27
2.58
1.29
-0.93
-5.52
-13.52
-25.16
-39.56
-54.89
-68.60
-78.03
-81.03
-76.55
-64.89
-47.70
-27.51
-7.13
10.87
24.58
32.95
35.77
33.56
27.40
18.76
9.25
0.42
-6.51
-10.79
-12.30
-11.49
-9.25
-6.65
-4.61
-3.65
-3.86
-4.99
-6.70
-8.77
-11.11
-13.56
-15.81
-17.32
-17.56
-16.34
-14.09
-11.88
-11.08
-12.94
-18.04
-26.16
-36.32
-47.13
-57.14
-65.09
-70.07
-71.56
-69.47
-64.15
-56.40
-47.26
-37.71
-28.49
-19.94
-12.16
-5.19
0.83
5.65
9.10
11.18
12.26
12.85
13.55
14.72
16.46
18.59
20.79
22.73
24.11
24.71
24.45
23.47
22.22
21.45
21.99
24.48
29.07
35.29
42.17
48.59
53.64
56.87
58.33
58.37
57.41
55.74
53.46
50.58
47.09
43.01
38.52
33.87
29.38
25.37
22.04
19.40
17.27
15.38
13.51
11.64
9.95
8.74
8.30
8.75
10.03
11.99
14.43
17.26
20.45
23.98
27.72
31.32
34.14
35.40
34.36
30.59
24.24
16.03
7.14
-1.24
-8.31
-13.95
-18.73
-23.57
-29.36
-36.66
-45.52
-55.53
-65.85
-75.26
-82.31
-85.52
-83.89
-77.23
-66.37
-52.94
-38.68
-24.90
-12.01
0.15
11.77
22.51
31.34
36.95
38.43
35.79
30.03
22.78
15.67
9.84
5.80
3.57
2.97
3.79
5.85
8.82
12.18
15.29
17.62
19.06
19.98
21.12
23.25
26.81
31.68
37.19
42.35
46.19
47.97
47.36
44.47
39.75
33.96
27.92
22.34
17.60
13.62
9.99
6.17
1.80
-3.13
-8.27
-13.16
-17.50
-21.35
-25.08
-29.15
-33.78
-38.73
-43.40
-47.08
-49.30
-50.02
-49.58
-48.48
-47.11
-45.80
-44.82
-44.58
-45.50
-47.81
-51.28
-55.05
-57.89
-58.66
-56.82
-52.60
-46.85
-40.69
-35.03
-30.43
-27.11
-25.15
-24.62
-25.45
-27.40
-29.90
-32.07
-32.98
-31.98
-28.97
-24.49
-19.56
-15.34
-12.68
-11.85
-12.52
-13.95
-15.30
-15.89
-15.31
-13.45
-10.41
-6.47
-2.02
2.53
6.85
10.75
14.23
17.41
20.34
22.89
24.76
25.60
25.19
23.64
21.38
19.05
17.33
16.66
17.18
18.64
20.51
22.09
22.78
22.22
20.37
17.51
14.08
10.53
7.22
4.45
2.47
1.44
1.50
2.59
4.50
6.76
8.83
10.18
10.48
9.65
7.87
5.50
2.97
0.78
-0.62
-0.78
0.54
3.33
7.22
11.53
15.46
18.32
19.70
19.57
18.19
15.97
13.32
10.62
8.17
6.21
4.91
4.26
4.08
3.95
3.36
1.85
-0.81
-4.55
-9.01
-13.71
-18.13
-21.80
-24.38
-25.55
-25.05
-22.77
-18.80
-13.59
-7.85
-2.43
1.98
5.04
6.82
7.72
8.22
8.69
9.27
9.91
10.50
10.95
11.26
11.41
11.34
10.88
9.83
8.08
5.68
2.89
0.10
-2.28
-3.97
-4.85
-4.99
-4.61
-3.97
-3.27
-2.59
-1.84
-0.81
0.66
2.57
4.64
6.34
7.04
6.23
3.75
-0.18
-4.96
-9.85
-14.13
-17.27
-18.94
-19.05
-17.81
-15.71
-13.49
-11.96
-11.77
-13.09
-15.47
-17.92
-19.21
-18.35
-14.96
-9.45
-2.84
3.70
9.28
13.57
16.72
19.08
20.91
22.16
22.56
21.86
20.09
17.59
14.87
12.34
10.18
8.30
6.48
4.58
2.60
0.71
-0.93
-2.25
-3.29
-4.10
-4.70
-4.93
-4.53
-3.21
-0.82
2.49
6.35
10.18
13.51
16.00
17.58
18.39
18.64
18.48
17.98
17.11
15.82
14.11
12.09
10.01
8.23
7.17
7.09
8.01
9.59
11.21
12.24
12.27
11.39
10.24
9.77
10.97
14.43
20.20
27.71
35.97
43.81
50.21
54.51
56.47
56.22
54.07
50.38
45.34
39.11
31.88
24.06
16.28
9.29
3.64
-0.51
-3.49
-5.98
-8.75
-12.33
-16.89
-22.31
-28.22
-34.16
-39.51
-43.60
-45.75
-45.55
-43.07
-38.96
-34.29
-30.16
-27.28
-25.83
-25.50
-25.79
-26.27
-26.69
-26.95
-26.93
-26.43
-25.22
-23.22
-20.64
-17.95
-15.66
-14.15
-13.43
-13.23
-13.13
-12.79
-12.08
-11.07
-9.87
-8.59
-7.19
-5.60
-3.77
-1.76
0.22
1.92
3.09
3.49
3.02
1.62
-0.59
-3.37
-6.33
-9.02
-11.08
-12.33
-12.82
-12.78
-12.53
-12.32
-12.32
-12.58
-13.10
-13.82
-14.66
-15.47
-15.97
-15.85
-14.77
-12.62
-9.49
-5.76
-1.96
1.42
4.06
5.88
7.00
7.63
7.92
7.95
7.71
7.18
6.42
5.59
4.90
4.51
4.42
4.45
4.28
3.57
2.16
0.14
-2.15
-4.24
-5.65
-6.07
-5.46
-3.96
-1.91
0.34
2.48
4.28
5.66
6.60
7.12
7.26
7.05
6.50
5.68
4.65
3.57
2.58
1.78
1.24
0.90
0.67
0.38
-0.11
-0.91
-1.97
-3.15
-4.12
-4.51
-3.99
-2.44
0.01
2.97
5.95
8.50
10.42
11.68
12.44
12.80
12.73
12.06
10.64
8.47
5.81
3.16
1.03
-0.26
-0.72
-0.63
-0.45
-0.56
-1.16
-2.22
-3.56
-4.95
-6.15
-6.97
-7.27
-6.92
-5.88
-4.14
-1.79
0.98
3.95
6.78
9.18
10.84
11.58
11.36
10.28
8.62
6.69
4.85
3.40
2.51
2.21
2.34
2.64
2.78
2.52
1.72
0.40
-1.32
-3.21
-5.01
-6.36
-6.90
-6.33
-4.53
-1.74
1.51
4.47
6.49
7.22
6.78
5.59
4.18
2.93
1.97
1.21
0.54
-0.08
-0.58
-0.89
-1.02
-1.13
-1.39
-1.91
-2.65
-3.46
-4.21
-4.83
-5.39
-5.88
-6.17
-5.97
-4.93
-2.89
0.05
3.47
6.82
9.57
11.45
12.45
12.71
12.39
11.56
10.20
8.29
5.93
3.41
1.17
-0.40
-1.07
-0.93
-0.37
0.09
-0.03
-0.97
-2.71
-5.00
-7.48
-9.77
-11.52
-12.46
-12.35
-11.05
-8.56
-5.11
-1.16
2.62
5.59
7.30
7.63
6.81
5.29
3.51
1.76
0.13
-1.44
-2.99
-4.47
-5.70
-6.51
-6.82
-6.73
-6.46
-6.26
-6.28
-6.63
-7.31
-8.31
-9.65
-11.26
-12.93
-14.26
-14.70
-13.78
-11.33
-7.58
-3.20
0.96
4.09
5.73
5.83
4.71
2.92
0.96
-0.79
-2.15
-3.13
-3.82
-4.32
-4.67
-4.92
-5.06
-5.12
-5.17
-5.28
-5.51
-5.84
-6.25
-6.74
-7.37
-8.24
-9.36
-10.58
-11.51
-11.67
-10.66
-8.36
-5.05
-1.34
2.10
4.66
6.07
6.33
5.72
4.58
3.24
1.90
0.71
-0.21
-0.81
-1.04
-0.90
-0.50
0.01
0.44
0.59
0.38
-0.19
-1.00
-1.86
-2.67
-3.40
-4.21
-5.26
-6.58
-7.94
-8.81
-8.56
-6.71
-3.25
1.32
6.17
10.44
13.56
15.36
16.01
15.76
14.83
13.35
11.40
9.22
7.11
5.44
4.45
4.17
4.41
4.85
5.19
5.21
4.83
4.07
3.00
1.66
0.05
-1.85
-4.02
-6.32
-8.45
-9.98
-10.49
-9.74
-7.76
-4.96
-1.91
0.78
2.71
3.69
3.77
3.08
1.73
-0.17
-2.47
-4.90
-7.11
-8.75
-9.65
-9.88
-9.73
-9.54
-9.55
-9.78
-10.09
-10.27
-10.20
-9.92
-9.63
-9.64
-10.20
-11.41
-13.10
-14.85
-16.10
-16.35
-15.33
-13.11
-10.02
-6.57
-3.21
-0.28
2.07
3.81
4.94
5.53
5.71
5.67
5.69
6.03
6.82
8.04
9.53
11.03
12.26
13.03
13.15
12.56
11.32
9.57
7.55
5.51
3.57
1.68
-0.35
-2.77
-5.66
-8.83
-11.77
-13.83
-14.45
-13.40
-10.88
-7.41
-3.62
-0.13
2.66
4.53
5.42
5.41
4.68
3.51
2.32
1.55
1.57
2.50
4.17
6.12
7.73
8.30
7.17
3.86
-1.77
-9.41
-18.15
-26.66
-33.44
-37.30
-37.70
-34.86
-29.58
-22.80
-15.21
-7.08
1.62
10.90
20.52
29.93
38.46
45.50
50.71
54.05
55.67
55.79
54.62
52.28
48.84
44.37
38.96
32.78
26.01
18.84
11.46
4.04
-3.15
-9.79
-15.49
-19.92
-23.02
-25.12
-26.93
-29.29
-32.89
-37.83
-43.59
-49.09
-53.05
-54.45
-52.84
-48.57
-42.66
-36.50
-31.38
-27.99
-26.33
-25.74
-25.39
-24.72
-23.71
-22.85
-22.74
-23.66
-25.37
-27.25
-28.72
-29.64
-30.39
-31.58
-33.57
-36.10
-38.29
-39.12
-37.84
-34.43
-29.52
-24.06
-18.88
-14.33
-10.22
-6.09
-1.40
4.07
10.21
16.56
22.48
27.36
30.71
32.37
32.42
31.17
29.01
26.31
23.39
20.54
18.05
16.26
15.47
15.81
17.14
19.07
21.06
22.65
23.61
24.04
24.19
24.22
24.13
23.60
22.30
20.05
17.02
13.74
10.92
9.20
8.88
9.85
11.71
13.93
16.01
17.66
18.75
19.33
19.49
19.39
19.12
18.76
18.40
18.11
17.93
17.87
17.83
17.59
16.91
15.58
13.59
11.09
8.42
5.88
3.65
1.70
-0.16
-2.01
-3.77
-5.09
-5.52
-4.74
-2.76
0.07
3.15
5.87
7.87
9.06
9.62
9.79
9.81
9.74
9.54
9.02
7.96
6.22
3.80
0.87
-2.23
-5.16
-7.65
-9.63
-11.14
-12.27
-13.07
-13.49
-13.54
-13.28
-12.83
-12.25
-11.45
-10.08
-7.78
-4.32
0.10
4.90
9.22
12.27
13.65
13.46
12.18
10.42
8.64
7.00
5.43
3.81
2.16
0.68
-0.43
-1.06
-1.37
-1.73
-2.53
-3.96
-5.89
-7.96
-9.69
-10.72
-10.91
-10.28
-8.92
-6.89
-4.21
-0.94
2.75
6.52
9.90
12.42
13.76
13.86
12.93
11.30
9.32
7.22
5.11
2.99
0.90
-1.11
-2.93
-4.44
-5.57
-6.34
-6.80
-7.06
-7.25
-7.50
-7.90
-8.46
-9.05
-9.36
-8.98
-7.51
-4.80
-1.01
3.33
7.43
10.54
12.14
12.16
10.94
9.04
7.05
5.34
3.99
2.87
1.76
0.56
-0.70
-1.88
-2.80
-3.35
-3.52
-3.39
-3.08
-2.74
-2.48
-2.33
-2.30
-2.33
-2.32
-2.12
-1.53
-0.41
1.33
3.58
6.04
8.26
9.79
10.32
9.74
8.19
5.96
3.33
0.58
-2.07
-4.42
-6.26
-7.44
-7.89
-7.69
-7.05
-6.22
-5.40
-4.77
-4.41
-4.36
-4.64
-5.17
-5.81
-6.25
-6.19
-5.40
-3.85
-1.80
0.28
1.87
2.60
2.34
1.29
-0.19
-1.68
-2.92
-3.82
-4.48
-5.00
-5.42
-5.65
-5.56
-5.10
-4.35
-3.55
-2.95
-2.71
-2.82
-3.18
-3.70
-4.37
-5.22
-6.19
-7.07
-7.55
-7.35
-6.39
-4.90
-3.27
-1.90
-0.96
-0.42
-0.11
0.11
0.21
0.07
-0.40
-1.13
-1.88
-2.31
-2.19
-1.47
-0.33
0.91
1.95
2.61
2.81
2.57
1.91
0.86
-0.53
-2.13
-3.67
-4.79
-5.17
-4.64
-3.23
-1.23
0.94
2.81
3.95
4.16
3.40
1.84
-0.20
-2.33
-4.19
-5.48
-5.99
-5.66
-4.45
-2.47
0.08
2.85
5.33
7.02
7.55
6.84
5.09
2.71
0.11
-2.37
-4.52
-6.17
-7.15
-7.27
-6.39
-4.60
-2.15
0.52
2.95
4.81
6.02
6.67
6.94
7.01
7.04
7.17
7.55
8.28
9.37
10.64
11.73
12.23
11.79
10.25
7.69
4.36
0.57
-3.35
-7.11
-10.38
-12.81
-14.03
-13.80
-12.10
-9.23
-5.69
-1.98
1.47
4.46
6.95
8.97
10.53
11.59
12.09
12.07
11.62
10.90
10.08
9.21
8.30
7.23
5.91
4.22
2.10
-0.39
-3.06
-5.63
-7.76
-9.15
-9.60
-8.98
-7.27
-4.48
-0.67
3.94
8.97
13.90
18.14
21.17
22.73
22.80
21.69
19.89
18.07
16.89
16.87
18.19
20.58
23.37
25.61
26.44
25.41
22.66
18.93
15.39
13.20
13.17
15.28
18.36
20.19
18.03
9.67
-5.46
-25.67
-47.28
-65.82
-77.78
-81.95
-79.77
-74.60
-70.25
-69.47
-73.14
-80.23
-88.39
-94.83
-97.05
-93.44
-83.73
-69.24
-52.64
-37.32
-26.32
-21.22
-21.46
-24.55
-26.83
-24.77
-16.13
-0.67
19.88
42.32
63.07
79.10
88.73
91.84
89.68
84.25
77.49
70.70
64.34
58.17
51.69
44.50
36.52
28.03
19.54
11.69
5.23
0.80
-1.26
-1.12
0.50
2.52
3.92
4.14
3.36
2.30
1.89
2.73
4.90
7.95
11.22
14.10
16.32
17.89
19.01
19.89
20.60
21.10
21.23
20.80
19.74
18.08
15.95
13.46
10.62
7.32
3.41
-1.12
-6.08
-10.98
-15.14
-17.96
-19.13
-18.84
-17.77
-16.88
-17.11
-18.98
-22.34
-26.33
-29.59
-30.70
-28.61
-23.02
-14.56
-4.76
4.14
9.68
9.99
4.56
-5.22
-16.30
-25.05
-28.62
-26.10
-18.72
-9.09
0.19
7.64
13.19
17.69
22.12
26.96
32.32
38.26
45.19
53.87
65.21
79.92
98.25
119.97
144.29
169.97
195.16
217.51
234.37
243.46
243.56
235.12
220.41
202.87
186.01
172.07
161.29
151.93
141.27
127.11
108.80
87.43
64.93
42.93
21.89
1.40
-18.84
-37.99
-53.82
-63.57
-65.41
-59.71
-49.18
-37.83
-29.26
-25.21
-25.16
-27.10
-28.84
-29.34
-29.16
-29.91
-33.34
-40.50
-51.41
-65.26
-80.93
-97.29
-113.30
-127.96
-140.26
-149.44
-155.34
-158.64
-160.76
-163.17
-166.61
-170.59
-173.51
-173.50
-169.46
-161.65
-151.58
-141.19
-131.94
-124.45
-118.53
-113.80
-110.06
-107.42
-105.93
-105.33
-104.95
-104.01
-102.07
-99.23
-95.98
-92.70
-89.26
-85.04
-79.25
-71.65
-62.89
-54.39
-47.67
-43.49
-41.46
-40.08
-37.51
-32.43
-24.59
-14.71
-3.82
7.56
19.70
33.31
48.62
64.52
78.58
87.99
90.96
87.89
81.32
74.80
71.19
71.38
74.14
77.12
78.28
76.91
73.48
68.96
63.98
58.79
53.65
49.46
47.70
49.55
54.58
60.14
61.73
54.63
35.76
5.07
-34.24
-76.57
-115.59
-146.01
-164.82
-171.84
-169.31
-160.73
-149.40
-137.05
-123.38
-106.49
-84.24
-55.69
-21.99
13.85
48.11
77.82
101.79
120.57
135.62
148.10
157.87
163.38
162.55
154.03
138.17
117.25
94.67
73.73
56.65
44.13
35.59
29.71
25.00
20.04
13.58
4.65
-7.29
-22.09
-38.75
-55.61
-70.86
-83.01
-91.27
-95.43
-95.65
-92.13
-85.04
-74.66
-61.71
-47.46
-33.58
-21.67
-12.78
-6.97
-3.44
-0.92
1.57
4.36
6.91
8.25
7.64
5.22
2.31
1.03
3.43
10.41
21.12
33.11
43.35
49.48
50.78
48.35
44.45
41.54
41.49
45.39
53.63
66.08
81.92
99.37
115.80
128.44
135.51
137.01
134.55
130.24
125.15
118.49
107.99
91.45
68.42
41.11
13.77
-9.03
-24.33
-31.75
-33.29
-32.02
-30.73
-31.10
-33.67
-38.38
-45.12
-53.87
-64.37
-75.60
-85.52
-91.54
-91.50
-84.82
-73.00
-59.30
-47.37
-40.00
-38.20
-41.28
-47.81
-56.73
-67.89
-81.81
-98.80
-118.20
-138.43
-157.80
-175.36
-191.12
-205.41
-217.77
-226.16
-227.40
-218.49
-198.26
-168.37
-133.05
-97.70
-67.02
-43.46
-26.74
-14.47
-3.48
8.68
22.76
37.66
51.04
60.64
65.47
66.20
64.74
63.11
62.40
62.56
62.79
62.38
61.05
58.80
55.39
50.01
41.59
29.54
14.46
-1.80
-17.04
-29.91
-40.56
-50.26
-60.13
-69.91
-77.93
-81.95
-80.76
-74.87
-66.28
-57.10
-48.22
-38.67
-26.20
-8.58
15.04
43.60
74.49
104.56
131.18
152.83
169.18
180.50
186.86
187.49
180.70
164.74
139.00
105.34
68.18
33.53
6.89
-8.73
-13.67
-10.90
-4.38
2.77
9.14
14.85
20.55
26.63
32.83
38.50
43.18
46.90
50.17
53.65
57.68
62.03
65.78
67.40
65.14
57.65
44.58
26.92
6.84
-13.08
-30.63
-44.45
-53.95
-59.02
-59.81
-56.88
-51.49
-45.62
-41.41
-40.26
-41.98
-44.70
-45.75
-42.90
-35.54
-24.93
-13.52
-3.80
2.72
5.96
6.99
7.36
8.24
10.06
12.48
14.95
17.17
19.45
22.64
27.69
35.08
44.44
54.60
64.15
71.90
77.30
80.37
81.27
79.84
75.35
66.93
54.22
37.96
20.05
2.87
-11.57
-22.32
-29.48
-33.67
-35.34
-34.46
-30.79
-24.47
-16.51
-8.69
-2.97
-0.67
-1.86
-5.25
-8.76
-10.19
-8.00
-1.88
7.16
17.01
25.20
29.82
30.21
27.08
22.11
16.97
12.50
8.45
3.96
-1.57
-7.74
-13.07
-15.70
-14.33
-9.00
-1.25
6.25
10.35
8.13
-2.20
-20.62
-45.02
-71.50
-95.34
-112.16
-118.90
-114.16
-97.97
-71.36
-36.33
3.96
44.91
81.02
107.33
121.19
123.37
117.67
109.20
102.04
97.72
95.19
91.99
85.80
75.41
60.98
43.46
24.06
4.00
-15.52
-33.16
-47.63
-57.89
-63.45
-64.34
-60.97
-53.92
-43.79
-31.32
-17.57
-3.94
7.96
16.76
21.60
22.45
19.96
15.26
9.57
3.60
-2.83
-10.75
-21.52
-35.75
-52.46
-69.01
-82.04
-89.10
-89.92
-86.54
-82.09
-78.85
-76.84
-73.82
-66.88
-54.48
-37.70
-19.87
-4.88
4.75
8.87
9.42
9.09
9.98
12.94
17.59
22.91
27.96
32.29
35.99
39.68
44.11
49.89
57.22
65.82
75.08
84.36
93.09
100.77
106.74
110.14
110.13
106.57
100.45
93.83
89.22
88.50
91.90
97.60
101.92
100.48
89.61
67.84
36.72
0.54
-35.07
-65.31
-87.99
-104.21
-117.29
-130.78
-146.56
-164.27
-182.53
-200.63
-219.50
-240.89
-265.41
-291.06
-313.37
-327.33
-329.78
-320.75
-302.74
-278.84
-250.78
-218.65
-182.01
-141.44
-99.19
-58.22
-20.62
13.57
46.00
78.53
111.55
143.39
171.25
192.75
207.22
215.88
221.03
224.52
226.70
226.36
221.56
211.08
195.40
176.87
158.90
144.50
135.22
130.66
128.93
127.70
125.27
121.02
115.42
109.48
104.21
100.10
97.00
94.19
90.58
84.99
76.41
64.25
48.51
29.98
10.54
-7.07
-20.06
-26.98
-28.99
-30.26
-36.69
-53.56
-82.96
-122.43
-165.50
-203.91
-230.44
-241.00
-235.32
-216.39
-189.19
-159.27
-131.53
-109.04
-92.54
-80.45
-69.91
-58.15
-43.97
-28.07
-12.72
-0.67
6.05
6.78
2.38
-5.04
-12.45
-16.66
-15.19
-7.59
3.71
13.27
13.85
-1.74
-38.48
-97.40
-174.82
-262.47
-349.01
-422.29
-472.29
-493.59
-486.46
-456.17
-410.66
-357.75
-303.01
-249.14
-196.67
-145.35
-95.11
-46.07
1.94
49.91
99.69
153.35
212.06
275.14
339.50
399.84
450.07
485.23
503.31
506.04
498.09
485.02
470.90
456.90
441.59
422.71
399.16
372.16
344.85
320.70
301.57
286.75
273.21
257.18
235.92
208.88
177.66
144.97
113.30
84.23
58.55
36.90
19.98
7.98
-0.47
-8.85
-21.84
-43.00
-72.17
-104.57
-132.36
-148.31
-149.46
-138.42
-121.63
-105.63
-93.72
-84.89
-75.54
-62.43
-45.08
-25.88
-8.47
4.52
12.70
17.67
21.55
25.50
28.96
30.13
27.01
18.55
5.20
-11.19
-28.02
-42.91
-54.47
-62.72
-68.75
-74.15
-80.06
-86.67
-93.14
-98.09
-100.40
-99.91
-97.70
-95.69
-95.91
-99.54
-106.32
-114.65
-122.18
-126.80
-127.35
-123.88
-117.32
-108.89
-99.64
-90.27
-81.20
-72.63
-64.42
-55.87
-45.55
-31.62
-12.43
12.61
42.56
74.98
106.48
133.64
153.75
165.43
168.96
166.22
160.34
154.83
152.53
154.59
160.12
166.71
171.54
172.65
169.54
162.99
154.22
144.09
132.72
119.73
104.83
88.11
70.10
51.42
32.62
14.22
-3.12
-18.48
-30.92
-39.87
-45.52
-48.88
-51.50
-54.80
-59.51
-65.50
-71.93
-77.84
-82.61
-86.18
-88.89
-91.04
-92.59
-93.09
-91.97
-88.95
-84.32
-78.91
-73.71
-69.47
-66.30
-63.79
-61.22
-58.01
-53.95
-49.23
-44.28
-39.52
-35.19
-31.34
-27.83
-24.51
-21.31
-18.32
-15.75
-13.87
-12.87
-12.65
-12.84
-12.81
-11.93
-9.80
-6.53
-2.67
0.96
3.62
4.99
5.21
4.77
4.21
3.88
3.81
3.81
3.68
3.32
2.80
2.32
2.04
1.95
1.93
1.75
1.20
0.13
-1.50
-3.65
-6.20
-8.97
-11.72
-14.19
-16.20
-17.69
-18.80
-19.76
-20.90
-22.42
-24.42
-26.86
-29.64
-32.65
-35.74
-38.70
-41.15
-42.61
-42.61
-40.88
-37.44
-32.65
-27.17
-21.72
-16.90
-13.11
-10.43
-8.79
-8.02
-7.97
-8.54
-9.66
-11.28
-13.28
-15.53
-17.81
-19.95
-21.78
-23.23
-24.29
-25.07
-25.76
-26.62
-27.82
-29.35
-30.86
-31.76
-31.44
-29.47
-25.87
-21.10
-15.85
-10.82
-6.52
-3.19
-0.90
0.33
0.54
-0.15
-1.49
-3.16
-4.85
-6.45
-7.99
-9.60
-11.31
-12.97
-14.23
-14.79
-14.60
-14.01
-13.62
-14.04
-15.48
-17.60
-19.65
-20.76
-20.34
-18.31
-15.02
-11.06
-6.97
-3.12
0.22
2.87
4.62
5.26
4.74
3.19
0.90
-1.71
-4.21
-6.24
-7.49
-7.88
-7.56
-6.91
-6.44
-6.62
-7.68
-9.53
-11.76
-13.86
-15.27
-15.62
-14.68
-12.45
-9.17
-5.28
-1.37
2.04
4.59
6.20
7.00
7.21
6.96
6.29
5.17
3.64
1.90
0.27
-0.95
-1.67
-2.00
-2.23
-2.67
-3.55
-4.91
-6.67
-8.72
-10.92
-13.04
-14.81
-15.85
-15.79
-14.40
-11.70
-8.03
-3.98
-0.16
2.93
5.05
6.23
6.69
6.68
6.38
5.90
5.23
4.39
3.41
2.43
1.59
1.04
0.76
0.59
0.24
-0.62
-2.17
-4.39
-7.00
-9.51
-11.37
-12.16
-11.63
-9.83
-7.05
-3.74
-0.41
2.50
4.72
6.18
6.98
7.27
7.14
6.58
5.51
3.87
1.76
-0.59
-2.90
-4.91
-6.54
-7.85
-9.00
-10.17
-11.49
-13.06
-14.93
-16.98
-18.84
-19.94
-19.63
-17.47
-13.50
-8.29
-2.69
2.46
6.68
9.91
12.35
14.13
15.19
15.31
14.30
12.25
9.54
6.69
4.17
2.14
0.55
-0.81
-2.13
-3.53
-5.09
-6.87
-8.99
-11.41
-13.87
-15.84
-16.64
-15.75
-13.00
-8.71
-3.54
1.77
6.60
10.61
13.64
15.69
16.74
16.79
15.81
13.90
11.24
8.15
4.99
2.17
-0.01
-1.47
-2.36
-3.08
-4.09
-5.76
-8.16
-11.08
-14.04
-16.48
-17.91
-17.98
-16.55
-13.71
-9.75
-5.12
-0.39
3.95
7.50
10.06
11.57
12.03
11.44
9.79
7.20
3.98
0.60
-2.46
-4.86
-6.55
-7.78
-8.89
-10.20
-11.88
-13.91
-16.25
-18.87
-21.66
-24.41
-26.67
-27.82
-27.31
-24.88
-20.77
-15.68
-10.51
-6.08
-2.94
-1.27
-1.00
-1.94
-3.90
-6.69
-10.13
-14.00
-18.05
-22.05
-25.84
-29.23
-32.14
-34.57
-36.59
-38.38
-40.05
-41.62
-42.94
-43.73
-43.64
-42.36
-39.64
-35.31
-29.34
-21.96
-13.69
-5.37
2.06
7.88
11.99
14.95
17.85
21.76
27.22
33.97
41.06
47.41
52.36
55.97
58.90
61.87
65.10
68.08
69.70
68.76
64.62
57.47
48.45
39.32
31.86
27.30
25.91
26.82
28.41
28.82
26.69
21.62
14.29
6.07
-1.43
-6.97
-9.99
-10.75
-10.12
-9.35
-9.69
-12.01
-16.54
-22.70
-29.19
-34.17
-35.84
-33.06
-25.87
-15.70
-5.01
3.44
7.56
6.37
0.05
-10.57
-24.57
-41.18
-59.47
-77.98
-94.61
-107.18
-114.32
-116.15
-114.30
-111.07
-108.28
-106.36
-104.36
-100.62
-93.64
-82.78
-68.36
-51.21
-32.16
-11.71
9.94
32.58
55.66
78.18
98.76
116.06
129.00
137.01
140.17
139.32
135.93
131.83
128.69
127.51
128.24
129.88
130.81
129.43
124.67
116.28
104.78
91.12
76.16
60.46
44.16
27.23
9.79
-7.67
-24.19
-38.66
-50.18
-58.51
-64.05
-67.62
-69.94
-71.48
-72.49
-73.35
-74.71
-77.42
-82.09
-88.75
-96.70
-104.87
-112.30
-118.58
-123.82
-128.51
-133.07
-137.64
-141.94
-145.24
-146.36
-143.68
-135.49
-120.54
-98.75
-71.67
-42.21
-13.86
10.48
29.34
42.89
52.41
59.46
65.15
69.85
73.35
75.27
75.46
74.21
72.21
70.47
69.97
71.39
74.73
79.21
83.45
86.01
85.90
83.09
78.31
72.68
67.05
61.63
56.04
49.86
43.06
36.36
31.01
28.26
28.84
32.64
38.83
46.28
53.94
61.14
67.57
73.12
77.67
81.03
82.92
83.02
81.05
76.82
70.26
61.51
51.02
39.49
27.84
17.06
7.96
1.06
-3.51
-5.93
-6.58
-5.78
-3.72
-0.35
4.56
11.18
19.50
29.17
39.49
49.62
58.86
66.82
73.40
78.62
82.36
84.15
83.31
79.22
71.71
61.15
48.41
34.46
20.03
5.40
-9.54
-25.12
-41.66
-59.28
-77.86
-96.91
-115.49
-132.16
-145.04
-152.13
-151.90
-143.75
-128.22
-106.88
-81.93
-55.75
-30.67
-8.68
8.76
21.01
28.50
32.57
35.10
37.73
41.28
45.55
49.61
52.34
52.91
50.82
45.59
36.47
22.25
1.69
-25.75
-59.21
-96.25
-133.20
-165.99
-191.18
-206.78
-212.45
-209.14
-198.43
-181.73
-159.97
-133.72
-103.58
-70.59
-36.39
-3.03
27.46
53.40
73.65
87.58
95.03
96.34
92.35
84.36
73.91
62.31
50.24
37.61
23.90
8.88
-6.69
-20.72
-30.04
-31.35
-22.35
-2.72
25.40
57.84
89.36
115.02
131.34
137.05
133.20
122.56
108.66
94.75
83.02
74.27
68.08
63.32
58.80
53.63
47.47
40.37
32.59
24.36
15.89
7.33
-1.10
-9.16
-16.65
-23.39
-29.09
-33.23
-35.03
-33.71
-28.95
-21.23
-11.94
-2.98
3.91
7.74
8.50
6.99
4.19
0.85
-2.80
-6.86
-11.37
-15.98
-19.92
-22.28
-22.56
-21.09
-19.13
-18.38
-20.30
-25.26
-32.29
-39.41
-44.53
-46.27
-44.53
-40.20
-34.60
-28.65
-22.67
-16.50
-10.04
-3.67
1.72
5.07
5.58
3.04
-2.20
-9.42
-17.84
-26.75
-35.55
-43.65
-50.52
-55.76
-59.13
-60.64
-60.44
-58.74
-55.67
-51.16
-44.91
-36.35
-24.67
-9.06
10.91
34.97
61.87
89.49
115.26
136.79
152.36
161.19
163.19
158.67
147.98
131.35
109.15
82.07
51.41
19.01
-12.95
-42.31
-67.34
-86.98
-100.87
-109.28
-112.92
-112.75
-109.77
-104.89
-98.63
-91.00
-81.49
-69.24
-53.39
-33.43
-9.45
17.76
46.79
75.84
102.95
126.26
144.17
155.62
160.12
157.89
149.72
136.76
120.37
101.91
82.68
63.88
46.49
31.20
18.39
8.15
0.44
-4.68
-6.99
-6.07
-1.50
6.96
19.00
33.67
49.30
63.82
75.11
81.61
82.59
78.23
69.43
57.49
43.83
29.80
16.57
4.93
-5.00
-13.84
-22.76
-32.88
-44.67
-57.43
-69.55
-79.18
-85.18
-87.70
-88.22
-88.89
-91.69
-97.70
-106.73
-117.42
-127.55
-134.43
-135.36
-128.21
-112.01
-87.48
-57.18
-24.97
4.99
29.45
47.05
58.34
65.15
69.44
72.38
74.15
74.41
73.05
70.69
68.47
67.44
67.80
68.73
68.77
66.54
61.58
54.46
46.55
39.32
33.78
30.23
28.40
27.77
27.89
28.47
29.30
30.11
30.50
30.07
28.64
26.39
23.89
21.96
21.28
22.17
24.39
27.25
29.78
31.12
30.72
28.46
24.63
19.76
14.38
8.86
3.40
-1.83
-6.58
-10.36
-12.54
-12.58
-10.27
-5.88
-0.14
5.90
11.05
14.18
14.35
10.97
4.06
-5.54
-16.21
-25.84
-32.50
-35.13
-33.91
-30.13
-25.61
-22.01
-20.29
-20.65
-22.83
-26.54
-31.73
-38.59
-47.38
-58.13
-70.41
-83.19
-94.90
-103.64
-107.49
-104.91
-95.25
-79.04
-58.11
-35.46
-14.66
0.89
8.90
8.81
1.96
-8.84
-20.27
-29.49
-34.95
-36.48
-34.86
-31.23
-26.49
-21.14
-15.44
-9.50
-3.39
2.98
9.94
18.01
27.59
38.63
50.55
62.48
73.64
83.78
93.16
102.22
111.04
119.00
124.99
127.90
127.28
123.60
118.03
111.80
105.65
99.74
93.90
88.24
83.28
79.74
78.02
77.67
77.53
76.29
73.28
69.04
65.16
63.61
65.82
72.00
81.05
90.93
99.37
104.56
105.51
102.17
95.16
85.46
74.00
61.50
48.45
35.22
22.18
9.77
-1.58
-11.70
-20.72
-29.04
-37.07
-44.99
-52.67
-59.68
-65.55
-70.01
-72.96
-74.44
-74.38
-72.63
-68.97
-63.39
-56.26
-48.32
-40.50
-33.59
-28.07
-24.02
-21.36
-19.98
-19.89
-21.13
-23.62
-27.03
-30.87
-34.64
-38.02
-40.93
-43.41
-45.54
-47.33
-48.71
-49.61
-50.02
-49.90
-49.15
-47.59
-45.03
-41.46
-37.08
-32.36
-27.80
-23.80
-20.54
-17.97
-15.94
-14.33
-13.10
-12.29
-12.00
-12.31
-13.31
-14.96
-17.14
-19.58
-22.00
-24.15
-25.96
-27.54
-29.09
-30.82
-32.78
-34.90
-36.96
-38.68
-39.83
-40.25
-39.88
-38.79
-37.17
-35.29
-33.34
-31.49
-29.72
-28.00
-26.31
-24.81
-23.83
-23.72
-24.71
-26.71
-29.31
-31.95
-34.17
-35.74
-36.64
-36.93
-36.58
-35.44
-33.40
-30.63
-27.69
-25.31
-23.97
-23.48
-22.91
-20.95
-16.58
-9.59
-0.68
8.89
17.87
25.31
30.54
32.81
31.14
24.73
13.79
0.09
-13.26
-23.03
-27.48
-27.38
-25.77
-26.31
-31.32
-40.57
-51.46
-60.43
-64.71
-63.23
-56.47
-45.51
-31.13
-13.61
6.74
28.95
51.16
71.09
86.88
97.70
103.81
106.01
104.84
100.13
91.22
77.70
60.20
40.68
21.96
6.80
-3.09
-7.61
-7.96
-6.00
-3.37
-0.94
1.27
3.84
7.42
12.39
18.53
25.17
31.40
36.54
40.35
43.08
45.08
46.31
45.96
42.60
34.70
21.35
2.77
-19.70
-44.04
-68.04
-89.70
-107.37
-119.72
-125.98
-126.26
-121.87
-115.06
-108.37
-103.69
-101.63
-101.60
-102.42
-103.22
-103.78
-104.35
-104.99
-105.19
-103.91
-100.10
-93.46
-84.75
-75.45
-67.30
-61.82
-60.04
-62.32
-68.18
-76.18
-84.02
-89.25
-90.13
-86.30
-78.79
-69.36
-59.61
-50.47
-42.34
-35.58
-30.88
-29.03
-30.14
-32.97
-34.95
-32.96
-24.46
-8.53
14.00
41.04
69.95
98.29
124.22
146.69
165.25
179.92
190.89
198.36
202.32
202.49
198.44
189.66
175.74
156.46
131.88
102.34
68.58
31.76
-6.56
-44.53
-80.18
-111.73
-137.79
-157.62
-171.21
-179.32
-183.08
-183.72
-182.05
-178.32
-172.48
-164.57
-155.11
-145.00
-134.97
-124.83
-113.21
-97.94
-76.90
-48.95
-14.46
24.65
65.29
103.68
135.85
158.32
168.96
167.76
157.32
142.47
128.93
121.56
122.64
131.19
143.61
155.16
161.88
161.91
156.03
147.09
138.83
134.31
134.74
139.08
144.60
147.99
146.65
139.60
127.77
113.70
100.76
92.18
90.12
94.84
104.49
115.43
123.05
123.11
112.95
92.26
62.99
28.68
-6.76
-40.08
-69.35
-94.01
-114.61
-132.26
-148.23
-163.59
-179.02
-194.69
-210.30
-225.09
-238.08
-248.23
-254.78
-257.47
-256.63
-253.20
-248.34
-243.11
-238.05
-233.06
-227.50
-220.57
-211.53
-200.02
-185.92
-169.37
-150.59
-129.95
-107.93
-85.12
-62.18
-39.55
-17.42
4.44
26.52
49.39
73.56
99.24
126.23
153.75
180.45
204.49
223.87
236.87
242.30
239.71
229.24
211.38
186.89
156.75
122.28
85.26
47.90
12.59
-18.36
-43.10
-60.58
-70.73
-74.52
-73.82
-70.99
-68.15
-66.58
-66.44
-66.96
-66.93
-65.34
-61.68
-56.02
-48.92
-41.57
-35.87
-34.27
-39.09
-51.39
-70.05
-91.62
-111.31
-124.64
-128.96
-124.36
-113.00
-98.07
-82.44
-67.99
-55.54
-45.42
-38.13
-34.66
-36.08
-42.82
-53.97
-67.08
-78.86
-86.45
-88.77
-86.86
-83.02
-79.07
-74.91
-68.40
-56.77
-38.65
-15.49
8.74
29.30
42.94
49.23
50.28
49.32
49.06
50.79
54.40
59.16
64.50
70.21
76.25
82.34
87.71
91.23
91.63
87.93
79.89
68.15
54.16
39.89
27.21
17.41
10.80
6.82
4.40
2.48
0.35
-2.34
-5.78
-10.20
-16.04
-23.75
-33.51
-44.87
-56.68
-67.34
-75.25
-79.30
-79.26
-75.74
-69.95
-63.19
-56.50
-50.45
-45.27
-41.09
-38.17
-36.94
-37.78
-40.82
-45.68
-51.58
-57.51
-62.53
-66.03
-67.87
-68.31
-67.88
-67.23
-66.88
-67.05
-67.60
-67.91
-67.00
-63.77
-57.30
-47.22
-33.84
-18.08
-1.25
15.32
30.62
44.02
55.32
64.58
71.93
77.48
81.27
83.32
83.77
82.93
81.36
79.77
78.82
78.86
79.78
80.99
81.67
81.17
79.26
76.30
73.01
70.28
68.78
68.99
71.17
75.36
81.44
88.97
97.21
105.18
111.91
116.70
119.21
119.41
117.36
112.96
105.85
95.61
81.99
65.22
46.12
26.02
6.44
-11.20
-25.92
-37.25
-45.23
-50.25
-52.86
-53.63
-53.04
-51.33
-48.51
-44.31
-38.39
-30.38
-20.17
-7.99
5.52
19.37
32.40
43.48
51.85
57.30
60.24
61.65
62.70
64.45
67.51
71.90
77.16
82.57
87.41
91.16
93.48
94.17
93.04
89.77
83.96
75.26
63.58
49.38
33.78
18.47
5.31
-4.18
-9.25
-10.19
-8.09
-4.34
-0.16
3.81
7.46
10.91
14.16
16.88
18.57
18.84
17.75
15.84
13.95
12.83
12.80
13.66
14.78
15.41
14.92
12.93
9.37
4.43
-1.39
-7.27
-12.15
-14.89
-14.61
-10.86
-3.87
5.58
16.36
27.21
37.03
45.05
50.89
54.56
56.36
56.70
55.95
54.34
51.96
48.86
45.18
41.22
37.33
33.80
30.73
28.04
25.50
22.86
19.94
16.56
12.58
7.94
2.84
-2.21
-6.43
-8.94
-9.10
-6.80
-2.48
2.98
8.59
13.48
17.07
19.07
19.35
17.99
15.26
11.62
7.76
4.36
1.97
0.82
0.77
1.47
2.45
3.33
3.88
3.95
3.42
2.17
0.11
-2.74
-6.11
-9.48
-12.18
-13.52
-13.06
-10.66
-6.59
-1.43
4.07
9.16
13.25
16.04
17.48
17.74
17.06
15.71
13.94
11.97
10.01
8.24
6.74
5.45
4.24
2.92
1.37
-0.49
-2.64
-5.10
-7.87
-10.90
-14.01
-16.87
-19.06
-20.19
-20.02
-18.55
-15.97
-12.53
-8.52
-4.20
0.12
4.05
7.16
9.04
9.44
8.32
5.87
2.50
-1.31
-5.02
-8.21
-10.59
-12.09
-12.81
-13.03
-13.03
-13.07
-13.27
-13.66
-14.24
-15.03
-16.01
-17.02
-17.71
-17.60
-16.21
-13.35
-9.23
-4.50
0.05
3.70
6.08
7.15
7.07
6.08
4.34
2.02
-0.68
-3.43
-5.84
-7.62
-8.67
-9.07
-9.08
-8.91
-8.72
-8.62
-8.76
-9.39
-10.80
-13.12
-16.19
-19.46
-22.09
-23.23
-22.32
-19.28
-14.53
-8.83
-3.03
2.16
6.31
9.24
10.93
11.40
10.68
8.83
6.11
2.93
-0.13
-2.57
-4.09
-4.72
-4.75
-4.65
-4.86
-5.75
-7.54
-10.28
-13.85
-17.86
-21.63
-24.30
-25.05
-23.35
-19.19
-13.12
-6.06
0.95
7.05
11.73
14.90
16.73
17.49
17.39
16.49
14.72
12.01
8.42
4.26
0.05
-3.64
-6.37
-8.01
-8.75
-9.08
-9.51
-10.47
-12.14
-14.39
-16.89
-19.11
-20.48
-20.47
-18.73
-15.22
-10.20
-4.26
1.83
7.24
11.35
13.82
14.62
14.00
12.34
9.96
7.12
4.05
1.00
-1.70
-3.72
-4.87
-5.18
-5.04
-5.00
-5.56
-6.99
-9.29
-12.20
-15.42
-18.60
-21.33
-23.12
-23.45
-21.91
-18.40
-13.22
-7.01
-0.57
5.36
10.27
13.81
15.74
15.96
14.52
11.70
8.09
4.43
1.38
-0.75
-2.02
-2.85
-3.78
-5.18
-7.22
-9.79
-12.74
-15.90
-19.16
-22.36
-25.22
-27.25
-27.90
-26.72
-23.55
-18.54
-12.20
-5.18
1.82
8.14
13.24
16.72
18.37
18.20
16.44
13.50
9.84
5.95
2.22
-1.06
-3.63
-5.38
-6.33
-6.69
-6.81
-7.08
-7.82
-9.19
-11.15
-13.50
-15.88
-17.84
-18.85
-18.45
-16.31
-12.50
-7.41
-1.79
3.53
7.85
10.77
12.20
12.25
11.11
8.97
6.05
2.67
-0.76
-3.80
-6.09
-7.43
-7.89
-7.70
-7.23
-6.89
-7.01
-7.85
-9.47
-11.78
-14.40
-16.80
-18.36
-18.49
-16.85
-13.43
-8.57
-2.90
2.85
8.03
12.18
15.07
16.68
17.08
16.35
14.61
12.03
8.86
5.49
2.33
-0.25
-2.07
-3.19
-3.92
-4.71
-6.04
-8.27
-11.53
-15.67
-20.21
-24.45
-27.57
-28.82
-27.72
-24.19
-18.58
-11.54
-3.87
3.66
10.42
15.96
20.03
22.46
23.25
22.49
20.39
17.26
13.49
9.47
5.59
2.12
-0.74
-2.97
-4.70
-6.17
-7.72
-9.67
-12.21
-15.32
-18.70
-21.76
-23.73
-23.89
-21.72
-17.13
-10.53
-2.75
5.20
12.30
17.82
21.44
23.20
23.44
22.55
20.85
18.53
15.70
12.54
9.36
6.63
4.79
4.14
4.74
6.35
8.56
10.85
12.74
13.87
14.13
13.75
13.38
13.94
16.36
21.23
28.56
37.64
47.33
56.36
63.63
68.42
70.30
69.09
64.72
57.26
46.99
34.49
20.62
6.36
-7.39
-19.96
-31.00
-40.50
-48.59
-55.47
-61.32
-66.21
-70.12
-72.92
-74.43
-74.42
-72.69
-69.17
-63.89
-57.11
-49.18
-40.60
-31.90
-23.63
-16.25
-10.12
-5.32
-1.76
0.75
2.43
3.33
3.40
2.54
0.75
-1.77
-4.65
-7.43
-9.72
-11.34
-12.35
-13.02
-13.79
-15.06
-17.14
-20.03
-23.35
-26.34
-28.05
-27.60
-24.47
-18.66
-10.64
-1.28
8.46
17.66
25.56
31.71
35.98
38.66
40.35
41.80
43.63
46.07
48.86
51.42
53.06
53.37
52.18
49.54
45.51
40.04
33.12
24.89
15.92
7.11
-0.52
-6.10
-9.21
-9.86
-8.45
-5.63
-2.07
1.57
4.75
7.10
8.40
8.58
7.67
5.71
2.72
-1.19
-5.76
-10.47
-14.67
-17.80
-19.67
-20.52
-20.99
-21.80
-23.42
-25.94
-29.10
-32.49
-35.72
-38.45
-40.28
-40.76
-39.32
-35.57
-29.50
-21.55
-12.54
-3.41
5.00
12.05
17.30
20.46
21.41
20.27
17.47
13.70
9.66
5.92
2.72
0.03
-2.31
-4.42
-6.39
-8.25
-10.16
-12.30
-14.90
-18.02
-21.44
-24.67
-26.99
-27.63
-26.01
-21.82
-15.18
-6.54
3.33
13.61
23.62
33.01
41.87
50.54
59.40
68.55
77.62
85.83
92.22
95.93
96.44
93.64
87.92
79.95
70.59
60.66
50.82
41.35
32.21
23.12
13.92
4.76
-3.75
-10.63
-14.73
-14.96
-10.59
-1.46
11.81
27.79
44.34
59.10
70.06
76.10
77.15
73.90
67.34
58.19
46.73
32.93
16.82
-1.17
-20.26
-39.47
-57.91
-74.86
-89.73
-101.91
-110.78
-115.85
-117.01
-114.70
-109.79
-103.28
-95.88
-87.74
-78.62
-68.08
-56.03
-42.86
-29.45
-16.88
-6.03
2.55
8.71
12.51
14.15
13.80
11.73
8.29
3.94
-0.80
-5.45
-9.69
-13.39
-16.61
-19.55
-22.44
-25.47
-28.67
-31.84
-34.56
-36.23
-36.36
-34.73
-31.65
-27.83
-24.25
-21.80
-20.92
-21.42
-22.49
-23.08
-22.24
-19.57
-15.32
-10.22
-5.16
-0.74
2.77
5.47
7.49
8.82
9.21
8.43
6.39
3.32
-0.33
-4.09
-7.61
-10.77
-13.44
-15.40
-16.23
-15.40
-12.54
-7.67
-1.28
5.74
12.37
17.76
21.43
23.27
23.49
22.39
20.31
17.54
14.44
11.37
8.71
6.72
5.48
4.80
4.37
3.84
2.97
1.64
-0.18
-2.45
-5.04
-7.68
-9.90
-11.09
-10.70
-8.41
-4.33
1.13
7.31
13.59
19.46
24.54
28.57
31.26
32.42
31.91
29.82
26.46
22.34
18.09
14.30
11.41
9.69
9.14
9.48
10.15
10.35
9.08
5.37
-1.45
-11.52
-24.18
-38.06
-51.31
-62.03
-68.80
-71.01
-68.99
-63.72
-56.54
-48.63
-40.89
-33.81
-27.64
-22.52
-18.52
-15.64
-13.70
-12.29
-10.87
-8.94
-6.27
-2.98
0.50
3.64
6.01
7.50
8.17
8.18
7.55
6.20
4.09
1.47
-1.00
-2.38
-1.78
1.22
6.40
12.90
19.52
25.11
28.79
30.14
29.10
25.89
20.97
14.99
8.74
2.96
-1.83
-5.60
-8.72
-11.85
-15.50
-19.74
-24.19
-28.18
-31.23
-33.39
-35.18
-37.31
-40.22
-43.57
-46.21
-46.19
-41.33
-29.76
-10.58
15.64
46.63
78.75
107.86
130.44
144.71
151.04
151.67
149.69
147.84
147.63
149.03
150.85
151.41
149.25
143.58
134.52
122.93
110.16
97.72
86.94
78.72
73.41
70.84
70.40
71.21
72.26
72.55
71.21
67.72
61.99
54.41
45.71
36.71
28.05
19.97
12.28
4.56
-3.59
-12.25
-21.00
-29.07
-35.57
-39.86
-41.74
-41.57
-40.03
-37.87
-35.67
-33.77
-32.31
-31.32
-30.75
-30.43
-29.99
-28.95
-26.86
-23.59
-19.50
-15.37
-12.11
-10.42
-10.55
-12.17
-14.70
-17.54
-20.43
-23.43
-26.82
-30.76
-35.09
-39.32
-42.82
-45.09
-46.01
-45.95
-45.61
-45.76
-46.93
-49.18
-52.15
-55.15
-57.41
-58.25
-57.21
-54.09
-48.98
-42.21
-34.40
-26.36
-18.89
-12.60
-7.71
-4.05
-1.25
1.05
3.02
4.67
5.96
6.94
7.74
8.47
9.11
9.45
9.25
8.31
6.57
4.03
0.61
-3.76
-9.12
-15.18
-21.26
-26.35
-29.39
-29.71
-27.22
-22.51
-16.58
-10.59
-5.54
-2.05
-0.43
-0.64
-2.36
-5.17
-8.50
-11.81
-14.61
-16.62
-17.84
-18.54
-19.15
-20.04
-21.46
-23.45
-25.90
-28.64
-31.52
-34.30
-36.64
-38.10
-38.19
-36.52
-33.01
-27.87
-21.61
-14.89
-8.39
-2.73
1.62
4.32
5.25
4.48
2.30
-0.83
-4.42
-8.00
-11.24
-13.90
-15.91
-17.26
-18.06
-18.48
-18.78
-19.30
-20.30
-21.99
-24.34
-27.06
-29.57
-31.11
-30.99
-28.76
-24.45
-18.53
-11.81
-5.22
0.43
4.56
6.89
7.35
6.01
3.08
-1.06
-5.91
-10.82
-15.16
-18.45
-20.49
-21.40
-21.50
-21.21
-20.95
-21.04
-21.73
-23.12
-25.13
-27.46
-29.56
-30.69
-30.18
-27.59
-22.91
-16.60
-9.43
-2.26
4.17
9.41
13.18
15.38
16.00
15.07
12.74
9.31
5.18
0.84
-3.25
-6.76
-9.48
-11.38
-12.56
-13.26
-13.77
-14.42
-15.51
-17.19
-19.43
-21.91
-24.09
-25.25
-24.69
-21.88
-16.73
-9.60
-1.32
7.04
14.47
20.22
23.88
25.45
25.12
23.24
20.22
16.52
12.66
9.11
6.25
4.26
3.11
2.59
2.41
2.25
1.78
0.68
-1.36
-4.50
-8.56
-12.98
-16.83
-19.10
-19.01
-16.30
-11.30
-4.74
2.47
9.53
15.78
20.72
23.94
25.11
24.15
21.30
17.09
12.29
7.67
3.80
1.00
-0.76
-1.71
-2.22
-2.71
-3.55
-5.00
-7.17
-10.07
-13.56
-17.43
-21.29
-24.56
-26.48
-26.32
-23.58
-18.28
-11.03
-2.89
4.89
11.23
15.55
17.69
17.97
16.86
14.91
12.54
10.04
7.62
5.38
3.43
1.93
0.98
0.58
0.47
0.16
-1.01
-3.57
-7.68
-13.00
-18.73
-23.85
-27.39
-28.68
-27.41
-23.62
-17.66
-10.08
-1.69
6.62
13.90
19.37
22.52
23.22
21.74
18.61
14.51
10.18
6.19
2.92
0.46
-1.29
-2.61
-3.82
-5.19
-6.90
-9.05
-11.68
-14.77
-18.18
-21.57
-24.30
-25.56
-24.57
-20.86
-14.56
-6.42
2.42
10.76
17.64
22.56
25.39
26.28
25.44
23.16
19.81
15.85
11.79
8.09
5.07
2.87
1.42
0.49
-0.30
-1.45
-3.45
-6.67
-11.13
-16.42
-21.64
-25.74
-27.71
-26.97
-23.44
-17.49
-9.81
-1.17
7.60
15.71
22.38
26.96
29.04
28.57
25.91
21.72
16.77
11.77
7.22
3.44
0.58
-1.34
-2.46
-3.06
-3.54
-4.42
-6.10
-8.87
-12.67
-17.10
-21.41
-24.62
-25.73
-23.97
-19.15
-11.72
-2.70
6.63
15.09
21.91
26.76
29.60
30.60
29.93
27.87
24.82
21.32
17.96
15.15
13.02
11.45
10.17
8.94
7.57
5.86
3.56
0.37
-3.90
-9.05
-14.48
-19.20
-22.12
-22.40
-19.69
-14.23
-6.77
1.65
9.92
17.04
22.29
25.26
25.89
24.40
21.23
16.92
12.11
7.41
3.42
0.58
-0.91
-1.19
-0.70
-0.06
0.14
-0.57
-2.39
-5.32
-9.18
-13.58
-17.88
-21.26
-22.79
-21.72
-17.77
-11.27
-3.15
5.33
12.96
18.96
23.00
25.15
25.63
24.65
22.38
19.10
15.23
11.39
8.20
6.09
5.09
4.84
4.78
4.37
3.23
1.20
-1.80
-5.72
-10.36
-15.30
-19.76
-22.77
-23.39
-21.09
-15.96
-8.72
-0.54
7.30
13.71
18.03
20.00
19.76
17.67
14.20
9.86
5.15
0.59
-3.36
-6.32
-8.08
-8.71
-8.60
-8.34
-8.66
-10.14
-13.09
-17.36
-22.33
-27.04
-30.34
-31.20
-28.99
-23.69
-15.81
-6.36
3.49
12.67
20.31
25.85
28.99
29.63
27.91
24.18
19.04
13.30
7.82
3.34
0.30
-1.28
-1.73
-1.64
-1.66
-2.35
-4.11
-7.07
-11.07
-15.61
-19.87
-22.84
-23.58
-21.51
-16.61
-9.41
-0.84
8.11
16.55
23.78
29.26
32.50
33.14
31.08
26.61
20.48
13.74
7.44
2.37
-1.11
-3.11
-4.04
-4.48
-5.02
-6.21
-8.48
-12.05
-16.87
-22.41
-27.79
-31.85
-33.51
-32.04
-27.28
-19.69
-10.14
0.24
10.29
19.01
25.61
29.63
30.93
29.75
26.64
22.33
17.58
13.06
9.30
6.59
5.01
4.36
4.22
4.01
3.13
1.21
-1.88
-5.92
-10.41
-14.64
-17.82
-19.14
-17.98
-14.02
-7.50
0.87
10.01
18.75
26.09
31.39
34.39
35.07
33.58
30.25
25.58
20.28
15.19
11.05
8.31
7.01
6.80
7.08
7.20
6.64
5.00
2.12
-2.00
-7.04
-12.41
-17.20
-20.43
-21.19
-19.05
-14.18
-7.38
0.15
7.18
12.70
16.19
17.59
17.17
15.25
12.10
7.82
2.47
-3.80
-10.55
-17.11
-22.71
-26.74
-28.99
-29.74
-29.76
-30.12
-31.98
-36.39
-44.05
-55.19
-69.19
-84.47
-98.54
-108.58
-112.15
-108.12
-96.98
-80.80
-62.48
-44.94
-30.36
-19.80
-13.34
-10.24
-9.34
-9.26
-8.60
-6.20
-1.35
6.11
15.77
26.86
38.63
50.48
62.11
73.45
84.48
95.19
105.53
115.37
124.67
133.34
141.17
147.94
153.42
157.41
159.73
160.06
157.89
152.55
143.36
130.00
112.78
92.73
71.38
50.21
30.24
11.80
-5.16
-20.67
-34.37
-45.50
-53.29
-57.54
-58.85
-58.60
-58.39
-59.24
-61.06
-62.45
-60.99
-53.87
-38.64
-14.31
17.62
52.59
83.51
102.74
104.96
89.64
61.71
29.90
3.28
-12.14
-15.28
-9.51
-0.50
6.30
7.26
0.88
-12.66
-32.17
-55.76
-81.00
-105.02
-125.19
-139.58
-147.45
-149.18
-145.87
-138.87
-129.48
-118.80
-107.64
-96.41
-85.15
-73.61
-61.53
-49.08
-37.05
-26.83
-19.93
-17.30
-18.70
-22.61
-26.65
-28.64
-27.57
-24.08
-20.13
-18.00
-19.10
-23.23
-28.72
-33.42
-35.71
-35.25
-32.78
-29.43
-25.75
-21.23
-14.48
-3.92
11.56
32.09
56.65
83.16
108.72
130.08
144.53
151.13
151.82
151.34
155.69
169.61
194.19
226.08
258.87
285.88
302.83
308.98
306.46
298.23
286.31
271.09
251.80
227.66
198.75
166.18
131.73
97.32
64.66
35.26
10.32
-9.48
-24.21
-34.68
-42.35
-48.76
-54.96
-61.21
-67.20
-72.66
-78.02
-84.41
-93.09
-104.48
-117.47
-129.61
-138.19
-141.71
-140.89
-138.44
-138.01
-142.58
-153.44
-169.92
-189.95
-211.08
-231.26
-249.38
-265.21
-279.13
-291.61
-302.56
-311.00
-315.05
-312.48
-301.68
-282.47
-256.51
-227.00
-197.64
-171.52
-150.28
-133.99
-121.64
-111.85
-103.58
-96.35
-90.04
-84.57
-79.53
-74.24
-68.06
-60.72
-52.58
-44.39
-36.92
-30.52
-24.95
-19.57
-13.92
-8.04
-2.60
1.55
3.94
4.92
5.66
7.73
12.46
20.51
31.70
45.22
59.98
74.87
88.91
101.19
110.95
117.53
120.55
119.94
116.03
109.51
101.40
92.80
84.74
77.85
72.33
67.87
63.95
60.09
56.09
52.01
48.03
44.17
40.10
35.20
28.88
20.85
11.49
1.72
-7.09
-13.56
-16.58
-15.61
-10.73
-2.67
7.32
17.83
27.51
35.40
41.04
44.39
45.73
45.47
44.12
42.21
40.32
38.97
38.49
38.96
40.21
41.91
43.73
45.41
46.69
47.28
46.86
45.08
41.68
36.70
30.52
23.84
17.69
13.20
11.43
13.11
18.40
26.81
37.27
48.40
58.81
67.42
73.61
77.19
78.30
77.24
74.46
70.52
66.00
61.49
57.36
53.71
50.41
47.18
43.79
40.17
36.39
32.58
28.78
24.87
20.49
15.07
7.99
-1.29
-12.91
-26.35
-40.34
-53.12
-62.90
-68.51
-69.82
-67.65
-63.49
-58.96
-55.38
-53.64
-54.21
-57.12
-61.94
-67.67
-72.92
-76.25
-76.75
-74.40
-70.03
-64.76
-59.26
-53.29
-45.72
-35.26
-21.15
-3.71
15.82
35.89
55.21
73.13
89.50
104.42
118.23
131.73
146.47
164.33
186.73
213.41
241.87
267.92
287.12
296.60
296.02
287.30
273.36
256.75
238.94
220.56
202.17
184.73
169.31
156.34
144.94
132.89
117.46
96.64
70.01
38.93
5.82
-26.97
-58.01
-86.93
-113.92
-138.86
-160.98
-179.20
-193.11
-203.53
-212.19
-220.42
-227.76
-231.66
-228.80
-217.41
-199.19
-179.26
-164.12
-158.54
-163.33
-175.05
-188.04
-197.16
-199.79
-196.14
-188.06
-177.34
-164.64
-149.41
-130.70
-108.09
-82.35
-55.22
-28.94
-5.30
14.74
31.20
44.62
55.63
64.53
71.24
75.60
77.59
77.50
75.72
72.75
69.08
65.31
62.09
59.96
58.96
58.43
57.17
53.91
47.97
39.68
30.34
21.69
15.28
11.96
11.75
14.04
17.96
22.67
27.53
32.15
36.33
39.98
43.10
45.73
47.94
49.77
51.23
52.30
52.83
52.67
51.58
49.35
45.77
40.67
34.01
26.00
17.09
7.87
-0.99
-9.02
-15.96
-21.91
-27.18
-32.20
-37.46
-43.43
-50.51
-58.99
-68.95
-79.97
-91.02
-100.55
-106.87
-108.82
-106.13
-99.61
-90.69
-80.81
-70.84
-60.92
-50.70
-39.84
-28.40
-17.01
-6.59
2.01
8.37
12.64
15.47
17.81
20.51
24.19
28.98
34.58
40.48
46.11
51.04
54.96
57.68
59.12
59.34
58.71
57.90
57.75
59.01
62.03
66.60
72.04
77.50
82.22
85.88
88.57
90.75
93.03
95.94
99.78
104.46
109.49
114.05
117.20
118.08
116.19
111.46
104.25
95.09
84.52
72.85
60.20
46.57
32.04
16.92
1.86
-12.12
-23.73
-31.70
-35.15
-33.99
-29.12
-22.28
-15.55
-10.74
-8.79
-9.69
-12.62
-16.44
-20.12
-23.06
-25.09
-26.28
-26.83
-26.96
-26.92
-27.00
-27.49
-28.60
-30.35
-32.56
-34.85
-36.77
-37.88
-37.81
-36.30
-33.25
-28.77
-23.13
-16.77
-10.19
-3.81
2.06
7.22
11.48
14.60
16.29
16.36
14.83
11.93
8.15
3.98
-0.14
-3.95
-7.40
-10.67
-14.15
-18.40
-23.91
-30.89
-38.99
-47.40
-54.99
-60.73
-64.00
-64.66
-62.99
-59.37
-54.16
-47.70
-40.39
-32.78
-25.55
-19.40
-14.80
-11.97
-10.83
-11.08
-12.33
-14.14
-16.04
-17.64
-18.61
-18.74
-18.06
-16.81
-15.46
-14.57
-14.63
-15.87
-18.10
-20.73
-22.88
-23.70
-22.59
-19.41
-14.49
-8.45
-2.06
4.05
9.43
13.87
17.29
19.67
20.99
21.25
20.52
18.95
16.80
14.37
11.96
9.80
8.01
6.52
5.04
3.15
0.37
-3.58
-8.60
-14.08
-19.02
-22.37
-23.33
-21.74
-18.05
-13.14
-7.97
-3.31
0.39
2.92
4.19
4.12
2.63
-0.16
-3.97
-8.24
-12.31
-15.63
-17.87
-19.08
-19.57
-19.81
-20.25
-21.20
-22.86
-25.27
-28.29
-31.63
-34.77
-37.08
-38.00
-37.19
-34.66
-30.75
-26.03
-21.03
-16.19
-11.80
-8.07
-5.16
-3.23
-2.34
-2.41
-3.25
-4.58
-6.10
-7.52
-8.63
-9.31
-9.57
-9.65
-9.91
-10.77
-12.49
-15.02
-17.95
-20.64
-22.36
-22.59
-21.10
-17.93
-13.40
-7.91
-1.90
4.14
9.71
14.34
17.57
19.06
18.70
16.66
13.43
9.71
6.30
3.78
2.44
2.10
2.27
2.31
1.69
0.16
-2.27
-5.30
-8.50
-11.36
-13.30
-13.82
-12.52
-9.27
-4.27
1.91
8.47
14.54
19.36
22.49
23.82
23.55
22.11
20.00
17.66
15.45
13.58
12.11
11.00
10.12
9.29
8.32
7.02
5.23
2.88
0.05
-3.07
-6.11
-8.60
-10.05
-10.06
-8.45
-5.31
-0.97
4.05
9.17
13.83
17.56
20.02
20.97
20.36
18.34
15.29
11.77
8.40
5.69
3.85
2.79
2.13
1.41
0.26
-1.51
-3.85
-6.60
-9.53
-12.38
-14.85
-16.54
-16.95
-15.66
-12.41
-7.34
-0.97
5.84
12.15
17.13
20.21
21.22
20.28
17.73
14.07
9.85
5.65
1.99
-0.78
-2.51
-3.36
-3.69
-3.93
-4.47
-5.58
-7.33
-9.60
-12.03
-14.11
-15.15
-14.53
-11.88
-7.25
-1.21
5.35
11.47
16.45
19.94
21.93
22.54
21.90
20.08
17.23
13.64
9.85
6.49
4.04
2.65
2.08
1.82
1.37
0.35
-1.35
-3.69
-6.45
-9.33
-11.84
-13.34
-13.11
-10.66
-5.91
0.69
8.21
15.56
21.81
26.33
28.86
29.39
28.04
25.04
20.78
15.83
10.85
6.47
3.16
1.06
0.05
-0.27
-0.41
-0.88
-2.09
-4.25
-7.25
-10.70
-13.95
-16.24
-16.89
-15.52
-12.08
-6.93
-0.75
5.64
11.41
15.91
18.75
19.87
19.44
17.77
15.25
12.23
9.02
5.92
3.21
1.10
-0.35
-1.32
-2.18
-3.40
-5.39
-8.29
-11.92
-15.74
-19.07
-21.18
-21.53
-19.89
-16.32
-11.21
-5.17
1.06
6.77
11.32
14.27
15.46
14.97
13.14
10.41
7.30
4.31
1.82
0.12
-0.74
-0.90
-0.74
-0.73
-1.35
-2.89
-5.37
-8.51
-11.80
-14.58
-16.21
-16.21
-14.34
-10.71
-5.74
-0.08
5.54
10.45
14.22
16.63
17.65
17.33
15.78
13.14
9.62
5.58
1.46
-2.19
-4.94
-6.52
-7.05
-6.93
-6.75
-7.12
-8.37
-10.52
-13.19
-15.74
-17.40
-17.49
-15.62
-11.79
-6.48
-0.46
5.38
10.23
13.60
15.27
15.28
13.83
11.25
7.92
4.33
0.91
-1.94
-4.07
-5.47
-6.33
-6.89
-7.43
-8.25
-9.81
-12.48
-16.38
-21.18
-26.17
-30.41
-33.04
-33.52
-31.90
-28.89
-25.48
-22.55
-20.58
-19.53
-19.02
-18.58
-17.82
-16.64
-15.43
-14.46
-13.37
-10.97
-5.58
4.31
19.54
40.00
64.66
91.19
117.21
140.82
160.58
175.08
182.96
183.39
176.79
164.62
147.34
125.35
99.03
68.74
34.85
-1.74
-38.85
-72.74
-99.75
-119.66
-133.60
-142.78
-147.88
-149.55
-149.16
-148.47
-148.90
-152.21
-162.60
-182.40
-210.37
-242.15
-272.82
-299.34
-320.56
-336.19
-327.23
-283.85
-211.46
-128.81
-54.91
1.08
39.73
64.24
85.55
110.97
139.88
168.37
193.06
213.40
231.16
248.05
266.42
285.75
303.50
314.78
316.95
311.65
303.31
299.31
301.06
307.83
318.20
330.16
340.44
343.62
336.60
317.69
286.45
243.31
190.93
133.69
75.97
20.52
-31.52
-79.68
-124.15
-165.40
-204.36
-241.44
-276.38
-308.27
-335.51
-355.90
-366.86
-366.68
-355.16
-333.97
-305.91
-274.42
-243.04
-214.80
-191.68
-173.98
-160.40
-148.23
-134.21
-115.48
-90.91
-61.60
-30.67
-2.30
19.63
32.70
36.54
32.72
24.22
14.37
5.85
0.01
-3.32
-5.54
-8.63
-14.38
-23.69
-36.28
-50.78
-65.24
-77.73
-86.88
-92.09
-93.52
-91.86
-88.11
-83.31
-78.31
-73.62
-69.27
-64.96
-60.20
-54.70
-48.43
-41.61
-34.53
-27.32
-19.94
-12.32
-4.55
3.09
10.12
16.17
21.03
24.69
27.18
28.53
28.78
28.23
27.52
27.61
29.45
33.56
39.82
47.40
55.14
61.97
67.13
70.31
71.49
70.76
68.26
64.25
59.21
53.78
48.67
44.38
41.12
38.72
36.91
35.40
34.00
32.59
30.93
28.71
25.62
21.64
17.17
13.06
10.28
9.51
10.87
13.86
17.64
21.33
24.26
26.10
26.70
26.05
24.20
21.30
17.66
13.64
9.64
5.95
2.66
-0.22
-2.83
-5.31
-7.88
-10.84
-14.47
-18.93
-24.05
-29.28
-33.82
-36.78
-37.54
-35.89
-32.10
-26.78
-20.70
-14.64
-9.25
-5.01
-2.22
-1.02
-1.34
-2.95
-5.45
-8.29
-10.95
-12.98
-14.25
-14.92
-15.52
-16.70
-19.01
-22.65
-27.38
-32.56
-37.28
-40.65
-41.94
-40.73
-37.00
-31.10
-23.69
-15.70
-8.17
-2.14
1.49
2.11
-0.55
-6.29
-14.49
-24.20
-34.28
-43.63
-51.43
-57.22
-61.00
-63.13
-64.22
-64.99
-66.01
-67.60
-69.49
-70.86
-70.38
-66.57
-58.22
-44.75
-26.35
-3.76
21.96
49.46
77.05
102.50
123.20
136.74
141.73
138.19
127.52
111.63
92.15
69.91
45.25
18.57
-9.00
-35.70
-59.68
-79.63
-95.02
-105.75
-111.72
-112.65
-108.47
-99.77
-87.86
-74.31
-59.98
-44.51
-26.65
-5.33
19.10
44.23
66.23
81.20
86.81
83.30
73.38
61.18
50.88
45.46
46.17
52.48
62.61
74.20
84.96
93.15
97.73
98.43
95.49
89.59
81.64
72.70
63.88
56.17
50.37
46.84
45.52
45.85
46.90
47.56
46.76
43.76
38.31
30.72
21.76
12.44
3.74
-3.58
-9.10
-12.70
-14.51
-14.85
-14.18
-13.04
-11.99
-11.58
-12.21
-14.10
-17.24
-21.36
-26.08
-30.93
-35.45
-39.27
-42.09
-43.72
-44.21
-43.80
-42.97
-42.32
-42.38
-43.47
-45.55
-48.24
-50.99
-53.17
-54.27
-53.90
-51.85
-47.96
-42.18
-34.56
-25.27
-14.57
-2.67
10.33
24.49
39.93
56.64
74.26
92.03
108.92
123.92
136.30
145.79
152.51
156.79
158.88
158.77
156.23
150.96
142.89
132.36
120.27
107.86
96.46
87.08
80.01
74.76
70.21
65.03
58.15
49.04
37.91
25.44
12.65
0.58
-9.78
-17.65
-22.49
-24.09
-22.67
-18.91
-13.90
-8.89
-5.01
-2.93
-2.75
-3.98
-5.87
-7.71
-9.06
-9.95
-10.67
-11.62
-13.03
-14.86
-16.89
-18.76
-20.18
-20.93
-20.88
-19.90
-17.81
-14.37
-9.35
-2.54
6.07
16.26
27.55
39.15
50.09
59.43
66.53
71.31
74.33
76.68
79.66
84.32
90.97
99.05
107.29
114.29
119.37
123.14
127.55
134.92
146.57
161.30
174.93
181.14
173.41
147.08
100.67
36.01
-42.16
-126.75
-208.87
-279.05
-329.20
-355.17
-358.46
-345.90
-327.01
-310.04
-298.95
-292.96
-288.78
-283.72
-277.76
-273.12
-272.03
-274.48
-277.67
-277.36
-270.24
-255.48
-234.77
-211.22
-187.68
-165.79
-145.93
-127.82
-111.27
-96.51
-84.09
-74.65
-68.54
-65.65
-65.15
-65.48
-64.49
-59.87
-49.64
-32.67
-8.91
20.87
55.43
93.40
133.34
173.50
211.68
245.33
272.09
290.62
301.22
305.97
308.10
310.91
316.61
325.63
336.50
346.47
352.48
352.06
343.86
327.86
305.12
277.48
247.15
216.39
187.15
160.80
137.97
118.56
101.96
87.42
74.28
62.14
50.73
39.89
29.50
19.57
10.28
2.01
-4.93
-10.44
-14.79
-18.49
-22.12
-26.04
-30.32
-34.80
-39.17
-43.18
-46.68
-49.60
-51.96
-53.82
-55.26
-56.38
-57.26
-57.95
-58.51
-59.04
-59.72
-60.78
-62.46
-64.89
-68.01
-71.45
-74.57
-76.53
-76.61
-74.37
-69.90
-63.79
-57.00
-50.48
-44.96
-40.76
-37.85
-35.95
-34.73
-33.96
-33.44
-33.04
-32.59
-31.96
-31.03
-29.80
-28.39
-27.06
-26.12
-25.85
-26.46
-27.97
-30.28
-33.12
-36.17
-39.06
-41.57
-43.59
-45.10
-46.15
-46.80
-47.06
-46.94
-46.47
-45.72
-44.90
-44.24
-43.90
-43.83
-43.78
-43.33
-42.06
-39.85
-36.91
-33.72
-30.85
-28.73
-27.45
-26.80
-26.39
-25.85
-24.97
-23.75
-22.27
-20.57
-18.62
-16.31
-13.60
-10.48
-7.10
-3.63
-0.33
2.54
4.73
6.04
6.38
5.82
4.58
3.00
1.42
0.06
-0.97
-1.73
-2.30
-2.85
-3.56
-4.68
-6.46
-9.09
-12.53
-16.50
-20.44
-23.72
-25.77
-26.29
-25.32
-23.18
-20.41
-17.53
-14.93
-12.74
-10.87
-9.08
-7.09
-4.71
-1.83
1.62
5.68
10.35
15.47
20.64
25.27
28.71
30.50
30.61
29.38
27.41
25.23
23.15
21.22
19.40
17.76
16.55
16.14
16.85
18.75
21.73
25.51
29.79
34.35
39.06
43.60
47.44
49.83
50.01
47.75
43.79
39.94
38.55
41.32
48.13
56.41
61.68
59.12
45.49
20.50
-13.15
-50.87
-87.80
-120.20
-145.82
-163.64
-173.25
-174.52
-167.85
-154.42
-136.42
-116.59
-97.55
-80.97
-67.21
-55.48
-44.45
-33.04
-20.90
-8.53
3.11
12.96
20.35
25.06
27.25
27.40
26.28
24.99
24.82
26.94
31.81
38.87
46.41
52.11
53.72
49.78
40.06
25.50
7.77
-11.19
-29.64
-46.36
-60.75
-72.77
-82.74
-90.93
-97.30
-101.29
-101.99
-98.45
-90.26
-77.77
-62.20
-45.31
-28.99
-14.81
-3.76
3.78
8.02
9.70
10.06
10.68
13.19
18.79
27.74
39.14
51.19
61.81
69.34
73.07
73.25
70.71
66.34
60.82
54.66
48.38
42.69
38.34
35.77
34.79
34.63
34.35
33.43
32.10
31.28
31.88
34.19
37.51
40.54
42.19
42.40
42.34
43.82
48.17
55.04
61.98
64.95
59.68
43.46
16.47
-17.68
-52.40
-79.63
-91.61
-82.42
-48.86
9.26
89.07
184.59
286.93
385.09
467.79
526.01
555.34
556.97
536.73
502.57
461.63
418.37
374.33
329.18
282.26
233.51
183.45
132.59
80.96
28.03
-26.98
-84.55
-144.49
-205.43
-264.96
-319.91
-367.15
-404.40
-430.84
-447.04
-454.36
-454.18
-447.35
-434.33
-415.67
-392.63
-367.18
-341.52
-317.33
-295.14
-274.33
-253.51
-231.31
-207.05
-180.95
-154.11
-128.21
-104.99
-85.72
-71.01
-60.67
-53.97
-50.02
-47.93
-46.96
-46.41
-45.49
-43.38
-39.43
-33.39
-25.57
-16.79
-8.03
-0.10
6.62
12.33
17.61
23.22
29.84
37.89
47.44
58.21
69.62
80.92
91.34
100.20
107.06
111.82
114.71
116.09
116.23
115.03
112.08
106.90
99.41
90.14
80.01
69.84
59.89
49.69
38.39
25.24
9.87
-7.66
-26.98
-47.42
-67.73
-85.71
-98.18
-101.59
-93.07
-71.50
-38.15
3.67
49.44
94.61
135.48
169.69
196.38
215.97
229.75
239.36
246.21
251.18
254.57
256.39
256.54
254.86
250.96
244.08
233.09
216.85
194.76
167.20
135.67
102.46
70.17
41.10
16.81
-2.16
-16.24
-26.69
-35.34
-44.09
-54.35
-66.61
-80.26
-93.97
-106.31
-116.48
-124.57
-131.45
-138.28
-146.13
-155.74
-167.59
-181.92
-198.51
-216.38
-233.62
-247.66
-255.90
-256.71
-249.98
-237.13
-220.52
-202.45
-184.49
-167.36
-151.18
-136.02
-122.12
-109.93
-99.77
-91.66
-85.14
-79.56
-74.29
-68.96
-63.44
-57.72
-51.82
-45.75
-39.62
-33.64
-28.12
-23.31
-19.21
-15.58
-11.95
-7.78
-2.52
4.27
12.89
23.32
35.08
47.19
58.33
67.22
73.04
75.64
75.52
73.56
70.74
67.90
65.68
64.40
64.06
64.38
64.84
65.00
64.73
64.31
64.42
65.79
68.95
73.96
80.47
87.84
95.37
102.39
108.38
112.97
115.87
116.99
116.36
114.23
110.99
107.20
103.44
100.29
98.23
97.44
97.73
98.47
98.75
97.65
94.51
89.21
82.18
74.29
66.69
60.57
56.78
55.67
56.88
59.41
61.86
63.02
62.25
59.73
56.32
52.93
50.08
47.58
44.76
40.89
35.61
28.90
20.84
11.20
-0.58
-15.08
-32.35
-51.54
-71.02
-89.01
-104.29
-116.70
-127.13
-136.91
-147.26
-158.72
-171.21
-184.08
-196.53
-207.59
-216.18
-220.95
-220.43
-213.33
-199.11
-178.48
-153.60
-127.80
-104.72
-87.21
-76.39
-71.30
-69.39
-67.55
-63.49
-56.55
-47.86
-39.68
-34.37
-33.35
-36.62
-43.01
-50.69
-57.94
-63.51
-66.66
-66.83
-63.46
-56.03
-44.48
-29.55
-12.95
3.07
16.55
26.50
33.27
38.08
42.25
46.44
50.39
53.19
53.93
52.14
48.01
42.22
35.65
29.25
23.86
20.16
18.53
18.87
20.50
22.33
23.27
22.73
20.87
18.65
17.32
17.89
20.67
25.19
30.42
35.36
39.34
42.17
44.02
45.02
45.12
44.01
41.29
36.69
30.17
21.98
12.59
2.74
-6.59
-14.26
-19.24
-20.93
-19.50
-15.91
-11.54
-7.71
-5.21
-4.23
-4.36
-5.03
-5.68
-5.86
-5.30
-3.82
-1.44
1.65
4.99
7.95
9.81
9.98
8.15
4.35
-0.99
-7.10
-13.08
-18.16
-21.91
-24.35
-25.84
-26.81
-27.66
-28.68
-30.20
-32.59
-36.14
-40.75
-45.71
-49.76
-51.49
-49.96
-45.09
-37.67
-28.92
-19.98
-11.49
-3.58
3.86
10.86
17.15
22.25
25.63
27.03
26.54
24.69
22.22
19.91
18.30
17.56
17.46
17.50
17.11
15.87
13.65
10.65
7.38
4.61
3.17
3.79
6.82
12.07
18.83
26.00
32.54
37.75
41.49
44.10
46.04
47.63
48.77
49.10
48.20
45.94
42.52
38.45
34.33
30.66
27.73
25.58
24.04
22.83
21.56
19.90
17.57
14.55
11.11
7.90
5.75
5.53
7.82
12.68
19.59
27.49
35.00
40.85
44.14
44.57
42.43
38.39
33.29
27.79
22.26
16.74
11.08
5.09
-1.25
-7.79
-14.23
-20.34
-26.01
-31.23
-35.88
-39.62
-41.76
-41.43
-37.86
-30.81
-20.72
-8.75
3.52
14.53
23.11
28.72
31.49
31.96
30.78
28.44
25.14
20.82
15.30
8.44
0.26
-9.04
-19.19
-29.81
-40.48
-50.75
-60.07
-67.88
-73.64
-76.86
-77.19
-74.47
-68.75
-60.42
-50.19
-39.02
-27.99
-18.00
-9.69
-3.31
1.12
3.69
4.51
3.73
1.56
-1.70
-5.70
-10.18
-14.88
-19.54
-23.72
-26.85
-28.38
-28.12
-26.45
-24.19
-22.38
-21.73
-22.38
-23.91
-25.56
-26.54
-26.25
-24.31
-20.58
-15.01
-7.77
0.82
10.28
20.00
29.30
37.53
44.07
48.46
50.44
50.11
47.95
44.70
41.27
38.44
36.78
36.55
37.77
40.30
43.94
48.50
53.80
59.65
65.73
71.58
76.67
80.62
83.47
85.79
88.54
92.72
98.81
106.37
114.04
119.85
121.95
119.15
111.34
99.36
84.60
68.45
51.96
35.74
20.16
5.54
-7.74
-19.34
-29.09
-37.06
-43.44
-48.46
-52.27
-55.00
-56.87
-58.18
-59.19
-59.96
-60.25
-59.71
-58.06
-55.29
-51.62
-47.26
-42.29
-36.68
-30.52
-24.19
-18.40
-13.81
-10.74
-8.98
-7.92
-6.89
-5.45
-3.37
-0.49
3.42
8.66
15.44
23.66
32.82
42.15
50.74
57.84
62.97
66.03
67.33
67.51
67.31
67.29
67.58
67.88
67.62
66.28
63.67
59.96
55.46
50.42
44.77
38.28
30.73
22.26
13.41
5.07
-1.89
-6.92
-10.04
-11.83
-13.14
-14.81
-17.36
-20.97
-25.55
-30.88
-36.65
-42.42
-47.48
-50.99
-52.17
-50.65
-46.70
-41.24
-35.45
-30.35
-26.43
-23.63
-21.53
-19.72
-17.97
-16.28
-14.64
-12.92
-10.88
-8.42
-5.84
-3.84
-3.24
-4.51
-7.51
-11.48
-15.38
-18.39
-20.24
-21.16
-21.56
-21.68
-21.31
-19.90
-16.85
-11.77
-4.70
3.92
13.37
22.67
30.85
37.04
40.71
41.73
40.40
37.26
32.91
27.83
22.31
16.55
10.72
5.01
-0.44
-5.64
-10.85
-16.51
-22.94
-30.29
-38.43
-47.17
-56.42
-66.20
-76.52
-87.07
-97.09
-105.41
-110.75
-112.10
-108.95
-101.41
-90.06
-75.83
-59.88
-43.55
-28.26
-15.43
-6.11
-0.79
0.86
-0.17
-2.45
-4.66
-5.98
-6.31
-6.15
-6.30
-7.42
-9.72
-12.94
-16.54
-20.08
-23.41
-26.73
-30.47
-35.02
-40.48
-46.50
-52.32
-56.81
-58.80
-57.40
-52.27
-43.90
-33.43
-22.44
-12.46
-4.55
0.95
4.44
6.78
8.98
11.80
15.60
20.28
25.40
30.32
34.46
37.31
38.59
38.21
36.30
33.23
29.47
25.50
21.66
18.08
14.66
11.30
8.06
5.31
3.63
3.56
5.37
8.83
13.21
17.52
20.75
22.23
21.79
19.76
16.79
13.66
10.96
9.05
8.02
7.90
8.71
10.44
12.84
15.34
17.09
17.21
15.27
11.47
6.63
1.78
-2.24
-5.04
-6.63
-7.12
-6.52
-4.68
-1.47
2.99
8.19
13.38
17.84
21.16
23.32
24.57
25.20
25.34
24.94
23.91
22.25
20.14
17.82
15.52
13.29
11.05
8.63
5.96
3.09
0.21
-2.49
-4.95
-7.22
-9.41
-11.58
-13.57
-15.05
-15.53
-14.56
-11.97
-7.89
-2.83
2.53
7.51
11.63
14.64
16.45
17.06
16.43
14.56
11.55
7.72
3.62
-0.09
-2.84
-4.29
-4.43
-3.57
-2.23
-0.92
-0.02
0.23
-0.17
-1.10
-2.33
-3.56
-4.49
-4.86
-4.48
-3.32
-1.43
1.08
4.08
7.38
10.71
13.74
16.02
17.19
17.04
15.62
13.20
10.19
6.99
3.88
1.08
-1.27
-3.03
-4.11
-4.53
-4.52
-4.48
-4.87
-6.03
-8.01
-10.52
-13.02
-14.92
-15.77
-15.32
-13.60
-10.76
-7.10
-2.98
1.16
4.82
7.61
9.29
9.87
9.57
8.69
7.47
