1604666276.00
64.000000
-0.00
-0.00
-0.00
-0.00
-0.00
-0.00
-0.00
-0.00
-0.00
-0.00
0.00
0.01
0.01
-0.00
-0.03
-0.05
-0.05
0.00
0.13
0.36
0.66
1.01
1.37
1.72
2.06
2.40
2.79
3.24
3.80
4.42
5.06
5.66
6.20
6.68
7.15
7.68
8.31
9.14
10.09
11.04
11.88
12.56
13.14
13.76
14.65
15.96
17.91
20.32
22.90
25.38
27.58
29.57
31.68
34.32
37.81
42.54
48.15
54.11
59.83
64.97
69.58
74.14
79.35
85.74
93.81
103.05
112.63
121.65
129.55
136.38
142.80
150.15
157.13
166.00
177.31
191.13
206.24
219.71
227.24
224.24
207.35
175.70
131.64
78.95
21.90
-36.31
-94.12
-151.20
-207.57
-262.85
-316.19
-366.21
-412.13
-453.41
-489.57
-519.68
-542.16
-555.01
-556.23
-544.69
-520.33
-484.71
-440.30
-389.97
-336.27
-281.09
-225.62
-170.69
-117.21
-66.33
-19.65
21.31
55.52
82.82
103.91
120.07
132.61
142.45
149.90
154.72
156.49
154.86
149.67
141.10
129.86
117.56
106.70
100.24
100.57
108.38
122.07
138.04
152.00
160.66
162.78
159.25
152.11
143.30
133.88
124.00
113.48
102.53
91.85
82.39
74.71
68.79
63.74
58.40
52.01
44.55
36.73
29.56
23.89
20.00
17.56
15.84
14.14
12.07
9.63
7.06
4.66
2.61
0.91
-0.52
-1.80
-3.00
-4.09
-5.06
-5.85
-6.43
-6.76
-6.86
-6.79
-6.78
-7.05
-7.67
-8.41
-8.78
-8.26
-6.66
-4.32
-2.02
-0.48
-0.07
-0.52
-1.20
-1.51
-1.20
-0.51
0.09
0.29
0.09
-0.23
-0.39
-0.32
-0.19
-0.28
-0.72
-1.44
-2.26
-2.90
-3.25
-3.30
-3.15
-2.92
-2.73
-2.66
-2.69
-2.77
-2.79
-2.68
-2.45
-2.20
-2.04
-2.05
-2.17
-2.29
-2.24
-1.98
-1.52
-0.98
-0.43
0.10
0.62
1.15
1.67
2.18
2.77
3.60
4.88
6.75
9.09
11.55
13.61
14.78
14.75
13.53
11.46
8.85
6.08
3.39
0.91
-1.37
-3.45
-5.30
-6.85
-8.01
-8.78
-9.19
-9.38
-9.44
-9.43
-9.34
-9.12
-8.73
-8.19
-7.60
-7.09
-6.77
-6.68
-6.76
-6.92
-7.00
-6.91
-6.59
-6.09
-5.52
-5.01
-4.68
-4.56
-4.63
-4.82
-5.07
-5.29
-5.39
-5.20
-4.53
-3.22
-1.23
1.31
4.04
6.52
8.33
9.26
9.34
8.79
7.91
6.94
6.00
5.08
4.17
3.27
2.48
1.92
1.72
1.89
2.31
2.79
3.13
3.21
3.08
2.87
2.71
2.70
2.77
2.77
2.52
1.91
0.96
-0.20
-1.39
-2.49
-3.47
-4.40
-5.39
-6.53
-7.82
-9.22
-10.66
-12.06
-13.32
-14.34
-14.97
-15.05
-14.43
-13.06
-11.00
-8.41
-5.52
-2.55
0.33
3.02
5.40
7.39
8.90
9.85
10.28
10.26
9.93
9.41
8.80
8.15
7.49
6.81
6.12
5.40
4.65
3.89
3.11
2.33
1.53
0.71
-0.19
-1.20
-2.36
-3.64
-4.94
-6.17
-7.22
-8.03
-8.66
-9.23
-9.92
-10.90
-12.23
-13.83
-15.45
-16.76
-17.47
-17.38
-16.45
-14.75
-12.40
-9.53
-6.27
-2.77
0.76
4.08
6.97
9.28
11.00
12.15
12.78
12.97
12.76
12.27
11.66
11.10
10.70
10.46
10.34
10.21
9.98
9.59
9.02
8.27
7.33
6.26
5.10
3.96
2.91
1.97
1.04
0.01
-1.20
-2.58
-4.00
-5.27
-6.26
-6.98
-7.56
-8.26
-9.31
-10.79
-12.57
-14.37
-15.77
-16.41
-16.05
-14.69
-12.47
-9.68
-6.58
-3.36
-0.11
3.08
6.13
8.86
11.06
12.55
13.24
13.20
12.63
11.79
10.94
10.28
9.92
9.83
9.91
9.96
9.78
9.25
8.37
7.24
6.06
5.02
4.20
3.55
2.90
2.03
0.79
-0.83
-2.71
-4.63
-6.38
-7.87
-9.12
-10.29
-11.54
-13.02
-14.77
-16.75
-18.82
-20.72
-22.15
-22.75
-22.25
-20.56
-17.77
-14.21
-10.26
-6.26
-2.38
1.30
4.76
7.92
10.64
12.76
14.16
14.86
15.01
14.89
14.74
14.70
14.79
14.88
14.81
14.49
13.93
13.25
12.60
12.08
11.64
11.15
10.42
9.32
7.88
6.24
4.58
3.06
1.77
0.69
-0.23
-1.08
-1.94
-2.85
-3.87
-5.00
-6.20
-7.37
-8.34
-8.90
-8.91
-8.26
-6.95
-5.01
-2.54
0.30
3.31
6.23
8.74
10.58
11.59
11.76
11.25
10.25
9.03
7.72
6.45
5.26
4.19
3.31
2.66
2.31
2.34
2.80
3.73
5.06
6.64
8.23
9.56
10.40
10.65
10.36
9.68
8.80
7.84
6.89
5.98
5.14
4.39
3.80
3.37
3.07
2.80
2.47
2.06
1.61
1.27
1.24
1.68
2.70
4.25
6.12
7.92
9.18
9.46
8.50
6.34
3.27
-0.24
-3.73
-6.89
-9.60
-11.89
-13.81
-15.33
-16.38
-16.90
-16.94
-16.62
-16.17
-15.75
-15.42
-15.17
-14.91
-14.53
-13.95
-13.14
-12.08
-10.80
-9.34
-7.81
-6.35
-5.12
-4.20
-3.60
-3.26
-3.06
-3.01
-3.16
-3.60
-4.35
-5.26
-6.05
-6.38
-6.04
-5.06
-3.66
-2.17
-0.82
0.36
1.50
2.75
4.17
5.60
6.80
7.58
7.89
7.88
7.77
7.70
7.70
7.66
7.45
7.01
6.34
5.53
4.69
3.91
3.22
2.62
2.08
1.54
0.96
0.27
-0.57
-1.53
-2.58
-3.63
-4.60
-5.49
-6.29
-7.01
-7.66
-8.17
-8.47
-8.45
-8.03
-7.17
-5.91
-4.34
-2.55
-0.65
1.26
3.09
4.72
6.02
6.89
7.31
7.36
7.22
7.08
7.11
7.33
7.67
7.99
8.19
8.26
8.30
8.47
8.91
9.67
10.66
11.64
12.34
12.53
12.16
11.32
10.21
9.07
7.98
6.91
5.71
4.26
2.56
0.72
-1.07
-2.65
-3.96
-5.06
-5.96
-6.63
-6.88
-6.52
-5.41
-3.63
-1.45
0.80
2.81
4.41
5.59
6.36
6.72
6.63
6.07
5.09
3.89
2.68
1.68
0.94
0.34
-0.31
-1.19
-2.35
-3.71
-5.08
-6.26
-7.12
-7.68
-8.08
-8.49
-9.08
-9.90
-10.91
-11.98
-12.94
-13.65
-14.02
-14.06
-13.86
-13.59
-13.39
-13.39
-13.56
-13.75
-13.69
-13.13
-11.93
-10.13
-7.94
-5.66
-3.58
-1.87
-0.55
0.48
1.33
2.04
2.59
2.93
2.99
2.81
2.46
2.04
1.63
1.21
0.78
0.29
-0.22
-0.72
-1.18
-1.61
-2.09
-2.66
-3.34
-4.04
-4.67
-5.16
-5.50
-5.73
-5.88
-5.99
-6.02
-5.95
-5.77
-5.52
-5.28
-5.13
-5.11
-5.24
-5.42
-5.54
-5.39
-4.79
-3.62
-1.82
0.53
3.31
6.35
9.48
12.57
15.52
18.19
20.44
22.15
23.22
23.62
23.41
22.72
21.69
20.45
19.06
17.57
15.96
14.21
12.34
10.42
8.53
6.77
5.22
3.94
2.97
2.33
2.04
2.12
2.52
3.19
3.95
4.59
4.91
4.81
4.38
3.81
3.31
2.96
2.66
2.13
1.13
-0.46
-2.58
-4.97
-7.39
-9.69
-11.86
-14.00
-16.23
-18.58
-20.97
-23.19
-25.01
-26.15
-26.47
-25.91
-24.59
-22.71
-20.51
-18.13
-15.68
-13.25
-10.96
-9.02
-7.61
-6.79
-6.46
-6.40
-6.31
-5.94
-5.18
-4.08
-2.77
-1.40
-0.17
0.76
1.26
1.25
0.74
-0.12
-1.09
-1.87
-2.20
-1.94
-1.07
0.28
1.88
3.47
4.81
5.75
6.27
6.47
6.51
6.57
6.73
6.98
7.21
7.26
7.01
6.44
5.65
4.80
4.04
3.45
3.03
2.70
2.41
2.10
1.79
1.48
1.13
0.65
-0.04
-1.00
-2.15
-3.32
-4.25
-4.78
-4.87
-4.68
-4.52
-4.67
-5.28
-6.35
-7.68
-9.00
-9.99
-10.37
-9.93
-8.60
-6.49
-3.92
-1.34
0.80
2.25
3.03
3.39
3.66
4.01
4.34
4.32
3.56
1.88
-0.61
-3.46
-6.12
-8.17
-9.48
-10.22
-10.70
-11.16
-11.61
-11.88
-11.73
-11.06
-9.95
-8.66
-7.48
-6.59
-6.00
-5.61
-5.28
-4.92
-4.54
-4.18
-3.89
-3.71
-3.66
-3.77
-4.06
-4.55
-5.16
-5.79
-6.31
-6.61
-6.60
-6.24
-5.51
-4.38
-2.85
-0.98
1.11
3.22
5.15
6.70
7.76
8.31
8.44
8.26
7.94
7.60
7.31
7.05
6.80
6.54
6.24
5.96
5.72
5.55
5.43
5.33
5.20
5.00
4.68
4.23
3.64
2.91
2.08
1.20
0.33
-0.50
-1.25
-1.87
-2.36
-2.73
-3.05
-3.44
-3.97
-4.63
-5.25
-5.57
-5.31
-4.30
-2.50
-0.04
2.92
6.14
9.36
12.31
14.67
16.17
16.60
15.91
14.17
11.61
8.53
5.34
2.47
0.28
-1.05
-1.64
-1.89
-2.32
-3.35
-5.10
-7.37
-9.77
-11.95
-13.77
-15.26
-16.43
-17.21
-17.41
-16.84
-15.54
-13.77
-11.95
-10.45
-9.45
-8.94
-8.88
-9.36
-10.58
-12.84
-16.31
-20.90
-26.23
-31.65
-36.39
-39.75
-41.15
-40.37
-37.58
-33.28
-28.16
-22.87
-17.80
-13.09
-8.74
-4.75
-1.26
1.51
3.35
4.33
4.74
5.06
5.73
7.00
8.80
10.85
12.79
14.34
15.37
15.83
15.68
14.89
13.44
11.46
9.23
7.21
5.85
5.46
6.04
7.28
8.68
9.71
10.05
9.68
8.90
8.16
7.88
8.15
8.76
9.18
8.95
7.89
6.29
4.85
4.33
5.28
7.75
11.24
14.95
17.98
19.64
19.67
18.33
16.33
14.66
14.27
15.66
18.54
21.85
24.02
23.68
20.43
15.18
10.06
7.52
9.32
15.74
25.38
35.70
43.91
47.87
46.56
40.16
29.69
16.68
2.73
-10.70
-22.59
-32.49
-40.44
-46.77
-51.61
-54.62
-55.01
-52.05
-45.58
-36.38
-26.03
-16.31
-8.49
-3.02
0.41
2.31
2.97
2.26
-0.09
-3.97
-8.61
-12.69
-14.74
-13.82
-9.85
-3.57
3.84
11.20
17.65
22.76
26.42
28.73
29.80
29.79
28.91
27.35
25.34
23.15
20.99
19.12
17.70
16.82
16.38
16.20
15.99
15.54
14.79
13.81
12.72
11.57
10.26
8.59
6.36
3.51
0.20
-3.31
-6.76
-10.03
-13.17
-16.26
-19.36
-22.56
-26.08
-30.33
-35.78
-42.68
-50.70
-58.78
-65.30
-68.57
-67.43
-61.52
-51.28
-37.66
-21.67
-4.17
14.08
32.31
49.63
65.20
78.60
89.88
99.40
107.32
112.93
114.40
109.08
94.59
70.10
37.41
0.69
-34.81
-64.59
-86.22
-99.70
-106.77
-109.53
-109.46
-106.83
-101.80
-95.25
-88.78
-83.71
-79.92
-75.53
-67.87
-55.10
-36.78
-15.02
6.23
22.93
32.71
35.66
33.66
29.13
24.06
20.97
21.71
26.97
36.29
48.61
62.84
78.00
93.36
108.37
124.16
141.59
160.04
177.47
191.58
201.09
206.07
207.81
197.40
170.39
129.25
82.49
38.86
2.67
-26.41
-50.94
-73.03
-92.21
-106.91
-114.56
-113.62
-104.63
-89.71
-71.46
-52.18
-34.20
-19.96
-9.96
-3.69
-0.90
-2.09
-7.80
-16.60
-28.21
-41.40
-54.44
-65.00
-71.29
-72.73
-70.04
-63.66
-54.56
-43.84
-32.13
-19.99
-8.00
2.92
11.44
16.09
16.10
11.35
1.97
-9.92
-21.34
-29.76
-34.27
-35.34
-34.75
-33.05
-30.51
-27.46
-24.13
-21.11
-18.64
-17.22
-16.97
-17.61
-18.36
-18.84
-18.84
-18.22
-17.10
-15.74
-14.31
-12.66
-10.38
-6.91
-2.57
1.74
4.61
4.56
0.69
-6.77
-16.18
-25.05
-30.74
-32.04
-29.17
-23.63
-17.52
-12.47
-8.96
-6.04
-2.83
3.65
14.18
28.24
43.97
58.72
69.83
75.24
73.99
66.45
54.46
40.33
26.61
15.28
7.22
2.12
-1.42
-5.07
-10.03
-15.98
-21.76
-25.71
-26.49
-23.64
-17.73
-10.23
-2.91
2.60
5.79
6.47
4.83
1.32
-3.07
-6.76
-7.96
-5.00
2.86
15.86
32.78
51.24
68.29
81.37
89.02
90.97
88.24
78.20
60.88
39.22
17.60
-0.82
-15.13
-24.74
-30.48
-32.80
-32.58
-30.87
-29.30
-29.44
-31.74
-35.07
-37.18
-35.85
-30.05
-20.78
-10.03
-0.24
6.31
7.95
3.56
-8.16
-26.09
-45.20
-58.28
-59.44
-47.70
-27.34
-5.77
9.90
16.03
13.82
7.88
3.19
2.53
5.65
9.63
11.66
10.34
6.25
1.41
-2.33
-4.48
-6.08
-8.77
-13.62
-20.32
-27.19
-31.95
-32.34
-27.78
-19.65
-10.73
-3.84
-0.74
-1.47
-4.49
-7.44
-8.02
-5.11
0.84
8.05
14.26
17.52
16.78
12.41
5.97
-0.31
-4.47
-5.58
-3.85
-0.34
3.56
6.60
8.43
9.45
10.54
12.50
15.97
21.98
32.18
48.22
68.12
86.65
96.31
91.87
73.58
46.71
18.73
-3.85
-18.09
-25.21
-28.59
-31.47
-34.72
-37.09
-36.70
-32.76
-26.34
-20.00
-16.80
-17.91
-22.69
-28.99
-34.39
-37.34
-37.54
-35.57
-32.36
-28.68
-24.56
-19.53
-12.85
-4.35
5.28
14.54
21.84
26.04
26.27
23.08
17.29
10.83
5.68
3.15
3.37
5.72
9.23
12.96
16.23
18.47
19.86
20.39
20.15
19.13
17.41
15.14
12.34
9.01
5.03
0.38
-5.04
-11.12
-17.92
-25.33
-32.97
-40.27
-46.55
-51.28
-54.16
-55.31
-53.24
-47.56
-38.62
-27.23
-14.36
-1.33
9.97
17.50
19.88
17.20
10.76
2.84
-4.36
-9.60
-12.78
-14.42
-15.03
-14.68
-13.23
-11.09
-9.13
-8.34
-9.37
-12.06
-15.50
-18.48
-19.92
-19.53
-17.82
-15.64
-13.59
-11.84
-10.11
-7.90
-5.44
-2.81
-0.22
2.06
3.87
5.16
5.97
6.34
6.29
5.83
5.14
4.42
3.92
3.91
4.65
6.24
8.52
11.08
13.27
14.54
14.55
13.30
11.14
8.65
6.39
4.63
3.29
1.95
0.22
-2.17
-5.13
-8.27
-10.99
-12.69
-13.00
-11.83
-9.37
-5.94
-2.00
2.00
5.65
8.70
11.09
12.96
14.57
16.21
18.10
20.31
22.77
25.19
27.16
28.22
27.99
26.42
23.82
20.86
18.34
16.85
16.56
17.16
18.01
18.47
18.12
16.88
14.96
12.68
10.40
8.38
6.81
5.77
5.24
5.12
5.22
5.32
5.22
4.82
4.08
3.03
1.72
0.22
-1.39
-2.98
-4.46
-5.73
-6.74
-7.45
-7.84
-7.92
-7.72
-7.29
-6.70
-6.07
-5.44
-4.85
-4.21
-3.41
-2.29
-0.71
1.35
3.77
6.30
8.55
10.14
10.79
10.44
9.21
7.28
4.82
1.92
-1.33
-4.81
-8.31
-11.55
-14.27
-16.38
-17.94
-19.22
-20.51
-22.05
-23.90
-25.95
-27.94
-29.52
-30.33
-30.03
-28.34
-25.06
-20.14
-13.72
-6.19
1.79
9.38
15.80
20.47
23.22
24.26
24.11
23.36
22.54
21.97
21.79
21.94
22.28
22.60
22.63
22.12
20.79
18.54
15.48
12.02
8.80
6.53
5.73
6.54
8.66
11.46
14.19
16.17
16.93
16.22
14.03
10.55
6.25
1.73
-2.34
-5.44
-7.37
-8.36
-8.98
-9.97
-11.98
-15.38
-20.19
-26.10
-32.58
-39.02
-44.79
-49.30
-52.05
-52.67
-50.93
-46.84
-40.61
-32.68
-23.66
-14.34
-5.57
1.83
7.29
10.63
12.17
12.65
12.97
13.87
15.69
18.30
21.24
23.98
26.12
27.47
27.99
27.69
26.49
24.25
20.84
16.34
11.10
5.77
1.14
-2.12
-3.69
-3.68
-2.52
-0.78
0.92
2.04
2.16
1.06
-1.13
-3.85
-6.18
-7.08
-5.81
-2.25
3.05
9.06
14.71
19.26
22.39
24.16
24.73
24.18
22.49
19.57
15.46
10.43
4.95
-0.39
-5.04
-8.65
-11.09
-12.43
-12.85
-12.59
-11.97
-11.32
-10.95
-11.02
-11.41
-11.73
-11.44
-10.11
-7.63
-4.35
-0.92
1.87
3.42
3.45
2.02
-0.55
-3.80
-7.23
-10.41
-12.96
-14.56
-15.00
-14.18
-12.19
-9.32
-5.95
-2.51
0.66
3.41
5.78
7.97
10.17
12.45
14.67
16.69
18.34
19.56
20.36
20.83
21.13
21.39
21.71
22.18
23.16
24.83
27.10
29.55
31.66
33.04
33.55
33.29
32.44
31.65
31.32
31.34
31.20
30.49
29.20
27.59
26.22
25.55
26.56
29.73
34.58
39.75
43.77
45.62
44.83
41.70
36.95
32.73
31.15
33.34
39.06
47.10
55.78
63.13
67.65
61.84
42.54
12.91
-19.26
-46.88
-66.77
-78.34
-84.36
-86.63
-86.11
-82.49
-75.86
-67.46
-59.54
-54.08
-51.69
-51.51
-51.71
-50.82
-47.54
-41.64
-33.83
-25.53
-18.11
-12.42
-8.88
-7.68
-8.88
-12.03
-16.00
-19.49
-21.64
-22.35
-22.08
-21.52
-21.08
-20.81
-20.62
-19.85
-18.18
-15.86
-13.42
-11.34
-9.93
-9.24
-9.15
-9.11
-8.77
-8.14
-7.53
-7.30
-7.67
-8.67
-10.13
-11.75
-13.24
-14.35
-15.03
-15.22
-14.90
-14.04
-12.67
-10.91
-8.90
-6.77
-4.66
-2.76
-1.10
0.58
2.67
5.68
9.99
15.86
23.29
31.98
40.33
46.27
48.16
45.46
38.50
27.61
13.04
-4.52
-23.35
-40.69
-53.19
-58.19
-54.84
-44.53
-30.35
-15.81
-3.64
4.84
9.62
11.53
11.57
10.58
9.23
8.20
8.25
9.96
13.28
17.34
20.78
22.36
21.51
18.65
14.90
11.62
9.76
9.50
10.28
11.23
11.59
10.95
9.25
6.62
3.24
-0.71
-4.99
-9.17
-12.59
-14.52
-14.41
-12.19
-8.40
-3.98
0.06
3.01
4.72
5.52
5.92
6.28
6.65
6.82
6.46
5.44
3.80
1.83
-0.09
-1.62
-2.61
-3.07
-3.19
-3.18
-3.18
-3.30
-3.46
-3.61
-3.67
-3.64
-3.61
-3.68
-3.91
-4.25
-4.61
-4.89
-5.10
-5.24
-5.33
-5.18
-4.49
-2.96
-0.53
2.49
5.44
7.60
8.45
8.00
6.69
5.14
3.86
3.03
2.51
2.08
1.56
0.99
0.55
0.41
0.61
1.04
1.48
1.82
2.07
2.35
2.83
3.54
4.39
5.18
5.68
5.80
5.59
5.21
4.83
4.51
4.19
3.69
3.18
2.66
2.13
1.59
0.98
0.25
-0.59
-1.46
-2.20
-2.64
-2.76
-2.62
-2.37
-2.12
-1.86
-1.43
-0.65
0.61
2.30
4.14
5.71
6.63
6.63
5.64
3.82
1.45
-1.07
-3.40
-5.27
-6.55
-7.20
-7.28
-6.95
-6.40
-5.78
-5.17
-4.58
-3.96
-3.24
-2.38
-1.41
-0.38
0.59
1.40
1.93
2.09
1.82
1.14
0.17
-0.87
-1.73
-2.22
-2.24
-1.84
-1.15
-0.32
0.54
1.35
2.03
2.51
2.75
2.71
2.41
1.95
1.43
0.94
0.53
0.19
-0.11
-0.40
-0.68
-0.95
-1.23
-1.51
-1.80
-2.10
-2.43
-2.82
-3.29
-3.87
-4.51
-5.09
-5.45
-5.44
-5.00
-4.23
-3.31
-2.43
-1.72
-1.19
-0.81
-0.51
-0.24
0.03
0.35
0.81
1.47
2.38
3.48
4.69
5.91
7.08
8.18
9.20
10.09
10.74
11.01
10.87
10.41
9.81
9.31
9.07
9.08
9.23
9.37
9.35
9.14
8.79
8.41
8.08
7.84
7.64
7.41
7.03
6.40
5.42
4.08
2.37
0.38
-1.80
-4.05
-6.27
-8.37
-10.26
-11.86
-13.12
-14.00
-14.55
-14.84
-14.99
-15.09
-15.21
-15.38
-15.62
-15.92
-16.20
-16.36
-16.27
-15.84
-15.10
-14.17
-13.30
-12.68
-12.41
-12.42
-12.55
-12.59
-12.41
-11.97
-11.31
-10.47
-9.52
-8.56
-7.71
-7.15
-7.07
-7.59
-8.71
-10.30
-12.14
-13.95
-15.47
-16.47
-16.79
-16.29
-14.92
-12.76
-10.02
-7.02
-4.11
-1.57
0.44
1.91
2.87
3.39
3.55
3.43
3.06
2.54
1.88
1.09
0.16
-0.95
-2.21
-3.54
-4.79
-5.89
-6.80
-7.63
-8.52
-9.54
-10.60
-11.48
-11.87
-11.53
-10.37
-8.52
-6.23
-3.77
-1.34
0.99
3.18
5.22
7.02
8.50
9.58
10.26
10.65
10.89
11.15
11.54
12.06
12.63
13.11
13.35
13.27
12.90
12.33
11.70
11.07
10.43
9.66
8.68
7.44
6.03
4.57
3.12
1.69
0.15
-1.60
-3.62
-5.82
-8.06
-10.14
-11.99
-13.60
-15.03
-16.29
-17.32
-17.99
-18.12
-17.56
-16.21
-14.07
-11.17
-7.60
-3.52
0.85
5.17
9.11
12.31
14.58
15.87
16.37
16.40
16.31
16.36
16.69
17.32
18.20
19.29
20.59
22.10
23.76
25.40
26.84
27.85
28.28
28.07
27.20
25.73
23.74
21.30
18.53
15.54
12.45
9.31
6.14
2.93
-0.28
-3.34
-6.04
-8.09
-9.25
-9.43
-8.69
-7.30
-5.58
-3.83
-2.24
-0.80
0.57
1.99
3.47
4.89
6.03
6.74
7.03
7.11
7.29
7.84
8.79
9.98
11.12
12.00
12.59
13.01
13.46
14.01
14.62
15.16
15.56
15.85
16.17
16.62
17.15
17.62
17.87
17.89
17.86
18.02
18.49
19.11
19.41
18.78
16.77
13.32
8.77
3.80
-0.87
-4.72
-7.49
-9.16
-9.86
-9.73
-8.97
-7.78
-6.44
-5.26
-4.54
-4.43
-4.98
-6.06
-7.49
-9.07
-10.57
-11.84
-12.79
-13.39
-13.75
-14.01
-14.32
-14.74
-15.23
-15.67
-15.92
-15.94
-15.79
-15.62
-15.62
-15.92
-16.54
-17.41
-18.42
-19.46
-20.44
-21.36
-22.25
-23.22
-24.35
-25.62
-26.87
-27.78
-27.98
-27.24
-25.57
-23.39
-21.34
-20.08
-20.08
-21.38
-23.59
-26.06
-27.97
-28.50
-26.89
-22.65
-15.63
-6.27
4.38
14.90
23.85
30.33
34.28
36.53
38.45
41.41
46.19
52.81
60.61
68.59
75.66
80.78
82.88
80.95
74.25
62.58
46.55
27.56
7.37
-12.24
-29.90
-44.65
-55.83
-62.98
-65.80
-64.44
-59.64
-52.68
-45.15
-38.37
-33.05
-29.21
-26.33
-23.75
-20.96
-17.76
-14.24
-10.63
-7.17
-3.98
-1.13
1.42
3.65
5.57
7.20
8.61
9.96
11.40
13.06
14.93
16.89
18.67
19.95
20.47
20.08
18.80
16.85
14.53
12.19
10.08
8.26
6.67
5.09
3.31
1.13
-1.47
-4.37
-7.30
-9.85
-11.63
-12.33
-11.86
-10.35
-8.13
-5.58
-3.07
-0.83
1.02
2.47
3.53
4.20
4.49
4.45
4.20
3.88
3.63
3.53
3.57
3.67
3.74
3.72
3.58
3.36
3.03
2.62
2.09
1.44
0.67
-0.21
-1.19
-2.25
-3.36
-4.48
-5.57
-6.62
-7.63
-8.64
-9.70
-10.83
-12.04
-13.30
-14.52
-15.58
-16.28
-16.42
-15.78
-14.27
-11.91
-8.91
-5.60
-2.32
0.57
2.88
4.55
5.63
6.22
6.41
6.27
5.81
5.08
4.20
3.32
2.61
2.15
1.95
1.89
1.88
1.85
1.81
1.79
1.74
1.57
1.13
0.33
-0.83
-2.25
-3.79
-5.32
-6.76
-8.11
-9.34
-10.47
-11.46
-12.31
-13.01
-13.52
-13.75
-13.53
-12.71
-11.18
-9.00
-6.38
-3.58
-0.89
1.52
3.58
5.28
6.60
7.54
8.09
8.27
8.16
7.86
7.45
6.96
6.37
5.63
4.79
3.97
3.32
2.99
3.02
3.33
3.74
4.10
4.31
4.35
4.22
3.94
3.46
2.71
1.65
0.28
-1.34
-3.09
-4.89
-6.69
-8.41
-9.95
-11.13
-11.77
-11.72
-10.95
-9.55
-7.66
-5.46
-3.10
-0.73
1.50
3.43
4.96
6.03
6.69
7.04
7.18
7.18
7.04
6.75
6.27
5.57
4.67
3.59
2.41
1.25
0.23
-0.55
-1.10
-1.43
-1.60
-1.60
-1.46
-1.19
-0.93
-0.84
-1.07
-1.66
-2.53
-3.51
-4.52
-5.60
-6.88
-8.49
-10.38
-12.35
-14.08
-15.28
-15.86
-15.90
-15.66
-15.43
-15.45
-15.90
-16.84
-18.27
-20.15
-22.41
-25.00
-27.86
-30.97
-34.29
-37.77
-41.36
-44.96
-48.47
-51.83
-55.02
-58.05
-60.88
-63.41
-65.49
-67.02
-67.97
-68.50
-68.84
-69.20
-69.58
-69.72
-69.15
-67.31
-63.81
-58.50
-51.49
-43.05
-33.41
-22.76
-11.22
1.01
13.62
26.16
38.22
49.57
60.29
70.66
81.03
91.59
102.27
112.72
122.40
130.70
137.07
141.00
142.15
140.39
135.85
128.96
120.36
110.80
100.95
91.28
81.93
72.67
63.04
52.58
41.06
28.74
16.40
5.08
-4.21
-10.92
-15.10
-17.35
-18.59
-19.69
-21.29
-23.66
-26.73
-30.20
-33.59
-36.37
-38.06
-38.32
-37.11
-34.67
-31.46
-27.95
-24.50
-21.19
-17.90
-14.46
-10.81
-7.10
-3.67
-0.90
0.94
1.82
1.94
1.72
1.71
2.45
4.37
7.60
11.91
16.65
20.94
23.95
25.13
24.39
22.11
18.85
15.18
11.53
8.13
5.11
2.55
0.52
-0.92
-1.78
-2.13
-2.12
-1.96
-1.85
-1.95
-2.23
-2.46
-2.10
-0.55
2.70
7.72
14.01
20.64
26.46
30.53
32.28
31.63
28.81
24.31
18.66
12.44
6.26
0.71
-3.70
-6.69
-8.21
-8.48
-7.87
-6.76
-5.37
-3.76
-1.86
0.42
2.98
5.47
7.35
8.07
7.27
4.99
1.56
-2.47
-6.56
-10.32
-13.53
-16.06
-17.87
-18.96
-19.35
-19.16
-18.52
-17.56
-16.40
-15.09
-13.66
-12.13
-10.56
-9.03
-7.62
-6.46
-5.61
-5.08
-4.76
-4.47
-3.99
-3.24
-2.28
-1.28
-0.45
0.11
0.39
0.46
0.36
0.06
-0.47
-1.26
-2.27
-3.41
-4.62
-5.89
-7.27
-8.76
-10.30
-11.80
-13.11
-14.10
-14.70
-15.02
-15.22
-15.52
-16.08
-16.97
-18.14
-19.35
-20.18
-20.11
-18.74
-15.90
-11.75
-6.74
-1.53
3.06
6.48
8.55
9.46
9.53
9.06
8.24
7.15
5.79
3.85
1.39
-1.10
-3.07
-4.27
-4.83
-5.07
-5.34
-5.90
-7.54
-10.46
-14.03
-17.46
-20.47
-23.22
-26.05
-29.21
-32.86
-38.06
-44.97
-52.45
-59.01
-63.89
-67.13
-69.14
-70.31
-70.89
-72.27
-74.66
-76.71
-76.78
-74.20
-69.22
-62.16
-52.89
-32.16
0.40
35.72
63.44
79.71
86.42
87.53
86.44
84.70
81.76
75.18
62.92
45.90
27.38
10.86
-1.21
-8.05
-10.39
-9.85
-9.28
-9.11
-9.03
-8.23
-6.18
-3.32
-0.72
0.44
-0.47
-3.92
-9.15
-14.25
-17.13
-16.19
-11.74
-5.64
-0.03
3.94
6.29
8.23
11.27
16.24
23.58
31.97
39.13
43.33
44.62
44.60
45.39
48.58
54.59
63.82
75.01
85.70
93.63
97.96
99.32
98.93
98.11
90.09
74.55
57.29
44.55
37.61
33.49
28.28
19.18
5.52
-11.35
-27.84
-41.53
-52.25
-61.05
-68.94
-74.94
-77.07
-73.64
-64.26
-49.61
-32.69
-17.93
-9.17
-8.24
-12.98
-19.10
-22.80
-22.44
-18.32
-12.60
-7.71
-4.96
-4.01
-3.39
-2.04
0.01
1.87
2.86
2.45
0.74
-1.62
-3.79
-5.04
-5.35
-5.26
-5.44
-6.20
-7.47
-8.84
-9.90
-10.65
-11.37
-12.64
-14.97
-18.48
-22.76
-27.09
-30.60
-31.67
-29.66
-24.82
-18.16
-10.99
-4.41
0.94
5.05
8.53
12.18
16.26
20.42
23.96
26.16
26.65
25.44
22.79
19.36
15.88
12.78
10.38
9.14
9.74
12.79
18.37
24.07
26.92
25.24
19.69
12.24
4.75
-1.58
-6.35
-9.83
-12.62
-14.96
-16.75
-17.97
-18.79
-19.76
-21.35
-23.85
-27.22
-31.15
-34.93
-37.75
-39.06
-38.05
-34.70
-29.32
-22.62
-15.50
-9.01
-3.93
-0.79
0.19
-0.93
-3.92
-8.21
-13.07
-17.74
-21.58
-24.08
-24.94
-24.08
-21.51
-17.23
-11.04
-2.66
7.94
20.13
32.56
43.36
50.65
53.18
50.70
44.04
34.71
24.31
14.15
4.97
-2.84
-9.17
-14.02
-17.56
-20.16
-22.30
-24.43
-26.75
-29.09
-30.88
-31.40
-29.99
-26.37
-20.74
-13.70
-6.14
1.09
7.34
12.33
16.16
19.17
21.80
24.45
27.38
30.64
34.11
37.51
40.48
42.65
43.79
43.82
42.94
41.55
40.14
39.15
38.81
39.05
39.53
39.81
39.48
38.29
36.25
33.59
30.64
27.74
25.02
22.40
19.56
16.11
11.79
6.64
0.98
-4.68
-9.81
-14.04
-17.20
-19.30
-20.37
-20.46
-19.56
-17.73
-15.16
-12.19
-9.31
-6.96
-5.48
-4.95
-5.23
-6.01
-6.94
-7.78
-8.42
-8.90
-9.34
-9.83
-10.38
-10.95
-11.44
-11.77
-11.94
-11.99
-11.99
-11.95
-11.85
-11.60
-11.14
-10.51
-9.88
-9.53
-9.76
-10.78
-12.63
-15.15
-18.06
-20.97
-23.42
-24.94
-25.07
-23.42
-19.85
-14.50
-7.86
-0.62
6.53
13.10
18.88
23.87
28.17
31.77
34.58
36.39
37.11
36.75
35.52
33.68
31.53
29.32
27.28
25.64
24.60
24.28
24.68
25.61
26.71
27.60
27.97
27.68
26.78
25.43
23.80
21.95
19.79
17.17
14.03
10.48
6.83
3.49
0.88
-0.68
-1.00
-0.10
1.73
3.85
5.35
5.31
3.18
-0.96
-6.31
-11.76
-16.41
-19.90
-22.51
-24.66
-26.45
-27.33
-26.27
-22.29
-15.01
-4.89
6.92
19.00
30.09
39.26
45.87
49.54
49.97
47.15
41.37
33.32
23.91
14.03
4.31
-4.97
-13.87
-22.67
-31.64
-40.92
-50.44
-59.87
-68.70
-76.45
-82.84
-87.97
-92.33
-96.60
-101.29
-106.47
-111.68
-116.06
-118.75
-119.21
-117.40
-113.77
-108.94
-103.44
-97.53
-91.12
-83.90
-75.47
-65.54
-54.03
-41.15
-27.40
-13.50
-0.27
11.60
21.77
30.43
38.27
46.30
55.32
65.54
76.24
85.81
92.28
94.03
90.54
82.66
72.32
61.78
52.82
46.20
41.71
38.61
36.26
34.36
32.93
32.06
31.58
31.06
30.04
28.29
25.99
23.66
21.82
20.74
20.31
20.14
19.80
19.12
18.27
17.69
17.78
18.68
20.06
21.24
21.51
20.47
18.27
15.50
12.95
11.16
10.19
9.63
8.89
7.56
5.67
3.64
1.98
0.98
0.49
0.06
-0.75
-2.11
-3.71
-4.86
-4.81
-2.97
0.86
6.51
13.54
21.32
29.08
35.97
41.04
43.49
42.88
39.30
33.44
26.38
19.24
12.83
7.47
3.03
-0.81
-4.33
-7.58
-10.45
-12.84
-14.81
-16.56
-18.32
-20.20
-22.02
-23.44
-24.10
-23.85
-22.82
-21.37
-19.93
-18.81
-18.08
-17.61
-17.25
-16.90
-16.61
-16.59
-17.04
-18.04
-19.50
-21.19
-22.87
-24.37
-25.64
-26.80
-27.96
-29.17
-30.36
-31.33
-31.80
-31.58
-30.61
-29.03
-27.13
-25.34
-24.02
-23.43
-23.64
-24.51
-25.84
-27.40
-29.08
-30.84
-32.67
-34.49
-36.06
-36.99
-36.79
-35.03
-31.41
-25.83
-18.40
-9.45
0.54
10.97
21.18
30.49
38.27
43.92
46.96
47.10
44.37
39.21
32.44
25.16
18.47
13.30
10.30
9.81
11.90
16.37
22.69
29.98
37.17
43.18
47.19
48.78
47.89
44.69
39.47
32.64
24.73
16.47
8.65
1.99
-3.05
-6.45
-8.46
-9.55
-10.16
-10.64
-11.18
-11.87
-12.67
-13.49
-14.22
-14.75
-15.00
-14.96
-14.64
-14.07
-13.28
-12.32
-11.24
-10.12
-9.04
-8.08
-7.28
-6.62
-6.09
-5.64
-5.26
-4.91
-4.61
-4.33
-4.06
-3.76
-3.36
-2.79
-2.07
-1.25
-0.49
-0.01
-0.09
-0.98
-2.84
-5.71
-9.41
-13.55
-17.65
-21.20
-23.85
-25.45
-26.04
-25.80
-24.89
-23.42
-21.48
-19.17
-16.67
-14.25
-12.17
-10.56
-9.40
-8.51
-7.62
-6.55
-5.26
-3.97
-3.03
-2.80
-3.53
-5.15
-7.25
-9.21
-10.34
-10.17
-8.59
-5.92
-2.75
0.27
2.62
4.03
4.48
4.12
3.21
2.10
1.14
0.66
0.75
1.28
1.88
2.16
1.91
1.24
0.54
0.27
0.76
2.00
3.69
5.37
6.64
7.30
7.49
7.66
8.52
10.79
15.03
21.35
29.41
38.36
47.03
54.07
58.24
58.65
55.05
47.94
38.49
28.19
18.36
9.70
2.09
-5.25
-13.11
-21.68
-30.19
-37.12
-40.72
-39.79
-34.08
-24.35
-11.94
1.58
14.83
26.71
36.47
43.66
48.10
49.83
49.03
45.95
40.99
34.78
28.28
22.71
19.18
18.27
19.78
22.90
26.46
29.50
31.51
32.44
32.41
31.48
29.54
26.41
22.03
16.59
10.61
4.76
-0.36
-4.39
-7.39
-9.89
-12.71
-16.64
-22.10
-28.90
-36.35
-43.49
-49.43
-53.59
-55.79
-56.19
-55.18
-53.34
-51.38
-50.05
-49.98
-51.43
-54.17
-57.39
-59.97
-60.82
-59.19
-54.89
-48.15
-39.46
-29.42
-18.62
-7.65
2.83
12.10
19.47
24.40
26.56
25.97
22.92
17.95
11.77
5.31
-0.30
-3.86
-4.39
-1.60
3.85
10.40
16.09
19.34
19.55
17.31
13.91
10.71
8.47
7.22
6.49
5.85
5.15
4.62
4.51
4.86
5.42
5.76
5.53
4.68
3.47
2.32
1.63
1.54
1.96
2.54
2.94
2.92
2.45
1.71
1.00
0.56
0.50
0.76
1.15
1.45
1.53
1.36
1.05
0.73
0.55
0.56
0.71
0.92
1.09
1.14
1.09
0.95
0.81
0.70
0.67
0.69
0.75
0.80
0.83
0.83
0.82
0.80
0.78
0.77
0.77
0.77
0.76
0.76
0.75
0.75
0.74
0.74
0.73
0.73
0.72
0.72
0.72
0.71
0.71
0.70
0.70
0.69
0.69
0.68
0.68
0.68
0.67
0.67
0.66
0.66
0.65
0.65
0.65
0.64
0.64
0.63
0.63
0.63
0.62
0.62
0.61
0.61
0.61
0.60
0.60
0.60
0.59
0.59
0.58
0.58
0.58
0.57
0.57
0.57
0.56
0.56
0.56
0.55
0.55
0.55
0.54
0.54
0.54
0.53
0.53
0.53
0.52
0.52
0.52
0.51
0.51
0.51
0.50
0.50
0.50
0.49
0.49
0.49
0.48
0.48
0.48
0.48
0.47
0.47
0.47
0.46
0.46
0.46
0.46
0.45
0.45
0.45
0.44
0.44
0.44
0.44
0.43
0.43
0.43
0.43
0.42
0.42
0.42
0.42
0.41
0.41
0.41
0.41
0.40
0.40
0.40
0.40
0.39
0.39
0.39
0.39
0.38
0.38
0.38
0.38
0.37
0.37
0.37
0.37
0.36
0.36
0.36
0.36
0.36
0.35
0.35
0.35
0.35
0.34
0.34
0.34
0.34
0.34
0.33
0.33
0.33
0.33
0.33
0.33
0.32
0.32
0.32
0.34
0.37
0.40
0.42
0.40
0.33
0.22
0.07
-0.08
-0.20
-0.26
-0.28
-0.28
-0.29
-0.33
-0.43
-0.55
-0.65
-0.70
-0.65
-0.54
-0.43
-0.40
-0.52
-0.80
-1.17
-1.51
-1.71
-1.68
-1.50
-1.30
-1.31
-1.66
-2.37
-3.27
-4.06
-4.46
-4.34
-3.81
-3.24
-3.09
-3.69
-5.10
-6.99
-8.79
-9.90
-10.00
-9.26
-8.29
-7.89
-8.68
-10.80
-13.74
-16.60
-18.45
-18.79
-17.77
-16.18
-15.11
-15.60
-18.39
-23.65
-30.78
-38.27
-43.74
-44.47
-38.24
-24.36
-4.05
19.77
43.52
64.16
79.99
90.76
97.10
99.82
99.36
95.82
89.20
79.72
68.05
55.41
43.49
34.17
29.03
28.74
32.60
38.75
44.87
49.25
51.52
52.60
53.78
55.34
55.65
51.38
38.86
15.99
-16.32
-54.08
-91.50
-123.09
-145.32
-157.37
-160.66
-157.70
-151.11
-143.15
-135.77
-130.76
-129.44
-132.05
-137.24
-142.10
-142.95
-136.59
-121.35
-97.49
-66.90
-32.26
3.66
38.57
70.71
98.72
121.51
138.28
148.58
152.60
151.25
146.14
139.37
133.05
128.85
127.42
128.02
128.57
126.08
117.69
101.73
78.67
51.17
23.34
-0.77
-18.57
-29.89
-36.79
-42.49
-49.90
-60.44
-73.59
-87.36
-99.03
-106.09
-106.84
-100.62
-87.80
-69.73
-48.56
-27.06
-8.13
5.69
12.88
13.33
8.39
0.44
-7.81
-14.14
-17.41
-17.78
-16.42
-14.92
-14.63
-16.19
-19.28
-22.89
-25.70
-26.57
-24.90
-20.77
-14.93
-8.52
-2.77
1.36
3.41
3.56
2.43
0.92
-0.17
-0.34
0.47
1.88
3.34
4.26
4.32
3.53
2.25
1.08
0.60
1.17
2.81
5.23
7.99
10.71
13.12
15.10
16.62
17.69
18.35
18.70
18.89
19.05
19.19
19.25
19.13
18.73
18.04
17.15
16.17
15.21
14.34
13.67
13.25
13.10
13.16
13.20
12.96
12.22
10.94
9.27
7.52
5.99
4.89
4.22
3.86
3.63
3.35
2.91
2.27
1.43
0.41
-0.73
-1.87
-2.85
-3.45
-3.46
-2.76
-1.36
0.56
2.81
5.12
7.30
9.19
10.69
11.68
12.14
12.11
11.74
11.25
10.80
10.49
10.27
10.02
9.60
8.90
7.89
6.62
5.20
3.79
2.52
1.49
0.71
0.10
-0.44
-1.00
-1.62
-2.28
-2.92
-3.48
-3.96
-4.42
-4.94
-5.64
-6.60
-7.84
-9.24
-10.53
-11.42
-11.59
-10.91
-9.42
-7.32
-4.88
-2.36
0.03
2.15
3.89
5.17
5.95
6.25
6.19
5.93
5.62
5.36
5.20
5.12
5.09
5.07
4.99
4.79
4.44
3.92
3.26
2.56
1.93
1.42
1.01
0.59
-0.02
-0.91
-2.07
-3.35
-4.55
-5.51
-6.23
-6.86
-7.63
-8.71
-10.10
-11.54
-12.66
-13.08
-12.59
-11.22
-9.16
-6.70
-4.09
-1.48
1.09
3.55
5.83
7.77
9.22
10.07
10.31
10.09
9.60
9.04
8.50
7.95
7.32
6.58
5.78
5.04
4.51
4.21
4.00
3.67
3.07
2.13
1.00
-0.12
-1.06
-1.77
-2.34
-2.93
-3.67
-4.59
-5.61
-6.60
-7.44
-8.03
-8.34
-8.33
-7.93
-7.03
-5.50
-3.33
-0.63
2.29
5.03
7.19
8.52
8.96
8.63
7.73
6.47
4.95
3.26
1.46
-0.36
-2.10
-3.69
-5.08
-6.34
-7.54
-8.74
-9.91
-10.94
-11.65
-11.93
-11.75
-11.22
-10.55
-9.99
-9.72
-9.82
-10.24
-10.77
-11.20
-11.31
-11.00
-10.31
-9.40
-8.50
-7.84
-7.57
-7.68
-8.03
-8.35
-8.32
-7.63
-6.14
-3.84
-0.90
2.36
5.61
8.51
10.85
12.55
13.63
14.19
14.36
14.27
14.01
13.66
13.24
12.75
12.15
11.39
10.45
9.37
8.24
7.20
6.38
5.84
5.58
5.51
5.49
5.40
5.07
4.36
3.16
1.48
-0.53
-2.58
-4.33
-5.54
-6.18
-6.44
-6.60
-6.92
-7.48
-8.30
-9.29
-10.40
-11.55
-12.59
-13.25
-13.20
-12.17
-10.09
-7.19
-3.91
-0.71
2.02
4.13
5.67
6.77
7.59
8.22
8.62
8.76
8.60
8.18
7.67
7.26
7.08
7.13
7.22
7.12
6.66
5.87
4.98
4.29
3.99
4.06
4.31
4.43
4.20
3.55
2.57
1.46
0.41
-0.45
-1.04
-1.35
-1.40
-1.19
-0.82
-0.43
-0.28
-0.60
-1.50
-2.87
-4.30
-5.22
-5.12
-3.80
-1.44
1.39
4.07
6.08
7.18
7.42
7.01
6.22
5.24
4.25
3.38
2.74
2.36
2.19
2.12
2.04
1.85
1.50
0.97
0.25
-0.63
-1.63
-2.60
-3.39
-3.89
-4.09
-4.17
-4.38
-4.97
-6.03
-7.45
-8.94
-10.16
-10.87
-11.00
-10.64
-10.05
-9.46
-9.05
-8.91
-9.04
-9.41
-9.97
-10.59
-11.06
-11.11
-10.46
-9.01
-6.82
-4.16
-1.38
1.20
3.41
5.17
6.47
7.32
7.72
7.68
7.25
6.54
5.67
4.76
3.87
3.00
2.12
1.19
0.20
-0.81
-1.76
-2.60
-3.32
-3.94
-4.56
-5.25
-6.04
-6.88
-7.71
-8.49
-9.22
-9.90
-10.50
-10.93
-11.07
-10.86
-10.29
-9.45
-8.45
-7.37
-6.27
-5.15
-3.98
-2.69
-1.20
0.60
2.76
5.27
7.97
10.66
13.10
15.17
16.83
18.10
18.99
19.47
19.49
19.02
18.14
16.99
15.77
14.67
13.79
13.19
12.79
12.48
12.12
11.63
10.97
10.19
9.39
8.62
7.89
7.12
6.19
5.01
3.58
2.01
0.44
-1.00
-2.27
-3.40
-4.46
-5.51
-6.59
-7.66
-8.70
-9.68
-10.63
-11.54
-12.38
-13.01
-13.22
-12.80
-11.63
-9.75
-7.36
-4.74
-2.21
-0.00
1.75
3.02
3.85
4.33
4.56
4.68
4.80
5.00
5.27
5.57
5.84
6.06
6.26
6.52
6.93
7.51
8.21
8.91
9.48
9.80
9.80
9.45
8.76
7.81
6.66
5.41
4.05
2.50
0.54
-2.02
-5.28
-9.16
-13.34
-17.38
-20.83
-23.34
-24.66
-24.74
-23.61
-21.48
-18.66
-15.55
-12.56
-9.99
-7.98
-6.53
-5.49
-4.74
-4.18
-3.79
-3.63
-3.72
-4.05
-4.55
-5.08
-5.50
-5.75
-5.83
-5.88
-6.06
-6.49
-7.21
-8.14
-9.12
-10.00
-10.66
-11.00
-10.97
-10.51
-9.63
-8.35
-6.78
-5.10
-3.57
-2.42
-1.80
-1.68
-1.88
-2.06
-1.86
-1.01
0.56
2.72
5.20
7.66
9.84
11.62
12.99
14.03
14.82
15.39
15.75
15.88
15.79
15.51
15.08
14.49
13.70
12.65
11.37
9.99
8.70
7.71
7.11
6.82
6.60
6.18
5.38
4.16
2.69
1.18
-0.15
-1.18
-1.90
-2.38
-2.70
-2.90
-3.03
-3.06
-3.03
-2.98
-2.90
-2.73
-2.35
-1.59
-0.38
1.22
2.96
4.56
5.76
6.47
6.76
6.80
6.76
6.68
6.51
6.11
5.39
4.32
3.02
1.62
0.29
-0.87
-1.85
-2.72
-3.56
-4.43
-5.32
-6.14
-6.73
-6.99
-6.90
-6.56
-6.15
-5.86
-5.82
-6.04
-6.46
-6.94
-7.38
-7.71
-7.97
-8.23
-8.61
-9.20
-9.96
-10.80
-11.57
-12.15
-12.47
-12.51
-12.23
-11.57
-10.44
-8.77
-6.62
-4.12
-1.50
1.05
3.43
5.61
7.57
9.22
10.44
11.07
11.04
10.46
9.55
8.58
7.75
7.16
6.73
6.38
6.04
5.71
5.46
5.34
5.31
5.25
4.99
4.43
3.59
2.59
1.62
0.81
0.18
-0.32
-0.78
-1.28
-1.85
-2.52
-3.30
-4.20
-5.21
-6.28
-7.34
-8.35
-9.24
-9.96
-10.37
-10.31
-9.64
-8.27
-6.31
-3.96
-1.50
0.84
2.88
4.59
5.94
6.91
7.49
7.71
7.63
7.38
7.08
6.83
6.65
6.51
6.36
6.13
5.82
5.45
5.05
4.66
4.29
3.93
3.59
3.22
2.82
2.30
1.61
0.65
-0.61
-2.16
-3.90
-5.65
-7.20
-8.36
-9.02
-9.21
-9.09
-8.89
-8.81
-8.99
-9.46
-10.12
-10.79
-11.25
-11.25
-10.57
-9.07
-6.77
-3.79
-0.36
3.25
6.80
10.14
13.20
15.92
18.19
19.91
21.00
21.46
21.39
20.99
20.45
19.87
19.21
18.32
17.02
15.22
12.98
10.51
8.05
5.81
3.86
2.14
0.51
-1.13
-2.81
-4.49
-6.05
-7.39
-8.47
-9.30
-9.91
-10.32
-10.59
-10.79
-11.02
-11.37
-11.91
-12.60
-13.30
-13.78
-13.81
-13.23
-12.03
-10.29
-8.19
-5.93
-3.67
-1.55
0.38
2.03
3.32
4.18
4.57
4.54
4.23
3.85
3.57
3.50
3.58
3.71
3.75
3.58
3.19
2.61
1.85
0.93
-0.14
-1.34
-2.58
-3.75
-4.75
-5.53
-6.15
-6.73
-7.38
-8.20
-9.19
-10.26
-11.33
-12.29
-13.10
-13.80
-14.46
-15.15
-15.89
-16.59
-17.07
-17.10
-16.53
-15.27
-13.43
-11.18
-8.75
-6.36
-4.16
-2.22
-0.52
0.98
2.34
3.55
4.59
5.38
5.92
6.28
6.59
7.00
7.52
8.10
8.56
8.79
8.82
8.80
8.94
9.29
9.75
10.10
10.10
9.68
8.91
7.97
7.00
6.05
5.07
4.00
2.85
1.71
0.70
-0.13
-0.86
-1.65
-2.70
-4.08
-5.65
-7.13
-8.15
-8.43
-7.86
-6.53
-4.67
-2.53
-0.32
1.85
3.94
5.91
7.77
9.49
11.00
12.23
13.09
13.47
13.33
12.72
11.80
10.80
9.93
9.33
9.00
8.85
8.75
8.62
8.37
7.97
7.37
6.48
5.26
3.74
2.01
0.25
-1.37
-2.71
-3.77
-4.64
-5.48
-6.40
-7.47
-8.67
-9.91
-11.11
-12.22
-13.17
-13.89
-14.26
-14.11
-13.32
-11.88
-9.90
-7.62
-5.33
-3.22
-1.37
0.26
1.78
3.21
4.47
5.40
5.88
5.87
5.50
5.02
4.65
4.54
4.72
5.07
5.47
5.83
6.14
6.42
6.66
6.78
6.65
6.10
5.09
3.70
2.16
0.75
-0.35
-1.12
-1.75
-2.57
-3.88
-5.81
-8.30
-11.07
-13.81
-16.22
-18.17
-19.67
-20.77
-21.52
-21.87
-21.72
-20.99
-19.68
-17.94
-16.06
-14.40
-13.32
-13.12
-13.98
-15.95
-18.80
-21.93
-24.42
-25.15
-23.20
-18.18
-10.51
-1.27
8.06
16.14
22.10
25.69
27.20
27.17
26.14
24.53
22.59
20.48
18.27
15.98
13.52
10.77
7.60
4.01
0.18
-3.53
-6.68
-8.93
-10.17
-10.58
-10.57
-10.60
-10.97
-11.73
-12.61
-13.11
-12.70
-10.96
-7.79
-3.44
1.47
6.19
9.97
12.30
13.00
12.19
10.19
7.33
3.94
0.26
-3.43
-6.76
-9.28
-10.50
-10.02
-7.65
-3.46
2.31
9.23
16.80
24.57
32.11
39.20
45.81
52.03
57.98
63.64
68.78
73.02
76.00
77.47
77.43
75.94
73.12
68.98
63.57
56.96
49.36
41.07
32.34
23.35
14.21
5.21
-3.14
-10.08
-14.87
-17.10
-16.86
-14.76
-11.68
-8.54
-6.05
-4.70
-4.74
-6.31
-9.35
-13.62
-18.64
-23.82
-28.59
-32.60
-35.75
-38.20
-40.15
-41.75
-43.01
-43.85
-44.22
-44.13
-43.78
-43.44
-43.39
-43.84
-44.77
-45.97
-47.10
-47.81
-47.92
-47.45
-46.61
-45.70
-45.00
-44.67
-44.79
-45.36
-46.37
-47.73
-49.21
-50.41
-50.75
-49.57
-46.37
-40.93
-33.36
-24.18
-14.12
-4.03
5.23
12.89
18.36
21.40
22.25
21.68
20.89
21.23
23.75
28.83
35.99
43.97
51.12
55.93
57.48
55.69
51.24
45.22
38.77
32.75
27.60
23.47
20.39
18.45
17.75
18.31
19.87
21.85
23.49
24.04
23.06
20.50
16.72
12.29
7.84
3.84
0.62
-1.70
-3.15
-3.86
-4.03
-3.91
-3.69
-3.47
-3.28
-3.10
-2.90
-2.68
-2.47
-2.32
-2.23
-2.19
-2.18
-2.21
-2.33
-2.57
-2.90
-3.21
-3.40
-3.35
-3.09
-2.75
-2.53
-2.63
-3.13
-3.96
-4.92
-5.82
-6.46
-6.80
-6.89
-6.86
-6.90
-7.19
-7.87
-8.99
-10.41
-11.88
-13.03
-13.48
-12.99
-11.56
-9.38
-6.79
-4.11
-1.55
0.83
3.06
5.16
7.08
8.70
9.91
10.65
11.02
11.15
11.19
11.21
11.18
11.02
10.71
10.29
9.87
9.60
9.54
9.66
9.80
9.76
9.42
8.75
7.85
6.85
5.90
5.08
4.39
3.81
3.28
2.77
2.20
1.51
0.60
-0.62
-2.18
-3.97
-5.78
-7.27
-8.15
-8.21
-7.45
-6.05
-4.32
-2.56
-0.94
0.52
1.89
3.26
4.61
5.77
6.53
6.71
6.27
5.29
3.98
2.55
1.21
0.11
-0.65
-0.97
-0.85
-0.30
0.56
1.57
2.58
3.48
4.21
4.78
5.20
5.46
5.50
5.24
4.57
3.43
1.85
-0.08
-2.24
-4.56
-7.10
-10.00
-13.38
-17.22
-21.20
-24.79
-27.36
-28.47
-27.94
-25.97
-22.98
-19.40
-15.52
-11.44
-7.20
-2.86
1.37
5.15
8.18
10.30
11.56
12.22
12.59
12.88
13.18
13.43
13.55
13.51
13.34
13.10
12.80
12.41
11.85
11.03
9.92
8.54
6.91
5.05
3.00
0.78
-1.50
-3.71
-5.75
-7.59
-9.30
-11.02
-12.85
-14.80
-16.69
-18.17
-18.84
-18.37
-16.62
-13.71
-9.98
-5.84
-1.71
2.15
5.57
8.50
10.90
12.70
13.85
14.34
14.25
13.74
13.06
12.37
11.79
11.28
10.76
10.08
9.19
8.07
6.84
5.68
4.77
4.19
3.89
3.65
3.19
2.30
0.91
-0.83
-2.63
-4.17
-5.28
-5.97
-6.41
-6.88
-7.63
-8.80
-10.39
-12.25
-14.01
-15.19
-15.26
-13.76
-10.52
-5.72
0.17
6.47
12.59
18.07
22.72
26.51
29.41
31.27
31.80
30.60
27.46
22.54
16.47
10.24
4.89
1.13
-0.84
-1.35
-0.96
-0.15
0.82
1.90
3.11
4.34
5.38
5.94
5.86
5.15
4.01
2.67
1.24
-0.23
-1.69
-3.11
-4.44
-5.71
-7.08
-8.73
-11.07
-14.62
-19.68
-26.22
-33.75
-41.45
-48.48
-54.15
-57.94
-59.96
-60.65
-60.28
-58.81
-55.99
-51.60
-46.04
-40.08
-34.23
-29.37
-26.00
-23.60
-20.89
-16.52
-9.78
-1.35
7.52
16.30
23.94
29.75
33.90
36.83
38.43
37.68
32.73
22.53
8.78
-6.75
-21.97
-34.40
-41.73
-42.25
-32.10
-10.20
18.71
53.44
90.40
122.80
143.80
149.31
139.33
117.82
90.49
58.18
27.46
3.17
-14.42
-27.24
-35.93
-39.69
-38.01
-32.57
-26.72
-22.85
-23.23
-28.14
-35.67
-41.71
-43.00
-38.33
-28.96
-17.63
-6.58
1.54
4.96
3.59
-1.27
-8.19
-16.34
-25.07
-33.68
-40.85
-45.90
-48.41
-47.84
-43.57
-35.45
-23.96
-10.22
4.14
17.59
28.51
35.83
39.28
39.43
37.19
33.53
29.33
25.30
22.08
20.13
19.70
20.71
22.73
24.98
26.57
26.86
25.62
23.09
19.81
16.32
13.02
10.03
7.25
4.55
1.90
-0.65
-2.87
-4.56
-5.55
-5.82
-5.54
-4.99
-4.44
-4.06
-3.90
-3.88
-3.89
-3.81
-3.59
-3.23
-2.82
-2.42
-2.12
-1.99
-2.07
-2.38
-2.88
-3.55
-4.30
-5.01
-5.54
-5.74
-5.50
-4.81
-3.74
-2.39
-0.88
0.74
2.48
4.32
6.22
8.11
9.85
11.31
12.40
13.08
13.38
13.37
13.15
12.82
12.49
12.20
11.98
11.79
11.55
11.17
10.57
9.72
8.66
7.51
6.37
5.31
4.32
3.31
2.13
0.74
-0.82
-2.37
-3.71
-4.70
-5.37
-5.84
-6.30
-6.87
-7.52
-8.18
-8.70
-9.02
-9.12
-9.08
-8.96
-8.81
-8.65
-8.48
-8.36
-8.36
-8.59
-9.12
-9.94
-10.93
-11.91
-12.70
-13.13
-13.20
-12.97
-12.64
-12.43
-12.53
-13.10
-14.19
-15.71
-17.50
-19.33
-20.94
-22.10
-22.72
-22.78
-22.42
-21.87
-21.41
-21.25
-21.55
-22.27
-23.17
-23.89
-24.00
-23.18
-21.32
-18.55
-15.21
-11.69
-8.32
-5.20
-2.27
0.68
3.83
7.17
10.45
13.22
14.94
15.18
13.77
10.87
6.98
2.75
-1.20
-4.45
-6.92
-8.80
-10.53
-12.60
-15.24
-18.30
-21.01
-22.18
-20.44
-14.75
-4.83
8.62
24.12
39.87
54.43
67.12
78.04
87.71
96.48
104.08
109.53
111.37
108.21
99.18
84.33
64.78
42.47
19.84
-0.80
-17.67
-29.89
-37.45
-41.08
-41.77
-40.57
-38.33
-35.73
-33.29
-31.42
-30.30
-29.86
-29.82
-29.76
-29.33
-28.42
-27.15
-25.79
-24.67
-23.99
-23.82
-24.02
-24.32
-24.38
-23.94
-22.88
-21.34
-19.63
-18.11
-16.98
-16.14
-15.21
-13.72
-11.43
-8.56
-5.78
-4.00
-3.98
-6.01
-9.83
-14.73
-19.74
-23.84
-26.05
-25.55
-21.90
-15.29
-6.72
2.22
9.80
14.79
16.91
16.85
15.90
15.35
16.02
18.12
21.28
24.83
28.02
30.10
30.40
28.47
24.14
17.73
10.08
2.40
-3.95
-7.86
-8.81
-6.96
-3.14
1.45
5.52
8.01
8.28
6.22
2.27
-2.79
-7.99
-12.54
-16.07
-18.65
-20.69
-22.49
-24.01
-24.71
-23.84
-20.78
-15.33
-7.72
1.66
12.40
24.01
35.62
45.69
52.17
53.13
47.73
36.75
22.50
8.02
-4.09
-12.48
-17.24
-19.30
-19.71
-19.06
-17.42
-14.71
-11.09
-7.16
-3.73
-1.44
-0.40
-0.15
0.11
1.16
3.33
6.29
9.27
11.25
11.40
9.36
5.24
-0.49
-7.20
-14.29
-21.21
-27.51
-32.80
-36.81
-39.43
-40.67
-40.67
-39.68
-37.96
-35.82
-33.51
-31.23
-28.99
-26.65
-23.97
-20.73
-16.89
-12.61
-8.23
-4.12
-0.50
2.51
4.98
6.96
8.54
9.79
10.78
11.65
12.56
13.62
14.89
16.32
17.77
19.04
19.87
20.03
19.33
17.69
15.20
12.10
8.72
5.50
2.90
1.39
1.32
2.80
5.64
9.35
13.25
16.68
19.19
20.64
21.18
21.05
20.51
19.69
18.63
17.34
15.87
14.36
12.96
11.79
10.88
10.16
9.47
8.70
7.78
6.75
5.70
4.73
3.93
3.34
2.97
2.78
2.77
2.94
3.26
3.75
4.40
5.19
6.04
6.83
7.41
7.61
7.31
6.48
5.16
3.53
1.83
0.32
-0.82
-1.59
-2.17
-2.93
-4.19
-6.14
-8.69
-11.51
-14.19
-16.35
-17.82
-18.56
-18.69
-18.31
-17.54
-16.49
-15.30
-14.12
-13.09
-12.29
-11.75
-11.41
-11.20
-11.06
-10.92
-10.82
-10.83
-11.04
-11.50
-12.14
-12.77
-13.13
-12.99
-12.24
-10.91
-9.17
-7.19
-5.15
-3.15
-1.26
0.46
1.97
3.24
4.34
5.37
6.45
7.64
8.90
10.11
11.16
11.97
12.58
13.09
13.67
14.38
15.24
16.13
16.88
17.42
17.73
17.94
18.24
18.77
19.53
20.36
20.98
21.10
20.52
19.15
17.08
14.47
11.56
8.64
5.99
3.70
1.60
-0.81
-4.12
-8.62
-13.86
-18.49
-20.66
-18.58
-11.26
1.17
17.61
36.35
55.52
73.18
87.37
96.06
97.52
90.91
76.83
57.46
36.05
15.91
-0.55
-12.33
-19.81
-24.15
-26.59
-28.05
-28.99
-29.61
-30.02
-30.29
-30.53
-30.68
-30.56
-29.90
-28.52
-26.38
-23.69
-20.85
-18.33
-16.57
-15.82
-16.04
-16.97
-18.14
-19.10
-19.54
-19.42
-18.96
-18.53
-18.43
-18.78
-19.47
-20.20
-20.66
-20.66
-20.20
-19.46
-18.63
-17.87
-17.17
-16.39
-15.33
-13.86
-11.98
-9.79
-7.46
-5.14
-3.01
-1.21
0.11
0.85
1.06
0.92
0.79
0.97
1.57
2.41
3.02
2.83
1.38
-1.52
-5.72
-10.77
-16.03
-20.74
-24.16
-25.71
-25.15
-22.68
-18.92
-14.72
-10.86
-7.83
-5.67
-4.20
-3.14
-2.27
-1.43
-0.49
0.82
2.79
5.60
9.16
13.03
16.56
19.14
20.34
20.04
18.31
15.31
11.28
6.50
1.45
-3.22
-6.86
-8.98
-9.51
-8.88
-7.87
-7.36
-8.02
-10.20
-13.90
-18.94
-25.09
-32.09
-39.57
-46.89
-53.05
-56.70
-56.45
-51.31
-41.16
-27.00
-10.78
5.15
18.80
29.22
36.63
42.14
47.00
51.86
56.54
60.05
61.25
59.44
54.75
48.11
40.87
34.14
28.44
23.58
18.96
13.97
8.33
2.20
-4.00
-9.87
-15.18
-19.84
-23.75
-26.63
-28.09
-27.80
-25.67
-21.98
-17.30
-12.26
-7.34
-2.80
1.28
4.93
8.22
11.14
13.72
15.96
17.81
19.07
19.37
18.30
15.59
11.42
6.50
1.95
-1.17
-2.31
-1.73
-0.34
0.76
0.81
-0.28
-2.00
-3.68
-4.88
-5.59
-6.12
-6.83
-7.82
-8.95
-9.95
-10.64
-11.01
-11.16
-11.22
-11.20
-10.98
-10.43
-9.51
-8.27
-6.85
-5.46
-4.20
-3.14
-2.23
-1.39
-0.48
0.62
2.02
3.73
5.64
7.55
9.20
10.43
11.22
11.73
12.25
13.05
14.32
16.06
18.06
19.87
20.95
20.80
19.13
16.02
11.93
7.55
3.55
0.31
-2.15
-4.15
-6.05
-8.13
-10.41
-12.72
-14.81
-16.51
-17.69
-18.34
-18.50
-18.25
-17.75
-17.19
-16.76
-16.53
-16.44
-16.29
-15.84
-14.92
-13.47
-11.54
-9.25
-6.76
-4.20
-1.75
0.37
1.95
2.87
3.16
3.06
2.93
3.11
3.79
4.95
6.40
7.93
9.34
10.57
11.63
12.61
13.55
14.47
15.33
16.07
16.64
16.99
17.10
16.94
16.54
15.87
14.93
13.72
12.23
10.48
8.55
6.52
4.51
2.60
0.79
-0.94
-2.63
-4.29
-5.87
-7.30
-8.44
-9.22
-9.56
-9.44
-8.89
-7.99
-6.86
-5.72
-4.75
-4.11
-3.82
-3.74
-3.71
-3.59
-3.32
-2.97
-2.60
-2.20
-1.75
-1.15
-0.40
0.41
1.10
1.49
1.47
1.07
0.46
-0.18
-0.69
-1.05
-1.31
-1.56
-1.87
-2.18
-2.36
-2.26
-1.76
-0.89
0.19
1.28
2.23
3.00
3.68
4.40
5.25
6.19
7.12
7.90
8.44
8.77
8.94
9.02
9.04
8.97
8.81
8.57
8.37
8.30
8.43
8.74
9.14
9.49
9.69
9.66
9.42
9.02
8.56
8.09
7.67
7.29
6.86
6.29
5.54
4.61
3.64
2.86
2.46
2.60
3.27
4.38
5.77
7.24
8.67
9.94
10.96
11.67
11.96
11.75
10.99
9.65
7.79
5.50
2.90
0.17
-2.53
-5.06
-7.33
-9.34
-11.17
-12.89
-14.57
-16.21
-17.74
-19.13
-20.36
-21.45
-22.40
-23.17
-23.68
-23.82
-23.54
-22.83
-21.77
-20.47
-19.05
-17.63
-16.32
-15.20
-14.29
-13.51
-12.68
-11.60
-10.14
-8.28
-6.18
-4.10
-2.33
-1.04
-0.28
0.06
0.18
0.24
0.34
0.48
0.63
0.80
1.05
1.47
2.14
3.09
4.22
5.40
6.51
7.43
8.10
8.44
8.42
8.00
7.21
6.15
4.96
3.76
2.66
1.68
0.82
0.10
-0.49
-0.96
-1.36
-1.80
-2.37
-3.11
-4.02
-4.99
-5.93
-6.74
-7.30
-7.52
-7.32
-6.63
-5.45
-3.86
-2.01
-0.07
1.81
3.47
4.82
5.79
6.38
6.60
6.55
6.36
6.17
6.12
6.26
6.60
7.01
7.37
7.50
7.29
6.73
5.90
4.93
3.97
3.19
2.68
2.52
2.66
2.97
3.20
3.15
2.69
1.87
0.89
0.00
-0.64
-1.03
-1.34
-1.73
-2.28
-2.95
-3.59
-4.09
-4.41
-4.62
-4.78
-4.88
-4.75
-4.20
-3.06
-1.31
0.88
3.19
5.26
6.82
7.79
8.22
8.23
7.98
7.57
7.09
6.61
6.26
6.10
6.16
6.35
6.52
6.50
6.19
5.58
4.74
3.80
2.84
1.93
1.09
0.28
-0.58
-1.56
-2.73
-4.09
-5.52
-6.85
-7.93
-8.71
-9.25
-9.68
-10.08
-10.38
-10.46
-10.19
-9.57
-8.75
-7.99
-7.46
-7.20
-7.02
-6.64
-5.82
-4.45
-2.59
-0.43
1.85
4.11
6.29
8.39
10.35
12.13
13.61
14.69
15.34
15.57
15.47
15.15
14.69
14.15
13.53
12.74
11.69
10.30
8.57
6.57
4.50
2.54
0.85
-0.53
-1.68
-2.71
-3.75
-4.85
-5.98
-7.05
-7.96
-8.65
-9.05
-9.16
-8.99
-8.61
-8.09
-7.54
-7.05
-6.64
-6.26
-5.83
-5.30
-4.69
-4.18
-3.95
-4.18
-4.89
-5.92
-7.01
-7.86
-8.27
-8.19
-7.63
-6.70
-5.46
-3.95
-2.24
-0.41
1.34
2.81
3.81
4.30
4.32
4.05
3.65
3.23
2.80
2.33
1.84
1.40
1.15
1.18
1.50
1.97
2.36
2.53
2.45
2.23
2.06
2.04
2.20
2.42
2.58
2.60
2.50
2.32
2.12
1.92
1.69
1.43
1.16
0.98
0.96
1.15
1.48
1.81
2.00
1.91
1.57
1.06
0.58
0.33
0.45
0.95
1.74
2.67
3.60
4.47
5.30
6.10
6.85
7.45
7.72
7.57
7.08
6.52
6.28
6.70
7.94
9.95
12.49
15.27
17.96
20.22
21.64
21.86
20.62
17.92
14.10
9.70
5.31
1.32
-2.12
-5.08
-7.70
-10.02
-11.98
-13.42
-14.24
-14.40
-14.03
-13.29
-12.38
-11.49
-10.76
-10.32
-10.20
-10.39
-10.81
-11.33
-11.81
-12.11
-12.12
-11.78
-11.14
-10.31
-9.55
-9.09
-9.13
-9.69
-10.65
-11.77
-12.77
-13.44
-13.64
-13.31
-12.39
-10.86
-8.73
-6.12
-3.26
-0.45
2.01
3.89
5.11
5.70
5.73
5.31
4.51
3.41
2.15
0.94
-0.02
-0.59
-0.75
-0.68
-0.59
-0.67
-0.95
-1.29
-1.54
-1.56
-1.33
-0.94
-0.44
0.13
0.76
1.44
2.10
2.64
3.00
3.21
3.36
3.52
3.68
3.73
3.50
2.86
1.85
0.64
-0.55
-1.51
-2.10
-2.30
-2.11
-1.55
-0.65
0.49
1.68
2.74
3.48
3.84
3.92
3.92
4.03
4.37
4.86
5.34
5.54
5.34
4.71
3.77
2.73
1.75
0.94
0.34
-0.05
-0.26
-0.34
-0.32
-0.25
-0.17
-0.10
-0.03
0.08
0.33
0.78
1.48
2.38
3.37
4.32
5.13
5.78
6.28
6.62
6.72
6.43
5.65
4.36
2.72
1.03
-0.41
-1.47
-2.17
-2.71
-3.27
-3.93
-4.56
-4.93
-4.82
-4.11
-2.86
-1.32
0.21
1.42
2.16
2.42
2.29
1.92
1.44
0.95
0.51
0.19
0.05
0.13
0.40
0.77
1.05
1.10
0.86
0.43
0.02
-0.14
0.12
0.79
1.73
2.69
3.43
3.78
3.70
3.25
2.53
1.64
0.67
-0.30
-1.24
-2.09
-2.84
-3.49
-4.06
-4.54
-4.86
-4.91
-4.54
-3.71
-2.48
-1.07
0.18
0.99
1.20
0.83
0.12
-0.69
-1.38
-1.84
-2.05
-2.06
-1.93
-1.72
-1.50
-1.42
-1.62
-2.25
-3.39
-5.01
-6.98
-9.15
-11.39
-13.61
-15.72
-17.59
-19.03
-19.80
-19.69
-18.63
-16.70
-14.16
-11.37
-8.63
-6.16
-3.99
-2.08
-0.32
1.37
2.97
4.48
5.88
7.18
8.40
9.56
10.63
11.57
12.33
12.87
13.23
13.50
13.79
14.17
14.65
15.08
15.24
14.92
13.96
12.38
10.36
8.16
6.07
4.29
2.86
1.70
0.63
-0.58
-2.07
-3.92
-6.07
-8.35
-10.55
-12.44
-13.83
-14.58
-14.66
-14.16
-13.23
-12.10
-10.97
-9.96
-9.09
-8.26
-7.37
-6.35
-5.18
-3.89
-2.55
-1.21
0.11
1.38
2.51
3.40
3.91
3.98
3.66
3.16
2.75
2.69
3.11
3.95
5.01
6.04
6.87
7.50
8.04
8.66
9.48
10.49
11.55
12.43
12.88
12.74
11.96
10.60
8.82
6.83
4.80
2.87
1.09
-0.55
-2.11
-3.64
-5.12
-6.45
-7.47
-8.03
-7.98
-7.25
-5.82
-3.78
-1.29
1.41
4.04
6.29
7.98
9.06
9.61
9.77
9.70
9.45
9.01
8.36
7.53
6.63
5.77
5.05
4.47
3.98
3.47
2.89
2.22
1.50
0.75
-0.01
-0.79
-1.59
-2.39
-3.18
-3.91
-4.52
-5.02
-5.42
-5.81
-6.26
-6.81
-7.42
-8.03
-8.49
-8.72
-8.65
-8.30
-7.69
-6.88
-5.85
-4.58
-3.05
-1.27
0.68
2.63
4.33
5.56
6.14
6.08
5.52
4.70
3.91
3.31
3.01
2.96
3.06
3.22
3.39
3.52
3.59
3.52
3.25
2.71
1.90
0.91
-0.16
-1.15
-1.98
-2.65
-3.19
-3.68
-4.20
-4.80
-5.44
-6.09
-6.68
-7.18
-7.60
-7.96
-8.31
-8.64
-8.89
-8.98
-8.82
-8.37
-7.64
-6.65
-5.48
-4.15
-2.75
-1.30
0.11
1.43
2.57
3.44
3.96
4.07
3.76
3.18
2.53
2.05
1.91
2.14
2.66
3.32
3.98
4.50
4.86
5.03
5.05
4.98
4.84
4.69
4.50
4.25
3.90
3.41
2.78
2.03
1.18
0.23
-0.84
-1.99
-3.15
-4.18
-4.90
-5.19
-4.95
-4.17
-2.89
-1.27
0.49
2.15
3.53
4.52
5.11
5.41
5.55
5.65
5.71
5.68
5.46
4.98
4.27
3.40
2.46
1.53
0.66
-0.15
-0.86
-1.42
-1.76
-1.86
-1.79
-1.68
-1.68
-1.88
-2.25
-2.57
-2.55
-1.97
-0.75
0.95
2.81
4.43
5.45
5.63
4.92
3.45
1.44
-0.77
-2.81
-4.29
-4.93
-4.63
-3.47
-1.74
0.20
1.99
3.42
4.41
5.04
5.41
5.63
5.75
5.73
5.51
5.02
4.30
3.42
2.51
1.75
1.29
1.23
1.57
2.17
2.83
3.30
3.41
3.12
2.57
1.98
1.61
1.60
1.91
2.37
2.73
2.75
2.28
1.31
-0.09
-1.82
-3.75
-5.76
-7.74
-9.59
-11.21
-12.52
-13.51
-14.21
-14.66
-14.91
-14.99
-14.93
-14.75
-14.52
-14.31
-14.27
-14.49
-14.97
-15.55
-15.85
-15.33
-13.49
-10.06
-5.16
0.74
6.93
12.75
17.72
21.59
24.24
25.62
25.73
24.71
22.91
20.84
19.00
17.66
16.81
16.15
15.38
14.29
12.93
11.46
10.04
8.70
7.33
5.78
3.91
1.73
-0.67
-3.12
-5.41
-7.33
-8.71
-9.44
-9.48
-8.93
-7.97
-6.85
-5.86
-5.23
-5.08
-5.40
-6.04
-6.73
-7.19
-7.20
-6.65
-5.59
-4.18
-2.63
-1.15
0.12
1.11
1.79
2.15
2.24
2.11
1.84
1.50
1.17
0.84
0.49
0.06
-0.46
-1.05
-1.60
-2.02
-2.22
-2.18
-1.98
-1.75
-1.66
-1.80
-2.17
-2.69
-3.17
-3.45
-3.40
-3.00
-2.33
-1.52
-0.78
-0.26
-0.03
-0.10
-0.39
-0.80
-1.25
-1.68
-2.04
-2.31
-2.38
-2.14
-1.47
-0.29
1.33
3.18
4.93
6.25
6.89
6.78
6.05
4.94
3.74
2.69
1.87
1.28
0.82
0.41
0.02
-0.27
-0.38
-0.21
0.22
0.77
1.28
1.58
1.68
1.68
1.79
2.14
2.70
3.27
3.56
3.36
2.59
1.42
0.08
-1.15
-2.08
-2.66
-2.98
-3.19
-3.45
-3.91
-4.59
-5.43
-6.24
-6.79
-6.88
-6.39
-5.28
-3.69
-1.81
0.08
1.70
2.83
3.36
3.33
2.95
2.48
2.14
2.03
2.06
2.06
1.87
1.42
0.76
0.03
-0.67
-1.28
-1.80
-2.23
-2.54
-2.68
-2.67
-2.58
-2.56
-2.78
-3.28
-3.96
-4.67
-5.22
-5.53
-5.63
-5.58
-5.48
-5.39
-5.32
-5.31
-5.41
-5.67
-6.09
-6.65
-7.28
-7.91
-8.46
-8.81
-8.82
-8.34
-7.25
-5.52
-3.27
-0.71
1.94
4.45
6.67
8.48
9.84
10.67
10.98
10.80
10.21
9.40
8.55
7.84
7.38
7.22
7.33
7.63
7.99
8.27
8.33
8.09
7.48
6.54
5.35
4.04
2.77
1.66
0.77
0.05
-0.57
-1.22
-1.97
-2.79
-3.59
-4.21
-4.58
-4.68
-4.63
-4.60
-4.75
-5.13
-5.65
-6.17
-6.49
-6.43
-5.90
-4.91
-3.53
-1.95
-0.37
0.97
1.90
2.31
2.21
1.65
0.79
-0.25
-1.31
-2.25
-3.01
-3.55
-3.93
-4.21
-4.43
-4.61
-4.68
-4.59
-4.33
-3.98
-3.64
-3.44
-3.35
-3.25
-2.99
-2.47
-1.77
-1.09
-0.67
-0.67
-1.05
-1.61
-2.13
-2.44
-2.52
-2.48
-2.45
-2.52
-2.67
-2.84
-3.00
-3.17
-3.44
-3.85
-4.30
-4.55
-4.26
-3.18
-1.31
1.13
3.71
6.02
7.81
9.02
9.72
10.00
9.90
9.44
8.64
7.63
6.60
5.76
5.23
5.01
4.98
4.97
4.81
4.39
3.74
2.98
2.30
1.86
1.70
1.68
1.57
1.16
0.34
-0.79
-2.00
-3.07
-3.87
-4.38
-4.73
-5.03
-5.38
-5.81
-6.33
-6.94
-7.59
-8.20
-8.58
-8.52
-7.78
-6.23
-3.88
-0.87
2.50
5.85
8.87
11.31
13.13
14.33
15.00
15.20
14.96
14.34
13.44
12.45
11.58
10.98
10.61
10.27
9.66
8.54
6.87
4.81
2.71
0.94
-0.26
-0.84
-0.92
-0.71
-0.40
-0.11
0.11
0.29
0.44
0.58
0.72
0.94
1.32
1.89
2.63
3.33
3.72
3.49
2.53
0.89
-1.15
-3.21
-4.98
-6.27
-7.11
-7.61
-7.93
-8.17
-8.34
-8.45
-8.48
-8.48
-8.48
-8.47
-8.40
-8.17
-7.74
-7.09
-6.30
-5.45
-4.62
-3.81
-2.98
-2.09
-1.15
-0.23
0.55
1.13
1.48
1.64
1.66
1.62
1.58
1.62
1.81
2.21
2.81
3.50
4.15
4.60
4.78
4.74
4.60
4.53
4.60
4.76
4.89
4.83
4.48
3.85
3.05
2.18
1.39
0.74
0.23
-0.13
-0.37
-0.49
-0.51
-0.51
-0.63
-1.05
-1.86
-3.07
-4.58
-6.18
-7.65
-8.78
-9.44
-9.61
-9.33
-8.71
-7.90
-7.08
-6.33
-5.64
-4.94
-4.17
-3.37
-2.64
-2.13
-1.89
-1.84
-1.78
-1.57
-1.19
-0.76
-0.47
-0.44
-0.66
-0.98
-1.24
-1.33
-1.27
-1.20
-1.23
-1.45
-1.79
-2.10
-2.14
-1.71
-0.73
0.74
2.51
4.30
5.86
6.98
7.61
7.73
7.37
6.61
5.56
4.37
3.23
2.32
1.75
1.49
1.45
1.47
1.42
1.22
0.86
0.38
-0.17
-0.70
-1.15
-1.48
-1.67
-1.76
-1.76
-1.73
-1.71
-1.73
-1.78
-1.84
-1.84
-1.74
-1.51
-1.17
-0.83
-0.57
-0.48
-0.56
-0.76
-1.04
-1.36
-1.70
-2.02
-2.23
-2.16
-1.67
-0.70
0.67
2.21
3.69
4.93
5.85
6.50
6.94
7.26
7.47
7.55
7.43
7.05
6.35
5.30
3.95
2.41
0.85
-0.59
-1.78
-2.71
-3.40
-3.90
-4.22
-4.37
-4.33
-4.13
-3.86
-3.64
-3.58
-3.74
-4.09
-4.48
-4.76
-4.77
-4.51
-4.04
-3.54
-3.16
-3.00
-3.02
-3.15
-3.33
-3.56
-3.90
-4.39
-5.01
-5.59
-5.93
-5.84
-5.24
-4.18
-2.81
-1.31
0.18
1.57
2.81
3.88
4.73
5.30
5.55
5.50
5.20
4.75
4.30
3.93
3.67
3.48
3.27
2.97
2.56
2.11
1.73
1.51
1.44
1.49
1.60
1.78
2.11
2.70
3.59
4.62
5.48
5.83
5.40
4.15
2.25
-0.03
-2.42
-4.73
-6.88
-8.80
-10.40
-11.55
-12.16
-12.19
-11.68
-10.73
-9.45
-7.95
-6.36
-4.80
-3.37
-2.14
-1.10
-0.17
0.73
1.65
2.59
3.47
4.24
4.85
5.28
5.56
5.67
5.63
5.48
5.29
5.19
5.24
5.46
5.74
5.96
6.05
6.02
5.95
5.93
6.01
6.13
6.21
6.20
6.14
6.13
6.27
6.62
7.14
7.72
8.21
8.54
8.71
8.80
8.94
9.21
9.68
10.32
11.00
11.53
11.69
11.28
10.22
8.52
6.35
4.00
1.75
-0.14
-1.54
-2.49
-3.17
-3.81
-4.64
-5.73
-6.98
-8.15
-8.91
-9.02
-8.40
-7.12
-5.39
-3.43
-1.46
0.36
1.91
3.10
3.88
4.30
4.42
4.36
4.23
4.01
3.62
2.89
1.67
-0.12
-2.41
-5.06
-7.84
-10.54
-12.99
-15.14
-16.98
-18.56
-19.94
-21.14
-22.08
-22.58
-22.39
-21.31
-19.27
-16.41
-13.06
-9.67
-6.69
-4.45
-3.03
-2.34
-2.07
-1.92
-1.61
-1.08
-0.45
0.07
0.24
-0.05
-0.70
-1.50
-2.19
-2.57
-2.58
-2.25
-1.68
-1.04
-0.49
-0.29
-0.64
-1.60
-3.00
-4.41
-5.18
-4.73
-2.73
0.72
5.13
9.76
13.88
16.99
18.89
19.69
19.63
18.96
17.90
16.55
15.03
13.48
12.04
10.88
10.08
9.58
9.21
8.74
8.01
6.98
5.76
4.53
3.44
2.52
1.67
0.76
-0.29
-1.42
-2.49
-3.31
-3.78
-3.91
-3.82
-3.65
-3.52
-3.48
-3.54
-3.69
-3.91
-4.13
-4.27
-4.24
-4.00
-3.57
-3.10
-2.77
-2.76
-3.18
-4.06
-5.32
-6.85
-8.52
-10.20
-11.79
-13.27
-14.62
-15.86
-16.99
-17.97
-18.67
-18.98
-18.80
-18.08
-16.87
-15.27
-13.36
-11.18
-8.73
-6.07
-3.28
-0.54
1.94
4.00
5.58
6.68
7.40
7.80
7.93
7.83
7.53
7.18
6.89
6.78
6.81
6.86
6.77
6.46
5.96
5.43
5.02
4.78
4.63
4.36
3.78
2.80
1.49
0.02
-1.38
-2.54
-3.37
-3.84
-4.04
-4.10
-4.18
-4.41
-4.84
-5.39
-5.85
-5.94
-5.42
-4.19
-2.32
-0.05
2.33
4.57
6.50
8.06
9.23
10.00
10.36
10.37
10.11
9.72
9.32
8.98
8.69
8.37
7.98
7.53
7.11
6.79
6.56
6.28
5.75
4.73
3.12
0.98
-1.46
-3.93
-6.18
-8.06
-9.57
-10.82
-11.89
-12.81
-13.43
-13.48
-12.61
-10.56
-7.28
-3.00
1.83
6.65
10.96
14.40
16.80
18.12
18.39
17.72
16.36
14.68
13.21
12.39
12.43
13.15
14.02
14.40
13.80
12.13
9.67
6.96
4.49
2.56
1.23
0.36
-0.23
-0.70
-1.10
-1.43
-1.69
-1.89
-2.06
-2.24
-2.44
-2.65
-2.88
-3.10
-3.36
-3.70
-4.23
-5.00
-6.03
-7.22
-8.35
-9.22
-9.65
-9.61
-9.24
-8.74
-8.29
-7.96
-7.74
-7.56
-7.39
-7.28
-7.33
-7.59
-8.07
-8.70
-9.35
-9.92
-10.31
-10.46
-10.32
-9.85
-8.99
-7.77
-6.26
-4.65
-3.14
-1.92
-1.09
-0.66
-0.58
-0.78
-1.22
-1.94
-2.98
-4.36
-6.00
-7.70
-9.26
-10.47
-11.26
-11.70
-12.03
-12.40
-13.02
-14.14
-15.92
-18.34
-21.27
-24.38
-27.42
-30.31
-33.08
-35.98
-39.49
-44.07
-49.84
-56.55
-63.45
-69.73
-74.78
-78.17
-80.09
-81.47
-83.60
-87.61
-94.06
-102.44
-111.42
-119.08
-122.48
-119.46
-109.80
-95.21
-78.46
-62.64
-49.43
-39.27
-31.10
-20.99
-5.25
17.59
46.37
78.29
109.60
137.81
161.00
178.23
192.62
207.25
222.87
238.07
250.90
259.20
262.89
261.29
253.01
240.31
225.30
208.88
192.14
178.01
170.37
174.59
192.30
197.21
171.06
114.58
43.99
-24.86
-77.14
-118.52
-152.54
-181.57
-207.61
-226.88
-235.30
-232.02
-218.79
-200.57
-182.46
-166.90
-155.92
-150.51
-147.15
-141.74
-131.83
-115.50
-94.43
-69.71
-41.47
-11.37
17.53
43.53
64.89
79.76
88.83
90.86
88.01
84.16
82.27
83.38
87.52
93.06
85.81
78.04
66.16
50.44
32.80
15.18
-1.07
-14.96
-26.04
-34.22
-37.79
-39.00
-38.37
-36.67
-35.00
-34.48
-35.77
-38.80
-42.74
-44.89
-45.57
-43.94
-39.94
-34.19
-27.64
-21.15
-15.18
-9.74
-3.64
2.38
8.40
14.26
19.68
24.40
28.25
31.11
32.86
33.76
33.24
31.43
28.67
25.54
22.65
20.49
19.33
19.14
19.83
20.79
21.49
21.42
20.20
17.73
14.14
9.82
5.23
0.84
-3.02
-6.18
-8.60
-10.38
-11.62
-12.46
-12.94
-13.09
-12.92
-12.46
-11.84
-11.26
-10.92
-10.92
-11.17
-11.43
-11.35
-10.66
-9.20
-7.06
-4.51
-1.89
0.47
2.37
3.74
4.62
5.09
5.19
5.00
4.58
4.06
3.57
3.26
3.15
3.20
3.27
3.20
2.86
2.22
1.34
0.33
-0.67
-1.58
-2.40
-3.17
-3.98
-4.92
-5.99
-7.18
-8.46
-9.79
-11.16
-12.55
-13.92
-15.17
-16.21
-16.94
-17.35
-17.48
-17.53
-17.66
-18.02
-18.58
-19.11
-19.29
-18.77
-17.33
-14.94
-11.74
-8.02
-4.08
-0.20
3.41
6.57
9.21
11.30
12.91
14.16
15.14
15.90
16.42
16.63
16.52
16.13
15.62
15.16
14.87
14.81
14.87
14.90
14.74
14.31
13.62
12.80
11.97
11.19
10.42
9.55
8.46
7.08
5.46
3.68
1.85
0.07
-1.63
-3.17
-4.48
-5.48
-6.10
-6.39
-6.50
-6.67
-7.13
-7.96
-9.03
-10.03
-10.56
-10.34
-9.27
-7.52
-5.40
-3.25
-1.29
0.43
1.93
3.23
4.29
5.02
5.36
5.36
5.13
4.89
4.75
4.78
4.92
5.08
5.18
5.15
5.00
4.74
4.42
4.08
3.77
3.50
3.26
2.99
2.63
2.12
1.43
0.56
-0.50
-1.68
-2.92
-4.12
-5.17
-5.97
-6.48
-6.77
-7.00
-7.35
-7.97
-8.95
-10.26
-11.76
-13.26
-14.45
-15.05
-14.78
-13.50
-11.31
-8.49
-5.45
-2.59
-0.18
1.69
3.10
4.16
4.93
5.44
5.66
5.56
5.16
4.54
3.84
3.21
2.74
2.49
2.39
2.33
2.25
2.10
1.93
1.85
1.89
1.98
2.03
1.91
1.57
1.04
0.40
-0.26
-0.91
-1.59
-2.31
-3.05
-3.79
-4.48
-5.09
-5.62
-6.11
-6.64
-7.31
-8.21
-9.32
-10.54
-11.62
-12.24
-12.14
-11.19
-9.47
-7.20
-4.64
-2.00
0.59
3.04
5.25
7.05
8.28
8.82
8.69
8.08
7.26
6.49
5.91
5.54
5.27
4.96
4.47
3.76
2.90
2.04
1.32
0.84
0.56
0.34
0.02
-0.52
-1.29
-2.18
-3.09
-3.93
-4.69
-5.41
-6.15
-6.92
-7.76
-8.69
-9.74
-10.93
-12.26
-13.59
-14.71
-15.30
-15.09
-13.93
-11.86
-9.11
-6.06
-3.03
-0.30
2.05
4.02
5.61
6.81
7.55
7.82
7.64
7.14
6.51
5.92
5.45
5.10
4.82
4.53
4.18
3.78
3.38
3.05
2.87
2.85
2.93
2.97
2.82
2.33
1.50
0.41
-0.79
-1.91
-2.82
-3.46
-3.90
-4.28
-4.73
-5.40
-6.35
-7.60
-9.07
-10.60
-11.94
-12.78
-12.84
-11.92
-10.00
-7.23
-3.88
-0.31
3.14
6.17
8.57
10.20
11.09
11.33
11.15
10.75
10.31
9.86
9.42
8.95
8.48
8.08
7.82
7.66
7.48
7.12
6.54
5.82
5.13
4.65
4.45
4.45
4.45
4.28
3.84
3.14
2.24
1.23
0.19
-0.83
-1.78
-2.64
-3.36
-3.95
-4.46
-4.94
-5.50
-6.22
-7.19
-8.38
-9.62
-10.58
-10.89
-10.24
-8.56
-6.04
-3.07
-0.10
2.57
4.77
6.50
7.79
8.62
8.91
8.60
7.69
6.28
4.64
3.05
1.80
1.04
0.78
0.92
1.23
1.46
1.45
1.15
0.61
-0.03
-0.68
-1.30
-1.89
-2.49
-3.05
-3.52
-3.80
-3.92
-3.96
-4.10
-4.50
-5.24
-6.24
-7.32
-8.29
-9.07
-9.72
-10.41
-11.26
-12.32
-13.45
-14.43
-14.98
-14.86
-13.94
-12.20
-9.74
-6.73
-3.42
-0.04
3.20
6.16
8.76
10.93
12.55
13.50
13.73
13.33
12.51
11.55
10.72
10.11
9.69
9.36
9.03
8.72
8.52
8.50
8.65
8.89
9.02
8.85
8.29
7.34
6.15
4.89
3.72
2.70
1.77
0.84
-0.19
-1.33
-2.48
-3.52
-4.37
-5.02
-5.59
-6.19
-6.95
-7.91
-9.08
-10.46
-12.01
-13.67
-15.27
-16.51
-17.04
-16.51
-14.78
-11.93
-8.31
-4.44
-0.79
2.27
4.61
6.24
7.29
7.88
8.09
7.98
7.65
7.22
6.85
6.68
6.78
7.10
7.46
7.68
7.65
7.42
7.14
7.01
7.14
7.43
7.67
7.57
6.98
5.93
4.67
3.52
2.70
2.25
2.03
1.76
1.29
0.59
-0.22
-1.01
-1.73
-2.52
-3.57
-5.07
-7.05
-9.31
-11.49
-13.23
-14.26
-14.46
-13.90
-12.70
-11.00
-8.88
-6.43
-3.73
-0.93
1.78
4.19
6.14
7.51
8.29
8.54
8.37
7.96
7.52
7.25
7.27
7.62
8.17
8.73
9.09
9.15
8.91
8.47
7.95
7.41
6.82
6.09
5.16
3.99
2.61
1.10
-0.46
-1.97
-3.37
-4.61
-5.66
-6.55
-7.37
-8.25
-9.34
-10.72
-12.39
-14.22
-15.98
-17.32
-17.95
-17.60
-16.22
-13.87
-10.82
-7.36
-3.81
-0.38
2.85
5.86
8.69
11.32
13.69
15.67
17.11
17.91
18.02
17.53
16.55
15.29
13.95
12.72
11.72
10.97
10.39
9.84
9.17
8.23
6.96
5.35
3.45
1.37
-0.80
-2.94
-4.93
-6.68
-8.13
-9.31
-10.34
-11.42
-12.72
-14.31
-16.04
-17.65
-18.80
-19.30
-19.17
-18.68
-18.18
-17.98
-18.24
-18.90
-19.72
-20.34
-20.36
-19.43
-17.32
-14.05
-9.91
-5.34
-0.86
3.15
6.51
9.19
11.29
12.86
13.99
14.74
15.27
15.72
16.25
16.87
17.50
17.99
18.22
18.13
17.73
17.09
16.26
15.30
14.29
13.30
12.37
11.53
10.72
9.88
8.94
7.88
6.70
5.42
4.10
2.82
1.60
0.43
-0.76
-2.10
-3.68
-5.51
-7.44
-9.25
-10.69
-11.67
-12.27
-12.72
-13.26
-14.08
-15.23
-16.64
-18.16
-19.54
-20.47
-20.63
-19.75
-17.68
-14.48
-10.43
-5.98
-1.60
2.31
5.52
7.98
9.76
10.97
11.69
12.00
11.95
11.66
11.29
10.98
10.82
10.78
10.74
10.54
10.10
9.45
8.73
8.07
7.52
7.04
6.54
5.96
5.30
4.63
4.02
3.51
3.11
2.78
2.46
2.11
1.71
1.27
0.84
0.51
0.33
0.32
0.42
0.55
0.61
0.55
0.34
-0.02
-0.55
-1.19
-1.84
-2.27
-2.24
-1.57
-0.26
1.50
3.38
5.03
6.20
6.85
7.09
7.10
7.05
7.01
6.95
6.79
6.50
6.13
5.80
5.60
5.54
5.52
5.43
5.19
4.81
4.40
4.04
3.75
3.49
3.18
2.76
2.22
1.62
0.96
0.20
-0.73
-1.89
-3.28
-4.80
-6.33
-7.75
-8.96
-9.95
-10.72
-11.33
-11.81
-12.19
-12.51
-12.79
-13.10
-13.52
-14.12
-14.89
-15.71
-16.33
-16.48
-15.92
-14.59
-12.63
-10.32
-8.01
-5.94
-4.22
-2.83
-1.67
-0.68
0.12
0.68
0.93
0.90
0.66
0.37
0.17
0.15
0.33
0.62
0.94
1.15
1.18
1.00
0.66
0.22
-0.22
-0.59
-0.86
-1.02
-1.12
-1.26
-1.54
-2.09
-2.97
-4.16
-5.52
-6.86
-7.98
-8.78
-9.31
-9.68
-10.08
-10.68
-11.54
-12.67
-13.99
-15.24
-16.11
-16.20
-15.20
-12.99
-9.73
-5.84
-1.87
1.69
4.54
6.60
7.98
8.83
9.27
9.35
9.14
8.70
8.16
7.66
7.27
6.99
6.74
6.46
6.14
5.89
5.82
6.01
6.46
7.04
7.51
7.66
7.32
6.45
5.17
3.68
2.26
1.10
0.30
-0.20
-0.55
-0.94
-1.45
-2.10
-2.84
-3.66
-4.55
-5.51
-6.40
-7.00
-6.96
-6.04
-4.16
-1.52
1.51
4.53
7.20
9.36
11.03
12.29
13.28
14.10
14.79
15.31
15.56
15.47
15.01
14.28
13.41
12.53
11.64
10.64
9.38
7.77
5.86
3.82
1.88
0.21
-1.14
-2.25
-3.24
-4.21
-5.18
-6.11
-6.91
-7.51
-7.95
-8.33
-8.80
-9.45
-10.24
-11.06
-11.74
-12.16
-12.39
-12.62
-13.07
-13.85
-14.89
-15.93
-16.61
-16.67
-16.00
-14.68
-12.88
-10.77
-8.46
-6.00
-3.42
-0.80
1.71
4.02
6.03
7.76
9.25
10.56
11.72
12.70
13.44
13.88
13.97
13.67
13.06
12.29
11.57
11.10
10.95
11.04
11.12
10.89
10.15
8.83
7.08
5.14
3.29
1.70
0.41
-0.64
-1.56
-2.49
-3.45
-4.40
-5.27
-6.03
-6.73
-7.46
-8.35
-9.47
-10.82
-12.27
-13.67
-14.80
-15.47
-15.50
-14.78
-13.29
-11.15
-8.56
-5.75
-2.96
-0.33
2.11
4.35
6.38
8.15
9.59
10.65
11.33
11.69
11.80
11.71
11.45
11.02
10.43
9.77
9.10
8.53
8.07
7.65
7.16
6.50
5.63
4.61
3.57
2.59
1.74
1.03
0.43
-0.12
-0.68
-1.30
-2.02
-2.86
-3.76
-4.66
-5.49
-6.22
-6.84
-7.42
-8.02
-8.72
-9.58
-10.64
-11.87
-13.20
-14.40
-15.21
-15.34
-14.60
-13.02
-10.80
-8.27
-5.75
-3.42
-1.36
0.46
2.08
3.49
4.59
5.31
5.64
5.61
5.35
5.00
4.69
4.46
4.33
4.28
4.25
4.19
4.04
3.75
3.29
2.69
1.97
1.20
0.40
-0.42
-1.32
-2.34
-3.56
-5.01
-6.68
-8.52
-10.45
-12.36
-14.14
-15.63
-16.72
-17.36
-17.59
-17.63
-17.74
-18.15
-18.93
-19.91
-20.69
-20.76
-19.67
-17.11
-13.07
-7.84
-1.91
4.09
9.56
14.09
17.48
19.77
21.16
21.88
22.15
22.12
21.92
21.61
21.23
20.74
20.06
19.13
17.96
16.69
15.50
14.53
13.78
13.06
12.16
10.94
9.43
7.82
6.32
5.07
4.01
3.00
1.90
0.64
-0.68
-1.91
-2.90
-3.63
-4.20
-4.84
-5.77
-7.11
-8.84
-10.79
-12.69
-14.29
-15.36
-15.78
-15.52
-14.60
-13.05
-10.94
-8.43
-5.69
-2.98
-0.53
1.52
3.12
4.36
5.33
6.16
6.87
7.46
7.87
8.06
8.02
7.82
7.51
7.16
6.85
6.60
6.43
6.32
6.23
6.06
5.77
5.28
4.61
3.81
2.96
2.13
1.33
0.53
-0.33
-1.32
-2.44
-3.65
-4.87
-6.03
-7.04
-7.86
-8.53
-9.14
-9.84
-10.81
-12.17
-13.87
-15.71
-17.37
-18.48
-18.77
-18.12
-16.54
-14.15
-11.12
-7.63
-3.89
-0.12
3.49
6.77
9.60
11.88
13.55
14.60
15.08
15.10
14.86
14.55
14.31
14.21
14.19
14.20
14.18
14.10
13.95
13.72
13.34
12.75
11.95
10.97
9.92
8.91
8.02
7.25
6.49
5.59
4.40
2.85
1.04
-0.85
-2.62
-4.15
-5.42
-6.56
-7.73
-9.08
-10.64
-12.36
-14.10
-15.66
-16.83
-17.40
-17.21
-16.18
-14.36
-11.95
-9.24
-6.50
-3.96
-1.73
0.14
1.65
2.82
3.66
4.17
4.35
4.18
3.64
2.73
1.49
0.04
-1.43
-2.78
-3.91
-4.90
-5.95
-7.36
-9.37
-12.11
-15.47
-19.15
-22.75
-25.94
-28.59
-30.83
-33.01
-35.53
-38.63
-42.30
-46.24
-50.01
-53.30
-56.11
-58.76
-61.85
-65.96
-71.55
-78.70
-86.98
-95.14
-101.01
-101.76
-94.56
-77.53
-50.76
-16.58
20.81
56.47
86.07
106.91
118.28
121.14
117.52
109.83
100.40
91.16
83.41
77.69
73.82
71.08
68.57
65.56
61.68
56.94
51.62
46.09
40.71
35.77
31.50
28.05
25.45
23.56
22.07
20.50
18.30
14.99
10.36
4.55
-1.93
-8.27
-13.62
-17.37
-19.35
-19.92
-19.81
-19.90
-20.85
-22.95
-26.08
-29.72
-33.23
-35.91
-37.27
-37.08
-35.45
-32.75
-29.47
-25.97
-22.29
-18.09
-12.73
-5.63
3.46
14.22
25.73
36.75
45.95
52.32
55.27
54.76
51.21
45.40
38.27
30.74
23.48
16.82
10.62
4.48
-2.06
-9.16
-16.50
-23.31
-28.65
-31.87
-32.94
-32.54
-31.81
-31.85
-33.33
-36.18
-39.81
-43.47
-46.68
-49.47
-52.23
-55.36
-58.90
-62.34
-64.78
-65.21
-62.96
-57.90
-50.45
-41.33
-31.33
-21.04
-10.88
-1.11
7.99
16.04
22.57
27.06
29.20
29.07
27.18
24.47
21.98
20.56
20.60
21.97
24.14
26.44
28.35
29.62
30.23
30.33
30.08
29.55
28.74
27.60
26.10
24.26
22.20
20.08
18.05
16.26
14.72
13.30
11.74
9.72
6.90
3.13
-1.46
-6.34
-10.64
-13.33
-13.46
-10.52
-4.58
3.78
13.65
24.12
34.56
44.65
54.33
63.62
72.44
80.52
87.42
92.59
95.50
95.84
93.77
90.04
85.84
82.45
80.69
80.54
81.05
80.62
77.63
70.90
60.16
46.02
29.86
13.35
-2.03
-15.51
-27.31
-38.51
-50.54
-64.36
-79.88
-95.70
-109.64
-119.49
-123.81
-122.25
-115.41
-104.50
-90.91
-76.04
-61.20
-47.53
-35.76
-26.05
-17.89
-10.32
-2.43
6.25
15.44
24.21
31.42
36.23
38.51
38.92
38.65
39.03
40.96
44.74
49.95
55.70
61.00
65.00
67.22
67.48
65.72
61.89
55.80
47.37
36.84
25.02
13.24
3.07
-4.32
-8.65
-10.73
-12.12
-14.49
-18.84
-25.09
-32.23
-38.79
-43.50
-45.69
-45.34
-42.93
-39.18
-34.97
-31.34
-29.46
-30.40
-34.84
-42.71
-53.11
-64.48
-75.04
-83.24
-88.19
-89.74
-88.42
-85.14
-80.82
-76.17
-71.47
-66.63
-61.31
-55.23
-48.29
-40.75
-33.06
-25.64
-18.68
-11.99
-5.17
2.06
9.59
16.83
22.85
26.88
28.63
28.48
27.20
25.57
24.14
23.10
22.43
22.04
21.76
21.28
20.14
17.89
14.43
10.16
6.00
2.99
1.78
2.27
3.68
4.77
4.41
1.95
-2.59
-8.56
-14.97
-20.75
-24.98
-27.10
-26.87
-24.31
-19.59
-13.04
-5.15
3.45
11.96
19.63
25.92
30.62
33.84
35.87
36.99
37.37
37.10
36.29
35.19
34.22
33.84
34.39
35.91
38.11
40.46
42.40
43.53
43.71
42.97
41.45
39.23
36.26
32.47
27.76
22.16
15.83
9.12
2.55
-3.15
-7.20
-8.92
-7.94
-4.36
1.17
7.62
13.80
18.63
21.36
21.68
19.72
15.87
10.66
4.65
-1.57
-7.22
-11.30
-12.65
-10.43
-4.47
4.26
13.82
21.86
26.49
26.92
23.71
18.31
12.41
7.23
3.33
0.74
-0.70
-1.19
-1.06
-1.02
-2.16
-5.61
-11.76
-19.77
-27.51
-32.24
-31.75
-25.40
-14.42
-1.48
10.41
18.92
23.05
23.06
19.94
14.86
8.79
2.40
-3.83
-9.61
-14.82
-19.51
-23.97
-28.52
-33.46
-38.87
-44.55
-50.05
-54.73
-57.90
-58.96
-57.54
-53.69
-47.85
-40.82
-33.51
-26.70
-20.85
-15.98
-11.85
-8.11
-4.52
-1.03
2.25
5.17
7.66
9.78
11.60
13.15
14.38
15.12
15.23
14.68
13.58
12.12
10.56
9.04
7.65
6.38
5.17
3.96
2.65
1.10
-0.76
-2.87
-4.98
-6.64
-7.39
-6.91
-5.26
-2.81
-0.10
2.35
4.26
5.63
6.58
7.24
7.65
7.73
7.43
6.82
6.05
5.34
4.80
4.42
4.11
3.75
3.29
2.76
2.18
1.58
0.96
0.34
-0.20
-0.51
-0.46
0.00
0.79
1.68
2.45
2.90
2.98
2.71
2.24
1.71
1.22
0.84
0.53
0.16
-0.44
-1.41
-2.73
-4.19
-5.41
-5.92
-5.38
-3.65
-0.90
2.48
6.04
9.38
12.29
14.73
16.76
18.40
19.52
19.88
19.14
17.04
13.56
8.92
3.58
-1.95
-7.33
-12.47
-17.59
-23.14
-29.62
-37.38
-46.48
-56.55
-66.78
-76.11
-83.38
-87.72
-88.78
-86.86
-82.84
-77.89
-73.15
-69.43
-66.99
-65.58
-64.64
-63.56
-61.94
-59.83
-57.65
-56.01
-55.34
-55.59
-56.15
-55.96
-53.96
-49.45
-42.32
-33.02
-22.32
-10.96
0.53
11.80
22.56
32.44
40.95
47.64
52.31
55.13
56.65
57.63
58.86
60.96
64.22
68.62
73.75
79.00
83.70
87.30
89.57
90.55
90.43
89.34
87.33
84.35
80.41
75.76
70.81
66.09
61.91
58.31
55.00
51.51
47.43
42.57
37.07
31.38
26.15
21.97
19.21
17.84
17.51
17.66
17.77
17.58
17.06
16.34
15.48
14.38
12.75
10.36
7.09
3.12
-1.13
-5.23
-8.85
-11.93
-14.67
-17.40
-20.45
-24.01
-28.04
-32.36
-36.62
-40.46
-43.54
-45.60
-46.51
-46.28
-45.07
-43.12
-40.76
-38.26
-35.86
-33.73
-31.99
-30.73
-30.05
-29.98
-30.48
-31.39
-32.43
-33.20
-33.27
-32.23
-29.75
-25.64
-19.91
-12.72
-4.45
4.36
13.06
20.97
27.57
32.67
36.43
39.40
42.32
45.87
50.42
55.84
61.53
66.51
69.66
70.03
67.08
60.89
52.18
42.10
31.93
22.65
14.77
8.23
2.59
-2.60
-7.61
-12.43
-16.84
-20.56
-23.33
-24.93
-25.09
-23.49
-19.87
-14.20
-6.88
1.30
9.28
16.08
21.08
24.15
25.62
26.06
26.08
26.04
26.08
26.14
26.06
25.77
25.39
25.29
25.95
27.74
30.72
34.43
37.96
40.04
39.31
34.70
25.80
13.17
-1.63
-16.42
-28.98
-37.70
-42.04
-42.42
-39.94
-35.83
-31.13
-26.65
-23.06
-20.88
-20.41
-21.49
-23.46
-25.32
-26.12
-25.34
-23.06
-19.80
-16.33
-13.42
-11.68
-11.51
-13.02
-15.95
-19.61
-23.05
-25.27
-25.58
-23.76
-20.04
-14.93
-9.04
-2.94
2.87
7.91
11.72
13.97
14.50
13.38
10.89
7.40
3.35
-0.84
-4.79
-8.18
-10.75
-12.43
-13.37
-13.90
-14.49
-15.62
-17.59
-20.39
-23.70
-26.94
-29.49
-30.97
-31.35
-30.98
-30.40
-30.03
-30.02
-30.05
-29.43
-27.34
-23.03
-16.15
-7.00
3.27
12.71
18.86
19.35
12.74
-0.78
-19.13
-38.79
-55.81
-67.00
-71.01
-68.46
-61.48
-52.68
-44.13
-36.96
-31.42
-27.37
-24.56
-22.76
-21.45
-19.63
-15.94
-9.28
0.53
12.30
23.66
31.85
34.81
31.95
24.34
14.30
4.67
-1.97
-3.86
-0.41
7.68
18.63
30.02
39.49
45.56
48.02
47.75
46.06
43.87
41.29
37.68
32.36
25.19
16.91
8.77
1.85
-3.42
-7.39
-10.68
-13.63
-15.97
-17.06
-16.42
-14.31
-11.82
-10.39
-11.17
-14.33
-19.00
-23.66
-26.81
-27.57
-25.96
-22.66
-18.59
-14.45
-10.59
-6.94
-3.30
0.56
4.70
9.01
13.24
17.16
20.62
23.59
26.19
28.51
30.53
32.08
32.89
32.75
31.67
29.89
27.86
26.04
24.66
23.63
22.56
20.96
18.50
15.18
11.44
7.89
5.20
3.75
3.61
4.53
6.10
7.95
9.77
11.37
12.63
13.41
13.61
13.25
12.49
11.70
11.36
11.86
13.26
15.23
17.12
18.22
18.03
16.55
14.17
11.55
9.23
7.45
6.13
5.04
3.97
2.86
1.82
0.97
0.38
-0.01
-0.32
-0.61
-0.85
-1.00
-0.99
-0.83
-0.60
-0.36
-0.17
-0.05
-0.03
-0.16
-0.55
-1.30
-2.46
-3.98
-5.63
-7.08
-7.96
-8.04
-7.27
-5.92
-4.42
-3.27
-2.81
-3.10
-3.87
-4.69
-5.07
-4.74
-3.68
-2.10
-0.42
0.98
1.83
2.03
1.72
1.23
0.90
1.01
1.66
2.71
3.85
4.70
5.01
4.74
4.04
3.21
2.53
2.10
1.82
1.41
0.52
-1.06
-3.35
-6.12
-8.97
-11.51
-13.45
-14.65
-15.13
-14.96
-14.19
-12.83
-10.90
-8.49
-5.81
-3.21
-1.07
0.29
0.69
0.13
-1.24
-3.09
-5.00
-6.46
-7.03
-6.38
-4.51
-1.67
1.63
4.81
7.44
9.27
10.36
11.00
11.64
12.74
14.67
17.58
21.28
25.26
28.83
31.22
31.83
30.23
26.20
19.61
10.48
-0.95
-14.03
-27.59
-40.11
-50.02
-56.17
-58.23
-56.77
-53.05
-48.53
-44.48
-41.77
-40.85
-41.83
-44.42
-47.70
-50.06
-49.38
-43.80
-32.52
-16.47
1.71
18.51
30.73
36.62
36.23
31.15
23.66
15.85
9.08
3.93
0.51
-1.30
-1.64
-0.77
0.92
2.79
4.18
4.68
4.35
3.85
4.11
6.00
9.84
15.28
21.37
26.89
30.75
32.23
31.07
27.49
22.08
15.71
9.38
4.00
0.17
-1.97
-2.69
-2.52
-1.93
-1.24
-0.53
0.22
1.08
2.05
3.11
4.27
5.50
6.74
7.82
8.50
8.60
8.12
7.27
6.38
5.74
5.42
5.22
4.80
3.82
2.12
-0.27
-3.16
-6.24
-9.21
-11.77
-13.77
-15.34
-16.93
-19.35
-23.41
-29.55
-37.38
-45.49
-51.77
-54.16
-51.57
-44.55
-35.26
-26.77
-21.84
-21.90
-26.54
-33.83
-41.10
-45.94
-46.89
-43.67
-37.04
-28.44
-19.59
-12.08
-6.98
-4.54
-4.14
-4.46
-4.02
-1.68
2.90
9.34
16.74
24.16
30.88
36.44
40.60
43.13
43.79
42.49
39.38
34.98
30.07
25.44
21.62
18.71
16.43
14.38
12.28
10.19
8.47
7.60
7.96
9.54
11.95
14.57
16.70
17.82
17.68
16.34
14.15
11.66
9.44
7.97
7.49
7.90
8.87
9.95
10.75
11.05
10.80
10.04
8.82
7.15
5.05
2.59
-0.06
-2.70
-5.19
-7.58
-10.02
-12.66
-15.43
-17.99
-19.68
-19.72
-17.54
-13.02
-6.56
0.94
8.36
14.58
18.68
20.10
18.75
15.14
10.43
6.20
3.99
4.77
8.47
13.96
19.45
23.18
23.97
21.53
16.29
9.05
0.66
-8.22
-16.98
-25.09
-31.98
-37.14
-40.12
-40.69
-38.87
-34.99
-29.71
-23.89
-18.48
-14.20
-11.42
-10.07
-9.76
-9.99
-10.33
-10.57
-10.72
-10.88
-11.15
-11.54
-12.01
-12.47
-12.81
-12.84
-12.31
-10.92
-8.40
-4.66
0.05
5.04
9.31
11.87
12.06
9.84
5.75
0.74
-4.18
-8.34
-11.57
-14.06
-16.00
-17.36
-17.78
-16.91
-14.54
-10.67
-5.66
-0.23
4.89
9.32
13.16
16.90
20.94
25.46
30.43
35.36
39.27
41.09
40.27
37.02
32.25
26.86
21.66
17.47
14.92
14.20
15.09
17.16
19.49
20.77
19.02
11.73
-1.20
-16.35
-29.11
-37.02
-39.93
-40.79
-40.72
-40.52
-40.66
-41.21
-42.40
-43.59
-45.13
-47.12
-49.37
-51.15
-51.95
-51.38
-49.05
-44.88
-39.19
-32.57
-25.22
-16.97
-7.42
3.24
14.19
24.18
31.69
35.41
34.63
29.88
22.74
15.41
9.74
6.90
7.14
9.88
13.88
17.60
19.73
19.49
16.79
12.13
6.68
2.03
-0.21
1.19
6.75
16.37
29.36
44.59
60.41
74.81
85.61
90.95
89.89
82.75
71.17
57.57
44.37
33.25
24.85
18.98
14.99
12.30
10.55
9.57
9.15
8.97
8.61
7.66
5.88
3.36
0.43
-2.42
-4.74
-6.26
-6.98
-7.14
-7.07
-7.04
-7.17
-7.39
-7.51
-7.35
-6.90
-6.32
-5.88
-5.83
-6.30
-7.20
-8.31
-9.40
-10.35
-11.15
-11.95
-12.83
-13.80
-14.70
-15.29
-15.27
-14.49
-12.92
-10.72
-8.16
-5.47
-2.83
-0.34
1.97
4.05
5.80
7.11
7.90
8.17
8.00
7.51
6.79
5.87
4.68
3.16
1.23
-1.12
-3.89
-7.02
-10.42
-13.91
-17.24
-20.16
-22.49
-24.22
-25.54
-26.78
-28.20
-30.00
-32.23
-34.89
-37.93
-41.27
-44.78
-48.23
-51.31
-53.72
-55.28
-55.89
-55.53
-54.15
-51.59
-47.66
-42.29
-35.60
-27.95
-19.86
-11.76
-3.93
3.54
10.66
17.44
23.79
29.52
34.45
38.45
41.47
43.55
44.69
44.92
44.29
42.90
41.00
38.87
36.78
34.81
32.86
30.64
27.85
24.33
20.12
15.50
10.81
6.37
2.32
-1.40
-4.93
-8.43
-11.95
-15.47
-18.83
-21.86
-24.33
-25.90
-26.18
-24.74
-21.35
-16.09
-9.40
-1.95
5.55
12.59
18.88
24.25
28.49
31.32
32.40
31.62
29.21
25.82
22.32
19.52
17.86
17.33
17.50
17.77
17.61
16.75
15.15
12.91
10.15
6.88
3.11
-1.08
-5.45
-9.62
-13.27
-16.30
-18.94
-21.67
-24.91
-28.78
-32.98
-36.95
-40.13
-42.30
-43.55
-44.17
-44.35
-44.02
-42.88
-40.57
-36.86
-31.74
-25.36
-17.95
-9.74
-1.00
7.91
16.50
24.21
30.61
35.46
38.81
40.89
42.05
42.64
42.86
42.76
42.25
41.16
39.43
37.17
34.66
32.20
29.88
27.57
24.90
21.58
17.53
13.04
8.66
4.95
2.34
0.92
0.56
0.95
1.65
2.17
2.04
0.83
-1.73
-5.69
-10.87
-16.93
-23.47
-30.10
-36.58
-42.80
-48.69
-54.11
-58.68
-61.77
-62.62
-60.61
-55.56
-47.97
-38.87
-29.60
-21.26
-14.43
-9.09
-4.72
-0.70
3.41
7.74
12.15
16.46
20.57
24.49
28.26
31.82
34.94
37.21
38.23
37.74
35.76
32.62
28.89
25.32
22.61
21.22
21.18
21.92
22.34
21.10
17.13
10.14
0.93
-8.75
-16.59
-20.27
-18.04
-9.14
5.97
25.52
46.63
65.81
79.77
86.31
84.87
76.68
64.21
50.25
37.16
26.42
18.68
14.10
12.64
14.03
17.69
22.51
27.00
29.67
29.55
26.57
21.51
15.57
9.81
4.74
0.28
-3.91
-8.04
-11.91
-15.00
-16.76
-17.04
-16.30
-15.54
-15.93
-18.41
-23.32
-30.22
-38.06
-45.40
-50.98
-53.98
-54.33
-52.55
-49.53
-46.05
-42.58
-39.18
-35.67
-31.92
-27.96
-24.02
-20.36
-17.09
-14.16
-11.42
-8.82
-6.56
-5.02
-4.59
-5.40
-7.19
-9.34
-11.07
-11.71
-10.95
-8.84
-5.79
-2.35
0.91
3.60
5.54
6.78
7.51
7.99
8.40
8.83
9.25
9.58
9.76
9.78
9.72
9.62
9.47
9.19
8.68
7.92
7.03
6.24
5.77
5.74
6.07
6.50
6.75
6.66
6.30
5.90
5.74
6.02
6.76
7.87
9.18
10.53
11.83
13.01
13.98
14.64
14.92
14.77
14.15
13.09
11.61
9.80
7.84
6.03
4.69
4.08
4.25
5.04
6.20
7.51
8.91
10.48
12.31
14.27
15.99
16.93
16.63
14.87
11.78
7.83
3.62
-0.28
-3.40
-5.48
-6.42
-6.33
-5.53
-4.50
-3.80
-3.87
-4.88
-6.62
-8.57
-10.09
-10.66
-10.14
-8.83
-7.36
-6.46
-6.61
-7.88
-9.95
-12.24
-14.21
-15.57
-16.27
-16.36
-15.73
-13.95
-10.40
-4.60
3.39
12.85
22.52
31.11
37.73
42.22
44.91
46.24
46.28
44.56
40.27
32.80
21.99
8.27
-7.59
-24.71
-42.21
-59.12
-74.27
-86.23
-93.62
-95.69
-92.87
-86.76
-79.58
-73.37
-69.16
-66.77
-65.10
-62.69
-58.67
-53.29
-47.77
-43.86
-43.14
-46.59
-54.25
-65.15
-76.92
-86.77
-92.40
-92.60
-87.32
-77.64
-65.46
-52.89
-41.63
-31.48
-21.57
-11.26
-0.53
10.35
20.93
30.58
38.60
44.27
48.52
52.06
54.57
55.13
53.57
51.12
49.87
51.89
58.34
70.96
89.54
111.47
133.09
152.00
168.07
182.67
197.31
199.97
182.95
148.27
105.43
62.92
25.11
-6.22
-30.58
-48.45
-61.08
-68.05
-69.20
-65.55
-59.03
-51.31
-43.43
-36.14
-30.17
-26.12
-22.73
-18.94
-14.81
-11.42
-9.64
-9.68
-11.16
-13.53
-16.29
-18.32
-19.10
-19.05
-19.17
-19.86
-20.83
-21.45
-21.29
-20.19
-18.04
-15.20
-12.52
-10.88
-10.75
-11.93
-13.66
-15.06
-15.47
-14.44
-11.81
-7.82
-3.08
2.18
7.35
11.53
13.97
14.51
13.72
12.60
12.32
13.22
15.87
20.06
24.91
29.36
32.55
34.04
33.67
31.40
25.93
17.91
9.42
2.55
-1.88
-4.43
-6.16
-7.94
-10.13
-12.70
-14.59
-15.00
-13.71
-10.97
-7.32
-3.35
0.29
2.99
3.73
2.24
-1.08
-5.38
-9.67
-13.16
-15.29
-15.89
-16.05
-16.02
-15.86
-15.77
-16.09
-17.14
-18.99
-21.33
-22.05
-20.44
-16.71
-11.72
-6.60
-2.23
1.06
3.08
4.69
6.83
9.71
13.19
16.91
20.41
23.24
25.09
25.27
23.63
21.01
18.20
16.02
15.21
16.11
18.50
21.60
23.93
24.38
23.20
20.66
17.05
12.96
8.91
5.22
1.87
-2.01
-7.05
-12.57
-18.21
-24.00
-29.70
-34.91
-39.16
-38.39
-30.75
-22.43
-15.68
-9.58
-4.59
-1.19
0.49
0.77
0.38
-0.42
-1.32
-1.14
0.38
2.63
5.02
7.21
9.12
10.89
12.34
13.38
14.79
16.78
18.94
20.86
22.29
23.14
23.51
23.26
22.34
21.20
20.06
18.90
17.93
17.52
17.96
19.36
21.29
23.05
24.09
23.81
21.77
17.99
12.88
7.20
1.89
-2.20
-4.47
-4.80
-3.74
-2.46
-2.39
-4.65
-9.79
-17.48
-26.77
-36.35
-45.04
-52.00
-56.84
-59.50
-60.06
-58.65
-55.36
-50.34
-43.78
-35.99
-27.33
-18.18
-9.00
-0.35
7.08
12.55
15.42
15.41
12.66
7.75
1.57
-4.92
-10.87
-15.62
-18.76
-20.13
-19.79
-18.07
-15.47
-12.54
-9.77
-7.42
-5.52
-3.94
-2.50
-1.16
0.00
0.85
1.28
1.33
1.21
1.23
1.64
2.62
4.13
6.00
7.95
9.70
11.00
11.70
11.72
11.07
9.84
8.24
6.62
5.38
4.92
5.42
6.80
8.67
10.45
11.62
11.89
11.23
9.85
8.06
6.12
4.25
2.61
1.28
0.29
-0.46
-1.21
-2.20
-3.62
-5.45
-7.45
-9.28
-10.60
-11.20
-11.05
-10.32
-9.35
-8.61
-8.46
-9.05
-10.17
-11.31
-11.79
-11.06
-8.90
-5.54
-1.50
2.52
5.97
8.46
9.83
10.06
9.27
7.80
6.19
5.16
5.30
6.85
9.48
12.36
14.44
14.89
13.39
10.25
6.27
2.44
-0.37
-1.63
-1.16
0.80
3.76
7.02
9.93
12.05
13.32
14.01
14.60
15.51
16.90
18.59
20.14
21.11
21.22
20.54
19.43
18.38
17.74
17.52
17.31
16.38
14.00
9.74
3.70
-3.51
-10.96
-17.70
-23.06
-26.72
-28.71
-29.27
-28.74
-27.59
-26.31
-25.47
-25.46
-26.35
-27.67
-28.44
-27.44
-23.68
-16.84
-7.62
2.44
11.31
17.09
18.54
15.41
8.53
-0.42
-9.26
-15.85
-18.55
-16.70
-10.74
-2.13
7.19
15.35
21.18
24.42
25.61
25.60
25.10
24.49
23.76
22.72
21.19
18.99
15.90
11.65
6.03
-0.91
-8.66
-16.31
-22.80
-27.36
-29.76
-30.44
-30.28
-30.27
-31.13
-33.11
-35.82
-38.48
-40.04
-39.66
-36.87
-31.80
-25.01
-17.35
-9.62
-2.42
3.94
9.32
13.70
17.02
19.16
20.07
19.79
18.57
16.85
15.10
13.64
12.49
11.35
9.81
7.59
4.73
1.62
-1.28
-3.64
-5.49
-7.14
-9.04
-11.52
-14.73
-18.66
-23.22
-28.32
-33.88
-39.71
-45.48
-50.69
-54.71
-56.96
-56.99
-54.58
-49.73
-42.65
-33.72
-23.43
-12.31
-0.95
10.13
20.51
29.93
38.32
45.76
52.41
58.51
64.30
70.00
75.80
81.69
87.31
91.81
94.00
92.62
86.87
76.87
63.80
49.59
36.38
25.72
18.15
13.09
9.30
5.39
0.43
-5.84
-13.07
-20.60
-27.82
-34.39
-40.22
-45.39
-49.93
-53.77
-56.77
-58.93
-60.44
-61.65
-62.81
-63.87
-64.28
-63.23
-59.93
-54.04
-45.85
-36.23
-26.39
-17.49
-10.35
-5.31
-2.29
-0.86
-0.49
-0.63
-0.83
-0.77
-0.26
0.76
2.22
3.94
5.66
7.11
8.10
8.61
8.84
9.23
10.37
12.83
17.00
22.86
29.89
37.18
43.64
48.29
50.55
50.37
48.14
44.52
40.23
35.86
31.79
28.21
25.09
22.24
19.34
16.05
12.06
7.25
1.64
-4.54
-10.90
-17.01
-22.40
-26.73
-29.76
-31.49
-32.03
-31.59
-30.36
-28.48
-25.99
-22.88
-19.05
-14.35
-8.60
-1.65
6.51
15.66
25.33
34.83
43.47
50.76
56.55
61.08
64.79
68.08
71.07
73.50
74.75
74.12
71.10
65.56
57.84
48.56
38.45
28.20
18.28
9.09
0.93
-5.96
-11.42
-15.55
-18.66
-21.34
-24.15
-27.50
-31.44
-35.65
-39.64
-42.90
-45.17
-46.46
-46.99
-47.09
-46.95
-46.59
-45.76
-44.00
-40.79
-35.66
-28.41
-19.23
-8.80
1.78
11.24
18.41
22.55
23.56
21.90
18.45
14.26
10.23
7.01
4.90
3.87
3.59
3.57
3.24
2.12
-0.08
-3.42
-7.80
-13.06
-19.01
-25.50
-32.29
-39.05
-45.36
-50.88
-55.38
-58.79
-61.07
-62.01
-61.17
-57.91
-51.71
-42.52
-31.03
-18.70
-7.46
0.76
4.63
3.83
-0.80
-7.50
-14.19
-19.05
-21.12
-20.40
-17.63
-13.83
-9.75
-5.69
-1.48
3.24
8.84
15.51
23.36
32.39
42.47
53.17
63.74
73.22
80.80
86.22
89.76
92.02
93.39
93.64
91.93
87.25
79.04
67.57
53.93
39.60
25.76
12.98
1.15
-10.11
-21.10
-31.77
-41.81
-50.91
-58.89
-65.75
-71.57
-76.35
-80.06
-82.80
-84.98
-87.38
-90.88
-96.13
-103.17
-111.31
-119.34
-125.93
-130.05
-131.24
-129.59
-125.50
-119.39
-111.51
-101.84
-90.22
-76.59
-61.09
-44.23
-26.65
-9.05
8.04
24.22
39.20
52.61
63.97
72.83
78.90
82.26
83.35
82.86
81.46
79.60
77.42
74.85
71.76
68.12
64.05
59.71
55.22
50.57
45.70
40.62
35.45
30.50
26.11
22.58
20.08
18.61
18.06
18.18
18.65
19.17
19.51
19.66
19.83
20.31
21.31
22.79
24.39
25.56
25.70
24.48
21.91
18.42
14.69
11.44
9.12
7.81
7.05
6.09
4.13
0.57
-4.74
-11.54
-19.28
-27.33
-35.21
-42.65
-49.66
-56.47
-63.36
-70.52
-77.83
-84.68
-89.96
-92.13
-89.56
-80.94
-65.70
-44.35
-18.50
9.29
36.09
59.23
76.86
88.37
94.35
96.25
95.89
94.93
94.40
94.63
95.32
95.78
95.25
93.12
89.12
83.35
76.35
68.96
62.08
56.39
52.01
48.45
44.84
40.33
34.58
28.02
21.78
17.29
15.72
17.45
21.79
27.04
30.89
31.08
26.07
15.56
0.64
-16.62
-33.81
-48.91
-60.85
-69.55
-75.67
-80.12
-83.68
-86.74
-89.31
-91.14
-91.97
-91.65
-90.31
-88.31
-86.25
-84.70
-84.04
-84.24
-84.78
-84.76
-83.13
-78.99
-71.79
-61.51
-48.68
-34.25
-19.44
-5.45
6.74
16.52
23.76
28.70
31.75
33.32
33.66
32.87
30.99
28.15
24.61
20.82
17.20
14.04
11.37
8.91
6.21
2.85
-1.37
-6.29
-11.43
-16.12
-19.84
-22.37
-24.02
-25.51
-27.81
-31.70
-37.56
-45.06
-53.20
-60.47
-65.11
-65.53
-60.72
-50.49
-35.57
-17.44
2.07
21.24
38.81
54.08
66.79
76.82
84.04
88.26
89.39
87.62
83.42
77.47
70.47
62.93
55.20
47.49
40.00
32.99
26.72
21.45
17.24
13.97
11.26
8.61
5.48
1.51
-3.36
-8.76
-13.94
-17.87
-19.53
-18.20
-13.65
-6.21
3.37
14.11
25.04
35.37
44.46
51.82
57.07
59.92
60.22
58.06
53.74
47.82
40.98
33.89
27.16
21.25
16.45
12.93
10.73
9.82
10.10
11.42
13.60
16.41
19.56
22.67
25.26
26.91
27.27
26.24
23.92
20.63
16.73
12.56
8.37
4.30
0.45
-3.07
-6.15
-8.64
-10.43
-11.47
-11.79
-11.56
-10.99
-10.32
-9.69
-9.14
-8.61
-7.96
-7.11
-6.00
-4.72
-3.39
-2.26
-1.54
-1.45
-2.05
-3.28
-4.93
-6.76
-8.53
-10.12
-11.53
-12.86
-14.23
-15.77
-17.59
-19.80
-22.47
-25.62
-29.13
-32.70
-35.83
-37.92
-38.40
-36.88
-33.33
-28.07
-21.73
-15.05
-8.72
-3.26
1.04
4.02
5.68
6.12
5.57
4.47
3.35
2.76
3.00
4.07
5.58
7.01
7.86
7.91
7.27
6.24
5.17
4.22
3.41
2.61
1.68
0.50
-0.98
-2.81
-4.99
-7.36
-9.53
-10.82
-10.48
-7.92
-3.07
3.47
10.62
17.13
22.03
24.90
25.84
25.32
23.89
21.98
19.87
17.77
15.84
14.20
12.87
11.70
10.43
8.83
6.79
4.40
1.97
-0.11
-1.45
-1.78
-1.03
0.66
2.88
5.11
6.77
7.47
7.12
6.01
4.73
3.95
4.23
5.83
8.67
12.42
16.66
20.97
25.13
29.14
33.17
37.53
42.45
47.90
53.47
58.33
61.47
61.95
59.26
53.51
45.40
36.04
26.58
17.93
10.46
4.06
-1.80
-7.84
-14.67
-22.55
-31.32
-40.40
-49.02
-56.40
-61.93
-65.29
-66.44
-65.60
-63.18
-59.69
-55.67
-51.47
-47.31
-43.13
-38.78
-34.14
-29.20
-24.10
-19.15
-14.65
-10.86
-7.96
-5.99
-4.93
-4.68
-5.05
-5.83
-6.82
-7.91
-9.08
-10.34
-11.63
-12.79
-13.52
-13.49
-12.47
-10.43
-7.60
-4.39
-1.28
1.26
2.90
3.41
2.77
1.09
-1.34
-4.15
-6.91
-9.25
-10.94
-11.93
-12.24
-11.92
-10.94
-9.23
-6.71
-3.47
0.15
3.60
6.22
7.42
6.85
4.44
0.47
-4.51
-9.73
-14.29
-17.39
-18.48
-17.45
-14.70
-11.10
-7.68
-5.35
-4.68
-5.73
-8.18
-11.47
-15.02
-18.39
-21.39
-24.04
-26.59
-29.43
-32.95
-37.47
-43.00
-49.20
-55.41
-60.77
-64.58
-66.51
-66.72
-65.64
-63.69
-60.93
-57.01
-51.37
-43.57
-33.69
-22.34
-10.46
1.03
11.52
20.80
28.91
35.96
41.94
46.74
50.20
52.23
52.88
52.31
50.79
48.58
45.95
43.09
40.13
37.07
33.86
30.42
26.77
23.02
19.33
15.88
12.69
9.67
6.70
3.67
0.56
-2.50
-5.37
-7.93
-10.13
-12.01
-13.53
-14.60
-14.99
-14.46
-12.82
-10.08
-6.45
-2.32
1.86
5.68
8.87
11.35
13.17
14.43
15.25
15.67
15.75
15.54
15.16
14.72
14.35
14.14
14.08
14.10
14.08
13.92
13.52
12.82
11.81
10.48
8.87
7.08
5.27
3.67
2.52
1.99
2.03
2.41
2.77
2.71
1.96
0.43
-1.77
-4.39
-7.14
-9.65
-11.63
-12.87
-13.32
-13.14
-12.62
-12.10
-11.77
-11.64
-11.58
-11.40
-10.97
-10.26
-9.29
-8.04
-6.48
-4.56
-2.32
0.10
2.49
4.63
6.28
7.18
7.01
5.46
2.36
-2.08
-7.28
-12.34
-16.38
-18.84
-19.68
-19.36
-18.57
-18.00
-18.07
-18.84
-20.00
-21.00
-21.12
-19.72
-16.40
-11.18
-4.44
3.19
11.10
18.93
26.71
34.75
43.35
52.40
61.22
68.59
73.17
74.13
71.69
67.20
62.80
60.78
62.98
70.38
82.86
99.03
116.25
130.81
138.78
137.13
124.98
104.06
78.24
52.07
29.13
10.91
-3.19
-14.92
-25.98
-37.13
-48.11
-58.08
-66.25
-72.26
-76.13
-78.11
-78.28
-76.55
-72.74
-66.86
-59.34
-51.11
-43.35
-37.08
-32.77
-30.22
-28.77
-27.69
-26.56
-25.49
-24.87
-25.13
-26.37
-28.25
-30.11
-31.22
-31.02
-29.32
-26.28
-22.34
-18.08
-14.02
-10.62
-8.14
-6.68
-6.16
-6.41
-7.14
-8.04
-8.91
-9.64
-10.30
-11.04
-12.02
-13.37
-15.09
-17.09
-19.21
-21.26
-23.15
-24.83
-26.33
-27.70
-28.97
-30.13
-31.09
-31.81
-32.30
-32.69
-33.20
-34.06
-35.44
-37.27
-39.27
-41.01
-42.00
-41.83
-40.26
-37.25
-32.98
-27.78
-22.06
-16.33
-11.04
-6.58
-3.14
-0.71
1.00
2.42
3.99
5.99
8.45
11.08
13.47
15.30
16.56
17.58
18.95
21.18
24.51
28.83
33.72
38.76
43.73
48.55
53.23
57.65
61.44
64.14
65.42
65.25
64.05
62.46
61.10
60.35
60.25
60.56
60.95
61.11
60.81
59.84
57.99
55.03
50.75
45.07
38.20
30.56
22.79
15.47
9.00
3.50
-1.21
-5.41
-9.39
-13.28
-17.02
-20.44
-23.32
-25.54
-27.15
-28.36
-29.51
-30.87
-32.50
-34.24
-35.67
-36.36
-36.04
-34.75
-32.87
-30.98
-29.57
-28.84
-28.63
-28.42
-27.66
-25.97
-23.32
-20.08
-16.72
-13.63
-10.92
-8.39
-5.70
-2.44
1.96
8.23
17.21
29.36
44.26
60.29
74.87
85.30
89.78
87.98
80.97
70.44
57.95
44.51
30.84
17.73
6.26
-2.54
-8.34
-11.85
-14.66
-18.44
-24.15
-31.55
-39.44
-46.20
-50.59
-52.14
-51.34
-49.39
-47.81
-47.94
-50.45
-55.03
-60.39
-64.64
-65.87
-62.87
-55.58
-45.23
-33.99
-24.30
-18.02
-15.82
-16.86
-19.13
-20.26
-18.40
-13.00
-4.91
4.10
12.18
18.09
21.55
22.99
23.10
22.41
21.17
19.51
17.66
16.09
15.30
15.64
16.97
18.65
19.74
19.42
17.28
13.55
8.93
4.36
0.69
-1.63
-2.55
-2.37
-1.57
-0.58
0.31
0.97
1.44
1.81
2.14
2.44
2.66
2.71
2.54
2.15
1.60
1.02
0.49
0.08
-0.28
-0.74
-1.53
-2.78
-4.53
-6.71
-9.17
-11.82
-14.60
-17.51
-20.49
-23.38
-25.93
-27.88
-29.05
-29.43
-29.17
-28.49
-27.64
-26.82
-26.15
-25.68
-25.40
-25.20
-24.97
-24.54
-23.86
-22.97
-22.07
-21.41
-21.16
-21.33
-21.77
-22.18
-22.33
-22.05
-21.31
-20.12
-18.37
-15.80
-11.99
-6.52
0.89
10.25
21.21
33.11
45.06
56.14
65.52
72.67
77.47
80.16
81.21
81.09
80.03
77.85
73.97
67.58
57.84
44.31
27.27
7.98
-11.37
-28.06
-39.64
-44.75
-43.67
-38.20
-30.86
-23.94
-18.68
-15.23
-13.09
-11.90
-11.81
-13.24
-16.39
-20.68
-24.78
-27.08
-26.44
-22.55
-16.05
-8.19
-0.34
6.29
10.90
13.16
13.32
12.09
10.42
8.97
7.77
6.12
2.95
-2.48
-10.03
-18.55
-26.31
-31.75
-34.14
-33.78
-31.73
-29.20
-27.03
-25.46
-24.27
-23.13
-21.92
-20.78
-19.96
-19.60
-19.55
-19.45
-18.89
-17.70
-16.00
-14.14
-12.55
-11.46
-10.86
-10.59
-10.39
-10.09
-9.59
-8.92
-8.03
-6.87
-5.34
-3.42
-1.21
1.05
2.85
3.53
2.43
-0.86
-6.26
-13.09
-20.24
-26.53
-31.15
-33.84
-34.93
-34.92
-34.17
-32.64
-30.07
-26.26
-21.27
-15.49
-9.43
-3.54
1.95
7.07
11.86
16.13
19.46
21.36
21.60
20.33
18.04
15.51
13.67
13.35
14.79
17.57
20.81
23.54
24.94
24.61
22.71
20.27
18.72
19.00
21.13
24.28
27.25
28.89
28.51
26.11
22.54
19.09
16.78
16.28
18.30
23.69
32.86
44.91
55.31
58.44
52.16
38.83
22.94
8.80
-0.99
-6.19
-8.40
-9.63
-10.65
-11.09
-9.60
-5.76
-0.22
5.54
9.81
11.27
9.67
6.22
3.20
2.92
6.80
14.76
25.65
37.17
46.47
51.09
50.00
43.83
34.37
23.70
13.60
5.29
-0.71
-4.36
-5.89
-5.65
-4.31
-2.87
-2.59
-4.50
-9.02
-16.05
-25.16
-35.71
-46.88
-57.77
-67.33
-74.61
-78.87
-79.79
-77.59
-72.86
-66.23
-58.11
-48.51
-37.13
-23.67
-8.13
8.90
26.16
41.97
54.72
63.34
67.75
68.82
68.02
66.83
66.12
65.89
65.48
63.99
60.89
56.22
50.49
44.27
37.78
30.80
22.81
13.51
3.03
-7.99
-18.65
-28.17
-36.05
-42.12
-46.31
-48.50
-48.47
-46.01
-41.13
-34.22
-26.06
-17.71
-10.22
-4.47
-0.88
0.62
0.57
-0.25
-1.09
-1.47
-1.35
-0.99
-0.83
-1.26
-2.44
-4.30
-6.66
-9.28
-11.97
-14.60
-17.08
-19.37
-21.39
-23.03
-24.12
-24.51
-24.09
-22.87
-20.96
-18.65
-16.28
-14.23
-12.81
-12.17
-12.19
-12.42
-12.07
-10.15
-5.75
1.59
11.68
23.61
35.95
47.16
55.98
61.72
64.22
63.72
60.72
55.81
49.66
43.03
36.70
31.26
27.00
23.79
21.17
18.62
15.72
12.39
8.82
5.36
2.33
-0.10
-1.95
-3.35
-4.49
-5.52
-6.53
-7.56
-8.64
-9.80
-11.13
-12.70
-14.50
-16.39
-18.07
-19.07
-18.94
-17.37
-14.35
-10.22
-5.59
-1.16
2.47
4.96
6.28
6.59
6.14
5.15
3.82
2.30
0.76
-0.63
-1.65
-2.19
-2.24
-1.94
-1.57
-1.48
-1.96
-3.18
-5.07
-7.34
-9.58
-11.40
-12.62
-13.32
-13.84
-14.66
-16.21
-18.72
-22.15
-26.14
-30.04
-32.97
-34.04
-32.52
-28.17
-21.35
-13.00
-4.40
3.13
8.68
11.82
12.64
11.59
9.19
5.97
2.32
-1.49
-5.29
-8.98
-12.54
-15.96
-19.22
-22.32
-25.25
-28.07
-30.93
-34.01
-37.45
-41.26
-45.32
-49.39
-53.28
-56.95
-60.49
-64.10
-67.99
-72.24
-76.76
-81.28
-85.23
-87.76
-87.72
-83.84
-75.06
-60.92
-41.88
-19.30
4.84
28.46
49.89
68.17
82.97
94.34
102.40
107.16
108.67
107.15
103.22
97.78
91.83
86.16
81.11
76.59
72.25
67.67
62.66
57.18
51.32
45.17
38.73
31.96
24.91
17.80
11.10
5.36
1.04
-1.71
-3.15
-3.80
-4.17
-4.39
-3.99
-2.07
2.34
9.74
19.89
31.75
43.84
54.72
63.34
69.15
72.05
72.19
69.87
65.49
59.60
52.78
45.57
38.35
31.30
24.44
17.73
11.20
4.98
-0.70
-5.57
-9.34
-11.86
-13.16
-13.55
-13.59
-13.90
-14.97
-16.96
-19.66
-22.58
-25.19
-27.18
-28.51
-29.40
-30.14
-30.83
-31.36
-31.36
-30.41
-28.21
-24.77
-20.38
-15.55
-10.88
-6.87
-3.82
-1.78
-0.64
-0.16
-0.13
-0.37
-0.77
-1.27
-1.80
-2.32
-2.75
-3.02
-3.15
-3.25
-3.51
-4.11
-5.10
-6.36
-7.61
-8.50
-8.73
-8.20
-6.96
-5.19
-3.06
-0.72
1.73
4.10
6.18
7.69
8.42
8.36
7.74
6.92
6.25
5.87
5.66
5.28
4.32
2.50
-0.19
-3.53
-7.12
-10.53
-13.43
-15.67
-17.22
-18.15
-18.56
-18.52
-17.99
-16.84
-14.89
-12.02
-8.29
-3.97
0.47
4.51
7.78
10.11
11.55
12.27
12.39
11.96
10.87
8.96
6.09
2.21
-2.62
-8.22
-14.33
-20.62
-26.68
-32.10
-36.42
-39.27
-40.33
-39.53
-37.01
-33.19
-28.66
-24.03
-19.79
-16.19
-13.33
-11.14
-9.55
-8.52
-8.01
-7.94
-8.23
-8.74
-9.37
-10.04
-10.73
-11.44
-12.14
-12.74
-13.14
-13.27
-13.17
-13.00
-13.01
-13.44
-14.41
-15.88
-17.61
-19.28
-20.64
-21.59
-22.26
-22.88
-23.73
-25.01
-26.77
-28.84
-30.82
-32.04
-31.68
-28.93
-23.26
-14.70
-3.86
8.12
19.96
30.51
39.06
45.38
49.60
52.06
53.11
53.10
52.33
51.06
49.54
47.93
46.31
44.65
42.86
40.84
38.50
35.77
32.65
29.24
25.72
22.31
19.25
16.73
14.83
13.59
13.02
13.16
14.03
15.58
17.62
19.84
21.92
23.59
24.84
25.91
27.35
29.77
33.56
38.60
44.12
48.75
50.90
49.30
43.38
33.53
20.91
7.01
-6.73
-19.32
-30.23
-39.29
-46.62
-52.37
-56.74
-59.93
-62.05
-63.15
-63.23
-62.24
-60.20
-57.19
-53.43
-49.20
-44.83
-40.65
-37.02
-34.30
-32.86
-32.96
-34.73
-38.02
-42.37
-47.08
-51.31
-54.22
-55.20
-53.98
-50.65
-45.64
-39.56
-33.03
-26.56
-20.45
-14.81
-9.61
-4.77
-0.18
4.25
8.62
12.99
17.35
21.63
25.62
29.11
31.89
33.86
35.01
35.44
35.27
34.68
33.81
32.76
31.58
30.26
28.74
26.94
24.80
22.32
19.51
16.40
13.06
9.59
6.23
3.26
1.04
-0.20
-0.36
0.44
1.93
3.77
5.67
7.39
8.80
9.77
10.24
10.19
9.70
8.93
8.13
7.50
7.14
7.03
7.03
6.93
6.60
6.03
5.28
4.50
3.79
3.13
2.43
1.57
0.52
-0.65
-1.74
-2.59
-3.13
-3.48
-3.85
-4.52
-5.67
-7.31
-9.29
-11.32
-13.07
-14.25
-14.59
-13.94
-12.28
-9.73
-6.57
-3.18
0.05
2.87
5.15
6.95
8.38
9.51
10.30
10.68
10.57
10.04
9.27
8.48
7.85
7.43
7.13
6.82
6.41
5.88
5.26
4.60
3.87
3.03
2.03
0.86
-0.42
-1.70
-2.90
-4.02
-5.12
-6.33
-7.77
-9.46
-11.29
-13.04
-14.38
-14.96
-14.56
-13.05
-10.52
-7.15
-3.28
0.74
4.54
7.82
10.35
12.06
13.00
13.33
13.27
12.97
12.51
11.88
11.08
10.12
9.12
8.21
7.47
6.91
6.44
5.93
5.26
4.36
3.22
1.87
0.37
-1.22
-2.83
-4.43
-6.02
-7.69
-9.48
-11.44
-13.46
-15.25
-16.45
-16.68
-15.73
-13.59
-10.48
-6.75
-2.79
1.08
4.59
7.57
9.89
11.50
12.44
12.85
12.89
12.72
12.42
12.00
11.42
10.69
9.86
9.03
8.27
7.58
6.88
6.06
5.03
3.78
2.42
1.05
-0.24
-1.41
-2.50
-3.54
-4.63
-5.85
-7.30
-9.06
-11.15
-13.43
-15.66
-17.47
-18.50
-18.46
-17.21
-14.80
-11.42
-7.40
-3.12
1.01
4.65
7.57
9.68
11.01
11.73
12.00
12.00
11.83
11.54
11.14
10.61
9.96
9.24
8.52
7.87
7.32
6.88
6.47
5.98
5.32
4.42
3.24
1.83
0.26
-1.31
-2.76
-3.99
-4.98
-5.85
-6.79
-8.02
-9.66
-11.65
-13.68
-15.31
-16.09
-15.66
-13.92
-11.03
-7.30
-3.09
1.25
5.50
9.49
13.13
16.39
19.27
21.86
24.26
26.55
28.73
30.70
32.37
33.71
34.78
35.68
36.42
36.91
36.98
36.53
35.61
34.41
33.18
32.00
30.71
29.03
26.81
24.30
22.05
20.77
20.83
22.10
23.83
25.02
24.70
22.08
16.63
7.95
-4.10
-19.15
-35.95
-52.37
-65.79
-74.01
-76.17
-73.16
-67.29
-61.23
-56.98
-55.10
-54.88
-54.98
-54.35
-52.61
-50.03
-47.03
-43.72
-39.83
-34.96
-28.97
-22.36
-16.11
-11.34
-8.80
-8.53
-9.89
-11.84
-13.44
-14.13
-13.87
-13.01
-12.03
-11.26
-10.84
-10.74
-10.91
-11.38
-12.22
-13.49
-15.05
-16.52
-17.34
-16.94
-15.00
-11.51
-6.84
-1.57
3.76
8.79
13.47
17.94
22.35
26.73
30.82
34.20
36.46
37.39
37.10
36.02
34.71
33.68
33.19
33.24
33.57
33.76
33.35
32.00
29.52
25.95
21.52
16.52
11.30
6.09
1.01
-3.92
-8.77
-13.61
-18.58
-23.70
-28.96
-34.19
-39.12
-43.43
-46.78
-48.92
-49.74
-49.28
-47.65
-45.09
-41.83
-38.19
-34.48
-31.00
-27.99
-25.50
-23.42
-21.49
-19.45
-17.15
-14.68
-12.34
-10.49
-9.39
-9.03
-9.11
-9.18
-8.92
-8.19
-7.10
-5.84
-4.54
-3.21
-1.82
-0.42
0.79
1.50
1.41
0.40
-1.48
-4.01
-6.94
-9.97
-12.68
-14.51
-14.74
-12.68
-7.97
-0.66
8.79
19.68
31.33
43.11
54.39
64.42
72.32
77.23
78.61
76.54
71.78
65.61
59.44
54.44
51.32
50.23
50.94
52.90
55.47
57.93
59.58
59.77
58.01
54.05
47.93
39.99
30.76
20.84
10.80
1.05
-8.10
-16.46
-23.90
-30.34
-35.79
-40.36
-44.19
-47.35
-49.73
-51.02
-50.79
-48.73
-44.95
-39.96
-34.65
-29.91
-26.38
-24.20
-23.12
-22.68
-22.48
-22.23
-21.70
-20.62
-18.59
-15.30
-10.69
-5.14
0.55
5.38
8.51
9.48
8.34
5.61
1.99
-1.75
-4.98
-7.25
-8.37
-8.41
-7.70
-6.78
-6.23
-6.49
-7.68
-9.61
-11.80
-13.66
-14.64
-14.35
-12.62
-9.42
-4.89
0.67
6.85
13.06
18.68
23.07
25.80
26.65
25.75
23.43
20.14
16.33
12.34
8.43
4.75
1.43
-1.41
-3.69
-5.37
-6.53
-7.30
-7.88
-8.45
-9.10
-9.87
-10.72
-11.61
-12.55
-13.62
-14.97
-16.71
-18.86
-21.30
-23.72
-25.66
-26.58
-26.04
-23.82
-20.04
-15.09
-9.58
-4.07
0.99
5.37
8.98
11.82
13.87
15.13
15.67
15.66
15.39
15.12
15.05
15.22
15.52
15.78
15.79
15.40
14.53
13.18
11.42
9.40
7.32
5.37
3.69
2.27
0.98
-0.45
-2.30
-4.76
-7.82
-11.22
-14.47
-16.93
-17.96
-17.13
-14.34
-9.87
-4.32
1.58
7.17
12.00
15.86
18.74
20.70
21.80
22.10
21.72
20.80
19.57
18.24
16.92
15.66
14.40
13.06
11.59
9.99
8.26
6.49
4.77
3.24
2.02
1.17
0.64
0.19
-0.46
-1.61
-3.50
-6.16
-9.51
-13.28
-17.08
-20.39
-22.68
-23.49
-22.58
-20.06
-16.32
-11.88
-7.21
-2.63
1.75
5.89
9.68
12.91
15.32
16.79
17.42
17.53
17.50
17.59
17.80
17.89
17.48
16.33
14.36
11.72
8.70
5.56
2.52
-0.33
-2.94
-5.32
-7.61
-10.04
-12.94
-16.59
-21.02
-25.96
-30.88
-35.16
-38.30
-39.98
-40.10
-38.67
-35.73
-31.41
-25.98
-19.86
-13.59
-7.63
-2.29
2.39
6.47
10.01
12.95
15.19
16.61
17.29
17.48
17.54
17.80
18.39
19.25
20.10
20.61
20.56
19.86
18.64
17.19
15.78
14.60
13.68
12.92
12.18
11.34
10.31
9.05
7.55
5.84
4.08
2.62
1.97
2.66
5.01
8.94
13.92
19.12
23.62
26.75
28.21
28.09
26.71
24.50
21.85
19.06
16.35
13.91
11.92
10.45
9.48
8.82
8.15
7.13
5.51
3.29
0.73
-1.69
-3.50
-4.42
-4.46
-3.89
-3.12
-2.47
-2.07
-1.88
-1.78
-1.76
-1.91
-2.40
-3.30
-4.44
-5.43
-5.75
-5.04
-3.22
-0.61
2.31
5.02
7.20
8.76
9.81
10.39
10.48
9.89
8.38
5.81
2.23
-2.06
-6.55
-10.61
-13.69
-15.47
-15.98
-15.55
-14.69
-13.90
-13.48
-13.48
-13.77
-14.15
-14.46
-14.60
-14.60
-14.55
-14.64
-15.08
-16.11
-17.86
-20.35
-23.35
-26.46
-29.14
-30.79
-30.91
-29.19
-25.63
-20.54
-14.50
-8.23
-2.37
2.59
6.44
9.16
10.85
11.69
11.89
11.63
11.10
10.50
9.98
9.65
9.57
9.71
9.94
10.09
9.96
9.41
8.44
7.17
5.77
4.42
3.16
1.98
0.77
-0.60
-2.24
-4.23
-6.63
-9.37
-12.21
-14.68
-16.14
-15.97
-13.78
-9.61
-3.94
2.41
8.60
13.94
18.08
20.92
22.57
23.16
22.78
21.50
19.46
16.92
14.23
11.75
9.75
8.30
7.31
6.61
5.99
5.35
4.65
3.92
3.18
2.41
1.55
0.58
-0.52
-1.69
-2.89
-4.11
-5.44
-7.00
-8.90
-11.10
-13.28
-14.86
-15.13
-13.47
-9.66
-4.05
2.53
8.93
14.15
17.55
19.05
19.08
18.25
17.17
16.25
15.66
15.40
15.38
15.48
15.53
15.36
14.78
13.64
11.93
9.81
7.54
5.40
3.54
1.94
0.38
-1.39
-3.61
-6.36
-9.57
-13.06
-16.60
-19.98
-23.09
-25.86
-28.27
-30.30
-31.82
-32.63
-32.40
-30.83
-27.74
-23.20
-17.52
-11.23
-4.88
1.07
6.31
10.75
14.36
17.10
18.93
19.75
19.57
18.53
16.97
15.34
14.09
13.48
13.49
13.87
14.25
14.28
13.76
12.60
10.78
8.27
5.06
1.22
-3.02
-7.26
-11.05
-14.05
-16.19
-17.67
-18.83
-20.04
-21.47
-23.10
-24.71
-25.97
-26.52
-26.08
-24.48
-21.69
-17.86
-13.26
-8.30
-3.43
0.96
4.54
7.16
8.83
9.66
9.85
9.65
9.30
9.03
8.97
9.19
9.63
10.12
10.46
10.49
10.15
9.50
8.65
7.70
6.68
5.57
4.33
2.99
1.65
0.42
-0.66
-1.62
-2.53
-3.52
-4.66
-6.00
-7.55
-9.29
-11.13
-12.85
-14.14
-14.61
-13.94
-12.03
-9.02
-5.28
-1.30
2.48
5.70
8.16
9.74
10.42
10.29
9.53
8.40
7.20
6.15
5.38
4.85
4.46
4.12
3.77
3.41
3.05
2.65
2.15
1.44
0.46
-0.76
-2.10
-3.39
-4.53
-5.46
-6.29
-7.17
-8.26
-9.67
-11.38
-13.33
-15.40
-17.46
-19.27
-20.51
-20.75
-19.63
-16.98
-13.00
-8.18
-3.22
1.30
4.98
7.76
9.74
11.04
11.75
11.89
11.53
10.83
10.04
9.34
8.83
8.47
8.12
7.67
7.07
6.35
5.54
4.67
3.72
2.66
1.50
0.28
-0.92
-2.08
-3.24
-4.50
-5.92
-7.54
-9.29
-11.11
-12.96
-14.74
-16.30
-17.34
-17.41
-16.12
-13.29
-9.11
-4.15
0.86
5.23
8.54
10.71
11.96
12.58
12.83
12.83
12.61
12.17
11.57
10.92
10.34
9.94
9.69
9.50
9.20
8.68
7.89
6.90
5.82
4.77
3.81
2.91
2.03
1.11
0.10
-1.02
-2.31
-3.83
-5.66
-7.79
-10.06
-12.15
-13.63
-14.09
-13.26
-11.20
-8.21
-4.81
-1.57
1.09
2.97
4.07
4.54
4.58
4.36
3.93
3.32
2.54
1.65
0.79
0.15
-0.16
-0.12
0.16
0.49
0.67
0.57
0.18
-0.47
-1.32
-2.30
-3.32
-4.30
-5.13
-5.75
-6.16
-6.44
-6.77
-7.30
-8.16
-9.38
-10.93
-12.67
-14.37
-15.68
-16.16
-15.40
-13.16
-9.50
-4.83
0.21
4.94
8.83
11.64
13.38
14.23
14.43
14.12
13.43
12.44
11.29
10.14
9.18
8.53
8.21
8.08
7.95
7.63
7.04
6.17
5.11
3.89
2.50
0.87
-1.01
-3.08
-5.16
-7.05
-8.66
-10.06
-11.45
-13.10
-15.18
-17.68
-20.34
-22.74
-24.39
-24.86
-23.93
-21.62
-18.23
-14.23
-10.15
-6.49
-3.62
-1.73
-0.82
-0.76
-1.28
-2.13
-3.12
-4.16
-5.28
-6.57
-8.04
-9.60
-10.98
-11.84
-11.89
-11.00
-9.24
-6.82
-4.03
-1.17
1.54
3.96
5.98
7.49
8.39
8.56
7.87
6.20
3.42
-0.50
-5.46
-11.07
-16.61
-21.10
-23.51
-23.07
-19.55
-13.36
-5.52
2.67
9.99
15.51
18.81
19.87
19.00
16.71
13.61
10.34
7.52
5.66
5.07
5.77
7.49
9.75
11.91
13.41
13.82
13.00
10.99
7.99
4.18
-0.31
-5.39
-10.91
-16.51
-21.67
-25.80
-28.53
-29.86
-30.26
-30.50
-31.36
-33.35
-36.54
-40.54
-44.64
-48.04
-50.06
-50.29
-48.62
-45.29
-40.70
-35.33
-29.65
-24.00
-18.61
-13.66
-9.31
-5.73
-3.06
-1.34
-0.42
0.11
0.86
2.46
5.40
9.80
15.36
21.41
27.16
31.94
35.33
37.17
37.48
36.30
33.64
29.61
24.42
18.56
12.66
7.46
3.61
1.57
1.59
3.61
7.33
12.21
17.54
22.54
26.60
29.31
30.60
30.65
29.80
28.44
27.00
25.91
25.58
26.29
28.09
30.70
33.57
35.99
37.38
37.43
36.17
33.92
31.17
28.38
25.88
23.88
22.46
21.63
21.36
21.60
22.26
23.17
24.17
25.01
25.48
25.31
24.31
22.30
19.24
15.32
11.06
7.31
5.04
5.09
7.76
12.64
18.67
24.50
28.90
31.11
30.87
28.37
23.94
18.00
11.06
3.81
-2.88
-8.07
-11.07
-11.71
-10.41
-8.06
-5.65
-4.03
-3.66
-4.63
-6.68
-9.37
-12.06
-14.11
-14.91
-14.09
-11.57
-7.64
-2.80
2.33
7.16
11.31
14.55
16.82
18.25
19.09
19.66
20.32
21.31
22.76
24.58
26.55
28.33
29.64
30.28
30.21
29.61
28.77
28.05
27.77
28.10
29.08
30.60
32.43
34.31
35.97
37.24
38.05
38.45
38.56
38.44
38.01
37.02
35.04
31.70
26.77
20.36
12.86
4.85
-3.12
-10.76
-18.07
-25.35
-32.95
-41.05
-49.52
-57.87
-65.53
-72.01
-77.18
-81.22
-84.57
-87.66
-90.80
-94.04
-97.21
-99.86
-101.35
-100.96
-98.11
-92.61
-84.85
-75.74
-66.45
-58.01
-50.99
-45.41
-40.88
-36.80
-32.71
-28.32
-23.56
-18.52
-13.38
-8.40
-3.82
0.14
3.36
5.88
7.82
9.36
10.68
11.93
13.14
14.21
14.88
14.84
13.86
12.02
9.80
8.00
7.46
8.74
11.79
16.02
20.46
24.23
26.83
28.24
28.81
28.92
28.74
28.10
26.70
24.30
20.95
17.05
13.23
10.08
7.88
6.56
5.69
4.74
3.23
0.95
-2.08
-5.64
-9.45
-13.29
-17.02
-20.60
-24.06
-27.36
-30.44
-33.16
-35.32
-36.67
-36.94
-35.89
-33.43
-29.62
-24.75
-19.29
-13.76
-8.65
-4.28
-0.78
1.86
3.75
5.02
5.81
6.31
6.77
7.43
8.47
9.90
11.56
13.18
14.50
15.42
16.02
16.55
17.19
18.01
18.80
19.21
18.86
17.48
15.04
11.74
7.92
3.99
0.39
-2.45
-4.13
-4.38
-3.11
-0.53
2.89
6.46
9.53
11.58
12.43
12.18
11.13
9.59
7.83
5.96
4.06
2.20
0.50
-0.84
-1.65
-1.84
-1.45
-0.66
0.32
1.28
2.04
2.54
2.74
2.71
2.51
2.22
1.88
1.38
0.52
-0.98
-3.32
-6.51
-10.22
-13.82
-16.54
-17.68
-16.86
-14.11
-9.85
-4.71
0.64
5.67
10.02
13.45
15.77
16.85
16.65
15.26
12.99
10.29
7.68
5.64
4.41
4.03
4.24
4.68
5.00
4.98
4.60
4.05
3.57
3.38
3.53
3.88
4.16
4.03
3.20
1.52
-1.01
-4.15
-7.48
-10.41
-12.31
-12.69
-11.34
-8.45
-4.53
-0.24
3.78
7.09
9.52
11.06
11.81
11.86
11.30
10.24
8.87
7.41
6.08
5.07
4.48
4.28
4.32
4.37
4.15
3.44
2.17
0.43
-1.56
-3.62
-5.66
-7.74
-9.96
-12.38
-15.00
-17.74
-20.56
-23.42
-26.20
-28.60
-30.09
-30.11
-28.24
-24.50
-19.35
-13.56
-7.92
-2.98
1.01
4.06
6.25
7.65
8.28
8.18
7.46
6.33
5.02
3.70
2.48
1.37
0.32
-0.68
-1.62
-2.42
-3.01
-3.37
-3.51
-3.52
-3.55
-3.73
-4.15
-4.81
-5.64
-6.58
-7.59
-8.63
-9.65
-10.47
-10.74
-10.02
-7.90
-4.22
0.85
6.85
13.12
19.00
24.00
27.80
30.30
31.47
31.44
30.42
28.71
26.68
24.70
23.03
21.78
20.90
20.22
19.55
18.73
17.66
16.36
14.93
13.48
12.12
10.86
9.63
8.31
6.81
5.03
2.98
0.66
-1.91
-4.68
-7.59
-10.41
-12.84
-14.53
-15.16
-14.62
-13.01
-10.68
-8.03
-5.46
-3.24
-1.51
-0.35
0.22
0.19
-0.40
-1.46
-2.87
-4.50
-6.22
-7.93
-9.55
-11.03
-12.34
-13.52
-14.64
-15.81
-17.09
-18.52
-20.08
-21.70
-23.33
-24.98
-26.65
-28.45
-30.48
-32.90
-35.77
-39.09
-42.64
-46.03
-48.70
-50.13
-49.95
-48.06
-44.67
-40.19
-35.19
-30.19
-25.60
-21.71
-18.60
-16.22
-14.41
-12.95
-11.62
-10.20
-8.55
-6.50
-3.91
-0.65
3.34
8.03
13.18
18.45
23.42
27.74
31.17
33.56
34.85
34.96
33.84
31.47
27.95
23.49
18.39
13.06
7.90
3.40
0.02
-1.80
-1.75
0.25
3.98
9.00
14.74
20.61
26.13
30.94
34.79
37.53
39.14
39.67
39.35
38.41
37.15
35.80
34.47
33.19
31.85
30.23
28.09
25.20
21.43
16.80
11.44
5.58
-0.53
-6.62
-12.47
-17.86
-22.68
-26.89
-30.58
-33.90
-36.98
-39.81
-42.13
-43.47
-43.25
-40.97
-36.37
-29.60
-21.16
-11.85
-2.51
6.14
13.66
19.88
24.88
28.79
31.82
34.10
35.79
37.01
37.88
38.47
38.86
39.06
39.07
38.87
38.39
37.57
36.40
34.94
33.36
31.83
30.38
28.84
26.86
24.04
20.11
15.03
9.00
2.25
-4.97
-12.42
-19.73
-26.31
-31.40
-34.23
-34.43
-32.10
-27.90
-22.72
-17.38
-12.41
-8.05
-4.39
-1.55
0.24
0.75
-0.11
-2.18
-5.05
-8.19
-11.13
-13.58
-15.43
-16.73
-17.55
-18.03
-18.27
-18.40
-18.52
-18.66
-18.84
-19.01
-19.18
-19.44
-19.96
-20.94
-22.59
-25.05
-28.40
-32.66
-37.71
-43.24
-48.65
-53.07
-55.58
-55.41
-52.29
-46.51
-38.88
-30.40
-21.98
-14.24
-7.43
-1.56
3.47
7.71
11.16
13.79
15.67
16.92
17.71
18.24
18.65
19.05
19.52
20.14
20.92
21.81
22.62
23.12
23.07
22.40
21.24
19.83
18.41
17.08
15.68
13.93
11.49
8.15
3.87
-1.18
-6.61
-11.85
-16.21
-18.91
-19.38
-17.40
-13.21
-7.52
-1.17
5.03
10.62
15.39
19.31
22.28
24.10
24.56
23.64
21.60
19.06
16.88
15.91
16.82
19.88
24.93
31.47
38.80
46.19
53.08
59.09
63.98
67.51
69.39
69.27
66.88
62.14
55.28
46.79
37.30
27.41
17.56
8.01
-1.10
-9.69
-17.62
-24.69
-30.55
-34.80
-37.06
-37.08
-34.93
-31.00
-25.94
-20.48
-15.28
-10.78
-7.19
-4.56
-2.89
-2.13
-2.21
-3.02
-4.34
-5.89
-7.35
-8.45
-9.01
-9.01
-8.62
-8.13
-7.84
-7.92
-8.37
-9.03
-9.70
-10.31
-10.99
-11.96
-13.44
-15.43
-17.75
-20.09
-22.21
-24.05
-25.83
-27.86
-30.40
-33.51
-36.97
-40.31
-42.92
-44.19
-43.71
-41.35
-37.33
-32.17
-26.50
-20.91
-15.72
-10.98
-6.59
-2.44
1.38
4.61
6.95
8.22
8.56
8.34
8.02
7.94
8.16
8.54
8.83
8.83
8.53
8.04
7.48
6.90
6.22
5.31
4.10
2.60
0.93
-0.78
-2.42
-3.94
-5.31
-6.51
-7.53
-8.43
-9.31
-10.32
-11.65
-13.43
-15.66
-18.20
-20.74
-22.80
-23.85
-23.40
-21.14
-17.11
-11.66
-5.42
0.91
6.77
11.87
16.14
19.71
22.67
25.04
26.73
27.66
27.82
27.33
26.47
25.51
24.65
23.97
23.38
22.73
21.90
20.89
19.80
18.77
17.90
17.18
16.46
15.54
14.24
12.47
10.32
7.91
5.40
2.83
0.23
-2.44
-5.15
-7.86
-10.50
-13.07
-15.67
-18.41
-21.34
-24.30
-26.92
-28.64
-28.90
-27.33
-23.92
-19.01
-13.17
-7.01
-1.05
4.42
9.28
13.49
17.01
19.77
21.75
23.01
23.70
24.03
24.18
24.22
24.16
23.97
23.62
23.14
22.59
22.02
21.42
20.76
20.00
19.12
18.16
17.19
16.25
15.36
14.49
13.55
12.49
11.29
10.03
8.80
7.73
6.92
6.37
6.07
5.88
5.65
5.21
4.40
3.18
1.64
0.00
-1.43
-2.37
-2.71
-2.51
-2.00
-1.47
-1.13
-1.06
-1.23
-1.53
-1.90
-2.29
-2.72
-3.20
-3.66
-3.96
-3.93
-3.38
-2.26
-0.66
1.14
2.81
4.06
4.80
5.11
5.22
5.31
5.45
5.53
5.36
4.76
3.69
2.20
0.42
-1.52
-3.53
-5.53
-7.43
-9.21
-10.87
-12.53
-14.36
-16.54
-19.17
-22.14
-25.09
-27.50
-28.79
-28.54
-26.63
-23.28
-19.00
-14.39
-9.97
-6.10
-2.87
-0.29
1.69
3.06
3.77
3.78
3.11
1.85
0.20
-1.64
-3.44
-5.08
-6.51
-7.72
-8.76
-9.63
-10.29
-10.70
-10.80
-10.58
-10.12
-9.58
-9.12
-8.91
-9.03
-9.45
-10.10
-10.86
-11.62
-12.32
-12.97
-13.63
-14.40
-15.36
-16.62
-18.23
-20.21
-22.41
-24.52
-26.06
-26.47
-25.31
-22.41
-17.95
-12.40
-6.37
-0.42
5.06
9.87
13.96
17.30
19.83
21.51
22.34
22.43
22.01
21.35
20.72
20.30
20.14
20.16
20.23
20.20
19.96
19.50
18.86
18.13
17.35
16.54
15.67
14.71
13.63
12.47
11.31
10.22
9.25
8.42
7.73
7.16
6.67
6.18
5.58
4.70
3.40
1.69
-0.21
-1.90
-2.87
-2.73
-1.27
1.38
4.83
8.53
11.93
14.59
16.28
16.90
16.56
15.40
13.63
11.43
8.96
6.38
3.81
1.41
-0.67
-2.28
-3.35
-3.90
-4.05
-4.00
-3.94
-4.02
-4.30
-4.76
-5.35
-6.06
-6.90
-7.95
-9.27
-10.86
-12.63
-14.46
-16.17
-17.67
-18.93
-20.02
-21.05
-22.14
-23.33
-24.67
-26.20
-27.90
-29.72
-31.49
-32.84
-33.34
-32.52
-30.12
-26.17
-21.02
-15.21
-9.36
-3.97
0.65
4.38
7.23
9.28
10.60
11.30
11.47
11.34
11.15
11.19
11.65
12.55
13.66
14.63
15.10
14.88
14.02
12.79
11.46
10.24
9.11
7.93
6.56
4.95
3.19
1.45
-0.14
-1.59
-3.00
-4.49
-6.14
-7.91
-9.75
-11.63
-13.61
-15.78
-18.13
-20.44
-22.31
-23.21
-22.73
-20.74
-17.40
-13.14
-8.44
-3.73
0.71
4.69
8.12
10.89
12.92
14.14
14.60
14.45
13.97
13.46
13.13
13.06
13.16
13.24
13.19
12.94
12.53
12.01
11.38
10.57
9.54
8.26
6.80
5.26
3.71
2.15
0.55
-1.13
-2.91
-4.76
-6.64
-8.56
-10.52
-12.57
-14.78
-17.23
-19.95
-22.89
-25.83
-28.36
-29.91
-29.95
-28.18
-24.64
-19.74
-14.14
-8.51
-3.36
1.09
4.84
7.99
10.61
12.70
14.20
15.13
15.60
15.86
16.20
16.80
17.71
18.83
19.95
20.87
21.46
21.70
21.66
21.43
21.11
20.73
20.35
19.96
19.57
19.18
18.81
18.45
18.08
17.72
17.40
17.21
17.22
17.46
17.80
17.93
17.43
15.88
13.09
9.27
5.01
1.24
-1.12
-1.42
0.43
3.94
8.12
11.83
14.13
14.49
12.90
9.84
5.98
2.03
-1.45
-4.12
-5.78
-6.31
-5.62
-3.65
-0.40
3.96
9.18
14.95
20.99
27.01
32.68
37.50
40.76
41.71
39.73
34.64
26.76
16.88
5.96
-5.12
-15.82
-25.93
-35.49
-44.62
-53.35
-61.55
-68.99
-75.39
-80.53
-84.27
-86.59
-87.46
-86.82
-84.57
-80.56
-74.78
-67.41
-58.89
-49.84
-40.93
-32.76
-25.72
-19.99
-15.50
-12.01
-9.17
-6.60
-3.98
-1.15
1.95
5.22
8.47
11.47
13.98
15.81
16.95
17.51
17.70
17.72
17.69
17.58
17.28
16.73
15.96
15.10
14.27
13.51
12.71
11.67
10.24
8.40
6.20
3.77
1.28
-1.09
-3.05
-4.27
-4.41
-3.26
-0.86
2.50
6.40
10.31
13.84
16.71
18.77
19.97
20.34
19.95
19.00
17.76
16.53
15.54
14.89
14.57
14.46
14.37
14.21
13.90
13.44
12.82
12.01
10.96
9.66
8.16
6.56
5.02
3.66
2.53
1.57
0.71
-0.20
-1.24
-2.49
-4.01
-5.79
-7.79
-9.86
-11.72
-12.99
-13.28
-12.31
-9.97
-6.48
-2.24
2.20
6.33
9.79
12.38
14.02
14.76
14.63
13.77
12.42
10.95
9.74
9.12
9.18
9.78
10.59
11.27
11.59
11.50
11.10
10.56
10.00
9.48
8.97
8.38
7.65
6.77
5.80
4.83
3.93
3.06
2.14
1.05
-0.31
-1.92
-3.66
-5.37
-6.85
-7.91
-8.34
-7.92
-6.52
-4.09
-0.82
2.89
6.53
9.62
11.89
13.29
13.99
14.24
14.29
14.27
14.22
14.14
13.95
13.53
12.73
11.35
9.24
6.40
3.02
-0.59
-4.05
-7.11
-9.75
-12.13
-14.52
-17.09
-19.88
-22.74
-25.47
-27.94
-30.15
-32.14
-33.88
-35.19
-35.65
-34.79
-32.25
-27.98
-22.26
-15.68
-8.90
-2.49
3.28
8.33
12.77
16.70
20.15
23.09
25.45
27.28
28.70
29.92
31.19
32.65
34.28
35.91
37.16
37.60
36.80
34.49
30.58
25.21
18.68
11.35
3.56
-4.41
-12.39
-20.30
-28.16
-36.04
-44.07
-52.27
-60.42
-67.92
-73.85
-77.20
-77.18
-73.55
-66.77
-57.88
-48.15
-38.77
-30.54
-23.83
-18.70
-14.99
-12.45
-10.78
-9.63
-8.63
-7.47
-5.93
-3.95
-1.64
0.80
3.10
5.04
6.49
7.43
7.95
8.23
8.44
8.67
8.93
9.13
9.13
8.75
7.89
6.54
4.79
2.86
1.03
-0.36
-0.97
-0.57
0.98
3.59
7.01
10.86
14.69
18.12
20.86
22.76
23.77
23.96
23.38
22.18
20.51
18.60
16.70
15.02
13.71
12.81
12.24
11.82
11.35
10.66
9.64
8.31
6.80
5.25
3.76
2.31
0.80
-0.89
-2.84
-5.02
-7.29
-9.47
-11.28
-12.43
-12.56
-11.33
-8.52
-4.17
1.37
7.51
13.58
19.01
23.53
27.08
29.75
31.62
32.66
32.76
31.82
29.86
27.06
23.73
20.22
16.81
13.67
10.77
8.02
5.31
2.59
-0.06
-2.53
-4.68
-6.47
-7.89
-9.02
-9.93
-10.62
-11.06
-11.17
-10.91
-10.22
-9.10
-7.44
-5.09
-1.84
2.47
7.86
14.09
20.65
26.97
32.46
36.75
39.69
41.30
41.73
41.18
39.85
37.95
35.71
33.33
30.97
28.71
26.55
24.43
22.20
19.72
16.83
13.45
9.59
5.35
0.94
-3.43
-7.55
-11.19
-14.15
-16.20
-17.09
-16.64
-14.76
-11.50
-7.07
-1.81
3.88
9.61
15.06
20.01
24.36
28.09
31.25
33.90
36.09
37.87
39.33
40.51
41.47
42.13
42.30
41.67
39.96
36.96
32.67
27.30
21.20
14.76
8.32
2.18
-3.46
-8.36
-12.38
-15.44
-17.65
-19.24
-20.56
-21.89
-23.36
-24.96
-26.60
-28.18
-29.67
-31.13
-32.64
-34.25
-35.92
-37.50
-38.74
-39.36
-39.13
-38.00
-36.18
-34.04
-32.00
-30.29
-28.85
-27.40
-25.61
-23.38
-20.98
-18.95
-17.85
-17.95
-19.08
-20.67
-22.04
-22.64
-22.30
-21.17
-19.58
-17.81
-15.93
-13.77
-10.94
-6.91
-1.14
6.73
16.55
27.45
37.72
45.15
47.71
44.32
35.44
22.98
9.74
-1.55
-8.96
-11.68
-9.86
-4.24
4.17
14.38
25.43
36.48
46.84
55.93
63.27
68.40
70.95
70.75
68.00
63.34
57.58
51.31
44.59
36.90
27.48
15.76
1.71
-14.20
-31.19
-48.37
-64.88
-79.80
-92.15
-101.07
-106.10
-107.40
-105.76
-102.28
-98.16
-94.38
-91.78
-90.96
-92.25
-95.44
-99.67
-103.54
-105.56
-104.75
-100.95
-94.75
-87.03
-78.51
-69.61
-60.54
-51.66
-43.56
-36.91
-32.09
-29.01
-27.09
-25.65
-24.16
-22.44
-20.52
-18.42
-15.99
-12.90
-8.91
-4.01
1.47
6.97
11.94
16.06
19.41
22.31
25.14
28.12
31.09
33.58
34.89
34.41
31.75
27.01
20.81
14.15
8.29
4.36
3.03
4.34
7.73
12.22
16.78
20.68
23.57
25.48
26.60
27.13
27.20
27.01
26.83
27.06
28.09
30.01
32.51
34.87
36.13
35.53
32.74
28.04
22.18
16.09
10.50
5.82
2.16
-0.50
-2.16
-2.78
-2.38
-1.17
0.45
1.99
3.11
3.76
4.21
4.96
6.51
9.35
13.80
20.06
28.11
37.63
47.86
57.67
65.65
70.45
71.07
67.13
58.94
47.48
34.13
20.48
7.97
-2.36
-10.09
-15.40
-18.92
-21.42
-23.55
-25.62
-27.67
-29.53
-31.04
-32.20
-33.11
-33.96
-34.93
-36.20
-37.91
-40.11
-42.78
-45.60
-48.00
-49.16
-48.26
-44.70
-38.43
-29.94
-20.21
-10.43
-1.67
5.38
10.49
13.86
15.94
17.28
18.30
19.25
20.14
20.82
21.09
20.81
19.93
18.59
16.98
15.28
13.56
11.77
9.78
7.48
4.82
1.90
-1.03
-3.59
-5.27
-5.53
-3.91
-0.20
5.36
12.13
19.13
25.35
30.07
33.03
34.47
34.94
35.04
35.21
35.58
36.06
36.46
36.60
36.45
36.06
35.50
34.75
33.72
32.24
30.20
27.58
24.54
21.31
18.10
15.09
12.32
9.77
7.40
5.24
3.39
2.01
1.17
0.83
0.77
0.73
0.42
-0.27
-1.30
-2.49
-3.66
-4.66
-5.43
-5.92
-6.07
-5.81
-5.09
-3.98
-2.68
-1.52
-0.81
-0.73
-1.31
-2.36
-3.65
-4.90
-5.88
-6.50
-6.73
-6.65
-6.39
-6.11
-5.94
-5.96
-6.18
-6.57
-7.10
-7.76
-8.56
-9.50
-10.59
-11.82
-13.16
-14.62
-16.15
-17.71
-19.19
-20.42
-21.24
-21.52
-21.27
-20.68
-20.11
-19.91
-20.36
-21.48
-23.13
-25.02
-26.92
-28.72
-30.44
-32.17
-33.93
-35.68
-37.33
-38.79
-39.98
-40.90
-41.52
-41.81
-41.71
-41.20
-40.34
-39.27
-38.23
-37.51
-37.43
-38.24
-40.12
-43.15
-47.20
-51.96
-56.83
-61.02
-63.70
-64.23
-62.39
-58.51
-53.34
-47.87
-42.93
-39.01
-36.11
-33.91
-31.95
-29.85
-27.47
-24.83
-22.11
-19.47
-17.02
-14.84
-12.95
-11.44
-10.38
-9.77
-9.56
-9.56
-9.55
-9.42
-9.22
-9.20
-9.68
-10.96
-13.10
-15.99
-19.34
-22.79
-25.95
-28.34
-29.37
-28.37
-24.71
-18.04
-8.53
3.15
15.98
28.91
41.15
52.31
62.30
71.09
78.59
84.63
89.16
92.45
95.10
97.83
101.08
104.76
108.15
110.27
110.28
107.92
103.59
98.15
92.46
87.11
82.19
77.51
72.78
67.83
62.64
57.19
51.38
45.03
38.00
30.43
22.74
15.57
9.52
4.86
1.44
-1.25
-3.84
-6.74
-9.96
-13.07
-15.39
-16.21
-15.06
-11.85
-6.90
-0.81
5.63
11.64
16.49
19.63
20.73
19.81
17.19
13.47
9.32
5.33
1.86
-0.96
-3.19
-4.95
-6.33
-7.45
-8.46
-9.56
-11.02
-13.04
-15.71
-18.89
-22.29
-25.44
-27.75
-28.58
-27.39
-23.82
-17.86
-9.85
-0.46
9.45
19.00
27.51
34.53
39.94
43.82
46.40
47.93
48.66
48.78
48.45
47.69
46.46
44.66
42.22
39.16
35.67
32.02
28.51
25.32
22.44
19.77
17.12
14.40
11.59
8.74
5.91
3.09
0.24
-2.70
-5.77
-9.01
-12.38
-15.86
-19.35
-22.77
-25.99
-28.93
-31.55
-33.87
-36.00
-38.07
-40.15
-42.23
-44.21
-45.94
-47.32
-48.24
-48.64
-48.41
-47.38
-45.40
-42.42
-38.62
-34.38
-30.17
-26.36
-23.09
-20.28
-17.73
-15.29
-12.95
-10.84
-9.12
-7.84
-6.88
-6.03
-5.05
-3.83
-2.44
-1.09
-0.08
0.35
0.09
-0.84
-2.32
-4.18
-6.22
-8.21
-9.87
-10.86
-10.86
-9.68
-7.37
-4.26
-0.85
2.33
4.85
6.50
7.28
7.34
6.93
6.28
5.58
4.91
4.25
3.51
2.61
1.56
0.53
-0.23
-0.39
0.23
1.64
3.62
5.82
7.85
9.39
10.23
10.29
9.54
8.05
5.99
3.59
1.07
-1.41
-3.87
-6.48
-9.33
-12.35
-15.04
-16.56
-15.93
-12.32
-5.37
4.70
17.17
30.96
44.91
57.89
68.86
76.93
81.42
81.94
78.56
71.79
62.58
52.02
41.07
30.39
20.26
10.66
1.47
-7.37
-15.86
-23.91
-31.52
-38.75
-45.80
-52.81
-59.84
-66.77
-73.35
-79.25
-84.16
-87.77
-89.79
-89.91
-87.84
-83.45
-76.90
-68.72
-59.81
-51.19
-43.73
-38.00
-34.18
-32.19
-31.85
-32.91
-35.03
-37.66
-40.08
-41.50
-41.34
-39.33
-35.58
-30.34
-23.89
-16.39
-7.92
1.30
10.81
19.88
27.74
33.76
37.72
39.84
40.60
40.58
40.15
39.41
38.26
36.62
34.62
32.67
31.36
31.14
32.06
33.74
35.45
36.47
36.32
34.87
32.23
28.54
23.87
18.31
12.09
5.80
0.31
-3.45
-4.83
-3.74
-0.60
3.83
8.77
13.62
18.00
21.67
24.39
25.93
26.16
25.21
23.51
21.66
20.21
19.45
19.30
19.44
19.50
19.26
18.70
17.96
17.09
16.03
14.55
12.40
9.45
5.83
1.86
-1.99
-5.33
-7.92
-9.72
-10.90
-11.76
-12.62
-13.73
-15.25
-17.17
-19.35
-21.51
-23.32
-24.43
-24.50
-23.33
-20.89
-17.33
-12.99
-8.32
-3.81
0.12
3.19
5.32
6.61
7.29
7.65
7.96
8.37
8.93
9.57
10.22
10.82
11.36
11.82
12.13
12.16
11.77
10.83
9.32
7.37
5.18
2.99
0.98
-0.77
-2.29
-3.69
-5.16
-6.91
-9.09
-11.75
-14.73
-17.66
-20.03
-21.30
-21.12
-19.42
-16.39
-12.40
-7.87
-3.14
1.48
5.71
9.28
11.91
13.43
13.82
13.27
12.06
10.54
8.95
7.44
6.07
4.88
3.90
3.17
2.65
2.23
1.73
0.96
-0.19
-1.70
-3.41
-5.11
-6.69
-8.10
-9.42
-10.75
-12.20
-13.88
-15.86
-18.18
-20.80
-23.46
-25.75
-27.10
-27.02
-25.21
-21.70
-16.86
-11.22
-5.36
0.24
5.25
9.50
12.93
15.57
17.48
18.77
19.56
19.98
20.13
20.10
19.93
19.65
19.31
18.97
18.76
18.77
19.02
19.39
19.60
19.33
18.33
16.55
14.22
11.70
9.33
7.29
5.49
3.67
1.46
-1.44
-5.11
-9.36
-13.71
-17.42
-19.64
-19.61
-16.94
-11.84
-5.10
2.03
8.29
12.80
15.30
16.15
16.04
15.65
15.35
15.15
14.83
14.17
13.10
11.77
10.34
8.95
7.59
6.18
4.62
2.91
1.14
-0.51
-1.90
-2.93
-3.68
-4.31
-5.08
-6.22
-7.84
-9.89
-12.14
-14.30
-16.12
-17.59
-18.88
-20.34
-22.27
-24.70
-27.37
-29.72
-31.17
-31.27
-29.88
-27.12
-23.28
-18.59
-13.18
-7.13
-0.55
6.30
13.01
19.20
24.60
29.24
33.29
36.94
40.21
42.92
44.83
45.80
45.96
45.70
45.53
45.81
46.60
47.64
48.47
48.59
47.62
45.35
41.77
37.01
31.42
25.44
19.55
14.06
9.11
4.57
0.23
-4.04
-8.18
-11.90
-14.83
-16.68
-17.33
-16.94
-15.80
-14.28
-12.73
-11.40
-10.42
-9.82
-9.54
-9.44
-9.36
-9.11
-8.52
-7.43
-5.81
-3.76
-1.59
0.27
1.38
1.49
0.66
-0.75
-2.20
-3.21
-3.58
-3.47
-3.31
-3.53
-4.38
-5.67
-6.93
-7.59
-7.22
-5.77
-3.54
-1.03
1.15
2.48
2.51
0.96
-2.28
-7.05
-12.87
-18.98
-24.54
-28.82
-31.43
-32.36
-31.98
-30.83
-29.47
-28.25
-27.27
-26.40
-25.32
-23.76
-21.58
-18.83
-15.72
-12.51
-9.41
-6.55
-4.00
-1.83
-0.12
0.98
1.38
1.02
-0.06
-1.79
-4.04
-6.68
-9.56
-12.55
-15.51
-18.27
-20.58
-22.03
-22.18
-20.67
-17.42
-12.76
-7.39
-2.15
2.30
5.66
8.04
9.71
10.85
11.30
10.60
8.22
3.88
-2.19
-9.21
-16.03
-21.41
-24.31
-24.13
-20.72
-14.38
-5.70
4.51
15.32
25.71
34.67
41.24
44.69
44.66
41.29
35.20
27.40
19.02
11.17
4.71
0.13
-2.40
-3.12
-2.55
-1.43
-0.51
-0.43
-1.54
-3.83
-6.97
-10.42
-13.70
-16.52
-18.87
-20.93
-22.91
-24.83
-26.54
-27.69
-27.97
-27.26
-25.67
-23.51
-21.10
-18.68
-16.36
-14.20
-12.29
-10.73
-9.69
-9.34
-9.78
-11.05
-13.10
-15.75
-18.80
-22.10
-25.69
-29.81
-34.83
-40.96
-48.15
-55.93
-63.60
-70.47
-76.09
-80.26
-82.91
-83.92
-83.06
-80.11
-75.08
-68.34
-60.57
-52.59
-45.04
-38.26
-32.27
-26.93
-22.10
-17.75
-13.86
-10.40
-7.17
-3.76
0.35
5.66
12.40
20.47
29.37
38.35
46.65
53.64
58.94
62.44
64.22
64.61
64.09
63.25
62.60
62.47
62.89
63.64
64.41
65.02
65.45
65.87
66.44
67.20
68.10
69.05
70.08
71.33
72.90
74.71
76.30
76.98
75.97
72.72
66.99
58.86
48.60
36.56
23.23
9.38
-3.74
-14.54
-21.47
-23.55
-20.88
-14.70
-7.08
-0.28
3.91
4.62
1.88
-3.52
-10.47
-17.80
-24.45
-29.63
-32.84
-33.98
-33.34
-31.63
-29.79
-28.80
-29.39
-31.86
-35.91
-40.69
-44.94
-47.35
-46.96
-43.53
-37.67
-30.63
-23.84
-18.35
-14.51
-11.89
-9.62
-6.82
-2.97
1.96
7.66
13.73
19.81
25.64
30.90
35.20
38.05
39.10
38.24
35.73
32.09
27.92
23.75
19.95
16.75
14.38
13.06
12.97
14.12
16.25
18.92
21.58
23.81
25.41
26.43
27.09
27.64
28.32
29.28
30.53
31.99
33.42
34.45
34.66
33.67
31.22
27.21
21.71
14.91
7.13
-1.27
-9.88
-18.27
-26.03
-32.73
-37.82
-40.68
-40.66
-37.30
-30.55
-20.98
-9.85
1.25
10.76
17.58
21.31
22.22
21.00
18.42
15.06
11.24
7.05
2.51
-2.25
-6.95
-11.21
-14.68
-17.15
-18.54
-18.82
-17.85
-15.40
-11.28
-5.64
0.85
7.01
11.54
13.57
12.97
10.49
7.28
4.42
2.50
1.47
0.89
0.18
-1.13
-3.31
-6.46
-10.67
-15.92
-22.15
-29.19
-36.65
-44.08
-50.95
-56.85
-61.63
-65.39
-68.42
-71.05
-73.37
-75.17
-76.09
-75.81
-74.39
-72.30
-70.34
-69.22
-69.25
-70.19
-71.31
-71.67
-70.51
-67.38
-62.19
-55.10
-46.42
-36.52
-25.90
-15.21
-5.25
3.16
9.35
12.96
14.05
13.03
10.55
7.32
3.90
0.70
-2.06
-4.20
-5.52
-5.79
-4.80
-2.57
0.59
4.10
7.23
9.31
9.97
9.13
6.96
3.74
-0.16
-4.21
-7.68
-9.66
-9.24
-5.81
0.70
9.72
20.18
30.79
40.46
48.47
54.60
58.97
61.89
63.63
64.33
64.06
62.83
60.74
57.99
54.84
51.58
48.37
45.25
42.09
38.68
34.83
30.46
25.64
20.61
15.76
11.42
7.78
4.83
2.36
0.07
-2.29
-4.84
-7.60
-10.47
-13.25
-15.60
-17.08
-17.18
-15.54
-12.10
-7.25
-1.65
3.94
8.99
13.26
16.82
19.83
22.33
24.24
25.39
25.74
25.44
24.85
24.32
24.08
24.09
24.14
24.00
23.49
22.62
21.45
20.08
18.55
16.85
15.03
13.15
11.30
9.51
7.73
5.83
3.67
1.19
-1.59
-4.59
-7.58
-10.25
-12.20
-12.97
-12.22
-9.87
-6.14
-1.55
3.26
7.74
11.50
14.42
16.48
17.77
18.36
18.38
18.00
17.46
17.02
16.89
17.17
17.76
18.48
19.05
19.27
19.02
18.29
17.16
15.67
13.78
11.43
8.52
5.05
1.25
-2.50
-5.74
-8.15
-9.68
-10.62
-11.43
-12.52
-14.10
-16.04
-17.97
-19.41
-19.97
-19.45
-17.98
-15.93
-13.85
-12.32
-11.74
-12.18
-13.32
-14.59
-15.36
-15.18
-13.87
-11.54
-8.41
-4.73
-0.69
3.53
7.73
11.71
15.27
18.25
20.56
22.13
22.89
22.78
21.79
20.07
17.90
15.68
13.72
12.19
10.96
9.71
8.08
5.86
3.04
-0.23
-3.80
-7.66
-11.95
-16.81
-22.13
-27.47
-32.06
-35.10
-36.08
-35.02
-32.37
-28.75
-24.66
-20.26
-15.51
-10.49
-5.56
-1.46
1.01
1.39
-0.21
-3.02
-5.94
-7.94
-8.46
-7.49
-5.49
-3.12
-0.99
0.47
1.11
0.95
0.17
-0.98
-2.23
-3.36
-4.19
-4.58
-4.43
-3.72
-2.55
-1.13
0.24
1.20
1.50
1.01
-0.22
-2.04
-4.23
-6.60
-8.95
-10.98
-12.35
-12.60
-11.38
-8.55
-4.25
1.04
6.68
12.03
16.58
20.08
22.44
23.69
23.94
23.36
22.18
20.73
19.39
18.43
17.98
17.97
18.18
18.35
18.30
17.98
17.44
16.80
16.17
15.60
15.08
14.57
14.00
13.29
12.40
11.31
10.06
8.70
7.29
5.83
4.27
2.45
0.23
-2.51
-5.79
-9.48
-13.35
-17.04
-20.15
-22.32
-23.30
-22.98
-21.44
-18.90
-15.65
-12.02
-8.30
-4.74
-1.58
0.98
2.86
4.09
4.88
5.53
6.33
7.40
8.64
9.76
10.39
10.23
9.23
7.54
5.47
3.32
1.29
-0.57
-2.35
-4.15
-6.07
-8.12
-10.27
-12.48
-14.71
-16.88
-18.92
-20.72
-22.20
-23.33
-24.17
-24.83
-25.36
-25.72
-25.72
-25.09
-23.57
-21.03
-17.52
-13.29
-8.68
-4.06
0.27
4.08
7.22
9.58
11.09
11.81
11.91
11.72
11.64
11.99
12.91
14.23
15.57
16.47
16.64
16.05
14.97
13.79
12.85
12.30
12.07
11.94
11.68
11.12
10.26
9.18
7.99
6.78
5.55
4.19
2.59
0.65
-1.61
-4.01
-6.19
-7.75
-8.28
-7.55
-5.60
-2.76
0.49
3.69
6.56
9.14
11.73
14.65
18.09
21.88
25.59
28.77
31.16
32.98
34.84
37.52
41.64
47.36
54.29
61.68
68.73
74.90
80.03
84.22
87.66
90.51
92.99
95.33
97.65
99.62
100.25
98.19
92.40
83.17
72.47
63.49
59.16
60.64
66.41
72.67
74.84
69.28
54.40
30.72
0.38
-33.43
-66.75
-95.14
-114.38
-121.80
-117.47
-104.66
-88.80
-75.56
-68.77
-69.46
-76.37
-87.30
-100.34
-114.20
-127.61
-138.61
-144.58
-143.25
-134.01
-118.73
-101.17
-85.45
-74.25
-67.87
-64.54
-61.70
-57.53
-51.74
-45.42
-40.28
-37.63
-37.93
-40.76
-45.23
-50.30
-55.01
-58.52
-60.22
-60.02
-58.39
-56.30
-54.69
-53.84
-53.07
-50.91
-45.79
-36.86
-24.43
-9.93
4.65
17.41
27.06
33.04
35.44
34.89
32.38
29.15
26.43
25.12
25.45
26.91
28.43
28.80
27.23
23.60
18.45
12.77
7.54
3.43
0.67
-0.96
-1.89
-2.62
-3.57
-5.00
-7.06
-9.69
-12.71
-15.81
-18.64
-20.91
-22.53
-23.63
-24.53
-25.61
-27.06
-28.78
-30.32
-30.99
-30.13
-27.35
-22.68
-16.57
-9.74
-2.93
3.33
8.78
13.37
17.17
20.24
22.63
24.40
25.67
26.57
27.31
27.97
28.56
28.96
29.01
28.61
27.75
26.51
25.06
23.54
22.06
20.61
19.14
17.55
15.80
13.90
11.95
10.08
8.42
7.01
5.79
4.62
3.31
1.69
-0.38
-2.92
-5.81
-8.70
-11.10
-12.40
-12.10
-9.97
-6.20
-1.32
3.91
8.81
12.89
16.00
18.22
19.73
20.68
21.13
21.13
20.80
20.36
20.07
20.14
20.62
21.30
21.87
22.03
21.67
20.89
19.91
18.98
18.21
17.59
16.98
16.30
15.46
14.45
13.28
11.91
10.35
8.68
7.09
5.82
5.05
4.74
4.54
3.85
1.97
-1.62
-7.05
-13.90
-21.23
-27.87
-32.65
-34.80
-34.10
-30.94
-26.18
-20.88
-16.06
-12.45
-10.35
-9.63
-9.83
-10.37
-10.73
-10.58
-9.79
-8.39
-6.51
-4.28
-1.82
0.77
3.40
6.02
8.62
11.21
13.75
16.07
17.87
18.81
18.63
17.33
15.23
12.82
10.65
9.02
7.92
7.04
5.92
4.18
1.63
-1.57
-5.01
-8.13
-10.37
-11.35
-10.94
-9.31
-6.87
-4.12
-1.48
0.79
2.67
4.25
5.70
7.15
8.68
10.34
12.22
14.36
16.78
19.44
22.27
25.12
27.86
30.34
32.39
33.82
34.43
34.07
32.68
30.30
27.02
22.92
17.93
11.92
4.76
-3.58
-12.87
-22.61
-32.16
-40.87
-48.16
-53.68
-57.19
-58.61
-57.96
-55.41
-51.31
-46.16
-40.52
-34.83
-29.35
-24.11
-19.09
-14.28
-9.84
-6.00
-2.96
-0.68
1.08
2.71
4.51
6.55
8.61
10.33
11.33
11.45
10.79
9.58
8.06
6.38
4.57
2.64
0.71
-1.01
-2.20
-2.71
-2.60
-2.30
-2.47
-3.86
-7.10
-12.45
-19.73
-28.17
-36.55
-43.40
-47.34
-47.48
-43.62
-36.31
-26.59
-15.70
-4.75
5.39
14.18
21.30
26.57
29.99
31.74
32.20
31.84
31.18
30.60
30.33
30.41
30.75
31.16
31.43
31.41
30.98
30.15
28.94
27.36
25.41
23.03
20.15
16.78
12.99
8.93
4.79
0.69
-3.34
-7.32
-11.33
-15.38
-19.39
-23.19
-26.54
-29.14
-30.72
-31.09
-30.20
-28.22
-25.44
-22.26
-19.03
-15.89
-12.73
-9.30
-5.32
-0.75
4.14
8.78
12.53
14.89
15.66
15.02
13.33
11.02
8.48
5.96
3.69
1.86
0.65
0.10
0.16
0.60
1.12
1.46
1.46
1.10
0.43
-0.46
-1.52
-2.77
-4.28
-6.13
-8.38
-10.96
-13.59
-15.78
-16.90
-16.43
-14.09
-10.04
-4.79
0.96
6.59
11.71
16.19
20.09
23.46
26.25
28.33
29.57
29.96
29.65
28.93
28.06
27.22
26.45
25.68
24.83
23.91
23.01
22.19
21.43
20.57
19.36
17.59
15.23
12.43
9.50
6.78
4.47
2.56
0.90
-0.77
-2.69
-4.99
-7.69
-10.63
-13.54
-16.01
-17.59
-17.89
-16.65
-13.91
-9.93
-5.20
-0.27
4.40
8.48
11.82
14.37
16.13
17.12
17.42
17.14
16.49
15.73
15.07
14.63
14.42
14.32
14.21
13.99
13.61
13.06
12.32
11.32
10.01
8.37
6.46
4.41
2.40
0.57
-0.98
-2.25
-3.30
-4.28
-5.33
-6.63
-8.32
-10.45
-12.98
-15.64
-18.02
-19.66
-20.10
-19.03
-16.40
-12.47
-7.74
-2.81
1.86
5.98
9.54
12.64
15.48
18.17
20.68
22.90
24.69
26.03
26.93
27.44
27.62
27.72
28.01
28.74
29.97
31.53
33.18
34.52
35.09
34.64
33.50
32.31
31.71
32.09
33.43
35.61
37.85
38.74
36.56
30.54
20.85
8.70
-3.85
-14.42
-20.56
-21.23
-17.28
-10.95
-4.09
2.06
6.89
10.41
13.05
15.93
19.55
23.44
26.48
28.52
29.80
30.49
30.46
25.11
13.24
-2.18
-15.38
-26.96
-37.89
-47.73
-55.20
-59.32
-59.86
-56.84
-51.43
-45.73
-42.07
-41.22
-43.10
-47.32
-53.39
-60.55
-67.10
-71.28
-71.86
-68.52
-61.22
-50.96
-39.83
-30.20
-23.85
-21.06
-21.14
-23.06
-25.91
-28.67
-30.57
-31.17
-30.19
-27.44
-22.76
-16.42
-9.26
-2.43
3.20
7.24
9.75
11.17
12.12
13.16
14.52
16.08
17.53
18.75
19.86
21.11
22.78
24.85
26.97
28.45
28.54
26.73
22.98
17.69
11.54
5.27
-0.61
-5.85
-10.36
-14.09
-16.90
-18.54
-18.77
-17.50
-14.88
-11.31
-7.32
-3.36
0.34
3.81
7.28
10.99
15.04
19.34
23.60
27.49
30.77
33.36
35.33
36.84
38.09
39.23
40.36
41.56
42.87
44.31
45.90
47.61
49.38
51.08
52.52
53.45
53.60
52.83
51.23
49.15
47.05
45.22
43.47
41.05
36.90
30.12
20.51
8.78
-3.71
-15.48
-25.56
-33.77
-40.48
-46.26
-51.46
-56.06
-59.93
-63.08
-65.79
-68.48
-71.39
-74.32
-76.65
-77.59
-76.53
-73.41
-68.72
-63.39
-58.46
-54.81
-52.90
-52.76
-54.03
-56.16
-58.55
-60.69
-62.16
-62.60
-61.66
-59.03
-54.57
-48.40
-40.93
-32.76
-24.49
-16.54
-9.12
-2.23
4.15
9.99
15.12
19.37
22.65
25.09
26.92
28.48
30.02
31.69
33.46
35.22
36.78
37.97
38.63
38.68
38.13
37.03
35.43
33.36
30.78
27.61
23.79
19.35
14.42
9.26
4.17
-0.60
-4.84
-8.46
-11.42
-13.79
-15.71
-17.36
-18.88
-20.28
-21.45
-22.17
-22.24
-21.52
-20.06
-18.05
-15.76
-13.48
-11.44
-9.77
-8.48
-7.45
-6.48
-5.34
-3.87
-2.03
0.08
2.30
4.41
6.30
7.87
9.10
10.04
10.79
11.55
12.52
13.84
15.43
16.95
17.85
17.56
15.72
12.31
7.70
2.52
-2.59
-7.09
-10.77
-13.65
-16.01
-18.18
-20.49
-23.14
-26.11
-29.18
-31.94
-33.84
-34.35
-33.07
-29.88
-25.01
-18.98
-12.48
-6.20
-0.65
3.92
7.49
10.22
12.31
13.93
15.20
16.19
16.90
17.34
17.51
17.43
17.16
16.80
16.44
16.16
15.95
15.73
15.40
14.87
14.06
12.94
11.52
9.81
7.84
5.71
3.57
1.59
-0.12
-1.56
-2.89
-4.36
-6.20
-8.40
-10.71
-12.64
-13.63
-13.29
-11.57
-8.75
-5.29
-1.73
1.59
4.49
6.94
8.96
10.55
11.69
12.38
12.70
12.78
12.77
12.78
12.86
12.92
12.87
12.58
12.05
11.34
10.60
9.95
9.42
8.89
8.15
6.98
5.31
3.27
1.12
-0.82
-2.35
-3.45
-4.29
-5.15
-6.31
-7.97
-10.14
-12.68
-15.27
-17.45
-18.73
-18.72
-17.21
-14.32
-10.41
-6.01
-1.65
2.29
5.62
8.32
10.46
12.10
13.25
13.91
14.13
14.05
13.90
13.87
14.08
14.44
14.76
14.76
14.32
13.50
12.48
11.52
10.75
10.11
9.43
8.50
7.24
5.78
4.32
3.09
2.18
1.54
1.02
0.40
-0.49
-1.78
-3.51
-5.71
-8.29
-11.02
-13.53
-15.33
-15.95
-15.11
-12.84
-9.51
-5.69
-1.99
1.19
3.71
5.65
7.18
8.38
9.22
9.59
9.48
9.01
8.47
8.17
8.25
8.66
9.13
9.34
9.11
8.46
7.61
6.82
6.24
5.90
5.64
5.27
4.64
3.70
2.52
1.24
0.06
-0.92
-1.65
-2.23
-2.82
-3.61
-4.76
-6.30
-8.16
-10.13
-11.90
-13.08
-13.33
-12.38
-10.16
-6.82
-2.77
1.41
5.11
7.92
9.69
10.61
10.95
11.03
10.92
10.56
9.74
8.32
6.42
4.33
2.41
0.91
-0.08
-0.57
-0.62
-0.23
0.64
2.19
4.45
7.15
9.71
11.49
12.01
11.03
8.55
4.79
0.38
-4.07
-8.29
-12.36
-16.47
-20.60
-24.56
-27.96
-30.36
-30.88
-28.95
-24.70
-18.95
-12.63
-6.33
-0.42
4.89
9.38
13.50
17.66
21.91
26.06
30.28
35.52
43.19
54.81
66.38
73.58
73.76
66.73
53.27
34.53
12.83
-8.89
-27.66
-41.58
-49.42
-51.06
-47.25
-39.45
-29.93
-20.16
-12.18
-7.79
-7.88
-11.41
-16.19
-19.83
-20.88
-19.06
-14.46
-8.66
-3.15
1.37
5.40
9.91
15.05
20.09
24.03
26.31
26.77
25.91
24.43
22.99
21.09
18.35
14.15
8.11
0.40
-8.39
-17.25
-25.20
-31.41
-35.36
-36.83
-36.21
-33.99
-30.50
-26.03
-20.77
-15.19
-9.73
-4.61
0.21
4.46
7.94
10.74
12.96
14.77
15.74
15.49
13.85
10.80
5.90
-1.08
-9.79
-19.39
-28.63
-36.92
-43.78
-48.85
-48.68
-41.94
-30.76
-19.23
-11.90
-7.87
-5.85
-4.99
-4.19
-3.16
-2.43
-2.50
-3.33
-4.42
-4.96
-4.86
-4.16
-3.01
-1.73
-1.07
-1.57
-3.17
