1603952237.00
64.000000
-0.00
-0.00
-0.00
-0.00
-0.00
-0.00
-0.00
-0.00
-0.00
-0.00
0.00
0.01
0.01
-0.00
-0.03
-0.05
-0.05
0.00
0.13
0.36
0.66
1.01
1.37
1.72
2.06
2.40
2.79
3.24
3.80
4.42
5.06
5.66
6.20
6.68
7.15
7.68
8.31
9.14
10.09
11.04
11.88
12.56
13.14
13.76
14.65
15.96
17.91
20.32
22.90
25.38
27.58
29.57
31.68
34.32
37.81
42.54
48.15
54.10
59.83
64.97
69.58
74.14
79.34
85.71
93.76
103.00
112.62
121.73
129.77
136.75
143.30
150.75
157.77
166.64
177.95
191.79
206.97
220.57
228.25
225.36
208.53
176.87
132.76
80.05
23.07
-34.94
-92.44
-149.16
-205.23
-260.37
-313.74
-363.87
-409.83
-450.91
-486.50
-515.74
-537.23
-549.22
-549.96
-538.37
-514.21
-478.67
-433.88
-382.45
-327.02
-269.84
-212.63
-156.66
-102.95
-52.37
-5.90
35.58
71.43
101.35
125.50
144.38
158.69
169.15
176.37
180.75
182.57
182.07
179.51
175.24
169.65
163.18
156.14
148.80
141.30
133.70
126.04
118.36
110.71
103.14
95.73
88.53
81.59
74.95
68.62
62.62
56.94
51.56
46.46
41.65
37.13
32.91
29.02
25.46
22.22
19.27
16.55
14.03
11.69
9.54
7.63
6.00
4.70
3.67
2.82
2.03
1.19
0.24
-0.76
-1.67
-2.35
-2.69
-2.76
-2.71
-2.82
-3.28
-4.15
-5.32
-6.48
-7.33
-7.65
-7.50
-7.18
-7.11
-7.64
-8.88
-10.61
-12.39
-13.76
-14.41
-14.39
-14.00
-13.71
-13.92
-14.94
-16.98
-20.00
-23.62
-26.83
-28.12
-25.93
-19.37
-8.87
3.76
15.91
25.23
30.47
31.85
30.61
28.23
25.75
23.52
21.44
19.43
17.64
16.45
16.13
16.71
17.84
19.02
19.73
19.75
19.16
18.34
17.70
17.56
18.00
18.77
19.51
19.87
19.73
19.19
18.58
18.20
18.23
18.62
19.15
19.46
19.23
18.20
16.29
13.55
10.26
6.58
2.70
-1.16
-4.89
-8.43
-11.74
-14.77
-17.37
-19.36
-20.58
-20.95
-20.50
-19.43
-18.04
-16.62
-15.38
-14.38
-13.56
-12.85
-12.14
-11.42
-10.71
-10.07
-9.56
-9.18
-8.94
-8.84
-8.82
-8.79
-8.56
-7.97
-6.88
-5.27
-3.26
-1.08
0.97
2.71
4.03
4.99
5.66
6.16
6.50
6.64
6.57
6.26
5.80
5.26
4.73
4.25
3.81
3.37
2.92
2.47
2.07
1.77
1.59
1.56
1.65
1.84
2.04
2.18
2.15
1.86
1.38
0.74
-0.00
-0.80
-1.61
-2.40
-3.10
-3.66
-4.05
-4.27
-4.47
-4.75
-5.21
-5.85
-6.61
-7.38
-8.10
-8.77
-9.50
-10.38
-11.46
-12.69
-13.92
-14.94
-15.55
-15.58
-14.91
-13.49
-11.34
-8.55
-5.32
-1.90
1.48
4.58
7.34
9.78
11.97
13.96
15.68
16.95
17.57
17.50
16.84
15.88
14.94
14.17
13.55
12.90
12.04
10.88
9.53
8.19
7.07
6.27
5.78
5.45
5.14
4.70
4.06
3.20
2.12
0.89
-0.41
-1.70
-2.90
-3.94
-4.78
-5.41
-5.88
-6.30
-6.79
-7.51
-8.52
-9.82
-11.30
-12.79
-14.12
-15.16
-15.88
-16.30
-16.42
-16.25
-15.69
-14.64
-13.00
-10.74
-7.98
-4.92
-1.82
1.07
3.59
5.70
7.43
8.83
9.98
10.90
11.62
12.16
12.54
12.78
12.83
12.63
12.15
11.39
10.40
9.27
8.08
6.91
5.75
4.62
3.49
2.29
0.94
-0.64
-2.46
-4.49
-6.61
-8.75
-10.86
-13.00
-15.22
-17.57
-20.01
-22.50
-24.98
-27.49
-30.07
-32.77
-35.54
-38.28
-40.90
-43.38
-45.88
-48.59
-51.70
-55.19
-58.79
-62.07
-64.45
-65.39
-64.43
-61.28
-55.87
-48.38
-39.16
-28.74
-17.64
-6.32
4.89
15.72
25.91
35.16
43.15
49.61
54.41
57.56
59.24
59.66
59.01
57.51
55.38
52.82
50.07
47.32
44.68
42.19
39.83
37.52
35.19
32.76
30.23
27.67
25.23
23.04
21.16
19.58
18.16
16.74
15.19
13.47
11.61
9.70
7.79
5.84
3.76
1.48
-0.94
-3.32
-5.36
-6.75
-7.30
-6.98
-5.93
-4.39
-2.55
-0.58
1.48
3.61
5.81
8.02
10.17
12.12
13.76
14.98
15.73
15.98
15.79
15.27
14.54
13.70
12.85
11.98
11.06
10.03
8.85
7.55
6.21
4.99
4.06
3.48
3.21
3.08
2.83
2.24
1.18
-0.32
-2.08
-3.86
-5.41
-6.60
-7.44
-8.05
-8.64
-9.39
-10.40
-11.67
-13.14
-14.72
-16.33
-17.90
-19.28
-20.27
-20.54
-19.81
-17.93
-15.00
-11.34
-7.42
-3.65
-0.25
2.74
5.43
7.90
10.19
12.23
13.90
15.14
15.93
16.33
16.40
16.16
15.58
14.64
13.35
11.83
10.28
8.86
7.66
6.62
5.61
4.50
3.26
1.90
0.49
-0.92
-2.32
-3.71
-5.09
-6.44
-7.70
-8.84
-9.91
-10.95
-11.97
-12.99
-13.95
-14.82
-15.66
-16.53
-17.57
-18.86
-20.37
-21.93
-23.20
-23.79
-23.32
-21.64
-18.82
-15.15
-11.03
-6.81
-2.70
1.15
4.69
7.84
10.55
12.79
14.66
16.25
17.63
18.76
19.49
19.71
19.37
18.55
17.44
16.25
15.14
14.19
13.38
12.65
11.91
11.09
10.15
9.09
7.96
6.83
5.72
4.60
3.39
2.05
0.58
-0.92
-2.29
-3.45
-4.40
-5.26
-6.16
-7.21
-8.38
-9.59
-10.81
-12.06
-13.44
-15.05
-16.92
-18.93
-20.85
-22.41
-23.40
-23.74
-23.39
-22.36
-20.57
-17.95
-14.49
-10.33
-5.80
-1.29
2.86
6.44
9.41
11.85
13.85
15.45
16.62
17.31
17.54
17.32
16.73
15.78
14.49
12.91
11.14
9.31
7.56
5.92
4.36
2.84
1.33
-0.09
-1.32
-2.28
-3.03
-3.67
-4.38
-5.27
-6.35
-7.59
-8.92
-10.30
-11.72
-13.18
-14.62
-15.96
-17.11
-18.01
-18.72
-19.36
-20.10
-21.06
-22.26
-23.58
-24.84
-25.77
-26.16
-25.85
-24.74
-22.82
-20.17
-16.93
-13.31
-9.55
-5.84
-2.32
0.96
3.96
6.69
9.09
11.12
12.71
13.84
14.52
14.78
14.69
14.37
13.95
13.54
13.18
12.79
12.26
11.51
10.58
9.64
8.90
8.51
8.45
8.51
8.44
8.04
7.27
6.22
5.00
3.75
2.52
1.38
0.35
-0.55
-1.38
-2.27
-3.38
-4.83
-6.62
-8.62
-10.63
-12.39
-13.63
-14.12
-13.67
-12.21
-9.81
-6.75
-3.44
-0.27
2.49
4.84
7.00
9.24
11.73
14.42
17.05
19.25
20.67
21.16
20.72
19.49
17.73
15.69
13.63
11.74
10.13
8.84
7.81
6.93
6.07
5.14
4.09
2.92
1.69
0.49
-0.59
-1.47
-2.13
-2.60
-2.98
-3.42
-4.05
-4.99
-6.28
-7.92
-9.80
-11.78
-13.70
-15.43
-16.89
-18.06
-18.89
-19.29
-19.11
-18.19
-16.43
-13.82
-10.50
-6.70
-2.67
1.31
5.03
8.27
10.89
12.82
14.11
14.93
15.46
15.83
16.08
16.14
15.90
15.30
14.41
13.35
12.24
11.09
9.88
8.54
7.13
5.81
4.79
4.21
4.02
3.99
3.81
3.26
2.29
1.05
-0.23
-1.40
-2.39
-3.28
-4.18
-5.15
-6.23
-7.42
-8.73
-10.21
-11.91
-13.86
-15.98
-18.02
-19.60
-20.32
-19.83
-18.08
-15.26
-11.78
-8.10
-4.51
-1.13
2.10
5.27
8.42
11.45
14.17
16.39
17.99
18.89
19.09
18.64
17.66
16.32
14.87
13.50
12.36
11.45
10.70
9.94
9.08
8.06
6.90
5.68
4.46
3.28
2.18
1.16
0.24
-0.62
-1.42
-2.18
-2.90
-3.54
-4.05
-4.41
-4.66
-4.86
-5.15
-5.61
-6.34
-7.41
-8.82
-10.59
-12.70
-15.10
-17.68
-20.31
-22.83
-25.05
-26.82
-27.97
-28.36
-27.87
-26.46
-24.16
-21.14
-17.65
-14.01
-10.58
-7.67
-5.48
-4.08
-3.40
-3.24
-3.35
-3.48
-3.51
-3.39
-3.20
-2.99
-2.79
-2.50
-1.92
-0.86
0.81
3.01
5.50
7.98
10.19
12.01
13.51
14.87
16.22
17.59
18.87
19.92
20.73
21.50
22.61
24.44
27.21
30.87
35.08
39.40
43.44
46.93
49.83
52.27
54.57
57.32
61.39
67.71
76.74
87.87
99.07
107.30
109.55
104.23
91.89
74.94
56.53
39.01
23.06
7.73
-8.63
-27.34
-48.83
-72.47
-96.77
-119.39
-137.16
-146.41
-143.83
-127.82
-99.57
-63.25
-25.05
8.65
33.07
46.13
48.55
43.08
33.39
23.08
14.89
10.34
9.66
12.00
15.86
19.71
22.39
23.34
22.56
20.41
17.43
14.15
11.00
8.26
5.92
3.71
1.23
-1.87
-5.65
-9.75
-13.43
-15.80
-16.14
-14.20
-10.34
-5.45
-0.64
3.08
5.13
5.49
4.58
3.06
1.50
0.20
-0.89
-2.03
-3.55
-5.64
-8.30
-11.37
-14.59
-17.73
-20.63
-23.19
-25.38
-27.15
-28.52
-29.51
-30.14
-30.45
-30.37
-29.84
-28.77
-27.21
-25.32
-23.42
-21.82
-20.75
-20.24
-20.18
-20.41
-20.86
-21.53
-22.51
-23.89
-25.64
-27.66
-29.73
-31.62
-33.07
-33.90
-34.01
-33.37
-32.06
-30.14
-27.65
-24.58
-20.88
-16.55
-11.67
-6.43
-1.03
4.42
9.89
15.46
21.17
27.01
32.85
38.53
43.84
48.64
52.79
56.20
58.75
60.28
60.66
59.76
57.55
54.08
49.51
44.05
37.95
31.46
24.83
18.25
11.89
5.84
0.16
-5.18
-10.16
-14.82
-19.15
-23.16
-26.84
-30.07
-32.68
-34.35
-34.78
-33.78
-31.36
-27.85
-23.69
-19.43
-15.47
-12.05
-9.28
-7.18
-5.70
-4.75
-4.16
-3.67
-3.04
-2.12
-0.95
0.30
1.36
2.03
2.30
2.42
2.83
4.09
6.69
10.79
16.17
22.18
28.09
33.42
38.29
43.39
49.73
58.15
68.87
81.40
94.70
107.40
118.09
125.45
128.49
126.93
121.65
114.84
109.53
108.50
113.00
122.00
132.43
140.37
142.52
137.35
125.30
108.30
88.85
69.27
51.38
36.43
25.18
17.87
14.19
13.27
13.86
14.50
13.75
10.32
3.15
-8.32
-23.97
-42.77
-62.86
-81.85
-97.40
-107.72
-111.88
-110.02
-103.29
-93.80
-84.28
-77.61
-76.00
-80.30
-89.47
-100.87
-111.10
-117.24
-117.95
-113.98
-107.90
-103.15
-102.87
-108.87
-120.97
-137.10
-153.89
-167.71
-175.78
-176.86
-171.42
-161.17
-148.23
-134.49
-121.26
-109.33
-99.21
-91.23
-85.50
-81.65
-78.81
-75.77
-71.43
-65.25
-57.36
-48.55
-39.79
-31.83
-24.93
-18.78
-12.74
-6.11
1.54
10.23
19.54
28.80
37.42
45.21
52.58
60.40
69.51
80.24
91.97
103.21
112.03
116.75
116.40
111.01
101.50
89.49
76.98
66.13
58.92
56.70
59.87
67.45
77.23
86.30
91.94
92.54
88.13
80.20
70.87
61.91
54.04
46.87
39.51
31.29
22.34
13.43
5.37
-1.40
-6.98
-11.63
-15.35
-17.73
-18.32
-17.06
-14.60
-12.14
-10.86
-11.42
-13.71
-17.06
-20.67
-24.02
-26.98
-29.77
-32.79
-36.46
-41.12
-46.97
-53.97
-61.77
-69.77
-77.14
-83.06
-86.84
-88.12
-86.90
-83.42
-78.10
-71.25
-62.97
-53.18
-41.82
-28.98
-15.13
-1.00
12.54
24.69
34.70
41.90
45.60
45.28
40.87
32.98
22.92
12.29
2.51
-5.69
-12.23
-17.47
-21.68
-24.80
-26.48
-26.43
-24.70
-21.72
-18.02
-13.93
-9.44
-4.37
1.28
7.10
12.26
15.88
17.38
16.83
14.85
12.38
10.24
8.89
8.33
8.20
8.05
7.48
6.31
4.59
2.61
0.85
-0.16
0.04
1.73
4.89
9.28
14.45
19.95
25.39
30.54
35.28
39.58
43.45
46.91
49.93
52.45
54.41
55.76
56.52
56.86
56.98
57.06
57.09
56.80
55.68
53.10
48.55
41.84
33.17
23.11
12.44
1.89
-7.98
-16.81
-24.43
-30.82
-36.02
-40.21
-43.62
-46.61
-49.46
-52.37
-55.27
-57.84
-59.63
-60.22
-59.42
-57.25
-53.99
-49.97
-45.42
-40.40
-34.84
-28.64
-21.85
-14.71
-7.70
-1.34
3.91
7.80
10.28
11.41
11.30
9.48
5.72
0.29
-6.02
-12.37
-18.21
-23.31
-27.60
-30.91
-33.59
-35.64
-36.69
-36.24
-34.16
-30.89
-27.14
-23.44
-19.71
-16.86
-15.14
-13.89
-11.93
-8.47
-3.60
2.11
8.04
14.16
16.70
13.13
3.81
-8.21
-19.35
-27.13
-29.92
-26.59
-15.71
-4.74
0.78
1.21
2.48
10.73
27.90
51.13
74.15
91.13
84.28
43.17
-28.80
-116.51
-203.40
-279.49
-342.18
-394.03
-437.12
-491.21
-569.78
-672.44
-786.65
-898.75
-1001.60
-1094.26
-1179.56
-1158.45
-981.76
-673.72
-318.02
6.92
265.55
457.30
596.62
685.29
746.06
775.52
768.91
730.87
676.07
619.23
567.11
526.61
496.09
474.06
443.34
391.85
319.32
236.40
155.83
85.85
29.27
-15.80
-50.79
-87.64
-135.55
-197.00
-267.94
-342.06
-413.35
-475.44
-521.77
-544.45
-543.42
-522.05
-485.65
-439.82
-389.91
-339.98
-291.87
-246.08
-201.79
-160.83
-125.23
-95.74
-70.99
-48.28
-24.81
1.15
29.46
58.88
87.17
112.42
133.94
152.39
169.45
187.03
206.50
228.05
250.89
273.71
295.35
315.27
333.78
351.85
370.78
391.88
416.25
444.44
476.06
509.48
542.05
570.81
593.65
610.03
621.00
628.33
633.29
636.00
635.62
631.08
621.87
608.14
590.21
568.05
541.15
508.95
471.60
430.33
387.08
343.86
302.01
262.07
224.11
188.46
156.05
128.41
107.03
92.46
83.85
78.86
74.42
67.75
57.29
43.08
26.34
8.58
-9.17
-26.61
-43.83
-60.72
-76.69
-90.94
-103.10
-113.64
-123.92
-135.61
-149.81
-166.54
-184.71
-202.59
-218.82
-233.14
-246.57
-261.09
-278.71
-300.53
-326.28
-354.53
-383.37
-411.30
-437.95
-464.07
-491.27
-521.65
-557.43
-600.33
-650.52
-705.36
-758.82
-802.18
-826.35
-825.13
-797.58
-748.51
-686.47
-620.52
-557.22
-499.49
-447.43
-400.15
-357.23
-319.08
-286.14
-257.96
-232.90
-208.74
-183.72
-157.34
-130.37
-104.47
-81.20
-61.26
-44.24
-28.94
-13.93
1.69
17.93
33.94
48.36
59.99
68.25
73.31
75.94
77.10
77.50
77.36
76.43
74.21
70.28
64.56
57.40
49.44
41.46
34.05
27.58
22.06
17.30
13.08
9.21
5.72
2.79
0.70
-0.23
0.18
1.93
4.82
8.54
12.74
17.26
22.14
27.67
34.20
42.00
51.08
61.10
71.44
81.50
90.93
99.78
108.55
117.91
128.39
140.13
152.78
165.72
178.30
190.24
201.73
213.32
225.73
239.65
255.74
274.55
296.23
320.03
343.88
364.40
377.68
380.73
372.74
355.58
333.05
309.20
286.83
266.79
248.58
231.53
215.73
202.04
191.33
183.48
177.06
169.92
160.32
147.76
133.26
118.70
105.84
95.48
87.36
80.49
73.92
67.14
60.19
53.49
47.41
42.06
37.32
32.97
28.93
25.27
22.00
18.95
15.64
11.53
6.27
-0.05
-6.85
-13.37
-18.98
-23.34
-26.42
-28.46
-29.94
-31.60
-34.33
-38.89
-45.53
-53.60
-61.67
-67.85
-70.50
-68.72
-62.60
-52.98
-41.06
-28.00
-14.74
-2.00
9.62
19.60
27.62
33.52
37.41
39.57
40.45
40.56
40.43
40.44
40.62
40.58
39.49
36.40
30.69
22.46
12.70
2.97
-5.18
-10.82
-13.95
-15.36
-16.07
-16.74
-17.40
-17.59
-16.83
-15.13
-13.09
-11.72
-11.91
-14.03
-17.73
-22.06
-25.91
-28.62
-30.21
-31.37
-33.00
-35.71
-39.36
-43.13
-45.92
-46.85
-45.54
-42.05
-36.56
-29.12
-19.67
-8.36
4.19
16.81
28.15
37.08
43.06
46.21
47.05
46.23
44.35
42.01
39.78
38.20
37.51
37.49
37.48
36.63
34.28
30.25
24.87
18.80
12.82
7.57
3.56
1.11
0.35
1.15
3.10
5.57
7.83
9.33
9.82
9.37
8.15
6.32
3.85
0.60
-3.55
-8.56
-14.11
-19.74
-24.91
-29.16
-32.28
-34.32
-35.56
-36.39
-37.12
-37.82
-38.33
-38.29
-37.24
-34.79
-30.72
-25.05
-18.03
-10.19
-2.21
5.23
11.52
16.35
19.71
21.89
23.32
24.34
25.11
25.55
25.46
24.70
23.26
21.37
19.35
17.58
16.33
15.67
15.46
15.39
15.02
13.87
11.54
7.74
2.47
-4.04
-11.21
-18.32
-24.63
-29.68
-33.52
-36.70
-40.15
-44.66
-50.54
-57.29
-63.78
-68.65
-70.81
-69.80
-65.78
-59.20
-50.57
-40.25
-28.57
-16.10
-3.74
7.39
16.35
22.72
26.74
29.08
30.42
31.07
30.84
29.14
25.42
19.55
12.07
4.14
-2.68
-6.79
-6.93
-2.54
6.12
17.95
31.19
43.74
53.70
59.80
61.79
60.57
57.91
55.93
56.40
60.10
66.65
74.75
82.75
89.32
93.77
96.13
96.89
96.59
95.61
94.18
92.48
90.82
89.70
89.68
91.14
94.21
98.73
104.55
111.81
121.03
132.90
147.81
165.28
183.67
200.37
212.44
217.37
213.69
201.23
180.93
154.44
123.82
91.28
59.09
29.30
3.51
-17.46
-33.72
-46.14
-55.88
-63.92
-70.69
-76.03
-79.43
-80.45
-79.03
-75.76
-71.73
-68.37
-67.06
-68.83
-74.11
-82.68
-93.78
-106.27
-118.84
-130.19
-139.28
-145.51
-148.80
-149.65
-148.89
-147.32
-145.42
-143.15
-140.11
-135.80
-129.91
-122.45
-113.72
-104.18
-94.43
-85.16
-77.12
-70.98
-67.15
-65.61
-65.90
-67.32
-69.21
-71.15
-73.05
-75.04
-77.24
-79.70
-82.34
-84.94
-87.25
-88.88
-89.32
-88.01
-84.52
-78.74
-71.03
-62.20
-53.24
-44.96
-37.78
-31.72
-26.55
-22.13
-18.54
-15.96
-14.58
-14.34
-14.93
-15.93
-16.86
-17.39
-17.25
-16.28
-14.36
-11.46
-7.63
-2.98
2.38
8.51
15.61
23.97
33.70
44.66
56.42
68.38
80.00
90.87
100.77
109.55
117.08
123.08
127.26
129.19
128.57
125.30
119.53
111.63
102.01
90.75
77.42
61.02
40.30
14.41
-16.38
-50.34
-84.40
-114.85
-138.32
-152.67
-157.47
-154.02
-144.91
-133.28
-122.06
-113.40
-108.35
-106.92
-108.33
-111.31
-114.54
-116.82
-117.32
-115.68
-112.09
-107.17
-101.77
-96.56
-91.74
-86.90
-81.24
-73.93
-64.41
-52.52
-38.45
-22.61
-5.68
11.40
27.28
40.27
48.66
50.98
46.15
33.55
13.02
-14.89
-48.48
-84.38
-117.69
-142.85
-155.20
-152.46
-135.34
-107.06
-71.98
-34.22
2.96
37.11
66.17
88.27
102.20
108.19
108.23
105.58
103.61
104.38
108.03
113.04
117.19
118.65
116.58
110.79
101.34
87.96
70.03
47.02
19.12
-12.38
-44.99
-75.58
-101.05
-119.14
-128.79
-130.26
-124.68
-113.59
-98.44
-80.27
-59.66
-36.82
-11.86
14.87
42.56
69.93
95.57
118.32
137.68
153.97
168.10
181.05
193.39
204.90
214.62
221.20
223.38
220.39
212.13
199.18
182.61
163.77
144.06
124.79
106.95
91.06
77.10
64.49
52.29
39.55
25.71
10.78
-4.57
-19.34
-32.52
-43.44
-51.83
-57.77
-61.42
-62.99
-62.66
-60.71
-57.52
-53.59
-49.38
-45.20
-41.10
-36.95
-32.53
-27.74
-22.68
-17.70
-13.24
-9.75
-7.44
-6.31
-6.05
-6.27
-6.56
-6.68
-6.56
-6.32
-6.17
-6.36
-7.15
-8.74
-11.26
-14.74
-18.96
-23.60
-28.24
-32.47
-36.02
-38.80
-40.84
-42.24
-43.12
-43.68
-44.12
-44.69
-45.68
-47.29
-49.64
-52.65
-56.09
-59.51
-62.38
-64.13
-64.29
-62.62
-59.16
-54.28
-48.48
-42.35
-36.31
-30.69
-25.56
-20.89
-16.51
-12.26
-8.06
-3.95
-0.17
2.97
5.19
6.40
6.71
6.39
5.71
4.93
4.17
3.60
3.50
4.20
6.09
9.36
13.92
19.38
25.14
30.59
35.30
39.10
42.04
44.34
46.23
47.91
49.49
51.07
52.69
54.36
55.98
57.31
58.00
57.67
56.09
53.33
49.89
46.59
44.34
43.75
44.79
46.68
48.06
47.48
43.88
36.92
27.04
15.14
2.37
-10.26
-21.89
-31.86
-39.76
-45.42
-49.00
-50.96
-51.94
-52.54
-53.18
-54.09
-55.29
-56.74
-58.34
-59.78
-60.44
-59.43
-55.73
-48.53
-37.66
-23.94
-9.13
4.36
14.09
18.28
16.30
8.91
-2.02
-14.02
-24.82
-33.01
-38.36
-41.63
-43.96
-46.15
-48.31
-49.89
-50.30
-49.38
-47.55
-45.50
-43.61
-41.56
-38.54
-33.80
-27.34
-20.07
-13.53
-9.05
-7.15
-7.29
-8.21
-8.57
-7.55
-5.12
-1.81
1.60
4.57
6.92
8.85
10.68
12.61
14.57
16.20
17.05
16.72
15.00
11.94
7.79
2.93
-2.25
-7.44
-12.38
-16.92
-20.98
-24.50
-27.43
-29.75
-31.51
-32.87
-34.13
-35.59
-37.51
-40.04
-43.11
-46.51
-49.86
-52.72
-54.68
-55.37
-54.55
-52.11
-48.12
-42.79
-36.48
-29.56
-22.39
-15.18
-8.00
-0.89
6.07
12.65
18.56
23.46
27.17
29.69
31.25
32.13
32.60
32.81
32.82
32.60
32.13
31.45
30.60
29.66
28.66
27.56
26.29
24.76
22.88
20.63
18.05
15.21
12.18
9.03
5.80
2.53
-0.75
-4.01
-7.29
-10.71
-14.45
-18.69
-23.50
-28.72
-33.95
-38.60
-41.99
-43.60
-43.17
-40.74
-36.68
-31.42
-25.41
-18.97
-12.30
-5.51
1.25
7.85
14.16
20.01
25.28
29.79
33.36
35.82
37.11
37.34
36.76
35.75
34.66
33.76
33.14
32.70
32.25
31.59
30.57
29.13
27.28
25.10
22.71
20.21
17.70
15.21
12.71
10.18
7.57
4.84
1.98
-0.98
-4.03
-7.16
-10.40
-13.85
-17.59
-21.78
-26.48
-31.62
-36.93
-41.91
-45.90
-48.21
-48.42
-46.45
-42.60
-37.40
-31.41
-25.07
-18.61
-12.11
-5.59
0.89
7.22
13.22
18.67
23.33
26.99
29.55
30.99
31.47
31.22
30.54
29.68
28.82
28.02
27.25
26.43
25.48
24.38
23.08
21.60
19.87
17.81
15.35
12.44
9.21
5.82
2.50
-0.66
-3.71
-6.78
-10.03
-13.50
-17.11
-20.74
-24.34
-27.93
-31.59
-35.25
-38.65
-41.33
-42.77
-42.57
-40.58
-36.95
-32.02
-26.22
-19.90
-13.34
-6.72
-0.21
6.08
12.00
17.39
22.12
26.04
29.09
31.26
32.61
33.24
33.29
32.87
32.11
31.12
30.00
28.83
27.69
26.58
25.47
24.27
22.92
21.38
19.66
17.78
15.76
13.56
11.16
8.50
5.63
2.58
-0.56
-3.71
-6.84
-9.99
-13.23
-16.64
-20.29
-24.24
-28.52
-33.05
-37.57
-41.64
-44.67
-46.06
-45.44
-42.73
-38.21
-32.40
-25.88
-19.16
-12.55
-6.23
-0.27
5.33
10.56
15.40
19.84
23.78
27.11
29.71
31.48
32.40
32.52
31.98
30.98
29.75
28.54
27.55
26.85
26.42
26.13
25.77
25.16
24.15
22.71
20.89
18.78
16.53
14.29
12.19
10.29
8.58
6.92
5.11
2.97
0.41
-2.54
-5.66
-8.71
-11.55
-14.18
-16.86
-19.96
-23.80
-28.44
-33.57
-38.53
-42.47
-44.64
-44.55
-42.06
-37.29
-30.61
-22.56
-13.90
-5.52
1.70
7.21
10.95
13.42
15.35
17.37
19.72
22.11
24.05
25.12
25.23
24.61
23.66
22.73
21.97
21.33
20.69
19.96
19.09
18.08
16.93
15.65
14.16
12.42
10.39
8.11
5.71
3.34
1.18
-0.71
-2.41
-4.07
-5.88
-7.91
-10.16
-12.53
-14.98
-17.50
-20.18
-23.06
-26.06
-28.89
-31.10
-32.25
-32.03
-30.43
-27.65
-24.02
-19.79
-15.11
-10.05
-4.69
0.73
5.89
10.41
14.07
16.80
18.73
20.08
21.00
21.63
22.03
22.27
22.35
22.26
21.92
21.24
20.21
18.94
17.68
16.67
16.06
15.75
15.47
14.90
13.84
12.31
10.52
8.74
7.10
5.59
4.06
2.37
0.48
-1.55
-3.60
-5.62
-7.63
-9.74
-12.05
-14.56
-17.21
-19.91
-22.65
-25.44
-28.31
-31.14
-33.64
-35.39
-35.97
-35.11
-32.76
-29.13
-24.58
-19.55
-14.45
-9.56
-5.03
-0.87
3.00
6.63
10.05
13.22
16.01
18.33
20.14
21.42
22.18
22.41
22.16
21.46
20.52
19.55
18.78
18.33
18.16
18.05
17.74
17.02
15.84
14.30
12.60
10.94
9.44
8.08
6.75
5.30
3.56
1.53
-0.72
-2.97
-5.01
-6.71
-8.10
-9.42
-10.99
-13.12
-15.95
-19.39
-23.05
-26.46
-29.03
-30.26
-29.79
-27.44
-23.37
-18.03
-12.16
-6.53
-1.72
2.08
5.10
7.79
10.58
13.63
16.75
19.59
21.81
23.27
24.08
24.48
24.70
24.77
24.62
24.10
23.17
21.95
20.68
19.62
18.89
18.43
17.99
17.25
15.97
14.12
11.89
9.59
7.55
5.93
4.71
3.65
2.51
1.07
-0.69
-2.66
-4.70
-6.65
-8.45
-10.10
-11.59
-12.93
-14.12
-15.28
-16.57
-18.22
-20.37
-22.92
-25.53
-27.69
-28.89
-28.82
-27.44
-24.98
-21.78
-18.14
-14.19
-10.01
-5.59
-1.03
3.51
7.73
11.37
14.25
16.37
17.90
19.05
20.01
20.85
21.53
21.94
22.00
21.72
21.19
20.51
19.75
18.91
17.93
16.78
15.50
14.15
12.81
11.49
10.16
8.74
7.16
5.44
3.60
1.73
-0.15
-2.06
-4.06
-6.22
-8.58
-11.12
-13.78
-16.42
-18.89
-21.03
-22.63
-23.52
-23.54
-22.63
-20.84
-18.28
-15.16
-11.65
-7.89
-4.00
-0.01
4.00
8.01
11.94
15.67
18.99
21.66
23.49
24.43
24.64
24.45
24.23
24.17
24.28
24.35
24.14
23.51
22.56
21.48
20.50
19.68
18.89
17.94
16.67
15.09
13.35
11.72
10.38
9.37
8.57
7.72
6.60
5.13
3.34
1.41
-0.46
-2.18
-3.76
-5.35
-7.11
-9.18
-11.55
-14.14
-16.87
-19.63
-22.40
-25.10
-27.55
-29.45
-30.48
-30.40
-29.16
-26.88
-23.83
-20.24
-16.29
-12.11
-7.78
-3.44
0.76
4.69
8.24
11.36
14.02
16.19
17.88
19.18
20.20
21.06
21.82
22.46
22.85
22.91
22.58
21.94
21.14
20.30
19.49
18.64
17.64
16.37
14.79
12.97
11.04
9.12
7.29
5.55
3.89
2.24
0.55
-1.21
-3.06
-5.00
-6.96
-8.89
-10.76
-12.57
-14.38
-16.29
-18.36
-20.57
-22.85
-25.09
-27.18
-29.02
-30.50
-31.46
-31.76
-31.24
-29.90
-27.85
-25.27
-22.34
-19.12
-15.55
-11.54
-7.14
-2.55
1.82
5.54
8.37
10.37
11.83
13.16
14.64
16.24
17.71
18.66
18.84
18.32
17.43
16.60
16.17
16.18
16.38
16.44
16.05
15.15
13.81
12.20
10.43
8.53
6.48
4.34
2.20
0.25
-1.39
-2.73
-3.91
-5.14
-6.61
-8.49
-10.79
-13.46
-16.30
-19.06
-21.44
-23.13
-23.94
-23.72
-22.44
-20.15
-16.92
-12.92
-8.43
-3.76
0.75
4.90
8.62
12.00
15.14
18.02
20.49
22.30
23.28
23.44
22.96
22.16
21.32
20.60
20.04
19.59
19.19
18.80
18.38
17.86
17.15
16.23
15.08
13.81
12.55
11.42
10.41
9.44
8.37
7.06
5.49
3.74
1.91
0.13
-1.52
-3.04
-4.47
-5.87
-7.28
-8.75
-10.32
-12.03
-13.96
-16.19
-18.76
-21.57
-24.38
-26.85
-28.65
-29.57
-29.61
-28.91
-27.65
-25.95
-23.76
-21.02
-17.66
-13.77
-9.52
-5.15
-0.89
3.17
6.94
10.36
13.28
15.55
17.03
17.71
17.71
17.27
16.72
16.27
16.06
16.02
16.03
15.86
15.40
14.61
13.57
12.44
11.34
10.33
9.39
8.43
7.36
6.13
4.75
3.27
1.73
0.16
-1.46
-3.16
-4.94
-6.79
-8.66
-10.52
-12.42
-14.40
-16.53
-18.87
-21.30
-23.65
-25.63
-26.98
-27.54
-27.26
-26.20
-24.45
-22.08
-19.12
-15.61
-11.66
-7.47
-3.33
0.48
3.78
6.52
8.78
10.67
12.28
13.58
14.51
15.00
15.06
14.79
14.37
13.94
13.58
13.31
13.08
12.88
12.64
12.35
11.96
11.45
10.82
10.05
9.16
8.14
6.96
5.59
4.04
2.37
0.67
-0.94
-2.44
-3.89
-5.38
-6.96
-8.58
-10.13
-11.47
-12.55
-13.44
-14.30
-15.29
-16.56
-18.13
-19.96
-21.93
-23.82
-25.40
-26.44
-26.76
-26.29
-25.02
-23.03
-20.45
-17.36
-13.89
-10.19
-6.44
-2.81
0.56
3.58
6.23
8.51
10.42
11.96
13.16
14.05
14.70
15.16
15.46
15.58
15.53
15.33
15.02
14.65
14.25
13.81
13.28
12.60
11.76
10.76
9.65
8.46
7.19
5.81
4.31
2.62
0.74
-1.31
-3.45
-5.58
-7.59
-9.42
-11.07
-12.61
-14.14
-15.71
-17.35
-18.94
-20.33
-21.33
-21.73
-21.39
-20.24
-18.28
-15.63
-12.45
-8.95
-5.34
-1.80
1.53
4.55
7.22
9.58
11.68
13.60
15.37
16.96
18.27
19.18
19.65
19.63
19.20
18.46
17.54
16.56
15.68
14.97
14.47
14.11
13.75
13.22
12.44
11.40
10.20
9.00
7.89
6.88
5.88
4.69
3.16
1.23
-1.05
-3.49
-5.85
-7.93
-9.66
-11.05
-12.24
-13.41
-14.71
-16.25
-18.11
-20.21
-22.46
-24.64
-26.55
-28.00
-28.86
-29.08
-28.63
-27.54
-25.80
-23.43
-20.51
-17.18
-13.58
-9.85
-6.07
-2.27
1.47
5.06
8.32
11.09
13.27
14.87
15.99
16.73
17.15
17.26
17.03
16.48
15.71
14.88
14.14
13.53
12.97
12.29
11.39
10.26
9.00
7.76
6.59
5.42
4.07
2.40
0.37
-1.85
-4.02
-5.95
-7.51
-8.80
-9.97
-11.23
-12.68
-14.34
-16.20
-18.17
-20.16
-22.01
-23.60
-24.80
-25.52
-25.73
-25.39
-24.49
-23.00
-20.89
-18.16
-14.89
-11.24
-7.42
-3.70
-0.23
2.86
5.57
7.91
9.90
11.52
12.78
13.68
14.25
14.55
14.66
14.63
14.49
14.28
14.07
13.91
13.84
13.83
13.78
13.53
12.94
11.93
10.53
8.84
7.04
5.29
3.72
2.39
1.26
0.23
-0.80
-1.94
-3.22
-4.63
-6.11
-7.64
-9.25
-11.03
-13.03
-15.24
-17.51
-19.64
-21.35
-22.42
-22.68
-22.02
-20.40
-17.85
-14.52
-10.64
-6.53
-2.47
1.39
5.02
8.46
11.74
14.80
17.47
19.59
21.06
21.92
22.27
22.24
21.91
21.31
20.46
19.45
18.39
17.40
16.61
16.02
15.61
15.22
14.69
13.90
12.78
11.39
9.86
8.33
6.86
5.40
3.87
2.20
0.41
-1.39
-3.08
-4.63
-6.10
-7.59
-9.18
-10.87
-12.59
-14.29
-16.02
-17.89
-20.01
-22.38
-24.82
-27.04
-28.70
-29.60
-29.62
-28.78
-27.11
-24.62
-21.36
-17.41
-12.99
-8.38
-3.87
0.33
4.11
7.48
10.47
13.09
15.31
17.08
18.37
19.16
19.52
19.49
19.16
18.62
17.93
17.16
16.37
15.61
14.91
14.29
13.73
13.15
12.44
11.49
10.26
8.77
7.15
5.52
3.94
2.44
0.96
-0.50
-1.97
-3.43
-4.92
-6.53
-8.34
-10.44
-12.86
-15.54
-18.35
-21.10
-23.54
-25.46
-26.66
-27.05
-26.66
-25.59
-23.95
-21.78
-19.07
-15.80
-11.96
-7.69
-3.23
1.16
5.24
8.85
11.89
14.31
16.07
17.18
17.66
17.67
17.40
17.08
16.80
16.58
16.30
15.81
15.03
14.02
12.93
11.97
11.28
10.85
10.51
10.06
9.34
8.29
6.97
5.44
3.79
2.03
0.20
-1.62
-3.30
-4.68
-5.68
-6.39
-7.04
-7.91
-9.22
-11.03
-13.19
-15.44
-17.57
-19.47
-21.18
-22.81
-24.41
-25.96
-27.31
-28.31
-28.78
-28.65
-27.84
-26.33
-24.08
-21.11
-17.49
-13.37
-9.01
-4.68
-0.62
3.00
6.11
8.71
10.85
12.61
14.03
15.13
15.88
16.26
16.25
15.91
15.34
14.67
14.03
13.48
13.05
12.70
12.35
11.91
11.29
10.41
9.26
7.85
6.33
4.85
3.53
2.42
1.40
0.29
-1.12
-2.94
-5.16
-7.64
-10.21
-12.69
-14.96
-16.88
-18.33
-19.15
-19.26
-18.63
-17.31
-15.42
-13.05
-10.26
-7.09
-3.56
0.21
4.08
7.81
11.18
14.03
16.32
18.07
19.33
20.19
20.65
20.72
20.39
19.74
18.87
17.90
16.97
16.12
15.36
14.68
14.05
13.42
12.73
11.90
10.90
9.77
8.57
7.41
6.31
5.23
4.03
2.58
0.85
-1.05
-2.92
-4.57
-5.91
-7.00
-8.05
-9.25
-10.79
-12.71
-14.95
-17.39
-19.92
-22.41
-24.76
-26.89
-28.62
-29.80
-30.25
-29.88
-28.68
-26.67
-23.98
-20.72
-17.05
-13.11
-9.05
-5.00
-1.07
2.69
6.23
9.50
12.41
14.86
16.77
18.12
18.97
19.40
19.50
19.31
18.86
18.20
17.44
16.67
15.99
15.39
14.79
14.03
12.99
11.63
10.00
8.26
6.58
5.05
3.66
2.31
0.87
-0.73
-2.53
-4.45
-6.39
-8.27
-10.02
-11.61
-13.08
-14.52
-16.08
-17.87
-19.93
-22.13
-24.20
-25.83
-26.73
-26.74
-25.84
-24.09
-21.59
-18.45
-14.77
-10.70
-6.41
-2.07
2.19
6.27
10.06
13.40
16.11
18.05
19.21
19.71
19.78
19.66
19.49
19.33
19.13
18.82
18.34
17.69
16.92
16.07
15.15
14.16
13.07
11.84
10.51
9.10
7.68
6.26
4.87
3.51
2.21
1.00
-0.12
-1.21
-2.41
-3.85
-5.60
-7.59
-9.65
-11.63
-13.47
-15.20
-16.94
-18.80
-20.81
-22.91
-25.05
-27.15
-29.13
-30.84
-32.09
-32.64
-32.30
-30.99
-28.73
-25.68
-21.96
-17.69
-13.01
-8.06
-3.06
1.72
6.03
9.73
12.79
15.27
17.22
18.67
19.60
19.97
19.84
19.35
18.75
18.26
17.99
17.95
17.94
17.77
17.29
16.46
15.40
14.31
13.32
12.47
11.64
10.63
9.25
7.41
5.17
2.74
0.32
-1.94
-3.98
-5.88
-7.75
-9.70
-11.79
-14.02
-16.40
-18.87
-21.33
-23.59
-25.38
-26.41
-26.44
-25.37
-23.25
-20.27
-16.67
-12.65
-8.36
-3.86
0.76
5.40
9.87
13.95
17.42
20.13
22.06
23.26
23.86
24.03
23.93
23.62
23.16
22.56
21.83
21.04
20.27
19.57
18.97
18.37
17.66
16.76
15.62
14.28
12.80
11.23
9.59
7.85
5.99
4.03
2.02
0.01
-1.95
-3.87
-5.72
-7.51
-9.20
-10.81
-12.36
-13.90
-15.50
-17.25
-19.22
-21.48
-24.00
-26.70
-29.39
-31.82
-33.73
-34.90
-35.20
-34.56
-32.98
-30.43
-26.93
-22.56
-17.50
-12.02
-6.43
-1.01
4.03
8.56
12.50
15.80
18.42
20.39
21.77
22.70
23.30
23.61
23.65
23.41
22.91
22.26
21.57
20.95
20.38
19.77
18.96
17.91
16.66
15.38
14.22
13.21
12.26
11.16
9.71
7.82
5.56
3.08
0.59
-1.80
-4.04
-6.16
-8.24
-10.33
-12.43
-14.55
-16.69
-18.85
-21.10
-23.47
-25.98
-28.55
-31.03
-33.15
-34.63
-35.26
-34.95
-33.70
-31.55
-28.56
-24.78
-20.28
-15.24
-9.93
-4.67
0.25
4.62
8.38
11.52
14.12
16.26
18.03
19.47
20.60
21.35
21.68
21.56
21.06
20.33
19.51
18.74
18.01
17.26
16.42
15.41
14.25
12.95
11.56
10.07
8.50
6.81
4.98
3.04
1.03
-0.97
-2.92
-4.83
-6.72
-8.61
-10.53
-12.49
-14.52
-16.68
-19.03
-21.53
-23.98
-26.05
-27.35
-27.59
-26.69
-24.71
-21.86
-18.30
-14.16
-9.55
-4.61
0.41
5.23
9.61
13.44
16.71
19.45
21.70
23.44
24.68
25.45
25.86
25.99
25.87
25.44
24.65
23.47
22.00
20.44
19.02
17.88
17.00
16.29
15.56
14.69
13.62
12.33
10.80
9.06
7.11
5.00
2.81
0.62
-1.49
-3.47
-5.31
-7.03
-8.70
-10.39
-12.16
-14.07
-16.10
-18.30
-20.66
-23.23
-25.98
-28.83
-31.58
-33.92
-35.53
-36.13
-35.55
-33.76
-30.83
-26.92
-22.22
-16.98
-11.46
-5.90
-0.55
4.39
8.82
12.68
15.95
18.64
20.77
22.34
23.35
23.80
23.76
23.35
22.72
22.06
21.45
20.93
20.45
19.88
19.13
18.16
16.99
15.67
14.23
12.66
10.94
9.05
7.05
5.04
3.11
1.30
-0.46
-2.28
-4.26
-6.42
-8.70
-10.95
-13.05
-14.96
-16.77
-18.67
-20.85
-23.44
-26.33
-29.26
-31.83
-33.59
-34.20
-33.55
-31.70
-28.85
-25.25
-21.07
-16.41
-11.34
-5.99
-0.57
4.65
9.40
13.51
16.93
19.72
21.96
23.72
25.00
25.76
26.02
25.84
25.32
24.65
23.97
23.33
22.72
22.04
21.18
20.07
18.71
17.16
15.52
13.86
12.21
10.55
8.89
7.21
5.52
3.83
2.15
0.47
-1.22
-2.92
-4.62
-6.31
-7.98
-9.65
-11.32
-13.01
-14.76
-16.58
-18.50
-20.55
-22.75
-25.08
-27.50
-29.90
-32.11
-33.92
-35.13
-35.54
-35.06
-33.60
-31.20
-27.95
-24.00
-19.54
-14.82
-10.04
-5.36
-0.90
3.26
7.05
10.39
13.22
15.51
17.30
18.68
19.71
20.43
20.82
20.86
20.56
19.96
19.15
18.23
17.27
16.32
15.42
14.58
13.82
13.05
12.19
11.10
9.68
7.90
5.82
3.58
1.35
-0.73
-2.59
-4.20
-5.63
-7.00
-8.48
-10.27
-12.52
-15.26
-18.33
-21.37
-23.93
-25.57
-26.03
-25.28
-23.51
-20.99
-17.93
-14.43
-10.48
-6.03
-1.14
4.02
9.15
13.90
17.95
21.11
23.34
24.70
25.39
25.60
25.52
25.31
25.04
24.76
24.42
23.97
23.35
22.55
21.56
20.46
19.28
18.07
16.79
15.41
13.93
12.36
10.70
8.97
7.10
5.02
2.75
0.36
-2.01
-4.21
-6.17
-7.93
-9.62
-11.36
-13.24
-15.29
-17.51
-19.87
-22.35
-24.91
-27.43
-29.79
-31.87
-33.62
-35.03
-36.13
-36.87
-37.09
-36.57
-35.01
-32.19
-28.02
-22.66
-16.47
-9.86
-3.26
3.03
8.86
14.18
18.93
23.06
26.49
29.14
30.98
31.98
32.21
31.75
30.72
29.26
27.54
25.69
23.77
21.83
19.83
17.81
15.87
14.11
12.64
11.50
10.59
9.76
8.86
7.77
6.46
4.95
3.28
1.44
-0.63
-3.01
-5.72
-8.74
-11.97
-15.29
-18.57
-21.76
-24.82
-27.76
-30.52
-33.04
-35.22
-36.96
-38.21
-38.90
-38.94
-38.20
-36.53
-33.84
-30.15
-25.63
-20.55
-15.22
-9.89
-4.74
0.12
4.60
8.63
12.09
14.92
17.10
18.68
19.74
20.38
20.66
20.64
20.39
19.96
19.45
18.92
18.44
18.01
17.58
17.06
16.35
15.35
13.99
12.25
10.17
7.81
5.25
2.57
-0.17
-2.96
-5.76
-8.53
-11.22
-13.74
-16.06
-18.19
-20.10
-21.78
-23.14
-24.01
-24.20
-23.54
-21.92
-19.32
-15.82
-11.56
-6.82
-1.93
2.80
7.10
10.87
14.12
16.95
19.39
21.41
22.91
23.83
24.19
24.14
23.90
23.62
23.34
22.96
22.36
21.43
20.16
18.67
17.06
15.46
13.88
12.31
10.69
8.96
7.10
5.14
3.09
0.94
-1.33
-3.75
-6.28
-8.89
-11.52
-14.16
-16.87
-19.71
-22.69
-25.73
-28.58
-30.89
-32.28
-32.47
-31.31
-28.81
-25.16
-20.65
-15.58
-10.25
-4.87
0.41
5.48
10.25
14.60
18.40
21.52
23.87
25.43
26.29
26.55
26.31
25.68
24.74
23.58
22.31
21.01
19.77
18.64
17.60
16.60
15.59
14.50
13.27
11.91
10.39
8.68
6.75
4.58
2.16
-0.46
-3.19
-5.92
-8.59
-11.16
-13.65
-16.15
-18.74
-21.55
-24.63
-27.90
-31.15
-34.07
-36.27
-37.42
-37.30
-35.87
-33.21
-29.51
-24.95
-19.76
-14.12
-8.28
-2.42
3.27
8.68
13.72
18.31
22.37
25.72
28.22
29.78
30.43
30.33
29.73
28.88
27.95
26.99
26.02
24.97
23.85
22.67
21.45
20.18
18.84
17.36
15.72
13.93
12.02
10.06
8.10
6.15
4.20
2.21
0.14
-2.06
-4.41
-6.83
-9.24
-11.53
-13.65
-15.59
-17.40
-19.17
-21.01
-23.01
-25.22
-27.64
-30.13
-32.41
-34.12
-34.84
-34.31
-32.49
-29.59
-25.93
-21.80
-17.39
-12.73
-7.81
-2.67
2.64
7.91
12.92
17.44
21.23
24.14
26.09
27.10
27.35
27.05
26.45
25.68
24.85
23.95
22.98
21.93
20.82
19.69
18.57
17.45
16.31
15.07
13.66
12.02
10.11
7.97
5.69
3.38
1.12
-1.05
-3.13
-5.17
-7.20
-9.24
-11.24
-13.20
-15.11
-16.99
-18.93
-21.00
-23.25
-25.65
-28.14
-30.54
-32.68
-34.37
-35.43
-35.73
-35.17
-33.70
-31.26
-27.91
-23.71
-18.86
-13.61
-8.26
-3.05
1.82
6.27
10.20
13.54
16.23
18.22
19.53
20.23
20.48
20.45
20.29
20.07
19.79
19.43
18.94
18.32
17.61
16.84
16.03
15.16
14.10
12.74
11.02
9.01
6.88
4.83
3.00
1.38
-0.16
-1.75
-3.46
-5.25
-7.06
-8.84
-10.67
-12.69
-15.02
-17.58
-20.12
-22.22
-23.48
-23.71
-22.96
-21.44
-19.38
-16.92
-14.06
-10.73
-6.89
-2.66
1.78
6.20
10.37
14.12
17.31
19.81
21.57
22.60
23.05
23.10
22.92
22.63
22.22
21.69
21.01
20.24
19.40
18.53
17.60
16.56
15.38
14.08
12.71
11.36
10.03
8.71
7.28
5.69
3.89
1.88
-0.28
-2.53
-4.77
-6.93
-8.93
-10.75
-12.45
-14.17
-16.03
-18.18
-20.60
-23.22
-25.83
-28.26
-30.34
-31.96
-33.01
-33.38
-32.99
-31.78
-29.73
-26.88
-23.28
-19.03
-14.29
-9.24
-4.11
0.88
5.51
9.62
13.11
15.90
18.00
19.47
20.44
21.05
21.44
21.68
21.78
21.69
21.38
20.82
20.02
19.06
18.01
16.97
15.99
15.08
14.23
13.36
12.42
11.34
10.05
8.53
6.74
4.72
2.53
0.29
-1.90
-3.97
-5.90
-7.71
-9.44
-11.15
-12.89
-14.69
-16.63
-18.73
-21.03
-23.50
-26.07
-28.58
-30.81
-32.47
-33.32
-33.18
-32.01
-29.96
-27.16
-23.77
-19.85
-15.42
-10.56
-5.43
-0.30
4.53
8.86
12.60
15.75
18.33
20.33
21.69
22.40
22.51
22.18
21.57
20.80
19.93
18.95
17.84
16.65
15.49
14.44
13.56
12.85
12.20
11.50
10.61
9.45
8.00
6.32
4.51
2.68
0.89
-0.87
-2.66
-4.55
-6.50
-8.46
-10.33
-12.03
-13.61
-15.18
-16.86
-18.68
-20.61
-22.60
-24.58
-26.51
-28.37
-30.04
-31.36
-32.11
-32.12
-31.24
-29.41
-26.63
-22.94
-18.48
-13.47
-8.21
-3.08
1.60
5.61
8.87
11.40
13.30
14.65
15.54
16.02
16.17
16.08
15.85
15.61
15.42
15.33
15.30
15.27
15.15
14.91
14.53
13.97
13.18
12.08
10.62
8.82
6.79
4.74
2.84
1.20
-0.22
-1.59
-3.09
-4.83
-6.83
-9.03
-11.37
-13.81
-16.33
-18.89
-21.30
-23.32
-24.66
-25.08
-24.47
-22.85
-20.38
-17.19
-13.46
-9.30
-4.83
-0.18
4.50
8.96
12.97
16.27
18.71
20.29
21.15
21.57
21.81
22.03
22.27
22.37
22.18
21.57
20.57
19.32
18.04
16.93
16.04
15.32
14.61
13.74
12.62
11.27
9.77
8.23
6.72
5.22
3.66
2.01
0.27
-1.46
-3.12
-4.67
-6.16
-7.72
-9.48
-11.53
-13.85
-16.34
-18.86
-21.31
-23.63
-25.80
-27.75
-29.37
-30.50
-30.95
-30.53
-29.12
-26.71
-23.39
-19.33
-14.75
-9.89
-4.93
0.00
4.80
9.38
13.62
17.37
20.48
22.86
24.49
25.42
25.73
25.51
24.86
23.86
22.68
21.46
20.37
19.47
18.71
17.98
17.12
16.02
14.68
13.17
11.57
9.94
8.29
6.58
4.82
3.01
1.19
-0.63
-2.44
-4.27
-6.12
-7.96
-9.75
-11.45
-13.09
-14.79
-16.72
-19.01
-21.65
-24.52
-27.37
-29.91
-31.91
-33.19
-33.66
-33.28
-31.98
-29.74
-26.49
-22.32
-17.36
-11.93
-6.36
-0.99
3.98
8.49
12.56
16.24
19.49
22.19
24.16
25.25
25.50
25.09
24.30
23.43
22.68
22.13
21.72
21.35
20.89
20.21
19.26
18.01
16.52
14.90
13.23
11.59
10.01
8.46
6.88
5.25
3.56
1.82
0.02
-1.91
-4.02
-6.30
-8.68
-11.00
-13.13
-15.01
-16.72
-18.42
-20.35
-22.63
-25.24
-28.05
-30.78
-33.20
-35.12
-36.38
-36.89
-36.53
-35.20
-32.82
-29.43
-25.13
-20.17
-14.80
-9.31
-3.90
1.25
6.01
10.27
13.89
16.78
18.89
20.25
21.02
21.38
21.54
21.58
21.52
21.27
20.72
19.83
18.66
17.36
16.07
14.89
13.83
12.81
11.72
10.46
9.03
7.43
5.71
3.92
2.10
0.25
-1.62
-3.47
-5.28
-7.04
-8.78
-10.60
-12.66
-15.09
-17.93
-21.05
-24.19
-26.95
-28.95
-29.92
-29.74
-28.46
-26.26
-23.32
-19.82
-15.84
-11.42
-6.60
-1.53
3.56
8.34
12.50
15.83
18.29
20.01
21.16
21.91
22.33
22.39
22.05
21.31
20.27
19.07
17.89
16.81
15.86
14.98
14.10
13.16
12.13
10.97
9.64
8.09
6.29
4.25
2.06
-0.21
-2.47
-4.68
-6.85
-8.98
-11.11
-13.28
-15.53
-17.95
-20.59
-23.44
-26.42
-29.31
-31.83
-33.67
-34.51
-34.13
-32.39
-29.30
-25.00
-19.79
-14.03
-8.10
-2.27
3.26
8.38
13.05
17.23
20.86
23.89
26.28
27.97
28.98
29.32
29.06
28.34
27.32
26.19
25.11
24.14
23.26
22.38
21.41
20.28
18.97
17.48
15.81
13.94
11.91
9.72
7.40
5.00
2.51
-0.03
-2.61
-5.16
-7.64
-10.04
-12.42
-14.89
-17.55
-20.46
-23.53
-26.57
-29.35
-31.58
-33.01
-33.41
-32.64
-30.66
-27.54
-23.48
-18.75
-13.61
-8.28
-2.91
2.38
7.53
12.49
17.15
21.38
24.98
27.79
29.66
30.61
30.76
30.35
29.64
28.80
27.95
27.11
26.30
25.56
24.89
24.28
23.62
22.79
21.71
20.39
18.91
17.35
15.79
14.22
12.65
11.08
9.55
8.07
6.61
5.03
3.20
1.03
-1.40
-3.98
-6.53
-8.98
-11.34
-13.69
-16.13
-18.69
-21.39
-24.18
-27.03
-29.81
-32.41
-34.61
-36.20
-36.96
-36.71
-35.31
-32.68
-28.85
-23.97
-18.31
-12.20
-5.98
0.07
5.76
10.97
15.61
19.60
22.88
25.40
27.15
28.16
28.53
28.37
27.82
27.00
26.01
24.90
23.69
22.42
21.14
19.88
18.64
17.40
16.09
14.65
13.06
11.35
9.54
7.64
5.65
3.58
1.45
-0.69
-2.83
-4.94
-7.06
-9.19
-11.31
-13.40
-15.40
-17.34
-19.31
-21.44
-23.85
-26.57
-29.46
-32.22
-34.43
-35.72
-35.79
-34.54
-32.07
-28.57
-24.26
-19.32
-13.91
-8.23
-2.52
2.93
7.89
12.23
15.96
19.12
21.80
23.97
25.59
26.63
27.06
26.94
26.33
25.34
24.09
22.76
21.50
20.41
19.51
18.71
17.85
16.79
15.46
13.89
12.19
10.51
8.97
7.61
6.34
5.04
3.56
1.79
-0.25
-2.44
-4.63
-6.69
-8.60
-10.46
-12.40
-14.54
-16.88
-19.36
-21.89
-24.45
-27.04
-29.65
-32.19
-34.39
-35.89
-36.38
-35.66
-33.81
-31.06
-27.70
-23.92
-19.77
-15.22
-10.24
-4.94
0.41
5.49
9.97
13.70
16.63
18.85
20.51
21.73
22.57
23.04
23.11
22.75
21.98
20.84
19.45
17.91
16.36
14.91
13.64
12.56
11.61
10.69
9.68
8.55
7.31
6.03
4.77
3.53
2.24
0.87
-0.62
-2.21
-3.85
-5.53
-7.21
-8.89
-10.59
-12.32
-14.12
-16.08
-18.26
-20.68
-23.25
-25.79
-28.04
-29.76
-30.78
-30.98
-30.33
-28.84
-26.54
-23.51
-19.87
-15.73
-11.23
-6.51
-1.70
3.05
7.57
11.66
15.14
17.84
19.71
20.81
21.32
21.46
21.40
21.19
20.83
20.28
19.55
18.73
17.91
17.13
16.33
15.37
14.14
12.64
10.96
9.26
7.65
6.12
4.58
2.94
1.19
-0.64
-2.47
-4.30
-6.22
-8.36
-10.78
-13.44
-16.16
-18.77
-21.16
-23.31
-25.21
-26.82
-28.01
-28.61
-28.49
-27.59
-25.92
-23.54
-20.50
-16.86
-12.66
-8.03
-3.14
1.80
6.55
10.92
14.69
17.73
19.95
21.39
22.16
22.45
22.42
22.20
21.84
21.34
20.71
19.97
19.16
18.31
17.44
16.57
15.70
14.85
13.96
13.00
11.90
10.65
9.30
7.91
6.54
5.16
3.70
2.02
0.07
-2.11
-4.37
-6.57
-8.60
-10.47
-12.25
-14.04
-15.85
-17.71
-19.62
-21.60
-23.73
-26.03
-28.43
-30.75
-32.70
-33.99
-34.41
-33.85
-32.30
-29.86
-26.63
-22.71
-18.23
-13.31
-8.13
-2.92
2.08
6.63
10.58
13.83
16.38
18.22
19.46
20.16
20.48
20.54
20.43
20.15
19.64
18.83
17.70
16.36
14.99
13.72
12.59
11.58
10.56
9.44
8.21
6.91
5.58
4.21
2.76
1.16
-0.62
-2.54
-4.47
-6.31
-7.98
-9.48
-10.93
-12.49
-14.31
-16.46
-18.93
-21.60
-24.31
-26.84
-29.01
-30.62
-31.50
-31.51
-30.55
-28.57
-25.62
-21.83
-17.42
-12.63
-7.70
-2.82
1.84
6.16
10.00
13.24
15.81
17.69
18.93
19.63
19.91
19.87
19.61
19.20
18.77
18.42
18.21
18.17
18.20
18.17
17.89
17.22
16.09
14.53
12.64
10.58
8.48
6.48
4.62
2.88
1.20
-0.49
-2.22
-4.03
-5.96
-8.03
-10.29
-12.78
-15.50
-18.43
-21.46
-24.40
-27.00
-28.98
-30.11
-30.24
-29.34
-27.46
-24.70
-21.16
-16.94
-12.16
-7.01
-1.75
3.31
7.95
12.00
15.43
18.28
20.61
22.47
23.88
24.82
25.27
25.24
24.74
23.84
22.64
21.29
19.96
18.79
17.81
17.00
16.22
15.33
14.23
12.89
11.32
9.58
7.72
5.79
3.84
1.90
0.02
-1.78
-3.57
-5.44
-7.47
-9.74
-12.24
-14.95
-17.82
-20.82
-23.90
-26.91
-29.65
-31.80
-33.07
-33.20
-32.08
-29.70
-26.13
-21.48
-15.92
-9.70
-3.15
3.30
9.25
14.43
18.72
22.15
24.87
27.02
28.69
29.92
30.67
30.96
30.82
30.28
29.39
28.21
26.75
25.09
23.31
21.50
19.78
18.12
16.49
14.81
13.07
11.35
9.80
8.52
7.48
6.50
5.29
3.66
1.54
-0.96
-3.62
-6.28
-8.87
-11.44
-14.08
-16.83
-19.67
-22.53
-25.37
-28.15
-30.86
-33.44
-35.72
-37.44
-38.31
-38.08
-36.61
-33.91
-30.11
-25.35
-19.88
-13.94
-7.80
-1.73
4.01
9.25
13.85
17.72
20.81
23.12
24.71
25.67
26.17
26.32
26.18
25.73
24.90
23.73
22.34
20.91
19.61
18.47
17.37
16.14
14.60
12.74
10.66
8.54
6.50
4.56
2.64
0.62
-1.53
-3.79
-6.05
-8.21
-10.26
-12.31
-14.50
-16.97
-19.74
-22.72
-25.67
-28.35
-30.47
-31.81
-32.22
-31.60
-29.98
-27.40
-24.00
-19.91
-15.29
-10.28
-5.04
0.25
5.40
10.22
14.50
18.10
20.92
22.92
24.13
24.66
24.63
24.19
23.50
22.68
21.84
21.00
20.13
19.14
17.94
16.51
14.90
13.24
11.67
10.25
8.90
7.47
5.80
3.78
1.45
-1.07
-3.64
-6.14
-8.52
-10.74
-12.81
-14.77
-16.70
-18.76
-21.10
-23.76
-26.57
-29.19
-31.20
-32.16
-31.77
-29.98
-26.85
-22.67
-17.78
-12.57
-7.38
-2.46
2.11
6.34
10.30
14.01
17.38
20.23
22.40
23.80
24.47
24.57
24.26
23.69
22.94
22.05
21.07
20.07
19.10
18.21
17.36
16.45
15.37
14.04
12.45
10.71
8.95
7.32
5.86
4.53
3.18
1.63
-0.22
-2.36
-4.69
-7.04
-9.31
-11.47
-13.57
-15.70
-17.94
-20.32
-22.83
-25.40
-27.95
-30.30
-32.20
-33.33
-33.40
-32.23
-29.81
-26.29
-21.96
-17.08
-11.93
-6.72
-1.59
3.33
7.90
12.03
15.64
18.68
21.15
23.06
24.41
25.19
25.42
25.14
24.42
23.40
22.18
20.87
19.48
17.99
16.34
14.53
12.66
10.86
9.25
7.88
6.66
5.46
4.15
2.66
1.03
-0.66
-2.36
-4.09
-5.90
-7.88
-10.06
-12.35
-14.66
-16.94
-19.22
-21.56
-23.99
-26.40
-28.51
-29.95
-30.41
-29.69
-27.84
-25.05
-21.57
-17.60
-13.24
-8.57
-3.68
1.25
5.97
10.22
13.79
16.61
18.71
20.22
21.27
22.00
22.44
22.56
22.29
21.59
20.53
19.29
18.12
17.19
16.54
16.00
15.32
14.27
12.79
11.02
9.20
7.51
6.02
4.64
3.19
1.53
-0.37
-2.43
-4.53
-6.57
-8.50
-10.33
-12.06
-13.72
-15.28
-16.74
-18.15
-19.59
-21.20
-23.12
-25.41
-27.98
-30.59
-32.86
-34.45
-35.07
-34.62
-33.12
-30.68
-27.45
-23.55
-19.12
-14.36
-9.47
-4.70
-0.19
3.95
7.72
11.07
13.94
16.19
17.73
18.52
18.69
18.45
18.02
17.62
17.34
17.23
17.22
17.24
17.17
16.90
16.37
15.50
14.26
12.66
10.76
8.67
6.55
4.53
2.66
0.91
-0.82
-2.67
-4.70
-6.91
-9.23
-11.63
-14.13
-16.79
-19.60
-22.44
-24.97
-26.78
-27.52
-26.98
-25.20
-22.39
-18.85
-14.83
-10.52
-6.03
-1.44
3.12
7.52
11.58
15.15
18.07
20.30
21.81
22.73
23.16
23.23
22.99
22.45
21.61
20.53
19.34
18.21
17.24
16.43
15.61
14.57
13.16
11.37
9.35
7.32
5.45
3.78
2.25
0.68
-1.03
-2.91
-4.92
-6.94
-8.92
-10.86
-12.85
-15.03
-17.48
-20.19
-23.09
-26.00
-28.73
-31.03
-32.68
-33.44
-33.16
-31.77
-29.29
-25.82
-21.51
-16.56
-11.18
-5.59
-0.01
5.32
10.24
14.58
18.24
21.15
23.31
24.77
25.67
26.11
26.23
26.08
25.65
24.88
23.81
22.48
21.01
19.54
18.16
16.95
15.94
15.13
14.44
13.76
12.92
11.75
10.16
8.14
5.82
3.36
0.93
-1.39
-3.60
-5.75
-7.91
-10.09
-12.30
-14.53
-16.76
-19.01
-21.37
-23.95
-26.81
-29.94
-33.13
-36.02
-38.12
-39.03
-38.47
-36.44
-33.10
-28.76
-23.71
-18.21
-12.48
-6.70
-1.09
4.19
9.02
13.35
17.15
20.39
23.02
24.97
26.21
26.78
26.76
26.30
25.51
24.51
23.46
22.49
21.70
21.06
20.42
19.56
18.33
16.70
14.82
12.90
11.10
9.45
7.89
6.29
4.55
2.62
0.52
-1.71
-4.00
-6.29
-8.51
-10.65
-12.72
-14.82
-16.99
-19.29
-21.76
-24.45
-27.35
-30.41
-33.46
-36.14
-38.02
-38.68
-37.85
-35.50
-31.81
-27.10
-21.72
-16.01
-10.22
-4.60
0.66
5.42
9.61
13.23
16.32
18.88
20.87
22.25
22.98
23.07
22.67
21.95
21.10
20.21
19.29
18.31
17.22
16.07
14.94
13.89
12.89
11.84
10.62
9.20
7.65
6.11
4.68
3.31
1.83
0.05
-2.07
-4.43
-6.78
-8.90
-10.73
-12.40
-14.18
-16.26
-18.73
-21.41
-24.02
-26.20
-27.62
-28.03
-27.30
-25.41
-22.42
-18.47
-13.76
-8.53
-3.08
2.32
7.42
12.02
16.02
19.39
22.14
24.30
25.89
26.96
27.52
27.64
27.33
26.66
25.70
24.55
23.32
22.07
20.86
19.62
18.30
16.82
15.14
13.27
11.25
9.17
7.12
5.16
3.32
1.52
-0.39
-2.55
-5.00
-7.66
-10.28
-12.64
-14.61
-16.28
-17.91
-19.79
-22.10
-24.79
-27.66
-30.42
-32.78
-34.49
-35.38
-35.23
-33.91
-31.33
-27.56
-22.78
-17.30
-11.38
-5.29
0.75
6.56
11.93
16.63
20.52
23.54
25.74
27.29
28.33
28.98
29.29
29.23
28.76
27.91
26.75
25.43
24.13
22.96
21.94
20.99
19.94
18.61
16.93
14.93
12.75
10.53
8.37
6.27
4.19
2.10
0.01
-2.02
-3.97
-5.87
-7.81
-9.91
-12.25
-14.77
-17.37
-19.96
-22.52
-25.15
-27.96
-30.94
-33.91
-36.54
-38.40
-39.17
-38.65
-36.80
-33.75
-29.64
-24.64
-18.98
-12.86
-6.55
-0.32
5.60
11.02
15.85
20.04
23.52
26.24
28.16
29.29
29.72
29.58
29.01
28.12
27.02
25.76
24.43
23.13
21.89
20.73
19.54
18.19
16.55
14.65
12.58
10.54
8.70
7.14
5.75
4.36
2.77
0.84
-1.46
-4.09
-6.93
-9.85
-12.73
-15.48
-18.01
-20.26
-22.25
-24.11
-26.04
-28.23
-30.78
-33.59
-36.31
-38.44
-39.47
-39.01
-36.91
-33.30
-28.48
-22.82
-16.72
-10.46
-4.26
1.73
7.37
12.53
17.07
20.83
23.76
25.85
27.21
27.97
28.27
28.19
27.75
26.96
25.90
24.73
23.60
22.61
21.73
20.81
19.66
18.20
16.45
14.57
12.66
10.75
8.76
6.58
4.19
1.64
-0.95
-3.46
-5.86
-8.26
-10.77
-13.53
-16.55
-19.79
-23.12
-26.35
-29.31
-31.77
-33.54
-34.39
-34.14
-32.63
-29.80
-25.71
-20.56
-14.65
-8.35
-2.05
3.94
9.38
14.15
18.20
21.53
24.19
26.23
27.75
28.83
29.55
29.95
30.00
29.65
28.89
27.73
26.26
24.65
23.06
21.58
20.24
18.95
17.54
15.89
13.96
11.81
9.58
7.39
5.28
3.24
1.18
-0.93
-3.07
-5.16
-7.12
-8.97
-10.80
-12.77
-14.97
-17.36
-19.82
-22.20
-24.52
-26.90
-29.51
-32.39
-35.38
-38.06
-39.96
-40.65
-39.89
-37.67
-34.09
-29.35
-23.68
-17.37
-10.76
-4.24
1.84
7.24
11.82
15.63
18.74
21.29
23.40
25.15
26.50
27.37
27.62
27.18
26.13
24.64
22.99
21.38
19.92
18.62
17.41
16.25
15.11
13.96
12.67
11.11
9.16
6.80
4.21
1.59
-0.84
-3.00
-4.93
-6.78
-8.64
-10.54
-12.45
-14.31
-16.10
-17.87
-19.68
-21.62
-23.78
-26.18
-28.78
-31.44
-33.89
-35.80
-36.84
-36.78
-35.52
-33.10
-29.60
-25.14
-19.89
-14.10
-8.07
-2.17
3.33
8.28
12.66
16.50
19.84
22.62
24.77
26.22
27.00
27.19
26.94
26.38
25.61
24.69
23.67
22.58
21.43
20.21
18.90
17.46
15.89
14.23
12.49
10.71
8.89
6.98
4.94
2.70
0.23
-2.39
-5.02
-7.51
-9.81
-11.98
-14.25
-16.82
-19.79
-23.04
-26.26
-29.10
-31.24
-32.46
-32.66
-31.75
-29.63
-26.25
-21.67
-16.11
-9.93
-3.56
2.66
8.47
13.72
18.30
22.12
25.06
27.11
28.33
28.89
29.00
28.90
28.66
28.25
27.57
26.48
24.94
23.06
21.06
19.20
17.63
16.33
15.15
13.89
12.43
10.73
8.90
7.04
5.21
3.38
1.48
-0.53
-2.69
-4.97
-7.32
-9.70
-12.09
-14.45
-16.76
-19.00
-21.22
-23.50
-25.96
-28.68
-31.61
-34.56
-37.21
-39.13
-39.97
-39.47
-37.56
-34.35
-30.03
-24.86
-19.09
-12.99
-6.76
-0.67
5.10
10.39
15.12
19.23
22.70
25.53
27.68
29.15
29.93
30.07
29.63
28.70
27.41
25.86
24.19
22.55
21.04
19.71
18.54
17.41
16.18
14.76
13.13
11.39
9.66
8.05
6.50
4.86
2.93
0.58
-2.17
-5.13
-8.05
-10.77
-13.20
-15.41
-17.52
-19.66
-21.90
-24.33
-26.99
-29.92
-33.04
-36.13
-38.79
-40.59
-41.12
-40.16
-37.67
-33.76
-28.71
-22.84
-16.52
-10.13
-4.00
1.68
6.81
11.39
15.39
18.74
21.35
23.17
24.24
24.70
24.75
24.49
23.96
23.13
22.02
20.76
19.56
18.61
17.96
17.46
16.81
15.74
14.14
12.12
9.94
7.86
6.01
4.33
2.62
0.72
-1.47
-3.86
-6.29
-8.62
-10.78
-12.78
-14.71
-16.70
-18.82
-21.12
-23.55
-26.02
-28.32
-30.19
-31.37
-31.60
-30.71
-28.62
-25.34
-20.97
-15.71
-9.85
-3.73
2.29
7.93
12.95
17.25
20.79
23.54
25.51
26.73
27.31
27.35
27.00
26.40
25.62
24.72
23.71
22.58
21.37
20.13
18.91
17.72
16.53
15.28
13.88
12.26
10.40
8.31
6.01
3.48
0.74
-2.18
-5.15
-8.03
-10.65
-12.92
-14.91
-16.78
-18.77
-21.08
-23.80
-26.88
-30.16
-33.37
-36.18
-38.27
-39.31
-39.08
-37.43
-34.37
-30.06
-24.74
-18.72
-12.35
-5.91
0.36
6.27
11.67
16.45
20.48
23.66
25.99
27.54
28.48
29.03
29.33
29.41
29.19
28.54
27.39
25.83
24.09
22.44
21.09
20.06
19.17
18.14
16.71
14.81
12.51
10.02
7.53
5.13
2.75
0.30
-2.27
-4.95
-7.62
-10.16
-12.53
-14.77
-16.98
-19.27
-21.72
-24.40
-27.34
-30.52
-33.83
-37.00
-39.67
-41.46
-42.07
-41.35
-39.32
-36.06
-31.66
-26.24
-19.99
-13.23
-6.34
0.31
6.50
12.13
17.24
21.83
25.77
28.83
30.82
31.70
31.63
30.92
29.89
28.73
27.49
26.10
24.51
22.75
20.94
19.19
17.56
16.00
14.40
12.69
10.85
8.95
7.05
5.14
3.14
0.94
-1.47
-4.04
-6.62
-9.02
-11.19
-13.19
-15.17
-17.34
-19.89
-22.87
-26.23
-29.82
-33.34
-36.43
-38.69
-39.75
-39.37
-37.48
-34.22
-29.84
-24.66
-18.98
-13.08
-7.13
-1.30
4.29
9.51
14.26
18.41
21.88
24.58
26.51
27.70
28.22
28.15
27.59
26.65
25.45
24.14
22.86
21.70
20.69
19.74
18.75
17.57
16.12
14.34
12.26
9.96
7.55
5.14
2.75
0.39
-2.02
-4.52
-7.08
-9.64
-12.08
-14.36
-16.59
-18.94
-21.59
-24.62
-27.87
-30.99
-33.58
-35.23
-35.67
-34.76
-32.45
-28.86
-24.20
-18.76
-12.88
-6.86
-0.93
4.79
10.23
15.31
19.85
23.65
26.54
28.45
29.46
29.72
29.44
28.79
27.88
26.81
25.68
24.59
23.60
22.63
21.57
20.25
18.57
16.53
14.25
11.88
9.57
7.40
5.37
3.41
1.46
-0.61
-2.83
-5.23
-7.77
-10.36
-12.94
-15.49
-18.09
-20.83
-23.87
-27.21
-30.72
-34.08
-36.83
-38.52
-38.83
-37.64
-34.99
-31.09
-26.17
-20.49
-14.30
-7.87
-1.45
4.74
10.49
15.72
20.34
24.29
27.50
29.94
31.62
32.60
32.97
32.80
32.18
31.19
29.93
28.56
27.22
25.97
24.78
23.54
22.14
20.49
18.62
16.57
14.43
12.24
10.01
7.74
5.39
3.01
0.67
-1.57
-3.67
-5.63
-7.52
-9.48
-11.64
-14.05
-16.68
-19.39
-22.08
-24.67
-27.24
-29.94
-32.86
-35.91
-38.80
-41.10
-42.37
-42.33
-40.88
-38.07
-34.01
-28.84
-22.75
-16.02
-9.04
-2.20
4.17
9.93
15.10
19.74
23.87
27.37
30.11
31.96
32.90
33.06
32.64
31.81
30.76
29.58
28.33
27.07
25.82
24.57
23.29
21.89
20.28
18.41
16.26
13.90
11.50
9.20
7.11
5.26
3.55
1.78
-0.23
-2.57
-5.19
-7.90
-10.49
-12.82
-14.90
-16.87
-18.95
-21.30
-23.96
-26.89
-29.94
-32.99
-35.85
-38.30
-40.07
-40.89
-40.57
-38.99
-36.23
-32.43
-27.77
-22.40
-16.48
-10.18
-3.74
2.56
8.50
13.90
18.64
22.60
25.68
27.78
28.92
29.25
29.02
28.49
27.81
26.94
25.78
24.22
22.35
20.38
18.58
17.12
15.97
14.92
13.75
12.36
10.76
9.10
7.49
5.98
4.50
2.99
1.40
-0.26
-1.94
-3.64
-5.39
-7.26
-9.26
-11.34
-13.36
-15.15
-16.64
-17.93
-19.34
-21.17
-23.68
-26.82
-30.26
-33.41
-35.72
-36.75
-36.34
-34.55
-31.52
-27.44
-22.44
-16.70
-10.43
-3.92
2.52
8.58
14.00
18.62
22.36
25.16
27.09
28.23
28.74
28.76
28.43
27.82
26.97
25.92
24.70
23.36
21.94
20.51
19.07
17.60
16.06
14.41
12.65
10.81
8.96
7.17
5.44
3.71
1.89
-0.09
-2.23
-4.48
-6.77
-9.05
-11.29
-13.51
-15.74
-18.04
-20.46
-23.08
-25.95
-28.99
-31.98
-34.53
-36.22
-36.72
-35.91
-33.85
-30.73
-26.72
-21.95
-16.49
-10.47
-4.16
2.10
7.94
13.11
17.48
21.11
24.05
26.36
28.04
29.08
29.50
29.37
28.83
27.97
26.91
25.72
24.45
23.16
21.95
20.85
19.86
18.92
17.89
16.69
15.24
13.57
11.73
9.78
7.77
5.69
3.58
1.49
-0.48
-2.29
-3.96
-5.58
-7.32
-9.27
-11.44
-13.71
-15.95
-18.02
-19.95
-21.87
-23.97
-26.42
-29.21
-32.20
-35.09
-37.57
-39.35
-40.24
-40.11
-38.85
-36.34
-32.53
-27.53
-21.59
-15.11
-8.54
-2.26
3.57
8.87
13.64
17.83
21.31
23.95
25.71
26.69
27.09
27.13
26.90
26.39
25.52
24.27
22.80
21.36
20.19
19.42
18.92
18.43
17.64
16.43
14.87
13.15
11.47
9.87
8.21
6.32
4.07
1.54
-1.03
-3.41
-5.44
-7.13
-8.67
-10.28
-12.10
-14.18
-16.43
-18.75
-21.07
-23.42
-25.85
-28.44
-31.14
-33.74
-35.93
-37.33
-37.69
-36.88
-34.93
-31.98
-28.18
-23.65
-18.48
-12.81
-6.87
-0.93
4.69
9.76
14.11
17.66
20.39
22.33
23.55
24.13
24.19
23.85
23.21
22.39
21.47
20.55
19.67
18.82
17.99
17.12
16.20
15.24
14.26
13.26
12.18
10.92
9.41
7.64
5.68
3.62
1.50
-0.67
-2.93
-5.27
-7.63
-9.99
-12.35
-14.82
-17.53
-20.52
-23.68
-26.68
-29.12
-30.65
-31.07
-30.37
-28.67
-26.06
-22.58
-18.24
-13.10
-7.36
-1.33
4.59
10.10
14.97
19.12
22.51
25.12
26.89
27.78
27.88
27.32
26.37
25.26
24.15
23.09
22.06
21.04
20.05
19.14
18.37
17.68
16.98
16.11
14.96
13.56
12.01
10.43
8.86
7.26
5.52
3.50
1.17
-1.43
-4.14
-6.85
-9.43
-11.81
-13.99
-15.95
-17.76
-19.51
-21.31
-23.32
-25.69
-28.49
-31.64
-34.90
-37.89
-40.13
-41.19
-40.76
-38.71
-35.16
-30.38
-24.76
-18.69
-12.50
-6.46
-0.70
4.69
9.65
14.15
18.11
21.45
24.12
26.13
27.52
28.37
28.74
28.61
27.97
26.87
25.43
23.88
22.48
21.37
20.54
19.80
18.91
17.73
16.24
14.55
12.76
10.90
8.92
6.74
4.34
1.85
-0.57
-2.77
-4.72
-6.53
-8.34
-10.29
-12.38
-14.56
-16.78
-19.03
-21.40
-23.98
-26.84
-29.89
-32.95
-35.68
-37.72
-38.75
-38.58
-37.13
-34.40
-30.49
-25.53
-19.74
-13.42
-6.96
-0.73
4.98
9.99
14.26
17.81
20.69
22.93
24.55
25.61
26.21
26.43
26.34
25.98
25.34
24.47
23.42
22.26
21.04
19.79
18.56
17.35
16.19
15.02
13.76
12.31
10.64
8.78
6.84
4.94
3.12
1.37
-0.43
-2.36
-4.45
-6.68
-8.99
-11.33
-13.71
-16.12
-18.58
-21.05
-23.51
-25.89
-28.17
-30.31
-32.25
-33.81
-34.79
-34.93
-34.00
-31.89
-28.58
-24.20
-18.99
-13.26
-7.35
-1.57
3.83
8.71
12.99
16.68
19.79
22.31
24.20
25.41
25.89
25.73
25.09
24.17
23.20
22.29
21.48
20.70
19.83
18.75
17.41
15.78
13.92
11.88
9.75
7.60
5.48
3.47
1.56
-0.25
-2.03
-3.89
-5.93
-8.23
-10.78
-13.51
-16.31
-19.11
-21.90
-24.69
-27.45
-30.04
-32.16
-33.45
-33.62
-32.48
-30.06
-26.50
-21.99
-16.73
-10.94
-4.83
1.34
7.31
12.84
17.75
21.94
25.32
27.86
29.54
30.41
30.53
30.08
29.19
28.02
26.69
25.29
23.94
22.71
21.65
20.75
19.90
18.97
17.86
16.54
15.05
13.44
11.74
9.91
7.90
5.65
3.17
0.53
-2.16
-4.82
-7.39
-9.89
-12.33
-14.72
-17.05
-19.29
-21.46
-23.66
-26.05
-28.81
-32.01
-35.47
-38.75
-41.29
-42.53
-42.14
-40.13
-36.73
-32.29
-27.12
-21.43
-15.39
-9.14
-2.89
3.15
8.84
14.05
18.75
22.85
26.25
28.86
30.62
31.58
31.86
31.63
31.02
30.11
28.91
27.48
25.94
24.44
23.11
21.97
20.92
19.76
18.31
16.52
14.47
12.34
10.26
8.24
6.18
3.94
1.42
-1.35
-4.26
-7.16
-9.91
-12.48
-14.88
-17.18
-19.51
-21.98
-24.73
-27.83
-31.18
-34.59
-37.69
-40.12
-41.55
-41.81
-40.85
-38.70
-35.43
-31.13
-25.95
-20.05
-13.70
-7.20
-0.86
5.06
10.40
15.09
19.11
22.45
25.12
27.08
28.33
28.92
28.89
28.37
27.48
26.41
25.31
24.30
23.44
22.67
21.88
20.90
19.60
17.90
15.86
13.62
11.30
9.03
6.87
4.83
2.86
0.93
-1.01
-2.98
-5.02
-7.17
-9.48
-12.00
-14.78
-17.82
-21.06
-24.39
-27.60
-30.49
-32.79
-34.24
-34.60
-33.73
-31.56
-28.18
-23.80
-18.67
-13.10
-7.33
-1.52
4.22
9.80
15.10
19.87
23.84
26.74
28.44
29.02
28.77
28.12
27.46
27.03
26.79
26.57
26.15
25.39
24.32
23.04
21.70
20.35
18.99
17.53
15.91
14.12
12.23
10.32
8.46
6.64
4.79
2.86
0.79
-1.41
-3.68
-5.95
-8.21
-10.45
-12.70
-15.00
-17.32
-19.61
-21.88
-24.19
-26.68
-29.52
-32.75
-36.18
-39.42
-41.98
-43.41
-43.44
-42.02
-39.25
-35.33
-30.45
-24.76
-18.45
-11.80
-5.10
1.34
7.30
12.68
17.47
21.72
25.35
28.28
30.40
31.64
32.07
31.86
31.18
30.20
28.97
27.54
25.95
24.24
22.51
20.82
19.18
17.57
15.90
14.14
12.29
10.41
8.57
6.80
5.11
3.42
1.61
-0.41
-2.69
-5.20
-7.79
-10.29
-12.58
-14.66
-16.64
-18.71
-21.02
-23.63
-26.53
-29.61
-32.69
-35.56
-38.02
-39.82
-40.72
-40.53
-39.16
-36.59
-32.91
-28.29
-22.95
-17.12
-11.06
-5.03
0.73
6.03
10.78
14.93
18.49
21.49
23.91
25.73
26.95
27.57
27.67
27.36
26.76
25.95
25.00
23.95
22.87
21.79
20.75
19.72
18.65
17.43
15.98
14.26
12.28
10.11
7.82
5.48
3.13
0.82
-1.47
-3.72
-5.97
-8.23
-10.52
-12.85
-15.26
-17.80
-20.49
-23.34
-26.28
-29.10
-31.53
-33.22
-33.86
-33.24
-31.31
-28.14
-23.85
-18.63
-12.70
-6.35
0.07
6.20
11.70
16.37
20.14
23.09
25.38
27.13
28.42
29.25
29.58
29.38
28.70
27.63
26.33
24.94
23.56
22.25
20.97
19.70
18.41
17.08
15.71
14.28
12.75
11.08
9.29
7.48
5.75
4.16
2.69
1.13
-0.68
-2.84
-5.31
-7.89
-10.38
-12.63
-14.64
-16.52
-18.45
-20.58
-22.98
-25.68
-28.66
-31.84
-35.03
-37.91
-40.07
-41.14
-40.85
-39.20
-36.34
-32.52
-27.96
-22.81
-17.17
-11.15
-4.92
1.27
7.16
12.53
17.21
21.10
24.12
26.27
27.61
28.23
28.27
27.84
27.05
26.00
24.80
23.61
22.55
21.69
20.98
20.25
19.31
18.00
16.34
14.43
12.50
10.69
9.04
7.43
5.72
3.75
1.49
-0.97
-3.45
-5.78
-7.87
-9.74
-11.51
-13.28
-15.17
-17.23
-19.47
-21.92
-24.63
-27.63
-30.87
-34.13
-37.03
-39.16
-40.14
-39.77
-38.07
-35.20
-31.37
-26.74
-21.42
-15.56
-9.37
-3.15
2.76
8.06
12.58
16.27
19.19
21.43
23.12
24.38
25.31
26.02
26.54
26.88
26.99
26.78
26.16
25.07
23.51
21.53
19.27
16.92
14.69
12.75
11.19
9.96
8.93
7.90
6.66
5.09
3.14
0.87
-1.65
-4.31
-7.07
-9.85
-12.62
-15.38
-18.15
-21.00
-23.96
-26.95
-29.74
-31.98
-33.28
-33.39
-32.23
-29.89
-26.54
-22.37
-17.50
-12.09
-6.35
-0.54
5.03
10.16
14.73
18.73
22.16
24.96
27.00
28.22
28.64
28.41
27.78
26.95
26.02
25.01
23.91
22.71
21.47
20.27
19.13
18.00
16.78
15.38
13.79
12.08
10.36
8.70
7.10
5.46
3.70
1.79
-0.24
-2.30
-4.33
-6.31
-8.31
-10.41
-12.68
-15.10
-17.60
-20.11
-22.63
-25.24
-28.04
-31.05
-34.11
-36.89
-38.95
-39.95
-39.69
-38.17
-35.51
-31.85
-27.30
-21.94
-15.94
-9.58
-3.23
2.75
8.15
12.89
17.01
20.55
23.46
25.66
27.06
27.73
27.82
27.56
27.13
26.55
25.78
24.72
23.33
21.73
20.11
18.66
17.45
16.37
15.24
13.85
12.13
10.16
8.14
6.26
4.56
2.96
1.29
-0.57
-2.66
-4.87
-7.10
-9.27
-11.42
-13.66
-16.11
-18.81
-21.73
-24.77
-27.78
-30.66
-33.29
-35.54
-37.24
-38.18
-38.15
-36.97
-34.59
-31.10
-26.66
-21.54
-15.99
-10.22
-4.45
1.14
6.37
11.04
15.01
18.26
20.82
22.81
24.39
25.63
26.55
27.09
27.18
26.83
26.10
25.11
24.01
22.86
21.61
20.18
18.53
16.66
14.72
12.79
10.94
9.07
7.07
4.84
2.41
-0.09
-2.48
-4.66
-6.66
-8.64
-10.80
-13.32
-16.22
-19.45
-22.83
-26.13
-29.05
-31.29
-32.55
-32.64
-31.50
-29.18
-25.81
-21.57
-16.65
-11.19
-5.40
0.51
6.32
11.75
16.60
20.71
23.98
26.38
27.92
28.71
28.86
28.50
27.76
26.77
25.61
24.36
23.11
21.88
20.67
19.49
18.31
17.14
15.97
14.80
13.55
12.14
10.51
8.59
6.43
4.09
1.66
-0.77
-3.16
-5.48
-7.70
-9.84
-11.86
-13.79
-15.67
-17.56
-19.57
-21.80
-24.35
-27.25
-30.44
-33.73
-36.80
-39.33
-41.01
-41.65
-41.12
-39.40
-36.48
-32.46
-27.46
-21.69
-15.38
-8.81
-2.18
4.27
10.36
15.89
20.69
24.64
27.67
29.81
31.09
31.60
31.41
30.65
29.48
28.08
26.61
25.20
23.89
22.63
21.35
19.95
18.39
16.66
14.78
12.83
10.86
8.95
7.13
5.38
3.62
1.71
-0.45
-2.92
-5.67
-8.57
-11.44
-14.15
-16.59
-18.82
-20.95
-23.19
-25.72
-28.57
-31.63
-34.65
-37.26
-39.14
-40.04
-39.82
-38.44
-35.86
-32.09
-27.24
-21.50
-15.24
-8.86
-2.76
2.85
7.89
12.37
16.31
19.65
22.31
24.18
25.27
25.69
25.62
25.24
24.69
24.01
23.25
22.43
21.59
20.76
19.98
19.19
18.33
17.29
15.99
14.41
12.56
10.54
8.40
6.22
3.97
1.62
-0.85
-3.40
-5.94
-8.41
-10.81
-13.28
-16.04
-19.27
-22.92
-26.72
-30.17
-32.71
-33.93
-33.69
-32.09
-29.41
-25.91
-21.76
-17.00
-11.67
-5.82
0.36
6.61
12.60
18.02
22.61
26.21
28.73
30.19
30.74
30.62
30.08
29.37
28.62
27.86
27.05
26.11
24.97
23.64
22.21
20.75
19.32
17.96
16.59
15.16
13.60
11.88
10.01
8.01
5.91
3.70
1.35
-1.14
-3.80
-6.53
-9.22
-11.71
-13.92
-15.82
-17.52
-19.21
-21.14
-23.51
-26.37
-29.62
-33.03
-36.30
-39.12
-41.19
-42.25
-42.11
-40.66
-37.87
-33.81
-28.66
-22.66
-16.10
-9.26
-2.41
4.21
10.37
15.89
20.59
24.38
27.20
29.10
30.16
30.53
30.37
29.86
29.10
28.18
27.13
25.93
24.58
23.09
21.48
19.80
18.08
16.29
14.43
12.46
10.42
8.34
6.29
4.33
2.44
0.56
-1.37
-3.46
-5.76
-8.23
-10.79
-13.31
-15.71
-17.93
-19.98
-21.93
-23.93
-26.11
-28.55
-31.20
-33.86
-36.18
-37.76
-38.27
-37.53
-35.52
-32.38
-28.25
-23.30
-17.63
-11.45
-5.03
1.25
7.03
12.06
16.24
19.61
22.30
24.44
26.05
27.12
27.58
27.44
26.82
25.92
24.98
24.14
23.43
22.75
21.93
20.83
19.43
17.77
15.94
14.03
12.02
9.90
7.61
5.16
2.61
0.04
-2.44
-4.79
-6.99
-9.15
-11.34
-13.67
-16.22
-19.03
-22.07
-25.22
-28.32
-31.04
-33.03
-33.86
-33.21
-30.96
-27.25
-22.50
-17.17
-11.65
-6.13
-0.61
4.97
10.55
15.90
20.67
24.50
27.26
28.99
29.89
30.23
30.19
29.87
29.25
28.34
27.15
25.73
24.19
22.67
21.28
20.07
19.00
17.92
16.65
15.05
13.10
10.92
8.71
6.68
4.90
3.30
1.65
-0.26
-2.53
-5.09
-7.72
-10.21
-12.45
-14.51
-16.55
-18.74
-21.14
-23.70
-26.34
-28.99
-31.65
-34.31
-36.88
-39.08
-40.58
-40.99
-40.07
-37.76
-34.19
-29.59
-24.25
-18.40
-12.26
-6.03
0.10
5.94
11.32
16.11
20.24
23.65
26.39
28.47
29.92
30.73
30.88
30.36
29.24
27.70
26.01
24.40
23.04
21.95
21.07
20.26
19.38
18.34
17.06
15.47
13.50
11.15
8.50
5.72
3.00
0.52
-1.65
-3.56
-5.34
-7.13
-9.07
-11.23
-13.63
-16.22
-18.88
-21.51
-24.02
-26.41
-28.70
-30.98
-33.29
-35.57
-37.61
-39.11
-39.72
-39.15
-37.27
-34.08
-29.74
-24.45
-18.46
-12.07
-5.57
0.70
6.43
11.35
15.34
18.45
20.87
22.85
24.57
26.06
27.22
27.88
27.93
27.36
26.32
25.04
23.78
22.67
21.76
20.94
20.09
19.06
17.77
16.17
14.28
12.14
9.81
7.35
4.81
2.23
-0.37
-2.94
-5.48
-7.92
-10.20
-12.27
-14.16
-15.99
-17.98
-20.32
-23.03
-25.94
-28.68
-30.86
-32.15
-32.39
-31.55
-29.67
-26.78
-22.90
-18.10
-12.57
-6.62
-0.62
5.09
10.27
14.79
18.62
21.79
24.29
26.10
27.23
27.73
27.70
27.28
26.61
25.81
24.98
24.14
23.27
22.31
21.23
19.98
18.62
17.22
15.86
14.57
13.29
11.93
10.38
8.64
6.75
4.83
2.94
1.06
-0.87
-2.96
-5.26
-7.76
-10.33
-12.90
-15.39
-17.84
-20.30
-22.84
-25.47
-28.18
-30.92
-33.61
-36.17
-38.47
-40.30
-41.36
-41.37
-40.08
-37.47
-33.65
-28.84
-23.31
-17.26
-10.83
-4.19
2.44
8.73
14.36
19.05
22.69
25.34
27.19
28.44
29.24
29.66
29.65
29.17
28.27
27.02
25.59
24.18
22.90
21.78
20.74
19.64
18.31
16.64
14.60
12.32
9.96
7.73
5.75
4.02
2.40
0.68
-1.29
-3.58
-6.08
-8.68
-11.21
-13.62
-15.88
-18.00
-20.00
-21.87
-23.72
-25.67
-27.86
-30.35
-33.05
-35.67
-37.79
-39.03
-39.06
-37.75
-35.09
-31.20
-26.30
-20.70
-14.73
-8.71
-2.86
2.68
7.87
12.63
16.85
20.39
23.12
25.02
26.19
26.78
26.93
26.69
26.03
24.97
23.64
22.23
20.95
19.91
19.06
18.20
17.12
15.68
13.90
11.96
10.04
8.28
6.67
5.06
3.32
1.31
-0.96
-3.39
-5.83
-8.16
-10.34
-12.42
-14.53
-16.84
-19.44
-22.32
-25.36
-28.28
-30.76
-32.51
-33.26
-32.83
-31.14
-28.15
-23.95
-18.72
-12.80
-6.55
-0.33
5.58
10.99
15.79
19.90
23.25
25.82
27.61
28.74
29.35
29.56
29.41
28.90
28.03
26.82
25.41
23.94
22.50
21.15
19.84
18.50
17.10
15.62
14.09
12.51
10.87
9.13
7.27
5.30
3.25
1.14
-1.03
-3.27
-5.63
-8.12
-10.72
-13.34
-15.90
-18.37
-20.79
-23.26
-25.86
-28.68
-31.64
-34.57
-37.20
-39.19
-40.25
-40.14
-38.73
-36.01
-32.08
-27.15
-21.52
-15.54
-9.53
-3.70
1.87
7.19
12.34
17.29
21.88
25.83
28.84
30.73
31.54
31.50
30.92
30.07
29.11
28.04
26.86
25.58
24.28
23.09
22.04
21.07
19.99
18.62
16.87
14.84
12.68
10.54
8.49
6.48
4.38
2.10
-0.37
-2.98
-5.63
-8.23
-10.74
-13.13
-15.42
-17.65
-19.93
-22.39
-25.16
-28.24
-31.52
-34.70
-37.37
-39.16
-39.77
-39.11
-37.18
-34.10
-30.02
-25.12
-19.58
-13.62
-7.49
-1.41
4.41
9.84
14.76
19.10
22.72
25.53
27.45
28.51
28.84
28.62
28.04
27.28
26.40
25.47
24.52
23.59
22.71
21.90
21.09
20.18
19.02
17.50
15.58
13.35
10.97
8.63
6.44
4.45
2.57
0.66
-1.37
-3.54
-5.82
-8.09
-10.28
-12.39
-14.45
-16.48
-18.50
-20.49
-22.47
-24.52
-26.76
-29.30
-32.06
-34.73
-36.84
-37.87
-37.45
-35.46
-32.07
-27.61
-22.40
-16.71
-10.74
-4.71
1.17
6.59
11.30
15.18
18.25
20.70
22.70
24.35
25.57
26.18
26.06
25.20
23.84
22.29
20.86
19.72
18.83
18.04
17.17
16.12
14.88
13.51
12.06
10.53
8.87
7.02
4.93
2.61
0.12
-2.43
-4.91
-7.25
-9.44
-11.54
-13.67
-15.99
-18.61
-21.57
-24.76
-27.92
-30.66
-32.57
-33.28
-32.60
-30.57
-27.37
-23.28
-18.59
-13.51
-8.21
-2.81
2.56
7.80
12.84
17.57
21.85
25.48
28.25
29.99
30.68
30.48
29.69
28.63
27.52
26.46
25.43
24.38
23.29
22.16
20.98
19.68
18.19
16.43
14.43
12.29
10.19
8.27
6.57
5.03
3.47
1.71
-0.39
-2.88
-5.66
-8.53
-11.21
-13.53
-15.44
-17.08
-18.70
-20.58
-22.91
-25.73
-28.93
-32.26
-35.42
-38.04
-39.76
-40.32
-39.52
-37.32
-33.81
-29.17
-23.64
-17.52
-11.06
-4.53
1.84
7.86
13.41
18.36
22.62
26.08
28.66
30.33
31.16
31.26
30.80
29.91
28.69
27.19
25.48
23.66
21.84
20.14
18.63
17.30
16.08
14.87
13.53
11.97
10.09
7.94
5.59
3.16
0.77
-1.51
-3.75
-6.04
-8.49
-11.09
-13.70
-16.13
-18.25
-20.03
-21.60
-23.22
-25.12
-27.47
-30.33
-33.58
-36.97
-40.13
-42.59
-43.91
-43.79
-42.17
-39.19
-35.17
-30.43
-25.25
-19.76
-14.06
-8.27
-2.55
2.93
7.99
12.46
16.23
19.20
21.26
22.36
22.54
21.99
20.95
19.69
18.37
17.08
15.77
14.34
12.70
10.77
8.51
5.96
3.22
0.43
-2.23
-4.62
-6.71
-8.56
-10.34
-12.16
-14.06
-16.02
-17.96
-19.85
-21.74
-23.76
-26.04
-28.71
-31.78
-35.17
-38.67
-41.99
-44.76
-46.60
-47.17
-46.23
-43.74
-39.88
-35.02
-29.58
-23.94
-18.31
-12.74
-7.22
-1.76
3.52
8.39
12.64
16.15
18.94
21.14
22.87
24.19
25.08
25.53
25.60
25.48
25.43
25.67
26.31
27.30
28.44
29.49
30.24
30.49
30.16
29.19
27.59
25.41
22.75
19.76
16.58
13.37
10.24
7.30
4.58
2.08
-0.22
-2.41
-4.53
-6.55
-8.35
-9.72
-10.39
-10.10
-8.69
-6.03
-2.10
2.97
8.89
15.23
21.51
27.26
32.21
36.29
39.55
42.04
43.75
44.59
44.50
43.53
41.84
39.74
37.49
35.32
33.38
31.79
30.65
30.00
29.83
29.98
30.22
30.34
30.17
29.64
28.76
27.58
26.15
24.51
22.72
20.81
18.79
16.68
14.51
12.30
10.11
8.00
6.03
4.15
2.28
0.30
-1.87
-4.28
-6.87
-9.54
-12.22
-14.83
-17.33
-19.73
-22.06
-24.39
-26.82
-29.39
-32.10
-34.78
-37.16
-38.91
-39.70
-39.32
-37.73
-35.00
-31.25
-26.67
-21.44
-15.79
-9.98
-4.28
1.12
6.08
10.57
14.61
18.24
21.41
24.01
25.89
26.92
27.07
26.45
25.29
23.87
22.48
21.36
20.60
20.18
19.96
19.77
19.43
18.83
17.95
16.79
15.41
13.83
12.09
10.20
8.16
5.96
3.55
0.83
-2.24
-5.68
-9.43
-13.35
-17.26
-21.01
-24.53
-27.84
-30.95
-33.89
-36.61
-38.98
-40.83
-41.93
-42.04
-40.95
-38.57
-34.94
-30.28
-24.93
-19.29
-13.67
-8.29
-3.25
1.41
5.64
9.37
12.51
14.99
16.85
18.17
19.08
19.68
19.98
19.91
19.42
18.50
17.27
15.92
14.60
13.44
12.36
11.26
10.01
8.58
7.01
5.39
3.78
2.16
0.45
-1.38
-3.30
-5.24
-7.10
-8.81
-10.40
-11.92
-13.43
-14.94
-16.41
-17.79
-19.13
-20.58
-22.33
-24.50
-27.01
-29.56
-31.62
-32.70
-32.45
-30.81
-27.99
-24.32
-20.11
-15.57
-10.84
-6.07
-1.48
2.68
6.20
9.00
11.17
12.88
14.30
15.49
16.42
17.01
17.20
17.04
16.64
16.14
15.64
15.17
14.67
14.08
13.38
12.61
11.79
10.94
10.02
8.95
7.70
6.30
4.83
3.35
1.87
0.37
-1.22
-2.96
-4.81
-6.70
-8.51
-10.18
-11.75
-13.28
-14.90
-16.67
-18.63
-20.75
-22.94
-25.04
-26.88
-28.21
-28.83
-28.57
-27.41
-25.42
-22.78
-19.72
-16.44
-13.05
-9.59
-6.03
-2.37
1.29
4.81
7.96
10.54
12.41
13.56
14.10
14.21
14.11
13.95
13.82
13.76
13.73
13.69
13.58
13.34
12.90
12.20
11.22
10.02
8.69
7.34
6.08
4.96
3.97
3.05
2.12
1.12
-0.01
-1.29
-2.74
-4.32
-5.96
-7.59
-9.14
-10.57
-11.94
-13.33
-14.83
-16.44
-18.02
-19.34
-20.10
-20.11
-19.30
-17.77
-15.69
-13.25
-10.56
-7.68
-4.62
-1.46
1.67
4.57
7.03
8.93
10.22
10.97
11.29
11.33
11.24
11.11
11.03
10.99
10.94
10.83
10.61
10.28
9.91
9.58
9.28
8.95
8.47
7.73
6.70
5.41
3.98
2.48
0.99
-0.48
-1.91
-3.25
-4.48
-5.58
-6.54
-7.42
-8.28
-9.18
-10.15
-11.22
-12.41
-13.73
-15.17
-16.73
-18.32
-19.79
-20.90
-21.41
-21.15
-20.09
-18.34
-16.13
-13.65
-11.03
-8.27
-5.37
-2.37
0.60
3.35
5.73
7.69
9.24
10.47
11.44
12.17
12.64
12.86
12.85
12.69
12.44
12.14
11.74
11.22
10.55
9.73
8.83
7.90
7.01
6.19
5.39
4.59
3.70
2.68
1.50
0.13
-1.42
-3.09
-4.81
-6.48
-8.03
-9.41
-10.66
-11.90
-13.21
-14.64
-16.16
-17.58
-18.70
-19.29
-19.20
-18.38
-16.85
-14.73
-12.18
-9.38
-6.50
-3.66
-0.97
1.53
3.82
5.90
7.79
9.51
11.07
12.42
13.53
14.31
14.69
14.70
14.43
14.05
13.72
13.53
13.47
13.45
13.34
13.04
12.55
11.91
11.19
10.43
9.64
8.83
7.99
7.11
6.20
5.24
4.14
2.85
1.30
-0.48
-2.35
-4.12
-5.62
-6.72
-7.49
-8.14
-8.99
-10.35
-12.39
-15.06
-18.06
-20.96
-23.32
-24.81
-25.33
-24.95
-23.84
-22.16
-20.00
-17.42
-14.48
-11.29
-8.02
-4.85
-1.87
0.89
3.47
5.90
8.15
10.12
11.69
12.84
13.61
14.15
14.55
14.90
15.17
15.28
15.17
14.80
14.21
13.47
12.68
11.92
11.23
10.59
9.93
9.22
8.42
7.47
6.36
5.10
3.65
2.02
0.24
-1.64
-3.54
-5.39
-7.14
-8.76
-10.26
-11.67
-13.08
-14.60
-16.36
-18.49
-20.95
-23.58
-26.06
-28.00
-29.09
-29.17
-28.25
-26.53
-24.22
-21.48
-18.38
-14.94
-11.20
-7.28
-3.36
0.38
3.75
6.68
9.14
11.21
12.95
14.46
15.73
16.76
17.48
17.84
17.82
17.51
17.04
16.56
16.16
15.82
15.46
14.96
14.22
13.24
12.07
10.81
9.54
8.27
6.95
5.45
3.68
1.60
-0.69
-3.00
-5.16
-7.09
-8.81
-10.48
-12.28
-14.34
-16.67
-19.19
-21.73
-24.09
-26.04
-27.33
-27.76
-27.18
-25.57
-23.07
-19.92
-16.37
-12.65
-8.86
-5.00
-1.02
3.10
7.28
11.31
14.94
17.89
19.95
21.10
21.46
21.25
20.76
20.21
19.73
19.32
18.93
18.49
17.97
17.36
16.61
15.66
14.46
12.99
11.36
9.72
8.22
6.90
5.69
4.38
2.80
0.84
-1.46
-3.93
-6.37
-8.58
-10.49
-12.18
-13.85
-15.75
-18.04
-20.71
-23.48
-25.85
-27.34
-27.58
-26.53
-24.37
-21.36
-17.78
-13.78
-9.45
-4.88
-0.26
4.21
8.35
12.06
15.33
18.18
20.57
22.44
23.67
24.20
24.08
23.43
22.45
21.35
20.29
19.40
18.67
18.04
17.36
16.46
15.25
13.74
12.10
10.49
9.06
7.79
6.58
5.27
3.76
2.07
0.25
-1.58
-3.40
-5.22
-7.10
-9.10
-11.20
-13.39
-15.67
-18.08
-20.66
-23.38
-26.10
-28.52
-30.27
-31.06
-30.76
-29.41
-27.15
-24.17
-20.56
-16.39
-11.70
-6.64
-1.44
3.63
8.34
12.55
16.20
19.24
21.64
23.34
24.33
24.70
24.57
24.11
23.42
22.54
21.48
20.26
19.00
17.83
16.85
16.09
15.41
14.62
13.58
12.27
10.78
9.26
7.83
6.51
5.21
3.82
2.22
0.41
-1.56
-3.61
-5.66
-7.68
-9.69
-11.70
-13.76
-15.92
-18.20
-20.66
-23.30
-26.08
-28.88
-31.52
-33.74
-35.30
-36.00
-35.68
-34.29
-31.83
-28.39
-24.12
-19.20
-13.88
-8.38
-3.00
2.05
6.56
10.44
13.65
16.22
18.22
19.70
20.69
21.22
21.36
21.19
20.86
20.50
20.19
19.95
19.72
19.42
18.95
18.27
17.33
16.15
14.75
13.17
11.48
9.76
8.06
6.43
4.83
3.19
1.45
-0.43
-2.44
-4.51
-6.54
-8.47
-10.36
-12.33
-14.58
-17.23
-20.26
-23.41
-26.28
-28.40
-29.37
-28.99
-27.25
-24.28
-20.33
-15.63
-10.44
-4.98
0.53
5.86
10.84
15.35
19.30
22.59
25.12
26.80
27.60
27.63
27.14
26.40
25.65
25.00
24.41
23.81
23.07
22.16
21.08
19.87
18.54
17.13
15.67
14.19
12.72
11.27
9.77
8.18
6.47
4.64
2.72
0.73
-1.35
-3.51
-5.73
-7.93
-10.01
-11.94
-13.74
-15.54
-17.53
-19.88
-22.66
-25.83
-29.26
-32.64
-35.64
-37.83
-38.86
-38.51
-36.74
-33.71
-29.70
-25.00
-19.85
-14.47
-9.03
-3.67
1.47
6.31
10.77
14.81
18.37
21.31
23.53
24.96
25.65
25.75
25.51
25.12
24.69
24.27
23.84
23.41
22.98
22.55
22.06
21.39
20.37
18.89
16.93
14.61
12.12
9.70
7.49
5.48
3.56
1.56
-0.64
-3.03
-5.47
-7.77
-9.81
-11.58
-13.25
-15.05
-17.19
-19.81
-22.86
-26.23
-29.70
-33.01
-35.84
-37.87
-38.82
-38.48
-36.81
-33.89
-29.93
-25.17
-19.85
-14.16
-8.30
-2.44
3.22
8.48
13.22
17.28
20.57
23.06
24.75
25.73
26.15
26.15
25.85
25.32
24.57
23.66
22.69
21.77
21.01
20.39
19.79
19.01
17.88
16.33
14.46
12.45
10.48
8.66
6.96
5.29
3.51
1.55
-0.58
-2.80
-5.01
-7.15
-9.25
-11.36
-13.56
-15.91
-18.36
-20.83
-23.21
-25.48
-27.67
-29.86
-32.13
-34.38
-36.37
-37.76
-38.14
-37.28
-35.11
-31.76
-27.45
-22.47
-17.04
-11.36
-5.59
0.09
5.50
10.43
14.69
18.12
20.64
22.29
23.24
23.68
23.81
23.75
23.51
23.05
22.37
21.53
20.66
19.84
19.06
18.21
17.11
15.65
13.83
11.82
9.82
7.97
6.30
4.70
3.01
1.09
-1.08
-3.42
-5.77
-7.98
-9.98
-11.87
-13.86
-16.20
-19.03
-22.28
-25.64
-28.62
-30.75
-31.68
-31.31
-29.67
-26.91
-23.18
-18.60
-13.36
-7.72
-2.00
3.48
8.52
13.04
17.01
20.43
23.29
25.53
27.11
28.09
28.56
28.61
28.31
27.72
26.92
25.99
25.05
24.18
23.36
22.47
21.38
20.04
18.46
16.74
14.99
13.24
11.46
9.58
7.57
5.43
3.16
0.78
-1.75
-4.45
-7.28
-10.11
-12.83
-15.31
-17.55
-19.68
-21.92
-24.47
-27.45
-30.76
-34.09
-37.06
-39.25
-40.31
-40.05
-38.38
-35.34
-31.07
-25.77
-19.76
-13.38
-6.99
-0.87
4.83
10.10
14.94
19.32
23.11
26.15
28.29
29.50
29.88
29.61
28.92
28.00
26.99
25.99
25.05
24.16
23.27
22.23
20.92
19.29
17.35
15.27
13.23
11.36
9.67
8.08
6.44
4.58
2.45
0.03
-2.63
-5.51
-8.57
-11.80
-15.12
-18.41
-21.55
-24.47
-27.26
-30.16
-33.43
-37.19
-41.24
-45.11
-48.15
-49.79
-49.68
-47.79
-44.35
-39.74
-34.31
-28.43
-22.38
-16.39
-10.63
-5.18
-0.08
4.66
8.98
12.75
15.83
18.07
19.43
19.99
19.95
19.56
19.11
18.82
18.88
19.34
20.17
21.16
22.02
22.43
22.12
20.97
19.03
16.50
13.63
10.67
7.80
5.11
2.60
0.25
-2.03
-4.29
-6.58
-8.97
-11.47
-14.15
-17.03
-20.08
-23.18
-26.05
-28.35
-29.68
-29.77
-28.45
-25.73
-21.74
-16.74
-11.01
-4.95
1.13
6.92
12.25
17.06
21.34
25.08
28.23
30.71
32.48
33.57
34.07
34.07
33.65
32.86
31.75
30.47
29.21
28.13
27.26
26.49
25.60
24.42
22.89
21.10
19.13
16.98
14.55
11.74
8.54
5.14
1.82
-1.17
-3.75
-6.03
-8.27
-10.68
-13.38
-16.30
-19.35
-22.43
-25.55
-28.71
-31.86
-34.75
-37.01
-38.19
-37.96
-36.17
-32.91
-28.47
-23.20
-17.43
-11.40
-5.29
0.75
6.59
12.06
17.02
21.33
24.90
27.67
29.62
30.77
31.19
30.95
30.18
29.02
27.67
26.31
25.07
23.97
22.93
21.78
20.41
18.76
16.88
14.82
12.64
10.33
7.87
5.28
2.65
0.10
-2.28
-4.50
-6.68
-8.97
-11.46
-14.17
-17.04
-19.97
-22.98
-26.10
-29.35
-32.63
-35.65
-37.95
-39.05
-38.60
-36.47
-32.82
-27.96
-22.24
-15.96
-9.37
-2.66
3.92
10.05
15.39
19.71
22.92
25.14
26.56
27.46
28.01
28.27
28.27
28.00
27.48
26.81
26.06
25.29
24.49
23.59
22.53
21.26
19.86
18.43
17.05
15.75
14.40
12.85
10.97
8.69
6.06
3.18
0.19
-2.79
-5.66
-8.32
-10.69
-12.73
-14.48
-16.07
-17.70
-19.58
-21.85
-24.55
-27.62
-30.87
-34.07
-36.90
-39.04
-40.21
-40.22
-39.00
-36.55
-32.99
-28.44
-23.09
-17.14
-10.88
-4.61
1.39
6.88
11.75
15.95
19.52
22.48
24.89
26.75
28.07
28.83
29.03
28.66
27.77
26.46
24.93
23.35
21.87
20.57
19.46
18.43
17.42
16.28
14.94
13.33
11.42
9.24
6.91
4.58
2.38
0.40
-1.38
-3.03
-4.68
-6.46
-8.43
-10.61
-12.96
-15.40
-17.84
-20.25
-22.60
-24.92
-27.19
-29.32
-31.17
-32.52
-33.17
-32.94
-31.69
-29.33
-25.80
-21.17
-15.63
-9.53
-3.28
2.71
8.13
12.87
16.91
20.24
22.83
24.64
25.63
25.91
25.68
25.19
24.63
24.12
23.63
23.08
22.44
21.69
20.85
19.93
18.92
17.78
16.50
15.12
13.71
12.30
10.92
9.47
7.89
6.10
4.11
1.97
-0.25
-2.51
-4.80
-7.11
-9.47
-11.81
-14.10
-16.27
-18.31
-20.26
-22.25
-24.39
-26.77
-29.36
-31.99
-34.37
-36.13
-36.92
-36.46
-34.68
-31.64
-27.56
-22.73
-17.44
-11.99
-6.59
-1.40
3.45
7.86
11.73
14.95
17.41
19.12
20.18
20.76
21.08
21.26
21.27
21.01
20.36
19.36
18.20
17.11
16.29
15.74
15.31
14.75
13.90
12.71
11.24
9.55
7.68
5.66
3.51
1.32
-0.79
-2.71
-4.44
-6.07
-7.71
-9.47
-11.36
-13.33
-15.32
-17.34
-19.43
-21.68
-24.14
-26.72
-29.26
-31.48
-33.13
-34.05
-34.20
-33.60
-32.29
-30.27
-27.47
-23.81
-19.37
-14.36
-9.16
-4.16
0.31
4.11
7.28
9.93
12.17
14.03
15.45
16.39
16.81
16.78
16.46
16.06
15.75
15.64
15.71
15.91
16.13
16.27
16.25
16.01
15.41
14.30
12.56
10.15
7.13
3.73
0.18
-3.23
-6.30
-8.89
-10.98
-12.59
-13.80
-14.74
-15.48
-16.14
-16.82
-17.70
-18.90
-20.52
-22.47
-24.45
-25.99
-26.64
-26.09
-24.31
-21.49
-17.89
-13.71
-9.03
-3.83
1.82
7.68
13.34
18.30
22.09
24.53
25.69
25.87
25.44
24.72
23.88
22.98
22.02
21.05
20.14
19.42
18.96
18.74
18.63
18.44
17.97
17.07
15.63
13.68
11.31
8.68
5.99
3.39
0.96
-1.31
-3.47
-5.59
-7.66
-9.66
-11.57
-13.40
-15.26
-17.29
-19.66
-22.45
-25.67
-29.20
-32.78
-36.07
-38.68
-40.26
-40.53
-39.36
-36.75
-32.85
-27.92
-22.31
-16.40
-10.49
-4.83
0.46
5.31
9.68
13.52
16.68
19.03
20.48
21.09
21.04
20.60
20.02
19.44
18.94
18.50
18.08
17.62
17.07
16.36
15.40
14.15
12.62
10.90
9.11
7.36
5.74
4.24
2.78
1.21
-0.56
-2.58
-4.83
-7.24
-9.68
-12.07
-14.39
-16.65
-18.95
-21.39
-24.00
-26.69
-29.24
-31.30
-32.51
-32.61
-31.42
-28.98
-25.43
-21.01
-15.98
-10.61
-5.17
0.12
5.07
9.58
13.57
16.98
19.80
21.99
23.57
24.59
25.16
25.36
25.26
24.85
24.14
23.13
21.94
20.72
19.60
18.64
17.75
16.76
15.49
13.85
11.88
9.75
7.65
5.69
3.84
1.98
-0.03
-2.29
-4.80
-7.48
-10.26
-13.10
-16.07
-19.26
-22.68
-26.22
-29.61
-32.46
-34.38
-35.09
-34.48
-32.64
-29.76
-26.01
-21.54
-16.41
-10.73
-4.67
1.48
7.38
12.74
17.37
21.21
24.31
26.74
28.54
29.73
30.25
30.16
29.55
28.66
27.72
26.94
26.39
25.98
25.52
24.76
23.53
21.82
19.72
17.42
15.13
12.96
10.92
8.92
6.85
4.57
2.07
-0.65
-3.44
-6.19
-8.77
-11.17
-13.44
-15.71
-18.11
-20.76
-23.75
-27.09
-30.73
-34.47
-37.95
-40.69
-42.19
-42.07
-40.15
-36.55
-31.55
-25.57
-19.04
-12.33
-5.78
0.41
6.07
11.18
15.76
19.85
23.46
26.47
28.76
30.23
30.92
30.97
30.59
29.98
29.23
28.34
27.25
25.92
24.38
22.71
21.00
19.34
17.68
15.97
14.13
12.10
9.92
7.60
5.18
2.62
-0.09
-2.97
-5.95
-8.87
-11.60
-14.06
-16.30
-18.41
-20.58
-22.95
-25.62
-28.65
-32.02
-35.58
-39.06
-42.05
-44.14
-44.98
-44.38
-42.37
-39.12
-34.83
-29.73
-24.00
-17.81
-11.32
-4.72
1.79
7.95
13.52
18.22
21.88
24.44
26.00
26.80
27.10
27.12
26.99
26.70
26.22
25.51
24.58
23.47
22.23
20.88
19.43
17.83
16.05
14.06
11.84
9.41
6.78
4.00
1.13
-1.78
-4.68
-7.53
-10.30
-12.99
-15.68
-18.50
-21.61
-25.08
-28.85
-32.63
-35.98
-38.41
-39.51
-39.02
-36.85
-33.06
-27.84
-21.51
-14.44
-7.07
0.22
7.19
13.70
19.64
24.88
29.18
32.31
34.14
34.78
34.54
33.84
33.04
32.27
31.49
30.53
29.29
27.79
26.18
24.66
23.38
22.30
21.26
19.99
18.24
15.84
12.82
9.31
5.56
1.86
-1.56
-4.51
-6.99
-9.16
-11.28
-13.65
-16.51
-19.92
-23.78
-27.85
-31.84
-35.48
-38.44
-40.45
-41.24
-40.65
-38.64
-35.33
-30.91
-25.61
-19.58
-12.96
-5.91
1.31
8.36
14.87
20.48
25.00
28.42
30.88
32.57
33.65
34.16
34.07
33.37
32.14
30.60
29.07
27.77
26.78
25.93
24.95
23.58
21.75
19.57
17.25
14.94
12.62
10.16
7.43
4.46
1.46
-1.29
-3.57
-5.42
-7.09
-8.90
-11.07
-13.63
-16.47
-19.41
-22.47
-25.72
-29.23
-32.89
-36.33
-39.03
-40.52
-40.50
-38.94
-35.98
-31.80
-26.58
-20.48
-13.77
-6.78
0.06
6.45
12.27
17.56
22.39
26.63
30.02
32.25
33.19
33.00
32.07
30.88
29.78
28.90
28.21
27.66
27.21
26.87
26.57
26.11
25.23
23.64
21.25
18.17
14.71
11.25
8.13
5.50
3.29
1.27
-0.79
-3.08
-5.57
-8.11
-10.57
-12.91
-15.27
-17.85
-20.80
-24.12
-27.66
-31.20
-34.55
-37.55
-39.98
-41.53
-41.79
-40.42
-37.28
-32.58
-26.80
-20.52
-14.19
-8.05
-2.16
3.56
9.11
14.37
19.13
23.20
26.41
28.68
30.01
30.44
30.08
29.12
27.79
26.34
24.99
23.86
22.97
22.28
21.72
21.19
20.60
19.76
18.46
16.56
14.02
11.06
8.03
5.27
2.97
1.13
-0.48
-2.10
-3.88
-5.84
-7.95
-10.19
-12.59
-15.21
-18.05
-21.06
-24.14
-27.22
-30.32
-33.45
-36.50
-39.17
-40.98
-41.45
-40.27
-37.47
-33.32
-28.27
-22.73
-17.02
-11.29
-5.66
-0.21
5.00
9.93
14.53
18.75
22.44
25.40
27.41
28.38
28.38
27.66
26.59
25.45
24.43
23.51
22.58
21.49
20.19
18.70
17.07
15.39
13.66
11.88
10.05
8.22
6.48
4.94
3.65
2.55
1.48
0.26
-1.22
-2.93
-4.74
-6.51
-8.11
-9.60
-11.09
-12.77
-14.81
-17.28
-20.20
-23.48
-26.96
-30.39
-33.46
-35.75
-36.86
-36.49
-34.58
-31.29
-26.97
-22.01
-16.68
-11.06
-5.18
0.91
7.04
12.91
18.17
22.58
26.01
28.48
30.08
30.85
30.89
30.30
29.29
28.14
27.13
26.48
26.23
26.27
26.34
26.12
25.36
23.91
21.82
19.30
16.64
14.06
11.64
9.36
7.12
4.89
2.69
0.56
-1.48
-3.50
-5.61
-7.86
-10.19
-12.39
-14.28
-15.78
-17.02
-18.34
-20.13
-22.72
-26.15
-30.21
-34.39
-38.10
-40.80
-42.13
-42.00
-40.50
-37.82
-34.15
-29.63
-24.44
-18.79
-12.98
-7.33
-2.09
2.55
6.55
9.89
12.59
14.65
16.14
17.16
17.84
18.30
18.58
18.65
18.47
18.01
17.32
16.47
15.49
14.40
13.16
11.77
10.27
8.72
7.18
5.65
4.08
2.42
0.64
-1.22
-3.15
-5.12
-7.15
-9.25
-11.36
-13.33
-15.05
-16.44
-17.57
-18.60
-19.71
-21.03
-22.59
-24.35
-26.20
-27.95
-29.36
-30.09
-29.86
-28.46
-25.86
-22.26
-17.96
-13.24
-8.34
-3.37
1.56
6.33
10.75
14.60
17.71
20.03
21.63
22.67
23.35
23.79
24.03
24.01
23.63
22.82
21.61
20.12
18.50
16.87
15.23
13.52
11.65
9.64
7.59
5.71
4.16
2.97
2.02
1.07
-0.09
-1.53
-3.20
-4.88
-6.38
-7.62
-8.67
-9.72
-10.98
-12.58
-14.53
-16.77
-19.19
-21.76
-24.46
-27.23
-29.91
-32.19
-33.68
-34.05
-33.12
-30.92
-27.70
-23.77
-19.43
-14.83
-10.06
-5.13
-0.12
4.76
9.27
13.09
16.03
18.01
19.16
19.65
19.71
19.56
19.28
18.92
18.49
17.97
17.41
16.88
16.46
16.18
16.04
15.90
15.63
15.10
14.27
13.19
11.97
10.71
9.41
8.02
6.47
4.70
2.76
0.72
-1.35
-3.43
-5.59
-7.85
-10.21
-12.58
-14.85
-17.04
-19.29
-21.85
-24.89
-28.38
-32.00
-35.18
-37.35
-38.13
-37.40
-35.31
-32.09
-27.99
-23.12
-17.62
-11.67
-5.58
0.28
5.60
10.19
14.00
17.09
19.48
21.23
22.36
22.97
23.17
23.13
22.93
22.62
22.15
21.48
20.62
19.63
18.62
17.74
17.00
16.33
15.57
14.54
13.08
11.17
8.93
6.57
4.32
2.33
0.56
-1.08
-2.78
-4.68
-6.84
-9.22
-11.73
-14.32
-16.97
-19.77
-22.81
-26.19
-29.84
-33.55
-36.96
-39.61
-41.07
-41.05
-39.45
-36.39
-32.11
-26.94
-21.16
-15.02
-8.72
-2.48
3.49
8.96
13.75
17.74
20.90
23.28
24.98
26.12
26.78
27.05
27.00
26.68
26.12
25.36
24.43
23.33
22.06
20.60
18.90
16.95
14.80
12.56
10.39
8.44
6.79
5.40
4.13
2.79
1.22
-0.59
-2.59
-4.62
-6.56
-8.31
-9.91
-11.45
-13.07
-14.87
-16.93
-19.24
-21.73
-24.22
-26.42
-28.01
-28.73
-28.42
-27.07
-24.78
-21.74
-18.12
-14.05
-9.62
-4.90
0.05
5.11
10.14
14.94
19.26
22.86
25.58
27.38
28.34
28.64
28.44
27.84
26.91
25.67
24.23
22.68
21.14
19.66
18.22
16.73
15.11
13.35
11.50
9.69
7.95
6.31
4.69
3.01
1.24
-0.64
-2.61
-4.72
-6.96
-9.35
-11.83
-14.31
-16.79
-19.31
-22.00
-24.93
-28.01
-30.89
-33.04
-33.97
-33.36
-31.22
-27.82
-23.59
-18.94
-14.16
-9.44
-4.87
-0.50
3.61
7.41
10.84
13.77
16.09
17.69
18.53
18.67
18.27
17.51
16.63
15.80
15.11
14.60
14.23
13.91
13.52
12.96
12.17
11.19
10.08
8.96
7.90
6.87
5.82
4.68
3.37
1.88
0.23
-1.55
-3.39
-5.25
-7.09
-8.90
-10.73
-12.66
-14.79
-17.22
-19.99
-23.01
-26.03
-28.65
-30.42
-30.93
-29.92
-27.37
-23.45
-18.49
-12.85
-6.87
-0.85
4.96
10.32
15.06
19.04
22.21
24.58
26.19
27.10
27.37
27.03
26.16
24.85
23.27
21.62
20.11
18.91
18.07
17.51
17.07
16.50
15.58
14.24
12.48
10.45
8.36
6.34
4.48
2.74
1.05
-0.63
-2.28
-3.84
-5.28
-6.70
-8.30
-10.28
-12.75
-15.61
-18.52
-21.04
-22.77
-23.49
-23.16
-21.88
-19.75
-16.84
-13.18
-8.85
-4.04
0.99
5.86
10.30
14.11
17.29
19.90
22.00
23.60
24.63
25.04
24.82
24.15
23.28
22.51
22.03
21.87
21.85
21.73
21.31
20.51
19.37
17.99
16.40
14.59
12.47
9.95
7.06
3.90
0.63
-2.60
-5.70
-8.61
-11.27
-13.66
-15.77
-17.69
-19.60
-21.70
-24.06
-26.60
-29.00
-30.84
-31.71
-31.37
-29.78
-27.09
-23.56
-19.49
-15.17
-10.87
-6.85
-3.27
-0.18
2.48
4.82
6.95
8.92
10.67
12.12
13.22
14.00
14.58
15.06
15.54
16.02
16.48
16.80
16.88
16.60
15.84
14.52
12.65
10.33
7.73
5.08
2.53
0.17
-2.03
-4.19
-6.41
-8.83
-11.54
-14.59
-17.92
-21.36
-24.61
-27.32
-29.16
-29.90
-29.46
-27.84
-25.10
-21.34
-16.66
-11.23
-5.31
0.76
6.60
11.87
16.29
19.72
22.10
23.50
24.05
23.96
23.43
22.63
21.66
20.56
19.34
18.05
16.73
15.43
14.13
12.76
11.21
9.43
7.42
5.26
2.99
0.64
-1.86
-4.60
-7.62
-10.84
-14.13
-17.34
-20.43
-23.45
-26.53
-29.71
-32.86
-35.64
-37.55
-38.13
-37.12
-34.53
-30.67
-25.96
-20.80
-15.45
-10.05
-4.63
0.73
5.90
10.65
14.81
18.28
21.09
23.34
25.13
26.50
27.43
27.85
27.71
27.05
25.98
24.65
23.15
21.51
19.62
17.42
14.82
11.90
8.78
5.61
2.53
-0.39
-3.11
-5.65
-8.04
-10.33
-12.58
-14.93
-17.49
-20.37
-23.58
-27.01
-30.37
-33.22
-35.13
-35.68
-34.66
-32.10
-28.18
-23.26
-17.67
-11.70
-5.55
0.60
6.55
12.10
17.03
21.22
24.62
27.27
29.23
30.57
31.33
31.54
31.26
30.52
29.39
27.91
26.18
24.32
22.52
20.95
19.68
18.64
17.66
16.54
15.18
13.63
12.01
10.40
8.72
6.81
4.43
1.47
-2.02
-5.89
-9.90
-13.94
-17.97
-22.05
-26.15
-30.11
-33.59
-36.14
-37.33
-36.93
-34.94
-31.57
-27.15
-21.98
-16.30
-10.25
-3.96
2.38
8.45
13.93
18.50
21.97
24.32
25.62
26.04
25.76
24.97
23.85
22.58
21.28
20.02
18.79
17.57
16.28
14.86
13.26
11.45
9.35
6.98
4.39
1.72
-0.85
-3.18
-5.28
-7.27
-9.36
-11.68
-14.23
-16.88
-19.42
-21.73
-23.87
-26.02
-28.44
-31.21
-34.20
-37.01
-39.13
-40.10
-39.66
-37.81
-34.71
-30.60
-25.67
-20.07
-13.96
-7.61
-1.37
4.35
9.28
13.30
16.44
18.84
20.59
21.74
22.27
22.25
21.76
20.95
19.95
18.89
17.84
16.87
16.04
15.34
14.69
13.94
12.91
11.48
9.65
7.53
5.28
3.07
0.98
-0.98
-2.85
-4.74
-6.73
-8.88
-11.22
-13.74
-16.42
-19.25
-22.18
-25.15
-27.98
-30.35
-31.87
-32.18
-31.02
-28.39
-24.47
-19.62
-14.22
-8.64
-3.14
2.10
6.96
11.34
15.19
18.44
21.04
22.94
24.16
24.73
24.74
24.33
23.64
22.85
22.12
21.65
21.50
21.65
21.90
21.98
21.61
20.64
19.04
16.92
14.42
11.70
8.86
5.97
3.05
0.13
-2.82
-5.83
-8.97
-12.28
-15.84
-19.66
-23.71
-27.77
-31.51
-34.45
-36.18
-36.43
-35.14
-32.51
-28.84
-24.38
-19.30
-13.69
-7.63
-1.27
5.16
11.41
17.23
22.37
26.62
29.80
31.88
32.91
33.10
32.68
31.85
30.70
29.26
27.55
25.62
23.56
21.45
19.32
17.14
14.83
12.38
9.86
7.41
5.12
3.00
0.91
-1.34
-3.90
-6.79
-9.88
-12.99
-15.96
-18.75
-21.41
-24.07
-26.80
-29.57
-32.24
-34.59
-36.35
-37.27
-37.13
-35.76
-33.10
-29.17
-24.11
-18.17
-11.66
-4.87
1.86
8.24
14.01
18.96
22.93
25.87
27.77
28.71
28.85
28.35
27.41
26.23
24.97
23.72
22.50
21.31
20.10
18.82
17.44
15.93
14.26
12.43
10.44
8.35
6.23
4.12
2.07
0.06
-1.94
-3.92
-5.88
-7.78
-9.60
-11.36
-13.17
-15.13
-17.36
-19.86
-22.61
-25.55
-28.58
-31.57
-34.33
-36.57
-38.02
-38.41
-37.59
-35.51
-32.25
-27.94
-22.76
-16.90
-10.56
-3.97
2.60
8.87
14.54
19.37
23.17
25.88
27.57
28.36
28.41
27.91
26.96
25.68
24.18
22.60
21.05
19.61
18.31
17.12
15.97
14.81
13.54
12.09
10.40
8.46
6.31
4.04
1.77
-0.41
-2.44
-4.35
-6.21
-8.07
-9.96
-11.87
-13.72
-15.47
-17.13
-18.78
-20.52
-22.47
-24.64
-27.01
-29.46
-31.85
-34.07
-35.98
-37.40
-38.08
-37.75
-36.19
-33.33
-29.30
-24.40
-19.02
-13.50
-8.10
-2.88
2.11
6.88
11.32
15.27
18.51
20.84
22.20
22.65
22.34
21.50
20.31
18.96
17.58
16.30
15.23
14.41
13.76
13.15
12.35
11.25
9.79
8.08
6.27
4.50
2.88
1.42
0.09
-1.17
-2.38
-3.58
-4.75
-5.95
-7.22
-8.68
-10.43
-12.55
-15.04
-17.78
-20.59
-23.20
-25.38
-26.92
-27.62
-27.27
-25.70
-22.81
-18.66
-13.53
-7.86
-2.10
3.39
8.45
13.06
17.26
21.04
24.27
26.79
28.49
29.40
29.66
29.41
28.77
27.73
26.30
24.56
22.67
20.84
19.25
17.90
16.63
15.24
13.58
11.65
9.56
7.48
5.51
3.65
1.84
-0.00
-1.92
-3.90
-5.93
-7.99
-10.12
-12.39
-14.80
-17.37
-20.05
-22.81
-25.63
-28.49
-31.33
-33.96
-36.11
-37.45
-37.67
-36.58
-34.17
-30.55
-25.94
-20.58
-14.70
-8.51
-2.20
4.02
9.93
15.32
20.02
23.91
26.96
29.17
30.58
31.24
31.22
30.63
29.63
28.43
27.22
26.06
24.95
23.77
22.45
20.98
19.40
17.80
16.19
14.51
12.64
10.48
8.03
5.30
2.38
-0.69
-3.90
-7.22
-10.58
-13.89
-17.02
-19.90
-22.56
-25.11
-27.75
-30.68
-34.00
-37.72
-41.60
-45.27
-48.29
-50.19
-50.69
-49.66
-47.19
-43.47
-38.77
-33.31
-27.26
-20.76
-13.95
-7.07
-0.40
5.63
10.62
14.18
16.09
16.31
15.03
12.70
9.98
7.69
6.59
7.21
9.64
13.44
17.87
22.12
25.66
28.36
30.44
32.26
34.05
35.92
37.83
39.75
41.72
43.76
45.74
47.29
47.88
46.95
44.16
39.50
33.21
25.72
17.51
8.96
0.40
-7.86
-15.46
-22.02
-27.19
-30.69
-32.48
-32.65
-31.47
-29.25
-26.31
-22.90
-19.18
-15.23
-11.10
-6.80
-2.40
1.94
6.00
9.56
12.46
14.77
16.71
18.63
20.86
23.55
26.67
29.99
33.17
35.90
37.91
38.99
38.97
37.78
35.44
32.12
28.11
23.68
19.11
14.53
9.99
5.50
1.08
-3.23
-7.37
-11.29
-14.95
-18.31
-21.37
-24.16
-26.76
-29.33
-32.03
-34.98
-38.11
-41.19
-43.76
-45.34
-45.51
-44.10
-41.18
-37.04
-32.07
-26.64
-21.01
-15.28
-9.47
-3.57
2.36
8.12
13.42
17.95
21.42
23.70
24.85
25.10
24.75
24.12
23.41
22.69
21.94
21.12
20.22
19.27
18.31
17.32
16.23
14.98
13.53
11.96
10.40
8.95
7.60
6.22
4.65
2.76
0.53
-1.92
-4.43
-6.90
-9.25
-11.52
-13.79
-16.15
-18.66
-21.37
-24.26
-27.23
-30.11
-32.65
-34.64
-35.89
-36.27
-35.73
-34.16
-31.47
-27.58
-22.51
-16.50
-9.98
-3.49
2.52
7.83
12.45
16.54
20.19
23.37
25.90
27.58
28.32
28.22
27.50
26.46
25.34
24.24
23.17
22.11
21.02
19.87
18.60
17.17
15.52
13.69
11.77
9.90
8.18
6.58
4.96
3.10
0.89
-1.61
-4.17
-6.59
-8.75
-10.73
-12.75
-15.01
-17.56
-20.29
-23.00
-25.59
-28.14
-30.90
-34.08
-37.66
-41.31
-44.48
-46.55
-47.01
-45.64
-42.43
-37.58
-31.45
-24.43
-16.96
-9.44
-2.20
4.47
10.36
15.35
19.36
22.37
24.48
25.86
26.74
27.34
27.75
27.96
27.92
27.67
27.33
27.09
26.98
26.93
26.66
25.89
24.43
22.31
19.77
17.12
14.62
12.39
10.39
8.55
6.75
4.92
3.01
1.00
-1.13
-3.40
-5.80
-8.30
-10.84
-13.40
-15.92
-18.43
-20.99
-23.72
-26.70
-29.94
-33.23
-36.15
-38.19
-38.91
-38.09
-35.81
-32.31
-27.88
-22.75
-17.05
-10.89
-4.45
2.02
8.18
13.74
18.48
22.30
25.13
26.97
27.90
28.01
27.52
26.66
25.70
24.78
23.99
23.27
22.50
21.55
20.30
18.78
17.07
15.32
13.69
12.24
10.93
9.61
8.12
6.32
4.17
1.76
-0.77
-3.24
-5.53
-7.63
-9.59
-11.52
-13.47
-15.44
-17.44
-19.49
-21.69
-24.19
-27.10
-30.38
-33.83
-37.08
-39.65
-41.07
-40.96
-39.14
-35.64
-30.67
-24.63
-17.98
-11.13
-4.43
1.92
7.80
13.14
17.86
21.90
25.17
27.61
29.18
29.89
29.86
29.27
28.35
27.34
26.39
25.51
24.71
23.88
22.96
21.89
20.62
19.19
17.64
16.07
14.53
13.00
11.38
9.51
7.29
4.71
1.91
-0.94
-3.69
-6.32
-8.83
-11.27
-13.57
-15.67
-17.50
-19.06
-20.48
-21.93
-23.61
-25.65
-28.08
-30.73
-33.27
-35.25
-36.32
-36.21
-34.90
-32.51
-29.16
-24.91
-19.76
-13.75
-7.07
-0.13
6.51
12.35
17.04
20.51
22.83
24.20
24.82
24.84
24.39
23.56
22.47
21.26
20.10
19.17
18.58
18.31
18.19
17.95
17.32
16.18
14.51
12.48
10.25
7.99
5.78
3.69
1.75
-0.03
-1.70
-3.38
-5.16
-7.14
-9.28
-11.46
-13.55
-15.45
-17.24
-19.14
-21.42
-24.26
-27.68
-31.45
-35.16
-38.29
-40.38
-41.17
-40.60
-38.79
-36.00
-32.46
-28.41
-24.01
-19.38
-14.66
-10.01
-5.61
-1.67
1.64
4.22
6.09
7.38
8.34
9.21
10.21
11.44
12.88
14.47
16.10
17.72
19.25
20.63
21.74
22.45
22.68
22.50
22.12
21.79
21.72
21.86
21.97
21.69
20.72
18.98
16.67
14.10
11.50
9.01
6.54
3.94
1.10
-2.03
-5.38
-8.83
-12.23
-15.34
-17.79
-19.18
-19.15
-17.51
-14.37
-10.12
-5.21
-0.12
4.90
9.74
14.40
18.77
22.64
25.69
27.61
28.27
27.74
26.34
24.48
22.57
20.87
19.49
18.38
17.33
16.17
14.72
12.93
10.76
8.27
5.56
2.76
0.02
-2.54
-4.87
-6.96
-8.90
-10.74
-12.54
-14.28
-15.96
-17.59
-19.29
-21.23
-23.56
-26.35
-29.53
-32.90
-36.14
-38.88
-40.72
-41.34
-40.52
-38.26
-34.68
-30.05
-24.66
-18.76
-12.53
-6.15
0.22
6.41
12.22
17.51
22.14
26.00
29.01
31.09
32.23
32.43
31.77
30.36
28.36
25.91
23.23
20.51
17.92
15.54
13.35
11.23
9.08
6.87
4.67
2.62
0.85
-0.58
-1.72
-2.70
-3.69
-4.87
-6.30
-7.96
-9.71
-11.39
-12.89
-14.25
-15.68
-17.49
-19.94
-23.05
-26.56
-29.93
-32.57
-33.95
-33.77
-31.95
-28.57
-23.79
-17.83
-10.94
-3.43
4.28
11.73
18.43
23.99
28.15
30.79
31.97
31.88
30.82
29.09
27.02
24.86
22.81
20.98
19.46
18.25
17.35
16.69
16.16
15.57
14.73
13.52
11.91
9.96
7.80
5.51
3.14
0.67
-1.86
-4.36
-6.70
-8.80
-10.74
-12.73
-15.06
-17.94
-21.35
-25.08
-28.79
-32.13
-34.83
-36.69
-37.56
-37.29
-35.73
-32.80
-28.59
-23.33
-17.41
-11.26
-5.29
0.20
5.04
9.13
12.48
15.18
17.33
19.09
20.56
21.75
22.64
23.14
23.18
22.77
21.99
20.96
19.78
18.52
17.17
15.73
14.21
12.63
11.01
9.29
7.38
5.18
2.64
-0.18
-3.12
-5.94
-8.50
-10.72
-12.69
-14.56
-16.50
-18.61
-20.98
-23.63
-26.51
-29.54
-32.48
-34.96
-36.57
-36.88
-35.56
-32.53
-27.90
-21.98
-15.27
-8.25
-1.39
4.99
10.69
15.62
19.74
23.02
25.36
26.69
26.96
26.27
24.78
22.75
20.44
18.10
15.91
14.03
12.47
11.21
10.12
9.10
8.05
6.99
5.98
5.11
4.37
3.71
2.97
1.95
0.49
-1.47
-3.84
-6.45
-9.06
-11.51
-13.80
-16.11
-18.69
-21.74
-25.26
-28.93
-32.27
-34.70
-35.78
-35.24
-33.05
-29.32
-24.26
-18.12
-11.18
-3.78
3.74
11.04
17.87
24.10
29.66
34.55
38.66
41.87
44.03
45.07
45.03
44.05
42.29
39.92
37.09
33.94
30.60
27.25
24.02
20.95
17.98
15.05
12.09
9.13
6.23
3.46
0.84
-1.69
-4.14
-6.52
-8.79
-10.91
-12.89
-14.77
-16.67
-18.67
-20.82
-23.09
-25.35
-27.35
-28.76
-29.24
-28.56
-26.71
-23.90
-20.50
-16.86
-13.18
-9.49
-5.73
-1.89
1.93
5.46
8.45
10.76
12.39
13.51
14.30
14.92
15.47
15.99
16.50
17.10
17.81
18.61
19.40
20.00
20.22
19.97
19.28
18.25
17.03
15.71
14.30
12.80
11.22
9.60
7.97
6.35
4.72
3.00
1.14
-0.86
-2.98
-5.18
-7.39
-9.55
-11.53
-13.14
-14.19
-14.47
-13.89
-12.44
-10.23
-7.44
-4.23
-0.75
2.85
6.45
9.92
13.10
15.86
18.05
19.53
20.23
20.11
19.26
17.86
16.13
14.33
12.63
11.13
9.83
8.69
7.63
6.57
5.41
4.05
2.41
0.52
-1.57
-3.68
-5.67
-7.46
-9.05
-10.50
-11.91
-13.37
-14.97
-16.77
-18.84
-21.23
-23.87
-26.59
-29.11
-31.09
-32.24
-32.32
-31.27
-29.12
-26.06
-22.34
-18.27
-14.08
-9.95
-6.00
-2.30
1.04
3.92
6.24
7.93
9.01
9.56
9.70
9.53
9.18
8.71
8.24
7.84
7.54
7.29
6.96
6.37
5.40
4.03
2.32
0.42
-1.54
-3.47
-5.33
-7.16
-8.99
-10.85
-12.80
-14.95
-17.38
-20.17
-23.23
-26.29
-28.91
-30.61
-31.01
-29.96
-27.50
-23.82
-19.18
-13.86
-8.15
-2.34
3.20
8.20
12.45
15.89
18.59
20.61
22.02
22.77
22.85
22.27
21.18
19.79
18.31
16.93
15.74
14.73
13.86
13.02
12.11
10.96
9.45
7.56
5.32
2.86
0.34
-2.17
-4.62
-7.03
-9.48
-12.05
-14.83
-17.92
-21.36
-25.05
-28.76
-32.03
-34.37
-35.35
-34.69
-32.40
-28.66
-23.76
-18.00
-11.65
-4.92
1.95
8.73
15.12
20.81
25.50
28.98
31.19
32.20
32.21
31.44
30.12
28.43
26.56
24.70
23.01
21.61
20.48
19.43
18.14
16.34
13.87
10.78
7.29
3.68
0.16
-3.14
-6.23
-9.16
-12.06
-15.02
-18.09
-21.28
-24.47
-27.48
-30.02
-31.81
-32.62
-32.24
-30.60
-27.68
-23.53
-18.29
-12.24
-5.68
1.03
7.59
13.75
19.35
24.26
28.36
31.49
33.55
34.51
34.49
33.69
32.39
30.82
29.14
27.41
25.69
24.01
22.42
20.92
19.47
17.92
16.11
13.85
11.06
7.74
3.98
-0.04
-4.10
-8.01
-11.59
-14.74
-17.44
-19.79
-21.97
-24.20
-26.65
-29.35
-32.15
-34.73
-36.68
-37.58
-37.17
-35.37
-32.21
-27.86
-22.46
-16.20
-9.26
-1.94
5.45
12.51
18.87
24.23
28.41
31.33
33.03
33.64
33.34
32.34
30.82
28.94
26.83
24.62
22.50
20.63
19.14
18.04
17.20
16.36
15.24
13.65
11.57
9.12
6.47
3.75
0.97
-1.92
-5.00
-8.25
-11.54
-14.70
-17.58
-20.15
-22.56
-25.06
-27.89
-31.18
-34.83
-38.52
-41.80
-44.14
-45.18
-44.72
-42.74
-39.35
-34.78
-29.26
-23.13
-16.74
-10.43
-4.48
1.02
6.10
10.81
15.13
18.89
21.85
23.76
24.58
24.49
23.84
23.04
22.39
22.01
21.86
21.78
21.58
21.12
20.27
19.05
17.55
15.91
14.27
12.68
11.08
9.36
7.38
5.10
2.59
0.01
-2.51
-4.89
-7.15
-9.38
-11.73
-14.29
-17.14
-20.26
-23.54
-26.73
-29.47
-31.35
-32.07
-31.49
-29.63
-26.64
-22.71
-18.05
-12.83
-7.28
-1.61
3.92
9.18
14.04
18.45
22.32
25.49
27.80
29.12
29.47
29.02
28.06
26.87
25.67
24.55
23.54
22.58
21.61
20.59
19.45
18.11
16.53
14.68
12.60
10.35
8.00
5.62
3.21
0.75
-1.78
-4.36
-6.97
-9.54
-12.00
-14.28
-16.32
-18.12
-19.70
-21.15
-22.65
-24.39
-26.52
-29.06
-31.80
-34.31
-36.07
-36.61
-35.62
-33.05
-29.05
-23.94
-18.10
-11.88
-5.61
0.48
6.18
11.38
16.05
20.12
23.57
26.32
28.27
29.37
29.66
29.25
28.32
27.08
25.70
24.31
22.95
21.63
20.33
18.98
17.50
15.84
13.98
11.99
9.95
7.96
6.13
4.48
3.00
1.62
0.29
-1.11
-2.69
-4.55
-6.75
-9.27
-12.02
-14.82
-17.53
-20.07
-22.46
-24.81
-27.24
-29.78
-32.30
-34.56
-36.16
-36.70
-35.89
-33.57
-29.84
-24.92
-19.20
-13.00
-6.65
-0.37
5.66
11.23
16.12
20.12
23.06
24.94
25.88
26.11
25.86
25.30
24.52
23.55
22.43
21.29
20.26
19.45
18.87
18.40
17.83
16.98
15.74
14.11
12.24
10.27
8.32
6.47
4.69
2.90
1.03
-0.99
-3.14
-5.38
-7.66
-9.95
-12.24
-14.52
-16.79
-19.03
-21.23
-23.46
-25.77
-28.15
-30.43
-32.27
-33.24
-33.00
-31.42
-28.61
-24.84
-20.39
-15.51
-10.30
-4.88
0.59
5.93
10.91
15.34
19.13
22.22
24.56
26.08
26.75
26.61
25.80
24.53
23.04
21.49
20.00
18.62
17.40
16.40
15.65
15.08
14.53
13.80
12.69
11.13
9.16
6.93
4.58
2.23
-0.06
-2.23
-4.22
-6.04
-7.74
-9.46
-11.40
-13.66
-16.23
-18.96
-21.60
-24.02
-26.18
-28.21
-30.20
-32.15
-33.83
-34.90
-34.98
-33.86
-31.52
-28.08
-23.75
-18.71
-13.14
-7.25
-1.36
4.05
8.50
11.65
13.42
14.05
13.92
13.46
12.90
12.26
11.41
10.21
8.64
6.86
5.16
3.76
2.80
2.21
1.85
1.54
1.16
0.70
0.26
-0.01
0.04
0.56
1.65
3.35
5.54
7.95
10.20
12.00
13.22
14.09
15.15
17.11
20.57
25.84
32.73
40.60
48.43
55.03
59.31
60.40
57.79
51.41
41.72
29.69
16.70
4.40
-5.69
-12.42
-15.31
-14.52
-10.71
-4.73
2.60
10.66
19.11
27.80
36.75
46.06
55.82
66.00
76.39
86.55
95.94
104.06
110.50
115.11
117.86
118.84
118.16
115.95
112.33
107.40
101.18
93.63
84.70
74.39
62.85
50.42
37.62
25.00
13.09
2.21
-7.55
-16.43
-24.93
-33.65
-43.10
-53.55
-64.88
-76.54
-87.72
-97.51
-105.00
-109.41
-110.26
-107.45
-101.29
-92.41
-81.54
-69.20
-55.60
-40.71
-24.57
-7.62
9.21
24.69
37.74
47.77
54.79
59.31
61.96
63.26
63.42
62.40
59.93
55.74
49.59
41.43
31.43
19.94
7.30
-6.33
-20.94
-36.68
-53.59
-71.35
-89.25
-106.27
-121.26
-133.20
-141.24
-144.83
-143.88
-138.85
-130.80
-121.21
-111.62
-103.14
-96.19
-90.47
-85.27
-79.88
-73.90
-67.26
-60.00
-51.88
-42.30
-30.41
-15.48
2.60
23.21
45.02
66.44
86.02
102.74
116.08
125.81
131.79
133.91
132.07
126.40
117.37
105.86
92.94
79.64
66.64
54.12
41.84
29.34
16.27
2.68
-10.95
-23.86
-35.31
-44.94
-52.85
-59.57
-65.81
-72.13
-78.87
-86.08
-93.60
-101.19
-108.54
-115.27
-120.86
-124.73
-126.31
-125.23
-121.50
-115.45
-107.63
-98.61
-88.84
-78.63
-68.30
-58.27
-49.02
-41.00
-34.46
-29.28
-25.07
-21.33
-17.64
-13.74
-9.59
-5.13
-0.20
5.54
12.49
20.84
30.34
40.22
49.25
56.14
59.91
60.29
57.82
53.62
48.93
44.65
41.11
38.14
35.40
32.67
29.99
27.56
25.46
23.49
21.21
18.13
13.95
8.71
2.65
-3.95
-10.99
-18.48
-26.44
-34.56
-42.27
-48.79
-53.37
-55.59
-55.40
-53.08
-49.12
-44.06
-38.43
-32.71
-27.34
-22.58
-18.44
-14.60
-10.49
-5.60
0.23
6.53
12.38
16.77
19.03
19.15
17.75
15.75
13.98
12.91
12.62
12.92
13.58
14.43
15.43
16.53
17.64
18.63
19.32
19.61
19.40
18.69
17.49
15.83
13.72
11.16
8.06
4.29
-0.27
-5.56
-11.35
-17.08
-22.07
-25.65
-27.40
-27.28
-25.61
-22.94
-19.73
-16.21
-12.27
-7.62
-1.96
4.77
12.34
20.29
28.06
35.13
41.18
46.07
49.85
52.62
54.58
55.86
56.61
56.93
56.93
56.66
56.18
55.45
54.37
52.78
50.49
47.38
43.36
38.40
32.58
25.98
18.72
10.94
2.72
-5.79
-14.42
-22.95
-31.07
-38.48
-44.94
-50.33
-54.60
-57.72
-59.61
-60.11
-59.08
-56.55
-52.76
-48.14
-43.21
-38.36
-33.78
-29.48
-25.39
-21.44
-17.65
-14.10
-10.94
-8.33
-6.44
-5.34
-4.96
-5.06
-5.33
-5.46
-5.28
-4.82
-4.21
-3.57
-2.93
-2.17
-1.23
-0.12
0.92
1.54
1.39
0.25
-1.86
-4.76
-8.21
-11.97
-15.93
-20.07
-24.48
-29.28
-34.55
-40.26
-46.20
-51.93
-56.91
-60.58
-62.55
-62.70
-61.10
-57.96
-53.56
-48.09
-41.72
-34.63
-27.02
-19.17
-11.36
-3.87
2.98
8.91
13.69
17.24
19.62
21.06
21.83
22.15
22.07
21.54
20.47
18.88
16.98
15.14
13.79
13.21
13.52
14.61
16.25
18.15
20.08
21.85
23.26
24.17
24.42
23.92
22.68
20.73
18.07
14.62
10.20
4.60
-2.28
-10.25
-18.73
-26.87
-33.73
-38.55
-40.97
-41.12
-39.45
-36.54
-32.89
-28.82
-24.43
-19.80
-14.99
-10.19
-5.64
-1.60
1.83
4.64
7.06
9.34
11.77
14.49
17.55
20.86
24.30
27.76
31.15
34.26
36.73
38.06
37.72
35.39
31.11
25.31
18.73
12.14
6.09
0.84
-3.66
-7.66
-11.40
-15.08
-18.82
-22.72
-26.91
-31.59
-37.03
-43.38
-50.64
-58.55
-66.54
-73.88
-79.79
-83.65
-85.04
-83.77
-79.83
-73.31
-64.37
-53.24
-40.32
-26.13
-11.24
3.81
18.61
32.88
46.43
59.03
70.38
80.14
87.98
93.68
97.14
98.38
97.47
94.53
89.81
83.68
76.73
69.64
63.05
57.36
52.70
48.91
45.69
42.74
39.91
37.15
34.50
31.98
29.53
27.05
24.39
21.43
18.14
14.54
10.69
6.64
2.36
-2.23
-7.25
-12.71
-18.48
-24.25
-29.49
-33.62
-36.03
-36.28
-34.06
-29.37
-22.56
-14.37
-5.80
2.14
8.77
13.91
17.86
21.11
24.10
26.89
29.29
31.04
31.99
32.27
32.14
31.80
31.29
30.43
29.03
27.10
24.82
22.56
20.63
19.25
18.34
17.68
16.93
15.76
13.98
11.52
8.49
5.07
1.47
-2.18
-5.80
-9.42
-13.11
-16.98
-21.12
-25.64
-30.61
-36.08
-41.95
-47.89
-53.36
-57.66
-60.19
-60.60
-58.97
-55.65
-51.15
-45.89
-40.13
-33.97
-27.52
-20.97
-14.55
-8.51
-2.98
1.95
6.24
9.81
12.56
14.46
15.63
16.26
16.60
16.82
16.95
16.95
16.75
16.34
15.73
14.96
14.00
12.80
11.25
9.27
6.85
4.01
0.80
-2.70
-6.42
-10.30
-14.25
-18.14
-21.85
-25.27
-28.35
-31.21
-34.02
-36.98
-40.16
-43.34
-46.04
-47.56
-47.33
-45.01
-40.67
-34.73
-27.79
-20.42
-13.05
-5.92
0.87
7.21
13.00
18.09
22.39
25.89
28.72
31.05
33.07
34.88
36.52
37.88
38.80
39.10
38.64
37.42
35.64
33.59
31.59
29.86
28.37
26.92
25.19
22.98
20.24
17.11
13.85
10.68
7.72
4.93
2.17
-0.72
-3.84
-7.23
-10.86
-14.68
-18.68
-22.88
-27.23
-31.54
-35.38
-38.18
-39.35
-38.50
-35.56
-30.85
-24.88
-18.23
-11.33
-4.43
2.35
8.96
15.34
21.36
26.90
31.76
35.77
38.75
40.60
41.36
41.24
40.53
39.57
38.57
37.59
36.62
35.56
34.37
33.05
31.60
30.02
28.23
26.15
23.69
20.86
17.70
14.31
10.80
7.23
3.61
-0.02
-3.65
-7.28
-10.88
-14.47
-18.14
-21.98
-26.07
-30.36
-34.60
-38.40
-41.28
-42.85
-42.88
-41.34
-38.36
-34.16
-28.94
-22.88
-16.21
-9.16
-2.06
4.76
10.98
16.34
20.71
24.07
26.47
28.01
28.78
28.88
28.44
27.62
26.65
25.77
25.10
24.63
24.20
23.53
22.39
20.67
18.40
15.80
13.06
10.32
7.69
5.15
2.65
0.08
-2.66
-5.66
-8.96
-12.52
-16.28
-20.14
-24.04
-27.95
-31.75
-35.13
-37.68
-38.92
-38.47
-36.21
-32.33
-27.21
-21.30
-14.96
-8.42
-1.84
4.67
10.96
16.85
22.18
26.82
30.69
33.76
36.00
37.42
38.06
38.01
37.43
36.52
35.49
34.52
33.68
32.93
32.16
31.23
30.06
28.67
27.16
25.60
24.03
22.40
20.66
18.74
16.65
14.45
12.15
9.73
7.16
4.42
1.57
-1.24
-3.87
-6.25
-8.49
-10.84
-13.58
-16.91
-20.77
-24.85
-28.65
-31.57
-33.16
-33.19
-31.70
-28.93
-25.18
-20.67
-15.48
-9.60
-3.10
3.81
10.72
17.16
22.69
27.08
30.32
32.52
33.84
34.35
34.10
33.15
31.65
29.86
28.05
26.43
25.09
23.99
23.05
22.15
21.20
20.11
18.80
17.22
15.36
13.30
11.18
9.12
7.23
5.47
3.77
2.03
0.18
-1.83
-3.99
-6.28
-8.65
-11.00
-13.26
-15.37
-17.35
-19.29
-21.32
-23.50
-25.74
-27.81
-29.41
-30.21
-29.97
-28.56
-25.97
-22.29
-17.70
-12.45
-6.84
-1.18
4.34
9.55
14.34
18.59
22.20
25.07
27.17
28.56
29.35
29.63
29.42
28.74
27.62
26.22
24.81
23.63
22.80
22.21
21.62
20.76
19.45
17.71
15.72
13.68
11.73
9.95
8.30
6.74
5.22
3.68
2.08
0.38
-1.40
-3.24
-5.08
-6.89
-8.64
-10.34
-12.02
-13.69
-15.42
-17.19
-18.96
-20.59
-21.85
-22.44
-22.10
-20.64
-18.03
-14.41
-10.06
-5.32
-0.56
3.91
7.83
11.09
13.64
15.51
16.76
17.49
17.79
17.74
17.49
17.17
16.89
16.72
16.66
16.67
16.64
16.46
16.03
15.29
14.25
12.95
11.47
9.89
8.27
6.63
5.00
3.36
1.73
0.10
-1.56
-3.26
-5.05
-6.98
-9.11
-11.46
-14.03
-16.78
-19.60
-22.37
-24.89
-26.95
-28.32
-28.78
-28.18
-26.43
-23.56
-19.72
-15.16
-10.24
-5.27
-0.54
3.77
7.58
10.89
13.68
15.91
17.52
18.40
18.52
17.96
16.92
15.70
14.56
13.64
12.98
12.49
12.07
11.63
11.12
10.52
9.80
8.90
7.77
6.41
4.83
3.05
1.13
-0.88
-2.94
-4.98
-6.95
-8.83
-10.65
-12.46
-14.32
-16.27
-18.32
-20.47
-22.70
-24.89
-26.88
-28.35
-28.94
-28.35
-26.47
-23.38
-19.36
-14.77
-9.89
-4.93
-0.02
4.77
9.30
13.41
16.92
19.70
21.69
22.96
23.61
23.75
23.43
22.67
21.46
19.86
18.04
16.24
14.68
13.44
12.48
11.60
10.59
9.31
7.75
5.93
3.93
1.76
-0.52
-2.84
-5.13
-7.31
-9.36
-11.32
-13.30
-15.37
-17.53
-19.74
-21.92
-24.04
-26.02
-27.71
-28.89
-29.26
-28.52
-26.49
-23.19
-18.84
-13.81
-8.50
-3.24
1.76
6.36
10.50
14.13
17.19
19.61
21.31
22.26
22.44
21.88
20.70
19.09
17.27
15.44
13.75
12.24
10.88
9.64
8.45
7.33
6.29
5.32
4.35
3.25
1.94
0.35
-1.51
-3.56
-5.71
-7.90
-10.11
-12.33
-14.58
-16.84
-19.12
-21.47
-23.91
-26.43
-28.90
-31.04
-32.46
-32.77
-31.69
-29.14
-25.27
-20.40
-14.93
-9.25
-3.70
1.50
6.20
10.31
13.77
16.49
18.40
19.48
19.73
19.29
18.32
17.03
15.57
14.08
12.60
11.16
9.75
8.39
7.06
5.73
4.39
2.98
1.48
-0.11
-1.76
-3.45
-5.17
-6.91
-8.75
-10.73
-12.87
-15.13
-17.41
-19.54
-21.43
-23.04
-24.44
-25.80
-27.32
-29.14
-31.27
-33.53
-35.55
-36.91
-37.16
-36.03
-33.48
-29.68
-24.97
-19.72
-14.23
-8.70
-3.21
2.18
7.35
12.17
16.42
19.97
22.75
24.79
26.22
27.14
27.65
27.83
27.69
27.28
26.60
25.72
24.70
23.62
22.61
21.76
21.09
20.50
19.77
18.67
17.06
14.99
12.70
10.45
8.42
6.62
4.90
3.09
1.16
-0.81
-2.66
-4.27
-5.74
-7.30
-9.23
-11.69
-14.60
-17.66
-20.42
-22.43
-23.32
-22.85
-20.96
-17.76
-13.52
-8.62
-3.49
1.48
6.04
10.13
13.76
17.04
19.97
22.46
24.32
25.36
25.48
24.76
23.48
22.01
20.64
19.55
18.72
18.07
17.47
16.85
16.19
15.53
14.84
14.09
13.22
12.13
10.79
9.18
7.34
5.34
3.23
1.08
-1.11
-3.33
-5.55
-7.73
-9.79
-11.65
-13.38
-15.14
-17.12
-19.49
-22.17
-24.95
-27.42
-29.19
-29.92
-29.43
-27.63
-24.59
-20.44
-15.48
-10.07
-4.64
0.49
5.12
9.18
12.72
15.77
18.25
20.05
21.04
21.15
20.45
19.16
17.55
15.89
14.31
12.86
11.50
10.18
8.92
7.78
6.80
5.94
5.08
4.06
2.72
1.04
-0.90
-2.93
-4.93
-6.84
-8.70
-10.55
-12.45
-14.37
-16.24
-18.00
-19.64
-21.21
-22.82
-24.60
-26.61
-28.85
-31.17
-33.30
-34.95
-35.79
-35.59
-34.18
-31.56
-27.81
-23.14
-17.79
-12.02
-6.10
-0.26
5.28
10.36
14.83
18.61
21.65
23.94
25.49
26.33
26.48
26.02
25.05
23.68
22.03
20.22
18.34
16.50
14.77
13.21
11.83
10.56
9.30
7.94
6.39
4.63
2.69
0.56
-1.76
-4.33
-7.15
-10.18
-13.28
-16.25
-18.98
-21.43
-23.78
-26.28
-29.19
-32.63
-36.48
-40.39
-43.90
-46.50
-47.84
-47.76
-46.30
-43.64
-39.99
-35.58
-30.60
-25.18
-19.46
-13.58
-7.65
-1.82
3.80
9.09
13.95
18.31
22.09
25.25
27.72
29.48
30.57
31.06
31.07
30.68
29.95
28.83
27.28
25.26
22.81
20.02
17.02
13.96
10.98
8.14
5.50
2.98
0.49
-2.10
-4.86
-7.72
-10.52
-13.07
-15.20
-16.89
-18.27
-19.53
-20.86
-22.36
-23.98
-25.58
-26.93
-27.77
-27.81
-26.82
-24.67
-21.35
-17.06
-12.12
-6.94
-1.90
2.70
6.73
10.19
13.16
15.77
18.08
20.12
21.82
23.10
23.88
24.09
23.72
22.85
21.61
20.18
18.76
17.45
16.24
15.03
13.66
11.99
10.01
7.81
5.57
3.47
1.58
-0.15
-1.88
-3.74
-5.82
-8.03
-10.24
-12.32
-14.24
-16.07
-17.96
-20.07
-22.46
-25.08
-27.85
-30.64
-33.38
-36.02
-38.48
-40.60
-42.11
-42.65
-41.91
-39.78
-36.41
-32.31
-28.15
-24.53
-21.81
-19.98
-18.72
-17.54
-15.90
-13.28
-9.23
-3.45
4.10
13.12
22.98
32.94
42.47
51.48
60.32
69.50
79.38
89.98
100.92
111.73
121.91
131.10
139.00
145.39
150.11
153.17
154.64
154.54
152.64
148.48
141.56
131.78
119.68
106.46
93.55
82.09
72.55
64.73
58.05
51.94
46.09
40.41
34.83
29.13
22.92
15.75
7.28
-2.55
-13.51
-25.09
-36.61
-47.30
-56.48
-63.66
-68.73
-71.85
-73.44
-73.88
-73.40
-71.87
-68.93
-64.14
-57.31
-48.63
-38.77
-28.68
-19.47
-12.07
-7.10
-4.78
-4.96
-7.20
-10.89
-15.33
-19.83
-23.81
-26.83
-28.64
-29.24
-28.82
-27.77
-26.56
-25.64
-25.33
-25.78
-26.92
-28.68
-31.01
-34.02
-37.79
-42.24
-46.90
-50.88
-53.03
-52.33
-48.17
-40.66
-30.58
-19.12
-7.64
2.68
11.00
16.88
20.16
20.94
19.52
16.45
12.46
8.47
5.29
3.50
3.17
3.98
5.34
6.73
7.87
8.73
9.46
10.09
10.54
10.58
9.99
8.64
6.47
3.45
-0.49
-5.41
-11.25
-17.74
-24.43
-30.87
-36.71
-41.97
-46.92
-52.01
-57.68
-64.23
-71.71
-79.93
-88.44
-96.50
-103.25
-107.80
-109.49
-108.14
-104.14
-98.29
-91.61
-84.93
-78.75
-73.15
-68.01
-63.19
-58.65
-54.46
-50.61
-46.94
-43.06
-38.48
-32.80
-25.87
-17.85
-9.10
-0.05
8.94
17.59
25.65
32.96
39.35
44.77
49.29
53.09
56.42
59.43
62.11
64.31
65.72
66.07
65.21
63.13
60.01
56.06
51.52
46.58
41.46
36.38
31.58
27.24
23.39
19.83
16.14
11.91
6.91
1.28
-4.46
-9.63
-13.56
-15.86
-16.42
-15.42
-13.06
-9.55
-4.97
0.65
7.19
14.42
21.94
29.26
35.84
41.17
44.90
46.80
46.82
44.98
41.39
36.22
29.74
22.30
14.27
5.94
-2.51
-10.98
-19.36
-27.38
-34.64
-40.71
-45.32
-48.49
-50.45
-51.54
-51.90
-51.42
-49.72
-46.48
-41.58
-35.33
-28.40
-21.67
-16.04
-12.15
-10.32
-10.53
-12.55
-16.05
-20.65
-25.94
-31.34
-36.12
-39.41
-40.38
-38.43
-33.40
-25.55
-15.50
-4.04
8.04
20.08
31.59
42.16
51.37
58.73
63.69
65.84
65.07
61.66
56.21
49.39
41.69
33.38
24.56
15.36
6.12
-2.69
-10.55
-17.25
-22.91
-27.92
-32.70
-37.50
-42.27
-46.79
-50.81
-54.25
-57.20
-59.83
-62.26
-64.35
-65.73
-65.86
-64.30
-60.92
-56.07
-50.49
-45.06
-40.49
-37.09
-34.71
-32.94
-31.38
-29.81
-28.18
-26.54
-24.79
-22.71
-20.03
-16.57
-12.44
-8.00
-3.73
-0.08
2.72
4.70
6.13
7.30
8.50
9.88
11.42
13.02
14.53
15.84
16.89
17.67
18.20
18.50
18.58
18.38
17.88
16.99
15.64
13.72
11.09
7.66
3.44
-1.49
-6.98
-12.72
-18.39
-23.62
-28.08
-31.66
-34.53
-37.10
-39.90
-43.34
-47.51
-52.05
-56.22
-59.06
-59.69
-57.57
-52.66
-45.44
-36.73
-27.43
-18.22
-9.39
-0.82
7.85
16.93
26.51
36.37
46.02
54.92
62.60
68.73
73.16
75.92
77.17
77.20
76.39
75.12
73.71
72.38
71.23
70.28
69.54
69.00
68.66
68.47
68.31
67.94
67.07
65.41
62.68
58.79
53.74
47.59
40.35
31.92
22.16
11.01
-1.34
-14.34
-27.25
-39.34
-50.20
-59.79
-68.37
-76.22
-83.36
-89.46
-93.98
-96.39
-96.40
-94.00
-89.41
-82.89
-74.73
-65.26
-55.00
-44.67
-35.17
-27.22
-21.10
-16.43
-12.35
-7.76
-1.85
5.60
14.10
22.75
30.67
37.35
42.71
47.01
50.51
53.31
55.51
57.37
59.49
62.60
67.04
72.34
77.03
79.12
76.98
70.08
59.34
46.60
33.85
22.35
12.39
3.60
-4.39
-11.62
-17.74
-22.50
-26.10
-29.33
-33.21
-38.50
-45.33
-53.29
-61.81
-70.59
-79.80
-89.78
-100.55
-111.54
-121.60
-129.41
-134.17
-135.91
-135.40
-133.70
-131.48
-128.70
-124.72
-118.67
-109.91
-98.21
-83.67
-66.54
-47.07
-25.62
-2.75
20.68
43.74
65.55
85.52
103.23
118.33
130.35
138.90
143.83
145.53
144.92
143.21
141.51
140.45
140.05
139.82
139.18
137.67
135.20
131.98
128.32
124.30
119.69
113.88
106.11
95.70
82.26
65.94
47.57
28.82
11.98
-0.51
-7.02
-7.61
-4.58
-2.00
-4.34
-14.74
-33.69
-58.72
-85.37
-108.88
-125.71
-134.39
-135.32
-129.96
-119.98
-106.83
-91.73
-75.99
-61.20
-49.06
-40.86
-36.97
-36.54
-37.73
-38.42
-37.00
-32.92
-26.85
-20.17
-14.38
-10.43
-8.50
-8.08
-8.39
-8.81
-9.11
-9.44
-10.03
-10.97
-12.10
-13.02
-13.40
-13.11
-12.36
-11.57
-11.18
-11.48
-12.51
-14.14
-16.17
-18.42
-20.75
-23.09
-25.42
-27.86
-30.65
-33.97
-37.79
-41.65
-44.63
-45.63
-43.67
-38.39
-30.16
-20.02
-9.28
0.82
9.51
16.58
22.29
27.18
31.87
36.97
42.91
49.88
57.66
65.60
72.65
77.73
79.97
79.16
75.68
70.49
64.70
59.27
54.77
51.39
48.98
47.25
45.82
44.31
42.42
39.98
37.03
33.75
30.37
26.99
23.57
19.95
15.96
11.59
7.02
2.60
-1.36
-4.69
-7.45
-9.94
-12.57
-15.80
-19.92
-25.03
-30.87
-36.81
-41.87
-44.98
-45.31
-42.52
-36.94
-29.39
-20.91
-12.32
-4.08
3.84
11.72
19.92
28.74
38.30
48.49
58.84
68.61
76.87
82.87
86.30
87.51
87.32
86.69
86.25
86.08
85.85
85.06
83.40
80.86
77.65
73.98
69.87
65.11
59.43
52.59
44.50
35.19
24.82
13.58
1.73
-10.45
-22.60
-34.30
-45.17
-54.90
-63.40
-70.77
-77.31
-83.40
-89.28
-94.88
-99.80
-103.36
-104.82
-103.63
-99.62
-93.06
-84.52
-74.67
-64.12
-53.28
-42.43
-31.81
-21.72
-12.57
-4.74
1.45
5.92
8.84
10.55
11.51
12.05
12.37
12.45
12.19
11.45
10.21
8.54
6.62
4.65
2.72
0.82
-1.25
-3.73
-6.87
-10.76
-15.32
-20.31
-25.45
-30.53
-35.48
-40.39
-45.38
-50.62
-56.18
-62.18
-68.77
-76.06
-84.01
-92.22
-99.96
-106.21
-110.02
-110.79
-108.46
-103.48
-96.57
-88.46
-79.66
-70.47
-60.95
-51.13
-41.05
-30.84
-20.67
-10.80
-1.44
7.22
15.12
22.28
28.74
34.56
39.76
44.40
48.67
52.80
57.07
61.56
66.14
70.43
73.96
76.38
77.54
77.53
76.51
74.65
72.06
68.87
65.20
61.20
57.00
52.58
47.85
42.62
36.73
30.14
22.92
15.29
7.64
0.54
-5.37
-9.42
-11.09
-10.13
-6.59
-0.79
6.80
15.63
25.17
34.93
44.47
53.46
61.63
68.80
74.77
79.32
82.19
83.17
82.19
79.35
74.96
69.42
63.13
56.45
49.67
43.01
36.70
30.92
25.79
21.30
17.27
13.43
9.52
5.37
1.00
-3.40
-7.59
-11.38
-14.75
-17.80
-20.74
-23.73
-26.86
-30.13
-33.50
-37.04
-40.85
-45.08
-49.67
-54.32
-58.41
-61.17
-61.89
-60.20
-56.12
-49.98
-42.28
-33.56
-24.25
-14.73
-5.37
3.51
11.68
18.98
25.35
30.77
35.20
38.61
41.07
42.75
43.99
45.11
46.34
47.69
48.94
49.76
49.80
48.84
46.85
43.95
40.42
36.50
32.38
28.13
23.66
18.87
13.64
7.97
1.97
-4.20
-10.33
-16.21
-21.70
-26.70
-31.17
-35.08
-38.48
-41.47
-44.19
-46.81
-49.43
-52.00
-54.25
-55.67
-55.64
-53.61
-49.25
-42.59
-33.95
-23.84
-12.91
-1.78
8.96
18.81
27.38
34.44
39.93
43.98
46.87
48.97
50.73
52.55
54.84
57.90
61.95
67.05
73.12
79.88
86.85
93.45
99.15
103.56
106.61
108.52
109.61
110.10
109.91
108.68
105.81
100.76
93.22
83.18
70.88
56.74
41.21
24.75
7.88
-8.79
-24.56
-38.75
-50.88
-60.88
-69.13
-76.33
-83.21
-90.16
-97.07
-103.37
-108.26
-111.12
-111.68
-110.13
-106.87
-102.34
-96.84
-90.54
-83.56
-76.04
-68.29
-60.70
-53.71
-47.67
-42.76
-38.89
-35.80
-33.15
-30.66
-28.31
-26.17
-24.38
-22.88
-21.39
-19.50
-16.87
-13.40
-9.26
-4.84
-0.48
3.63
7.47
11.10
14.54
17.59
19.99
21.47
21.85
21.12
19.38
16.79
13.52
9.74
5.56
1.08
-3.62
-8.50
-13.52
-18.65
-23.77
-28.71
-33.18
-36.83
-39.29
-40.22
-39.42
-36.83
-32.61
-27.05
-20.60
-13.69
-6.71
0.03
6.30
11.95
16.81
20.74
23.63
25.43
26.23
26.22
25.66
24.81
23.83
22.77
21.59
20.22
18.65
16.92
15.11
13.22
11.24
9.12
6.84
4.46
2.11
-0.07
-2.02
-3.74
-5.32
-6.87
-8.40
-9.91
-11.38
-12.86
-14.49
-16.45
-18.94
-22.05
-25.73
-29.85
-34.30
-39.07
-44.23
-49.82
-55.69
-61.48
-66.64
-70.71
-73.43
-74.85
-75.21
-74.76
-73.63
-71.81
-69.28
-66.15
-62.76
-59.50
-56.78
-54.78
-53.47
-52.64
-52.08
-51.61
-51.18
-50.74
-50.21
-49.42
-48.20
-46.33
-43.71
-40.18
-35.61
-29.81
-22.58
-13.81
-3.60
7.77
19.83
32.13
44.26
55.98
67.23
78.12
88.92
99.95
111.39
123.17
134.78
145.38
154.04
160.01
162.95
162.92
160.28
155.50
149.05
141.48
133.43
125.66
118.88
113.51
109.53
106.44
103.51
100.11
96.05
91.68
87.89
85.67
85.90
88.99
94.74
102.42
110.83
118.57
124.28
126.85
125.64
120.63
112.46
102.26
91.37
80.88
71.30
62.43
53.46
43.39
31.44
17.43
1.80
-14.43
-30.08
-44.12
-55.91
-65.31
-72.55
-78.02
-82.12
-85.14
-87.18
-88.36
-88.84
-88.88
-88.76
-88.66
-88.59
-88.40
-87.92
-87.18
-86.46
-86.18
-86.67
-87.86
-89.20
-89.76
-88.50
-84.70
-78.21
-69.57
-59.80
-50.07
-41.45
-34.61
-29.84
-27.13
-26.38
-27.42
-29.99
-33.67
-37.80
-41.54
-44.12
-44.91
-43.50
-39.46
-32.26
-21.52
-7.49
8.20
22.43
31.13
30.69
19.60
-0.63
-25.76
-50.32
-69.52
-80.89
-84.64
-82.97
-78.71
-74.11
-70.25
-67.24
-64.76
-62.62
-60.96
-60.12
-60.36
-61.58
-63.34
-65.07
-66.38
-67.18
-67.61
-67.93
-68.14
-67.93
-66.70
-63.79
-58.77
-51.69
-43.01
-33.53
-24.06
-15.27
-7.49
-0.78
4.97
9.93
14.19
17.83
20.83
23.17
24.86
25.94
26.53
26.83
27.08
27.48
28.11
28.83
29.36
29.37
28.62
27.11
25.06
22.79
20.58
18.53
16.53
14.35
11.75
8.62
5.05
1.24
-2.51
-5.98
-9.06
-11.78
-14.29
-16.83
-19.69
-23.11
-27.21
-31.88
-36.69
-41.01
-44.08
-45.27
-44.31
-41.27
-36.54
-30.67
-24.11
-17.17
-10.00
-2.70
4.64
11.81
18.54
24.56
29.63
33.63
36.57
38.60
39.97
40.90
41.57
42.05
42.29
42.25
41.95
41.45
40.88
40.27
39.60
38.76
37.62
36.11
34.27
32.20
30.06
27.88
25.62
23.19
20.44
17.32
13.85
10.20
6.57
3.18
0.14
-2.54
-4.99
-7.50
-10.34
-13.76
-17.81
-22.36
-27.01
-31.24
-34.50
-36.35
-36.59
-35.23
-32.45
-28.48
-23.54
-17.79
-11.39
-4.54
2.49
9.41
15.93
21.83
26.93
31.07
34.15
36.10
36.94
36.87
36.15
35.05
33.76
32.32
30.62
28.55
26.03
23.09
19.90
16.68
13.68
11.05
8.89
7.19
5.80
4.48
2.93
0.84
-1.98
-5.49
-9.40
-13.25
-16.59
-19.15
-21.00
-22.56
-24.38
-27.01
-30.75
-35.55
-41.06
-46.75
-52.00
-56.33
-59.36
-60.92
-61.00
-59.79
-57.55
-54.64
-51.32
-47.76
-43.88
-39.40
-33.96
-27.36
-19.77
-11.81
-4.42
1.45
5.22
6.85
6.84
5.95
4.85
3.83
2.77
1.28
-1.02
-4.25
-8.27
-12.69
-17.03
-20.90
-23.97
-26.09
-27.16
-27.20
-26.34
-24.93
-23.49
-22.57
-22.51
-23.24
-24.22
-24.61
-23.53
-20.40
-15.07
-7.76
1.07
10.93
21.37
31.89
41.85
50.51
57.13
61.24
62.86
62.49
60.95
59.10
57.52
56.52
56.12
56.25
56.87
57.96
59.40
60.91
62.05
62.35
61.49
59.46
56.53
53.14
49.81
46.84
44.35
42.20
40.15
37.99
35.71
33.53
31.88
31.18
31.70
33.43
36.04
39.02
41.83
44.03
45.29
45.47
44.50
42.39
39.27
35.36
31.04
26.70
22.82
19.74
17.72
16.78
16.76
17.31
17.91
18.05
17.36
15.75
13.42
10.87
8.81
7.91
8.66
11.19
15.24
20.21
25.37
30.03
33.68
36.12
37.34
37.55
37.00
36.03
34.97
34.12
33.72
33.90
34.67
35.89
37.20
38.04
37.64
35.29
30.47
23.20
13.99
3.74
-6.63
-16.46
-25.64
-34.49
-43.55
-53.21
-63.49
-73.87
-83.38
-90.84
-95.17
-95.77
-92.68
-86.59
-78.68
-70.30
-62.65
-56.62
-52.67
-50.84
-50.86
-52.17
-54.05
-55.82
-56.91
-57.05
-56.29
-54.93
-53.28
-51.54
-49.66
-47.41
-44.46
-40.55
-35.57
-29.58
-22.78
-15.35
-7.51
0.53
8.53
16.21
23.28
29.54
34.90
39.39
43.10
46.18
48.76
50.99
52.99
54.83
56.52
57.96
58.94
59.27
58.72
57.21
54.65
51.03
46.37
40.67
34.09
26.85
19.40
12.26
5.94
0.81
-3.06
-5.89
-8.16
-10.44
-13.14
-16.38
-19.97
-23.52
-26.62
-29.09
-31.00
-32.64
-34.39
-36.48
-38.97
-41.75
-44.61
-47.38
-49.84
-51.74
-52.74
-52.40
-50.31
-46.19
-40.07
-32.26
-23.36
-14.10
-5.15
2.96
9.98
15.92
20.93
25.22
28.97
32.23
34.88
36.63
37.16
36.18
33.63
29.80
25.43
21.70
19.91
21.16
25.84
33.38
42.28
50.43
55.73
56.76
53.13
45.51
35.32
24.16
13.41
3.94
-3.90
-10.03
-14.54
-17.49
-18.99
-19.26
-18.67
-17.78
-17.10
-17.02
-17.66
-18.87
-20.39
-22.03
-23.68
-25.34
-26.98
-28.53
-29.75
-30.35
-30.03
-28.63
-26.18
-22.81
-18.72
-14.00
-8.67
-2.72
3.76
10.48
17.00
22.80
27.43
30.67
32.54
33.26
33.13
32.44
31.44
30.35
29.36
28.57
28.03
27.66
27.39
27.11
26.77
26.32
25.73
24.99
24.13
23.20
22.26
21.32
20.30
19.12
17.74
16.17
14.54
12.95
11.41
9.79
7.78
5.06
1.35
-3.44
-9.21
-15.62
-22.21
-28.42
-33.69
-37.60
-39.88
-40.46
-39.43
-36.98
-33.28
-28.55
-23.04
-17.02
-10.77
-4.54
1.50
7.28
12.77
17.92
22.60
26.63
29.84
32.16
33.70
34.72
35.54
36.47
37.74
39.47
41.66
44.14
46.62
48.64
49.70
49.36
47.39
43.86
39.13
33.68
27.97
22.21
16.38
10.34
3.98
-2.61
-9.16
-15.33
-20.84
-25.62
-29.76
-33.42
-36.65
-39.36
-41.35
-42.44
-42.63
-42.13
-41.34
-40.74
-40.68
-41.33
-42.59
-44.20
-45.73
-46.76
-46.85
-45.66
-42.98
-38.77
-33.24
-26.90
-20.44
-14.58
-9.85
-6.46
-4.21
-2.74
-1.61
-0.54
0.58
1.75
2.98
4.33
5.85
7.47
9.04
10.33
11.21
11.73
12.15
12.81
13.98
15.75
17.92
20.13
21.98
23.14
23.47
23.02
22.00
20.65
19.21
17.82
16.48
15.12
13.62
11.95
10.22
8.82
8.29
9.33
12.50
18.04
25.64
34.44
43.14
50.43
55.27
57.11
55.99
52.37
47.08
41.19
35.97
32.70
32.25
34.76
39.42
44.71
49.06
51.55
52.31
52.34
52.88
54.58
57.09
59.15
59.12
55.54
47.57
34.91
17.71
-3.55
-27.98
-53.97
-79.33
-101.62
-118.90
-130.44
-136.98
-140.44
-143.07
-146.67
-151.96
-158.52
-165.13
-170.26
-172.58
-171.28
-166.20
-157.80
-146.97
-134.71
-121.83
-108.85
-95.96
-83.22
-70.76
-58.81
-47.59
-37.23
-27.69
-18.84
-10.68
-3.36
2.78
7.41
10.35
11.70
11.80
11.09
10.04
8.99
8.15
7.60
7.34
7.37
7.65
8.11
8.62
8.93
8.82
8.12
6.84
5.17
3.39
1.76
0.40
-0.74
-1.83
-3.04
-4.52
-6.38
-8.60
-11.14
-13.83
-16.32
-18.23
-19.12
-18.65
-16.58
-12.91
-7.80
-1.56
5.39
12.69
20.01
27.20
34.20
40.95
47.36
53.23
58.33
62.48
65.61
67.67
68.66
68.47
66.97
64.02
59.61
53.93
47.31
40.23
33.09
26.19
19.68
13.60
8.03
3.14
-0.75
-3.31
-4.28
-3.63
-1.70
0.89
3.37
5.08
5.63
4.99
3.47
1.56
-0.21
-1.47
-2.00
-1.78
-0.89
0.58
2.49
4.71
7.14
9.76
12.70
16.29
20.91
26.86
34.06
41.91
49.32
55.00
57.81
57.20
53.39
47.31
40.25
33.37
27.38
22.33
17.79
13.22
8.25
2.87
-2.56
-7.60
-11.94
-15.49
-18.41
-20.87
-22.97
-24.65
-25.84
-26.57
-27.11
-27.93
-29.51
-32.15
-35.84
-40.19
-44.64
-48.61
-51.67
-53.56
-54.24
-53.74
-52.09
-49.35
-45.48
-40.50
-34.46
-27.52
-19.97
-12.23
-4.75
2.01
7.77
12.37
15.83
18.27
19.84
20.67
20.85
20.49
19.72
18.75
17.81
17.15
16.89
17.01
17.30
17.43
17.03
15.88
13.88
11.17
8.00
4.69
1.49
-1.47
-4.20
-6.82
-9.54
-12.60
-16.15
-20.24
-24.73
-29.26
-33.33
-36.41
-38.05
-38.08
-36.54
-33.68
-29.81
-25.20
-20.00
-14.34
-8.35
-2.20
3.84
9.51
14.58
18.89
22.39
25.12
27.12
28.45
29.17
29.28
28.83
27.88
26.55
25.05
23.53
22.08
20.67
19.14
17.29
14.99
12.22
9.12
5.86
2.59
-0.58
-3.66
-6.69
-9.74
-12.87
-16.16
-19.63
-23.31
-27.13
-30.93
-34.42
-37.26
-39.10
-39.69
-38.91
-36.73
-33.27
-28.65
-23.05
-16.62
-9.53
-2.04
5.53
12.72
19.12
24.39
28.45
31.41
33.52
35.04
36.08
36.62
36.55
35.80
34.41
32.56
30.46
28.34
26.35
24.50
22.77
21.02
19.12
16.88
14.21
11.09
7.63
3.97
0.28
-3.33
-6.80
-10.18
-13.52
-16.95
-20.58
-24.40
-28.32
-32.05
-35.19
-37.33
-38.11
-37.35
-35.04
-31.27
-26.25
-20.22
-13.45
-6.20
1.21
8.52
15.44
21.75
27.23
31.72
35.17
37.63
39.28
40.29
40.81
40.84
40.34
39.25
37.58
35.47
33.09
30.62
28.11
25.56
22.89
20.04
17.00
13.80
10.53
7.26
4.03
0.81
-2.45
-5.86
-9.50
-13.45
-17.72
-22.25
-26.92
-31.49
-35.73
-39.29
-41.84
-43.06
-42.74
-40.79
-37.29
-32.43
-26.51
-19.85
-12.74
-5.46
1.80
8.85
15.48
21.46
26.60
30.73
33.81
35.87
37.03
37.41
37.16
36.45
35.42
34.22
32.95
31.62
30.19
28.57
26.75
24.76
22.65
20.50
18.28
15.95
13.45
10.76
7.87
4.81
1.61
-1.70
-5.07
-8.39
-11.55
-14.43
-17.01
-19.37
-21.71
-24.32
-27.41
-31.15
-35.40
-39.84
-43.92
-47.07
-48.86
-49.08
-47.77
-45.14
-41.41
-36.78
-31.39
-25.33
-18.72
-11.75
-4.57
2.57
9.45
15.84
21.53
26.30
30.04
32.65
34.17
34.70
34.48
33.82
33.05
32.41
32.01
31.77
31.48
30.94
29.99
28.57
26.73
24.56
22.17
19.68
17.21
14.83
12.56
10.33
8.05
5.63
3.04
0.32
-2.47
-5.30
-8.13
-10.93
-13.67
-16.28
-18.75
-21.12
-23.48
-25.98
-28.73
-31.78
-35.09
-38.50
-41.73
-44.40
-46.14
-46.63
-45.72
-43.39
-39.76
-34.98
-29.25
-22.84
-16.04
-9.19
-2.60
3.52
9.09
14.07
18.44
22.13
25.01
27.00
28.14
28.55
28.41
27.87
27.01
25.88
24.52
23.02
21.47
19.97
18.54
17.09
15.52
13.71
11.62
9.27
6.75
4.22
1.77
-0.50
-2.58
-4.53
-6.41
-8.30
-10.25
-12.28
-14.39
-16.59
-18.88
-21.30
-23.81
-26.40
-29.05
-31.74
-34.51
-37.32
-40.10
-42.64
-44.60
-45.61
-45.33
-43.57
-40.34
-35.84
-30.38
-24.30
-17.90
-11.41
-5.02
1.14
6.92
12.21
16.89
20.88
24.18
26.83
28.90
30.51
31.74
32.63
33.18
33.34
33.08
32.45
31.56
30.57
29.59
28.65
27.63
26.41
24.84
22.92
20.67
18.20
15.55
12.77
9.86
6.86
3.86
0.94
-1.83
-4.49
-7.14
-9.92
-12.93
-16.22
-19.73
-23.30
-26.72
-29.70
-31.93
-33.17
-33.28
-32.23
-30.08
-26.93
-22.86
-17.99
-12.43
-6.38
-0.14
5.98
11.61
16.50
20.49
23.58
25.88
27.54
28.71
29.47
29.82
29.75
29.27
28.48
27.50
26.49
25.51
24.47
23.21
21.59
19.61
17.36
15.03
12.76
10.56
8.32
5.82
2.98
-0.22
-3.61
-6.96
-10.04
-12.72
-15.06
-17.21
-19.41
-21.88
-24.72
-27.88
-31.18
-34.38
-37.25
-39.64
-41.49
-42.79
-43.48
-43.50
-42.72
-41.10
-38.63
-35.33
-31.24
-26.34
-20.64
-14.20
-7.26
-0.17
6.61
12.66
17.70
21.63
24.57
26.74
28.41
29.77
30.91
31.82
32.44
32.67
32.46
31.80
30.74
29.39
27.88
26.34
24.88
23.51
22.19
20.76
19.05
16.86
14.10
10.79
7.10
3.26
-0.45
-3.84
-6.76
-9.21
-11.30
-13.21
-15.16
-17.32
-19.83
-22.77
-26.15
-29.90
-33.83
-37.58
-40.76
-42.97
-43.96
-43.68
-42.25
-39.81
-36.45
-32.16
-26.90
-20.73
-13.86
-6.68
0.36
6.89
12.65
17.53
21.51
24.61
26.84
28.27
29.02
29.26
29.19
28.94
28.61
28.18
27.61
26.86
25.94
24.91
23.84
22.75
21.65
20.44
19.04
17.38
15.42
13.17
10.70
8.11
5.49
2.94
0.53
-1.74
-3.88
-6.00
-8.18
-10.53
-13.13
-15.99
-19.11
-22.47
-26.05
-29.83
-33.76
-37.63
-41.12
-43.84
-45.41
-45.56
-44.19
-41.34
-37.11
-31.63
-25.06
-17.60
-9.58
-1.44
6.38
13.48
19.59
24.65
28.70
31.89
34.32
36.08
37.15
37.49
37.10
36.08
34.67
33.13
31.72
30.58
29.69
28.91
28.03
26.88
25.36
23.49
21.38
19.12
16.79
14.38
11.88
9.25
6.51
3.70
0.89
-1.87
-4.57
-7.19
-9.75
-12.31
-14.88
-17.54
-20.35
-23.39
-26.71
-30.27
-33.97
-37.54
-40.65
-42.95
-44.15
-44.05
-42.62
-39.93
-36.09
-31.24
-25.54
-19.23
-12.55
-5.81
0.67
6.68
12.04
16.69
20.58
23.74
26.19
27.95
29.06
29.57
29.53
29.03
28.23
27.33
26.51
25.85
25.29
24.62
23.60
22.13
20.21
18.02
15.79
13.65
11.66
9.76
7.86
5.89
3.79
1.52
-0.92
-3.53
-6.26
-9.01
-11.67
-14.20
-16.61
-19.02
-21.59
-24.45
-27.67
-31.17
-34.76
-38.15
-41.02
-43.05
-44.02
-43.84
-42.44
-39.83
-36.02
-31.09
-25.22
-18.69
-11.86
-5.03
1.52
7.66
13.29
18.33
22.67
26.19
28.83
30.60
31.59
31.98
31.89
31.45
30.70
29.69
28.50
27.26
26.07
24.99
23.99
22.93
21.69
20.15
18.31
16.20
13.89
11.44
8.90
6.36
3.92
1.66
-0.35
-2.17
-3.94
-5.88
-8.15
-10.84
-13.88
-17.15
-20.49
-23.81
-27.11
-30.43
-33.76
-37.00
-39.95
-42.36
-44.00
-44.65
-44.16
-42.42
-39.35
-35.01
-29.55
-23.30
-16.60
-9.76
-2.92
3.77
10.16
15.98
20.86
24.50
26.79
27.89
28.17
27.99
27.60
27.08
26.37
25.41
24.20
22.80
21.32
19.85
18.46
17.13
15.82
14.47
13.05
11.54
10.03
8.60
7.29
6.10
4.91
3.53
1.83
-0.19
-2.44
-4.72
-6.92
-9.04
-11.18
-13.50
-16.06
-18.86
-21.84
-24.97
-28.28
-31.86
-35.68
-39.54
-43.07
-45.80
-47.34
-47.47
-46.24
-43.77
-40.29
-35.96
-30.93
-25.31
-19.23
-12.82
-6.24
0.28
6.49
12.10
16.88
20.64
23.33
25.05
