1594213322.00
64.000000
-0.00
-0.00
-0.00
-0.00
-0.00
-0.00
-0.00
-0.00
-0.00
-0.00
0.00
0.01
0.01
-0.00
-0.03
-0.05
-0.05
0.00
0.13
0.36
0.66
1.01
1.37
1.72
2.06
2.40
2.79
3.24
3.80
4.42
5.06
5.66
6.20
6.68
7.15
7.68
8.31
9.14
10.09
11.04
11.88
12.56
13.14
13.76
14.65
15.96
17.91
20.32
22.90
25.38
27.58
29.57
31.68
34.32
37.81
42.54
48.15
54.10
59.83
64.97
69.58
74.14
79.34
85.71
93.76
103.00
112.62
121.73
129.77
136.75
143.30
150.75
157.77
166.64
177.95
191.79
206.97
220.57
228.25
225.36
208.53
176.87
132.76
80.05
23.07
-34.94
-92.44
-149.15
-205.22
-260.36
-313.74
-363.88
-409.85
-450.92
-486.51
-515.71
-537.16
-549.12
-549.88
-538.40
-514.43
-479.16
-434.63
-383.40
-328.07
-270.87
-213.60
-157.58
-103.90
-53.47
-7.23
34.02
69.70
99.61
123.85
142.83
157.14
167.36
174.12
177.89
179.17
178.40
175.97
172.13
167.02
160.70
153.20
144.72
135.62
126.45
117.77
109.92
102.80
95.94
88.65
80.38
71.04
61.14
51.63
43.53
37.37
32.91
29.16
24.84
18.96
11.35
2.82
-5.13
-11.20
-14.72
-16.13
-16.61
-17.52
-19.80
-23.91
-30.06
-38.19
-47.46
-55.56
-58.60
-51.93
-32.29
0.04
40.54
81.57
115.29
136.45
144.38
141.45
131.82
119.35
106.61
95.06
85.57
79.02
76.41
78.31
84.00
91.45
97.39
97.89
90.22
73.37
48.69
19.25
-11.42
-40.82
-67.90
-92.74
-115.31
-134.08
-146.09
-148.05
-137.93
-116.38
-87.12
-55.38
-25.89
-2.22
15.36
29.34
42.92
57.68
72.52
82.98
83.61
70.83
45.30
13.07
-16.66
-35.43
-39.21
-30.57
-17.24
-8.29
-9.54
-21.82
-40.68
-59.72
-73.58
-80.15
-79.70
-73.42
-62.32
-46.87
-27.36
-3.66
23.58
53.40
84.07
112.40
133.53
142.07
133.88
108.01
68.49
23.03
-18.83
-48.84
-63.10
-63.20
-55.02
-45.39
-42.37
-49.68
-67.60
-92.82
-120.11
-143.78
-158.83
-161.51
-149.92
-124.62
-85.74
-38.99
8.04
49.29
82.03
106.57
124.04
135.87
141.21
138.64
127.15
108.00
84.37
60.01
37.68
18.11
-0.11
-19.34
-41.20
-65.55
-89.10
-106.56
-113.26
-107.57
-92.17
-72.45
-53.61
-37.34
-21.00
0.93
32.30
71.05
108.96
135.19
142.26
130.22
106.71
82.16
64.33
54.45
46.60
33.14
9.50
-23.01
-58.77
-91.54
-117.66
-137.34
-151.10
-158.24
-156.88
-145.67
-125.03
-97.23
-64.29
-28.66
7.88
43.89
76.80
102.68
117.39
118.98
109.13
92.99
76.49
63.54
54.00
43.62
26.52
-1.87
-41.84
-88.85
-134.66
-170.12
-187.89
-184.48
-160.97
-121.78
-73.28
-22.55
23.48
58.91
80.34
88.60
89.69
92.84
107.19
137.00
178.44
219.88
246.44
246.90
219.47
173.16
123.22
84.50
64.81
62.28
67.69
70.00
61.48
39.77
6.96
-33.85
-79.86
-128.40
-175.57
-215.15
-239.27
-240.95
-217.68
-171.48
-112.15
-53.36
-6.95
21.06
31.64
30.92
27.28
28.49
40.74
64.66
95.64
125.07
142.69
139.93
112.57
62.54
-2.27
-70.45
-128.39
-163.49
-168.47
-144.91
-103.73
-61.71
-34.87
-31.56
-49.00
-75.26
-94.73
-95.41
-73.87
-34.97
12.49
60.63
105.17
144.15
175.35
194.84
197.53
179.48
140.60
85.57
21.57
-41.09
-92.08
-127.06
-147.40
-158.90
-169.48
-185.36
-207.45
-230.12
-242.90
-235.57
-203.29
-149.10
-83.32
-19.86
28.76
55.57
60.59
50.02
33.18
19.83
17.99
32.11
61.89
101.85
142.86
174.20
186.73
176.05
144.61
101.97
62.00
37.42
34.28
49.19
71.04
86.82
88.98
79.79
70.18
73.19
95.85
134.01
173.80
198.87
198.91
175.22
139.24
105.68
84.41
75.92
71.94
60.53
34.32
-5.87
-51.23
-90.17
-115.21
-127.10
-133.35
-144.04
-164.59
-192.74
-220.58
-238.84
-241.15
-226.15
-197.21
-158.81
-115.39
-71.38
-29.40
9.33
44.11
74.62
99.50
116.51
124.32
123.78
116.89
107.44
98.09
88.48
75.41
55.51
28.57
-0.74
-24.26
-34.35
-27.89
-8.88
12.93
26.14
22.07
-2.23
-43.36
-93.46
-142.72
-181.26
-201.11
-197.70
-171.07
-126.84
-75.18
-27.85
5.67
21.59
22.76
16.25
9.18
5.39
4.58
4.63
4.85
7.61
16.99
35.35
60.13
83.42
95.38
89.44
66.49
35.58
10.39
3.10
18.76
52.76
92.51
122.42
130.07
111.10
70.68
20.81
-25.23
-58.68
-78.24
-88.58
-95.77
-102.98
-108.88
-109.81
-103.71
-92.41
-80.77
-72.75
-67.67
-59.34
-39.36
-2.75
47.67
100.75
141.06
155.03
136.04
86.74
18.04
-54.64
-115.59
-152.76
-160.49
-140.79
-102.56
-58.85
-22.35
-0.98
4.99
2.77
3.60
17.61
49.07
94.33
143.31
183.91
206.95
209.42
194.59
169.89
143.30
120.49
103.64
91.76
82.14
71.54
57.42
38.36
14.45
-13.08
-42.53
-72.22
-100.89
-126.54
-145.59
-152.85
-143.51
-115.74
-73.10
-24.27
19.64
48.86
58.40
48.22
21.78
-16.18
-60.36
-104.64
-141.70
-164.15
-167.33
-150.84
-119.14
-78.31
-35.82
2.70
35.48
64.81
95.81
129.14
163.55
193.95
213.85
218.10
205.11
175.55
132.88
84.17
36.82
-3.47
-34.59
-57.13
-72.75
-82.29
-85.74
-83.00
-75.18
-65.28
-56.59
-51.43
-50.05
-50.96
-51.59
-49.94
-45.14
-37.84
-29.98
-23.57
-19.91
-18.98
-19.65
-20.29
-19.58
-16.94
-12.70
-7.95
-3.85
-1.22
-0.12
-0.01
-0.05
0.43
1.76
3.87
6.31
8.62
10.42
11.65
12.48
13.23
14.13
15.31
16.73
18.29
19.84
21.25
22.45
23.42
24.17
24.63
24.71
24.24
23.10
21.20
18.48
14.90
10.35
5.03
-0.91
-7.25
-13.84
-20.35
-26.54
-32.16
-36.98
-40.83
-43.51
-44.92
-44.99
-43.74
-41.10
-37.09
-31.79
-25.32
-17.87
-9.64
-0.94
8.42
17.61
26.16
33.75
40.15
45.25
48.93
51.16
51.88
51.06
48.53
44.57
39.42
33.48
27.22
21.08
15.40
10.30
5.73
1.43
-2.81
-7.33
-12.18
-17.27
-22.42
-27.46
-32.41
-37.39
-42.55
-47.84
-53.16
-57.91
-61.25
-62.51
-61.37
-58.36
-54.34
-50.35
-47.15
-45.12
-43.51
-41.00
-36.22
-28.38
-18.07
-6.56
4.31
14.52
22.11
26.50
28.25
28.22
26.42
22.17
14.47
1.96
-16.28
-40.75
-71.04
-106.15
-144.28
-178.00
-201.68
-209.72
-199.16
-171.23
-131.94
-89.64
-52.14
-23.80
-4.55
8.23
19.12
30.75
44.01
58.93
76.08
96.67
121.82
151.44
179.21
201.49
215.62
220.57
217.30
208.72
198.58
190.58
187.35
189.34
195.08
199.88
197.19
180.95
148.89
104.11
54.63
9.98
-22.69
-40.96
-48.23
-51.05
-55.90
-65.46
-78.90
-93.29
-106.58
-118.48
-130.15
-143.30
-157.30
-172.25
-187.19
-201.07
-213.08
-223.09
-229.94
-230.86
-221.98
-200.29
-166.09
-123.13
-78.66
-37.57
-3.83
21.82
41.16
57.30
72.49
86.84
99.39
107.59
112.04
113.66
115.33
116.71
117.18
115.94
111.75
104.12
93.66
82.32
71.91
64.11
59.71
58.86
61.05
64.65
68.00
70.10
71.02
71.22
71.53
73.08
77.56
87.02
102.01
121.14
140.95
155.86
159.87
148.92
122.95
82.21
33.16
-16.18
-59.12
-91.91
-111.79
-117.22
-109.85
-93.56
-72.30
-48.80
-26.16
-7.74
3.84
5.42
-2.63
-18.21
-38.20
-59.88
-81.98
-105.97
-135.28
-164.28
-189.99
-211.18
-228.56
-242.33
-250.42
-248.18
-230.81
-195.92
-145.62
-88.12
-33.85
8.16
33.95
45.27
47.64
46.62
45.51
44.82
42.49
37.06
28.96
20.49
14.43
12.41
14.00
17.36
20.09
20.06
16.79
11.65
7.33
6.63
11.27
21.02
33.95
47.22
57.97
64.63
67.70
69.38
72.43
78.91
88.83
100.78
112.74
122.97
130.23
133.83
133.18
127.84
118.37
106.93
98.06
96.52
104.44
118.52
131.04
133.12
119.24
90.15
52.03
14.34
-14.97
-29.73
-30.66
-23.50
-14.64
-7.62
-2.64
-0.11
0.67
-1.21
-7.73
-21.21
-42.75
-71.88
-106.85
-139.96
-166.74
-184.96
-195.05
-198.83
-198.97
-197.66
-195.92
-193.81
-191.28
-189.64
-190.17
-193.26
-196.98
-197.05
-187.92
-165.40
-129.39
-84.63
-39.91
-3.55
19.63
29.88
31.12
28.57
26.08
25.11
25.44
26.09
27.40
30.44
36.17
44.50
54.36
63.91
71.21
75.26
76.06
74.75
72.89
71.76
71.83
73.08
74.75
75.87
75.93
74.99
73.72
72.95
73.31
74.99
78.53
84.45
93.49
106.30
122.73
141.35
159.29
173.48
178.47
172.50
156.80
134.47
108.94
82.78
57.62
34.56
15.30
2.36
-1.45
4.79
19.15
37.40
54.71
67.51
73.50
71.84
62.47
46.16
24.07
-1.89
-28.79
-53.39
-73.40
-89.67
-105.45
-124.73
-149.72
-179.85
-211.98
-241.73
-265.23
-274.47
-264.60
-235.50
-192.16
-142.04
-91.91
-46.00
-6.42
26.08
51.48
69.40
79.90
84.05
83.80
81.36
78.47
76.04
74.34
73.43
72.80
71.89
70.77
69.75
69.10
68.68
68.02
66.68
64.51
61.14
56.19
49.38
40.14
27.64
11.13
-9.48
-33.27
-58.19
-80.00
-97.23
-109.45
-117.71
-123.96
-130.09
-137.19
-145.42
-154.37
-163.35
-171.41
-176.39
-175.31
-164.98
-143.75
-112.65
-75.86
-39.12
-7.24
17.96
38.41
58.09
79.14
99.89
115.57
120.34
111.07
89.76
62.27
37.83
22.91
18.58
20.92
23.93
23.34
18.70
12.93
9.71
11.04
15.61
19.83
20.07
14.62
3.98
-9.69
-23.16
-33.03
-35.87
-29.15
-12.01
13.88
44.35
73.73
96.82
110.84
116.05
114.96
110.23
104.00
95.31
83.06
67.07
48.71
30.44
14.46
1.62
-9.09
-20.12
-32.95
-48.08
-64.18
-78.59
-88.31
-91.34
-87.41
-78.20
-66.51
-55.03
-45.31
-37.05
-28.40
-17.00
-1.32
18.48
40.16
59.61
73.82
80.88
81.16
77.13
72.46
70.58
73.97
83.05
95.64
107.66
112.70
104.82
80.64
41.60
-5.25
-48.67
-77.17
-83.98
-69.52
-41.41
-11.14
11.04
20.26
17.99
9.95
3.46
3.26
9.84
19.56
26.95
26.40
14.45
-9.30
-41.57
-76.10
-105.04
-121.31
-121.29
-105.80
-80.07
-50.97
-25.87
-8.44
1.52
7.16
12.11
18.67
26.38
32.16
32.08
22.57
2.82
-25.45
-58.12
-89.97
-115.64
-130.73
-132.73
-121.28
-98.54
-68.14
-36.22
-8.06
12.76
25.34
30.71
31.51
31.15
32.69
38.44
49.51
65.66
85.02
103.69
118.46
127.03
128.88
125.38
119.72
115.68
116.35
122.44
132.28
139.79
138.11
122.07
90.69
48.43
3.77
-33.88
-58.29
-68.32
-67.79
-62.79
-58.49
-57.16
-58.30
-60.16
-61.11
-60.27
-56.59
-48.50
-34.34
-14.12
9.23
30.35
43.61
46.06
38.35
24.99
11.71
2.71
-1.03
-1.29
-0.42
0.61
2.93
7.42
14.36
22.70
30.46
35.93
38.44
38.97
39.58
42.22
46.01
48.46
46.25
36.42
17.27
-11.28
-48.16
-92.43
-132.83
-162.19
-177.42
-180.31
-175.75
-168.74
-162.21
-156.51
-150.12
-141.01
-129.51
-117.11
-106.00
-98.09
-94.41
-95.13
-99.90
-107.71
-116.36
-123.22
-124.13
-114.68
-92.27
-58.21
-17.90
20.93
51.44
70.56
78.91
80.12
78.25
75.67
72.54
67.85
60.96
52.58
44.59
38.52
34.89
32.94
31.24
28.31
23.66
18.06
13.09
10.64
11.99
17.30
25.52
34.67
42.54
47.53
49.10
47.52
43.99
40.02
37.05
36.25
38.56
44.36
53.13
62.54
68.67
67.61
57.59
40.79
23.12
11.83
12.13
24.73
44.76
64.28
76.02
76.77
68.47
56.66
47.46
45.33
52.45
68.04
88.95
110.20
125.52
128.58
115.32
85.66
41.17
-9.92
-57.24
-92.90
-115.21
-129.46
-145.23
-171.54
-212.11
-263.11
-313.63
-350.55
-363.56
-349.22
-312.15
-263.07
-214.35
-175.01
-147.68
-128.33
-110.05
-87.04
-57.31
-22.29
15.54
54.94
96.22
139.39
182.06
218.35
240.88
244.38
229.16
201.67
172.10
150.20
141.75
147.21
162.51
181.36
197.76
207.44
208.43
200.99
187.21
170.52
155.05
144.44
140.91
144.48
152.97
162.44
168.21
166.24
154.59
134.45
110.24
88.18
73.66
68.60
70.08
71.29
64.46
44.39
10.71
-32.45
-78.76
-122.75
-161.75
-195.71
-225.55
-251.19
-270.67
-280.86
-279.05
-264.30
-237.99
-203.17
-163.45
-121.97
-80.98
-42.17
-7.30
21.26
40.55
47.63
40.50
19.01
-14.63
-55.95
-98.99
-137.57
-166.63
-183.41
-187.91
-182.37
-170.06
-153.79
-134.96
-113.37
-88.24
-59.40
-28.29
1.95
27.59
46.09
57.70
66.02
76.86
95.65
124.36
159.66
193.45
215.84
219.23
201.74
168.21
128.33
92.83
69.43
60.89
65.17
77.21
91.03
101.16
103.09
93.53
70.67
35.08
-9.17
-54.46
-91.47
-112.90
-116.67
-106.71
-90.73
-76.16
-66.59
-60.54
-53.31
-40.46
-21.54
-0.67
15.14
20.95
17.64
10.58
4.92
1.85
-1.33
-8.55
-21.80
-39.07
-55.06
-63.88
-62.18
-50.96
-35.07
-20.54
-11.73
-9.85
-12.17
-13.24
-7.58
8.12
33.92
66.70
101.34
131.47
150.03
150.97
131.53
94.43
48.26
5.01
-25.05
-38.30
-39.60
-39.34
-48.24
-70.48
-100.30
-124.40
-128.67
-105.32
-56.15
9.14
77.96
139.56
187.18
217.46
228.69
220.18
192.91
150.77
100.10
47.99
0.32
-39.72
-71.59
-96.39
-114.26
-124.58
-126.46
-120.39
-108.92
-95.20
-81.09
-66.56
-50.50
-32.19
-12.88
4.98
18.80
26.57
27.90
24.37
18.64
13.39
10.33
8.62
6.45
1.68
-8.19
-24.52
-46.91
-73.36
-101.06
-124.93
-143.36
-156.65
-165.75
-172.70
-179.37
-187.02
-196.34
-207.19
-218.03
-225.67
-227.65
-216.89
-188.99
-144.00
-86.76
-25.37
31.84
79.33
115.45
139.97
156.32
167.51
174.74
177.65
175.78
169.68
161.24
152.50
144.93
139.48
135.39
131.06
125.22
117.48
108.30
98.93
90.70
84.59
81.38
80.54
80.81
80.72
79.21
75.92
71.32
66.39
62.17
59.58
58.85
59.93
62.75
67.87
73.23
75.86
71.93
58.05
33.22
-0.18
-36.69
-69.55
-93.32
-105.52
-107.30
-102.38
-94.51
-85.86
-76.90
-67.39
-57.46
-48.04
-40.47
-35.49
-32.82
-31.20
-29.10
-25.39
-19.93
-13.45
-7.22
-2.36
0.61
1.94
2.45
3.03
4.17
5.79
7.28
7.65
6.31
3.07
-1.74
-7.43
-13.28
-18.80
-23.73
-28.08
-32.01
-35.61
-38.73
-41.00
-41.99
-41.38
-39.09
-35.15
-29.69
-23.02
-15.51
-7.45
0.87
8.99
16.80
23.17
27.16
28.90
28.62
26.57
23.31
19.35
14.90
9.78
3.66
-3.53
-11.34
-18.89
-25.17
-28.76
-28.67
-24.83
-18.19
-10.39
-3.07
2.66
6.31
7.72
7.42
5.83
2.74
-2.48
-10.64
-22.35
-38.12
-55.79
-75.84
-97.06
-115.79
-126.38
-122.96
-102.50
-66.83
-22.93
19.42
51.10
67.84
71.16
66.38
60.15
57.35
60.23
68.01
77.36
83.75
84.22
77.47
64.17
47.21
29.53
13.92
1.36
-8.70
-16.85
-22.28
-23.87
-22.18
-18.82
-16.63
-15.70
-13.71
-7.17
6.54
26.16
45.50
54.94
48.50
25.54
-6.91
-39.53
-66.39
-86.93
-105.71
-129.37
-163.39
-198.51
-232.33
-257.33
-263.19
-247.87
-216.14
-176.88
-134.02
-97.74
-74.58
-64.16
-58.87
-52.21
-43.60
-35.77
-32.16
-34.01
-42.18
-51.60
-54.50
-43.47
-17.52
20.53
67.04
119.16
172.07
213.94
236.26
236.46
217.74
188.18
159.22
143.88
152.62
187.21
235.23
284.82
330.14
370.10
407.09
444.74
464.79
453.40
438.00
423.23
393.95
347.40
287.94
223.61
151.09
78.07
17.85
-21.85
-48.04
-68.16
-86.48
-103.42
-118.43
-132.66
-145.85
-158.06
-171.36
-192.35
-223.43
-261.99
-305.25
-351.93
-401.90
-452.87
-499.33
-534.78
-555.63
-558.35
-540.71
-504.85
-456.76
-403.91
-351.36
-299.88
-249.50
-202.11
-159.25
-120.77
-85.09
-49.69
-12.26
28.92
75.93
127.26
177.57
221.02
254.76
279.66
299.39
318.44
341.42
374.70
420.29
473.88
525.98
565.90
585.19
580.20
552.00
485.74
384.57
268.68
163.54
83.70
29.72
-4.56
-24.26
-35.08
-40.87
-42.59
-43.64
-50.14
-68.60
-100.70
-144.36
-189.85
-227.76
-251.60
-258.03
-249.92
-234.46
-219.45
-209.54
-204.88
-200.62
-190.91
-169.64
-131.51
-76.41
-10.21
57.12
115.44
156.46
178.80
181.86
167.82
142.39
112.82
86.09
67.24
58.82
59.96
68.10
77.12
81.66
78.95
68.28
50.17
25.02
-2.04
-27.65
-48.96
-67.26
-84.86
-103.90
-126.25
-153.10
-185.12
-222.42
-265.21
-296.90
-306.38
-290.73
-256.14
-213.52
-171.87
-135.56
-105.22
-79.85
-57.63
-39.39
-26.09
-17.52
-13.05
-11.42
-11.06
-10.50
-8.76
-4.85
0.11
1.50
0.62
-0.91
-1.14
1.90
9.97
24.08
44.49
69.15
95.31
120.27
141.38
157.07
167.44
173.87
178.31
182.54
186.63
189.50
188.78
182.08
167.16
143.08
110.25
69.58
21.75
-33.55
-91.45
-145.78
-191.15
-225.24
-249.39
-266.59
-278.75
-284.88
-281.08
-262.20
-225.63
-173.72
-113.86
-56.16
-9.69
20.76
35.85
39.98
38.86
35.91
31.78
25.58
16.59
5.73
-4.87
-12.93
-17.78
-20.11
-22.11
-26.16
-33.34
-43.26
-54.10
-63.45
-69.10
-70.40
-67.47
-61.57
-54.77
-47.27
-38.56
-27.60
-13.29
5.35
27.83
53.41
80.49
107.43
133.13
156.83
178.14
194.79
208.80
219.43
225.84
226.53
220.08
205.76
183.38
153.46
117.12
76.25
30.11
-18.00
-64.96
-108.33
-146.11
-177.03
-200.35
-216.25
-224.82
-226.87
-223.15
-215.39
-205.80
-196.28
-188.45
-183.34
-181.14
-181.24
-183.10
-185.90
-189.70
-195.02
-202.11
-210.85
-220.35
-228.85
-234.00
-233.80
-226.90
-213.40
-196.56
-179.35
-164.00
-151.17
-139.84
-127.80
-113.06
-94.83
-74.50
-54.93
-39.03
-28.51
-22.86
-19.21
-13.29
-0.43
23.22
59.60
107.84
163.80
219.61
264.73
288.60
284.46
252.71
201.62
144.82
96.31
65.57
54.71
59.45
72.79
89.08
106.09
124.59
145.77
169.31
193.10
214.65
233.00
249.62
268.44
294.04
330.38
378.77
437.20
500.27
560.39
609.43
640.66
651.15
642.18
619.18
588.11
553.05
515.19
473.74
427.73
377.11
323.98
271.26
222.60
179.19
140.06
103.60
69.47
39.36
15.54
1.08
-2.63
4.93
20.10
35.56
42.10
32.31
3.24
-42.99
-97.59
-161.26
-227.74
-289.96
-343.77
-390.06
-431.49
-465.00
-491.07
-506.91
-508.77
-492.88
-459.62
-414.01
-363.40
-313.22
-266.37
-224.45
-185.96
-148.24
-107.11
-59.28
-2.94
60.48
128.79
197.40
251.46
276.61
263.87
215.54
144.38
76.47
22.56
-16.00
-43.92
-68.82
-98.48
-137.09
-185.69
-243.27
-306.94
-373.02
-434.25
-482.29
-511.04
-517.62
-503.19
-472.19
-430.38
-383.08
-335.16
-288.95
-245.68
-206.68
-172.60
-143.04
-116.64
-91.51
-66.29
-41.58
-18.60
0.88
15.07
23.40
27.06
28.63
31.25
37.38
47.66
61.21
75.80
88.91
98.68
105.00
109.31
114.14
122.06
135.27
155.76
185.16
224.14
271.20
321.80
368.51
402.87
418.18
412.17
387.82
351.93
312.09
273.37
236.39
197.95
153.88
102.20
44.90
-12.39
-63.06
-102.48
-129.89
-147.71
-158.84
-163.79
-160.99
-149.53
-132.18
-116.09
-109.70
-117.68
-137.51
-159.53
-170.91
-163.39
-137.14
-99.41
-59.29
-22.13
12.35
47.64
87.08
132.09
179.84
225.35
264.62
296.52
322.77
346.44
369.58
394.21
423.93
460.99
505.13
552.80
597.46
631.51
648.76
645.84
609.25
535.69
430.70
307.50
182.20
68.08
-27.31
-95.63
-141.51
-171.47
-189.91
-201.79
-212.39
-226.44
-247.41
-275.63
-309.03
-345.83
-383.64
-419.33
-451.59
-481.12
-510.14
-541.43
-576.46
-613.79
-649.19
-674.68
-680.64
-660.69
-614.31
-547.34
-469.78
-391.98
-321.37
-261.57
-211.90
-169.25
-130.77
-94.92
-61.38
-30.46
-2.41
22.82
45.29
65.67
85.21
105.05
126.10
148.91
173.97
201.98
233.81
269.50
307.30
342.76
369.19
379.66
369.55
338.52
290.70
232.96
172.07
112.49
55.93
2.89
-45.24
-84.86
-111.27
-121.71
-118.49
-109.61
-106.05
-116.46
-142.11
-175.11
-201.51
-208.20
-189.98
-152.51
-109.45
-75.22
-57.47
-53.83
-54.19
-46.78
-24.43
12.45
57.56
103.30
144.93
181.87
215.78
247.26
274.57
294.61
305.27
307.44
304.71
300.90
297.50
292.07
278.93
252.94
212.75
161.57
105.78
52.03
4.70
-34.74
-67.66
-97.73
-128.23
-160.13
-191.83
-219.31
-237.14
-240.46
-226.31
-195.60
-153.94
-108.53
-64.76
-24.83
12.29
49.81
86.69
119.38
148.19
168.95
173.92
161.17
135.87
108.30
89.31
84.59
91.92
102.26
103.97
89.72
59.92
20.79
-19.66
-55.01
-81.32
-95.19
-93.35
-74.98
-43.60
-8.34
17.93
24.56
9.44
-19.11
-45.97
-57.46
-49.57
-29.50
-10.92
-6.46
-21.29
-51.86
-90.27
-129.49
-166.32
-200.55
-230.83
-252.49
-259.55
-249.89
-228.75
-208.27
-201.75
-215.97
-247.00
-281.71
-304.45
-304.28
-279.12
-234.61
-179.31
-119.46
-56.75
10.61
84.60
162.47
236.94
299.27
343.85
370.64
384.02
388.61
385.17
370.06
337.37
283.75
211.91
131.12
53.84
-9.35
-53.42
-79.08
-89.59
-87.26
-71.98
-43.21
-3.58
39.00
72.90
87.65
79.04
51.28
14.56
-19.77
-44.28
-57.54
-62.74
-64.24
-64.57
-63.68
-60.10
-53.21
-44.26
-36.07
-31.53
-31.95
-36.21
-41.20
-43.42
-40.62
-33.02
-23.17
-14.67
-10.38
-10.90
-14.23
-16.53
-14.25
-5.75
7.63
22.06
32.74
35.79
29.50
14.56
-6.20
-28.68
-48.28
-60.54
-62.75
-54.88
-39.57
-21.36
-4.74
7.74
16.36
23.23
31.13
41.73
54.68
67.52
76.01
75.27
62.43
38.68
9.80
-15.54
-30.07
-31.78
-25.50
-20.28
-24.30
-39.89
-62.03
-81.48
-90.27
-85.43
-71.57
-56.43
-45.96
-41.22
-38.65
-33.34
-22.43
-7.08
8.37
18.88
21.34
15.69
4.15
-10.37
-25.38
-38.97
-49.41
-54.52
-51.98
-40.14
-19.24
7.45
34.56
56.60
70.15
74.65
71.81
64.29
54.50
44.65
36.21
30.47
28.35
30.51
36.60
45.10
54.26
62.87
71.52
81.59
94.35
109.53
125.71
140.33
150.11
152.91
145.81
131.77
115.53
103.68
98.64
101.37
110.22
120.33
125.09
118.19
97.03
63.37
22.62
-18.45
-53.34
-79.69
-100.87
-119.20
-138.05
-158.20
-177.37
-190.73
-192.96
-179.64
-151.20
-114.79
-81.49
-62.84
-65.66
-90.17
-130.67
-178.48
-224.30
-251.96
-250.21
-217.37
-162.51
-97.85
-31.98
31.39
86.53
133.94
170.87
192.37
195.15
179.48
149.64
111.55
71.36
33.68
1.50
-25.38
-49.62
-73.42
-96.78
-116.96
-130.31
-134.39
-129.69
-118.83
-106.26
-96.67
-93.28
-97.18
-107.12
-119.75
-129.99
-132.16
-121.11
-94.99
-56.58
-12.83
27.52
57.27
73.34
77.22
73.28
66.29
58.94
51.58
43.38
33.90
24.07
15.76
10.64
9.17
10.60
13.19
15.66
17.57
19.37
22.03
26.35
32.56
40.08
47.89
54.95
60.68
65.11
68.70
72.15
75.85
79.70
83.22
85.95
87.82
89.53
92.36
97.54
105.44
114.81
122.69
125.44
120.13
105.70
83.46
56.77
30.25
8.91
-3.18
-3.98
5.75
22.51
40.89
55.27
61.49
57.01
42.43
20.76
-4.08
-28.58
-50.30
-67.66
-79.57
-85.34
-84.85
-78.62
-68.01
-54.83
-40.88
-27.70
-16.46
-8.03
-2.92
-1.37
-3.13
-7.91
-15.58
-26.24
-39.91
-56.07
-73.32
-89.54
-102.54
-110.88
-114.41
-114.23
-112.07
-109.43
-107.00
-104.70
-102.25
-99.63
-97.28
-95.73
-94.86
-93.29
-88.43
-77.24
-57.70
-30.17
2.29
34.70
61.94
80.64
90.28
92.89
91.89
90.53
90.99
94.27
100.59
109.73
120.96
132.70
142.42
147.15
144.59
134.44
118.74
101.24
85.89
75.21
69.40
66.61
64.09
59.70
52.78
44.18
35.53
28.25
23.04
19.73
17.78
16.69
16.22
16.29
16.57
16.41
14.90
11.17
4.86
-3.70
-13.58
-23.60
-32.72
-40.43
-46.70
-51.78
-55.84
-58.69
-59.91
-59.17
-56.56
-52.78
-48.91
-45.82
-43.77
-42.15
-39.89
-36.18
-30.92
-24.88
-19.18
-14.74
-11.71
-9.49
-7.10
-3.74
0.85
6.40
12.35
18.13
23.24
27.20
29.54
29.89
28.27
25.40
22.69
21.86
24.27
30.43
39.79
50.91
62.15
72.05
79.90
85.92
91.53
99.12
111.18
128.95
151.12
173.61
190.65
197.13
190.79
173.19
148.80
122.86
99.08
78.69
61.05
45.07
30.46
17.90
8.30
1.85
-2.33
-5.78
-9.87
-15.10
-21.01
-26.48
-30.49
-32.66
-33.60
-34.63
-37.24
-42.47
-50.39
-60.13
-70.10
-78.61
-84.25
-86.38
-85.22
-81.83
-77.81
-74.78
-73.94
-75.63
-79.27
-83.69
-87.54
-89.69
-89.57
-87.18
-82.91
-77.70
-73.06
-71.06
-73.88
-83.08
-98.83
-119.93
-144.39
-170.16
-195.55
-218.96
-238.39
-251.22
-254.80
-247.39
-229.03
-201.48
-167.34
-129.04
-88.35
-46.77
-6.33
30.11
59.40
79.31
89.74
92.97
92.83
93.49
98.15
108.31
123.61
142.02
160.37
175.09
183.15
182.60
173.21
156.23
134.05
109.54
85.57
64.54
47.99
36.42
29.28
25.29
22.93
20.96
18.70
15.99
12.81
9.11
4.66
-0.92
-7.90
-16.42
-26.32
-37.02
-47.48
-56.32
-62.23
-64.74
-64.53
-63.28
-63.05
-65.37
-70.90
-79.53
-90.93
-104.75
-120.30
-135.96
-149.04
-156.57
-156.72
-149.84
-138.49
-126.20
-115.58
-106.92
-98.16
-86.26
-69.21
-47.38
-23.45
-0.96
17.57
31.93
43.96
56.35
70.93
87.83
105.55
122.03
135.75
146.42
154.70
161.39
166.61
169.53
168.85
163.30
152.34
136.29
116.45
94.85
73.80
55.26
40.29
28.71
19.45
11.19
3.05
-5.12
-12.96
-20.06
-26.35
-31.99
-37.13
-41.56
-44.70
-45.83
-44.50
-40.77
-35.21
-28.65
-21.90
-15.46
-9.49
-3.90
1.38
6.15
9.85
11.63
10.67
6.51
-0.62
-9.81
-19.71
-28.99
-36.86
-43.26
-48.78
-54.23
-60.20
-66.93
-74.34
-82.27
-90.55
-99.05
-107.55
-115.65
-122.87
-128.84
-133.44
-136.75
-138.83
-139.41
-137.88
-133.47
-125.60
-114.21
-99.88
-83.64
-66.69
-50.11
-34.83
-21.46
-10.34
-1.59
4.87
9.17
11.48
12.08
11.40
10.06
8.68
7.82
7.71
8.24
9.11
10.00
10.72
11.29
11.88
12.59
13.45
14.24
14.61
14.17
12.67
10.15
6.95
3.69
0.89
-1.13
-2.45
-3.38
-4.19
-4.94
-5.47
-5.63
-5.44
-5.24
-5.46
-6.41
-8.01
-9.72
-10.75
-10.33
-7.95
-3.57
2.43
9.37
16.45
22.96
28.53
33.09
36.88
40.17
43.06
45.44
47.08
47.92
48.16
48.15
48.12
47.99
47.30
45.55
42.42
37.99
32.68
26.97
21.28
15.84
10.92
6.85
4.02
2.71
2.82
3.96
5.54
7.24
9.07
11.36
14.44
18.20
22.04
24.97
26.07
25.01
22.16
18.51
15.19
13.16
12.93
14.66
18.29
23.62
30.41
38.34
47.15
56.72
67.28
79.19
92.75
107.87
123.87
139.78
154.94
169.51
184.41
200.77
219.04
238.46
257.12
272.59
282.58
285.26
279.32
263.89
238.72
204.70
164.07
120.20
76.74
36.55
0.99
-29.93
-56.77
-79.88
-99.03
-113.85
-124.50
-132.06
-138.30
-144.98
-153.04
-162.17
-171.00
-177.61
-180.34
-178.34
-171.78
-161.75
-149.73
-137.14
-124.83
-112.95
-101.02
-88.20
-73.77
-57.51
-40.15
-23.43
-9.77
-1.46
0.34
-3.68
-11.05
-18.52
-23.41
-24.66
-23.23
-21.44
-21.97
-26.89
-37.00
-51.70
-69.29
-87.22
-103.12
-115.70
-125.46
-135.09
-148.97
-171.96
-207.58
-256.07
-313.18
-370.39
-416.92
-442.88
-442.57
-416.37
-370.42
-314.21
-257.08
-205.38
-161.52
-124.68
-92.44
-62.29
-32.41
-1.70
30.05
61.93
91.89
117.17
135.48
146.14
150.50
151.57
153.02
157.81
167.56
182.43
201.35
222.42
243.14
260.75
272.82
277.84
275.69
267.54
255.19
240.29
223.78
205.74
185.73
163.39
138.84
112.81
86.59
61.95
40.92
25.63
17.88
18.58
27.13
41.19
56.96
70.12
77.17
76.40
68.34
55.25
40.13
25.61
13.22
3.33
-4.52
-11.18
-17.46
-23.90
-30.56
-36.86
-41.38
-42.19
-37.41
-26.23
-9.74
8.79
24.64
33.07
31.03
18.39
-2.12
-25.91
-48.37
-66.49
-79.52
-88.62
-95.56
-101.43
-106.00
-108.25
-107.18
-102.99
-97.18
-91.86
-88.85
-89.30
-94.08
-104.72
-123.40
-151.60
-188.08
-227.38
-260.28
-276.57
-268.82
-235.12
-179.43
-109.51
-33.96
39.80
105.95
159.75
197.05
214.92
212.95
194.26
165.30
133.93
107.02
88.35
77.94
72.83
69.14
64.17
57.70
52.00
50.41
55.45
67.31
83.38
99.38
111.26
117.00
117.11
113.96
110.24
107.68
106.71
106.98
108.19
110.32
113.33
116.33
117.24
113.31
102.40
84.55
62.52
41.17
25.53
18.71
20.68
28.54
38.06
45.59
49.32
49.41
47.16
43.78
39.76
34.85
28.62
20.89
11.59
0.21
-14.85
-36.00
-65.54
-103.91
-148.05
-190.95
-223.04
-235.38
-223.24
-188.51
-139.48
-87.94
-44.75
-16.29
-3.18
-1.68
-6.36
-12.57
-17.49
-19.78
-18.92
-14.78
-7.82
0.58
8.44
13.90
16.04
15.04
11.79
7.23
2.10
-2.87
-6.79
-8.65
-7.83
-4.71
-0.64
2.71
4.30
4.28
3.76
4.05
5.87
8.96
12.30
14.78
15.72
15.21
13.93
12.76
12.38
13.02
14.42
15.98
17.03
17.07
15.89
13.66
10.81
7.78
4.99
2.59
0.54
-1.33
-3.10
-4.74
-6.02
-6.58
-6.13
-4.49
-1.80
1.56
5.05
8.11
10.36
11.65
12.03
11.65
10.68
9.21
7.32
5.15
2.96
1.08
-0.16
-0.66
-0.58
-0.30
-0.29
-0.89
-2.11
-3.66
-5.06
-5.85
-5.84
-5.13
-4.05
-2.91
-1.88
-0.83
0.56
2.60
5.39
8.85
12.70
16.62
20.30
23.43
25.71
26.83
26.57
24.88
21.95
18.14
13.90
9.65
5.66
2.08
-1.04
-3.71
-5.96
-7.90
-9.63
-11.35
-13.26
-15.65
-18.84
-23.06
-28.33
-34.34
-40.52
-46.11
-50.38
-52.74
-52.89
-50.74
-46.52
-40.65
-33.73
-26.43
-19.35
-12.99
-7.63
-3.40
-0.20
2.25
4.31
6.38
8.67
11.05
13.08
14.19
13.98
12.47
10.13
7.78
6.18
5.82
6.72
8.47
10.51
12.31
13.59
14.47
15.33
16.65
18.74
21.50
24.51
27.14
28.83
29.30
28.62
27.09
25.11
23.01
20.96
19.02
17.15
15.33
13.55
11.86
10.32
9.02
7.95
7.05
6.22
5.27
4.09
2.60
0.82
-1.24
-3.58
-6.23
-9.19
-12.40
-15.59
-18.34
-20.14
-20.59
-19.53
-17.13
-13.87
-10.44
-7.57
-5.75
-5.21
-5.83
-7.28
-9.15
-11.10
-12.88
-14.33
-15.38
-15.98
-16.16
-15.99
-15.60
-15.05
-14.38
-13.46
-12.14
-10.28
-7.83
-4.99
-2.17
0.08
1.24
0.99
-0.60
-3.08
-5.70
-7.68
-8.44
-7.82
-6.01
-3.46
-0.64
2.00
4.11
5.36
5.48
4.31
1.91
-1.27
-4.55
-7.13
-8.38
-8.11
-6.59
-4.37
-2.05
-0.06
1.43
2.40
2.92
2.97
2.52
1.53
0.10
-1.58
-3.29
-4.88
-6.30
-7.53
-8.49
-8.98
-8.71
-7.48
-5.30
-2.46
0.48
2.90
4.36
4.71
4.06
2.69
0.84
-1.35
-3.84
-6.59
-9.43
-12.01
-13.92
-14.76
-14.33
-12.65
-9.90
-6.34
-2.15
2.55
7.64
12.90
18.00
22.57
26.36
29.34
31.80
34.27
37.31
41.33
46.35
51.96
57.35
61.48
63.42
62.58
58.88
52.66
44.53
35.02
24.49
13.15
1.22
-10.81
-22.24
-32.31
-40.43
-46.30
-49.89
-51.22
-50.17
-46.64
-40.60
-32.46
-23.10
-13.68
-5.20
1.83
7.51
12.42
17.06
21.70
26.25
30.49
34.38
38.17
42.27
47.04
52.55
58.58
64.67
70.35
75.19
78.73
80.52
80.17
77.56
73.05
67.34
61.26
55.14
48.54
40.25
28.85
13.47
-5.68
-27.38
-49.75
-71.05
-90.10
-106.23
-118.98
-127.77
-131.88
-130.89
-125.10
-115.74
-104.70
-93.84
-84.35
-76.46
-69.62
-63.00
-56.05
-48.67
-41.16
-33.96
-27.40
-21.65
-16.65
-12.35
-8.69
-5.67
-3.27
-1.41
0.01
1.13
2.02
2.67
2.91
2.49
1.18
-1.16
-4.49
-8.56
-12.89
-16.81
-19.41
-19.78
-17.24
-11.69
-3.77
5.17
13.52
19.85
23.41
24.33
23.34
21.46
19.53
17.96
16.81
15.93
15.21
14.70
14.57
14.92
15.67
16.50
16.90
16.38
14.76
12.18
9.10
6.01
3.27
0.94
-1.00
-2.57
-3.56
-3.64
-2.52
-0.08
3.48
7.70
12.00
15.77
18.49
19.83
19.80
18.65
16.95
15.26
14.03
13.32
12.97
12.66
12.16
11.49
10.81
10.27
9.92
9.68
9.43
9.03
8.35
7.27
5.72
3.66
1.25
-1.16
-3.12
-4.31
-4.75
-4.85
-5.21
-6.34
-8.40
-11.12
-14.02
-16.66
-18.86
-20.72
-22.42
-23.98
-25.15
-25.46
-24.46
-22.01
-18.37
-14.18
-10.25
-7.32
-5.95
-6.41
-8.82
-13.11
-19.14
-26.56
-34.70
-42.57
-48.98
-52.87
-53.61
-51.18
-46.07
-39.08
-30.97
-22.29
-13.45
-4.77
3.44
10.85
17.18
22.27
26.08
28.73
30.37
31.23
31.59
31.79
32.05
32.48
32.98
33.33
33.40
33.22
32.96
32.84
32.92
32.98
32.56
31.23
28.78
25.51
22.02
19.02
16.94
15.71
14.82
13.54
11.27
7.70
2.95
-2.53
-8.18
-13.38
-17.68
-20.80
-22.75
-23.80
-24.46
-25.15
-26.13
-27.26
-27.96
-27.47
-25.05
-20.26
-13.14
-4.22
5.67
15.61
24.77
32.57
38.66
42.96
45.62
46.91
47.17
46.69
45.59
43.86
41.50
38.63
35.59
32.80
30.55
28.84
27.37
25.68
23.47
20.68
17.54
14.36
11.37
8.62
6.01
3.35
0.46
-2.90
-6.93
-11.85
-17.69
-24.24
-30.98
-37.23
-42.24
-45.46
-46.53
-45.42
-42.41
-37.93
-32.54
-26.80
-21.08
-15.59
-10.35
-5.19
0.11
5.77
11.86
18.28
24.67
30.57
35.47
39.06
41.32
42.54
43.15
43.55
43.87
43.95
43.44
41.91
39.18
35.25
30.33
24.70
18.61
12.28
5.96
0.02
-5.06
-8.74
-10.63
-10.67
-9.12
-6.53
-3.42
-0.23
2.89
5.97
9.00
11.86
14.25
15.84
16.39
15.92
14.70
13.09
11.49
10.17
9.23
8.57
8.03
7.34
6.25
4.60
2.40
-0.17
-2.84
-5.36
-7.67
-9.87
-12.30
-15.25
-18.92
-23.28
-28.10
-32.98
-37.48
-41.18
-43.71
-44.91
-44.78
-43.45
-41.13
-38.02
-34.25
-29.97
-25.36
-20.74
-16.53
-13.27
-11.36
-11.04
-12.19
-14.39
-16.99
-19.24
-20.49
-20.39
-18.98
-16.64
-13.99
-11.62
-9.92
-8.94
-8.42
-7.83
-6.66
-4.57
-1.52
2.17
6.01
9.57
12.61
15.15
17.33
19.26
20.92
22.20
22.99
23.33
23.44
23.60
24.05
24.81
25.79
26.79
27.67
28.39
28.96
29.36
29.42
28.88
27.46
25.00
21.60
17.59
13.48
9.77
6.83
4.80
3.58
2.97
2.73
2.67
2.66
2.62
2.54
2.49
2.71
3.56
5.42
8.53
12.77
17.65
22.37
26.11
28.28
28.69
27.56
25.38
22.71
20.00
17.51
15.24
13.04
10.61
7.72
4.20
0.03
-4.58
-9.34
-13.87
-17.82
-20.92
-22.96
-23.85
-23.58
-22.30
-20.19
-17.53
-14.56
-11.45
-8.29
-5.15
-2.11
0.70
3.11
5.03
6.42
7.33
7.94
8.41
8.86
9.28
9.60
9.71
9.58
9.33
9.20
9.51
10.48
12.23
14.69
17.72
21.16
24.81
28.48
31.95
34.93
37.10
38.18
38.01
36.63
34.23
31.08
27.51
23.81
20.17
16.67
13.32
10.07
6.87
3.78
0.84
-1.77
-3.96
-5.72
-7.16
-8.48
-9.95
-11.80
-14.15
-17.03
-20.30
-23.77
-27.19
-30.29
-32.82
-34.55
-35.33
-35.09
-33.89
-31.90
-29.28
-26.15
-22.45
-18.04
-12.81
-6.82
-0.43
5.78
11.22
15.51
18.62
20.80
22.35
23.45
24.03
23.89
22.79
20.58
17.23
12.83
7.58
1.79
-4.16
-9.83
-14.84
-18.91
-21.88
-23.72
-24.42
-23.91
-22.22
-19.38
-15.55
-11.02
-6.08
-0.99
4.04
8.84
13.24
17.02
19.95
21.86
22.70
22.64
21.97
21.01
19.98
18.92
17.73
16.28
14.51
12.45
10.25
8.01
5.78
3.45
0.93
-1.81
-4.61
-7.24
-9.48
-11.28
-12.80
-14.32
-16.10
-18.27
-20.75
-23.31
-25.70
-27.70
-29.15
-29.94
-30.01
-29.32
-27.95
-26.06
-23.85
-21.54
-19.28
-17.17
-15.28
-13.66
-12.36
-11.41
-10.79
-10.37
-10.02
-9.63
-9.13
-8.57
-8.05
-7.72
-7.67
-7.92
-8.43
-9.10
-9.84
-10.59
-11.32
-12.04
-12.73
-13.39
-13.98
-14.57
-15.25
-16.13
-17.27
-18.58
-19.85
-20.83
-21.36
-21.40
-21.09
-20.58
-20.05
-19.60
-19.30
-19.26
-19.63
-20.61
-22.31
-24.69
-27.54
-30.49
-33.21
-35.47
-37.20
-38.48
-39.50
-40.38
-41.15
-41.71
-41.82
-41.21
-39.67
-37.06
-33.44
-29.06
-24.34
-19.76
-15.81
-12.71
-10.47
-8.74
-7.03
-4.84
-1.77
2.34
7.42
13.17
19.14
24.84
29.78
33.65
36.28
37.71
38.08
37.59
36.44
34.84
32.95
30.91
28.76
26.43
23.78
20.61
16.85
12.57
8.03
3.60
-0.37
-3.63
-6.01
-7.48
-8.10
-8.02
-7.47
-6.75
-6.18
-6.06
-6.58
-7.78
-9.59
-11.80
-14.16
-16.41
-18.27
-19.52
-19.91
-19.27
-17.46
-14.51
-10.56
-5.99
-1.28
3.06
6.67
9.39
11.23
12.29
12.74
12.70
12.27
11.57
10.75
9.91
9.07
8.07
6.59
4.27
0.88
-3.61
-9.00
-14.97
-21.19
-27.34
-33.14
-38.32
-42.50
-45.25
-46.18
-45.04
-41.82
-36.74
-30.22
-22.70
-14.61
-6.32
1.85
9.54
16.39
22.09
26.41
29.36
31.11
31.96
32.19
32.03
31.58
30.84
29.79
28.45
26.90
25.27
23.73
22.35
21.12
19.90
18.51
16.80
14.71
12.32
9.71
6.94
4.09
1.21
-1.52
-3.81
-5.41
-6.11
-5.95
-5.14
-3.97
-2.71
-1.47
-0.27
0.95
2.24
3.58
4.93
6.20
7.31
8.16
8.72
9.02
9.21
9.56
10.35
11.80
13.97
16.76
19.92
23.12
26.08
28.67
30.94
33.13
35.59
38.57
42.17
46.22
50.46
54.72
59.15
64.38
71.26
80.74
93.54
110.03
130.28
153.96
180.39
208.43
236.67
263.63
288.22
309.86
328.36
343.40
354.08
358.74
355.32
342.13
318.62
285.88
246.51
204.16
162.63
125.05
93.17
67.09
45.58
26.81
9.31
-7.45
-23.02
-36.65
-47.95
-57.31
-65.60
-73.45
-80.83
-87.22
-92.30
-96.63
-101.80
-109.70
-121.53
-137.09
-154.88
-172.99
-189.86
-204.87
-218.03
-229.42
-238.70
-245.10
-247.77
-246.21
-240.52
-231.21
-218.97
-204.47
-188.38
-171.41
-154.34
-138.00
-123.07
-109.95
-98.65
-88.88
-80.04
-71.54
-62.86
-53.75
-44.37
-35.31
-27.40
-21.31
-17.23
-14.65
-12.66
-10.17
-6.32
-0.96
5.20
10.49
12.56
9.07
-1.42
-19.08
-42.21
-67.60
-91.46
-110.58
-123.16
-128.85
-128.17
-121.85
-111.50
-98.63
-84.62
-70.43
-56.50
-42.75
-28.79
-14.18
1.37
15.60
25.92
30.45
28.84
22.36
13.21
3.75
-3.88
-8.24
-12.40
-20.65
-36.96
-62.88
-96.71
-134.42
-171.48
-204.74
-233.73
-264.88
-305.72
-361.27
-431.13
-509.53
-588.34
-660.33
-721.20
-742.54
-704.58
-600.56
-442.75
-257.66
-73.03
92.26
230.40
341.32
428.17
490.56
527.85
540.46
531.98
508.98
478.20
444.88
412.26
380.99
347.05
305.94
254.51
192.21
120.75
42.57
-40.04
-120.53
-191.85
-248.10
-284.30
-298.14
-291.26
-269.27
-240.32
-212.22
-189.89
-174.86
-166.65
-163.62
-164.21
-167.07
-170.55
-172.12
-168.44
-156.20
-133.68
-101.59
-62.65
-20.99
19.43
55.82
87.29
114.76
140.21
165.39
191.12
216.80
240.54
260.03
273.47
280.36
281.66
279.45
276.18
274.39
276.46
284.28
298.55
317.76
337.49
350.83
350.57
332.17
296.23
248.87
199.70
158.17
130.41
117.74
117.52
125.29
136.76
148.71
158.68
164.63
164.91
158.90
147.37
132.30
115.94
99.69
83.55
66.55
47.91
27.91
8.20
-9.09
-22.46
-31.88
-38.68
-44.70
-51.27
-58.57
-66.02
-72.99
-79.76
-87.69
-98.76
-114.68
-136.12
-162.43
-191.85
-222.00
-249.95
-272.29
-285.16
-284.95
-269.78
-240.95
-203.69
-166.11
-136.60
-120.15
-116.05
-118.21
-118.41
-110.85
-94.99
-75.30
-57.58
-44.80
-34.93
-22.49
-2.29
27.03
61.83
95.12
119.61
130.64
127.45
112.93
92.45
72.38
58.41
54.06
59.42
71.07
83.47
90.99
89.44
76.54
51.59
15.42
-29.14
-76.54
-118.78
-147.69
-157.96
-149.49
-127.25
-98.90
-71.34
-48.47
-30.76
-16.77
-4.94
5.36
14.04
20.74
25.31
27.80
28.18
26.46
23.05
19.03
15.94
15.27
17.58
22.10
26.87
29.50
28.08
22.04
12.36
1.57
-6.85
-9.44
-3.88
9.74
28.30
46.12
56.63
54.87
39.58
14.12
-14.69
-38.98
-52.64
-53.24
-42.52
-25.35
-7.81
4.76
9.30
5.57
-4.13
-16.00
-26.07
-31.12
-29.44
-20.88
-6.67
10.73
27.87
40.83
46.21
42.30
30.17
13.64
-1.80
-10.98
-10.92
-1.89
12.90
28.57
40.34
45.07
42.07
32.94
20.95
9.87
2.86
1.62
5.90
13.67
21.79
26.98
26.90
20.93
10.30
-2.28
-13.73
-21.53
-24.62
-23.38
-19.21
-13.67
-7.82
-2.11
3.45
9.00
14.65
20.38
26.16
31.74
36.46
39.07
37.95
31.73
20.25
5.05
-10.67
-23.07
-28.91
-26.77
-17.47
-3.79
10.49
21.70
27.23
26.21
19.51
9.37
-1.41
-10.36
-16.03
-18.32
-18.15
-16.92
-15.78
-15.17
-14.68
-13.48
-10.86
-6.72
-1.87
2.31
4.28
3.03
-1.38
-7.73
-13.91
-17.58
-16.90
-11.23
-1.41
10.29
20.75
26.84
26.43
19.07
6.13
-9.57
-24.72
-36.34
-42.46
-42.29
-36.12
-25.18
-11.57
1.99
12.56
17.70
16.36
9.28
-1.23
-12.08
-20.41
-24.22
-22.66
-15.87
-4.86
8.48
21.50
31.18
34.92
31.58
22.12
9.58
-1.97
-8.85
-9.01
-2.52
8.69
21.67
33.40
41.44
44.35
41.66
33.85
22.05
7.96
-6.51
-19.38
-28.78
-33.26
-31.95
-24.79
-12.92
1.20
14.13
22.16
22.44
13.84
-2.63
-23.99
-46.04
-64.34
-75.24
-76.52
-67.73
-50.02
-25.70
2.55
32.39
62.60
93.53
126.85
164.30
205.98
249.07
287.87
315.34
325.61
316.17
288.48
247.14
197.80
145.02
91.62
39.09
-11.61
-59.32
-103.09
-143.20
-181.86
-222.77
-269.35
-322.14
-377.21
-426.57
-460.59
-471.77
-457.96
-423.44
-377.06
-328.88
-286.55
-253.49
-229.37
-211.86
-198.73
-188.77
-181.48
-176.15
-171.42
-165.38
-156.35
-143.66
-127.81
-110.28
-92.72
-76.06
-59.87
-42.20
-20.12
8.93
45.70
88.06
131.05
168.34
194.56
207.46
208.80
203.65
198.29
197.71
204.10
216.81
233.36
251.02
267.70
281.90
292.11
296.34
292.36
279.05
257.59
231.78
207.10
188.33
177.28
171.91
167.39
158.63
142.72
119.92
92.96
64.97
37.72
11.40
-13.96
-36.67
-52.90
-58.26
-50.68
-32.81
-11.90
2.92
4.87
-7.11
-27.82
-48.46
-60.88
-61.23
-50.98
-35.18
-19.36
-6.81
2.16
9.16
15.82
22.48
28.12
31.16
30.76
27.46
23.10
19.77
18.81
20.18
22.58
24.15
23.46
20.15
15.06
9.78
5.87
4.20
4.66
6.36
8.19
9.41
9.99
10.50
11.61
13.68
16.57
19.73
22.56
24.66
26.01
26.83
27.44
28.09
28.87
29.81
30.94
32.34
34.08
36.14
38.40
40.59
42.39
43.40
43.32
42.05
39.89
37.60
36.23
36.85
40.00
45.46
52.18
58.62
63.48
66.33
68.01
70.27
75.13
83.98
97.08
113.48
131.28
148.14
161.64
169.69
170.82
164.72
152.42
136.19
118.79
102.39
87.60
73.38
57.84
39.67
19.20
-1.39
-19.18
-31.95
-39.43
-43.29
-46.29
-50.71
-57.39
-65.52
-73.40
-79.61
-83.73
-86.49
-89.19
-92.83
-97.57
-102.75
-107.31
-110.51
-112.32
-113.39
-114.61
-116.50
-118.78
-120.45
-120.28
-117.49
-112.24
-105.71
-99.54
-95.12
-92.97
-92.58
-92.76
-92.24
-90.16
-86.29
-80.89
-74.43
-67.28
-59.67
-51.63
-43.09
-33.95
-24.04
-13.25
-1.58
10.77
23.42
35.93
47.88
59.03
69.32
78.88
87.87
96.57
105.34
114.51
124.28
134.37
143.86
151.34
155.40
155.27
151.34
145.00
137.97
131.41
125.41
119.02
111.00
100.66
88.34
75.22
62.73
51.66
41.88
32.46
22.37
11.19
-0.67
-12.15
-22.29
-30.73
-37.77
-43.93
-49.45
-54.02
-57.09
-58.46
-58.75
-59.15
-60.68
-63.32
-65.75
-66.02
-62.69
-55.82
-47.06
-38.87
-33.34
-31.48
-33.28
-38.14
-45.53
-55.07
-66.27
-78.25
-89.54
-98.27
-102.60
-101.00
-92.21
-75.10
-48.81
-13.31
29.73
76.41
120.81
156.33
177.49
181.60
169.33
144.11
110.52
72.65
33.26
-6.29
-45.15
-82.26
-116.08
-145.08
-168.91
-189.30
-210.20
-236.27
-270.52
-311.59
-352.88
-383.96
-394.30
-377.38
-333.22
-268.23
-192.36
-115.87
-46.91
8.99
48.53
70.34
75.66
69.03
58.07
51.36
55.06
70.23
92.17
112.98
125.76
128.24
123.98
120.19
123.69
137.34
158.62
180.95
196.83
200.83
190.96
168.34
135.60
95.61
50.84
3.89
-42.20
-83.91
-118.02
-142.43
-156.68
-161.78
-159.64
-152.56
-142.80
-132.36
-122.91
-115.53
-110.66
-107.94
-106.32
-104.48
-101.21
-95.68
-87.48
-76.60
-63.20
-47.41
-29.31
-9.28
11.53
30.81
45.08
50.48
44.20
26.05
-0.42
-27.96
-47.36
-50.50
-33.62
0.59
43.42
82.77
107.23
109.55
88.63
49.16
-0.31
-49.59
-89.08
-111.56
-113.49
-96.18
-66.29
-34.91
-14.36
-13.92
-35.72
-73.36
-114.34
-145.74
-160.47
-160.41
-154.79
-154.22
-164.15
-181.52
-196.62
-198.93
-182.97
-150.71
-109.24
-65.92
-24.47
15.66
56.71
99.17
140.14
174.44
197.09
205.87
202.12
189.64
173.02
155.99
140.53
126.47
112.06
94.79
72.85
46.36
17.91
-8.17
-27.50
-37.65
-39.34
-36.08
-32.77
-34.06
-42.95
-60.12
-83.53
-108.78
-129.81
-140.36
-135.77
-114.47
-78.70
-33.74
13.80
57.99
94.83
122.37
139.86
146.68
142.04
125.45
97.70
61.79
22.91
-12.76
-40.05
-56.71
-64.29
-67.49
-72.07
-82.38
-99.61
-121.60
-144.04
-162.37
-173.63
-177.30
-174.93
-168.92
-161.03
-151.52
-139.19
-122.30
-99.92
-72.79
-43.33
-14.52
11.45
34.14
54.69
74.47
93.79
111.41
125.08
132.88
134.23
130.14
122.60
113.70
104.96
97.16
90.41
84.51
79.12
74.06
69.35
65.29
62.29
60.58
59.95
59.73
59.20
57.95
56.17
54.46
53.36
53.07
53.32
53.64
53.70
53.35
52.56
51.31
49.57
47.37
44.96
42.64
40.60
38.76
36.75
34.21
31.09
27.79
24.94
23.09
22.30
22.05
21.55
20.11
17.52
14.16
10.78
8.20
6.94
7.09
8.33
10.20
12.28
14.40
16.60
19.02
21.78
24.85
28.12
31.47
34.93
38.52
42.13
45.42
47.65
47.95
45.67
40.91
34.79
29.33
26.80
28.96
36.46
48.63
63.95
80.67
97.37
113.08
126.97
137.96
144.66
145.79
140.71
129.88
114.75
97.13
78.49
59.59
40.60
21.49
2.47
-15.86
-32.68
-47.16
-58.74
-67.19
-72.63
-75.45
-76.28
-75.87
-74.85
-73.57
-71.82
-68.94
-64.01
-56.28
-45.62
-32.87
-19.65
-7.82
1.25
7.27
11.04
13.89
16.59
18.27
16.16
6.05
-16.55
-54.90
-109.43
-176.60
-248.69
-314.58
-362.20
-381.80
-369.11
-327.24
-265.95
-198.80
-138.70
-94.03
-66.55
-51.90
-41.88
-27.82
-3.41
33.54
80.64
131.84
179.20
215.17
234.48
234.91
216.76
181.90
132.92
72.98
6.44
-60.79
-121.74
-170.04
-201.58
-215.40
-213.37
-198.71
-174.79
-144.69
-111.67
-79.60
-52.48
-33.09
-21.57
-15.12
-9.30
-0.33
13.07
29.25
44.99
57.38
65.51
70.53
74.57
79.33
85.11
91.10
96.26
100.26
103.76
107.77
112.78
118.16
122.42
124.01
122.24
117.66
111.75
106.16
102.01
99.61
98.49
97.73
96.21
93.11
88.27
82.41
76.93
73.22
71.84
71.97
71.72
69.11
63.32
55.35
47.68
43.25
44.19
51.08
62.98
78.09
94.42
110.44
125.27
138.74
151.28
163.53
175.89
187.95
198.23
204.18
202.75
191.29
168.50
135.05
93.66
48.60
4.69
-33.93
-64.81
-87.68
-104.22
-117.21
-129.40
-142.73
-157.79
-174.00
-190.06
-204.65
-216.82
-226.32
-233.52
-239.02
-243.38
-246.58
-247.76
-245.15
-236.36
-219.12
-192.28
-156.73
-115.52
-73.23
-34.57
-2.92
20.66
37.23
49.04
58.10
65.37
70.65
73.31
73.14
70.68
66.97
62.98
59.06
54.86
49.78
43.43
35.93
27.92
20.25
13.66
8.61
5.14
2.92
1.35
-0.35
-2.91
-6.78
-11.91
-17.77
-23.51
-28.26
-31.42
-32.77
-32.43
-30.75
-28.11
-24.87
-21.32
-17.75
-14.42
-11.55
-9.36
-8.03
-7.70
-8.40
-10.02
-12.24
-14.68
-17.05
-19.23
-21.36
-23.73
-26.52
-29.67
-32.78
-35.22
-36.46
-36.17
-34.32
-31.09
-26.78
-21.66
-16.01
-10.16
-4.49
0.67
5.02
8.50
11.19
13.29
15.03
16.56
17.96
19.29
20.56
21.75
22.84
23.78
24.54
25.09
25.44
25.62
25.65
25.54
25.20
24.50
23.29
21.55
19.35
16.95
14.60
12.50
10.74
9.27
8.03
7.03
6.34
6.08
6.25
6.65
6.92
6.65
5.52
3.42
0.43
-3.33
-7.74
-12.78
-18.47
-24.69
-31.03
-36.82
-41.25
-43.60
-43.52
-41.11
-36.98
-32.01
-27.02
-22.50
-18.52
-14.80
-10.99
-6.97
-2.89
0.83
3.79
5.74
6.67
6.67
5.87
4.39
2.35
-0.03
-2.38
-4.23
-5.15
-4.94
-3.71
-1.78
0.48
2.82
5.24
7.87
10.78
13.78
16.39
18.00
18.17
16.95
14.93
12.98
11.88
11.95
12.88
13.91
14.23
13.25
10.86
7.39
3.55
0.16
-1.96
-2.17
-0.24
3.62
8.72
13.99
18.29
20.68
20.69
18.41
14.36
9.23
3.67
-1.84
-6.98
-11.54
-15.29
-18.04
-19.61
-19.98
-19.29
-17.80
-15.85
-13.76
-11.79
-10.09
-8.74
-7.71
-6.93
-6.28
-5.60
-4.80
-3.82
-2.68
-1.45
-0.21
0.99
2.10
3.14
4.10
5.01
5.87
6.62
7.16
7.44
7.51
7.58
7.92
8.80
10.26
12.12
14.00
15.54
16.55
17.14
17.54
18.03
18.71
19.53
20.33
20.86
20.87
20.09
18.24
15.15
10.91
5.92
0.93
-3.26
-6.03
-7.20
-7.08
-6.29
-5.52
-5.22
-5.57
-6.44
-7.62
-8.86
-10.05
-11.15
-12.18
-13.15
-14.10
-15.09
-16.14
-17.32
-18.55
-19.64
-20.31
-20.26
-19.30
-17.40
-14.75
-11.67
-8.63
-6.11
-4.51
-4.02
-4.66
-6.18
-8.22
-10.41
-12.47
-14.21
-15.50
-16.17
-16.01
-14.91
-12.90
-10.28
-7.55
-5.25
-3.83
-3.48
-4.23
-5.93
-8.38
-11.38
-14.69
-18.05
-21.15
-23.74
-25.66
-26.87
-27.42
-27.37
-26.73
-25.46
-23.51
-20.81
-17.35
-13.15
-8.40
-3.40
1.40
5.58
8.86
11.10
12.40
12.94
12.98
12.72
12.40
12.30
12.64
13.59
15.11
16.96
18.85
20.61
22.24
23.85
25.50
27.03
28.12
28.45
27.88
26.51
24.65
22.67
20.76
18.94
17.05
14.95
12.59
10.06
7.57
5.37
3.70
2.64
2.19
2.18
2.34
2.44
2.32
2.00
1.61
1.26
0.94
0.55
-0.12
-1.20
-2.64
-4.20
-5.61
-6.65
-7.34
-7.94
-8.77
-10.10
-12.00
-14.28
-16.61
-18.64
-20.10
-20.88
-21.01
-20.60
-19.84
-18.96
-18.30
-18.36
-19.66
-22.57
-27.07
-32.52
-37.77
-41.44
-42.32
-39.78
-34.06
-26.03
-16.96
-8.06
-0.19
6.20
11.03
14.35
16.36
17.21
17.13
16.42
15.37
14.30
13.43
12.88
12.71
12.91
13.35
13.87
14.26
14.31
13.96
13.30
12.52
11.85
11.44
11.23
11.08
10.74
9.97
8.72
7.04
5.13
3.24
1.54
-0.01
-1.59
-3.57
-6.38
-10.31
-15.48
-21.67
-28.37
-34.81
-40.20
-43.80
-45.22
-44.47
-41.88
-37.99
-33.30
-28.16
-22.75
-17.19
-11.47
-5.52
0.78
7.53
14.57
21.44
27.40
31.70
33.91
34.08
32.69
30.36
27.64
24.84
22.16
19.83
18.11
17.18
17.07
17.45
17.82
17.77
17.05
15.67
13.86
11.95
10.31
9.29
9.18
10.00
11.59
13.52
15.35
16.78
17.80
18.60
19.47
20.59
21.90
23.12
23.83
23.68
22.56
20.66
18.37
16.10
13.98
11.80
9.05
5.16
-0.19
-6.93
-14.73
-23.13
-31.63
-39.68
-46.47
-51.06
-52.71
-51.33
-47.70
-43.19
-39.05
-35.83
-33.20
-30.32
-26.60
-22.15
-17.73
-14.14
-11.67
-9.79
-7.54
-4.17
0.42
5.68
10.74
14.97
18.20
20.59
22.47
24.01
25.16
25.73
25.61
24.76
23.32
21.52
19.52
17.45
15.33
13.15
10.94
8.80
6.91
5.42
4.42
3.88
3.64
3.49
3.28
2.96
2.59
2.26
2.01
1.85
1.77
1.79
1.94
2.24
2.66
3.06
3.24
3.06
2.39
1.24
-0.40
-2.51
-5.14
-8.23
-11.63
-14.98
-17.83
-19.68
-20.19
-19.23
-16.91
-13.49
-9.28
-4.57
0.36
5.26
9.84
13.82
16.89
18.92
19.88
19.94
19.36
18.35
17.05
15.49
13.66
11.57
9.24
6.71
4.06
1.35
-1.30
-3.65
-5.42
-6.32
-6.13
-4.90
-2.87
-0.42
2.04
4.22
6.01
7.36
8.24
8.66
8.61
8.18
7.52
6.87
6.41
6.17
6.07
5.89
5.47
4.75
3.77
2.62
1.38
0.05
-1.46
-3.20
-5.18
-7.29
-9.41
-11.41
-13.30
-15.17
-17.19
-19.44
-21.88
-24.29
-26.31
-27.63
-28.08
-27.63
-26.35
-24.36
-21.70
-18.47
-14.82
-11.03
-7.44
-4.32
-1.80
0.19
1.82
3.20
4.36
5.18
5.56
5.54
5.29
5.08
5.14
5.56
6.22
6.91
7.40
7.60
7.55
7.34
7.10
6.81
6.42
5.80
4.90
3.73
2.38
0.94
-0.57
-2.20
-4.07
-6.19
-8.42
-10.48
-12.00
-12.66
-12.33
-11.07
-9.13
-6.82
-4.45
-2.20
-0.18
1.62
3.19
4.48
5.40
5.85
5.79
5.23
4.34
3.35
2.53
2.08
2.07
2.43
3.03
3.65
4.11
4.28
4.12
3.66
2.96
2.09
1.13
0.12
-0.85
-1.71
-2.41
-2.97
-3.44
-3.83
-4.07
-4.02
-3.46
-2.27
-0.44
1.85
4.37
6.87
9.21
11.36
13.31
15.04
16.48
17.54
18.20
18.51
18.60
18.64
18.78
19.17
19.93
21.09
22.55
24.01
25.10
25.39
24.64
22.76
19.86
16.12
11.63
6.45
0.57
-6.00
-13.12
-20.63
-28.36
-36.18
-44.03
-51.79
-59.22
-65.88
-71.20
-74.53
-75.36
-73.43
-68.84
-62.05
-53.75
-44.65
-35.34
-26.14
-17.18
-8.56
-0.47
6.84
13.16
18.45
22.96
27.05
30.99
34.86
38.44
41.45
43.63
44.96
45.60
45.76
45.52
44.82
43.50
41.43
38.60
35.17
31.41
27.63
24.02
20.66
17.46
14.30
11.13
8.07
5.34
3.19
1.72
0.85
0.37
0.05
-0.19
-0.30
-0.09
0.61
1.79
3.27
4.72
5.80
6.27
6.08
5.37
4.47
3.70
3.31
3.32
3.58
3.78
3.67
3.16
2.33
1.37
0.44
-0.39
-1.16
-1.88
-2.52
-2.97
-3.15
-3.11
-3.14
-3.61
-4.81
-6.79
-9.25
-11.65
-13.43
-14.20
-13.91
-12.73
-10.98
-8.89
-6.63
-4.21
-1.66
0.93
3.38
5.50
7.17
8.39
9.26
9.88
10.33
10.60
10.62
10.36
9.82
9.11
8.31
7.55
6.86
6.27
5.77
5.30
4.81
4.24
3.57
2.79
1.91
0.97
-0.01
-1.05
-2.16
-3.35
-4.61
-5.90
-7.17
-8.38
-9.44
-10.24
-10.61
-10.37
-9.42
-7.79
-5.65
-3.30
-0.99
1.09
2.91
4.53
6.02
7.44
8.77
9.91
10.76
11.29
11.49
11.39
11.03
10.40
9.47
8.21
6.67
4.93
3.12
1.38
-0.17
-1.48
-2.59
-3.58
-4.61
-5.80
-7.26
-9.04
-11.15
-13.56
-16.28
-19.38
-22.90
-26.75
-30.60
-33.88
-35.89
-36.06
-34.03
-29.82
-23.73
-16.26
-7.99
0.53
8.74
16.17
22.42
27.31
30.97
33.75
36.14
38.57
41.21
43.90
46.26
47.72
47.79
46.26
43.28
39.41
35.36
31.87
29.34
27.76
26.74
25.68
24.07
21.62
18.37
14.51
10.28
5.78
1.06
-3.82
-8.65
-13.03
-16.51
-18.67
-19.31
-18.40
-16.09
-12.54
-7.90
-2.31
4.03
10.79
17.61
24.14
30.10
35.33
39.71
43.13
45.43
46.49
46.19
44.53
41.61
37.61
32.78
27.47
22.00
16.64
11.54
6.69
2.00
-2.67
-7.36
-12.03
-16.60
-21.03
-25.32
-29.48
-33.47
-37.16
-40.44
-43.19
-45.41
-47.07
-48.10
-48.35
-47.65
-46.00
-43.59
-40.79
-38.04
-35.63
-33.65
-32.00
-30.50
-28.99
-27.45
-25.86
-24.24
-22.59
-20.88
-19.14
-17.37
-15.57
-13.76
-11.93
-10.11
-8.32
-6.65
-5.16
-3.86
-2.69
-1.54
-0.27
1.18
2.76
4.34
5.72
6.77
7.46
7.90
8.24
8.62
9.10
9.61
10.04
10.29
10.32
10.16
9.88
9.48
8.93
8.08
6.67
4.38
0.89
-4.08
-10.68
-18.83
-28.22
-38.20
-47.85
-56.11
-62.01
-64.95
-64.89
-62.31
-58.06
-53.01
-47.70
-42.21
-36.39
-30.00
-23.04
-15.84
-8.87
-2.57
2.87
7.54
11.59
15.06
17.73
19.15
18.85
16.59
12.56
7.41
1.98
-2.92
-6.69
-9.08
-10.05
-9.65
-7.95
-5.10
-1.32
3.08
7.64
11.95
15.56
18.14
19.41
19.29
17.88
15.57
12.93
10.52
8.74
7.60
6.87
6.13
5.10
3.70
2.09
0.61
-0.46
-1.00
-1.12
-1.02
-0.93
-0.92
-0.90
-0.69
-0.15
0.70
1.68
2.56
3.25
3.92
4.89
6.46
8.66
11.24
13.76
15.87
17.48
18.76
19.97
21.23
22.46
23.43
23.93
23.90
23.45
22.75
21.93
21.03
20.05
18.96
17.79
16.52
15.10
13.43
11.44
9.20
6.90
4.80
3.08
1.79
0.82
0.06
-0.60
-1.19
-1.71
-2.23
-2.80
-3.41
-3.93
-4.10
-3.56
-2.06
0.56
4.23
8.77
13.97
19.61
25.53
31.59
37.63
43.50
48.92
53.57
57.08
59.11
59.43
57.95
54.73
49.90
43.64
36.18
27.83
19.02
10.20
1.80
-5.92
-12.91
-19.25
-25.05
-30.37
-35.15
-39.30
-42.71
-45.40
-47.43
-48.96
-50.16
-51.16
-51.97
-52.48
-52.50
-51.83
-50.40
-48.31
-45.87
-43.45
-41.43
-40.05
-39.43
-39.53
-40.09
-40.63
-40.60
-39.44
-36.87
-33.02
-28.37
-23.55
-19.07
-15.13
-11.60
-8.28
-5.05
-1.99
0.72
2.89
4.55
5.84
6.97
8.07
9.13
9.99
10.48
10.48
9.91
8.74
6.97
4.65
1.86
-1.18
-4.13
-6.59
-8.17
-8.60
-7.85
-6.11
-3.73
-1.12
1.41
3.70
5.78
7.91
10.59
14.65
21.22
31.48
46.36
66.13
90.25
117.50
146.27
174.95
202.02
225.88
244.72
256.57
259.79
253.79
239.46
219.17
196.07
173.18
152.67
135.58
122.05
111.71
104.06
98.48
94.13
89.93
84.68
77.34
67.22
54.10
38.04
19.36
-1.40
-23.58
-46.38
-69.11
-91.21
-112.31
-132.04
-149.87
-164.97
-176.37
-183.40
-186.05
-185.28
-182.90
-181.22
-182.42
-187.97
-198.17
-212.06
-227.75
-243.04
-256.26
-266.85
-275.40
-283.01
-290.35
-296.92
-300.98
-300.34
-293.29
-279.31
-258.75
-232.16
-199.69
-161.41
-118.12
-72.20
-27.47
12.00
43.42
66.30
82.16
93.20
100.92
105.52
106.35
103.00
96.08
87.17
78.30
71.11
66.57
64.98
66.19
69.70
74.62
79.83
84.22
87.10
88.45
88.83
88.95
89.22
89.51
89.21
87.58
84.02
78.25
70.36
60.68
49.67
37.87
25.84
14.21
3.54
-5.86
-14.10
-21.66
-29.17
-37.10
-45.41
-53.47
-60.26
-64.73
-66.17
-64.43
-59.87
-53.15
-45.08
-36.45
-27.95
-20.15
-13.39
-7.78
-3.27
0.19
2.47
3.21
1.98
-1.43
-6.71
-12.96
-18.93
-23.36
-25.48
-25.30
-23.55
-21.39
-19.98
-20.01
-21.44
-23.55
-25.17
-25.10
-22.52
-17.30
-10.07
-2.20
4.54
8.41
8.29
4.07
-3.15
-11.46
-18.68
-23.07
-23.81
-21.03
-15.55
-8.46
-0.80
6.61
13.11
18.25
21.81
23.87
24.83
25.29
25.72
26.32
26.88
26.99
26.21
24.34
21.48
17.97
14.36
11.13
8.67
7.15
6.52
6.56
6.92
7.22
7.12
6.47
5.26
3.66
1.91
0.26
-1.00
-1.61
-1.40
-0.35
1.32
3.18
4.69
5.43
5.19
4.11
2.56
0.99
-0.21
-0.80
-0.69
0.10
1.53
3.52
5.92
8.51
10.98
12.94
14.01
13.91
12.50
9.86
6.27
2.19
-1.91
-5.62
-8.88
-11.93
-15.24
-19.12
-23.29
-26.78
-28.20
-26.35
-21.00
-13.42
-6.17
-2.36
-4.50
-13.47
-28.21
-46.25
-64.40
-79.85
-90.62
-95.66
-94.56
-87.59
-76.04
-62.64
-51.15
-44.94
-45.13
-49.51
-53.25
-51.23
-40.68
-22.50
-0.51
21.00
39.68
55.83
71.41
88.08
105.70
122.49
136.43
146.71
154.39
161.76
170.89
182.63
196.30
209.92
220.98
227.28
227.52
221.66
210.96
197.48
183.40
170.17
158.02
146.06
132.89
117.39
99.34
79.59
59.52
40.49
23.17
7.42
-7.41
-21.93
-36.25
-49.89
-62.08
-72.28
-80.34
-86.67
-91.82
-96.13
-99.58
-101.89
-102.95
-103.06
-102.92
-103.30
-104.66
-106.96
-109.76
-112.64
-115.54
-118.88
-123.43
-129.89
-138.54
-148.93
-159.80
-169.18
-174.76
-174.37
-166.69
-151.70
-130.87
-106.85
-82.77
-61.41
-44.64
-33.27
-27.16
-25.56
-27.42
-31.68
-37.49
-44.25
-51.63
-59.44
-67.61
-76.01
-84.16
-90.99
-94.64
-92.79
-83.39
-65.49
-39.92
-9.31
22.73
52.68
78.22
98.58
114.25
126.13
134.84
140.41
142.58
141.21
136.68
129.93
122.27
115.08
109.34
105.40
102.89
101.09
99.36
97.57
96.22
96.23
98.44
103.19
110.19
118.56
127.13
134.62
139.77
141.44
138.77
131.41
119.67
104.64
87.85
70.91
55.09
41.17
29.56
20.43
13.84
9.59
7.24
5.96
4.81
3.11
0.68
-2.12
-4.65
-6.48
-7.56
-8.21
-8.80
-9.39
-9.59
-8.84
-6.75
-3.41
0.64
4.61
7.82
9.89
10.78
10.66
9.83
8.74
7.91
7.97
9.34
12.12
15.94
20.09
23.76
26.24
27.10
26.19
23.60
19.63
14.66
9.07
3.08
-3.26
-10.09
-17.58
-25.71
-34.27
-42.82
-50.85
-57.85
-63.43
-67.37
-69.63
-70.39
-69.96
-68.72
-66.97
-64.76
-61.93
-58.18
-53.36
-47.58
-41.19
-34.68
-28.50
-23.01
-18.46
-15.01
-12.76
-11.74
-11.83
-12.81
-14.30
-15.88
-17.11
-17.66
-17.34
-16.16
-14.28
-11.89
-9.20
-6.28
-3.11
0.42
4.39
8.77
13.45
18.16
22.61
26.43
29.28
30.90
31.21
30.36
28.69
26.67
24.79
23.41
22.69
22.57
22.82
23.08
22.99
22.20
20.49
17.75
14.02
9.52
4.65
-0.09
-4.21
-7.32
-9.21
-9.82
-9.19
-7.48
-4.89
-1.65
2.07
6.12
10.50
15.20
20.27
25.64
31.12
36.42
41.10
44.65
46.47
46.05
43.06
37.54
30.02
21.41
12.80
5.16
-0.87
-5.05
-7.51
-8.61
-8.84
-8.66
-8.40
-8.21
-8.00
-7.58
-6.83
-5.72
-4.43
-3.20
-2.23
-1.69
-1.65
-2.26
-3.63
-5.82
-8.70
-11.92
-15.02
-17.57
-19.37
-20.43
-21.00
-21.37
-21.78
-22.39
-23.27
-24.53
-26.34
-28.90
-32.49
-37.30
-43.45
-50.83
-59.01
-67.24
-74.48
-79.62
-81.75
-80.44
-75.88
-68.83
-60.51
-52.19
-45.04
-39.77
-36.67
-35.54
-35.90
-37.06
-38.35
-39.23
-39.43
-38.92
-37.96
-36.84
-35.80
-34.88
-33.92
-32.60
-30.68
-28.06
-24.78
-21.05
-17.07
-13.06
-9.15
-5.48
-2.09
0.99
3.72
6.02
7.77
8.77
8.86
8.01
6.34
4.16
1.81
-0.43
-2.40
-4.03
-5.22
-5.79
-5.45
-3.95
-1.27
2.34
6.41
10.40
13.87
16.57
18.44
19.55
20.03
19.92
19.25
18.00
16.14
13.69
10.75
7.50
4.23
1.27
-1.04
-2.44
-2.73
-1.75
0.58
4.22
8.94
14.26
19.59
24.34
28.12
30.74
32.19
32.42
31.27
28.51
24.02
18.03
11.21
4.63
-0.57
-3.52
-3.89
-1.90
1.83
6.52
11.45
16.06
20.04
23.15
25.29
26.41
26.67
26.34
25.78
25.35
25.27
25.55
26.09
26.70
27.23
27.60
27.72
27.37
26.22
23.90
20.16
15.09
9.12
2.90
-2.93
-7.90
-11.76
-14.33
-15.36
-14.53
-11.51
-6.27
0.79
8.84
16.86
23.92
29.44
33.22
35.36
36.18
36.08
35.45
34.64
33.84
33.02
31.99
30.44
28.11
24.83
20.63
15.62
9.95
3.70
-3.14
-10.68
-19.02
-28.21
-38.11
-48.28
-57.91
-66.05
-71.87
-74.91
-75.30
-73.64
-70.74
-67.35
-63.86
-60.36
-56.71
-52.84
-48.74
-44.49
-40.16
-35.67
-30.90
-25.69
-20.06
-14.17
-8.36
-3.02
1.61
5.48
8.79
11.90
15.16
18.85
23.08
27.78
32.79
37.91
43.00
48.04
52.99
57.77
62.14
65.81
68.46
69.96
70.35
69.84
68.73
67.19
65.23
62.79
59.73
56.03
51.77
47.01
41.74
35.86
29.25
21.88
13.96
5.93
-1.72
-8.54
-14.30
-19.08
-23.11
-26.80
-30.58
-34.77
-39.54
-44.79
-50.17
-55.17
-59.21
-61.85
-62.85
-62.21
-60.12
-56.85
-52.77
-48.23
-43.67
-39.50
-36.17
-34.07
-33.44
-34.34
-36.69
-40.29
-44.84
-49.99
-55.35
-60.44
-64.77
-67.83
-69.16
-68.45
-65.56
-60.61
-53.96
-46.13
-37.63
-28.86
-19.93
-10.81
-1.35
8.38
18.05
27.07
34.72
40.49
44.28
46.44
47.57
48.34
49.24
50.47
51.96
53.43
54.55
55.04
54.80
53.89
52.48
50.73
48.82
46.92
45.26
44.15
43.84
44.48
45.88
47.54
48.73
48.75
47.16
43.84
38.98
32.91
25.97
18.41
10.43
2.26
-5.88
-13.75
-21.28
-28.50
-35.66
-42.95
-50.43
-57.88
-64.81
-70.69
-75.10
-77.95
-79.46
-80.08
-80.17
-79.83
-78.80
-76.66
-73.07
-67.93
-61.56
-54.47
-47.24
-40.19
-33.45
-26.93
-20.60
-14.51
-8.82
-3.63
1.07
5.48
9.89
14.55
19.53
24.69
29.70
34.18
37.83
40.60
42.71
44.56
46.58
49.03
51.96
55.16
58.35
61.26
63.75
65.72
67.12
67.88
67.94
67.26
65.81
63.54
60.35
56.17
51.01
44.99
38.31
31.15
23.61
15.71
7.52
-0.75
-8.73
-16.08
-22.70
-28.78
-34.81
-41.26
-48.34
-55.84
-63.18
-69.59
-74.45
-77.45
-78.59
-78.05
-76.06
-72.75
-68.17
-62.38
-55.57
-48.07
-40.35
-32.87
-25.98
-19.86
-14.60
-10.25
-6.88
-4.63
-3.57
-3.62
-4.47
-5.65
-6.60
-6.82
-5.97
-3.98
-0.93
2.90
7.24
11.88
16.70
21.71
26.88
32.14
37.33
42.28
46.82
50.86
54.37
57.28
59.52
60.85
60.93
59.35
55.76
50.04
42.38
33.34
23.72
14.34
5.83
-1.47
-7.44
-12.07
-15.26
-16.82
-16.50
-14.29
-10.43
-5.42
0.11
5.62
10.78
15.47
19.65
23.30
26.30
28.60
30.27
31.51
32.70
34.15
36.05
38.28
40.53
42.35
43.41
43.55
42.84
41.46
39.65
37.62
35.54
33.56
31.80
30.31
28.99
27.59
25.73
23.10
19.56
15.26
10.56
5.86
1.51
-2.32
-5.52
-8.01
-9.66
-10.40
-10.30
-9.61
-8.78
-8.25
-8.31
-9.01
-10.18
-11.51
-12.68
-13.42
-13.58
-13.08
-12.11
-11.00
-10.26
-10.37
-11.60
-13.80
-16.44
-18.67
-19.66
-18.81
-16.00
-11.56
-6.18
-0.68
4.17
7.80
9.91
10.45
9.52
7.27
3.81
-0.77
-6.37
-12.81
-19.75
-26.67
-33.00
-38.13
-41.64
-43.37
-43.47
-42.41
-40.83
-39.38
-38.53
-38.51
-39.35
-40.96
-43.28
-46.33
-50.12
-54.55
-59.39
-64.20
-68.53
-71.95
-74.21
-75.21
-74.88
-73.24
-70.31
-66.14
-60.87
-54.71
-47.92
-40.77
-33.52
-26.31
-19.29
-12.56
-6.24
-0.39
4.94
9.78
14.14
18.04
21.42
24.30
26.68
28.71
30.58
32.48
34.49
36.48
38.18
39.23
39.42
38.76
37.48
35.93
34.34
32.76
31.04
28.96
26.42
23.53
20.57
17.92
15.79
14.17
12.91
11.86
11.01
10.46
10.37
10.79
11.67
12.83
14.09
15.30
16.33
17.03
17.21
16.68
15.34
13.28
10.72
8.04
5.57
3.52
1.96
0.81
-0.09
-0.86
-1.52
-1.90
-1.69
-0.52
1.83
5.32
9.58
14.02
18.12
21.52
24.09
25.88
26.96
27.36
27.09
26.23
24.96
23.57
22.29
21.19
20.16
18.99
17.51
15.67
13.58
11.46
9.57
8.12
7.20
6.74
6.48
6.00
5.04
3.59
1.96
0.64
0.04
0.21
0.84
1.38
1.35
0.55
-0.90
-2.73
-4.66
-6.59
-8.53
-10.51
-12.42
-14.08
-15.20
-15.53
-14.94
-13.48
-11.44
-9.25
-7.43
-6.36
-6.15
-6.64
-7.49
-8.32
-8.98
-9.58
-10.37
-11.64
-13.44
-15.63
-17.93
-20.05
-21.80
-23.19
-24.26
-25.07
-25.66
-25.97
-25.98
-25.66
-24.97
-23.94
-22.66
-21.36
-20.42
-20.31
-21.38
-23.70
-26.92
-30.32
-33.05
-34.40
-34.09
-32.37
-29.93
-27.62
-26.16
-25.91
-26.83
-28.66
-31.06
-33.76
-36.60
-39.42
-41.96
-43.81
-44.59
-44.07
-42.32
-39.59
-36.20
-32.30
-27.82
-22.57
-16.39
-9.27
-1.42
6.84
15.12
23.07
30.33
36.65
41.88
46.03
49.27
51.81
53.82
55.32
56.23
56.46
56.07
55.27
54.28
53.26
52.21
51.02
49.51
47.61
45.33
42.75
39.91
36.83
33.49
29.91
26.15
22.38
18.80
15.66
13.15
11.37
10.33
9.89
9.79
9.72
9.34
8.40
6.76
4.36
1.29
-2.29
-6.07
-9.72
-12.89
-15.31
-16.86
-17.53
-17.42
-16.63
-15.28
-13.50
-11.48
-9.40
-7.44
-5.69
-4.12
-2.63
-1.17
0.25
1.59
2.78
3.89
5.08
6.53
8.26
10.12
11.80
12.98
13.52
13.47
13.08
12.63
12.32
12.17
12.08
11.89
11.45
10.69
9.49
7.73
5.24
1.92
-2.17
-6.79
-11.56
-16.12
-20.25
-23.92
-27.24
-30.29
-33.10
-35.59
-37.63
-39.09
-39.87
-39.82
-38.72
-36.32
-32.52
-27.43
-21.42
-15.07
-8.96
-3.58
0.82
4.13
6.43
7.83
8.47
8.43
7.73
6.31
3.96
0.43
-4.47
-10.78
-18.21
-26.05
-33.24
-38.60
-41.08
-40.16
-36.04
-29.54
-21.86
-14.11
-7.02
-0.85
4.39
8.74
12.07
14.18
14.91
14.36
13.00
11.39
10.07
9.24
8.79
8.36
7.60
6.31
4.43
2.11
-0.44
-2.95
-5.15
-6.79
-7.63
-7.58
-6.65
-5.04
-2.96
-0.69
1.60
3.77
5.71
7.37
8.66
9.63
10.32
10.88
11.41
12.09
13.07
14.51
16.52
19.05
21.77
24.15
25.66
25.96
25.17
23.81
22.57
22.00
22.25
23.02
23.82
24.23
24.07
23.51
22.90
22.57
22.68
23.16
23.78
24.23
24.25
23.65
22.37
20.42
17.83
14.60
10.72
6.22
1.25
-3.81
-8.39
-11.78
-13.38
-12.78
-10.01
-5.49
0.00
5.48
9.91
12.31
11.86
8.11
1.09
-8.56
-19.63
-30.70
-40.52
-48.37
-54.15
-58.16
-60.70
-61.80
-61.17
-58.45
-53.59
-47.07
-39.82
-32.95
-27.46
-23.99
-22.87
-24.09
-27.35
-31.98
-36.96
-41.02
-42.89
-41.60
-36.79
-28.77
-18.47
-7.18
3.71
13.09
20.39
25.62
29.26
31.91
34.01
35.53
36.03
34.90
31.67
26.34
19.44
11.82
4.42
-2.00
-7.04
-10.64
-12.96
-14.22
-14.53
-13.90
-12.28
-9.74
-6.58
-3.36
-0.75
0.65
0.52
-1.15
-4.04
-7.61
-11.24
-14.29
-16.25
-16.75
-15.63
-12.93
-8.86
-3.80
1.73
7.23
12.21
16.41
19.82
22.66
25.24
27.80
30.36
32.77
34.77
36.22
37.08
37.41
37.33
36.93
36.27
35.39
34.37
33.28
32.22
31.27
30.45
29.71
28.85
27.59
25.59
22.55
18.27
12.77
6.18
-1.23
-9.17
-17.31
-25.32
-32.80
-39.38
-44.74
-48.71
-51.23
-52.32
-51.96
-50.13
-46.76
-41.89
-35.72
-28.64
-21.15
-13.77
-6.95
-0.97
3.96
7.72
10.25
11.56
11.84
11.35
10.49
9.57
8.79
8.21
7.83
7.63
7.71
8.22
9.31
11.09
13.50
16.34
19.30
22.09
24.41
26.13
27.24
27.86
28.20
28.46
28.71
28.89
28.89
28.60
28.04
27.37
26.80
26.50
26.47
26.56
26.63
26.57
26.47
26.54
26.99
27.84
28.90
29.76
29.97
29.23
27.52
25.05
22.18
19.25
16.40
13.61
10.75
7.64
4.21
0.54
-3.19
-6.71
-9.74
-12.05
-13.45
-13.89
-13.44
-12.33
-10.88
-9.45
-8.36
-7.77
-7.75
-8.22
-8.99
-9.92
-10.87
-11.80
-12.77
-13.83
-15.06
-16.43
-17.84
-19.15
-20.25
-21.07
-21.65
-22.05
-22.35
-22.63
-22.98
-23.50
-24.35
-25.60
-27.15
-28.71
-29.83
-29.98
-28.81
-26.28
-22.68
-18.58
-14.62
-11.29
-8.87
-7.40
-6.72
-6.61
-6.80
-6.98
-6.83
-6.05
-4.47
-2.09
0.88
4.18
7.47
10.48
13.03
15.03
16.51
17.55
18.32
19.03
19.90
21.09
22.67
24.63
26.86
29.18
31.40
33.25
34.47
34.85
34.26
32.67
30.19
26.96
23.14
18.94
14.59
10.35
6.43
2.87
-0.42
-3.59
-6.74
-9.76
-12.30
-14.00
-14.66
-14.39
-13.61
-12.83
-12.45
-12.59
-13.18
-14.02
-15.03
-16.27
-17.87
-19.98
-22.65
-25.78
-29.20
-32.64
-35.82
-38.45
-40.30
-41.21
-41.20
-40.38
-38.92
-37.07
-35.08
-33.21
-31.70
-30.74
-30.32
-30.28
-30.25
-29.81
-28.63
-26.53
-23.51
-19.69
-15.24
-10.40
-5.47
-0.81
3.26
6.47
8.77
10.24
11.16
11.81
12.42
13.16
14.04
14.94
15.68
16.09
16.03
15.53
14.73
13.80
12.93
12.17
11.51
10.98
10.66
10.79
11.60
13.21
15.56
18.36
21.25
23.90
26.13
27.82
28.91
29.30
28.83
27.40
25.05
22.06
18.88
15.97
13.60
11.78
10.26
8.76
7.15
5.52
4.13
3.20
2.71
2.31
1.52
-0.06
-2.50
-5.49
-8.54
-11.24
-13.46
-15.35
-17.20
-19.25
-21.55
-24.05
-26.76
-29.78
-33.27
-37.20
-41.30
-45.02
-47.78
-49.18
-49.16
-47.88
-45.56
-42.29
-38.01
-32.68
-26.37
-19.37
-12.18
-5.30
0.89
6.15
10.39
13.56
15.63
16.57
16.44
15.46
14.05
12.75
12.05
12.33
13.68
15.96
18.81
21.75
24.27
25.93
26.44
25.69
23.76
20.96
17.72
14.52
11.79
9.83
8.81
8.80
9.75
11.54
14.02
16.99
20.32
23.94
27.86
32.05
36.45
40.87
45.06
48.81
52.01
54.69
56.89
58.62
59.76
60.17
59.76
58.62
56.96
54.95
52.64
49.87
46.40
42.04
36.75
30.65
23.98
17.03
9.99
2.95
-4.24
-11.86
-20.33
-29.84
-40.25
-50.95
-60.89
-68.98
-74.37
-76.78
-76.38
-73.72
-69.28
-63.44
-56.41
-48.42
-39.80
-31.03
-22.65
-14.98
-8.13
-1.94
3.83
9.28
14.30
18.56
21.71
23.61
24.40
24.47
24.23
23.81
23.03
21.42
18.57
14.42
9.47
4.61
0.81
-1.25
-1.38
0.15
2.80
6.01
9.32
12.36
14.75
16.20
16.62
16.23
15.60
15.50
16.55
19.01
22.69
27.05
31.46
35.44
38.77
41.46
43.58
45.08
45.63
44.64
41.39
35.30
26.28
14.78
1.81
-11.39
-23.74
-34.46
-43.13
-49.40
-53.04
-53.89
-52.11
-48.30
-43.49
-38.84
-35.22
-32.94
-31.72
-31.01
-30.28
-29.26
-27.92
-26.40
-24.84
-23.23
-21.55
-19.75
-17.86
-15.96
-14.12
-12.34
-10.49
-8.42
-5.92
-2.95
0.41
3.87
7.08
9.68
11.45
12.31
12.33
11.68
10.58
9.28
8.00
6.94
6.24
5.95
6.05
6.48
7.11
7.84
8.57
9.24
9.81
10.21
10.33
10.08
9.37
8.24
6.80
5.28
3.91
2.83
2.10
1.66
1.44
1.35
1.39
1.60
2.04
2.71
3.51
4.21
4.51
4.18
3.03
1.04
-1.80
-5.48
-9.99
-15.24
-21.01
-26.86
-32.22
-36.59
-39.69
-41.60
-42.76
-43.70
-44.92
-46.66
-48.90
-51.44
-54.08
-56.71
-59.44
-62.57
-66.35
-70.82
-75.64
-80.08
-83.16
-83.82
-81.20
-74.81
-64.72
-51.50
-35.98
-19.10
-1.53
16.62
35.74
56.57
79.61
104.60
130.34
154.98
176.66
194.12
206.84
214.73
217.62
215.23
207.66
196.17
183.72
174.49
172.68
181.01
199.99
228.27
263.34
302.23
341.40
376.43
402.07
413.35
407.24
383.89
346.80
301.43
253.03
205.19
159.44
116.00
74.85
36.33
0.83
-31.77
-62.49
-93.32
-126.64
-164.43
-207.36
-253.76
-299.14
-336.79
-359.58
-362.58
-345.61
-314.13
-278.07
-248.88
-236.21
-245.52
-277.23
-327.09
-387.07
-446.64
-494.09
-518.52
-512.02
-472.17
-403.68
-318.13
-231.86
-162.34
-124.08
-124.89
-163.86
-231.22
-310.64
-383.68
-434.99
-456.51
-448.87
-419.42
-378.07
-332.98
-288.18
-243.84
-198.45
-151.18
-102.96
-55.90
-11.69
29.76
70.16
111.69
155.67
202.08
250.02
298.13
345.10
389.16
427.42
455.82
469.86
466.03
443.25
403.44
351.09
292.14
232.62
177.74
131.46
96.36
73.52
62.35
60.66
65.05
71.94
78.51
83.40
86.69
89.31
92.21
95.54
98.51
99.69
97.79
92.26
83.59
73.06
62.20
52.25
43.82
36.96
31.40
26.88
23.22
20.32
17.95
15.77
13.32
10.25
6.49
2.25
-2.10
-6.21
-9.92
-13.32
-16.71
-20.39
-24.50
-28.75
-32.44
-34.45
-33.65
-29.27
-21.27
-10.52
1.38
12.46
20.91
25.43
25.47
21.25
13.66
4.14
-5.56
-13.69
-19.04
-21.21
-20.76
-18.88
-16.87
-15.72
-15.84
-17.16
-19.38
-22.24
-25.56
-29.24
-33.14
-37.01
-40.59
-43.60
-45.77
-46.66
-45.77
-42.83
-38.28
-33.55
-30.70
-31.39
-35.71
-41.66
-45.68
-44.21
-35.39
-20.00
-1.20
16.95
31.09
39.75
43.31
43.37
41.67
39.40
36.91
33.96
30.09
24.98
18.80
12.16
5.97
0.91
-2.95
-6.16
-9.66
-14.22
-20.02
-26.59
-33.07
-38.58
-42.50
-44.58
-44.80
-43.31
-40.40
-36.50
-32.02
-27.35
-22.67
-17.97
-13.19
-8.30
-3.39
1.47
6.29
11.13
15.87
19.95
22.29
21.63
17.10
8.84
-1.84
-12.83
-22.06
-28.22
-31.17
-31.71
-30.99
-29.88
-28.76
-27.56
-26.07
-24.20
-22.00
-19.67
-17.45
-15.47
-13.85
-12.69
-12.11
-12.19
-12.97
-14.31
-15.83
-16.95
-17.03
-15.66
-12.80
-8.74
-4.02
0.86
5.56
9.95
14.02
17.74
20.97
23.45
24.86
24.92
23.49
20.63
16.65
11.96
7.04
2.29
-2.04
-5.91
-9.34
-12.36
-14.96
-17.15
-18.99
-20.60
-22.07
-23.33
-24.07
-23.86
-22.25
-19.07
-14.58
-9.47
-4.69
-1.13
0.72
0.97
0.22
-0.71
-1.10
-0.55
0.94
3.13
5.70
8.35
10.82
12.91
14.49
15.63
16.57
17.64
19.00
20.62
22.19
23.43
24.23
24.74
25.21
25.69
25.98
25.61
24.23
21.85
18.94
16.16
14.01
12.58
11.52
10.37
8.78
6.80
4.75
3.19
2.60
3.27
5.12
7.75
10.61
13.07
14.74
15.43
15.25
14.42
13.23
11.89
10.56
9.39
8.50
7.95
7.73
7.67
7.55
7.21
6.64
6.03
5.64
5.75
6.47
7.72
9.27
10.84
12.21
13.27
14.02
14.53
14.90
15.20
15.54
15.99
16.64
17.57
18.69
19.77
20.39
20.13
18.67
16.02
12.44
8.38
4.23
0.18
-3.76
-7.69
-11.68
-15.57
-19.11
-21.93
-23.77
-24.53
-24.28
-23.29
-21.86
-20.32
-18.90
-17.67
-16.59
-15.55
-14.45
-13.34
-12.28
-11.40
-10.76
-10.34
-10.10
-10.00
-10.00
-9.99
-9.64
-8.40
-5.65
-0.87
6.03
14.60
23.98
33.18
41.39
48.24
53.72
58.07
61.50
64.04
65.57
65.79
64.41
61.22
56.11
49.16
40.62
30.90
20.61
10.47
1.17
-6.81
-13.26
-18.28
-22.10
-24.87
-26.49
-26.67
-25.13
-21.80
-16.95
-11.10
-4.83
1.33
6.91
11.45
14.62
16.37
17.12
17.73
19.27
22.47
27.35
33.16
38.75
43.10
45.75
46.93
47.17
46.92
46.31
45.24
43.57
41.41
39.22
37.84
38.30
41.70
48.99
60.52
75.74
92.99
109.52
122.00
127.34
123.53
110.30
89.20
63.50
37.66
16.82
5.94
8.60
25.78
55.01
90.60
125.23
152.15
167.20
169.67
161.48
145.61
124.56
99.73
71.83
41.63
10.35
-20.67
-50.56
-79.04
-105.97
-130.53
-150.81
-164.14
-168.23
-162.34
-148.01
-128.79
-109.42
-94.55
-87.83
-91.12
-104.21
-124.72
-148.58
-171.10
-188.17
-197.44
-198.76
-193.84
-184.99
-173.99
-161.38
-146.66
-128.96
-107.89
-83.91
-58.13
-31.86
-6.02
18.96
42.93
65.62
86.20
103.42
115.93
122.94
124.68
122.55
118.62
114.79
111.99
109.76
106.36
99.46
87.03
68.03
42.83
13.20
-17.93
-46.87
-69.84
-83.66
-86.41
-77.91
-59.90
-35.68
-9.46
14.65
33.43
45.16
49.71
48.42
43.54
37.58
32.67
30.04
29.91
31.72
34.50
37.25
39.14
39.68
38.76
36.74
34.39
32.79
32.89
35.18
39.34
44.06
47.46
47.64
43.49
35.18
24.21
12.81
3.07
-4.17
-9.91
-17.01
-29.31
-50.52
-83.11
-127.55
-181.84
-241.29
-298.87
-346.04
-374.59
-378.78
-357.28
-313.76
-255.80
-192.48
-131.68
-78.40
-34.53
0.16
26.74
46.23
59.49
67.49
71.48
72.83
72.72
71.83
70.34
68.08
64.87
60.68
55.86
50.97
46.65
43.40
41.26
39.74
37.96
35.04
30.47
24.44
17.75
11.50
6.61
3.51
2.02
1.51
1.31
0.90
0.19
-0.67
-1.36
-1.72
-1.78
-1.75
-1.93
-2.52
-3.49
-4.63
-5.65
-6.33
-6.51
-6.18
-5.38
-4.20
-2.78
-1.37
-0.26
0.19
-0.22
-1.50
-3.40
-5.58
-7.74
-9.84
-12.08
-14.76
-18.07
-21.98
-26.21
-30.42
-34.38
-38.10
-41.74
-45.47
-49.26
-52.80
-55.68
-57.48
-57.94
-56.88
-54.06
-49.10
-41.57
-31.42
-19.27
-6.43
5.45
15.05
21.85
26.15
28.66
29.86
29.63
27.47
22.97
16.25
8.03
-0.86
-9.88
-19.06
-28.70
-38.93
-49.40
-59.32
-67.84
-74.28
-78.29
-79.71
-78.34
-73.99
-66.51
-56.06
-43.06
-28.11
-11.83
5.12
21.92
37.54
50.82
60.86
67.44
71.16
73.10
74.30
75.22
75.57
74.71
72.25
68.48
64.30
60.76
58.43
57.21
56.51
55.77
54.88
54.14
53.87
54.07
54.34
54.16
53.37
52.26
51.24
50.40
49.24
46.90
42.86
37.43
31.67
26.82
23.53
21.50
19.75
17.34
13.99
10.22
6.92
4.77
3.82
3.63
3.69
3.90
4.72
6.84
10.81
16.54
23.30
30.15
36.53
42.81
50.33
60.80
75.34
93.73
114.07
133.15
147.34
153.51
149.67
135.36
111.75
81.59
48.96
18.44
-6.15
-23.03
-33.04
-39.04
-44.39
-51.18
-59.49
-67.90
-74.86
-79.97
-84.23
-89.17
-95.58
-102.64
-108.22
-109.98
-106.65
-98.73
-88.10
-77.07
-67.43
-59.90
-54.27
-49.80
-45.69
-41.49
-37.19
-33.23
-30.27
-28.98
-29.80
-32.73
-37.49
-43.68
-50.98
-58.89
-66.49
-72.42
-75.41
-75.18
-73.32
-73.02
-77.83
-89.71
-107.75
-128.39
-147.25
-161.26
-169.74
-173.45
-172.63
-165.58
-149.11
-120.89
-81.96
-37.47
5.15
39.52
63.07
77.44
86.56
93.66
99.40
102.17
99.98
92.62
82.49
73.57
69.53
71.91
79.49
89.01
96.66
99.43
95.91
86.39
72.42
56.27
40.53
28.08
21.91
24.93
39.17
64.55
97.74
132.18
159.71
173.51
171.05
155.11
132.31
109.36
89.54
71.35
50.36
23.00
-10.17
-43.85
-70.59
-84.72
-85.27
-76.11
-63.47
-52.75
-46.22
-43.07
-40.92
-37.74
-33.15
-28.50
-25.96
-27.27
-32.86
-41.50
-50.86
-58.50
-62.79
-63.42
-61.16
-57.11
-51.85
-45.25
-36.79
-26.27
-14.35
-2.51
7.50
14.40
17.77
18.08
16.35
13.67
10.98
8.77
7.06
5.52
3.68
1.22
-1.75
-4.78
-7.24
-8.60
-8.66
-7.55
-5.65
-3.41
-1.20
0.78
2.40
3.70
4.82
5.87
6.91
7.78
8.14
7.54
5.67
2.56
-1.34
-5.25
-8.36
-10.18
-10.65
-10.15
-9.30
-8.71
-8.72
-9.26
-9.88
-9.94
-8.87
-6.50
-3.20
0.14
2.45
2.97
1.69
-0.50
-2.22
-2.19
0.02
3.67
7.12
8.65
7.27
3.29
-1.90
-6.61
-9.58
-10.29
-8.76
-5.29
-0.50
4.33
7.09
5.48
-1.80
-13.75
-26.82
-36.11
-37.75
-31.15
-19.68
-9.32
-5.75
-11.61
-25.18
-41.38
-54.35
-60.11
-58.24
-51.63
-44.68
-41.13
-42.32
-46.85
-51.74
-54.16
-52.74
-47.98
-41.42
-34.55
-27.91
-21.11
-13.36
-4.35
5.30
14.17
20.65
23.68
23.28
20.56
17.38
15.54
16.05
18.76
22.50
25.88
28.05
29.10
29.85
31.02
32.65
33.90
33.59
30.99
26.35
20.83
15.83
12.29
10.29
9.30
8.62
8.04
7.91
9.04
12.21
17.86
25.85
35.45
45.48
54.57
61.55
65.81
67.52
67.60
67.38
68.07
70.32
74.11
78.93
84.18
89.63
95.47
102.12
109.93
118.77
128.05
136.85
144.25
149.55
152.52
153.38
152.83
151.95
152.11
154.61
160.47
170.01
182.69
197.12
211.14
222.24
228.16
227.53
220.33
207.96
192.55
175.97
158.77
139.89
117.22
88.76
53.78
13.24
-30.83
-76.70
-123.92
-173.37
-226.07
-281.38
-335.75
-383.23
-417.31
-433.73
-432.61
-418.67
-399.61
-383.57
-376.72
-382.38
-401.34
-432.71
-474.35
-522.44
-571.11
-612.69
-639.39
-645.53
-629.52
-594.17
-545.38
-489.81
-432.68
-376.89
-323.33
-271.89
-222.27
-174.37
-128.04
-82.75
-37.77
7.60
53.47
99.11
143.19
184.25
221.28
254.12
283.48
310.70
337.52
365.52
395.55
427.08
457.75
483.51
499.58
502.10
489.61
463.80
428.95
390.34
352.41
317.58
286.10
256.89
228.62
200.53
172.57
145.08
118.52
93.31
69.93
49.10
31.64
18.33
9.47
4.65
2.68
1.95
0.96
-1.12
-4.15
-7.13
-8.80
-8.34
-5.99
-3.12
-1.69
-3.33
-8.53
-16.33
-24.87
-32.15
-36.86
-38.66
-37.77
-34.52
-28.98
-21.20
-11.56
-1.21
8.15
14.88
18.26
18.78
18.00
17.69
18.88
21.49
24.58
27.15
28.76
29.79
31.05
33.20
36.15
39.15
41.20
41.75
41.17
40.62
41.56
44.96
51.01
59.06
68.11
77.26
86.04
94.35
102.36
110.26
118.03
125.42
131.94
137.24
141.47
145.54
150.99
159.49
172.14
189.12
209.82
233.34
258.79
285.04
310.13
330.76
342.63
341.70
325.70
295.13
253.10
204.11
152.50
101.50
53.10
8.48
-31.47
-66.26
-96.12
-122.38
-147.51
-174.68
-206.97
-246.27
-291.87
-339.31
-380.56
-405.86
-407.14
-381.45
-332.70
-270.38
-205.88
-148.11
-100.93
-63.57
-33.35
-8.75
9.19
18.02
16.29
5.41
-10.43
-26.24
-38.62
-47.11
-53.73
-61.26
-71.28
-83.30
-95.28
-104.84
-110.55
-112.40
-111.46
-109.15
-106.79
-105.34
-105.54
-107.86
-112.24
-117.96
-123.61
-127.61
-129.00
-128.23
-127.18
-128.54
-134.63
-146.25
-162.39
-180.62
-198.19
-213.17
-224.91
-233.80
-240.57
-245.81
-249.83
-252.84
-254.95
-255.89
-254.48
-248.53
-235.34
-212.81
-180.59
-140.37
-95.23
-48.15
-0.64
47.73
98.45
152.20
207.03
257.48
295.64
313.80
307.62
278.21
232.27
179.91
131.38
94.37
73.04
68.50
80.04
105.79
142.40
184.58
225.33
257.35
275.28
277.47
266.17
246.11
222.08
197.20
172.36
146.93
120.04
91.65
62.87
35.66
11.99
-6.90
-20.93
-31.06
-38.59
-44.45
-48.75
-51.03
-50.93
-48.82
-45.91
-43.61
-42.62
-42.34
-41.05
-36.91
-29.20
-18.90
-8.30
0.18
5.26
7.27
7.70
8.19
9.55
11.42
12.68
12.26
9.83
5.95
1.89
-1.10
-2.26
-1.59
0.13
1.71
1.88
-0.18
-4.51
-10.14
-15.40
-18.60
-18.96
-17.12
-14.86
-14.13
-15.91
-19.62
-23.50
-25.68
-25.35
-23.16
-20.75
-19.56
-19.94
-21.10
-21.80
-21.27
-19.75
-18.23
-17.76
-18.78
-20.88
-23.19
-24.93
-25.85
-26.20
-26.44
-26.91
-27.69
-28.67
-29.74
-30.85
-31.92
-32.69
-32.69
-31.51
-29.08
-25.90
-22.90
-21.09
-21.00
-22.33
-24.11
-25.09
-24.42
-21.98
-18.40
-14.59
-11.32
-8.80
-6.79
-4.83
-2.63
-0.26
1.99
3.86
5.31
6.65
8.28
10.57
13.54
16.94
20.40
23.57
26.31
28.54
30.21
31.17
31.13
29.85
27.25
23.66
19.77
16.63
15.22
16.17
19.44
24.27
29.49
33.86
36.63
37.70
37.49
36.61
35.46
34.17
32.77
31.40
30.44
30.18
30.47
30.47
28.98
24.89
17.96
8.91
-0.78
-9.58
-16.57
-21.58
-25.00
-27.29
-28.65
-29.02
-28.25
-26.35
-23.59
-20.37
-17.13
-14.24
-11.95
-10.42
-9.73
-9.76
-10.33
-11.04
-11.53
-11.48
-10.75
-9.47
-8.09
-7.28
-7.77
-10.07
-14.24
-19.75
-25.71
-31.14
-35.38
-38.25
-39.78
-39.86
-37.91
-32.81
-23.40
-9.11
9.59
31.10
53.02
72.78
87.93
96.42
96.69
87.85
70.25
45.95
18.67
-6.94
-26.85
-39.02
-44.03
-44.37
-43.03
-41.90
-41.14
-39.67
-36.30
-30.72
-23.81
-16.97
-11.11
-6.13
-1.06
5.14
12.77
21.11
28.85
34.81
38.59
40.72
42.21
43.93
46.09
48.24
49.62
49.63
48.12
45.34
41.66
37.26
32.15
26.23
19.49
12.13
4.45
-3.33
-11.03
-18.44
-25.09
-30.23
-33.18
-33.97
-33.47
-33.11
-33.89
-35.57
-36.60
-35.10
-30.28
-23.39
-17.35
-15.16
-17.96
-24.15
-30.17
-32.32
-28.71
-20.08
-8.97
1.79
10.38
16.41
20.39
23.04
24.79
25.84
26.41
26.88
27.64
29.02
31.16
34.10
37.81
42.08
46.34
49.64
50.98
49.74
46.18
41.37
36.83
33.87
33.09
34.33
37.05
40.96
46.39
54.43
66.51
83.72
106.27
133.00
161.61
189.21
213.37
232.94
248.36
261.04
272.20
281.71
287.79
287.80
279.78
263.59
241.00
214.56
185.97
155.12
120.45
80.41
35.15
-12.75
-59.05
-99.48
-131.40
-154.53
-170.56
-181.94
-190.80
-198.31
-204.71
-209.85
-213.70
-216.56
-218.96
-220.99
-221.66
-218.70
-208.85
-189.10
-158.12
-116.93
-68.56
-16.53
36.72
90.54
145.36
200.91
254.60
301.15
333.93
347.39
339.31
311.69
269.95
220.76
169.79
120.30
73.10
27.43
-17.68
-62.55
-106.58
-148.74
-188.27
-225.21
-260.47
-295.38
-331.17
-368.93
-409.62
-454.24
-503.39
-556.40
-610.41
-660.12
-698.71
-719.79
-719.59
-698.18
-659.38
-609.08
-553.37
-496.84
-442.13
-390.25
-341.30
-295.09
-251.19
-208.98
-167.61
-126.22
-84.23
-41.57
1.43
43.98
85.27
124.71
162.25
198.63
235.25
273.63
314.33
356.08
395.38
427.38
447.49
453.01
443.66
420.83
386.13
340.62
285.31
222.53
156.94
95.15
43.92
7.84
-12.16
-18.65
-16.40
-10.68
-6.03
-5.66
-11.10
-22.00
-36.19
-50.15
-60.24
-64.00
-60.90
-52.29
-40.65
-28.73
-19.22
-14.44
-15.77
-22.65
-31.94
-38.34
-36.27
-22.57
1.66
31.26
59.36
80.57
93.11
98.89
101.66
104.66
109.07
114.19
118.55
121.20
122.23
122.20
121.54
120.27
118.44
116.77
116.89
120.71
129.30
141.99
156.25
168.69
176.66
179.44
178.50
176.51
175.72
176.61
177.37
174.36
163.32
140.62
104.50
55.91
-1.29
-60.63
-114.29
-154.87
-177.46
-181.03
-168.69
-146.50
-121.40
-99.17
-82.99
-73.30
-68.53
-66.28
-64.56
-62.42
-60.02
-57.93
-56.60
-55.68
-54.11
-50.65
-44.64
-36.56
-27.98
-20.99
-17.20
-17.11
-19.88
-23.90
-27.65
-30.53
-33.20
-37.17
-43.90
-53.68
-65.25
-76.13
-83.86
-87.09
-86.27
-83.24
-80.10
-78.05
-76.89
-75.41
-72.30
-67.17
-60.89
-55.21
-51.86
-51.80
-54.85
-59.87
-65.29
-69.56
-71.58
-70.93
-67.97
-63.73
-59.74
-57.47
-57.92
-61.23
-66.66
-72.84
-78.18
-81.35
-81.51
-78.40
-72.19
-63.10
-51.01
-35.23
-14.63
12.08
45.58
85.45
129.78
175.14
216.58
248.13
263.70
258.58
231.20
184.18
123.97
58.75
-4.46
-61.79
-112.46
-156.80
-193.73
-219.59
-229.27
-218.89
-188.23
-141.11
-83.70
-22.05
39.59
98.46
151.96
196.50
227.75
242.32
239.61
222.70
197.47
170.45
146.74
128.84
116.57
108.16
101.46
94.93
87.92
80.52
73.18
66.27
59.92
53.96
48.19
42.64
37.61
33.55
30.75
29.12
28.06
26.73
24.44
20.99
16.79
12.65
9.35
7.25
6.06
5.01
3.27
0.36
-3.60
-7.99
-11.98
-14.94
-16.56
-16.93
-16.36
-15.17
-13.62
-11.88
-10.13
-8.47
-7.02
-5.77
-4.62
-3.46
-2.23
-1.04
-0.07
0.55
0.87
1.19
1.92
3.43
5.83
8.98
12.50
15.99
19.12
21.75
23.88
25.63
27.16
28.55
29.83
30.80
31.17
30.53
28.68
25.69
22.09
18.64
16.17
15.28
16.09
18.29
21.35
24.69
27.79
30.21
31.58
31.59
30.26
28.06
25.84
24.18
22.80
20.19
14.22
3.44
-11.34
-26.45
-36.31
-35.73
-22.31
2.35
33.46
65.34
93.77
117.19
136.16
151.88
164.92
174.87
180.97
182.98
181.19
175.64
165.24
147.80
121.10
84.75
41.24
-4.48
-47.07
-83.04
-112.11
-136.79
-160.46
-185.28
-210.94
-234.89
-253.58
-263.91
-264.28
-254.97
-238.09
-217.18
-196.57
-180.34
-171.37
-170.71
-177.66
-190.21
-205.36
-219.46
-228.48
-228.87
-219.11
-200.79
-178.43
-157.67
-142.54
-133.35
-126.56
-116.66
-98.89
-71.09
-33.80
10.78
59.89
110.38
158.36
199.08
228.05
242.91
244.91
238.69
230.28
224.35
222.35
222.57
221.90
217.98
210.77
202.50
196.64
196.09
201.86
212.62
225.11
235.35
240.03
237.34
227.01
209.53
185.29
153.96
114.70
67.12
11.92
-49.06
-113.79
-180.92
-249.55
-317.95
-381.82
-433.77
-464.92
-468.03
-440.57
-385.94
-312.11
-228.79
-144.71
-66.41
1.60
56.09
94.94
117.76
126.53
125.55
120.12
114.73
111.71
111.12
111.74
112.11
111.43
109.61
106.85
103.28
98.90
93.77
88.15
82.44
77.04
72.06
67.32
62.44
57.11
51.23
44.91
38.39
31.83
25.24
18.54
11.71
4.83
-1.82
-7.89
-13.08
-17.18
-20.16
-22.09
-23.08
-23.22
-22.60
-21.29
-19.41
-17.18
-14.88
-12.85
-11.40
-10.75
-10.96
-11.88
-13.22
-14.59
-15.61
-16.08
-15.94
-15.29
-14.28
-13.05
-11.70
-10.33
-9.01
-7.91
-7.14
-6.80
-6.92
-7.39
-8.09
-8.92
-9.83
-10.75
-11.60
-12.22
-12.44
-12.13
-11.26
-9.91
-8.26
-6.52
-4.88
-3.43
-2.21
-1.18
-0.32
0.38
0.88
1.15
1.17
0.95
0.57
0.09
-0.42
-0.94
-1.45
-1.97
-2.48
-2.93
-3.28
-3.54
-3.81
-4.23
-4.95
-6.01
-7.32
-8.69
-9.89
-10.81
-11.46
-11.96
-12.41
-12.79
-12.96
-12.66
-11.73
-10.16
-8.11
-5.93
-3.93
-2.33
-1.21
-0.52
-0.15
-0.02
-0.10
-0.38
-0.84
-1.47
-2.17
-2.87
-3.53
-4.17
-4.85
-5.63
-6.49
-7.34
-7.97
-8.19
-7.87
-7.02
-5.71
-4.13
-2.39
-0.65
0.95
2.28
3.22
3.76
3.97
4.01
4.01
4.02
3.98
3.82
3.54
3.27
3.26
3.77
4.99
6.92
9.52
12.67
16.29
20.21
24.19
27.85
30.74
32.47
32.88
32.07
30.36
28.06
25.41
22.46
19.16
15.38
11.13
6.56
1.92
-2.49
-6.37
-9.54
-11.89
-13.37
-13.96
-13.61
-12.22
-9.73
-6.13
-1.53
3.78
9.34
14.55
18.80
21.66
22.95
22.77
21.47
19.46
17.12
14.71
12.32
9.92
7.43
4.75
1.82
-1.36
-4.73
-8.13
-11.37
-14.23
-16.56
-18.24
-19.22
-19.40
-18.69
-16.95
-14.10
-10.23
-5.56
-0.43
4.85
10.04
15.16
20.45
26.29
33.17
41.54
51.83
64.31
79.07
95.88
114.25
133.35
152.17
169.60
184.60
196.34
204.30
208.39
208.76
205.61
198.86
188.13
173.06
153.74
131.21
107.30
84.15
63.35
45.46
30.07
16.37
3.96
-6.85
-15.32
-20.98
-24.16
-26.10
-28.32
-31.94
-37.17
-43.43
-49.77
-55.47
-60.33
-64.53
-68.20
-71.15
-72.83
-72.74
-70.83
-67.73
-64.44
-61.94
-60.73
-60.68
-61.30
-62.12
-62.97
-63.98
-65.37
-67.22
-69.37
-71.63
-73.90
-76.32
-79.09
-82.32
-85.87
-89.41
-92.60
-95.18
-97.11
-98.51
-99.52
-100.24
-100.65
-100.55
-99.62
-97.57
-94.23
-89.65
-84.13
-78.12
-72.10
-66.40
-61.19
-56.41
-51.85
-47.16
-42.02
-36.10
-29.22
-21.39
-12.85
-4.14
3.98
10.58
14.81
16.10
14.29
9.71
3.00
-5.10
-13.95
-23.11
-32.29
-41.20
-49.38
-56.25
-61.24
-63.97
-64.45
-63.00
-60.11
-56.17
-51.34
-45.55
-38.67
-30.77
-22.20
-13.64
-5.79
0.73
5.60
8.80
10.54
11.15
10.97
10.33
9.55
8.86
8.39
8.10
7.69
6.71
4.63
1.16
-3.64
-9.22
-14.70
-19.14
-21.86
-22.66
-21.75
-19.56
-16.47
-12.62
-8.01
-2.70
2.99
8.46
12.97
15.95
17.18
16.84
15.37
13.26
10.91
8.57
6.41
4.62
3.39
2.92
3.35
4.77
7.23
10.72
15.20
20.55
26.55
32.83
38.80
43.65
46.43
46.13
42.04
33.94
22.31
8.22
-6.91
-21.62
-34.75
-45.48
-53.27
-57.83
-59.02
-56.96
-52.11
-45.27
-37.40
-29.45
-22.07
-15.60
-10.10
-5.47
-1.63
1.43
3.63
4.86
5.09
4.45
3.26
1.96
1.02
0.73
1.10
1.87
2.63
3.02
2.94
2.55
2.16
2.03
2.21
2.52
2.70
2.51
1.88
0.92
-0.15
-1.08
-1.68
-1.86
-1.59
-0.87
0.31
1.89
3.80
5.91
8.04
10.03
11.72
12.99
13.84
14.34
14.65
15.00
15.60
16.55
17.84
19.27
20.52
21.33
21.52
21.12
20.31
19.36
18.53
17.93
17.55
17.23
16.76
15.96
14.73
13.14
11.33
9.45
7.62
5.85
4.12
2.39
0.65
-1.11
-2.90
-4.84
-7.07
-9.74
-12.91
-16.49
-20.23
-23.81
-27.03
-29.81
-32.28
-34.63
-37.01
-39.39
-41.51
-42.96
-43.31
-42.32
-40.01
-36.77
-33.18
-29.84
-27.23
-25.58
-24.90
-25.04
-25.82
-27.05
-28.58
-30.28
-32.10
-34.05
-36.24
-38.82
-41.84
-45.16
-48.29
-50.49
-50.87
-48.70
-43.60
-35.68
-25.56
-14.15
-2.48
8.61
18.50
26.86
33.56
38.61
42.09
44.15
45.00
44.88
43.97
42.36
40.02
36.90
32.98
28.38
23.38
18.29
13.42
8.92
4.83
1.10
-2.29
-5.30
-7.76
-9.46
-10.21
-9.95
-8.80
-7.07
-5.13
-3.36
-2.04
-1.29
-1.04
-1.07
-1.04
-0.59
0.60
2.71
5.72
9.41
13.39
17.23
20.63
23.57
26.34
29.42
33.17
37.57
42.11
45.82
47.58
46.55
42.51
35.89
27.66
18.99
10.96
4.34
-0.42
-3.21
-4.09
-3.24
-0.96
2.48
6.80
11.78
17.21
22.87
28.41
33.37
37.28
39.83
41.09
41.57
42.14
43.81
47.46
53.58
62.21
72.85
84.51
95.89
105.45
111.77
113.86
111.47
105.19
96.31
86.38
76.73
68.23
61.09
55.12
49.96
45.27
40.82
36.37
31.58
26.05
19.33
11.16
1.52
-9.32
-21.01
-33.21
-45.81
-58.87
-72.51
-86.64
-100.85
-114.39
-126.38
-136.12
-143.28
-147.97
-150.50
-151.15
-150.02
-147.05
-142.17
-135.49
-127.33
-118.18
-108.54
-98.84
-89.44
-80.62
-72.63
-65.66
-59.75
-54.75
-50.24
-45.74
-40.79
-35.16
-28.82
-21.91
-14.57
-6.84
1.30
9.94
18.99
28.21
37.14
45.28
52.16
57.42
60.83
62.24
61.63
59.11
55.00
49.82
44.15
38.59
33.57
29.32
25.76
22.63
19.60
16.43
13.02
9.46
5.97
2.76
0.04
-2.16
-3.90
-5.36
-6.73
-8.23
-10.08
-12.40
-15.14
-18.03
-20.52
-21.91
-21.57
-19.07
-14.37
-7.81
0.06
8.53
16.92
24.54
30.79
35.14
37.27
37.16
35.12
31.77
27.83
23.98
20.74
18.39
16.96
16.26
15.99
15.86
15.64
15.34
15.12
15.20
15.69
16.48
17.25
17.72
17.73
17.35
16.84
16.41
16.14
15.94
15.60
15.00
14.17
13.29
12.59
12.21
12.16
12.32
12.53
12.66
12.62
12.40
12.04
11.58
11.01
10.32
9.45
8.31
6.85
5.05
2.96
0.65
-1.79
-4.29
-6.81
-9.32
-11.82
-14.29
-16.78
-19.32
-22.01
-24.92
-28.06
-31.38
-34.75
-37.91
-40.52
-42.19
-42.61
-41.70
-39.69
-37.18
-34.91
-33.64
-33.91
-35.97
-39.75
-45.00
-51.28
-58.04
-64.64
-70.47
-74.99
-77.83
-78.77
-77.67
-74.45
-69.12
-61.88
-53.15
-43.52
-33.62
-23.92
-14.69
-6.02
2.14
9.81
16.97
23.65
29.78
35.35
40.31
44.60
48.22
51.20
53.63
55.59
57.14
58.20
58.70
58.53
57.71
56.31
54.48
52.32
49.95
47.43
44.85
42.32
39.91
37.74
35.86
34.31
33.15
32.40
32.02
31.85
31.64
31.08
29.92
28.14
25.89
23.45
21.09
18.90
16.80
14.51
11.78
8.38
4.29
-0.36
-5.35
-10.42
-15.43
-20.34
-25.30
-30.55
-36.36
-42.89
-49.99
-57.11
-63.33
-67.57
-68.89
-66.82
-61.48
-53.58
-44.20
-34.48
-25.34
-17.36
-10.74
-5.39
-1.10
2.38
5.26
7.66
9.67
11.38
12.92
14.47
16.15
17.96
19.73
21.21
22.18
22.61
22.63
22.47
22.34
22.35
22.51
22.82
23.33
24.14
25.36
27.05
29.16
31.56
34.03
36.32
38.14
39.23
39.30
38.16
35.63
31.72
26.69
21.10
15.80
11.84
10.11
11.06
14.48
19.44
24.52
28.17
29.07
26.37
19.84
9.80
-2.92
-17.16
-31.61
-45.03
-56.47
-65.34
-71.35
-74.45
-74.69
-72.19
-67.17
-60.06
-51.47
-42.15
-32.93
-24.60
-17.89
-13.42
-11.69
-13.00
-17.31
-24.08
-32.29
-40.51
-47.17
-50.98
-51.20
-47.77
-41.28
-32.59
-22.61
-12.03
-1.30
9.23
19.18
28.15
35.73
41.71
46.14
49.28
51.45
52.78
53.17
52.34
50.04
46.10
40.63
33.84
26.01
17.43
8.37
-0.79
-9.59
-17.47
-23.95
-28.75
-31.82
-33.32
-33.51
-32.66
-31.00
-28.75
-26.11
-23.31
-20.48
-17.71
-14.98
-12.18
-9.24
-6.16
-3.12
-0.48
1.19
1.22
-1.06
-6.05
-13.70
-23.31
-33.65
-43.22
-50.63
-54.90
-55.66
-53.12
-47.85
-40.59
-32.13
-23.17
-14.41
-6.37
0.59
6.47
11.52
16.17
20.75
25.32
29.65
33.31
35.89
37.15
37.09
35.91
33.85
31.15
28.01
24.67
21.40
18.45
16.05
14.27
13.06
12.23
11.56
10.80
9.76
8.33
6.49
4.30
1.92
-0.44
-2.53
-4.10
-4.92
-4.78
-3.50
-1.00
2.63
7.14
12.08
16.91
21.14
24.42
26.63
27.95
28.72
29.33
30.07
30.96
31.81
32.21
31.75
30.10
27.15
23.04
18.04
12.42
6.39
0.11
-6.24
-12.40
-17.95
-22.47
-25.63
-27.43
-28.12
-28.14
-27.93
-27.74
-27.60
-27.36
-26.90
-26.18
-25.32
-24.48
-23.77
-23.18
-22.53
-21.66
-20.40
-18.71
-16.61
-14.13
-11.31
-8.23
-5.01
-1.87
0.89
3.06
4.53
5.37
5.73
5.80
5.74
5.66
5.72
6.00
6.59
7.44
8.36
9.14
9.58
9.69
9.66
9.80
10.29
11.13
12.11
12.87
13.15
12.86
12.08
11.05
9.97
8.84
7.39
5.13
1.40
-4.26
-11.86
-20.83
-29.95
-37.74
-42.79
-44.16
-41.69
-35.86
-27.61
-17.97
-7.81
2.22
11.64
20.05
27.17
32.81
36.97
39.88
41.84
43.17
43.99
44.20
43.61
42.08
39.61
36.43
32.92
29.35
25.85
22.37
18.67
14.48
9.63
4.01
-2.28
-9.06
-16.10
-23.17
-30.02
-36.42
-42.12
-46.78
-50.06
-51.57
-50.97
-48.08
-42.94
-35.87
-27.46
-18.48
-9.69
-1.73
5.10
10.78
15.55
19.70
23.42
26.75
29.55
31.67
33.02
33.68
33.86
33.81
33.73
33.67
33.59
33.45
33.25
33.08
33.07
33.30
33.74
34.20
34.42
34.11
33.08
31.32
28.98
26.34
23.68
21.23
19.06
17.04
14.95
12.56
9.78
6.74
3.70
0.96
-1.30
-3.07
-4.51
-5.74
-6.84
-7.76
-8.35
-8.57
-8.47
-8.23
-8.09
-8.22
-8.64
-9.26
-9.91
-10.47
-10.88
-11.22
-11.63
-12.27
-13.22
-14.46
-15.91
-17.53
-19.40
-21.71
-24.61
-27.98
-31.28
-33.57
-33.82
-31.33
-26.04
-18.51
-9.69
-0.47
8.61
17.45
26.10
34.57
42.64
49.87
55.80
60.17
63.01
64.58
65.20
65.18
64.62
63.55
61.92
59.67
56.84
53.53
49.96
46.39
43.11
40.35
38.27
36.87
36.01
35.44
34.87
34.09
33.02
31.76
30.45
29.22
27.95
26.39
24.12
20.77
16.17
10.39
3.72
-3.42
-10.63
-17.53
-23.70
-28.67
-32.01
-33.45
-33.07
-31.36
-29.07
-26.96
-25.50
-24.70
-24.22
-23.59
-22.50
-20.95
-19.22
-17.61
-16.35
-15.45
-14.77
-14.19
-13.68
-13.28
-13.03
-12.85
-12.49
-11.68
-10.23
-8.18
-5.76
-3.35
-1.29
0.18
1.00
1.22
0.96
0.30
-0.69
-2.02
-3.73
-5.81
-8.29
-11.25
-14.81
-19.22
-24.68
-31.32
-39.10
-47.75
-56.85
-65.94
-74.54
-82.20
-88.57
-93.36
-96.47
-97.98
-98.23
-97.70
-96.93
-96.37
-96.31
-96.79
-97.62
-98.38
-98.53
-97.47
-94.75
-90.14
-83.63
-75.34
-65.33
-53.55
-39.90
-24.38
-7.36
10.46
28.05
44.46
58.96
71.15
80.92
88.21
92.91
94.90
94.12
90.84
85.67
79.47
73.02
66.71
60.49
54.00
46.95
39.39
31.91
25.45
20.95
19.03
19.73
22.61
26.91
31.80
36.57
40.68
43.78
45.69
46.31
45.67
43.83
40.97
37.35
33.35
29.38
25.77
22.56
19.57
16.40
12.77
8.65
4.43
0.77
-1.69
-2.63
-2.20
-0.89
0.71
2.15
3.30
4.25
5.13
5.97
6.59
6.71
6.07
4.61
2.49
0.05
-2.36
-4.51
-6.36
-8.04
-9.69
-11.41
-13.17
-14.83
-16.23
-17.24
-17.77
-17.83
-17.38
-16.34
-14.63
-12.18
-9.12
-5.80
-2.70
-0.27
1.15
1.47
0.74
-0.93
-3.41
-6.58
-10.18
-13.83
-17.02
-19.36
-20.73
-21.35
-21.67
-22.11
-22.87
-23.92
-25.04
-26.05
-26.94
-27.82
-28.80
-29.90
-30.91
-31.52
-31.38
-30.29
-28.21
-25.27
-21.71
-17.82
-13.84
-9.90
-6.09
-2.42
1.08
4.31
7.07
9.19
10.55
11.20
11.34
11.25
11.17
11.23
11.44
11.74
12.04
12.29
12.47
12.63
12.78
12.94
13.12
13.33
13.55
13.69
13.69
13.44
12.85
11.83
10.31
8.26
5.72
2.93
0.22
-1.95
-3.16
-3.17
-1.96
0.17
2.78
5.41
7.68
9.42
10.57
11.15
11.19
10.72
9.76
8.40
6.78
5.06
3.37
1.77
0.29
-1.09
-2.35
-3.41
-4.19
-4.63
-4.77
-4.64
-4.33
-3.91
-3.42
-2.88
-2.36
-1.97
-1.87
-2.18
-2.90
-3.96
-5.19
-6.34
-7.23
-7.65
-7.44
-6.55
-4.96
-2.82
-0.38
2.01
4.08
5.58
6.47
6.83
6.83
6.66
6.53
6.58
6.90
7.57
8.55
9.75
11.00
12.10
12.89
13.31
13.35
13.07
12.54
11.80
10.87
9.69
8.18
6.28
3.94
1.23
-1.70
-4.59
-7.16
-9.19
-10.62
-11.56
-12.18
-12.67
-13.08
-13.32
-13.23
-12.70
-11.67
-10.25
-8.57
-6.78
-4.98
-3.24
-1.60
-0.13
1.09
2.01
2.61
2.97
3.21
3.44
3.78
4.24
4.77
5.26
5.64
5.88
6.01
6.15
6.33
6.54
6.70
6.67
6.45
6.10
5.71
5.35
5.02
4.61
4.03
3.26
2.39
1.56
0.84
0.27
-0.22
-0.63
-0.91
-0.94
-0.61
0.08
1.02
2.03
2.92
3.61
4.06
4.30
4.37
4.31
4.21
4.17
4.25
4.49
4.81
5.15
5.43
5.62
5.76
5.85
5.89
5.81
5.56
5.17
4.67
4.15
3.61
3.03
2.34
1.53
0.60
-0.34
-1.24
-2.06
-2.79
-3.47
-4.03
-4.37
-4.34
-3.84
-2.84
-1.43
0.24
2.00
3.67
5.14
6.29
7.02
7.31
7.17
6.68
5.94
5.08
4.20
3.35
2.57
1.86
1.24
0.73
0.34
0.01
-0.36
-0.89
-1.69
-2.77
-4.06
-5.44
-6.78
-7.99
-9.04
-9.91
-10.63
-11.17
-11.49
-11.51
-11.21
-10.56
-9.61
-8.37
-6.87
-5.12
-3.13
-0.91
1.50
4.00
6.54
9.04
11.46
13.78
15.93
17.83
19.41
20.59
21.36
21.78
21.85
21.60
20.97
19.91
18.38
16.38
14.04
11.51
8.98
6.54
4.27
2.14
0.13
-1.78
-3.60
-5.33
-7.00
-8.64
-10.30
-11.96
-13.58
-15.03
-16.20
-16.99
-17.38
-17.39
-17.05
-16.39
-15.44
-14.26
-12.92
-11.51
-10.12
-8.80
-7.59
-6.46
-5.42
-4.45
-3.59
-2.85
-2.21
-1.67
-1.15
-0.62
-0.06
0.47
0.90
1.16
1.19
1.01
0.64
0.15
-0.44
-1.06
-1.66
-2.12
-2.31
-2.09
-1.41
-0.32
1.05
2.52
3.90
5.06
5.95
6.58
6.98
7.16
7.09
6.76
6.14
5.27
4.20
3.01
1.79
0.63
-0.36
-1.08
-1.45
-1.43
-1.08
-0.54
0.03
0.49
0.81
0.99
1.07
1.02
0.82
0.43
-0.14
-0.83
-1.59
-2.40
-3.27
-4.18
-5.05
-5.70
-5.95
-5.65
-4.81
-3.57
-2.16
-0.80
0.39
1.38
2.22
2.95
3.60
4.12
4.38
4.27
3.76
2.91
1.97
1.19
0.82
0.94
1.45
2.12
2.68
3.00
3.01
2.75
2.25
1.54
0.67
-0.27
-1.08
-1.59
-1.77
-1.71
-1.65
-1.81
-2.25
-2.92
-3.57
-3.97
-3.94
-3.44
-2.59
-1.56
-0.54
0.31
0.93
1.32
1.52
1.57
1.42
1.03
0.36
-0.57
-1.59
-2.49
-3.13
-3.45
-3.54
-3.56
-3.58
-3.64
-3.67
-3.62
-3.46
-3.24
-3.06
-3.02
-3.15
-3.48
-3.98
-4.65
-5.48
-6.38
-7.22
-7.78
-7.90
-7.54
-6.75
-5.69
-4.55
-3.45
-2.47
-1.64
-0.94
-0.37
0.07
0.41
0.68
0.91
1.09
1.14
1.04
0.77
0.41
0.09
-0.06
0.02
0.29
0.65
0.95
1.12
1.14
1.01
0.77
0.40
-0.16
-0.99
-2.08
-3.39
-4.77
-6.11
-7.31
-8.32
-9.13
-9.69
-9.89
-9.64
-8.92
-7.82
-6.50
-5.20
-4.05
-3.12
-2.38
-1.79
-1.31
-0.95
-0.68
-0.49
-0.35
-0.20
-0.08
0.04
0.17
0.35
0.61
0.95
1.32
1.64
1.84
1.90
1.89
1.93
2.07
2.30
2.51
2.54
2.29
1.73
0.90
-0.10
-1.19
-2.34
-3.56
-4.83
-6.10
-7.21
-8.00
-8.29
-7.97
-7.05
-5.66
-3.96
-2.17
-0.49
0.96
2.15
3.10
3.86
4.48
4.96
5.27
5.41
5.40
5.33
5.27
5.30
5.45
5.68
5.92
6.11
6.26
6.36
6.48
6.60
6.65
6.50
6.05
5.27
4.23
3.12
2.11
1.32
0.76
0.33
-0.08
-0.60
-1.32
-2.29
-3.51
-4.96
-6.53
-8.01
-9.11
-9.55
-9.18
-7.97
-6.13
-3.95
-1.76
0.20
1.84
3.15
4.24
5.15
5.89
6.42
6.69
6.68
6.49
6.25
6.09
6.15
6.46
6.97
7.57
8.15
8.64
9.05
9.41
9.75
10.02
10.12
9.91
9.31
8.32
7.07
5.73
4.46
3.37
2.47
1.72
0.99
0.15
-0.95
-2.38
-4.17
-6.16
-8.09
-9.64
-10.62
-10.94
-10.72
-10.19
-9.50
-8.77
-7.97
-7.06
-6.02
-4.89
-3.75
-2.63
-1.54
-0.43
0.73
1.91
3.06
4.06
4.84
5.32
5.46
5.22
4.65
3.91
3.22
2.83
2.83
3.14
3.53
3.73
3.63
3.33
3.01
2.86
2.85
2.75
2.27
1.20
-0.42
-2.35
-4.27
-5.92
-7.21
-8.13
-8.69
-8.79
-8.27
-7.01
-4.99
-2.40
0.41
3.02
5.09
6.42
6.98
6.88
6.28
5.36
4.29
3.26
2.39
1.84
1.69
1.99
2.72
3.78
5.00
6.21
7.27
8.07
8.58
8.75
8.55
7.90
6.77
5.17
3.26
1.31
-0.33
-1.41
-1.83
-1.70
-1.30
-1.00
-1.08
-1.69
-2.76
-4.08
-5.34
-6.23
-6.48
-5.91
-4.48
-2.29
0.36
3.09
5.47
7.23
8.28
8.71
8.73
8.53
8.20
7.73
7.10
6.32
5.56
5.00
4.76
4.84
5.09
5.33
5.44
5.40
5.32
5.30
5.40
5.55
5.62
5.50
5.09
4.39
3.48
2.44
1.40
0.42
-0.45
-1.25
-2.07
-2.98
-4.03
-5.14
-6.09
-6.65
-6.63
-6.00
-4.90
-3.54
-2.15
-0.86
0.30
1.35
2.32
3.18
3.86
4.29
4.46
4.45
4.38
4.40
4.63
5.12
5.82
6.58
7.24
7.66
7.75
7.53
7.08
6.53
5.98
5.46
5.01
4.58
4.19
3.82
3.44
3.05
2.58
2.02
1.36
0.64
-0.10
-0.84
-1.57
-2.23
-2.75
-2.98
-2.79
-2.16
-1.15
0.02
1.10
1.89
2.31
2.39
2.26
2.01
1.68
1.24
0.62
-0.25
-1.36
-2.66
-4.01
-5.26
-6.31
-7.12
-7.74
-8.22
-8.66
-9.06
-9.43
-9.80
-10.19
-10.65
-11.20
-11.81
-12.40
-12.95
-13.46
-14.05
-14.86
-15.96
-17.32
-18.75
-19.94
-20.57
-20.45
-19.54
-18.03
-16.17
-14.23
-12.35
-10.52
-8.63
-6.63
-4.59
-2.71
-1.23
-0.26
0.26
0.54
0.85
1.38
2.18
3.16
4.19
5.16
6.03
6.78
7.42
8.00
8.55
9.10
9.63
10.05
10.25
10.11
9.63
8.92
8.19
7.57
7.15
6.87
6.63
6.34
5.97
5.54
5.04
4.44
3.64
2.59
1.33
0.00
-1.18
-2.09
-2.72
-3.20
-3.80
-4.73
-6.07
-7.73
-9.54
-11.31
-12.98
-14.54
-16.02
-17.44
-18.70
-19.66
-20.18
-20.23
-19.84
-19.13
-18.22
-17.21
-16.17
-15.11
-14.06
-13.01
-12.00
-11.07
-10.31
-9.81
-9.64
-9.82
-10.35
-11.25
-12.48
-13.96
-15.54
-16.98
-18.02
-18.47
-18.35
-17.79
-17.08
-16.47
-16.10
-15.90
-15.71
-15.33
-14.68
-13.81
-12.85
-11.95
-11.18
-10.50
-9.75
-8.79
-7.59
-6.21
-4.81
-3.53
-2.52
-1.83
-1.44
-1.28
-1.19
-1.03
-0.64
0.05
1.02
2.17
3.37
4.51
5.56
6.48
7.29
7.97
8.57
9.17
9.85
10.65
11.57
12.46
13.15
13.49
13.46
13.17
12.73
12.26
11.77
11.23
10.58
9.82
9.03
8.34
7.90
7.77
7.99
8.48
9.09
9.61
9.92
9.98
9.88
9.75
9.67
9.57
9.26
8.53
7.23
5.37
3.10
0.64
-1.80
-4.09
-6.09
-7.68
-8.70
-9.01
-8.52
-7.31
-5.57
-3.60
-1.77
-0.39
0.36
0.50
0.25
-0.09
-0.25
-0.15
0.12
0.37
0.46
0.37
0.23
0.21
0.42
0.86
1.40
1.95
2.43
2.84
3.22
3.57
3.85
3.97
3.82
3.30
2.39
1.17
-0.19
-1.44
-2.39
-2.95
-3.17
-3.12
-2.86
-2.34
-1.45
-0.16
1.51
3.38
5.20
6.76
7.95
8.77
9.30
9.60
9.69
9.55
9.17
8.57
7.83
7.11
6.54
6.20
6.07
6.01
5.89
5.59
5.12
4.56
4.05
3.66
3.42
3.21
2.96
2.62
2.20
1.74
1.29
0.79
0.16
-0.68
-1.78
-3.12
-4.57
-5.98
-7.14
-7.91
-8.20
-7.98
-7.35
-6.42
-5.36
-4.32
-3.43
-2.76
-2.32
-2.09
-1.99
-1.92
-1.76
-1.42
-0.85
-0.12
0.65
1.33
1.83
2.22
2.64
3.24
4.07
5.03
5.89
6.45
6.58
6.33
5.84
5.30
4.80
4.34
3.86
3.30
2.63
1.87
0.99
-0.02
-1.20
-2.51
-3.92
-5.26
-6.36
-7.01
-7.04
-6.38
-5.08
-3.30
-1.27
0.77
2.62
4.15
5.34
6.21
6.82
7.17
7.23
7.03
6.65
6.21
5.87
5.74
5.90
6.27
6.70
7.01
7.05
6.75
6.15
5.38
4.56
3.79
3.08
2.41
1.70
0.93
0.10
-0.73
-1.56
-2.40
-3.33
-4.48
-5.87
-7.48
-9.18
-10.78
-12.08
-12.91
-13.20
-12.93
-12.15
-11.01
-9.66
-8.25
-6.89
-5.61
-4.42
-3.28
-2.22
-1.25
-0.42
0.28
0.87
1.40
1.92
2.43
2.92
3.36
3.76
4.13
4.50
4.87
5.22
5.48
5.56
5.42
5.08
4.59
4.05
3.54
3.07
2.59
1.98
1.12
-0.07
-1.60
-3.38
-5.19
-6.79
-7.94
-8.44
-8.19
-7.18
-5.55
-3.48
-1.26
0.87
2.71
4.20
5.37
6.38
7.36
8.38
9.40
10.33
11.06
11.52
11.68
11.60
11.33
10.94
10.55
10.21
9.99
9.85
9.73
9.49
9.05
8.35
7.41
6.30
5.11
3.91
2.74
1.63
0.61
-0.38
-1.44
-2.69
-4.19
-5.85
-7.42
-8.55
-8.96
-8.53
-7.37
-5.78
-4.07
-2.42
-0.90
0.55
1.97
3.31
4.42
5.17
5.49
5.44
5.22
5.00
4.89
4.89
4.91
4.87
4.78
4.69
4.71
4.86
5.06
5.15
4.95
4.38
3.48
2.42
1.40
0.54
-0.14
-0.72
-1.31
-2.00
-2.79
-3.66
-4.64
-5.77
-7.10
-8.59
-10.04
-11.15
-11.66
-11.44
-10.60
-9.41
-8.16
-7.04
-6.06
-5.06
-3.82
-2.17
-0.08
2.41
5.11
7.85
10.47
12.84
14.88
16.47
17.51
17.87
17.44
16.27
14.54
12.46
10.31
8.25
6.36
4.65
3.10
1.74
0.63
-0.16
-0.61
-0.70
-0.49
-0.06
0.44
0.86
1.12
1.20
1.29
1.63
2.51
4.05
6.18
8.63
11.07
13.24
15.04
16.48
17.60
18.42
18.85
18.79
18.24
17.32
16.27
15.37
14.78
14.47
14.27
13.97
13.42
12.62
11.61
10.42
9.04
7.42
5.57
3.64
1.88
0.52
-0.30
-0.74
-1.07
-1.66
-2.73
-4.26
-6.02
-7.72
-9.13
-10.14
-10.78
-11.10
-11.10
-10.67
-9.63
-7.80
-5.14
-1.75
2.12
6.19
10.22
14.13
17.99
21.91
25.97
30.09
33.94
37.09
39.07
39.65
38.96
37.43
35.74
34.48
33.99
34.20
34.72
35.04
34.88
34.30
33.72
33.82
35.31
38.77
44.55
52.68
62.79
74.04
85.17
94.68
101.25
104.06
103.13
99.27
93.78
87.96
82.67
78.16
74.11
69.92
65.01
59.14
52.47
45.47
38.61
32.13
25.92
19.68
13.18
6.51
0.07
-5.67
-10.49
-14.54
-18.23
-21.85
-25.36
-28.33
-30.31
-31.19
-31.32
-31.45
-32.40
-34.70
-38.45
-43.34
-48.77
-53.97
-58.19
-60.88
-61.84
-61.42
-60.37
-59.65
-59.93
-61.41
-63.70
-66.07
-67.87
-68.78
-68.93
-68.63
-68.15
-67.49
-66.29
-64.11
-60.64
-55.96
-50.50
-44.87
-39.54
-34.70
-30.34
-26.35
-22.78
-19.89
-18.03
-17.51
-18.48
-20.86
-24.53
-29.29
-34.93
-41.09
-47.23
-52.62
-56.55
-58.49
-58.30
-56.21
-52.61
-47.89
-42.28
-35.93
-28.96
-21.66
-14.48
-8.02
-2.83
0.62
2.00
1.11
-2.07
-7.31
-14.02
-21.30
-28.13
-33.75
-37.76
-40.26
-41.55
-41.86
-41.27
-39.69
-37.16
-33.94
-30.60
-27.75
-25.82
-24.88
-24.64
-24.66
-24.49
-23.86
-22.65
-20.89
-18.64
-16.00
-13.04
-9.86
-6.53
-3.14
0.18
3.30
6.06
8.31
9.96
11.05
11.71
12.20
12.81
13.77
15.22
17.16
19.50
22.07
24.70
27.25
29.59
31.57
33.01
33.70
33.47
32.26
30.09
27.00
22.95
17.81
11.40
3.64
-5.31
-15.06
-24.99
-34.47
-42.98
-50.29
-56.40
-61.48
-65.65
-68.96
-71.31
-72.53
-72.59
-71.59
-69.82
-67.57
-65.08
-62.37
-59.42
-56.19
-52.85
-49.67
-46.95
-44.84
-43.32
-42.25
-41.56
-41.35
-41.92
-43.57
-46.36
-49.86
-53.22
-55.30
-55.12
-52.12
-46.41
-38.74
-30.26
-22.24
-15.67
-11.10
-8.53
-7.51
-7.20
-6.70
-5.17
-2.11
2.50
8.29
14.51
20.46
25.64
29.93
33.54
36.82
40.14
43.82
48.11
53.22
59.29
66.30
74.06
82.21
90.28
97.75
103.95
108.02
108.99
106.13
99.43
89.94
79.71
71.09
65.88
64.59
66.36
69.46
72.17
73.48
73.22
71.75
69.37
66.05
61.41
55.19
47.51
39.03
30.76
23.65
18.30
14.75
12.53
10.77
8.45
4.50
-1.92
-11.20
-23.03
-36.39
-49.71
-61.28
-69.73
-74.48
-75.72
-74.29
-71.28
-67.58
-63.71
-59.77
-55.59
-50.97
-45.77
-39.95
-33.59
-26.84
-19.96
-13.29
-7.29
-2.48
0.70
1.92
1.18
-1.24
-4.73
-8.47
-11.64
-13.51
-13.64
-11.83
-8.08
-2.63
4.05
11.22
17.94
23.21
26.26
26.79
25.07
21.88
18.13
14.55
11.36
8.37
5.13
1.32
-3.08
-7.73
-12.05
-15.46
-17.52
-18.09
-17.25
-15.30
-12.65
-9.76
-7.09
-5.09
-4.05
-4.06
-4.98
-6.42
-7.95
-9.16
-9.84
-9.97
-9.71
-9.36
-9.21
-9.59
-10.83
-13.26
-17.02
-21.95
-27.46
-32.64
-36.58
-38.65
-38.73
-37.22
-34.77
-31.97
-29.06
-25.89
-22.02
-17.00
-10.46
-2.21
7.87
19.74
33.16
47.51
61.73
74.49
84.54
91.01
93.61
92.65
88.76
82.72
75.26
67.07
58.82
51.11
44.32
38.42
33.00
27.40
20.98
13.41
4.77
-4.55
-14.01
-23.11
-31.48
-38.79
-44.70
-48.88
-51.13
-51.52
-50.35
-48.17
-45.52
-42.80
-40.22
-37.81
-35.50
-33.20
-30.80
-28.21
-25.37
-22.36
-19.34
-16.62
-14.48
-13.08
-12.30
-11.82
-11.15
-9.77
-7.26
-3.34
1.98
8.34
15.03
21.12
25.69
28.09
28.16
26.30
23.31
20.11
17.60
16.41
16.93
19.20
22.92
27.43
31.77
34.94
36.18
35.37
33.10
30.50
28.89
29.24
31.81
36.06
40.92
45.21
48.06
49.25
49.21
48.74
48.71
49.66
51.67
54.38
57.07
58.95
59.23
57.18
52.28
44.24
33.25
20.15
6.38
-6.31
-16.27
-22.45
-24.69
-23.70
-20.77
-17.40
-14.92
-14.31
-16.08
-20.21
-26.23
-33.21
-39.92
-45.19
-48.17
-48.63
-46.94
-43.89
-40.36
-37.02
-34.19
-31.80
-29.55
-27.21
-24.75
-22.53
-21.24
-21.69
-24.49
-29.77
-36.97
-44.91
-52.17
-57.43
-59.86
-59.22
-55.89
-50.56
-44.07
-37.14
-30.08
-22.66
-13.92
-2.46
13.10
33.46
58.13
85.38
112.68
137.51
158.05
173.60
184.46
191.50
195.59
197.30
196.70
193.38
186.57
175.41
159.19
137.78
111.85
83.04
53.68
26.25
2.80
-15.49
-28.43
-36.57
-40.77
-41.94
-40.88
-38.39
-35.35
-32.76
-31.48
-31.95
-34.01
-36.99
-40.08
-42.70
-44.83
-46.97
-49.84
-54.01
-59.56
-65.98
-72.36
-77.72
-81.21
-82.23
-80.46
-75.76
-68.12
-57.83
-45.59
-32.53
-20.13
-9.88
-2.95
-0.04
-1.39
-6.98
-16.58
-29.61
-44.84
-60.11
-72.48
-78.89
-77.30
-67.57
-51.79
-33.61
-16.85
-4.08
4.05
8.41
10.24
10.02
7.16
0.62
-9.87
-22.92
-35.55
-44.26
-46.50
-41.65
-31.17
-17.65
-3.76
8.70
18.93
26.84
32.50
35.95
37.17
36.28
33.76
30.37
26.97
24.20
22.13
20.11
16.84
10.68
0.17
-15.28
-35.01
-57.00
-78.26
-95.65
-106.76
-110.63
-107.92
-100.50
-90.61
-80.00
-69.32
-58.24
-46.13
-32.87
-19.36
-7.48
0.76
4.16
3.00
-1.06
-5.60
-8.46
-8.38
-5.21
0.39
7.53
15.50
23.94
32.73
41.83
51.10
60.19
68.63
75.92
81.67
85.61
87.52
87.17
84.16
78.10
68.63
55.79
40.14
22.82
5.42
-10.37
-23.13
-32.03
-37.07
-39.04
-39.23
-39.07
-39.62
-41.46
-44.67
-49.01
-54.14
-59.71
-65.29
-70.27
-73.85
-75.15
-73.37
-68.06
-59.19
-47.13
-32.61
-16.49
0.31
16.95
32.77
47.39
60.71
72.90
84.23
94.90
104.94
114.15
122.34
129.42
135.64
141.58
148.08
155.95
165.61
176.80
188.48
199.07
206.94
210.99
210.90
207.00
199.63
188.54
172.60
149.95
118.86
78.40
28.83
-28.54
-91.36
-156.15
-218.09
-271.35
-310.45
-332.06
-336.60
-328.36
-313.81
-298.82
-286.34
-275.74
-264.13
-248.69
-228.52
-204.86
-180.00
-155.62
-132.03
-108.46
-84.24
-59.71
-36.33
-16.02
-0.15
11.17
19.12
25.60
32.36
40.31
49.33
58.42
66.33
72.01
75.06
75.75
74.92
73.54
72.39
71.85
71.76
71.70
71.12
69.66
67.21
63.83
59.60
54.45
48.07
40.04
30.04
18.17
5.06
-8.14
-20.03
-29.30
-35.01
-36.73
-34.58
-29.10
-21.18
-11.89
-2.46
5.92
12.26
15.90
16.72
15.10
11.76
7.64
3.56
0.13
-2.38
-3.94
-4.72
-4.92
-4.71
-4.30
-3.84
-3.52
-3.43
-3.56
-3.75
-3.76
-3.45
-2.79
-1.97
-1.29
-1.06
-1.43
-2.44
-3.92
-5.61
-7.17
-8.28
-8.69
-8.29
-7.09
-5.25
-3.01
-0.58
1.85
4.13
6.13
7.69
8.65
8.96
8.67
7.98
7.10
6.21
5.37
4.62
3.96
3.48
3.32
3.63
4.44
5.65
7.04
8.30
9.25
9.75
9.83
9.57
9.06
8.34
7.45
6.36
5.04
3.50
1.80
-0.00
-1.79
-3.51
-5.07
-6.37
-7.22
-7.38
-6.63
-4.91
-2.41
0.51
3.37
5.86
7.82
9.31
10.44
11.26
11.67
11.55
10.89
9.86
8.75
7.85
7.31
7.08
7.00
6.89
6.65
6.27
5.79
5.21
4.54
3.81
3.09
2.55
2.30
2.37
2.64
2.88
2.88
2.55
1.90
1.04
0.10
-0.87
-1.82
-2.74
-3.49
-3.88
-3.65
-2.61
-0.75
1.74
4.53
7.27
9.70
11.70
13.28
14.51
15.37
15.75
15.52
14.60
13.07
11.15
9.15
7.35
5.87
4.73
3.81
3.01
2.29
1.67
1.19
0.88
0.72
0.59
0.35
-0.10
-0.79
-1.69
-2.67
-3.63
-4.47
-5.15
-5.70
-6.19
-6.70
-7.31
-8.05
-8.90
-9.77
-10.45
-10.73
-10.43
-9.50
-8.02
-6.26
-4.46
-2.83
-1.44
-0.27
0.75
1.63
2.32
2.80
3.04
3.15
3.28
3.55
4.03
4.66
5.34
5.97
6.53
7.04
7.52
7.97
8.31
8.45
8.27
7.73
6.85
5.73
4.47
3.19
2.01
0.93
-0.04
-1.03
-2.14
-3.42
-4.82
-6.06
-6.81
-6.80
-5.89
-4.19
-2.00
0.33
2.50
4.31
5.69
6.64
7.19
7.40
7.33
7.07
6.71
6.28
5.83
5.39
5.08
5.00
5.23
5.75
6.40
7.00
7.39
7.48
7.29
6.86
6.23
5.39
4.36
3.19
2.02
1.00
0.19
-0.46
-1.22
-2.39
-4.24
-6.82
-9.90
-12.99
-15.45
-16.73
-16.53
-14.91
-12.24
-9.03
-5.77
-2.81
-0.37
1.41
2.35
2.31
1.22
-0.81
-3.44
-6.18
-8.49
-10.00
-10.53
-10.13
-8.92
-7.07
-4.73
-2.04
0.83
3.69
6.34
8.58
10.30
11.46
12.11
12.37
12.40
12.34
12.28
12.23
12.14
11.91
11.54
11.13
10.87
11.01
11.72
13.01
14.76
16.73
18.65
20.27
21.38
21.81
21.50
20.45
18.79
16.79
14.71
12.83
11.32
10.23
9.55
9.18
9.04
9.03
9.08
9.10
9.00
8.68
8.02
6.97
5.51
3.74
1.88
0.23
-0.93
-1.40
-1.20
-0.53
0.31
1.10
1.75
2.32
3.00
3.93
5.16
6.61
8.07
9.37
10.34
10.96
11.28
11.41
11.47
11.49
11.43
11.21
10.78
10.15
9.47
8.93
8.70
8.85
9.33
9.97
10.61
11.10
11.38
11.46
11.36
11.15
10.85
10.47
9.96
9.23
8.18
6.73
4.86
2.63
0.23
-2.09
-4.02
-5.28
-5.67
-5.17
-3.86
-1.95
0.35
2.82
5.32
7.68
9.74
11.28
12.11
12.12
11.30
9.79
7.79
5.52
3.17
0.89
-1.24
-3.18
-4.91
-6.48
-7.90
-9.21
-10.46
-11.70
-12.98
-14.35
-15.92
-17.75
-19.89
-22.23
-24.56
-26.60
-28.09
-28.89
-29.05
-28.74
-28.16
-27.43
-26.52
-25.30
-23.64
-21.47
-18.95
-16.33
-13.94
-11.97
-10.53
-9.47
-8.54
-7.43
-5.90
-3.89
-1.50
1.02
3.44
5.57
7.36
8.87
10.14
11.17
11.86
12.08
11.67
10.49
8.47
5.57
1.92
-2.23
-6.42
-10.15
-12.97
-14.61
-15.07
-14.52
-13.21
-11.37
-9.17
-6.74
-4.25
-1.95
-0.07
1.27
2.10
2.64
3.20
4.00
5.09
6.37
7.59
8.52
8.97
8.82
8.07
6.81
5.21
3.52
1.96
0.71
-0.20
-0.87
-1.45
-2.14
-3.02
-4.15
-5.46
-6.87
-8.24
-9.41
-10.24
-10.55
-10.24
-9.20
-7.43
-4.98
-2.01
1.27
4.65
7.92
10.96
13.68
15.98
17.73
18.83
19.19
18.83
17.88
16.53
14.94
13.22
11.42
9.58
7.82
6.27
5.11
4.44
4.23
4.38
4.71
5.03
5.14
4.98
4.52
3.79
2.81
1.64
0.33
-1.00
-2.14
-2.87
-2.98
-2.40
-1.20
0.40
2.16
3.90
5.53
7.05
8.46
9.74
10.83
11.71
12.39
12.97
13.55
14.16
14.79
15.33
15.70
15.78
15.55
15.01
14.20
13.12
11.77
10.14
8.25
6.20
4.14
2.25
0.70
-0.40
-1.06
-1.41
-1.63
-1.92
-2.38
-3.01
-3.68
-4.20
-4.40
-4.20
-3.62
-2.75
-1.76
-0.73
0.27
1.23
2.13
2.92
3.55
3.94
4.05
3.88
3.46
2.85
2.14
1.45
0.85
0.43
0.16
-0.04
-0.30
-0.78
-1.57
-2.63
-3.86
-5.12
-6.29
-7.34
-8.31
-9.29
-10.35
-11.57
-12.95
-14.50
-16.16
-17.84
-19.38
-20.58
-21.24
-21.21
-20.44
-19.01
-17.08
-14.84
-12.46
-10.01
-7.52
-5.04
-2.65
-0.48
1.31
2.60
3.40
3.81
4.05
4.29
4.63
5.04
5.46
5.75
5.85
5.72
5.41
4.99
4.56
4.25
4.16
4.32
4.68
5.06
5.19
4.91
4.15
3.05
1.89
0.99
0.62
0.92
1.94
3.60
5.79
8.34
11.11
13.94
16.75
19.44
21.99
24.37
26.59
28.65
30.63
32.55
34.44
36.21
37.72
38.82
39.39
39.46
39.18
38.75
38.34
38.02
37.73
37.33
36.71
35.78
34.53
33.01
31.26
29.33
27.29
25.26
23.42
21.93
20.91
20.33
20.00
19.61
18.83
17.45
15.38
12.70
9.58
6.24
2.88
-0.30
-3.12
-5.47
-7.30
-8.73
-9.95
-11.20
-12.66
-14.36
-16.16
-17.82
-19.16
-20.14
-20.89
-21.55
-22.25
-22.99
-23.71
-24.38
-25.03
-25.74
-26.61
-27.66
-28.85
-30.11
-31.42
-32.80
-34.27
-35.83
-37.40
-38.88
-40.21
-41.37
-42.29
-42.80
-42.70
-41.77
-39.98
-37.58
-35.10
-33.19
-32.36
-32.70
-33.82
-35.03
-35.68
-35.52
-34.91
-34.70
-35.84
-38.92
-43.78
-49.55
-54.96
-58.83
-60.54
-60.15
-58.21
-55.33
-51.72
-46.89
-39.76
-29.08
-13.96
5.61
28.69
53.39
77.17
97.45
112.15
120.39
123.32
124.51
129.47
143.92
170.91
208.44
248.79
280.50
292.56
278.79
240.21
184.07
120.32
57.26
-1.24
-55.77
-109.29
-164.55
-222.51
-282.13
-341.06
-396.10
-443.32
-478.06
-495.63
-492.65
-468.31
-424.85
-366.89
-299.64
-227.22
-152.10
-75.69
0.15
72.02
135.01
183.91
214.99
227.20
222.52
205.15
180.31
152.98
126.98
104.58
86.51
72.62
62.83
58.05
60.25
71.73
93.41
123.54
157.32
188.07
209.58
218.07
212.93
196.04
170.39
138.97
104.66
70.53
39.82
15.37
-1.38
-11.15
-16.51
-20.83
-26.95
-36.50
-49.74
-65.66
-82.09
-95.72
-102.70
-99.95
-86.62
-64.90
-39.28
-14.61
6.08
22.43
35.99
48.38
59.75
68.54
72.58
70.82
64.23
55.40
47.17
41.21
37.53
35.00
32.39
29.14
25.67
23.06
22.57
25.10
30.83
39.08
48.38
56.62
61.50
61.16
54.90
43.60
29.63
16.11
5.79
-0.14
-2.41
-3.27
-5.30
-10.24
-18.37
-28.70
-39.77
-50.46
-60.33
-69.45
-77.91
-85.51
-91.92
-97.15
-101.94
-107.79
-116.27
-128.23
-143.14
-159.04
-173.12
-182.65
-185.95
-183.02
-175.67
-166.99
-160.25
-157.55
-159.00
-162.64
-165.38
-164.39
-158.33
-147.65
-133.94
-118.74
-102.57
-84.99
-65.33
-43.71
-21.34
-0.05
18.69
34.50
47.95
59.95
70.95
80.74
88.76
94.73
98.97
102.17
104.81
106.71
107.09
104.99
99.85
91.82
81.62
70.06
57.81
45.31
33.08
22.07
13.64
9.27
9.78
14.76
22.43
30.09
35.15
36.04
32.73
26.50
19.12
12.01
5.73
0.08
-5.51
-11.28
-17.00
-22.07
-25.91
-28.34
-29.75
-30.90
-32.45
-34.66
-37.16
-38.98
-38.98
-36.26
-30.56
-22.33
-12.59
-2.50
6.96
15.23
22.11
27.64
31.86
34.71
36.03
35.72
33.90
31.01
27.78
24.94
22.97
21.93
21.50
21.13
20.40
19.22
17.83
16.67
16.13
16.33
17.11
18.04
18.59
18.29
16.92
14.61
11.76
9.01
7.01
6.18
6.67
8.31
10.77
13.74
17.00
20.44
23.95
27.39
30.53
33.08
34.78
35.48
35.21
34.19
32.76
31.30
30.01
28.91
27.90
26.85
25.75
24.68
23.76
23.02
22.34
21.47
20.16
18.37
16.23
14.01
11.94
10.04
8.18
6.13
3.70
0.78
-2.59
-6.26
-10.01
-13.54
-16.49
-18.51
-19.31
-18.79
-17.08
-14.51
-11.52
-8.49
-5.69
-3.21
-1.04
0.91
2.70
4.37
5.87
7.05
7.74
7.85
7.40
6.59
5.79
5.35
5.49
6.16
7.07
7.81
8.05
7.65
6.63
5.15
3.35
1.29
-0.97
-3.46
-6.18
-9.21
-12.76
-17.21
-22.94
-30.16
-38.66
-47.64
-55.84
-61.85
-64.55
-63.53
-59.31
-53.15
-46.74
-41.67
-39.02
-39.20
-41.99
-46.80
-52.91
-59.62
-66.35
-72.58
-77.84
-81.73
-84.01
-84.57
-83.47
-80.85
-76.84
-71.50
-64.78
-56.62
-47.01
-36.17
-24.58
-12.94
-1.97
7.75
15.94
22.66
28.18
32.79
36.65
39.71
41.77
42.60
42.16
40.61
38.39
36.07
34.27
33.46
33.88
35.47
37.91
40.75
43.54
45.94
47.79
49.06
49.81
50.13
50.10
49.79
49.29
48.76
48.39
48.38
48.88
49.90
51.25
52.64
53.72
54.30
54.36
54.05
53.54
52.81
51.56
49.26
45.44
39.90
32.93
25.19
17.41
10.17
3.58
-2.69
-9.24
-16.69
-25.41
-35.35
-45.88
-55.92
-64.02
-68.76
-69.10
-64.78
-56.44
-45.42
-33.40
-21.91
-12.05
-4.30
1.27
4.88
6.88
7.63
7.51
6.99
6.61
6.82
7.98
10.15
13.04
16.16
18.86
20.64
21.29
21.00
20.21
19.48
19.22
19.54
20.40
21.59
22.93
24.19
25.18
25.64
25.35
24.26
22.58
20.76
19.39
18.93
19.58
21.24
23.61
26.30
28.97
31.33
33.14
34.16
34.21
33.12
30.82
27.34
22.89
17.94
13.20
9.54
7.80
8.44
11.37
15.77
20.27
23.25
23.24
19.13
10.40
-2.77
-19.53
-38.34
-57.25
-74.22
-87.54
-96.18
-99.83
-98.87
-94.01
-86.20
-76.43
-65.69
-54.90
-44.82
-35.89
-28.28
-21.99
-16.99
-13.38
-11.25
-10.61
-11.26
-12.82
-14.85
-16.97
-18.91
-20.53
-21.70
-22.36
-22.46
-22.07
-21.20
-19.89
-18.08
-15.68
-12.66
-9.04
-4.94
-0.44
4.45
9.74
15.48
21.61
27.99
34.44
40.83
47.08
53.14
58.83
63.86
67.90
70.77
72.65
73.96
75.23
76.73
78.30
79.44
79.53
78.22
75.54
71.78
67.18
61.70
55.02
46.75
36.82
25.56
13.62
1.71
-9.62
-20.01
-29.15
-36.67
-42.13
-45.16
-45.72
-44.23
-41.47
-38.40
-35.97
-34.85
-35.46
-37.91
-42.04
-47.56
-54.07
-61.10
-68.23
-75.04
-81.22
-86.58
-91.02
-94.48
-96.82
-97.73
-96.73
-93.28
-87.00
-77.94
-66.60
-53.82
-40.49
-27.37
-14.93
-3.42
7.05
16.46
24.85
32.28
38.83
44.52
49.29
53.07
55.75
57.36
57.95
57.56
56.15
53.62
49.91
45.17
39.72
33.89
27.87
21.56
14.75
7.27
-0.79
-9.06
-17.03
-24.23
-30.37
-35.30
-38.96
-41.23
-41.93
-41.00
-38.47
-34.58
-29.66
-24.03
-17.96
-11.69
-5.49
0.25
5.08
8.67
10.93
12.07
12.52
12.71
12.92
13.23
13.59
13.89
14.08
14.09
13.73
12.63
10.37
6.63
1.44
-4.78
-11.35
-17.59
-23.08
-27.75
-31.74
-35.20
-38.14
-40.42
-41.83
-42.22
-41.66
-40.40
-38.75
-36.95
-35.14
-33.34
-31.50
-29.60
-27.71
-25.93
-24.37
-23.05
-21.83
-20.51
-18.81
-16.43
-13.08
-8.48
-2.45
5.02
13.61
22.64
31.16
38.17
42.96
45.35
45.64
44.51
42.75
41.11
40.15
40.26
41.66
44.37
48.23
52.90
57.96
63.00
67.75
72.09
75.97
79.40
82.30
84.55
86.03
86.70
86.62
85.89
84.68
83.24
81.91
81.11
81.39
83.22
86.90
92.32
98.83
105.28
110.29
112.63
111.57
107.03
99.35
88.89
75.67
59.36
39.76
17.34
-6.33
-28.85
-47.68
-61.08
-68.68
-71.44
-71.04
-69.01
-66.29
-63.07
-59.25
-54.79
-49.93
-45.12
-40.78
-37.04
-33.81
-30.89
-28.20
-25.84
-24.05
-23.06
-22.93
-23.56
-24.75
-26.32
-28.17
-30.25
-32.51
-34.82
-36.97
-38.69
-39.70
-39.78
-38.84
-36.93
-34.30
-31.33
-28.48
-26.17
-24.69
-24.08
-24.15
-24.55
-24.87
-24.84
-24.30
-23.34
-22.22
-21.30
-20.89
-21.11
-21.86
-22.79
-23.45
-23.48
-22.73
-21.28
-19.42
-17.49
-15.74
-14.30
-13.21
-12.45
-11.98
-11.77
-11.82
-12.13
-12.68
-13.48
-14.58
-15.95
-17.57
-19.35
-21.17
-22.85
-24.18
-24.95
-25.00
-24.30
-22.94
-21.23
-19.53
-18.11
-17.11
-16.46
-15.99
-15.54
-15.02
-14.41
-13.72
-12.96
-12.08
-11.05
-9.89
-8.72
-7.65
-6.75
-5.95
-5.08
-3.94
-2.40
-0.48
1.63
3.62
5.16
6.06
6.29
6.00
5.48
4.95
4.53
4.23
3.96
3.70
3.51
3.50
3.80
4.47
5.52
6.91
8.59
10.43
12.17
13.43
13.74
12.80
10.64
7.65
4.53
1.98
0.42
-0.13
-0.06
0.11
-0.03
-0.52
-0.99
-0.88
0.23
2.34
4.88
6.87
7.38
5.98
2.98
-0.65
-3.74
-5.51
-5.89
-5.59
-5.61
-6.72
-8.97
-11.56
-13.04
-11.75
-6.32
3.84
18.16
34.53
49.38
58.28
57.31
44.63
21.60
-7.32
-35.75
-57.42
-68.08
-66.48
-54.47
-35.92
-15.56
2.37
14.83
20.57
20.27
16.25
11.78
9.93
12.49
19.38
28.84
38.33
45.56
49.13
48.70
44.71
37.95
29.38
20.12
11.46
4.77
1.16
0.95
3.56
7.80
12.44
16.82
21.01
25.43
30.33
35.25
39.08
40.46
38.51
33.29
25.80
17.56
9.95
3.68
-1.44
-6.29
-12.00
-19.39
-28.53
-38.55
-47.88
-54.70
-57.63
-56.18
-50.92
-43.21
-34.61
-26.35
-19.06
-12.93
-8.02
-4.54
-2.84
-3.15
-5.21
-8.19
-10.96
-12.55
-12.59
-11.52
-10.35
-10.27
-12.07
-15.76
-20.49
-24.90
-27.70
-28.43
-27.78
-27.37
-29.02
-33.89
-41.78
-51.24
-60.30
-67.39
-71.97
-74.66
-76.61
-78.81
-81.55
-84.27
-85.78
-84.53
-78.82
-67.11
-48.41
-22.79
8.30
42.16
75.49
105.29
129.79
148.82
163.54
175.72
186.98
198.21
209.23
218.98
225.75
227.67
223.23
211.51
192.45
166.86
136.31
103.03
69.80
39.52
14.55
-4.22
-18.05
-30.25
-45.11
-66.22
-94.60
-127.76
-160.24
-185.53
-198.63
-197.79
-184.97
-164.68
-142.08
-121.33
-104.88
-93.70
-87.88
-87.04
-90.32
-96.17
-102.53
-107.50
-110.11
-110.78
-110.96
-112.14
-114.87
-118.44
-121.42
-122.44
-120.85
-116.68
-110.35
-102.31
-92.91
-82.43
-71.11
-58.88
-45.20
-29.27
-10.56
10.46
32.01
51.43
66.24
75.24
79.01
79.62
79.51
80.49
83.02
86.28
88.78
89.07
86.32
80.61
72.87
64.77
58.45
56.21
60.12
71.44
89.78
112.36
134.19
149.32
153.08
144.18
125.51
102.90
82.32
67.09
56.66
47.73
36.86
23.08
8.61
-2.31
-5.93
-1.04
10.56
25.25
39.42
50.93
59.38
65.45
69.91
72.95
74.12
72.81
68.96
63.40
57.89
54.55
55.17
60.38
69.34
79.95
89.52
95.89
98.20
97.17
94.64
92.61
92.22
93.21
93.98
92.41
86.70
76.04
60.74
41.93
21.12
-0.07
-20.05
-37.40
-51.03
-60.45
-66.08
-69.19
-71.59
-75.03
-80.58
-88.28
-97.25
-106.07
-113.27
-117.76
-119.01
-117.08
-112.56
-106.37
-99.60
-93.26
-88.05
-84.32
-82.11
-81.18
-81.15
-81.60
-82.08
-82.23
-81.84
-80.79
-78.99
-76.36
-72.97
-69.22
-65.90
-63.98
-64.09
-66.05
-68.56
-69.67
-67.54
-61.42
-52.10
-41.71
-32.68
-26.75
-24.33
-24.48
-25.62
-26.17
-25.06
-21.85
-16.60
-9.70
-1.85
5.84
12.05
15.63
16.17
14.33
11.49
9.02
7.31
5.36
1.12
-7.22
-20.10
-35.88
-51.37
-63.28
-69.75
-71.12
-69.50
-67.51
-66.66
-66.64
-65.60
-61.28
-52.41
-39.35
-23.92
-8.37
5.66
17.81
28.75
39.51
50.61
61.58
71.07
77.50
79.81
77.91
72.65
65.16
56.04
44.96
30.91
13.10
-8.06
-30.47
-50.74
-65.34
-72.01
-70.63
-63.12
-52.56
-41.94
-33.28
-27.30
-23.79
-22.10
-21.59
-21.82
-22.42
-22.97
-22.86
-21.48
-18.37
-13.48
-7.17
-0.03
7.44
15.02
22.85
31.21
40.14
49.22
57.57
64.10
67.96
68.80
66.83
62.73
57.32
51.44
45.76
40.75
36.63
33.43
31.00
29.17
27.80
26.79
26.07
25.42
24.56
23.17
21.14
18.65
16.16
14.16
12.85
12.06
11.28
10.07
8.31
6.42
5.20
5.47
7.65
11.57
16.61
22.03
27.32
32.24
36.69
40.49
43.25
44.53
44.10
42.17
39.31
36.29
33.82
32.36
32.20
33.49
36.29
40.32
44.91
48.86
50.83
49.76
45.24
37.67
28.07
17.74
7.93
-0.42
-6.77
-11.02
-13.35
-14.14
-13.83
-12.77
-11.24
-9.54
-7.96
-6.91
-6.74
-7.57
-9.29
-11.54
-13.90
-16.14
-18.29
-20.54
-23.06
-25.90
-28.93
-31.97
-34.92
-37.73
-40.36
-42.56
-43.84
-43.65
-41.58
-37.73
-32.75
-27.68
-23.48
-20.80
-19.71
-19.91
-21.00
-22.80
-25.21
-28.24
-31.71
-35.09
-37.75
-39.03
-38.28
-34.85
-28.09
-17.76
-4.43
10.20
23.66
33.57
38.88
40.47
40.77
42.58
47.55
55.31
63.89
70.94
75.09
76.64
77.09
78.04
80.21
83.07
85.42
86.22
85.23
82.87
79.86
76.43
71.87
64.95
54.38
39.77
22.02
3.33
-13.45
-25.76
-32.24
-33.20
-30.45
-26.44
-23.31
-22.17
-23.04
-25.35
-28.53
-32.32
-36.61
-41.01
-44.55
-46.00
-44.46
-40.01
-33.85
-27.88
-23.76
-22.27
-22.98
-24.64
-25.75
-25.12
-22.07
-16.31
-7.89
2.96
15.74
29.64
43.61
56.49
67.27
75.23
79.96
81.39
79.72
75.48
69.52
62.92
56.64
51.27
46.77
42.51
37.49
30.79
21.92
10.90
-1.69
-14.92
-27.64
-38.74
-47.35
-53.15
-56.41
-57.95
-58.76
-59.57
-60.57
-61.44
-61.72
-61.19
-60.13
-59.19
-59.00
-59.73
-60.98
-61.99
-62.02
-60.74
-58.30
-55.09
-51.47
-47.56
-43.37
-38.97
-34.80
-31.56
-29.96
-30.35
-32.51
-35.70
-38.89
-41.09
-41.46
-39.39
-34.45
-26.48
-15.89
-3.84
7.98
17.81
24.68
28.89
31.98
36.01
42.69
52.65
65.53
80.28
95.55
109.67
120.43
125.07
120.83
106.10
81.37
49.56
15.09
-17.65
-45.65
-67.76
-84.08
-94.96
-100.25
-99.42
-92.25
-79.53
-63.29
-46.29
-31.14
-19.58
-12.22
-8.70
-8.05
-9.11
-10.69
-11.65
-11.00
-7.98
-2.29
5.94
16.09
27.21
38.20
48.02
55.91
61.53
65.01
66.78
67.31
66.73
64.72
60.63
53.90
44.46
32.96
20.65
8.92
-1.18
-9.22
-15.41
-20.35
-24.63
-28.73
-32.89
-37.14
-41.47
-45.84
-50.20
-54.51
-58.71
-62.74
-66.53
-70.08
-73.39
-76.47
-79.06
-80.60
-80.12
-76.62
-69.44
-58.74
-45.57
-31.60
-18.45
-7.09
2.43
10.72
18.52
26.21
33.66
40.38
46.03
50.66
54.70
58.66
62.78
66.90
70.44
72.81
73.58
72.66
70.24
66.55
61.74
55.77
48.60
40.27
31.09
21.59
12.46
4.34
-2.29
-7.19
-10.31
-11.74
-11.56
-9.85
-6.71
-2.47
2.35
7.02
10.92
13.75
15.65
17.12
18.67
20.60
22.87
25.18
27.24
28.97
30.53
32.21
34.27
36.87
40.15
44.27
49.40
55.65
62.96
70.93
78.82
85.63
90.25
91.74
89.58
83.79
74.92
63.82
51.36
38.13
24.40
10.22
-4.41
-19.33
-34.21
-48.52
-61.67
-72.99
-81.76
-87.30
-89.21
-87.56
-82.95
-76.52
-69.52
-63.06
-57.77
-53.81
-50.97
-48.92
-47.39
-46.28
-45.58
-45.24
-45.11
-44.80
-43.81
-41.64
-38.10
-33.39
-28.15
-23.18
-19.07
-15.90
-13.13
-9.86
-5.29
0.82
8.09
15.70
22.94
29.57
35.95
42.71
50.21
58.21
65.71
71.43
74.34
74.23
71.95
69.04
67.20
67.54
70.26
74.68
79.79
84.84
89.65
94.68
100.58
107.73
116.09
125.39
135.32
145.40
154.64
161.10
162.25
155.92
141.69
121.60
99.71
80.44
66.59
58.20
52.84
47.00
37.86
24.14
6.11
-15.26
-38.93
-64.02
-89.37
-113.28
-133.59
-148.33
-156.51
-158.56
-156.36
-152.54
-149.69
-149.45
-151.97
-155.83
-158.45
-156.94
-149.07
-134.03
-112.79
-87.86
-62.59
-40.14
-22.71
-11.04
-4.51
-1.67
-0.84
-0.71
-0.49
0.09
0.96
1.89
2.60
2.80
2.28
1.01
-0.76
-2.43
-3.36
-3.14
-2.04
-0.97
-1.19
-3.69
-8.54
-14.73
-20.45
-23.75
-23.23
-18.29
-9.10
3.52
18.15
32.78
45.13
53.18
56.09
54.67
51.28
48.86
49.64
54.07
60.65
66.68
69.43
67.24
59.86
48.33
34.30
19.50
5.43
-6.66
-15.86
-21.56
-23.59
-22.42
-19.26
-15.92
-14.57
-17.07
-24.33
-35.84
-49.67
-63.00
-72.92
-77.35
-75.59
-68.35
-57.28
-44.13
-30.19
-15.99
-1.62
12.83
26.89
39.82
50.89
59.92
67.26
73.51
79.10
83.95
87.47
88.77
86.98
81.47
72.04
58.82
42.34
23.36
2.76
-18.67
-40.24
-61.23
-80.77
-97.72
-110.76
-118.73
-120.97
-117.61
-109.50
-97.94
-84.20
-69.33
-54.04
-38.86
-24.31
-10.94
0.67
10.13
17.27
22.15
24.85
25.31
23.11
17.66
8.58
-3.81
-18.31
-33.11
-46.42
-57.06
-64.84
-70.37
-74.49
-77.50
-78.95
-77.84
-73.27
-65.07
-54.14
-42.17
-30.97
-21.68
-14.45
-8.66
-3.49
1.42
5.57
7.78
6.78
1.96
-6.29
-16.77
-28.01
-39.04
-49.72
-60.65
-72.53
-85.28
-97.69
-107.63
-112.85
-112.00
-105.25
-94.15
-80.96
-67.44
-54.30
-41.25
-27.71
-13.75
-0.65
9.35
13.92
11.91
3.93
-7.77
-20.08
-30.27
-36.65
-38.81
-37.21
-32.41
-24.72
-14.19
-1.06
13.96
29.51
44.02
56.13
65.23
71.52
75.61
77.96
78.45
76.43
71.14
62.30
50.52
37.17
23.95
12.24
2.72
-4.69
-10.43
-14.89
-18.05
-19.52
-18.80
-15.68
-10.43
-3.77
3.26
9.65
14.67
18.00
19.73
20.18
19.69
18.46
16.49
13.80
10.59
7.38
4.86
3.58
3.66
4.63
5.67
6.05
5.59
4.84
4.72
6.05
9.08
13.39
18.09
22.33
25.68
28.18
30.16
31.90
33.38
34.26
34.09
32.61
30.02
26.89
23.98
21.88
20.74
20.29
19.99
19.34
18.26
17.04
16.28
16.48
17.69
19.45
20.89
21.22
20.11
17.93
15.58
14.07
14.08
15.69
18.32
21.12
23.36
24.63
24.89
24.25
22.79
20.46
17.21
13.24
9.19
6.00
4.61
5.37
7.80
10.59
12.16
11.39
8.16
3.36
-1.53
-5.20
-7.11
-7.54
-7.30
-7.15
-7.36
-7.72
-7.73
-7.02
-5.58
-3.78
-2.24
-1.58
-2.23
-4.32
-7.57
-11.37
-14.91
-17.41
-18.44
-18.05
-16.72
-15.24
-14.24
-13.99
-14.26
-14.36
-13.09
-8.88
0.02
15.22
37.56
66.55
99.74
132.81
160.33
177.20
180.26
169.43
147.78
120.51
93.45
71.52
57.79
53.10
56.30
64.55
74.00
80.48
80.44
71.83
54.57
30.35
2.01
-27.50
-55.74
-81.07
-102.62
-120.25
-134.41
-145.99
-155.91
-164.46
-170.91
-173.70
-171.22
-162.77
-149.06
-131.94
-113.47
-95.13
-77.47
-60.64
-45.03
-31.67
-21.93
-16.65
-15.46
-16.75
-18.30
-18.34
-16.33
-13.04
-9.90
-8.16
-8.32
-10.18
-13.24
-17.27
-22.37
-28.41
-34.21
-37.19
-34.12
-22.72
-3.25
20.94
44.55
62.48
72.01
73.69
70.57
66.26
63.10
61.37
59.79
56.82
51.74
45.03
37.88
31.45
26.28
22.25
18.80
15.38
11.70
7.87
4.20
0.98
-1.46
-2.42
-0.35
7.02
21.73
43.99
71.05
97.25
115.82
121.60
113.30
94.01
69.57
45.90
26.45
11.31
-1.93
-16.23
-33.29
-52.65
-72.20
-89.27
-101.82
-109.15
-111.74
-110.61
-106.56
-99.78
-90.22
-78.46
-66.20
-55.83
-49.07
-45.41
-41.66
-33.13
-15.96
10.69
43.88
78.18
108.21
130.84
145.71
154.04
156.64
152.80
140.59
118.48
86.97
49.15
9.83
-26.06
-54.79
-74.39
-84.41
-85.64
-79.93
-70.19
-60.21
-53.82
-53.59
-59.65
-69.48
-78.72
-82.82
-78.56
-64.86
-42.83
-15.19
14.33
41.57
62.42
73.63
73.72
63.64
46.69
27.49
10.43
-1.85
-9.11
-13.26
-17.09
-22.75
-30.73
-39.58
-46.65
-49.34
-46.36
-38.30
-27.35
-16.32
-7.40
-1.40
2.42
5.72
10.15
16.58
24.82
33.89
42.60
50.10
56.08
60.72
64.31
67.02
68.80
69.46
68.78
66.69
63.23
58.69
53.53
48.29
43.49
39.66
37.14
36.07
36.38
37.76
39.73
41.66
42.94
43.11
42.13
40.42
38.64
37.35
36.49
35.47
33.31
29.23
22.97
14.82
5.48
-4.55
-15.15
-26.58
-39.15
-52.82
-67.24
-81.77
-95.62
-107.88
-118.05
-126.21
-133.40
-141.19
-150.67
-161.53
-171.52
-176.95
-173.88
-160.26
-136.60
-105.38
-69.21
-29.43
13.73
59.82
106.74
151.02
188.58
216.33
233.14
239.54
236.53
224.33
202.62
168.51
123.01
72.03
24.65
-10.96
-31.13
-37.50
-34.99
-28.38
-20.46
-11.95
-2.45
8.28
19.68
30.79
40.83
49.23
55.92
61.60
66.14
69.08
69.22
64.71
53.41
33.79
5.13
-31.64
-73.71
-118.12
-162.23
-205.22
-248.29
-293.22
-340.12
-386.18
-425.19
-443.01
-429.68
-381.46
-302.24
-201.62
-91.00
19.74
124.14
213.64
278.96
311.92
310.73
281.82
237.75
192.25
157.08
132.84
114.88
97.83
77.38
52.70
25.96
1.02
-17.52
-25.81
-22.72
-9.77
10.16
33.53
58.20
83.61
109.97
136.64
160.51
175.47
174.72
154.27
114.54
60.55
-0.43
-61.99
-120.83
-177.17
-232.46
-286.00
-331.75
-359.73
-360.36
-329.67
-272.12
-199.44
-125.83
-58.92
-4.61
35.91
65.52
88.16
105.66
116.65
118.73
112.15
100.53
90.20
88.46
100.34
126.64
163.67
205.36
243.99
270.99
278.63
261.65
220.94
165.30
109.36
67.71
48.25
48.30
55.25
54.42
35.86
-1.80
-52.27
-105.83
-154.52
-195.15
-229.39
-258.08
-282.88
-304.91
-324.18
-339.58
-349.19
-350.59
-340.72
-316.38
-275.02
-215.95
-140.46
-51.56
45.86
144.45
233.93
301.98
337.03
332.43
289.43
218.18
134.44
53.99
-13.04
-64.69
-105.69
-143.17
-182.40
-224.90
-268.65
-309.85
-344.60
-369.50
-381.78
-379.52
-362.18
-331.53
-291.89
-249.09
-208.68
-174.38
-147.67
-128.24
-115.25
-107.76
-104.51
-103.31
-100.54
-91.61
-71.85
-38.13
9.71
67.79
128.04
179.55
211.10
214.70
188.58
138.78
77.92
21.44
-17.40
-31.48
-21.43
5.84
40.58
73.86
99.98
116.98
125.57
127.60
125.09
119.83
113.59
108.49
106.62
109.42
117.23
129.30
144.41
161.55
180.92
204.07
233.16
269.18
310.08
350.12
380.99
394.89
388.03
362.72
326.78
290.33
261.63
244.16
236.43
234.02
232.43
229.06
223.21
214.86
203.40
187.18
164.44
134.49
98.48
58.82
18.40
-20.74
-58.00
-94.08
-130.49
-169.07
-211.56
-259.04
-310.86
-363.66
-411.03
-444.75
-457.46
-445.63
-411.33
-361.60
-305.42
-250.07
-198.60
-149.78
-100.14
-46.93
9.65
66.10
116.92
157.04
183.87
198.37
204.59
208.10
213.91
224.25
237.83
250.27
255.92
250.04
230.41
197.89
156.15
110.68
67.30
30.56
2.28
-19.02
-37.23
-56.28
-77.55
-98.49
-113.54
-116.93
-106.13
-83.62
-56.12
-31.58
-15.82
-10.72
-14.99
-26.51
-44.41
-68.91
-99.47
-132.86
-163.35
-185.37
-196.88
-201.00
-204.20
-211.88
-224.21
-234.96
-234.55
-215.42
-176.60
-124.45
-69.12
-19.15
22.27
57.41
90.75
124.84
158.18
186.06
203.37
207.62
200.25
185.86
170.00
157.07
149.07
145.93
146.34
148.59
150.67
150.11
144.00
129.74
106.31
75.56
42.84
15.87
2.01
5.02
22.80
47.80
70.01
81.38
79.35
68.32
56.79
53.02
61.08
79.23
101.58
121.37
134.11
138.79
137.80
133.90
128.42
120.43
107.43
86.97
57.86
20.63
-23.28
-71.02
-119.49
-164.87
-202.24
-226.00
-231.39
-216.12
-181.81
-134.03
-78.93
-22.01
33.98
89.41
146.71
208.76
277.36
351.96
418.52
460.68
462.77
416.95
328.08
212.16
89.28
-23.99
-118.21
-190.61
-240.94
-270.34
-280.69
-275.45
-260.26
-242.05
-226.81
-217.56
-214.16
-213.27
-211.41
-206.35
-197.86
-187.26
-176.82
-168.60
-163.69
-161.66
-159.43
-152.59
-137.00
-111.43
-78.95
-46.53
-22.35
-12.10
-16.81
-32.10
-51.01
-67.13
-77.16
-81.37
-82.61
-84.26
-88.10
-93.13
-95.64
-90.64
-73.96
-44.64
-5.89
35.51
71.62
96.78
109.69
113.28
112.39
112.05
112.98
113.93
112.83
108.39
101.27
93.41
86.93
82.85
80.75
79.24
77.22
74.81
72.95
72.35
72.03
68.91
58.89
39.10
9.94
-23.88
-55.22
-77.58
-87.66
-86.35
-77.62
-66.38
-56.60
-50.52
-48.73
-50.99
-57.12
-66.48
-77.63
-88.44
-96.64
-100.85
-100.80
-97.66
-93.47
-90.95
-91.98
-96.97
-104.58
-111.54
-113.85
-108.25
-93.93
-73.30
-52.25
-37.94
-36.33
-49.52
-74.61
-104.34
-129.30
-141.27
-132.35
-100.51
-49.35
13.86
80.85
144.51
199.66
242.79
271.49
284.56
282.35
268.20
248.19
229.28
216.45
210.24
206.96
200.89
187.68
166.61
141.40
118.09
101.84
94.30
92.99
92.93
89.27
79.75
65.14
48.54
33.51
22.19
14.51
8.71
2.71
-4.40
-11.72
-17.23
-19.00
-16.36
-10.56
-4.29
-0.57
-1.18
-6.17
-14.09
-22.84
-30.51
-35.81
-38.09
-37.32
-34.04
-29.30
-24.60
-21.42
-20.56
-21.73
-23.60
-24.58
-23.58
-20.76
-17.54
-15.93
-17.74
-24.08
-35.47
-52.45
-76.01
-107.60
-148.48
-198.55
-255.19
-313.27
-366.20
-407.97
-434.96
-446.83
-446.09
-436.80
-423.10
-408.22
-394.06
-381.27
-369.17
-355.90
-338.79
-315.22
-283.56
-244.00
-198.58
-150.47
-102.78
-57.57
-15.60
23.49
60.55
96.42
131.47
165.31
196.95
224.91
247.46
262.96
270.06
268.01
256.77
237.26
211.63
183.05
155.30
131.82
114.62
103.87
98.17
95.30
93.06
89.83
84.39
75.61
62.66
45.39
24.75
3.00
-16.91
-32.58
-42.87
-48.26
-50.15
-49.47
-45.97
-38.16
-24.13
-2.57
26.76
63.00
104.52
148.95
192.75
231.33
259.79
274.28
273.54
259.35
235.63
206.96
177.05
148.01
120.43
94.44
70.30
48.58
30.18
16.15
7.23
3.79
5.47
10.48
15.92
18.22
14.19
2.61
-15.17
-35.66
-54.54
-68.15
-74.62
-73.98
-67.57
-56.74
-42.36
-24.30
-2.08
23.84
51.60
77.88
98.85
111.98
117.17
116.48
112.71
107.78
101.66
92.81
79.64
62.42
43.76
28.26
20.58
23.15
35.14
52.66
70.35
83.98
92.15
96.57
100.57
106.84
115.39
123.12
125.13
117.46
99.09
72.57
42.38
12.02
-17.81
-49.28
-85.79
-129.41
-179.73
-234.61
-291.80
-349.87
-407.60
-462.48
-509.46
-541.47
-551.79
-536.76
-497.49
-439.67
-371.08
-299.02
-228.63
-162.46
-101.41
-45.64
5.07
51.65
96.15
141.49
190.27
243.14
297.62
348.09
387.58
409.92
412.10
