1594138963.00
64.000000
-0.00
-0.00
-0.00
-0.00
-0.00
-0.00
-0.00
-0.00
-0.00
-0.00
0.00
0.01
0.01
-0.00
-0.03
-0.05
-0.05
0.00
0.13
0.36
0.66
1.01
1.37
1.72
2.06
2.40
2.79
3.24
3.80
4.42
5.06
5.66
6.20
6.68
7.15
7.68
8.31
9.14
10.09
11.04
11.88
12.56
13.14
13.76
14.65
15.96
17.91
20.32
22.90
25.38
27.58
29.57
31.68
34.32
37.81
42.54
48.15
54.10
59.83
64.97
69.58
74.14
79.34
85.71
93.76
103.00
112.62
121.73
129.77
136.75
143.30
150.75
157.77
166.64
177.95
191.79
206.97
220.57
228.25
225.36
208.53
176.87
132.76
80.05
23.07
-34.94
-92.44
-149.16
-205.23
-260.37
-313.74
-363.87
-409.83
-450.91
-486.50
-515.74
-537.23
-549.22
-549.96
-538.37
-514.21
-478.67
-433.88
-382.45
-327.02
-269.84
-212.63
-156.66
-102.95
-52.37
-5.90
35.58
71.43
101.35
125.50
144.38
158.69
169.15
176.37
180.75
182.58
182.07
179.50
175.23
169.65
163.18
156.17
148.83
141.32
133.68
125.96
118.21
110.50
102.91
95.52
88.37
81.48
74.85
68.52
62.49
56.78
51.40
46.34
41.57
37.08
32.87
28.92
25.26
21.89
18.82
16.07
13.61
11.41
9.43
7.61
5.93
4.37
2.96
1.73
0.72
-0.08
-0.75
-1.37
-2.03
-2.78
-3.58
-4.33
-4.93
-5.36
-5.67
-6.03
-6.58
-7.42
-8.46
-9.51
-10.33
-10.79
-10.94
-11.06
-11.51
-12.53
-14.10
-15.81
-17.11
-17.70
-17.77
-18.06
-19.31
-21.63
-24.07
-24.81
-22.12
-15.36
-5.39
5.95
16.93
26.69
35.00
41.51
44.97
43.59
36.35
24.47
11.63
2.57
0.72
6.21
15.80
24.67
28.96
27.48
21.75
14.50
8.03
3.41
0.70
-0.40
0.09
2.26
5.96
10.46
14.56
17.08
17.41
15.73
12.94
10.19
8.60
8.79
10.82
14.07
17.47
19.77
19.94
17.64
13.33
8.17
3.54
0.60
-0.35
0.24
1.38
1.96
1.28
-0.77
-3.67
-6.67
-9.14
-10.89
-12.12
-13.19
-14.34
-15.43
-16.06
-15.83
-14.64
-12.83
-11.05
-9.90
-9.60
-9.91
-10.31
-10.31
-9.71
-8.76
-7.88
-7.49
-7.68
-8.23
-8.75
-8.93
-8.64
-8.06
-7.53
-7.38
-7.79
-8.65
-9.66
-10.36
-10.37
-9.45
-7.66
-5.30
-2.88
-0.94
0.09
-0.03
-1.29
-3.46
-6.15
-8.90
-11.27
-12.91
-13.60
-13.31
-12.23
-10.79
-9.47
-8.64
-8.45
-8.80
-9.36
-10.02
-10.47
-10.51
-10.08
-9.23
-8.12
-6.91
-5.81
-5.08
-4.92
-5.43
-6.51
-7.92
-9.29
-10.31
-10.94
-11.50
-12.55
-14.68
-18.15
-22.78
-27.92
-32.82
-37.06
-40.73
-44.31
-48.16
-52.03
-54.79
-54.71
-50.02
-39.52
-22.99
-1.41
22.94
46.49
64.76
73.17
68.49
50.18
21.22
-12.31
-43.05
-64.72
-74.10
-71.71
-60.92
-46.08
-30.52
-15.51
-0.39
16.19
34.88
54.88
74.21
90.75
103.53
113.29
122.09
132.22
144.88
159.64
174.68
187.79
197.44
203.35
206.35
207.66
208.08
207.71
206.09
202.50
196.29
186.91
173.91
156.74
134.74
107.37
74.39
36.26
-5.55
-48.43
-88.93
-123.58
-150.01
-167.76
-178.33
-184.53
-189.19
-194.19
-200.29
-207.68
-216.88
-228.93
-244.76
-263.99
-283.98
-300.05
-306.78
-300.01
-278.41
-243.74
-199.88
-151.13
-101.00
-51.92
-5.93
34.49
66.40
87.43
97.33
98.83
97.04
97.46
103.48
114.85
127.89
137.39
139.18
131.94
117.61
100.35
84.60
73.39
67.39
64.98
63.29
59.47
51.91
40.68
27.19
13.28
0.22
-11.62
-22.64
-33.28
-43.46
-52.49
-59.38
-63.52
-65.13
-65.21
-65.11
-65.75
-67.16
-68.36
-67.87
-64.37
-57.32
-47.24
-35.58
-24.37
-15.58
-10.30
-8.23
-7.54
-5.54
0.12
10.34
24.03
38.55
50.87
58.75
61.51
59.90
55.58
50.39
45.92
43.19
42.36
42.52
41.75
37.78
29.22
16.59
2.51
-9.29
-15.70
-15.70
-10.71
-3.73
2.35
6.06
7.88
9.55
13.00
19.20
27.69
36.92
44.86
49.77
50.50
46.59
38.10
25.54
10.06
-6.41
-21.11
-31.11
-34.31
-30.41
-21.41
-11.02
-3.27
-0.83
-4.01
-10.74
-17.73
-21.95
-21.88
-17.85
-11.58
-5.21
-0.39
2.21
2.91
2.59
2.33
2.98
4.94
8.11
11.86
15.18
16.91
16.11
12.33
5.92
-2.00
-9.74
-15.54
-18.08
-16.89
-12.53
-6.40
-0.25
4.46
7.04
7.73
7.39
6.90
6.64
6.35
5.46
3.64
1.25
-0.61
-0.56
2.38
8.10
15.26
21.61
24.92
23.81
18.43
10.36
2.00
-4.41
-7.65
-7.77
-5.90
-3.48
-1.59
-0.52
0.25
1.60
4.29
8.55
13.89
19.21
23.10
24.28
22.03
16.48
8.67
0.33
-6.56
-10.33
-10.16
-6.29
0.16
7.57
14.35
19.30
21.86
21.99
20.05
16.70
12.72
8.90
5.96
4.35
4.15
5.13
7.06
9.98
14.52
21.63
32.06
45.64
60.93
75.56
86.99
93.40
94.13
89.51
80.28
67.14
50.62
31.33
10.21
-11.54
-32.80
-52.97
-71.81
-88.85
-102.73
-111.00
-110.98
-101.22
-82.97
-60.37
-39.43
-26.06
-23.97
-33.62
-52.25
-75.09
-96.83
-113.01
-120.80
-119.23
-109.07
-92.35
-71.85
-50.43
-30.47
-13.35
0.78
12.85
24.41
37.04
51.65
68.13
85.20
100.75
112.49
118.57
118.12
111.53
100.30
86.58
72.62
60.22
50.40
43.21
37.89
33.21
27.95
21.25
12.89
3.18
-7.17
-17.32
-26.49
-34.08
-39.69
-43.19
-44.75
-44.93
-44.58
-44.67
-46.01
-49.02
-53.55
-58.95
-64.23
-68.45
-70.88
-71.19
-69.34
-65.49
-59.81
-52.48
-43.76
-34.09
-24.20
-14.95
-7.23
-1.59
1.87
3.60
4.29
4.67
5.16
5.81
6.37
6.47
5.91
4.77
3.41
2.29
1.85
2.23
3.26
4.54
5.65
6.35
6.68
6.90
7.30
8.00
8.83
9.47
9.59
9.04
7.94
6.54
5.14
3.92
2.90
2.01
1.15
0.29
-0.52
-1.08
-1.22
-0.82
0.00
0.93
1.56
1.57
0.87
-0.32
-1.58
-2.47
-2.80
-2.63
-2.26
-2.03
-2.12
-2.54
-3.10
-3.62
-4.03
-4.42
-4.97
-5.82
-6.97
-8.23
-9.32
-9.99
-10.15
-9.89
-9.39
-8.82
-8.21
-7.49
-6.47
-5.02
-3.20
-1.23
0.56
1.90
2.68
3.05
3.32
3.87
4.90
6.35
7.89
9.10
9.66
9.50
8.82
7.98
7.39
7.36
8.06
9.48
11.45
13.63
15.52
16.62
16.51
15.04
12.42
9.19
6.06
3.67
2.36
2.10
2.54
3.21
3.70
3.87
3.81
3.71
3.74
3.89
3.94
3.60
2.56
0.70
-1.80
-4.55
-6.94
-8.35
-8.35
-6.80
-3.97
-0.48
2.83
5.21
6.25
6.08
5.34
4.99
5.94
8.80
13.72
20.41
28.17
35.92
42.33
45.98
45.81
41.52
33.89
24.63
15.83
9.08
4.94
2.78
1.35
-0.48
-3.09
-6.05
-8.51
-9.71
-9.42
-7.94
-5.82
-3.54
-1.34
0.82
3.03
5.21
7.08
8.15
8.06
6.73
4.59
2.51
1.53
2.57
5.93
11.16
17.18
22.70
26.82
29.42
31.30
33.75
37.83
43.76
50.62
56.64
60.07
60.12
57.60
54.92
55.36
61.83
75.52
95.17
117.00
135.65
145.68
143.06
126.13
95.88
55.80
11.27
-31.39
-66.51
-90.77
-104.53
-111.99
-119.74
-134.11
-158.74
-193.11
-233.01
-272.24
-304.76
-326.41
-335.64
-333.40
-322.48
-306.65
-289.59
-273.88
-260.35
-247.93
-234.30
-216.97
-193.83
-163.54
-125.57
-80.44
-30.34
20.32
65.24
97.70
112.94
110.11
92.97
68.81
46.05
31.39
27.80
33.83
44.85
55.40
61.89
64.12
65.16
69.38
79.73
95.87
114.18
129.79
139.27
142.33
141.34
139.37
137.96
136.37
132.63
125.41
115.34
104.78
96.27
90.84
87.49
83.93
78.33
70.60
62.55
56.98
56.16
60.64
69.02
78.53
86.09
89.41
87.66
81.79
74.48
69.78
72.44
86.63
114.28
153.66
199.05
242.18
274.95
292.40
294.25
284.23
267.69
248.73
228.69
206.47
180.43
150.13
116.84
82.67
48.79
14.41
-22.98
-66.11
-115.80
-169.83
-223.15
-269.80
-305.27
-328.51
-342.20
-351.21
-359.92
-370.00
-379.32
-383.07
-375.95
-354.67
-319.29
-273.28
-222.18
-171.91
-127.14
-90.14
-60.09
-33.41
-5.13
28.54
67.72
107.87
140.90
158.52
155.81
133.37
96.98
55.10
15.99
-14.71
-34.80
-44.81
-46.79
-43.40
-37.63
-32.96
-32.47
-37.70
-47.60
-58.20
-64.13
-60.88
-47.31
-26.37
-4.19
13.14
22.23
23.22
18.89
12.37
5.67
-0.65
-4.47
-3.76
3.04
15.98
32.88
49.88
62.85
69.45
69.82
66.47
62.49
60.45
62.87
69.72
80.31
93.53
108.13
122.06
132.82
137.97
136.12
127.53
113.73
97.21
78.13
58.45
40.10
24.69
13.20
5.96
2.56
1.59
1.23
-0.37
-3.90
-9.14
-14.64
-18.14
-17.23
-10.19
3.07
20.76
39.33
54.50
61.88
58.06
41.51
13.22
-23.20
-62.01
-96.59
-121.20
-132.39
-129.90
-116.16
-94.97
-70.46
-46.77
-28.25
-19.20
-22.92
-39.71
-65.81
-94.05
-116.40
-127.27
-125.80
-115.36
-100.79
-85.46
-70.08
-54.07
-37.92
-24.49
-17.76
-19.76
-28.06
-36.03
-36.21
-24.50
-2.55
23.80
48.82
70.80
92.22
117.07
146.74
177.76
203.44
216.89
214.57
197.82
171.70
141.25
109.46
76.18
38.68
-5.52
-57.25
-114.45
-171.10
-218.01
-246.66
-251.15
-230.08
-187.07
-128.13
-60.59
7.59
68.82
116.80
145.71
153.76
143.76
117.06
80.89
46.66
22.16
6.51
-6.55
-24.00
-48.70
-76.24
-100.50
-115.61
-118.50
-110.86
-98.52
-79.42
-61.14
-51.36
-50.32
-48.47
-33.96
0.71
51.88
107.66
154.58
179.07
175.39
146.66
102.59
55.67
16.57
-9.61
-24.24
-33.12
-44.68
-61.92
-81.98
-97.82
-101.87
-89.61
-61.47
-22.40
24.16
67.42
106.29
140.18
166.16
179.64
177.17
159.79
132.42
103.12
78.85
65.98
66.55
77.44
92.79
106.36
113.66
110.47
95.47
69.76
38.59
7.35
-22.24
-51.18
-81.26
-112.46
-144.78
-176.02
-203.96
-226.19
-230.28
-210.31
-171.63
-142.80
-134.87
-150.22
-178.97
-211.34
-236.07
-243.69
-231.23
-201.78
-151.10
-86.17
-23.86
22.41
50.08
66.06
78.40
89.67
98.26
102.36
102.01
98.22
92.75
85.58
75.41
61.62
46.12
32.55
26.48
31.37
45.46
62.66
74.84
76.11
65.98
49.09
32.49
22.14
19.55
22.13
26.25
29.75
32.46
36.17
43.17
54.67
69.69
84.85
96.13
100.78
98.14
89.57
77.65
64.98
53.39
44.04
37.40
33.82
33.52
36.10
40.26
44.07
45.51
43.18
37.02
28.37
19.55
13.35
12.06
16.74
26.77
39.87
52.98
63.81
72.14
80.21
91.46
107.99
128.64
148.96
163.13
166.70
158.60
141.08
118.24
93.85
69.71
45.88
22.14
-0.96
-21.83
-38.63
-50.38
-56.86
-58.18
-55.68
-51.91
-50.23
-54.01
-64.87
-81.40
-99.62
-113.39
-116.44
-107.54
-91.41
-76.76
-73.12
-87.32
-121.07
-171.80
-230.97
-284.45
-320.12
-330.48
-312.42
-267.90
-203.56
-130.11
-63.53
-18.26
-1.49
-18.00
-67.82
-142.94
-228.94
-308.61
-367.54
-401.43
-411.37
-397.75
-366.77
-326.72
-282.29
-234.14
-180.16
-97.81
14.45
117.04
196.26
253.63
287.75
299.67
291.59
271.35
249.01
227.22
205.12
185.51
168.76
155.01
146.37
144.25
147.31
150.52
144.40
122.33
88.10
48.12
10.48
-15.44
-22.71
-9.94
16.84
44.34
59.29
55.48
32.29
-5.15
-47.16
-81.73
-98.76
-92.98
-65.82
-23.29
26.50
72.72
104.12
112.84
96.15
57.21
4.00
-52.97
-103.23
-138.51
-154.82
-151.92
-131.05
-95.19
-49.58
-1.50
40.98
70.94
84.86
84.44
76.11
69.58
72.19
85.33
104.74
123.78
136.76
141.35
139.95
138.21
143.68
160.26
185.83
213.76
236.50
248.00
245.11
229.08
193.81
142.43
86.52
38.92
4.97
-18.00
-36.41
-56.83
-81.82
-109.98
-136.39
-157.11
-170.64
-177.79
-174.02
-151.02
-109.51
-59.21
-12.19
26.15
56.73
82.02
101.75
112.11
107.15
82.81
41.01
-9.32
-55.03
-85.66
-97.64
-94.23
-82.12
-70.97
-63.21
-57.97
-52.39
-43.51
-30.76
-16.16
-2.59
8.09
15.47
19.96
22.33
23.44
23.70
22.66
19.15
11.82
-0.54
-15.69
-32.89
-52.25
-74.10
-98.65
-125.85
-155.45
-186.78
-219.13
-252.05
-285.87
-321.53
-360.33
-403.96
-453.87
-510.21
-570.24
-627.55
-672.85
-696.82
-693.20
-661.23
-606.06
-536.50
-461.77
-388.43
-319.42
-254.96
-194.68
-138.87
-88.63
-44.98
-7.82
24.32
53.56
81.51
108.39
133.00
153.40
168.17
177.34
182.59
186.67
192.36
201.24
213.07
225.82
236.62
243.12
244.51
241.99
238.23
236.21
237.85
243.22
250.52
257.16
261.19
262.45
262.82
265.43
273.12
287.03
306.05
327.22
346.87
361.90
370.57
372.82
369.95
363.99
356.95
349.99
343.01
334.57
322.43
304.57
279.99
249.52
215.73
182.51
154.26
134.44
123.98
120.18
117.04
107.63
87.87
59.79
31.80
15.01
17.22
37.75
66.60
88.75
91.64
71.47
34.90
-4.85
-34.99
-49.24
-49.95
-45.62
-45.71
-55.86
-75.58
-99.16
-118.85
-128.39
-125.52
-111.98
-91.87
-69.02
-44.96
-18.78
11.26
45.31
80.20
109.74
126.85
126.54
108.02
74.51
30.89
-19.12
-74.31
-135.13
-200.81
-266.72
-323.97
-361.79
-371.32
-348.98
-297.82
-226.31
-145.81
-67.86
-2.22
44.23
68.22
70.48
55.63
31.13
5.44
-14.02
-22.14
-16.16
5.17
42.11
93.45
155.61
221.93
283.37
330.82
357.87
362.66
347.85
318.92
281.75
240.89
199.04
157.50
116.90
77.65
39.86
3.21
-32.92
-69.15
-105.69
-142.56
-179.91
-218.06
-256.93
-295.05
-328.86
-353.17
-362.73
-354.08
-326.80
-283.40
-228.23
-166.36
-102.71
-41.90
11.68
54.24
83.28
98.38
101.41
95.73
84.92
71.47
56.00
37.32
12.97
-19.58
-61.25
-109.72
-158.80
-199.10
-220.75
-217.07
-187.47
-138.18
-80.21
-25.59
16.34
41.16
49.58
46.01
36.54
27.31
23.33
27.84
41.91
64.63
93.09
122.96
149.30
167.67
174.92
169.85
153.67
130.14
104.95
83.93
71.18
67.69
71.39
78.05
82.48
79.86
67.12
44.38
14.70
-16.71
-43.79
-61.31
-66.87
-62.41
-54.11
-50.35
-57.05
-76.86
-108.24
-145.33
-179.04
-199.95
-201.96
-184.68
-152.67
-109.85
-61.01
-11.37
34.56
74.41
107.69
134.62
154.85
168.50
180.86
194.72
206.99
210.28
199.03
173.41
140.39
110.82
97.61
117.49
178.11
272.73
383.02
488.24
571.90
625.37
646.86
597.56
465.87
277.44
81.03
-85.71
-211.08
-301.33
-364.39
-413.62
-454.18
-479.89
-485.58
-473.03
-449.83
-418.72
-382.65
-339.13
-290.71
-241.42
-189.87
-131.57
-68.43
-11.53
27.61
41.49
30.28
0.45
-37.61
-71.96
-96.40
-112.45
-124.85
-135.16
-140.74
-134.94
-111.59
-69.54
-13.56
46.14
97.66
133.04
151.62
157.34
149.79
131.10
105.11
76.16
47.24
19.74
-5.40
-27.71
-49.77
-75.19
-104.37
-134.32
-159.59
-173.83
-172.58
-155.25
-117.67
-69.96
-26.46
3.41
18.08
22.60
24.60
30.27
42.20
58.43
71.71
74.55
62.44
35.20
-2.23
-40.59
-70.40
-84.88
-81.60
-63.73
-35.60
-0.33
39.95
82.79
123.94
157.53
178.67
185.57
179.99
167.75
155.76
148.45
146.57
147.73
146.77
140.86
129.49
112.93
91.51
64.72
31.70
-7.11
-48.70
-87.62
-117.27
-132.95
-134.04
-124.01
-108.80
-94.13
-83.17
-75.75
-69.09
-59.85
-46.72
-31.65
-19.20
-14.44
-20.14
-34.83
-53.28
-68.83
-76.72
-76.90
-74.21
-75.76
-86.99
-108.56
-136.17
-163.31
-184.95
-199.99
-211.08
-221.66
-232.62
-240.85
-240.33
-225.19
-193.06
-146.94
-94.76
-46.97
-12.73
3.69
4.53
-2.86
-9.77
-10.35
-3.68
7.22
18.91
31.28
48.25
74.50
110.43
149.37
179.64
190.87
180.53
155.55
128.94
112.43
110.25
117.26
122.60
116.30
94.31
59.89
20.10
-16.51
-42.03
-50.05
-36.64
-1.34
51.96
114.83
176.12
222.81
245.02
238.99
207.46
157.27
96.77
34.59
-21.48
-64.42
-92.13
-106.25
-111.18
-112.60
-116.40
-127.00
-145.50
-170.18
-183.71
-172.67
-135.71
-84.71
-34.08
7.57
37.69
56.95
63.56
59.42
43.80
16.65
-19.39
-58.81
-95.60
-126.18
-142.62
-142.55
-127.06
-102.53
-76.53
-54.32
-36.92
-22.31
-7.92
7.39
21.41
31.18
33.48
28.37
20.24
15.97
20.79
34.66
51.60
61.38
55.48
30.52
-9.31
-53.66
-90.37
-110.46
-111.36
-96.91
-75.55
-56.14
-45.37
-45.72
-55.27
-68.82
-80.06
-84.03
-79.12
-67.85
-55.02
-45.15
-39.80
-36.73
-31.52
-20.68
-4.12
14.39
29.16
35.91
33.88
25.84
15.78
6.08
-3.96
-17.34
-37.02
-63.35
-92.90
-119.29
-135.28
-135.09
-116.03
-79.50
-31.31
19.00
60.11
81.99
79.42
54.34
15.82
-22.69
-47.94
-51.42
-31.87
5.13
49.94
92.33
124.40
142.21
145.94
139.56
129.92
125.53
134.64
162.64
209.40
268.35
327.94
375.62
402.58
406.90
393.41
370.20
344.06
317.37
288.01
252.09
207.11
153.44
93.36
29.12
-38.08
-107.11
-175.04
-236.65
-286.25
-320.95
-342.64
-357.07
-370.26
-384.48
-396.73
-400.48
-389.88
-363.48
-325.19
-281.85
-239.59
-200.95
-164.60
-127.12
-85.39
-37.95
15.30
73.71
136.31
201.24
264.97
322.17
367.15
396.33
410.45
414.80
416.84
422.35
432.34
442.66
446.29
437.28
413.75
378.41
336.71
293.73
252.07
211.72
171.82
132.45
95.34
63.15
37.61
18.36
2.54
-14.08
-35.30
-62.52
-94.17
-126.66
-156.15
-180.28
-198.22
-211.13
-221.75
-233.36
-248.58
-268.94
-294.59
-323.76
-352.33
-372.78
-377.38
-361.99
-328.03
-281.64
-231.39
-185.62
-150.06
-127.32
-115.37
-112.11
-118.12
-135.63
-163.79
-196.10
-221.61
-228.81
-210.03
-160.58
-82.17
16.38
121.93
222.27
308.43
374.79
418.43
421.01
375.16
296.02
212.91
146.75
101.93
72.51
51.26
34.07
18.83
8.79
6.60
10.64
14.11
11.91
2.24
-13.11
-30.10
-46.43
-56.58
-55.59
-42.65
-22.65
-2.39
11.86
16.36
14.89
6.90
-3.09
-11.60
-15.18
-16.27
-17.16
-22.19
-35.04
-57.95
-95.53
-146.36
-203.61
-257.98
-301.68
-328.72
-335.77
-322.35
-270.43
-186.31
-94.23
-17.84
33.91
62.98
75.29
76.66
72.67
68.69
65.75
66.42
73.66
87.63
103.89
114.62
112.16
92.55
57.68
12.28
-33.89
-69.59
-88.35
-92.50
-91.66
-97.31
-117.12
-151.90
-195.30
-236.19
-262.13
-265.25
-245.68
-210.05
-166.91
-122.54
-78.93
-35.72
8.13
52.49
95.19
133.10
164.32
190.11
214.22
240.78
272.19
308.53
348.57
390.09
430.48
466.22
493.05
506.46
502.67
480.24
440.56
387.89
328.25
267.80
210.74
159.31
114.04
73.64
35.71
-3.38
-47.52
-99.81
-161.18
-230.20
-301.28
-364.26
-406.66
-417.79
-393.62
-339.31
-268.22
-197.15
-141.45
-109.04
-94.99
-90.33
-84.36
-72.61
-60.24
-59.65
-73.90
-99.40
-128.09
-151.34
-158.62
-145.77
-115.09
-72.88
-25.89
21.67
67.65
111.91
154.87
195.29
229.09
250.41
253.62
235.27
195.36
136.06
62.48
-17.21
-92.40
-152.07
-186.88
-191.53
-166.33
-117.44
-56.44
3.61
51.50
79.76
85.08
68.59
35.51
-5.55
-44.11
-71.74
-83.42
-79.25
-64.70
-48.88
-39.94
-40.56
-46.28
-48.02
-39.18
-18.35
9.61
35.80
51.52
52.75
41.69
24.41
6.52
-12.26
-34.93
-63.95
-97.93
-131.40
-157.40
-170.69
-170.26
-146.53
-101.30
-47.06
2.17
41.90
75.54
105.87
131.26
146.64
146.06
125.28
87.17
40.07
-5.82
-41.92
-61.33
-62.99
-53.31
-42.91
-46.07
-65.16
-96.98
-136.01
-172.21
-197.52
-206.53
-197.12
-170.43
-130.88
-83.53
-33.98
12.94
53.27
83.28
100.54
105.38
101.72
96.10
96.40
108.03
132.36
166.26
202.79
233.79
252.85
256.98
246.40
224.05
193.60
158.92
123.57
89.69
57.35
24.10
-14.34
-61.84
-118.67
-179.84
-235.09
-272.11
-281.67
-261.60
-217.90
-162.09
-106.44
-59.36
-23.20
5.05
30.84
58.44
88.51
117.59
139.66
148.68
140.89
116.10
77.59
30.99
-17.41
-61.90
-98.22
-123.91
-138.42
-143.11
-140.76
-134.42
-126.17
-116.23
-103.35
-86.46
-66.08
-44.67
-25.23
-9.53
3.12
15.39
30.10
48.49
69.29
89.45
106.03
117.91
126.29
133.96
143.35
154.96
166.62
174.23
173.41
161.48
139.11
110.89
84.43
67.73
66.20
80.26
104.96
131.79
151.51
156.98
144.47
113.71
67.16
9.60
-51.92
-108.40
-150.26
-170.01
-165.22
-140.20
-104.92
-71.60
-50.34
-46.17
-58.82
-84.50
-118.45
-156.27
-193.86
-227.02
-251.35
-263.46
-262.62
-251.60
-236.18
-223.41
-219.04
-225.65
-241.81
-262.71
-281.54
-291.89
-289.50
-272.93
-243.49
-204.39
-159.83
-114.40
-72.83
-39.74
-19.33
-14.13
-23.56
-43.04
-64.94
-81.16
-86.11
-78.68
-61.56
-39.93
-18.72
-0.70
14.20
27.73
41.51
56.17
71.86
90.79
115.78
149.06
191.07
240.39
294.30
349.71
403.91
454.80
502.94
546.67
581.28
601.24
603.65
589.76
563.68
529.71
489.90
447.77
403.41
355.34
304.47
257.04
222.31
206.99
210.67
225.08
243.52
258.09
262.44
254.43
237.47
217.91
201.04
188.85
145.68
59.31
-55.07
-167.92
-259.00
-323.09
-362.54
-380.92
-382.55
-373.23
-354.64
-331.15
-309.55
-296.02
-292.23
-294.94
-298.37
-297.76
-289.91
-269.23
-234.84
-191.83
-148.97
-113.95
-91.67
-81.86
-80.41
-82.47
-82.38
-78.32
-72.06
-66.83
-64.06
-62.70
-60.42
-55.54
-47.73
-36.34
-22.22
-7.76
3.05
6.28
-0.21
-15.30
-34.39
-50.49
-56.55
-48.69
-27.51
1.51
30.24
50.61
57.08
47.90
25.89
-2.13
-27.29
-41.22
-39.58
-23.39
1.82
28.32
49.37
62.01
67.18
66.76
65.23
65.77
69.49
75.62
82.71
86.82
83.67
69.82
44.33
9.93
-28.01
-63.23
-90.67
-108.07
-116.85
-119.94
-120.88
-122.83
-128.29
-139.14
-155.99
-178.20
-199.91
-217.61
-230.50
-240.95
-252.27
-265.74
-278.53
-284.22
-275.95
-250.07
-208.58
-156.61
-99.42
-39.89
20.90
80.98
135.47
176.79
198.65
200.17
188.30
174.61
169.58
177.43
194.82
214.52
230.31
241.89
254.46
274.80
305.07
339.73
367.63
378.18
367.66
340.46
307.30
279.06
260.73
248.45
232.23
202.22
154.53
93.03
25.31
-40.66
-99.91
-151.20
-195.99
-236.19
-271.93
-301.07
-312.33
-297.94
-259.92
-209.86
-160.88
-121.10
-92.70
-73.58
-59.69
-47.06
-34.53
-22.82
-13.14
-6.02
-1.25
1.98
4.91
8.93
15.09
22.51
29.56
34.65
37.25
37.64
36.45
34.43
32.34
30.70
28.69
25.68
21.15
15.46
9.54
4.43
0.97
-0.26
0.90
3.90
8.05
12.22
16.14
20.31
25.61
32.80
42.23
53.67
66.23
78.78
89.50
97.55
103.15
107.34
111.31
115.70
119.99
122.05
122.33
118.69
109.80
95.86
78.56
60.13
42.47
26.44
11.55
-4.11
-25.58
-56.86
-99.21
-150.46
-205.21
-255.16
-290.34
-301.62
-283.77
-241.44
-183.87
-121.89
-65.90
-24.35
-1.69
2.70
-6.46
-22.86
-46.28
-75.63
-107.44
-137.80
-165.38
-191.38
-217.75
-245.54
-274.13
-307.74
-345.57
-381.07
-406.52
-418.52
-418.63
-410.52
-397.50
-341.09
-233.66
-101.91
16.64
102.03
153.87
180.86
193.27
199.51
204.21
202.23
190.30
170.79
149.67
131.94
120.05
114.65
115.71
121.87
126.22
124.93
119.08
112.30
107.39
104.91
104.19
104.71
105.25
101.36
90.73
74.26
54.55
34.13
14.15
-8.22
-31.33
-53.31
-74.30
-94.30
-112.54
-128.19
-140.14
-148.49
-153.60
-154.84
-152.28
-146.58
-138.21
-127.54
-115.38
-101.77
-87.57
-73.43
-59.12
-44.02
-26.50
-3.42
30.12
69.85
113.97
158.80
199.25
229.98
246.62
247.96
236.54
217.25
195.13
175.66
162.88
161.19
173.75
200.50
236.91
274.59
304.10
318.76
318.57
308.79
298.10
291.72
288.30
282.05
268.23
247.20
224.03
204.85
191.20
180.79
167.22
144.67
112.56
76.91
46.38
26.13
14.69
-7.77
-50.86
-108.05
-161.26
-194.98
-205.21
-198.95
-188.73
-185.25
-192.25
-204.60
-212.23
-206.57
-184.03
-146.31
-98.89
-48.85
-2.66
35.53
65.73
86.58
95.92
91.75
73.58
43.41
5.53
-34.57
-71.63
-100.82
-119.95
-130.08
-134.84
-138.81
-145.70
-157.23
-173.02
-191.14
-208.78
-223.68
-234.23
-239.23
-237.82
-229.68
-215.57
-197.46
-177.65
-156.98
-133.85
-104.62
-66.10
-18.90
30.58
70.98
90.25
81.23
45.77
-5.09
-54.94
-87.95
-93.96
-70.98
-24.55
35.18
96.30
147.48
179.42
186.71
169.54
134.55
92.75
55.49
30.81
21.58
26.21
40.96
61.95
85.22
106.31
119.31
117.51
96.20
55.42
0.44
-59.86
-115.48
-157.19
-176.50
-168.64
-135.33
-86.01
-35.54
0.32
10.34
-8.28
-49.65
-99.96
-146.60
-184.04
-213.43
-237.14
-254.43
-261.33
-253.61
-229.97
-189.15
-135.05
-77.10
-25.87
13.17
41.41
64.51
88.56
118.04
161.61
224.53
304.69
393.82
482.55
563.03
628.53
673.51
657.12
561.36
409.64
251.41
123.27
34.72
-21.46
-56.78
-80.46
-98.09
-106.47
-103.33
-92.31
-81.39
-76.62
-79.12
-86.67
-96.27
-106.79
-113.49
-114.43
-112.69
-114.22
-122.17
-134.05
-143.16
-142.20
-127.56
-98.32
-60.02
-23.62
-0.79
1.83
-14.93
-44.51
-78.75
-109.54
-129.16
-134.33
-127.07
-112.99
-98.94
-90.21
-89.16
-90.26
-88.00
-78.40
-62.35
-44.00
-26.86
-12.72
-1.16
9.45
20.44
31.19
40.92
48.54
54.81
63.09
76.10
94.27
114.66
131.60
138.25
129.67
104.48
60.53
3.39
-58.36
-115.19
-158.01
-179.47
-175.46
-145.98
-96.15
-35.55
23.87
69.26
91.09
86.92
61.83
26.54
-5.53
-22.38
-16.32
13.94
61.83
115.92
165.14
200.71
217.87
216.82
202.09
181.58
163.39
151.70
146.34
145.07
142.71
132.71
110.57
76.27
36.69
2.72
-16.56
-17.29
-0.66
23.79
40.47
34.25
-5.09
-70.17
-133.22
-165.87
-168.27
-151.24
-129.29
-115.96
-113.73
-123.45
-141.58
-163.30
-187.27
-214.82
-244.31
-271.12
-287.92
-286.30
-261.53
-214.89
-153.78
-90.48
-36.03
6.71
41.50
76.24
113.14
152.03
187.22
211.43
217.91
204.01
173.59
133.49
86.27
38.42
-3.59
-41.55
-74.26
-97.69
-107.05
-99.04
-74.44
-38.05
4.41
48.46
92.49
138.62
188.19
238.59
282.82
311.42
316.58
296.10
253.69
196.97
135.08
73.88
13.90
-48.42
-117.05
-192.59
-270.04
-340.26
-393.45
-422.36
-425.28
-405.92
-370.84
-326.69
-278.27
-229.11
-183.31
-146.73
-126.00
-126.64
-150.53
-194.44
-250.49
-308.20
-357.05
-388.59
-397.69
-383.01
-346.85
-294.55
-233.05
-169.15
-107.81
-51.11
1.86
54.02
109.25
171.14
241.55
319.38
399.81
474.71
534.51
571.35
581.79
568.18
537.88
500.44
464.28
434.00
409.13
384.71
353.69
310.07
252.14
184.43
117.40
64.53
37.47
40.81
69.11
107.85
138.68
146.82
127.13
86.09
38.60
1.23
-14.62
-6.38
20.58
57.01
94.43
127.42
153.07
168.81
170.67
153.88
115.47
56.68
-16.44
-95.01
-170.88
-239.97
-303.30
-365.30
-430.16
-498.28
-564.66
-620.02
-654.23
-660.22
-636.56
-587.64
-521.43
-446.33
-368.91
-293.25
-221.72
-156.16
-98.20
-48.53
-5.82
33.86
76.13
126.28
186.72
255.19
324.69
385.25
427.36
445.44
439.80
416.64
385.36
354.74
329.60
309.21
288.10
258.83
215.55
157.04
88.27
19.75
-35.54
-66.75
-69.75
-49.50
-18.98
5.60
11.38
-6.24
-42.25
-84.77
-120.34
-139.03
-136.91
-115.71
-80.58
-37.87
6.37
46.89
79.32
100.49
108.57
103.68
87.69
63.89
36.26
8.59
-16.58
-38.82
-60.14
-84.12
-113.99
-150.07
-188.11
-219.68
-234.87
-226.47
-193.60
-142.91
-86.51
-37.57
-5.61
6.99
5.20
-1.19
-1.71
10.78
37.87
75.67
117.03
154.68
183.86
203.39
215.14
222.31
227.44
231.32
233.18
231.95
227.54
221.31
214.91
208.26
198.47
180.68
151.13
110.74
66.87
31.21
14.94
22.89
50.48
85.11
111.21
116.21
94.18
46.20
-21.71
-101.01
-182.09
-254.68
-308.43
-334.41
-327.49
-288.56
-225.20
-150.31
-79.16
-25.79
-0.02
-5.81
-41.14
-98.92
-168.93
-240.45
-304.96
-357.77
-398.35
-428.49
-449.90
-462.44
-463.50
-449.27
-416.92
-366.71
-302.92
-233.08
-165.66
-107.31
-60.89
-24.88
5.60
36.91
74.80
122.56
179.81
242.25
302.68
352.98
386.59
400.55
396.61
380.53
359.96
341.82
330.30
326.11
327.00
329.19
328.21
319.56
299.36
265.64
220.01
168.60
120.70
85.28
66.67
61.44
59.06
46.32
13.66
-39.80
-105.10
-166.94
-209.91
-224.47
-209.99
-173.68
-126.82
-80.31
-41.68
-14.38
1.31
6.69
3.20
-8.18
-26.74
-51.64
-81.47
-114.19
-147.76
-181.00
-214.48
-250.25
-290.31
-334.27
-377.66
-412.20
-428.23
-418.71
-382.26
-323.94
-253.17
-180.13
-112.44
-53.67
-3.71
39.80
80.12
120.31
162.57
207.46
253.38
296.55
331.83
354.46
361.71
353.88
334.30
308.16
280.81
256.57
237.95
225.61
218.55
214.45
209.72
199.77
180.09
148.17
105.41
57.85
14.58
-15.89
-29.80
-30.42
-26.77
-29.41
-45.18
-73.77
-107.84
-136.64
-150.87
-146.39
-124.96
-92.22
-54.69
-17.28
17.10
46.42
68.09
78.38
73.00
48.96
6.33
-50.82
-115.13
-178.16
-233.28
-277.56
-312.01
-339.62
-362.48
-379.56
-386.47
-377.12
-346.75
-294.67
-225.40
-147.85
-72.83
-10.03
34.70
60.74
72.59
78.30
86.83
105.08
135.50
175.24
217.25
252.87
274.90
279.95
269.23
247.64
221.90
198.11
180.34
170.06
166.57
167.96
171.65
174.22
171.26
157.96
131.17
91.96
46.93
6.55
-19.33
-26.70
-19.95
-10.19
-9.51
-24.61
-53.32
-86.05
-110.98
-119.86
-111.19
-89.45
-61.60
-33.41
-7.66
15.21
35.16
50.95
60.00
59.30
47.12
24.10
-6.81
-41.33
-75.39
-106.64
-135.26
-163.60
-194.93
-231.10
-270.70
-308.36
-335.92
-345.01
-330.14
-290.93
-232.67
-164.82
-98.00
-40.69
3.01
33.94
56.56
76.49
98.22
123.59
151.79
180.37
206.67
228.64
244.94
254.46
256.02
248.78
233.26
212.02
189.35
170.02
157.44
152.60
153.73
156.90
157.08
149.42
130.72
100.94
64.13
27.77
0.38
-12.32
-10.82
-2.65
0.53
-11.69
-42.91
-87.44
-132.32
-163.02
-169.72
-151.23
-114.56
-70.83
-30.17
1.80
24.48
39.98
50.23
55.02
52.02
38.52
13.17
-23.10
-67.80
-118.20
-172.55
-229.77
-288.37
-344.76
-392.78
-424.79
-434.01
-416.92
-374.62
-312.71
-239.80
-165.53
-98.55
-44.95
-7.26
16.12
30.60
44.00
64.05
95.59
138.64
188.12
235.81
273.47
295.73
301.68
294.40
279.06
260.53
241.89
224.16
207.25
191.05
176.07
162.78
150.72
138.08
122.85
104.84
87.28
76.39
78.60
96.55
126.31
157.94
179.45
182.44
166.48
139.64
115.01
104.86
115.16
143.27
179.37
210.80
227.17
223.64
201.58
166.51
125.34
83.58
44.18
7.81
-26.15
-59.10
-93.38
-131.94
-177.20
-228.65
-280.74
-322.76
-342.22
-330.36
-287.00
-222.16
-153.62
-100.62
-77.02
-87.05
-124.76
-176.64
-225.88
-256.63
-258.46
-229.71
-177.69
-116.30
-61.68
-27.59
-21.93
-45.14
-90.48
-147.00
-203.29
-249.36
-277.57
-283.48
-266.99
-232.23
-185.29
-131.60
-75.50
-21.14
27.17
64.92
88.52
96.53
89.55
71.00
45.85
25.54
19.70
30.03
48.41
65.84
79.68
91.68
101.26
107.63
105.27
87.64
52.70
5.64
-42.65
-74.83
-79.29
-53.40
-4.50
52.54
100.96
127.85
126.65
97.40
45.13
-21.64
-85.58
-126.21
-132.46
-108.02
-66.39
-22.60
13.20
38.30
55.19
68.41
79.98
88.03
89.18
82.26
69.67
57.41
51.68
56.93
74.65
102.42
134.16
162.31
179.84
181.60
165.63
134.20
93.19
50.05
10.27
-24.83
-58.37
-94.79
-137.93
-189.75
-248.43
-307.90
-359.34
-394.28
-407.12
-396.19
-363.62
-314.68
-257.06
-199.60
-151.58
-121.23
-113.95
-130.17
-164.23
-205.46
-241.31
-261.39
-259.93
-236.39
-193.60
-135.37
-65.43
11.64
88.56
154.70
198.35
211.72
195.35
159.63
121.78
99.23
102.88
133.76
184.40
243.87
303.03
357.02
404.26
443.72
472.98
488.94
490.35
479.79
463.24
447.16
434.75
423.79
407.78
379.71
336.43
280.93
220.92
164.85
117.71
78.76
42.36
0.93
-51.41
-116.14
-189.68
-264.43
-330.82
-379.71
-404.30
-401.28
-371.04
-317.09
-245.24
-162.91
-78.70
-1.94
58.15
94.06
102.05
83.76
46.22
-0.21
-45.38
-83.04
-112.96
-140.40
-173.06
-216.42
-269.97
-326.00
-371.85
-394.86
-387.87
-352.42
-298.09
-238.05
-183.20
-138.20
-100.87
-65.17
-25.42
20.71
72.12
126.36
182.08
239.80
300.35
362.29
420.36
466.26
491.84
492.88
471.34
434.87
393.75
357.04
329.42
310.15
294.31
275.46
248.18
209.84
161.22
106.02
49.63
-2.62
-47.42
-84.87
-118.69
-154.70
-197.71
-248.41
-301.83
-348.46
-378.04
-383.68
-364.30
-324.10
-269.65
-206.77
-139.21
-69.67
-2.03
57.32
100.39
120.32
114.29
84.84
38.58
-16.68
-74.85
-132.83
-190.17
-247.28
-303.53
-356.02
-399.69
-428.51
-437.29
-423.35
-387.51
-334.04
-269.45
-200.79
-133.92
-72.24
-16.57
34.18
81.87
128.17
173.93
219.05
262.55
302.69
337.09
362.90
377.19
377.69
363.67
336.81
301.44
263.81
230.31
205.67
191.53
186.29
186.01
185.73
180.58
166.45
140.44
102.01
54.23
4.36
-37.56
-62.23
-65.32
-50.13
-26.97
-9.04
-6.90
-24.12
-56.36
-93.97
-126.46
-146.45
-151.26
-142.20
-122.50
-95.40
-63.49
-29.05
5.28
36.08
59.33
71.28
69.52
53.39
24.21
-15.09
-60.61
-108.47
-155.76
-201.19
-244.76
-286.29
-323.87
-352.66
-365.55
-355.61
-319.74
-261.41
-191.09
-123.20
-71.07
-41.83
-33.91
-38.29
-42.74
-37.10
-16.75
16.78
58.09
101.30
142.68
181.12
216.68
248.74
275.24
293.56
302.30
302.71
298.65
295.04
295.68
301.30
308.94
312.74
305.92
283.60
245.25
195.84
144.71
102.44
76.70
69.10
74.65
84.02
87.29
77.37
51.48
10.95
-39.77
-93.99
-143.63
-180.31
-197.54
-192.95
-169.62
-135.14
-98.76
-67.95
-46.45
-34.67
-31.43
-35.94
-48.38
-69.19
-98.01
-133.57
-174.65
-221.17
-274.00
-333.12
-395.54
-454.11
-498.93
-520.64
-513.99
-479.77
-424.22
-356.33
-284.74
-215.74
-152.75
-97.05
-48.69
-6.87
30.27
65.94
104.04
147.85
198.29
252.84
305.77
349.58
377.54
386.06
376.06
352.60
323.08
294.68
272.28
257.36
248.38
241.86
233.57
219.73
198.05
168.68
134.62
101.29
74.96
60.31
58.35
65.43
74.02
75.03
60.82
27.89
-21.75
-80.69
-137.89
-181.70
-203.22
-198.89
-171.34
-127.98
-78.12
-30.04
10.55
40.34
57.21
59.35
45.51
16.26
-24.69
-70.51
-113.09
-146.07
-167.55
-180.97
-193.47
-212.15
-240.07
-273.91
-304.71
-321.20
-314.51
-282.05
-228.88
-165.86
-105.59
-57.84
-26.30
-8.23
3.50
16.86
37.49
66.93
103.04
141.78
179.26
212.96
241.52
263.75
277.69
280.78
271.33
250.26
221.93
193.26
171.42
161.08
162.60
171.87
181.58
183.62
171.85
144.32
104.34
59.88
21.13
-3.06
-8.60
2.09
20.66
35.78
37.16
19.11
-17.87
-67.56
-120.16
-165.28
-194.64
-203.84
-192.74
-164.66
-124.91
-79.42
-34.00
5.83
34.71
47.93
42.52
18.69
-19.51
-64.91
-109.36
-146.80
-175.54
-198.47
-221.00
-247.45
-277.97
-307.45
-327.29
-328.91
-307.27
-263.07
-202.31
-134.24
-68.48
-12.65
29.02
56.16
71.89
81.77
92.03
107.58
130.36
158.81
188.91
216.01
236.56
248.78
252.37
247.86
236.25
219.14
199.27
180.42
166.58
160.55
162.33
168.12
171.09
163.72
141.24
104.58
61.21
22.72
0.27
-0.53
17.61
44.58
66.88
72.83
55.96
16.13
-41.65
-109.17
-176.56
-233.36
-269.86
-279.03
-258.71
-212.74
-150.08
-81.95
-18.44
34.02
72.88
98.11
110.10
108.45
92.05
59.81
11.73
-50.41
-122.81
-199.51
-272.55
-333.07
-372.55
-384.74
-367.56
-324.30
-263.53
-197.02
-136.77
-91.33
-63.37
-49.39
-41.55
-30.90
-10.50
22.72
67.70
120.20
174.31
223.67
262.36
285.75
291.54
280.67
257.59
229.24
202.96
184.18
175.05
174.37
178.45
182.45
181.68
172.66
154.03
127.08
95.90
66.44
44.67
34.20
34.23
39.29
41.02
31.38
5.85
-34.30
-82.08
-127.11
-159.30
-172.18
-164.84
-141.15
-107.77
-71.80
-38.38
-9.78
13.97
33.25
47.50
54.64
52.46
39.58
15.75
-17.90
-59.26
-105.69
-154.48
-202.53
-246.17
-280.37
-300.25
-303.46
-291.08
-267.13
-236.86
-205.30
-174.25
-147.32
-127.24
-112.10
-98.44
-83.73
-68.26
-51.68
-33.17
-11.82
12.49
39.72
69.36
100.29
131.77
163.90
197.05
230.12
259.85
281.17
290.16
285.36
268.14
242.18
211.78
180.14
148.60
117.78
89.06
66.73
55.34
56.63
67.81
82.24
92.19
92.47
82.87
67.80
54.74
48.43
48.14
48.86
45.32
35.86
24.30
18.07
23.82
44.66
76.08
107.55
127.62
129.38
113.07
85.43
55.66
22.08
-14.39
-51.04
-84.80
-114.77
-142.34
-169.12
-195.51
-219.46
-236.67
-240.72
-227.04
-195.24
-150.04
-97.96
-51.26
-22.24
-17.59
-34.67
-60.90
-80.05
-79.04
-52.76
-4.89
54.25
112.93
161.66
194.76
210.93
211.24
198.21
175.35
147.29
119.00
95.43
80.14
73.86
73.98
74.36
67.12
45.86
9.27
-37.43
-83.31
-116.06
-127.40
-117.05
-93.39
-70.04
-60.09
-70.69
-100.64
-141.38
-180.83
-207.89
-215.83
-203.38
-173.92
-133.56
-89.12
-46.67
-10.77
15.75
31.51
36.14
30.10
14.58
-8.37
-35.89
-64.83
-92.68
-118.41
-142.70
-166.95
-191.38
-213.29
-226.83
-224.67
-201.59
-157.88
-100.91
-43.24
2.22
27.54
33.15
27.33
22.18
28.15
49.88
85.13
126.83
166.68
198.28
218.41
226.41
223.02
209.47
187.69
161.04
134.42
113.54
103.11
104.95
116.93
133.29
146.07
147.58
132.95
102.05
60.17
16.88
-17.00
-33.31
-29.95
-12.29
8.28
18.36
7.78
-26.18
-77.33
-132.78
-177.80
-201.44
-200.18
-178.36
-145.24
-110.63
-81.25
-59.56
-44.87
-35.64
-31.23
-31.82
-37.53
-47.27
-58.70
-69.19
-77.11
-82.69
-87.72
-94.68
-105.39
-119.96
-136.20
-149.76
-155.29
-148.25
-127.16
-94.80
-57.69
-23.57
1.96
17.73
27.07
35.54
47.75
65.23
86.31
108.04
128.30
147.00
165.36
184.04
201.63
214.61
219.00
212.71
197.13
176.84
157.89
145.17
140.41
141.38
142.75
138.02
122.35
94.71
59.08
23.53
-2.64
-12.62
-5.10
14.72
36.78
49.99
46.25
23.14
-15.81
-62.82
-108.55
-144.56
-164.79
-166.35
-149.65
-118.19
-77.79
-35.56
1.51
27.76
39.78
36.80
20.45
-5.77
-37.46
-70.21
-100.55
-126.52
-148.12
-167.16
-186.40
-207.93
-231.47
-253.28
-266.48
-263.16
-238.10
-192.10
-133.28
-74.94
-30.46
-7.54
-4.88
-12.79
-17.79
-8.61
19.27
62.62
112.99
160.80
199.03
224.64
237.82
240.23
233.46
218.73
197.45
172.11
146.39
124.59
110.26
104.76
106.49
111.04
112.67
106.38
89.91
64.84
36.03
9.82
-8.66
-17.46
-18.43
-16.04
-15.23
-19.09
-27.80
-39.13
-49.98
-58.26
-63.62
-67.01
-69.31
-70.17
-67.83
-60.24
-46.67
-28.80
-10.58
3.54
10.63
10.80
7.12
4.00
4.93
10.61
18.42
23.20
19.25
2.65
-26.56
-63.46
-99.00
-122.61
-125.94
-106.51
-69.46
-26.53
8.15
23.52
16.07
-8.76
-38.97
-61.05
-65.21
-48.66
-15.56
25.81
66.86
101.50
126.93
142.46
147.95
143.02
127.72
103.98
76.39
51.56
35.96
33.31
42.90
59.64
75.71
83.29
77.24
56.89
26.41
-6.34
-32.41
-44.98
-42.17
-28.31
-12.79
-6.78
-18.81
-51.21
-98.97
-151.57
-196.79
-224.75
-230.59
-214.80
-181.86
-138.07
-89.63
-41.72
1.73
37.81
64.70
81.91
90.60
93.44
93.84
94.96
98.27
102.78
104.99
99.51
80.48
43.59
-12.05
-82.29
-157.75
-225.49
-272.73
-291.27
-280.71
-248.57
-206.94
-167.08
-134.83
-109.02
-83.50
-51.36
-8.90
42.66
98.19
151.11
195.71
228.32
247.17
252.03
243.98
225.54
200.50
173.47
148.80
129.61
117.29
111.41
109.95
109.75
106.97
98.19
81.71
58.85
34.23
14.55
6.08
11.57
28.38
48.74
62.61
61.69
42.67
8.33
-34.02
-75.54
-108.76
-129.18
-135.53
-128.93
-112.02
-88.28
-61.68
-36.36
-16.07
-3.72
-0.95
-8.06
-24.06
-46.83
-73.44
-101.08
-128.25
-155.55
-185.37
-219.81
-258.18
-295.47
-323.07
-331.62
-314.81
-272.27
-210.34
-140.07
-73.65
-20.52
15.25
35.62
47.25
58.83
77.74
107.44
146.34
188.75
227.41
256.28
272.40
275.93
269.10
254.67
235.07
212.43
188.92
166.90
148.30
133.81
122.09
110.10
94.48
73.47
48.36
23.55
4.88
-3.11
0.15
10.03
17.94
14.60
-5.89
-43.20
-90.24
-135.49
-167.14
-177.26
-164.38
-133.27
-92.44
-50.76
-14.67
12.82
31.42
42.00
45.20
40.87
28.58
8.38
-18.39
-49.24
-81.37
-112.81
-143.14
-173.04
-202.81
-230.67
-251.86
-259.54
-247.26
-212.33
-158.18
-94.47
-34.14
11.37
36.59
44.24
43.71
46.83
62.58
93.45
134.88
177.73
212.48
232.83
237.34
228.62
211.13
189.09
165.48
142.29
121.26
104.24
92.83
87.41
86.31
85.89
81.82
71.07
53.59
32.89
14.89
5.47
7.82
20.55
37.55
49.66
47.65
25.71
-15.88
-70.08
-125.02
-167.97
-189.96
-188.68
-168.60
-138.26
-106.28
-78.36
-56.53
-40.37
-29.09
-22.74
-22.06
-27.25
-37.09
-49.09
-60.75
-71.05
-81.08
-93.21
-109.40
-129.29
-149.19
-162.62
-162.39
-143.67
-106.84
-58.57
-10.12
26.69
44.41
43.26
31.23
20.68
22.94
43.50
79.95
123.62
163.68
191.84
204.95
204.89
196.31
183.74
169.77
154.96
139.10
122.49
106.67
93.72
84.92
79.34
73.61
63.10
44.36
17.34
-13.65
-41.15
-57.75
-59.93
-50.52
-38.18
-34.01
-46.50
-77.53
-121.27
-166.59
-201.78
-219.02
-216.68
-198.51
-170.67
-138.63
-105.57
-72.71
-40.73
-10.93
14.72
34.56
48.46
58.03
65.79
73.68
81.87
88.43
90.01
83.16
65.76
37.91
2.25
-36.26
-71.42
-97.51
-111.30
-113.31
-107.69
-100.25
-95.70
-95.17
-95.47
-90.48
-74.05
-43.05
0.85
51.46
100.14
138.77
162.22
169.63
164.11
151.10
136.34
124.15
116.57
113.57
113.92
115.89
117.51
116.55
110.78
98.80
81.14
60.97
43.43
33.84
35.27
46.91
64.00
79.61
87.21
82.90
66.42
40.83
11.29
-16.28
-36.37
-44.86
-39.98
-22.99
1.76
27.76
48.03
56.89
51.21
30.58
-3.16
-46.47
-94.45
-141.19
-180.67
-208.69
-224.74
-232.86
-240.10
-252.94
-273.35
-296.87
-314.00
-314.29
-291.33
-245.86
-185.77
-122.77
-67.87
-27.45
-1.50
15.40
31.26
53.19
84.51
123.74
165.50
202.95
230.31
244.52
245.33
234.29
213.60
185.70
153.68
121.60
94.36
76.44
70.43
75.60
87.50
98.71
100.74
86.65
53.87
6.00
-47.36
-93.37
-120.93
-125.65
-112.46
-93.91
-84.45
-93.39
-120.20
-154.62
-181.64
-188.49
-170.04
-129.88
-77.23
-21.81
30.16
77.03
119.82
159.18
193.52
219.02
231.79
230.10
215.43
191.72
163.51
134.10
104.65
74.49
41.74
4.01
-41.03
-94.92
-157.07
-223.38
-285.93
-334.61
-360.19
-357.77
-328.59
-279.51
-220.14
-159.38
-102.93
-52.75
-8.20
31.99
68.27
99.91
125.49
143.98
155.58
161.83
164.77
165.87
164.93
160.08
149.10
131.19
108.26
84.77
65.98
55.52
53.89
58.30
64.05
66.34
61.65
48.48
27.68
2.36
-22.41
-40.66
-47.54
-41.61
-26.25
-8.90
1.93
0.68
-12.41
-31.27
-46.94
-51.88
-43.25
-23.66
0.83
23.75
40.79
50.57
53.76
51.58
44.72
33.29
17.33
-2.42
-24.39
-46.64
-67.65
-87.25
-106.93
-129.47
-157.50
-191.59
-228.76
-262.37
-283.69
-284.77
-261.39
-214.69
-150.80
-78.73
-7.69
55.22
105.95
143.26
167.96
182.03
188.09
189.03
187.67
186.28
186.22
187.63
189.46
189.78
186.37
177.57
162.95
143.62
121.98
100.92
82.85
68.95
58.86
50.91
42.79
32.36
18.55
2.00
-14.93
-28.71
-35.85
-34.35
-24.98
-11.62
-0.27
3.10
-4.86
-23.16
-46.64
-68.19
-81.98
-86.07
-82.82
-77.12
-73.50
-73.77
-76.61
-79.17
-79.56
-78.76
-80.58
-89.85
-109.69
-139.64
-175.41
-210.63
-239.49
-258.80
-268.53
-270.45
-265.88
-253.97
-231.63
-195.25
-143.50
-79.28
-9.77
55.72
108.98
145.56
165.66
173.05
172.87
169.55
165.74
162.45
159.76
157.38
154.96
151.91
147.54
141.52
134.60
128.88
127.24
132.16
144.45
162.80
184.13
204.44
219.66
226.19
221.31
203.79
174.72
137.81
98.83
63.91
37.53
21.04
12.65
8.56
4.63
-2.46
-14.86
-33.70
-59.21
-90.38
-124.59
-157.78
-185.44
-204.33
-213.90
-216.84
-218.08
-222.66
-233.52
-249.96
-267.84
-281.16
-284.33
-274.06
-250.23
-215.40
-173.57
-128.75
-84.00
-40.96
0.26
40.87
82.91
128.42
178.65
233.42
290.97
348.50
402.94
451.54
492.04
522.51
541.14
546.38
537.45
514.96
481.11
439.34
393.39
346.26
299.55
253.39
206.98
159.39
110.23
60.02
9.94
-38.82
-85.65
-130.54
-173.40
-213.40
-248.77
-277.48
-298.57
-312.82
-322.38
-329.12
-332.96
-331.39
-320.91
-299.67
-269.82
-237.84
-212.37
-200.56
-204.83
-221.80
-243.81
-262.37
-271.54
-269.98
-260.81
-249.64
-241.85
-240.35
-244.89
-252.89
-260.92
-266.02
-266.04
-259.35
-244.59
-221.33
-191.08
-158.20
-129.45
-111.90
-109.99
-123.29
-146.40
-170.90
-188.66
-194.47
-186.97
-167.89
-140.10
-106.02
-66.90
-23.55
22.57
68.47
109.65
141.56
161.41
169.96
171.90
174.42
184.42
205.72
237.78
276.28
315.89
353.37
389.32
426.84
468.41
512.01
550.57
574.25
574.86
549.59
502.08
440.46
373.24
305.96
239.27
171.66
102.87
36.09
-22.73
-67.70
-95.90
-108.87
-111.80
-112.81
-118.75
-132.74
-153.54
-177.02
-198.43
-214.17
-222.70
-224.11
-221.76
-219.19
-218.49
-219.76
-222.06
-224.82
-228.35
-233.88
-232.20
-217.49
-189.62
-154.83
-120.92
-93.08
-73.53
-62.35
-60.49
-63.62
-68.65
-72.70
-73.30
-68.95
-59.80
-47.65
-33.23
-18.97
-6.32
2.63
6.71
6.10
2.50
-1.33
-2.39
1.80
12.08
27.94
46.12
62.71
74.67
80.89
82.16
80.56
78.71
78.80
82.42
89.19
97.54
105.59
111.83
115.46
116.25
114.31
109.84
103.52
96.30
89.34
83.37
77.81
70.56
59.07
41.98
20.47
-1.82
-20.59
-33.21
-39.82
-42.69
-44.21
-45.13
-44.35
-40.07
-31.40
-19.34
-6.20
5.80
15.69
23.92
31.48
38.62
44.20
46.03
42.01
31.62
16.92
2.14
-7.89
-10.04
-4.65
4.20
10.30
8.30
-3.48
-21.96
-40.52
-51.96
-51.34
-37.78
-14.33
13.38
39.04
57.35
65.40
63.70
56.04
48.17
45.23
49.25
57.76
64.72
63.31
49.28
23.09
-10.10
-42.42
-65.90
-74.58
-66.06
-42.54
-10.84
18.96
36.63
36.03
18.82
-5.30
-22.35
-20.92
1.74
38.26
74.65
96.70
95.58
70.71
29.06
-18.49
-61.07
-91.26
-106.41
-108.61
-102.63
-93.11
-81.14
-63.49
-35.54
4.14
49.23
85.16
96.23
75.91
30.73
-23.37
-69.17
-95.45
-99.31
-85.27
-57.69
-19.76
24.92
69.71
105.76
125.44
126.10
111.31
88.97
67.77
51.98
44.24
43.52
46.97
51.81
55.78
56.42
50.84
37.20
16.49
-6.13
-23.66
-30.88
-28.30
-22.96
-25.13
-42.52
-75.07
-113.82
-144.21
-152.98
-133.74
-89.37
-30.27
29.85
78.55
107.49
113.04
95.93
59.95
11.46
-41.40
-89.92
-126.50
-146.50
-149.36
-138.50
-119.97
-100.57
-85.62
-77.76
-76.90
-81.16
-88.17
-95.77
-102.06
-105.14
-102.84
-93.09
-74.71
-48.21
-16.09
17.68
48.77
73.76
90.72
99.28
100.14
94.60
84.35
71.46
58.19
46.56
37.75
31.81
28.06
25.95
25.90
29.29
37.56
50.63
65.84
78.42
83.47
78.80
66.47
52.05
41.72
39.08
43.55
51.38
58.56
63.35
66.92
71.50
77.77
83.23
83.08
73.11
52.57
25.28
-1.84
-21.81
-30.35
-27.08
-14.93
1.28
16.37
25.84
26.58
17.48
-0.30
-23.67
-48.45
-70.66
-87.45
-97.44
-100.81
-99.21
-95.64
-94.17
-98.78
-111.75
-132.06
-154.93
-173.07
-179.33
-169.62
-144.48
-108.63
-68.71
-30.89
0.57
23.45
36.82
40.47
34.98
22.23
5.56
-10.92
-23.79
-31.87
-36.74
-41.57
-48.79
-58.04
-65.33
-64.61
-50.76
-22.55
15.78
55.47
86.43
101.13
97.63
80.38
58.47
42.09
38.76
50.83
75.19
105.19
133.60
155.18
167.69
171.20
166.61
154.57
135.43
110.16
81.23
52.61
28.78
13.03
6.07
5.53
6.73
4.22
-6.20
-25.95
-53.05
-82.71
-109.11
-127.48
-135.59
-134.26
-126.82
-117.90
-112.07
-112.63
-120.68
-134.68
-150.65
-163.19
-167.16
-159.54
-140.49
-113.04
-81.65
-50.29
-21.16
5.31
29.47
51.43
70.56
86.03
97.52
105.66
111.69
116.68
120.60
122.01
118.66
108.65
91.76
70.19
48.22
31.02
22.58
23.89
32.62
44.13
53.67
58.57
59.17
58.09
58.15
60.37
63.28
63.75
58.84
47.41
30.44
10.17
-11.21
-32.33
-52.57
-71.10
-86.38
-96.33
-99.29
-94.97
-84.95
-72.13
-59.71
-50.06
-44.07
-41.23
-40.16
-39.21
-37.21
-33.92
-30.14
-27.25
-26.51
-28.36
-32.04
-36.00
-38.58
-38.81
-36.73
-33.24
-29.50
-26.21
-23.27
-19.92
-15.33
-9.16
-1.76
6.02
13.23
19.25
23.82
26.83
28.13
27.29
23.61
16.50
5.38
-10.59
-32.34
-60.13
-92.36
-124.28
-148.27
-155.92
-140.91
-102.52
-47.45
11.90
61.84
92.78
103.16
99.13
90.84
88.71
99.08
122.08
152.76
184.01
209.39
225.25
230.16
223.41
205.92
179.65
146.92
110.53
73.84
40.50
14.59
-0.81
-5.24
0.65
14.08
29.52
40.27
40.61
22.80
-14.57
-61.00
-110.63
-159.48
-201.48
-230.02
-238.81
-223.78
-185.06
-128.75
-65.67
-8.83
32.55
56.36
67.05
73.63
85.31
107.35
138.73
168.98
185.71
183.44
167.95
148.61
129.48
107.17
79.44
41.18
-4.83
-49.23
-81.63
-95.74
-92.35
-73.57
-44.48
-6.41
34.50
68.81
86.68
81.75
55.10
14.23
-33.03
-79.05
-117.48
-145.85
-164.38
-167.77
-156.45
-134.72
-109.06
-85.41
-66.76
-52.52
-41.00
-29.97
-17.75
-4.27
11.50
31.71
58.50
92.13
129.53
163.95
188.16
197.56
190.73
170.53
142.50
112.46
84.94
62.58
45.55
32.36
20.68
7.36
-10.28
-34.43
-66.85
-108.36
-158.19
-213.00
-266.09
-308.09
-329.45
-323.08
-286.93
-225.30
-148.15
-68.91
-1.44
42.53
55.79
36.71
-9.83
-73.13
-138.31
-189.57
-214.32
-207.33
-173.03
-124.40
-78.37
-48.66
-39.95
-45.88
-52.31
-44.43
-14.11
35.84
93.25
143.00
174.89
188.61
192.90
199.70
216.47
241.18
263.14
268.68
248.27
200.84
133.50
57.19
-18.38
-87.68
-148.55
-199.40
-236.84
-255.62
-250.48
-218.79
-161.91
-85.60
0.66
84.96
154.68
198.83
210.53
189.10
140.93
78.18
15.59
-33.74
-61.81
-67.37
-55.16
-33.08
-8.65
13.54
32.53
49.72
66.65
83.31
97.70
106.97
108.99
103.20
90.27
70.81
44.20
8.35
-39.20
-99.56
-170.62
-246.59
-318.98
-378.96
-420.00
-439.54
-439.09
-422.83
-395.53
-360.85
-320.70
-275.75
-226.42
-173.74
-119.53
-66.01
-15.10
32.47
77.60
122.73
170.67
222.75
276.94
327.47
366.30
386.33
384.66
364.33
333.43
301.67
276.57
260.91
252.74
247.52
240.81
229.62
212.32
187.75
155.08
115.00
71.18
30.61
1.40
-10.99
-7.27
4.97
14.24
10.60
-9.57
-42.06
-77.47
-106.19
-122.67
-126.59
-120.89
-108.49
-90.20
-65.06
-32.69
4.26
39.52
64.54
71.57
56.44
19.96
-32.37
-92.02
-149.74
-197.87
-232.01
-251.85
-260.50
-262.72
-262.43
-260.68
-255.26
-242.01
-217.52
-181.50
-137.72
-92.75
-53.04
-22.03
1.39
22.02
45.95
77.43
117.05
161.47
205.08
242.32
269.56
285.74
291.72
289.20
279.70
264.36
244.34
221.30
197.62
176.04
158.87
147.18
140.23
135.22
127.66
112.65
86.77
50.08
7.14
-33.83
-63.68
-76.41
-72.43
-59.28
-48.85
-52.04
-73.52
-109.23
-148.09
-176.97
-186.50
-174.58
-146.07
-109.52
-72.89
-40.87
-14.70
6.05
21.58
30.79
31.97
24.35
9.25
-10.06
-29.65
-46.84
-61.78
-77.59
-98.81
-128.69
-166.50
-206.27
-237.86
-250.59
-237.77
-200.23
-146.72
-90.69
-44.87
-16.05
-2.73
3.43
13.31
35.26
71.82
119.25
169.63
214.29
246.58
263.30
264.54
252.69
231.34
204.50
176.37
150.96
131.62
120.38
116.98
118.41
119.17
112.92
95.08
65.35
28.85
-5.24
-27.09
-30.55
-16.20
8.33
31.11
40.58
30.09
0.34
-41.31
-84.19
-118.41
-138.06
-142.01
-132.72
-114.03
-89.30
-61.03
-31.44
-3.52
18.75
31.44
32.28
21.97
4.20
-15.74
-33.13
-45.92
-55.82
-67.82
-88.28
-121.88
-168.72
-222.92
-273.63
-308.40
-317.65
-298.35
-255.20
-198.74
-141.19
-91.89
-54.44
-26.36
-1.36
27.15
62.94
105.36
149.82
190.01
220.49
238.49
244.28
239.96
227.98
210.07
187.40
161.43
134.73
110.91
93.53
84.66
83.67
87.07
89.50
85.72
72.66
51.03
25.39
2.68
-10.53
-10.97
-0.42
14.62
25.51
25.17
11.06
-13.68
-41.81
-65.27
-78.52
-80.32
-73.15
-61.06
-47.35
-33.42
-19.26
-4.91
8.36
17.95
21.11
16.47
4.85
-11.14
-28.36
-44.51
-58.93
-72.67
-88.14
-108.15
-134.73
-167.80
-204.07
-237.01
-258.26
-260.45
-240.30
-200.27
-148.00
-93.36
-44.66
-5.88
23.97
49.07
73.94
101.02
129.75
157.42
180.81
197.74
207.63
211.04
208.71
200.99
187.99
170.37
150.02
130.05
113.93
104.06
100.64
101.40
102.25
98.57
86.82
65.81
37.52
6.94
-19.15
-34.29
-34.77
-21.51
-0.52
18.76
26.60
16.56
-11.85
-52.82
-96.22
-131.25
-150.13
-150.34
-134.43
-107.75
-75.42
-40.30
-3.13
35.39
72.08
100.39
112.04
100.74
65.82
13.72
-43.87
-94.69
-130.95
-152.35
-165.38
-179.23
-200.38
-228.82
-257.66
-276.25
-275.11
-249.98
-203.28
-142.55
-77.11
-14.72
40.20
86.32
123.97
153.62
175.21
188.27
192.70
189.37
180.32
168.21
155.51
143.70
132.77
121.47
108.23
92.27
74.33
56.56
41.68
31.60
26.70
25.48
25.08
22.42
15.33
3.52
-11.07
-24.85
-33.87
-35.37
-29.15
-17.74
-5.53
2.98
4.86
-0.23
-10.31
-22.08
-32.24
-38.32
-38.98
-33.90
-23.63
-9.57
6.08
20.69
31.81
37.92
38.73
35.09
28.29
19.40
8.82
-3.65
-18.50
-36.24
-57.40
-82.60
-112.27
-145.90
-180.94
-212.25
-232.73
-235.21
-215.33
-173.87
-117.34
-56.22
-1.31
40.06
66.32
81.31
91.58
102.86
117.50
134.02
148.58
157.38
158.49
152.24
140.42
125.03
107.36
88.21
68.47
49.67
33.93
23.11
18.00
17.56
18.93
18.21
11.84
-1.74
-21.06
-41.67
-57.59
-63.79
-58.63
-44.91
-29.03
-18.31
-17.77
-28.01
-45.04
-62.17
-72.96
-73.71
-64.37
-47.81
-27.93
-7.78
11.18
28.73
44.82
58.52
67.90
70.95
66.81
56.66
43.52
31.08
22.04
16.81
13.12
6.68
-7.29
-32.07
-67.71
-110.03
-151.07
-181.16
-192.19
-180.88
-150.27
-108.74
-66.44
-31.13
-5.51
12.82
28.79
46.41
66.51
86.70
103.15
113.00
115.71
112.85
106.68
98.75
89.40
78.21
65.07
50.92
37.67
27.51
21.98
21.22
23.83
27.21
28.43
25.37
17.65
7.03
-3.10
-9.02
-8.49
-2.15
6.11
10.51
5.62
-10.96
-37.01
-66.00
-89.25
-99.48
-93.69
-74.06
-46.30
-17.17
8.12
26.95
38.78
43.90
41.99
32.00
13.19
-13.05
-43.12
-72.00
-95.24
-111.19
-121.75
-132.20
-148.86
-175.82
-211.20
-248.31
-278.23
-293.57
-291.89
-275.04
-248.65
-219.37
-191.69
-164.38
-134.23
-98.98
-59.04
-18.01
22.06
60.09
95.99
130.74
169.25
214.91
267.99
325.69
382.30
435.67
484.09
525.21
556.43
580.12
598.00
609.76
613.02
603.17
581.60
551.51
516.07
448.59
338.34
194.45
42.06
-79.51
-170.79
-237.66
-284.62
-315.80
-333.13
-335.53
-325.33
-308.49
-292.59
-285.43
-286.54
-292.16
-298.47
-302.53
-299.33
-285.99
-262.60
-231.94
-199.35
-166.21
-132.91
-100.25
-69.93
-42.93
-22.31
-12.67
-17.83
-38.47
-67.10
-91.56
-99.47
-82.60
-38.89
25.90
100.36
171.25
227.12
262.29
276.02
270.95
251.70
223.97
193.20
163.71
137.77
115.33
95.06
75.08
54.12
32.28
10.79
-9.02
-26.59
-42.30
-56.79
-69.82
-80.32
-87.51
-92.58
-99.29
-112.44
-134.81
-164.65
-195.67
-220.02
-232.57
-233.46
-227.43
-220.06
-213.61
-205.22
-188.81
-159.24
-116.00
-64.06
-11.39
34.97
71.73
99.61
121.26
138.67
151.88
159.30
158.89
149.74
132.46
108.80
80.72
49.39
14.49
-25.94
-74.65
-133.23
-199.95
-268.40
-328.12
-367.68
-378.71
-358.86
-312.35
-247.88
-175.29
-102.80
-35.97
22.04
69.63
106.45
133.36
152.37
165.98
176.21
183.75
187.93
187.58
182.13
172.12
159.30
145.88
133.87
124.43
117.76
113.18
109.35
104.34
95.52
79.94
55.19
21.17
-18.49
-56.35
-83.20
-91.78
-80.38
-54.33
-24.16
-1.24
7.17
0.65
-14.79
-29.84
-36.04
-28.71
-7.99
22.18
56.02
87.88
113.42
129.98
136.19
131.10
113.86
84.15
43.23
-5.08
-54.59
-98.76
-133.63
-159.92
-182.88
-209.02
-241.77
-278.26
-309.45
-323.66
-311.75
-271.33
-207.82
-132.28
-57.28
7.07
55.40
87.23
105.80
116.22
123.78
132.57
144.55
159.36
174.83
187.86
195.64
196.37
189.59
176.09
157.63
136.48
115.01
95.19
78.13
63.81
51.16
38.48
24.25
7.88
-9.85
-26.84
-40.37
-48.26
-49.91
-47.05
-43.42
-43.55
-50.92
-66.25
-86.89
-107.63
-122.68
-127.90
-122.36
-108.30
-89.84
-71.08
-54.68
-41.57
-31.62
-24.84
-21.89
-23.80
-30.87
-41.73
-53.18
-61.08
-61.91
-54.22
-39.20
-20.16
-1.22
14.15
24.08
28.68
29.79
30.20
32.68
39.16
49.97
63.78
78.30
91.49
102.84
113.82
127.02
144.32
165.12
185.69
200.37
204.18
195.40
176.76
154.59
136.33
127.46
129.75
141.23
158.03
176.54
194.68
211.53
226.06
236.33
239.70
234.02
218.97
196.36
169.05
139.17
106.72
69.43
24.21
-30.26
-91.47
-152.87
-205.95
-243.64
-263.30
-267.51
-262.53
-254.96
-248.57
-242.98
-234.92
-220.97
-200.10
-174.57
-148.44
-125.45
-107.39
-94.18
-85.11
-80.27
-80.77
-87.92
-101.96
-121.11
-141.51
-158.13
-166.38
-164.04
-152.22
-135.61
-121.08
-115.06
-120.66
-135.79
-153.37
-163.72
-158.33
-133.15
-90.19
-36.60
18.00
64.67
97.45
114.23
116.31
107.37
92.22
75.72
61.98
53.88
52.77
58.41
69.12
82.16
94.30
102.56
105.07
101.67
93.99
84.88
77.53
74.38
76.60
83.93
94.93
107.22
117.68
122.99
120.52
109.59
91.93
71.00
49.91
29.22
6.20
-23.71
-63.64
-112.27
-163.12
-206.72
-234.57
-242.53
-231.82
-207.46
-175.43
-140.68
-106.81
-76.98
-54.76
-43.77
-46.14
-60.94
-83.66
-107.39
-125.27
-133.27
-131.91
-125.88
-121.95
-125.71
-138.84
-158.02
-176.19
-185.37
-179.69
-157.26
-120.31
-73.99
-24.78
20.78
56.84
78.99
85.35
77.62
61.24
44.22
34.61
37.74
54.50
81.47
112.76
142.51
167.08
185.78
200.24
212.82
224.97
236.27
244.35
245.66
236.40
213.51
175.69
124.32
64.05
2.53
-51.07
-88.64
-105.73
-103.18
-86.58
-63.87
-42.17
-25.45
-14.12
-6.46
-0.81
3.01
3.71
-0.20
-8.81
-20.00
-30.03
-35.26
-34.05
-27.89
-20.95
-18.20
-22.94
-35.19
-51.48
-66.40
-74.80
-73.58
-62.36
-42.88
-18.14
8.33
32.79
51.53
61.73
62.49
55.77
46.19
39.56
40.57
50.72
67.50
85.24
97.19
97.78
84.44
58.37
24.40
-10.08
-36.76
-48.80
-43.07
-21.63
8.60
38.33
59.40
67.89
65.22
56.70
48.38
43.94
43.47
44.21
42.43
34.98
19.74
-4.49
-37.87
-78.44
-121.07
-157.46
-178.48
-178.05
-156.58
-121.76
-85.53
-58.72
-46.23
-45.30
-47.97
-45.85
-34.51
-15.02
7.88
29.26
46.87
61.56
75.50
89.47
101.21
106.02
99.17
78.73
47.16
10.97
-21.67
-43.81
-52.04
-47.24
-33.58
-16.56
-0.96
10.69
18.43
24.24
30.69
39.79
52.25
67.50
84.20
100.80
115.91
128.49
137.93
144.12
147.52
149.07
149.89
150.92
152.62
154.94
157.43
159.57
160.81
160.65
158.71
154.83
149.30
142.85
136.26
129.76
122.48
112.41
97.02
74.58
45.49
12.95
-17.71
-40.59
-51.30
-48.60
-35.04
-16.20
1.02
10.64
9.42
-2.37
-21.17
-41.29
-56.69
-62.55
-56.32
-38.19
-10.77
21.49
52.89
77.59
90.53
88.20
69.32
35.37
-9.32
-57.85
-101.95
-134.44
-151.02
-151.81
-141.66
-128.51
-120.20
-121.41
-131.71
-146.42
-160.39
-170.03
-174.86
-177.20
-180.33
-186.28
-194.91
-203.46
-207.99
-206.63
-198.77
-185.05
-167.10
-147.69
-130.01
-117.57
-112.42
-114.98
-126.39
-146.23
-172.30
-200.78
-227.33
-247.87
-260.27
-263.53
-246.57
-206.27
-149.11
-88.31
-35.18
3.93
34.44
61.70
89.78
121.49
153.64
182.62
205.67
221.76
231.55
237.14
240.28
242.57
244.50
243.69
237.84
226.39
211.24
195.63
182.53
172.39
163.66
153.69
139.18
119.03
95.03
71.12
51.65
39.74
35.86
38.33
43.87
47.93
46.66
38.06
22.85
4.30
-12.75
-23.82
-26.26
-20.39
-9.67
0.89
6.70
5.37
-2.77
-15.18
-28.67
-40.54
-49.18
-54.04
-55.10
-52.56
-47.06
-39.91
-33.29
-29.72
-31.09
-37.76
-48.18
-59.54
-68.83
-73.94
-74.15
-69.94
-62.36
-52.60
-41.76
-30.91
-21.09
-13.01
-6.72
-1.37
4.43
11.89
21.18
31.04
39.14
43.14
41.86
36.03
27.99
20.69
16.31
15.42
16.98
19.11
20.15
19.36
16.98
13.81
10.52
7.34
4.10
0.58
-3.12
-6.43
-8.42
-8.25
-5.65
-1.32
3.04
5.21
3.43
-2.63
-11.43
-19.92
-24.78
-24.02
-17.97
-9.23
-1.46
2.41
1.48
-3.02
-8.58
-12.79
-14.41
-13.58
-11.40
-9.03
-7.09
-5.57
-4.28
-3.32
-3.26
-4.81
-8.33
-13.74
-20.36
-27.28
-33.77
-39.60
-44.90
-49.54
-52.64
-52.39
-46.99
-35.08
-16.36
8.09
35.80
63.46
87.73
106.15
117.61
121.45
118.24
109.89
99.36
89.57
82.41
78.55
78.01
80.76
85.47
90.72
95.24
97.84
96.77
89.75
74.88
51.90
22.51
-12.35
-51.67
-93.99
-137.17
-179.10
-218.26
-253.86
-285.35
-299.86
-287.81
-248.89
-193.61
-135.93
-85.49
-45.92
-17.00
3.50
18.53
28.88
34.46
35.14
31.44
23.38
12.73
1.94
-5.64
-6.71
-1.06
8.95
19.87
29.00
35.38
39.81
43.70
47.88
51.82
52.80
47.49
35.40
20.32
8.51
4.90
9.36
16.34
17.88
7.88
-13.99
-41.84
-67.31
-84.91
-95.29
-104.21
-118.04
-138.95
-163.29
-183.56
-192.61
-187.75
-171.84
-151.22
-131.91
-116.81
-105.14
-94.33
-82.49
-69.76
-57.99
-48.94
-42.27
-34.94
-22.30
-0.49
31.30
69.98
109.20
141.20
159.20
159.56
142.93
114.54
83.18
59.10
50.86
62.25
90.58
127.50
162.41
186.46
195.60
191.41
179.50
166.52
157.56
155.01
158.93
167.88
178.85
187.32
188.72
180.95
166.25
150.71
141.05
140.90
148.63
157.33
158.08
144.69
117.06
80.33
40.77
1.83
-35.84
-71.35
-101.35
-120.44
-123.58
-109.15
-81.07
-48.47
-22.39
-15.44
-32.10
-64.53
-98.49
-124.15
-140.49
-151.26
-158.91
-161.52
-152.51
-124.83
-76.64
-15.51
42.91
81.39
88.76
67.00
23.78
-28.07
-75.59
-109.96
-129.08
-135.63
-132.88
-121.90
-102.04
-73.27
-35.71
3.90
38.16
62.12
74.98
79.68
82.00
84.64
87.49
89.34
88.89
86.54
83.58
80.95
78.50
75.00
68.66
57.30
41.46
23.59
7.37
-4.57
-12.04
-17.05
-22.56
-31.04
-43.26
-58.06
-73.44
-87.11
-97.31
-102.94
-103.41
-98.61
-89.08
-76.03
-61.48
-48.68
-41.38
-42.99
-55.15
-76.27
-101.15
-121.99
-130.63
-121.33
-93.04
-49.73
0.97
50.46
91.78
121.08
137.34
141.12
132.95
112.57
79.38
33.89
-20.90
-79.15
-133.33
-176.58
-204.96
-218.21
-218.55
-208.29
-187.88
-155.73
-110.18
-52.32
12.26
74.10
122.92
151.54
158.76
149.50
132.50
116.68
108.01
108.14
114.96
124.56
133.25
138.88
140.92
139.69
135.41
127.69
115.80
99.40
79.37
58.05
38.82
24.94
18.28
18.46
22.64
26.43
25.54
17.51
2.75
-15.64
-33.37
-46.83
-54.38
-56.51
-55.21
-53.14
-53.03
-57.29
-67.32
-82.79
-101.06
-117.43
-126.46
-124.10
-109.37
-84.85
-55.48
-26.65
-2.49
14.71
24.02
25.11
17.92
2.83
-18.91
-45.25
-74.02
-103.58
-133.25
-162.67
-190.79
-214.90
-230.46
-231.92
-214.42
-175.84
-118.19
-48.07
24.58
88.94
136.41
163.24
171.36
167.32
159.51
154.85
156.53
163.46
171.69
176.72
175.51
167.17
152.47
132.85
109.70
84.16
57.60
31.86
9.19
-8.25
-19.31
-24.45
-25.72
-26.00
-27.77
-31.96
-37.54
-41.97
-42.50
-37.58
-27.79
-15.82
-5.64
-1.06
-4.43
-15.70
-32.27
-49.59
-62.50
-66.91
-61.22
-46.83
-27.55
-8.07
7.72
17.88
22.41
22.42
18.98
12.52
2.84
-10.23
-26.31
-44.55
-64.30
-85.57
-108.88
-134.27
-159.86
-181.16
-191.82
-185.77
-159.93
-116.35
-62.46
-9.12
33.01
57.40
63.93
58.77
51.61
51.56
63.51
86.63
115.38
142.49
162.18
171.91
172.26
165.29
152.95
136.31
116.14
93.94
72.32
54.51
42.96
38.20
38.32
39.68
38.21
31.10
17.99
1.32
-14.56
-25.15
-27.80
-23.14
-15.04
-9.24
-11.01
-22.92
-43.60
-67.98
-89.02
-100.13
-97.49
-81.26
-55.35
-25.75
1.64
22.78
36.24
42.54
42.78
37.60
26.93
10.71
-10.19
-33.62
-56.79
-77.59
-95.64
-112.39
-130.13
-150.19
-171.50
-190.08
-199.89
-194.93
-171.63
-130.92
-78.77
-24.76
21.13
52.18
67.45
71.71
72.80
77.80
89.85
107.29
125.41
139.32
146.42
147.08
143.26
136.72
127.76
115.44
98.94
78.86
57.67
38.87
25.59
19.24
18.87
21.52
23.26
20.67
12.22
-1.03
-15.65
-27.27
-32.37
-29.93
-21.94
-12.48
-6.09
-5.92
-12.73
-24.91
-39.23
-51.89
-59.37
-59.12
-50.07
-33.01
-10.59
13.24
34.43
49.98
58.72
61.14
58.50
51.68
40.46
23.79
0.79
-28.23
-61.51
-96.49
-131.04
-164.05
-195.06
-222.92
-244.43
-254.13
-245.96
-216.11
-165.72
-101.73
-34.91
23.87
67.55
94.97
110.16
119.63
129.20
141.88
157.46
173.54
186.99
195.09
195.92
188.36
172.06
147.67
117.14
83.83
52.06
26.05
8.81
1.04
0.75
3.63
4.46
-0.97
-14.06
-32.53
-51.20
-64.06
-66.91
-59.37
-45.16
-30.71
-22.69
-25.65
-40.50
-64.35
-91.44
-114.93
-128.84
-129.59
-116.64
-92.18
-59.95
-24.00
12.24
46.15
75.51
98.22
112.61
118.01
115.46
107.52
97.32
87.20
77.68
67.50
54.54
37.32
16.08
-6.79
-27.31
-41.17
-45.33
-39.29
-25.44
-8.40
6.49
15.05
15.79
10.36
2.85
-1.77
0.36
10.63
27.47
46.95
64.13
74.66
75.89
67.41
50.83
28.98
5.16
-17.67
-37.28
-52.23
-61.95
-66.58
-66.98
-64.48
-60.78
-57.61
-56.41
-57.80
-61.29
-65.34
-67.73
-66.56
-61.06
-52.08
-41.87
-33.20
-28.14
-27.32
-29.73
-33.29
-35.69
-35.12
-30.57
-21.69
-8.67
7.92
26.88
46.28
63.56
76.15
82.26
81.46
74.86
64.61
53.19
42.51
33.25
24.15
11.97
-7.94
-39.69
-84.34
-137.90
-191.09
-231.60
-248.23
-235.21
-194.58
-135.47
-70.57
-11.58
34.33
65.64
85.11
97.18
105.55
111.99
116.54
118.51
117.47
113.67
107.80
100.44
91.68
81.17
68.77
55.16
42.04
31.72
26.11
25.75
29.21
33.24
33.96
28.43
16.15
-0.39
-16.46
-27.15
-29.49
-23.77
-13.17
-2.37
4.34
4.36
-2.67
-15.23
-30.59
-45.49
-56.81
-62.04
-59.76
-49.90
-33.74
-13.55
8.04
28.46
45.45
57.07
61.91
59.45
50.35
36.63
21.15
6.65
-5.46
-15.98
-28.09
-46.28
-74.02
-111.24
-152.95
-189.84
-211.10
-208.60
-180.42
-132.05
-74.29
-19.02
25.23
55.83
75.49
89.39
101.77
113.89
124.18
130.12
130.26
125.11
116.58
106.52
95.56
83.02
67.97
50.57
32.70
17.54
8.17
6.25
11.01
19.32
26.65
28.66
22.87
9.95
-6.18
-19.58
-24.60
-18.62
-3.73
13.33
23.37
18.37
-5.01
-43.68
-89.07
-130.51
-159.31
-171.46
-167.92
-152.62
-129.60
-101.15
-67.80
-29.83
11.00
50.89
85.03
109.47
122.69
125.97
122.49
115.83
108.98
103.72
100.43
98.02
93.78
83.56
62.46
26.50
-25.25
-88.84
-155.23
-211.80
-245.55
-247.06
-213.81
-151.49
-72.54
7.58
75.13
121.67
145.39
149.96
141.98
128.39
114.65
104.21
98.34
96.38
96.09
94.40
88.59
77.28
61.28
43.40
27.29
16.09
11.30
12.31
16.39
19.18
15.87
2.93
-20.02
-49.42
-78.50
-99.87
-108.80
-105.63
-95.73
-86.99
-85.97
-94.71
-109.70
-123.57
-128.28
-118.48
-93.29
-56.14
-13.06
29.58
66.76
95.50
114.56
123.57
122.38
111.16
91.05
64.76
36.54
10.99
-8.98
-23.99
-38.56
-59.29
-91.41
-134.93
-182.91
-223.20
-243.07
-234.89
-199.69
-146.91
-90.13
-41.42
-6.73
15.26
31.21
49.17
74.94
110.18
152.48
196.74
236.86
266.92
282.06
279.15
257.54
219.65
170.90
118.70
70.77
33.19
9.02
-1.99
-2.81
1.82
6.25
4.88
-6.47
-29.15
-60.63
-94.79
-124.21
-143.33
-151.05
-150.99
-149.11
-150.04
-154.16
-157.37
-153.49
-137.84
-109.64
-72.12
-30.54
10.32
47.64
80.43
108.24
129.90
143.22
145.73
136.20
116.08
89.82
63.68
43.33
31.05
23.89
13.99
-8.50
-50.72
-112.79
-185.91
-254.56
-301.71
-314.85
-290.21
-233.71
-158.64
-81.13
-15.39
30.07
54.12
62.45
65.08
72.60
92.36
125.95
168.86
212.27
246.21
262.88
258.70
234.65
195.49
148.11
99.85
57.17
24.47
3.59
-6.13
-7.33
-4.14
-1.57
-4.44
-16.00
-36.50
-62.38
-86.95
-102.72
-104.74
-93.05
-72.98
-52.88
-40.34
-38.80
-46.23
-56.53
-62.62
-59.63
-46.55
-25.88
-1.93
21.13
40.31
54.04
61.72
63.36
59.36
50.76
39.34
27.44
17.50
11.33
9.39
9.99
9.24
1.81
-17.09
-49.18
-91.17
-134.32
-166.93
-178.42
-163.50
-124.29
-69.61
-11.54
38.68
73.83
92.07
95.95
90.54
81.34
72.75
67.34
65.91
67.90
71.90
76.55
80.30
81.69
79.46
72.87
62.14
48.80
35.50
24.71
18.77
17.55
19.08
20.56
19.81
16.40
11.96
9.46
10.89
18.43
30.85
44.97
56.82
63.22
63.30
59.46
56.62
58.65
69.61
87.79
107.96
123.44
128.62
120.27
97.80
62.16
12.93
-46.70
-113.69
-180.88
-237.39
-272.21
-279.20
-259.80
-210.60
-160.32
-119.29
-95.46
-90.33
-100.26
-119.80
-144.79
-172.22
-199.60
-216.14
-209.86
-179.53
-133.87
-85.12
-42.52
-10.95
9.31
20.54
24.87
26.10
26.10
27.54
33.19
45.66
64.22
86.11
107.44
124.66
137.72
148.69
161.63
179.71
201.91
221.51
230.86
219.69
184.76
130.50
66.95
7.01
-36.88
-52.62
-42.96
-19.16
8.13
26.88
26.53
1.95
-43.22
-96.98
-143.48
-169.70
-168.99
-143.05
-101.39
-58.32
-27.21
-15.88
-24.60
-47.05
-73.26
-91.69
-91.87
-68.97
-26.61
24.70
72.13
105.00
117.63
109.65
85.15
50.63
16.99
-6.93
-19.74
-24.87
-25.76
-24.13
-22.01
-25.26
-35.83
-54.30
-79.68
-108.15
-132.06
-143.03
-136.56
-108.24
-62.88
-5.81
58.00
124.52
190.39
253.27
309.56
353.14
376.54
360.77
303.10
221.12
141.18
81.04
45.04
27.12
17.10
6.08
-13.35
-43.18
-84.00
-131.70
-182.06
-227.17
-256.10
-258.62
-231.23
-178.54
-109.65
-38.73
17.30
43.99
36.82
3.77
-37.76
-70.79
-82.84
-67.94
-30.04
17.52
57.67
78.11
75.22
52.41
11.57
-45.88
-116.51
-194.65
-272.96
-342.36
-392.69
-415.88
-385.17
-297.07
-178.53
-67.60
13.30
63.15
92.35
111.97
129.44
148.74
168.12
186.03
204.63
227.52
255.36
284.23
306.72
316.80
305.08
266.70
204.18
128.64
56.67
3.79
-21.23
-20.74
-3.86
17.70
32.95
35.48
25.24
6.13
-18.54
-49.06
-90.60
-144.73
-205.71
-262.06
-301.93
-318.33
-311.58
-288.29
-242.95
-181.78
-118.39
-64.87
-23.69
9.91
41.66
75.04
111.46
148.56
177.50
190.33
183.30
157.73
118.30
71.56
24.22
-11.57
-20.82
0.56
42.49
85.21
109.90
109.59
85.98
45.99
-0.96
-47.83
-94.10
-139.29
-180.84
-214.03
-233.48
-235.74
-220.03
-187.89
-143.10
-90.95
-35.52
19.94
70.98
109.97
126.93
114.71
74.42
17.01
-39.39
-75.14
-76.64
-41.60
19.80
88.80
145.88
178.15
182.76
166.16
140.60
118.85
109.61
114.86
129.87
146.31
156.33
155.91
146.28
133.35
124.95
127.63
143.98
171.59
204.28
234.51
255.88
264.68
260.03
242.96
215.00
177.17
129.94
74.49
13.41
-48.72
-105.85
-151.70
-181.80
-195.50
-197.22
-196.28
-202.92
-224.18
-260.95
-307.23
-352.30
-384.89
-397.49
-388.24
-360.54
-318.25
-263.70
-198.99
-128.60
-61.06
-7.74
20.72
19.05
-10.67
-57.09
-103.83
-136.38
-147.04
-136.22
-109.73
-75.71
-33.65
10.15
46.96
71.51
84.27
88.84
88.67
86.74
85.08
84.87
85.28
86.07
88.44
92.25
96.89
101.61
106.69
112.31
118.03
121.88
122.86
121.59
119.75
119.92
117.86
112.73
105.33
97.26
89.43
82.37
75.87
68.49
58.43
46.12
31.61
16.40
3.08
-6.10
-9.82
-8.41
-3.94
1.15
4.53
5.76
6.18
7.92
12.21
18.11
22.61
21.71
13.60
-0.50
-15.84
-26.61
-29.29
-24.73
-17.89
-15.18
-21.79
-35.77
-51.23
-60.46
-58.95
-47.99
-32.63
-18.43
-8.73
-7.08
-12.22
-23.28
-40.11
-62.97
-91.50
-123.62
-155.62
-177.36
-181.68
-165.79
-133.93
-95.59
-61.41
-38.37
-26.93
-21.89
-16.13
-5.93
8.05
21.00
27.85
26.69
20.10
13.51
11.74
16.14
23.13
26.99
22.84
9.76
-8.51
-25.24
-33.99
-31.60
-19.39
-2.29
14.48
27.60
36.79
43.88
50.64
57.13
61.36
60.75
53.87
42.05
28.89
18.34
12.37
9.73
6.89
0.46
-10.48
-23.80
-35.45
-42.11
-43.14
-40.79
-38.82
-40.51
-47.29
-58.76
-73.52
-90.37
-108.82
-128.92
-150.92
-174.75
-199.56
-223.39
-243.36
-256.11
-259.05
-251.61
-235.73
-215.14
-193.63
-173.24
-153.78
-133.82
-112.39
-90.28
-69.78
-53.18
-41.30
-32.90
-25.24
-15.64
-2.40
15.21
37.47
64.61
96.40
130.97
164.13
190.12
203.93
203.98
193.58
179.84
170.69
171.40
182.51
200.16
218.39
232.07
238.78
239.08
235.28
229.84
224.08
217.87
210.09
199.58
185.94
170.09
153.86
139.02
126.18
114.40
101.89
87.48
71.87
57.78
48.85
47.69
54.25
65.40
76.00
80.76
76.19
61.89
40.44
16.36
-5.65
-22.30
-32.78
-38.45
-41.77
-44.69
-47.59
-49.42
-48.69
-44.83
-38.61
-31.61
-25.06
-19.05
-12.73
-5.14
3.55
11.57
16.11
14.53
5.44
-10.95
-33.01
-58.35
-84.20
-107.47
-124.64
-132.33
-128.34
-112.85
-89.10
-62.71
-39.70
-24.17
-16.63
-14.02
-11.45
-4.75
7.40
22.93
37.48
46.65
48.03
42.06
31.46
19.67
9.28
1.45
-3.50
-5.21
-2.67
5.37
19.13
36.52
52.88
62.36
60.36
46.01
23.27
-0.27
-16.29
-18.94
-7.21
14.98
40.49
61.83
73.86
75.04
67.19
54.05
39.45
26.05
15.02
6.42
-0.02
-4.10
-4.90
-1.03
8.58
23.64
41.96
59.89
73.53
80.26
79.84
74.38
67.32
61.99
60.65
64.14
72.07
82.88
93.61
100.09
98.17
86.04
66.18
45.43
32.18
31.99
43.86
59.76
67.77
57.45
24.58
-27.38
-89.35
-150.53
-201.73
-237.00
-253.42
-250.55
-230.66
-199.02
-163.38
-132.15
-111.62
-103.51
-104.50
-107.87
-106.45
-95.65
-75.10
-48.44
-21.34
1.03
16.27
25.70
33.83
46.53
68.34
100.02
137.55
173.25
198.53
207.11
197.12
171.23
134.78
93.42
51.53
11.71
-24.84
-57.56
-86.21
-110.97
-132.48
-151.96
-171.03
-191.19
-213.19
-236.62
-259.84
-280.15
-294.57
-301.09
-299.55
-291.99
-282.00
-273.43
-269.01
-269.51
-273.58
-278.29
-280.06
-275.50
-262.16
-239.16
-207.46
-169.44
-127.91
-85.05
-41.67
2.57
48.27
95.21
142.12
187.42
230.04
269.72
306.31
338.48
363.19
376.33
374.45
356.80
326.11
287.74
247.51
209.61
175.77
145.85
119.26
95.76
75.29
57.16
39.65
20.88
0.47
-19.38
-34.28
-39.76
-33.83
-18.60
0.23
15.98
24.09
23.86
18.12
11.13
6.36
5.38
8.22
14.30
23.06
33.86
45.32
55.12
60.53
59.64
52.35
40.67
27.89
17.25
10.79
8.79
9.93
12.00
12.67
10.31
4.61
-3.17
-10.70
-15.67
-16.67
-13.71
-7.95
-0.98
5.94
11.94
16.31
18.07
16.09
9.49
-1.62
-15.80
-30.57
-42.94
-50.16
-50.39
-43.14
-29.55
-12.40
4.46
16.97
21.87
17.51
4.11
-16.39
-40.66
-64.34
-82.57
-90.75
-85.79
-67.54
-39.60
-8.94
16.18
29.09
27.29
13.49
-5.35
-20.67
-25.39
-16.23
5.26
33.52
61.09
81.08
89.33
85.41
72.14
54.20
36.52
23.03
16.18
17.01
25.28
39.36
56.29
72.05
82.61
85.26
79.74
68.30
54.71
42.55
33.80
28.43
25.23
22.88
20.80
19.06
17.67
16.01
12.87
7.49
0.50
-5.78
-8.50
-6.46
-2.06
-1.71
-13.72
-44.13
-93.00
-152.91
-210.84
-252.95
-269.47
-257.44
-220.14
-164.47
-97.98
-27.35
41.42
101.80
146.47
168.96
166.23
141.03
101.94
60.87
28.64
10.97
6.64
8.54
7.27
-4.41
-28.27
-59.99
-91.06
-112.38
-117.66
-105.46
-79.13
-45.04
-10.51
17.96
35.90
41.20
34.23
17.61
-4.05
-24.99
-39.63
-43.95
-36.34
-18.09
7.16
34.34
58.18
74.33
80.20
75.59
62.60
45.17
27.91
14.88
8.91
11.36
22.36
40.89
64.75
90.65
114.57
132.29
140.43
137.43
124.20
104.14
82.22
63.42
50.95
45.12
43.09
40.13
31.86
16.57
-3.52
-23.06
-36.36
-40.90
-39.08
-37.18
-41.90
-56.59
-79.73
-106.08
-129.75
-147.19
-157.94
-163.22
-163.45
-157.09
-141.84
-117.32
-87.25
-59.22
-41.82
-40.49
-54.74
-78.25
-101.76
-117.00
-119.74
-110.58
-93.87
-75.54
-60.83
-52.75
-51.63
-55.41
-60.50
-63.13
-60.51
-51.81
-38.17
-21.91
-5.39
9.80
22.97
33.93
42.44
48.29
51.79
54.14
57.26
63.13
72.97
86.74
103.15
120.23
135.79
147.67
153.87
152.90
144.40
129.61
111.15
91.99
74.17
58.11
42.86
27.20
10.68
-6.03
-21.56
-34.40
-43.35
-47.59
-46.62
-40.41
-29.96
-17.78
-7.66
-3.51
-7.59
-19.55
-36.58
-54.96
-71.54
-84.51
-92.89
-95.41
-90.14
-75.22
-50.76
-20.38
8.73
27.88
30.59
15.83
-10.84
-38.99
-57.46
-58.68
-41.38
-10.53
25.06
56.38
77.36
86.09
84.39
76.03
64.96
54.13
45.34
39.58
37.13
37.37
38.54
37.93
32.67
21.03
3.51
-17.12
-36.87
-52.26
-61.61
-65.34
-64.98
-61.80
-55.83
-46.15
-32.50
-17.08
-5.06
-2.89
-14.96
-40.36
-72.18
-100.09
-115.51
-116.19
-107.48
-99.05
-99.13
-109.54
-124.89
-136.27
-137.03
-126.97
-111.96
-99.62
-94.21
-93.93
-92.59
-84.04
-66.42
-43.65
-23.44
-13.29
-16.78
-32.12
-53.15
-71.94
-81.62
-78.49
-62.82
-38.36
-10.93
13.86
32.61
45.48
56.03
69.59
90.94
122.30
162.47
207.37
251.44
289.18
316.33
330.48
331.03
318.82
295.50
263.44
225.68
185.74
147.01
112.10
82.32
57.67
37.21
19.56
2.77
-15.87
-39.76
-71.86
-112.71
-158.63
-201.67
-232.20
-243.20
-234.05
-211.15
-184.49
-161.94
-144.81
-127.70
-102.80
-65.97
-20.57
23.24
53.34
61.78
48.58
21.16
-9.74
-34.74
-48.65
-50.43
-41.36
-23.34
1.53
30.13
57.57
77.54
84.07
74.01
48.71
14.10
-21.10
-48.18
-61.14
-58.18
-41.80
-17.65
7.26
26.63
36.80
38.08
34.68
33.23
39.96
57.68
84.08
112.38
134.18
143.38
138.84
124.58
107.44
93.84
87.37
88.36
95.03
105.04
116.49
128.01
138.10
144.69
145.22
137.41
120.46
96.06
68.46
43.23
25.23
16.46
15.30
17.49
18.42
15.55
9.15
1.27
-6.12
-12.42
-18.39
-24.71
-31.03
-36.00
-38.60
-39.82
-43.44
-54.83
-78.73
-116.96
-166.97
-222.43
-274.75
-314.84
-335.00
-330.79
-302.67
-256.66
-202.76
-151.70
-111.58
-85.95
-74.47
-75.08
-85.76
-104.56
-128.01
-150.29
-164.38
-165.66
-155.03
-139.26
-127.36
-124.42
-127.78
-128.77
-119.09
-97.52
-71.91
-54.42
-53.35
-67.03
-83.60
-87.76
-70.11
-33.09
10.15
43.23
55.72
48.18
31.03
18.11
19.46
36.48
62.69
88.43
106.50
115.34
118.55
121.62
128.36
139.89
154.30
168.39
179.98
189.45
199.26
212.06
228.54
246.73
264.75
280.27
291.41
297.49
299.50
299.20
297.31
292.47
281.74
265.39
245.04
222.95
201.38
182.55
168.32
159.12
154.00
151.51
154.58
166.15
186.70
213.10
240.06
262.28
275.40
277.46
245.24
170.14
63.69
-47.31
-139.52
-204.74
-247.09
-275.17
-295.05
-308.77
-312.35
-302.74
-281.65
-255.76
-232.95
-218.76
-216.01
-224.60
-241.44
-259.33
-271.11
-271.63
-258.79
-233.00
-193.57
-147.74
-104.26
-70.17
-46.44
-29.66
-14.73
1.80
20.06
37.75
49.55
52.27
45.88
34.56
24.13
19.18
21.07
27.79
35.54
40.63
42.33
42.25
43.15
46.70
52.41
58.10
61.54
62.13
59.98
57.15
54.50
50.08
39.87
20.43
-8.18
-41.69
-73.28
-97.12
-110.70
-115.88
-117.05
-118.16
-120.33
-121.36
-117.42
-105.44
-85.24
-59.52
-32.75
-8.87
10.43
26.13
40.41
54.64
67.99
77.41
79.51
72.72
58.83
42.61
29.57
23.26
23.68
27.73
31.27
31.55
28.58
24.91
23.86
27.65
35.73
44.95
50.98
50.40
42.38
28.97
13.84
0.31
-10.14
-17.95
-24.34
-29.77
-33.51
-34.46
-32.65
-30.18
-30.52
-36.52
-48.41
-63.06
-75.22
-80.00
-75.16
-62.18
-45.65
-31.31
-23.84
-25.22
-34.13
-46.56
-57.50
-62.83
-60.84
-52.70
-41.47
-30.32
-20.91
-12.75
-4.12
6.36
18.50
30.45
39.79
44.97
46.06
44.38
41.51
38.38
35.10
31.28
26.71
21.66
16.81
12.80
9.83
7.44
4.56
0.02
-7.04
-16.56
-27.15
-36.10
-39.98
-35.82
-22.25
-0.32
26.71
54.36
78.50
96.60
107.89
112.83
112.40
107.55
99.13
88.18
75.84
63.53
52.92
45.59
42.54
43.89
48.78
55.24
60.73
62.39
59.16
52.99
47.99
47.96
53.54
61.25
64.14
55.49
31.00
-7.31
-51.05
-89.10
-113.00
-120.65
-115.64
-105.54
-97.65
-99.24
-113.83
-140.07
-172.50
-203.47
-225.40
-231.63
-220.13
-193.44
-161.79
-136.75
-125.82
-130.19
-146.37
-169.83
-196.31
-224.65
-233.37
-208.98
-153.68
-83.52
-14.62
44.16
82.63
103.03
105.94
92.68
63.22
19.66
-28.16
-68.62
-93.30
-100.83
-95.08
-83.63
-72.04
-64.42
-60.52
-56.15
-44.25
-21.22
10.13
43.48
72.14
93.56
107.72
117.59
128.44
148.90
185.09
236.82
298.30
360.03
412.52
447.22
459.38
430.44
358.05
260.66
165.95
92.03
41.14
7.42
-16.06
-33.26
-45.62
-51.11
-50.00
-47.68
-50.35
-61.83
-81.02
-103.11
-121.15
-129.24
-122.60
-101.82
-73.49
-46.87
-29.14
-20.60
-19.37
-21.68
-24.43
-25.22
-24.11
-22.95
-23.23
-24.58
-25.22
-24.03
-21.11
-17.72
-14.25
-10.21
-4.83
1.95
9.03
14.42
16.00
13.04
6.49
-1.53
-9.26
-16.43
-24.18
-34.09
-47.17
-63.53
-82.47
-103.29
-125.61
-149.08
-172.74
-194.52
-211.54
-221.22
-222.49
-216.31
-205.24
-191.97
-177.89
-162.43
-143.39
-118.11
-84.74
-43.21
4.49
54.33
101.02
139.13
164.49
175.45
173.35
161.88
145.75
129.23
115.36
106.01
102.37
105.28
114.95
130.25
148.36
165.20
176.61
179.74
174.04
161.05
143.57
124.56
106.23
89.71
75.20
62.14
49.63
36.65
22.54
7.27
-8.48
-23.45
-36.32
-46.18
-52.84
-56.82
-59.10
-60.72
-62.55
-65.08
-68.37
-71.90
-74.51
-74.62
-70.74
-62.15
-49.47
-34.55
-19.89
-7.90
-0.22
2.39
0.07
-6.14
-14.02
-20.14
-20.59
-12.28
5.25
29.01
53.38
72.64
83.86
88.49
91.45
97.97
110.17
125.26
136.89
138.48
126.91
104.12
75.95
49.10
28.19
14.54
7.20
4.69
6.20
11.36
19.01
26.38
29.63
25.70
14.12
-2.31
-18.74
-30.69
-36.30
-37.00
-36.39
-38.03
-43.57
-52.35
-62.26
-71.03
-77.11
-79.54
-77.67
-71.03
-59.97
-46.28
-33.29
-24.89
-23.75
-29.76
-39.87
-49.39
-54.16
-52.32
-44.75
-33.99
-22.64
-12.26
-3.46
3.34
7.17
6.45
-0.19
-12.93
-30.12
-48.51
-64.16
-73.72
-75.55
-70.24
-60.34
-49.62
-41.57
-37.81
-36.91
-34.42
-24.67
-3.63
28.32
65.51
98.88
119.90
124.51
114.88
97.93
81.70
71.57
68.62
70.71
75.04
80.30
86.95
95.82
106.26
115.60
120.27
117.79
108.21
93.85
77.89
62.41
47.63
32.43
15.78
-2.22
-20.19
-36.37
-49.72
-60.28
-68.91
-76.39
-83.00
-88.49
-92.72
-95.96
-98.85
-101.84
-104.64
-106.27
-105.53
-101.76
-95.27
-87.09
-78.43
-70.20
-62.89
-56.92
-53.09
-52.56
-56.39
-64.91
-77.26
-91.62
-105.67
-117.19
-124.28
-125.33
-118.93
-104.21
-81.48
-52.73
-21.20
9.85
38.83
66.47
94.75
124.64
153.89
176.71
185.89
176.43
148.61
108.61
66.03
29.86
4.92
-9.15
-16.24
-20.57
-24.17
-26.24
-24.36
-16.53
-2.60
15.55
34.79
52.06
65.31
73.71
77.18
75.76
69.25
57.56
41.45
23.01
5.33
-8.61
-17.43
-22.09
-25.39
-30.25
-37.95
-47.17
-54.87
-58.19
-56.38
-51.32
-46.41
-44.47
-46.03
-49.12
-50.54
-47.68
-39.74
-28.03
-15.19
-4.07
3.26
5.87
4.03
-1.10
-8.06
-15.79
-24.30
-34.53
-47.53
-63.09
-78.78
-90.20
-92.93
-84.85
-67.60
-45.89
-24.88
-7.15
8.53
25.89
47.77
72.95
95.53
107.47
102.90
81.73
50.29
18.53
-4.32
-13.53
-10.01
1.34
14.81
26.67
36.15
44.76
54.41
65.86
78.10
88.81
95.59
97.01
93.11
85.21
75.12
64.27
53.21
41.76
29.53
16.68
4.14
-6.58
-14.18
-18.38
-20.31
-22.19
-26.36
-34.17
-45.13
-56.94
-66.41
-70.69
-68.53
-60.77
-49.81
-38.45
-28.62
-20.81
-14.35
-8.50
-3.28
0.30
0.88
-2.20
-8.33
-15.83
-22.86
-28.31
-32.02
-34.37
-35.61
-35.60
-34.14
-31.40
-28.10
-24.94
-21.70
-16.90
-8.34
5.43
23.68
43.17
59.35
68.45
69.39
64.22
56.91
51.26
49.27
50.65
53.88
57.61
61.59
66.69
74.00
83.77
94.83
105.04
111.99
113.92
110.16
101.14
87.98
72.07
54.77
37.33
20.94
6.82
-3.76
-9.73
-10.75
-7.67
-2.75
0.86
0.16
-6.44
-18.21
-32.33
-44.83
-52.28
-52.90
-47.00
-36.46
-23.65
-10.63
1.16
10.67
16.75
17.94
12.91
1.22
-16.08
-36.49
-56.92
-75.00
-90.02
-102.92
-115.34
-128.22
-140.92
-151.28
-156.60
-155.00
-146.44
-132.69
-116.43
-99.97
-84.43
-69.75
-55.50
-41.74
-29.41
-19.76
-13.40
-9.55
-6.20
-1.17
6.51
15.96
24.99
31.66
35.84
39.50
45.62
56.12
70.32
84.80
95.08
97.89
92.89
82.73
71.46
62.19
55.52
49.50
41.40
29.60
14.91
0.06
-11.95
-19.54
-23.22
-25.00
-27.01
-30.33
-34.79
-39.54
-43.86
-47.52
-50.52
-52.58
-52.96
-50.73
-45.37
-37.18
-27.29
-17.32
-8.95
-3.73
-2.81
-6.80
-15.40
-27.29
-40.30
-52.08
-61.13
-67.40
-72.35
-78.09
-86.19
-96.63
-107.80
-117.26
-122.90
-123.62
-119.05
-108.63
-90.78
-63.58
-26.41
18.00
63.10
100.19
121.93
125.65
114.48
95.64
76.73
62.39
53.16
46.94
41.82
38.11
38.27
45.12
59.47
79.03
99.29
115.69
125.69
129.46
129.03
126.38
122.03
114.88
103.41
87.17
67.56
47.26
29.01
14.32
3.16
-5.44
-12.49
-18.43
-23.26
-27.03
-30.35
-34.13
-39.08
-45.04
-50.88
-54.92
-55.66
-52.40
-45.53
-36.38
-27.01
-19.73
-16.55
-18.53
-25.26
-34.80
-44.33
-51.30
-54.62
-55.14
-55.10
-56.63
-60.43
-65.22
-68.58
-68.50
-64.48
-57.28
-47.43
-33.94
-14.47
12.59
45.65
78.80
103.75
113.74
107.41
89.83
70.01
56.09
51.25
52.72
54.34
50.92
41.59
30.24
23.04
24.65
35.52
51.79
67.44
77.78
81.81
82.52
84.80
92.38
105.30
119.56
128.88
127.80
114.08
89.48
58.61
26.59
-2.76
-27.75
-48.22
-64.53
-77.07
-86.12
-92.32
-96.79
-100.76
-104.89
-108.89
-111.56
-111.64
-108.65
-103.36
-97.64
-93.64
-92.93
-95.90
-101.78
-109.17
-116.95
-124.83
-133.30
-143.05
-153.93
-164.22
-170.59
-169.19
-157.13
-133.96
-101.98
-65.45
-28.88
4.44
32.99
56.28
73.77
84.24
86.26
79.45
65.68
49.21
35.33
28.21
29.09
35.83
44.32
50.71
53.45
53.93
55.56
61.73
73.82
90.43
107.93
122.26
130.64
132.56
129.27
122.32
112.40
99.06
81.80
61.33
40.21
22.01
9.59
3.46
1.39
-0.35
-4.99
-13.56
-24.54
-34.99
-42.26
-45.16
-44.20
-40.72
-35.89
-30.08
-23.07
-14.62
-5.12
4.19
11.66
15.85
16.25
13.46
8.83
3.81
-0.86
-5.33
-10.32
-16.47
-23.69
-31.10
-37.56
-42.41
-45.79
-48.19
-49.46
-48.06
-41.45
-27.59
-6.94
16.62
36.86
48.02
47.92
39.39
28.87
23.00
25.07
33.59
43.72
50.56
52.18
50.46
49.49
52.65
60.46
70.37
78.51
82.08
80.75
76.28
70.81
65.04
57.94
47.76
33.83
17.49
1.64
-10.88
-18.88
-23.27
-26.34
-30.27
-36.00
-43.08
-50.22
-56.16
-59.98
-61.07
-58.79
-52.57
-42.21
-28.38
-12.73
2.48
15.01
23.14
26.04
23.77
17.16
7.62
-3.09
-13.13
-20.77
-24.63
-23.88
-18.60
-9.99
-0.28
7.84
12.19
11.94
7.83
1.63
-4.85
-10.72
-16.21
-22.13
-29.00
-36.54
-43.69
-49.23
-52.41
-53.14
-51.85
-49.12
-45.46
-41.29
-37.12
-33.40
-30.40
-27.88
-25.07
-20.84
-14.19
-4.72
7.21
20.53
33.89
46.07
56.26
64.16
69.69
72.74
72.87
69.59
62.78
53.15
42.28
32.17
24.38
19.29
15.97
12.70
8.06
1.72
-5.40
-11.71
-15.96
-17.91
-18.22
-17.87
-17.33
-16.21
-13.64
-8.88
-1.95
6.27
14.42
21.22
25.79
27.60
26.30
21.54
13.21
1.76
-11.59
-25.09
-37.19
-47.04
-54.71
-60.87
-66.18
-70.94
-75.07
-78.35
-80.48
-80.90
-78.58
-72.04
-60.10
-42.92
-22.75
-3.65
10.02
15.57
13.44
7.07
1.18
-0.63
2.58
9.08
16.13
21.85
26.37
31.37
38.63
48.48
59.34
68.55
73.90
74.77
72.29
68.44
64.72
61.28
56.96
50.02
39.25
24.75
8.17
-7.75
-20.05
-26.73
-27.60
-24.38
-20.18
-18.16
-20.30
-26.60
-35.18
-43.28
-48.56
-50.13
-48.69
-46.08
-44.12
-43.84
-45.17
-47.18
-48.82
-49.51
-49.38
-49.01
-49.05
-49.80
-51.44
-54.37
-59.50
-67.96
-80.15
-94.94
-109.54
-120.50
-125.27
-123.24
-115.55
-103.52
-87.06
-64.32
-33.31
5.52
47.51
84.47
107.82
112.60
100.05
76.89
52.08
32.64
21.05
15.60
13.09
11.85
13.18
20.35
35.90
59.24
86.06
109.98
125.59
130.79
127.44
119.74
111.58
104.45
97.12
86.99
72.23
53.18
32.27
12.52
-4.34
-18.78
-33.00
-49.35
-68.81
-90.43
-112.18
-132.33
-150.29
-166.55
-181.55
-194.78
-204.50
-208.78
-206.91
-199.83
-189.23
-175.90
-159.15
-137.53
-110.52
-79.68
-48.40
-20.09
3.66
23.78
43.11
64.23
88.00
113.39
138.53
161.63
180.96
194.67
200.67
198.29
188.16
172.31
153.55
134.72
117.63
102.78
90.10
79.84
74.71
77.00
86.45
99.63
111.66
118.13
116.53
106.81
91.56
77.59
70.64
72.27
79.30
86.61
90.15
88.70
84.29
81.39
88.15
109.32
143.17
182.48
219.22
248.22
267.80
278.44
258.21
196.67
103.01
1.19
-87.75
-154.33
-197.59
-220.24
-228.30
-226.21
-215.04
-197.63
-179.66
-167.77
-165.20
-170.35
-178.12
-183.11
-181.86
-171.66
-153.37
-131.21
-110.86
-96.46
-89.50
-89.47
-94.79
-102.68
-107.72
-104.45
-89.75
-64.42
-32.72
-0.89
25.25
42.63
52.34
59.50
69.41
84.08
100.63
112.84
114.47
102.64
79.48
51.39
26.31
10.05
4.02
5.48
10.05
14.45
18.14
23.05
31.67
44.75
60.16
73.67
81.08
80.56
73.79
65.02
58.71
57.00
58.66
59.84
56.24
45.31
27.33
4.84
-18.60
-39.89
-57.00
-69.10
-76.28
-79.34
-79.64
-78.81
-78.13
-77.91
-77.26
-74.55
-68.41
-58.62
-46.25
-33.20
-21.28
-11.66
-4.90
-1.30
-1.24
-4.95
-12.16
-21.80
-32.27
-42.10
-50.40
-56.75
-60.52
-60.42
-54.76
-42.60
-25.17
-6.20
9.27
17.37
17.61
13.31
9.68
10.62
16.14
22.23
23.28
15.56
-0.18
-19.01
-34.47
-42.23
-42.34
-38.66
-36.01
-36.77
-39.18
-38.43
-29.64
-11.13
14.24
40.28
60.48
71.02
72.22
67.58
61.24
55.64
50.50
43.82
33.73
19.94
3.98
-11.85
-25.78
-37.25
-46.62
-54.25
-59.87
-62.67
-62.03
-58.33
-53.04
-48.15
-45.15
-44.28
-44.36
-43.20
-38.38
-27.97
-11.26
10.67
34.78
56.55
71.33
75.89
69.61
54.40
33.49
10.08
-13.24
-33.92
-48.79
-54.20
-47.76
-30.54
-7.92
12.21
23.43
24.72
21.35
21.72
31.79
50.57
70.00
79.41
71.94
48.85
18.82
-7.13
-21.85
-25.49
-24.28
-25.66
-33.11
-43.93
-50.94
-46.89
-28.77
0.74
34.79
65.95
89.42
104.17
111.70
113.60
109.59
97.16
73.20
36.41
-10.69
-61.66
-108.08
-142.71
-162.42
-169.33
-169.67
-170.77
-177.89
-192.08
-210.11
-226.26
-234.81
-232.09
-217.10
-190.86
-155.24
-112.16
-63.50
-11.38
41.50
92.26
138.24
177.55
209.27
233.20
249.57
258.91
262.27
261.43
258.88
256.99
256.86
257.27
254.82
245.27
225.54
195.19
156.66
114.21
71.97
32.44
-4.05
-38.48
-71.70
-103.10
-130.32
-150.33
-161.17
-163.43
-160.46
-157.04
-156.97
-160.80
-165.07
-163.64
-150.86
-124.70
-88.35
-49.18
-15.60
6.48
15.88
16.04
12.96
12.27
17.02
26.89
39.01
49.58
55.35
54.44
46.54
32.54
14.19
-6.19
-26.01
-42.70
-54.08
-58.91
-57.20
-50.21
-39.98
-28.74
-18.23
-9.44
-2.63
2.56
6.86
11.12
16.08
22.06
28.84
35.83
42.36
47.90
52.16
55.09
56.78
57.73
59.28
63.53
72.64
87.65
107.25
127.96
145.50
157.17
163.52
168.17
175.72
189.04
207.37
226.53
241.12
247.41
245.07
237.09
228.08
221.83
219.39
218.44
213.85
199.85
173.00
134.77
91.88
54.21
30.60
24.91
34.45
52.10
70.94
88.35
106.81
130.96
162.76
198.23
228.19
242.56
235.76
209.53
171.62
131.53
95.78
65.69
38.27
9.20
-24.06
-61.04
-99.05
-135.28
-168.82
-201.26
-236.23
-277.80
-328.39
-387.16
-449.51
-507.99
-554.49
-582.87
-590.93
-580.85
-557.82
-527.70
-494.80
-460.96
-425.99
-388.88
-349.11
-307.04
-263.58
-219.48
-174.59
-127.63
-76.57
-19.63
43.82
112.32
182.19
248.04
303.84
344.16
365.21
365.47
346.09
311.09
267.28
223.26
187.54
165.85
159.11
162.79
168.43
166.56
150.09
116.61
68.97
13.95
-40.18
-86.19
-119.86
-140.42
-149.90
-152.02
-150.84
-149.75
-150.93
-155.17
-161.90
-169.12
-173.75
-172.57
-163.58
-147.19
-126.56
-106.62
-92.12
-85.71
-87.10
-93.51
-101.30
-107.54
-110.94
-111.77
-110.84
-108.34
-103.42
-94.51
-80.56
-62.21
-41.93
-23.08
-8.15
2.62
11.19
20.14
30.48
40.70
48.03
51.11
