1587567895.00
64.000000
-0.00
-0.00
-0.00
-0.00
-0.00
-0.00
-0.00
-0.00
-0.00
-0.00
0.00
0.01
0.01
-0.00
-0.03
-0.05
-0.05
0.00
0.13
0.36
0.66
1.01
1.37
1.72
2.06
2.41
2.79
3.24
3.79
4.42
5.10
5.76
6.38
6.96
7.51
8.10
8.76
9.61
10.60
11.67
12.71
13.68
14.60
15.59
16.82
18.43
20.67
23.39
26.36
29.34
32.15
34.80
37.53
40.71
44.64
49.74
55.80
62.44
69.14
75.55
81.58
87.52
93.89
101.18
110.07
120.34
131.52
142.93
153.96
164.33
174.24
184.63
194.11
205.18
218.99
236.24
256.08
275.57
289.85
293.55
282.65
256.06
216.49
168.54
117.37
66.75
18.29
-28.16
-73.49
-118.43
-163.26
-207.79
-251.99
-295.11
-335.17
-368.76
-391.82
-401.12
-395.71
-377.64
-351.08
-320.93
-291.20
-264.06
-239.93
-218.27
-198.41
-180.04
-163.15
-147.65
-133.36
-119.98
-107.31
-95.33
-84.21
-74.17
-65.24
-57.24
-49.75
-42.33
-34.65
-26.65
-18.53
-10.74
-3.87
1.54
5.20
7.18
7.88
7.91
7.84
8.07
8.72
9.75
11.07
12.62
14.39
16.34
18.28
19.86
20.66
20.40
19.05
16.95
14.63
12.65
11.38
10.90
11.03
11.45
11.90
12.30
12.81
13.62
14.84
16.39
17.93
19.02
19.32
18.68
17.27
15.56
14.17
13.60
14.14
15.65
17.63
19.42
20.50
20.63
19.97
18.88
17.66
16.45
15.15
13.64
11.93
10.23
8.83
7.85
7.15
6.36
5.14
3.50
1.78
0.59
0.39
1.27
2.89
4.66
6.10
7.06
7.71
8.37
9.21
10.15
10.85
11.00
10.48
9.49
8.38
7.45
6.76
6.16
5.37
4.25
2.93
1.75
1.07
1.07
1.65
2.43
3.00
3.08
2.64
1.91
1.20
0.76
0.68
0.86
1.05
1.03
0.63
-0.10
-1.02
-1.88
-2.48
-2.73
-2.67
-2.45
-2.26
-2.23
-2.40
-2.73
-3.14
-3.57
-3.97
-4.34
-4.68
-4.98
-5.20
-5.32
-5.29
-5.10
-4.72
-4.16
-3.45
-2.66
-1.91
-1.31
-0.93
-0.73
-0.63
-0.47
-0.17
0.29
0.85
1.41
1.93
2.45
3.01
3.64
4.29
4.84
5.19
5.27
5.13
4.84
4.50
4.17
3.86
3.54
3.22
2.96
2.85
2.99
3.44
4.17
5.03
5.78
6.18
6.07
5.46
4.46
3.30
2.22
1.40
0.96
0.92
1.23
1.75
2.33
2.83
3.21
3.49
3.72
3.92
3.99
3.76
3.17
2.32
1.58
1.46
2.42
4.55
7.52
10.62
13.04
14.26
14.31
13.79
13.69
14.87
17.65
21.67
26.03
29.63
31.63
31.65
29.81
26.66
22.88
19.14
15.89
13.26
11.06
8.73
5.42
0.39
-6.70
-15.48
-24.81
-33.19
-39.28
-42.48
-43.18
-42.56
-42.05
-42.58
-44.10
-45.57
-45.45
-42.58
-36.68
-28.51
-19.36
-10.46
-2.39
4.87
11.63
18.02
23.56
27.40
28.72
27.30
23.74
19.40
15.92
14.62
16.02
19.67
24.39
28.83
32.08
34.01
35.21
36.48
38.29
40.47
42.36
43.24
42.80
41.35
39.66
38.65
39.21
42.15
47.92
55.94
64.10
68.76
65.85
52.74
29.99
1.67
-26.00
-47.07
-58.34
-60.05
-54.97
-46.49
-37.11
-28.26
-21.10
-17.28
-18.71
-26.44
-39.43
-54.27
-66.32
-71.74
-69.01
-59.42
-46.17
-32.71
-21.45
-13.28
-8.00
-5.04
-3.99
-4.66
-6.84
-10.02
-13.36
-15.99
-17.24
-17.10
-16.15
-15.31
-15.33
-16.48
-18.32
-20.04
-20.86
-20.40
-18.95
-17.31
-16.31
-16.45
-17.61
-19.10
-20.04
-19.76
-18.15
-15.82
-13.86
-13.43
-15.12
-18.68
-22.96
-26.34
-27.54
-26.22
-23.16
-20.00
-18.47
-19.67
-23.85
-30.64
-39.12
-47.82
-54.42
-55.98
-49.66
-34.13
-10.65
16.78
42.67
62.20
72.96
75.60
72.96
68.29
63.68
59.56
55.24
50.01
44.06
38.47
34.73
33.90
36.10
40.43
45.16
48.29
48.30
44.51
37.29
27.90
18.02
9.10
2.03
-3.10
-6.70
-9.42
-11.82
-14.19
-16.53
-18.72
-20.68
-22.34
-23.61
-24.28
-24.02
-22.62
-20.21
-17.48
-15.52
-15.32
-17.07
-19.75
-21.29
-19.59
-13.64
-4.52
4.89
11.01
11.30
5.43
-4.73
-16.11
-25.87
-32.28
-34.79
-33.51
-28.63
-20.43
-9.57
2.54
13.91
22.56
27.20
27.67
24.80
19.97
14.67
10.13
7.25
6.54
7.99
11.02
14.65
17.82
19.88
20.75
20.91
20.92
21.08
21.17
20.66
19.04
16.13
12.23
7.95
3.92
0.54
-2.17
-4.42
-6.37
-7.89
-8.54
-7.86
-5.71
-2.57
0.63
2.93
3.75
3.15
1.68
0.04
-1.33
-2.37
-3.30
-4.31
-5.35
-6.14
-6.32
-5.73
-4.44
-2.80
-1.18
0.09
0.86
1.18
1.23
1.24
1.38
1.70
2.15
2.62
3.07
3.49
3.89
4.26
4.48
4.39
3.86
2.85
1.42
-0.21
-1.72
-2.82
-3.33
-3.20
-2.59
-1.78
-1.07
-0.71
-0.83
-1.37
-2.11
-2.77
-3.10
-2.97
-2.42
-1.66
-0.97
-0.57
-0.57
-0.94
-1.49
-1.94
-2.01
-1.50
-0.43
0.99
2.36
3.24
3.36
2.73
1.65
0.57
-0.12
-0.28
-0.05
0.24
0.19
-0.46
-1.74
-3.45
-5.17
-6.31
-6.29
-4.71
-1.61
2.49
6.67
9.88
11.33
10.71
8.31
4.84
1.22
-1.71
-3.30
-3.23
-1.44
1.82
5.97
10.11
13.19
14.27
12.80
8.90
3.34
-2.61
-7.59
-10.52
-10.91
-8.93
-5.32
-1.13
2.66
5.33
6.58
6.50
5.45
3.93
2.43
1.34
0.92
1.20
1.94
2.72
3.02
2.42
0.76
-1.80
-4.81
-7.72
-9.98
-11.23
-11.34
-10.38
-8.63
-6.48
-4.36
-2.67
-1.68
-1.44
-1.82
-2.55
-3.34
-3.99
-4.40
-4.63
-4.83
-5.11
-5.51
-5.93
-6.25
-6.40
-6.41
-6.48
-6.84
-7.64
-8.84
-10.23
-11.51
-12.54
-13.31
-14.06
-15.11
-16.68
-18.87
-21.75
-25.33
-29.36
-33.03
-34.87
-33.08
-26.43
-15.01
-0.61
13.81
25.30
32.05
34.06
32.78
30.14
27.52
25.32
23.19
20.74
18.01
15.57
14.05
13.65
13.82
13.55
11.84
8.20
3.13
-2.17
-6.33
-8.45
-8.52
-7.30
-5.83
-4.86
-4.54
-4.45
-4.10
-3.25
-2.15
-1.27
-0.99
-1.28
-1.72
-1.78
-1.15
0.03
1.27
2.01
1.98
1.27
0.31
-0.42
-0.63
-0.35
0.18
0.64
0.87
0.88
0.78
0.67
0.57
0.43
0.19
-0.09
-0.29
-0.31
-0.13
0.12
0.19
-0.11
-0.89
-2.11
-3.65
-5.40
-7.28
-9.15
-10.70
-11.54
-11.29
-9.85
-7.50
-4.91
-2.87
-1.99
-2.50
-4.22
-6.61
-8.93
-10.45
-10.51
-8.68
-4.93
0.29
6.04
11.16
14.69
16.25
16.19
15.41
14.90
15.24
16.39
17.75
18.60
18.46
17.39
15.86
14.50
13.77
13.79
14.34
14.99
15.32
15.02
13.97
12.28
10.22
8.12
6.20
4.47
2.79
0.95
-1.12
-3.25
-5.11
-6.41
-7.12
-7.52
-8.09
-9.27
-11.16
-13.40
-15.38
-16.45
-16.27
-15.01
-13.19
-11.57
-10.73
-10.92
-12.01
-13.64
-15.45
-17.29
-19.29
-21.71
-24.77
-28.45
-32.44
-36.13
-38.85
-40.11
-39.81
-38.31
-36.45
-35.29
-35.89
-39.21
-45.82
-55.53
-66.86
-76.64
-80.52
-74.42
-56.38
-28.07
5.31
36.79
60.36
73.21
76.43
73.68
68.91
64.48
60.65
56.53
51.47
45.94
41.21
38.45
37.80
38.21
38.08
36.10
31.91
26.21
20.31
15.47
12.42
11.18
11.18
11.57
11.54
10.54
8.46
5.64
2.70
0.33
-0.99
-1.20
-0.68
-0.11
-0.15
-1.16
-3.04
-5.34
-7.42
-8.81
-9.42
-9.52
-9.61
-10.11
-11.19
-12.80
-14.75
-16.87
-18.93
-20.54
-21.02
-19.53
-15.39
-8.58
0.11
9.16
16.94
22.29
24.92
25.37
24.58
23.37
22.13
20.86
19.40
17.70
15.89
14.22
12.80
11.54
10.17
8.41
6.22
3.86
1.77
0.39
-0.04
0.37
1.29
2.29
3.04
3.45
3.60
3.69
3.87
4.15
4.47
4.71
4.83
4.92
5.15
5.69
6.59
7.73
8.79
9.51
9.73
9.60
9.48
9.82
10.92
12.73
14.85
16.66
17.64
17.62
16.86
15.97
15.60
16.24
18.10
21.13
24.95
28.71
31.00
30.09
24.53
13.92
-0.52
-16.16
-29.87
-39.24
-43.49
-43.63
-41.61
-39.29
-37.57
-36.32
-34.93
-32.99
-30.74
-28.90
-28.20
-28.90
-30.59
-32.41
-33.36
-32.84
-30.78
-27.65
-24.24
-21.32
-19.42
-18.63
-18.56
-18.41
-17.09
-13.47
-6.66
3.62
16.97
32.30
48.18
63.12
76.07
86.46
94.30
100.10
104.67
108.71
112.20
114.03
112.06
103.82
87.79
64.38
36.21
7.37
-18.13
-37.79
-51.28
-59.98
-65.79
-70.06
-73.12
-74.67
-74.50
-73.03
-71.27
-70.24
-70.40
-71.28
-71.77
-70.49
-66.46
-59.52
-50.30
-39.87
-29.30
-19.20
-9.64
-0.25
9.36
19.29
29.16
38.23
45.77
51.39
55.21
57.76
59.72
61.57
63.44
65.20
66.64
67.62
68.08
67.89
66.60
63.41
57.35
47.68
34.34
18.27
1.24
-14.61
-27.45
-36.26
-41.14
-42.97
-43.03
-42.39
-41.58
-40.50
-38.60
-35.26
-30.05
-22.97
-14.53
-5.57
2.97
10.28
15.86
19.50
21.18
20.95
18.91
15.29
10.43
4.82
-1.09
-7.00
-12.74
-18.21
-23.17
-27.18
-29.75
-30.58
-29.79
-27.98
-25.99
-24.51
-23.77
-23.43
-22.82
-21.31
-18.67
-15.19
-11.54
-8.43
-6.30
-5.19
-4.86
-4.93
-5.15
-5.44
-5.78
-6.14
-6.34
-6.18
-5.50
-4.36
-3.00
-1.81
-1.08
-0.90
-1.13
-1.46
-1.57
-1.25
-0.49
0.52
1.52
2.26
2.56
2.40
1.86
1.08
0.19
-0.73
-1.63
-2.45
-3.09
-3.41
-3.34
-2.89
-2.19
-1.45
-0.87
-0.56
-0.50
-0.58
-0.66
-0.65
-0.47
-0.08
0.53
1.30
2.03
2.45
2.22
1.17
-0.63
-2.86
-4.99
-6.50
-7.05
-6.62
-5.42
-3.84
-2.29
-1.03
-0.15
0.44
0.87
1.29
1.72
2.14
2.45
2.59
2.57
2.44
2.26
2.06
1.78
1.30
0.49
-0.68
-2.10
-3.49
-4.55
-5.02
-4.80
-4.02
-2.96
-1.93
-1.16
-0.71
-0.54
-0.53
-0.57
-0.61
-0.63
-0.64
-0.59
-0.48
-0.29
-0.06
0.15
0.37
0.66
1.19
2.07
3.28
4.63
5.79
6.40
6.26
5.37
3.87
1.97
-0.16
-2.47
-4.87
-7.17
-9.08
-10.20
-10.29
-9.34
-7.61
-5.56
-3.63
-2.07
-0.97
-0.36
-0.29
-0.85
-2.12
-3.90
-5.69
-6.82
-6.73
-5.27
-2.79
-0.06
2.11
3.22
3.27
2.76
2.44
3.04
4.96
8.09
11.84
15.43
18.11
19.52
19.81
19.55
19.46
20.09
21.66
23.88
26.04
27.13
26.22
22.84
17.23
10.45
3.96
-0.91
-3.59
-4.44
-4.55
-5.04
-6.54
-8.93
-11.60
-13.84
-15.30
-15.99
-16.09
-15.66
-14.53
-12.38
-9.03
-4.60
0.35
5.04
8.65
10.67
10.99
9.99
8.34
6.87
6.22
6.76
8.52
11.23
14.27
16.73
17.43
15.23
9.52
0.74
-9.59
-19.20
-25.92
-28.61
-27.53
-24.10
-20.17
-17.13
-15.43
-14.77
-14.51
-14.24
-13.95
-13.84
-14.03
-14.34
-14.29
-13.42
-11.49
-8.69
-5.61
-2.97
-1.32
-0.74
-0.87
-1.04
-0.62
0.64
2.55
4.63
6.41
7.67
8.53
9.22
9.92
10.57
10.92
10.67
9.65
7.96
5.89
3.88
2.39
1.75
2.14
3.49
5.49
7.64
9.40
10.36
10.32
9.35
7.66
5.46
2.87
-0.05
-3.20
-6.36
-9.17
-11.29
-12.47
-12.77
-12.44
-11.90
-11.53
-11.57
-12.08
-13.03
-14.34
-15.93
-17.68
-19.43
-20.89
-21.73
-21.58
-20.19
-17.53
-13.84
-9.62
-5.58
-2.39
-0.55
-0.19
-1.03
-2.48
-3.87
-4.64
-4.57
-3.82
-2.81
-2.08
-2.07
-3.05
-4.99
-7.67
-10.74
-13.85
-16.75
-19.37
-21.79
-24.20
-26.76
-29.56
-32.53
-35.46
-37.99
-39.66
-39.98
-38.69
-35.88
-32.09
-28.11
-24.62
-21.51
-17.70
-11.24
-0.16
16.53
38.09
62.04
84.91
103.23
114.37
116.90
110.61
96.55
76.85
54.66
33.54
16.59
5.57
0.45
-0.18
1.81
5.10
9.24
14.28
19.96
25.34
29.03
29.95
28.12
24.65
21.00
17.94
14.94
10.27
2.02
-10.59
-26.59
-43.35
-57.66
-67.09
-70.82
-69.74
-65.67
-60.58
-55.97
-53.07
-53.13
-57.32
-65.82
-76.66
-85.25
-85.50
-72.28
-44.12
-4.60
38.60
76.79
103.74
117.97
122.56
122.90
123.83
127.93
135.39
145.16
155.98
166.43
174.28
175.87
166.68
143.30
105.52
57.56
7.20
-36.86
-68.21
-84.75
-88.75
-85.04
-78.47
-72.22
-67.35
-63.57
-60.32
-57.46
-55.22
-53.82
-53.06
-52.26
-50.68
-47.91
-44.09
-39.89
-36.18
-33.60
-32.26
-31.79
-31.47
-30.56
-28.65
-25.75
-22.32
-19.04
-16.51
-15.02
-14.41
-14.15
-13.66
-12.55
-10.79
-8.68
-6.67
-5.07
-3.96
-3.19
-2.51
-1.77
-0.94
-0.10
0.62
1.16
1.53
1.75
1.87
1.95
2.05
2.22
2.51
2.91
3.33
3.66
3.81
3.76
3.58
3.38
3.26
3.29
3.44
3.69
3.97
4.28
4.61
4.98
5.39
5.79
6.11
6.26
6.14
5.69
4.92
3.90
2.72
1.49
0.29
-0.85
-1.90
-2.83
-3.59
-4.11
-4.37
-4.40
-4.33
-4.28
-4.35
-4.57
-4.85
-5.08
-5.14
-4.99
-4.64
-4.17
-3.63
-3.06
-2.50
-1.96
-1.46
-1.00
-0.61
-0.27
0.02
0.31
0.64
1.05
1.55
2.11
2.67
3.15
3.50
3.70
3.74
3.63
3.38
2.98
2.46
1.87
1.32
0.89
0.64
0.52
0.44
0.33
0.23
0.24
0.50
1.06
1.83
2.57
3.04
3.05
2.61
1.87
1.00
0.17
-0.59
-1.28
-1.93
-2.45
-2.72
-2.62
-2.12
-1.29
-0.33
0.56
1.21
1.59
1.76
1.82
1.85
1.89
1.88
1.77
1.49
1.04
0.44
-0.25
-0.93
-1.52
-1.97
-2.27
-2.43
-2.46
-2.41
-2.28
-2.12
-1.95
-1.83
-1.78
-1.78
-1.75
-1.63
-1.39
-1.09
-0.85
-0.77
-0.85
-1.00
-1.10
-1.09
-1.00
-0.96
-1.11
-1.44
-1.88
-2.25
-2.43
-2.36
-2.08
-1.71
-1.34
-1.02
-0.79
-0.64
-0.57
-0.58
-0.64
-0.76
-0.88
-0.94
-0.90
-0.68
-0.30
0.21
0.74
1.19
1.50
1.66
1.75
1.79
1.83
1.85
1.84
1.80
1.74
1.71
1.65
1.53
1.32
1.04
0.80
0.69
0.78
1.04
1.38
1.71
2.00
2.23
2.43
2.58
2.64
2.51
2.14
1.55
0.82
0.11
-0.45
-0.79
-0.93
-0.97
-1.03
-1.21
-1.52
-1.90
-2.22
-2.39
-2.34
-2.07
-1.66
-1.18
-0.73
-0.33
-0.00
0.26
0.45
0.49
0.30
-0.16
-0.86
-1.63
-2.24
-2.50
-2.38
-1.99
-1.57
-1.33
-1.35
-1.56
-1.81
-1.93
-1.87
-1.63
-1.29
-0.93
-0.64
-0.50
-0.55
-0.80
-1.19
-1.60
-1.92
-2.07
-2.08
-2.05
-2.10
-2.28
-2.58
-2.94
-3.29
-3.52
-3.56
-3.29
-2.64
-1.60
-0.30
1.01
2.05
2.60
2.62
2.25
1.74
1.29
1.00
0.87
0.80
0.76
0.74
0.76
0.87
1.04
1.22
1.32
1.31
1.24
1.21
1.37
1.82
2.53
3.36
4.06
4.38
4.14
3.32
2.02
0.47
-1.10
-2.50
-3.58
-4.21
-4.32
-3.93
-3.18
-2.34
-1.72
-1.48
-1.57
-1.70
-1.50
-0.73
0.54
1.93
2.96
3.28
2.87
2.05
1.26
0.81
0.77
0.93
0.98
0.75
0.25
-0.31
-0.69
-0.74
-0.44
0.09
0.64
1.06
1.23
1.18
1.02
0.88
0.86
1.00
1.20
1.38
1.42
1.33
1.17
1.07
1.12
1.34
1.65
1.91
2.02
1.90
1.60
1.24
0.92
0.75
0.76
0.88
1.07
1.23
1.36
1.42
1.44
1.42
1.37
1.33
1.34
1.45
1.68
2.03
2.41
2.69
2.74
2.46
1.86
1.08
0.34
-0.11
-0.20
0.02
0.30
0.40
0.15
-0.45
-1.25
-2.05
-2.68
-3.11
-3.35
-3.43
-3.35
-3.10
-2.71
-2.27
-1.89
-1.69
-1.70
-1.84
-2.00
-2.06
-1.98
-1.82
-1.66
-1.56
-1.52
-1.46
-1.34
-1.15
-0.96
-0.84
-0.85
-0.96
-1.07
-1.08
-0.98
-0.84
-0.80
-0.97
-1.34
-1.79
-2.17
-2.39
-2.46
-2.48
-2.60
-2.84
-3.15
-3.39
-3.42
-3.17
-2.70
-2.11
-1.54
-1.06
-0.67
-0.35
-0.06
0.21
0.50
0.82
1.24
1.83
2.64
3.66
4.79
5.86
6.69
7.16
7.26
7.08
6.79
6.57
6.49
6.54
6.60
6.52
6.16
5.45
4.43
3.21
1.92
0.67
-0.52
-1.69
-2.92
-4.24
-5.54
-6.61
-7.25
-7.33
-6.87
-6.04
-5.06
-4.14
-3.40
-2.91
-2.65
-2.56
-2.50
-2.24
-1.58
-0.39
1.23
2.92
4.16
4.46
3.57
1.64
-0.83
-3.11
-4.57
-4.86
-4.04
-2.56
-0.98
0.16
0.63
0.46
-0.10
-0.76
-1.31
-1.68
-1.87
-1.88
-1.69
-1.22
-0.44
0.58
1.61
2.40
2.75
2.58
1.98
1.13
0.27
-0.46
-0.96
-1.22
-1.28
-1.22
-1.08
-0.92
-0.74
-0.51
-0.19
0.23
0.70
1.12
1.37
1.42
1.33
1.21
1.14
1.14
1.11
0.96
0.66
0.27
-0.04
-0.17
-0.06
0.19
0.44
0.53
0.38
0.06
-0.32
-0.59
-0.66
-0.50
-0.12
0.39
0.99
1.62
2.26
2.86
3.38
3.75
3.92
3.82
3.47
2.96
2.42
1.99
1.76
1.74
1.85
1.98
2.03
1.94
1.73
1.43
1.08
0.69
0.26
-0.23
-0.80
-1.42
-2.04
-2.55
-2.82
-2.75
-2.30
-1.58
-0.75
-0.06
0.25
-0.00
-0.86
-2.29
-4.12
-6.07
-7.81
-8.98
-9.35
-8.87
-7.73
-6.26
-4.80
-3.53
-2.40
-1.30
-0.14
0.95
1.55
1.16
-0.65
-3.89
-8.09
-12.33
-15.54
-16.86
-15.94
-13.05
-8.90
-4.38
-0.30
2.80
4.66
5.22
4.60
3.19
1.58
0.50
0.58
2.03
4.59
7.57
10.23
12.07
13.01
13.32
13.37
13.39
13.36
13.12
12.46
11.33
9.84
8.21
6.66
5.36
4.36
3.62
3.08
2.72
2.53
2.52
2.68
2.96
3.30
3.60
3.83
3.97
4.04
4.05
4.04
4.02
4.05
4.23
4.61
5.20
5.92
6.55
6.80
6.34
4.95
2.55
-0.68
-4.32
-7.74
-10.29
-11.48
-11.14
-9.51
-7.16
-4.78
-2.94
-1.95
-1.81
-2.31
-3.14
-4.02
-4.77
-5.24
-5.36
-5.11
-4.59
-3.96
-3.49
-3.41
-3.85
-4.75
-5.90
-6.92
-7.48
-7.31
-6.37
-4.82
-2.98
-1.25
0.03
0.66
0.65
0.18
-0.45
-1.00
-1.31
-1.41
-1.42
-1.48
-1.68
-1.97
-2.22
-2.25
-1.99
-1.43
-0.70
0.04
0.67
1.14
1.45
1.66
1.76
1.77
1.67
1.47
1.25
1.09
1.08
1.26
1.60
1.99
2.28
2.35
2.17
1.76
1.23
0.70
0.21
-0.24
-0.68
-1.14
-1.59
-1.98
-2.23
-2.32
-2.27
-2.15
-1.98
-1.74
-1.39
-0.93
-0.41
0.05
0.33
0.36
0.18
-0.08
-0.25
-0.18
0.17
0.77
1.47
2.10
2.56
2.84
3.02
3.18
3.40
3.64
3.84
3.92
3.88
3.75
3.56
3.35
3.09
2.77
2.39
1.98
1.54
1.12
0.70
0.32
-0.01
-0.22
-0.30
-0.26
-0.18
-0.12
-0.13
-0.17
-0.23
-0.26
-0.29
-0.35
-0.43
-0.50
-0.52
-0.46
-0.36
-0.33
-0.42
-0.66
-0.97
-1.18
-1.18
-0.92
-0.49
-0.10
0.07
-0.10
-0.57
-1.17
-1.66
-1.89
-1.79
-1.46
-1.05
-0.69
-0.43
-0.25
-0.08
0.11
0.29
0.39
0.36
0.20
-0.01
-0.21
-0.32
-0.37
-0.37
-0.37
-0.40
-0.46
-0.51
-0.53
-0.47
-0.33
-0.11
0.13
0.35
0.48
0.48
0.35
0.12
-0.12
-0.30
-0.36
-0.29
-0.11
0.11
0.32
0.44
0.43
0.30
0.10
-0.09
-0.17
-0.12
0.03
0.18
0.23
0.13
-0.09
-0.33
-0.48
-0.49
-0.40
-0.30
-0.30
-0.44
-0.68
-0.90
-0.97
-0.82
-0.51
-0.14
0.14
0.23
0.16
0.02
-0.07
-0.01
0.20
0.50
0.78
0.95
1.02
0.99
0.92
0.83
0.73
0.60
0.41
0.18
-0.07
-0.29
-0.44
-0.49
-0.43
-0.26
-0.05
0.17
0.32
0.36
0.28
0.07
-0.21
-0.50
-0.70
-0.76
-0.66
-0.46
-0.22
-0.02
0.16
0.32
0.49
0.62
0.64
0.50
0.19
-0.17
-0.44
-0.51
-0.35
-0.04
0.29
0.54
0.65
0.61
0.41
0.10
-0.29
-0.67
-0.93
-0.97
-0.75
-0.32
0.19
0.63
0.88
0.87
0.65
0.28
-0.12
-0.45
-0.61
-0.58
-0.37
-0.06
0.24
0.42
0.45
0.35
0.19
0.07
0.07
0.18
0.38
0.59
0.78
0.91
0.98
1.01
0.97
0.85
0.62
0.30
-0.01
-0.24
-0.30
-0.18
0.04
0.26
0.36
0.31
0.14
-0.09
-0.27
-0.34
-0.25
-0.04
0.24
0.50
0.68
0.72
0.62
0.43
0.19
-0.04
-0.25
-0.42
-0.53
-0.55
-0.47
-0.30
-0.08
0.12
0.23
0.17
-0.07
-0.48
-0.95
-1.33
-1.46
-1.26
-0.78
-0.23
0.19
0.31
0.13
-0.18
-0.44
-0.47
-0.29
-0.00
0.22
0.28
0.19
0.03
-0.10
-0.14
-0.10
0.00
0.12
0.28
0.48
0.76
1.08
1.35
1.48
1.40
1.17
0.88
0.69
0.61
0.62
0.59
0.45
0.22
0.00
-0.11
-0.08
0.02
0.08
0.01
-0.13
-0.27
-0.28
-0.12
0.13
0.34
0.40
0.26
-0.04
-0.37
-0.61
-0.70
-0.62
-0.48
-0.37
-0.36
-0.43
-0.50
-0.50
-0.39
-0.23
-0.12
-0.15
-0.36
-0.64
-0.90
-1.00
-0.93
-0.71
-0.44
-0.17
0.03
0.14
0.16
0.05
-0.14
-0.35
-0.50
-0.48
-0.30
-0.04
0.20
0.33
0.35
0.33
0.35
0.42
0.48
0.48
0.37
0.21
0.04
-0.11
-0.25
-0.43
-0.64
-0.81
-0.85
-0.71
-0.43
-0.16
-0.07
-0.23
-0.60
-1.00
-1.27
-1.30
-1.11
-0.76
-0.39
-0.06
0.16
0.27
0.26
0.13
-0.10
-0.37
-0.57
-0.61
-0.42
-0.03
0.43
0.78
0.92
0.79
0.49
0.14
-0.14
-0.27
-0.24
-0.09
0.15
0.44
0.73
0.93
0.97
0.78
0.39
-0.13
-0.63
-1.01
-1.17
-1.09
-0.81
-0.43
-0.08
0.12
0.11
-0.13
-0.52
-0.97
-1.34
-1.52
-1.46
-1.14
-0.63
-0.03
0.51
0.88
1.00
0.89
0.65
0.40
0.27
0.31
0.51
0.77
1.01
1.14
1.12
0.96
0.74
0.53
0.38
0.32
0.33
0.34
0.30
0.20
0.06
-0.09
-0.20
-0.23
-0.17
-0.03
0.15
0.32
0.40
0.35
0.18
-0.04
-0.20
-0.25
-0.20
-0.13
-0.12
-0.19
-0.30
-0.36
-0.33
-0.27
-0.26
-0.37
-0.55
-0.69
-0.63
-0.36
0.03
0.35
0.42
0.23
-0.09
-0.34
-0.36
-0.13
0.25
0.63
0.88
0.98
0.97
0.89
0.78
0.62
0.39
0.08
-0.26
-0.56
-0.72
-0.70
-0.51
-0.25
-0.05
-0.02
-0.20
-0.52
-0.81
-0.91
-0.72
-0.29
0.20
0.54
0.59
0.36
0.00
-0.26
-0.28
-0.09
0.21
0.45
0.52
0.44
0.28
0.14
0.08
0.08
0.09
0.09
0.08
0.10
0.15
0.21
0.21
0.10
-0.11
-0.36
-0.54
-0.58
-0.45
-0.22
0.04
0.23
0.31
0.26
0.11
-0.09
-0.28
-0.43
-0.50
-0.49
-0.42
-0.26
-0.03
0.22
0.43
0.48
0.32
-0.00
-0.36
-0.56
-0.50
-0.19
0.21
0.51
0.58
0.42
0.17
-0.00
0.01
0.17
0.37
0.48
0.46
0.35
0.25
0.22
0.30
0.44
0.55
0.55
0.46
0.33
0.25
0.29
0.45
0.68
0.86
0.90
0.75
0.45
0.08
-0.25
-0.46
-0.50
-0.40
-0.20
0.05
0.32
0.58
0.78
0.87
0.79
0.53
0.18
-0.16
-0.40
-0.49
-0.46
-0.40
-0.38
-0.44
-0.55
-0.69
-0.82
-0.95
-1.10
-1.25
-1.37
-1.36
-1.18
-0.83
-0.38
0.06
0.38
0.52
0.46
0.26
0.01
-0.21
-0.32
-0.26
-0.04
0.26
0.57
0.80
0.91
0.92
0.87
0.80
0.74
0.64
0.49
0.28
0.07
-0.04
0.00
0.16
0.32
0.34
0.18
-0.12
-0.40
-0.52
-0.41
-0.15
0.13
0.28
0.28
0.16
0.07
0.11
0.27
0.49
0.65
0.63
0.41
0.06
-0.33
-0.62
-0.72
-0.62
-0.39
-0.12
0.08
0.18
0.19
0.17
0.17
0.18
0.16
0.05
-0.13
-0.34
-0.50
-0.54
-0.45
-0.28
-0.13
-0.08
-0.17
-0.37
-0.59
-0.74
-0.75
-0.66
-0.53
-0.48
-0.54
-0.68
-0.80
-0.80
-0.65
-0.42
-0.22
-0.12
-0.12
-0.14
-0.09
0.09
0.37
0.65
0.84
0.88
0.79
0.65
0.52
0.42
0.32
0.17
-0.06
-0.33
-0.60
-0.77
-0.80
-0.69
-0.48
-0.23
0.03
0.25
0.39
0.43
0.35
0.19
0.03
-0.05
0.02
0.22
0.48
0.70
0.82
0.80
0.68
0.53
0.39
0.27
0.17
0.08
0.02
-0.00
0.02
0.07
0.08
0.02
-0.11
-0.26
-0.34
-0.29
-0.11
0.14
0.33
0.39
0.27
0.03
-0.24
-0.45
-0.56
-0.56
-0.49
-0.38
-0.25
-0.05
0.25
0.68
1.21
1.71
2.06
2.15
1.95
1.57
1.11
0.68
0.28
-0.11
-0.53
-0.99
-1.41
-1.67
-1.69
-1.45
-1.04
-0.60
-0.26
-0.10
-0.09
-0.15
-0.15
-0.02
0.27
0.65
1.03
1.29
1.39
1.32
1.10
0.81
0.47
0.12
-0.21
-0.48
-0.65
-0.68
-0.56
-0.32
-0.05
0.18
0.31
0.34
0.28
0.16
0.01
-0.14
-0.25
-0.25
-0.10
0.20
0.55
0.79
0.79
0.53
0.08
-0.38
-0.70
-0.82
-0.75
-0.59
-0.47
-0.44
-0.52
-0.69
-0.91
-1.12
-1.28
-1.31
-1.19
-0.91
-0.50
-0.04
0.36
0.64
0.78
0.78
0.66
0.46
0.22
-0.01
-0.16
-0.18
-0.03
0.23
0.50
0.62
0.49
0.12
-0.38
-0.83
-1.06
-1.03
-0.79
-0.44
-0.12
0.10
0.22
0.24
0.20
0.11
0.01
-0.05
-0.02
0.12
0.32
0.47
0.48
0.33
0.08
-0.16
-0.29
-0.28
-0.19
-0.09
-0.03
0.00
0.06
0.13
0.15
0.04
-0.24
-0.61
-0.89
-0.95
-0.76
-0.43
-0.16
-0.07
-0.17
-0.33
-0.37
-0.20
0.15
0.51
0.73
0.69
0.38
-0.09
-0.58
-0.94
-1.08
-0.97
-0.64
-0.18
0.34
0.81
1.16
1.36
1.36
1.18
0.85
0.49
0.20
0.07
0.11
0.26
0.39
0.44
0.37
0.24
0.14
0.15
0.26
0.40
0.46
0.36
0.08
-0.28
-0.56
-0.64
-0.46
-0.10
0.29
0.56
0.60
0.44
0.18
-0.05
-0.14
-0.10
0.04
0.17
0.23
0.21
0.13
0.02
-0.05
-0.06
-0.00
0.10
0.22
0.34
0.44
0.50
0.49
0.41
0.25
0.07
-0.08
-0.16
-0.14
-0.07
0.00
0.03
-0.01
-0.09
-0.16
-0.18
-0.15
-0.10
-0.08
-0.12
-0.20
-0.30
-0.39
-0.47
-0.54
-0.63
-0.74
-0.85
-0.90
-0.86
-0.71
-0.48
-0.24
-0.06
0.01
-0.02
-0.07
-0.05
0.09
0.34
0.60
0.74
0.69
0.46
0.15
-0.15
-0.36
-0.47
-0.51
-0.51
-0.43
-0.23
0.08
0.43
0.71
0.81
0.72
0.50
0.25
0.08
0.00
0.03
0.12
0.25
0.40
0.53
0.61
0.60
0.47
0.25
-0.00
-0.22
-0.34
-0.35
-0.27
-0.18
-0.14
-0.18
-0.28
-0.40
-0.43
-0.34
-0.13
0.15
0.44
0.66
0.74
0.65
0.41
0.06
-0.30
-0.59
-0.72
-0.68
-0.52
-0.31
-0.13
-0.02
0.06
0.12
0.20
0.27
0.31
0.28
0.19
0.08
-0.02
-0.06
-0.09
-0.14
-0.23
-0.37
-0.49
-0.53
-0.45
-0.26
-0.03
0.18
0.31
0.34
0.26
0.06
-0.24
-0.58
-0.87
-0.99
-0.87
-0.54
-0.10
0.32
0.60
0.72
0.70
0.61
0.51
0.42
0.35
0.31
0.31
0.34
0.40
0.48
0.55
0.60
0.61
0.58
0.50
0.40
0.31
0.25
0.23
0.19
0.06
-0.19
-0.56
-0.96
-1.27
-1.39
-1.29
-1.01
-0.65
-0.28
0.06
0.34
0.55
0.69
0.71
0.60
0.39
0.15
-0.03
-0.06
0.06
0.28
0.49
0.61
0.56
0.36
0.07
-0.22
-0.44
-0.56
-0.61
-0.65
-0.73
-0.87
-1.04
-1.18
-1.21
-1.10
-0.88
-0.63
-0.43
-0.33
-0.31
-0.30
-0.22
-0.03
0.23
0.49
0.67
0.73
0.72
0.69
0.71
0.73
0.72
0.61
0.41
0.19
0.02
-0.03
0.02
0.12
0.20
0.24
0.23
0.17
0.06
-0.09
-0.24
-0.32
-0.25
-0.03
0.25
0.42
0.35
0.03
-0.42
-0.79
-0.92
-0.78
-0.46
-0.13
0.08
0.14
0.06
-0.06
-0.16
-0.18
-0.11
0.03
0.23
0.45
0.63
0.70
0.65
0.54
0.43
0.42
0.53
0.74
0.94
1.04
0.94
0.64
0.18
-0.37
-0.88
-1.26
-1.41
-1.32
-1.03
-0.64
-0.25
0.04
0.22
0.31
0.36
0.36
0.28
0.12
-0.10
-0.29
-0.39
-0.36
-0.27
-0.19
-0.17
-0.20
-0.22
-0.20
-0.17
-0.22
-0.43
-0.75
-1.04
-1.13
-0.94
-0.52
-0.06
0.26
0.35
0.28
0.22
0.30
0.56
0.88
1.11
1.11
0.91
0.59
0.31
0.15
0.10
0.08
0.03
-0.06
-0.13
-0.12
-0.01
0.15
0.28
0.34
0.32
0.27
0.21
0.16
0.10
-0.00
-0.12
-0.21
-0.26
-0.24
-0.21
-0.20
-0.27
-0.43
-0.64
-0.83
-0.90
-0.80
-0.55
-0.21
0.12
0.39
0.55
0.65
0.72
0.78
0.84
0.84
0.77
0.65
0.55
0.51
0.55
0.62
0.63
0.54
0.35
0.16
0.08
0.15
0.31
0.45
0.44
0.24
-0.08
-0.39
-0.56
-0.56
-0.43
-0.28
-0.18
-0.16
-0.18
-0.19
-0.15
-0.07
0.02
0.06
0.02
-0.09
-0.26
-0.43
-0.54
-0.58
-0.55
-0.51
-0.49
-0.55
-0.66
-0.78
-0.80
-0.68
-0.39
0.01
0.42
0.74
0.89
0.84
0.63
0.36
0.10
-0.07
-0.12
-0.07
0.04
0.17
0.24
0.19
-0.01
-0.31
-0.64
-0.88
-0.97
-0.85
-0.57
-0.17
0.26
0.64
0.90
0.98
0.85
0.57
0.23
-0.01
-0.06
0.08
0.28
0.39
0.32
0.08
-0.23
-0.46
-0.51
-0.40
-0.21
-0.06
0.00
-0.01
-0.04
-0.02
0.07
0.18
0.25
0.24
0.16
0.05
-0.02
-0.00
0.14
0.38
0.71
1.02
1.22
1.23
1.00
0.55
0.01
-0.49
-0.80
-0.89
-0.79
-0.60
-0.42
-0.30
-0.25
-0.22
-0.19
-0.16
-0.15
-0.17
-0.21
-0.22
-0.19
-0.15
-0.15
-0.24
-0.43
-0.68
-0.86
-0.89
-0.69
-0.27
0.29
0.85
1.26
1.43
1.30
0.93
0.39
-0.16
-0.63
-0.92
-1.00
-0.90
-0.70
-0.47
-0.29
-0.16
-0.09
-0.03
0.06
0.20
0.33
0.39
0.33
0.14
-0.09
-0.26
-0.26
-0.09
0.15
0.35
0.36
0.17
-0.16
-0.48
-0.65
-0.61
-0.41
-0.14
0.09
0.23
0.32
0.43
0.59
0.78
0.93
0.97
0.89
0.75
0.63
0.56
0.54
0.53
0.49
0.39
0.25
0.09
-0.10
-0.33
-0.64
-0.98
-1.28
-1.45
-1.39
-1.12
-0.72
-0.31
0.00
0.18
0.22
0.21
0.17
0.15
0.13
0.09
-0.01
-0.14
-0.28
-0.39
-0.44
-0.43
-0.36
-0.27
-0.16
-0.07
0.01
0.07
0.12
0.20
0.31
0.45
0.58
0.66
0.67
0.62
0.54
0.47
0.44
0.43
0.41
0.32
0.15
-0.07
-0.28
-0.41
-0.43
-0.34
-0.21
-0.14
-0.17
-0.31
-0.50
-0.63
-0.60
-0.40
-0.08
0.27
0.53
0.65
0.64
0.54
0.41
0.28
0.17
0.10
0.07
0.11
0.19
0.28
0.31
0.25
0.09
-0.10
-0.25
-0.30
-0.24
-0.11
0.03
0.15
0.26
0.35
0.43
0.46
0.38
0.21
-0.00
-0.18
-0.24
-0.15
0.04
0.26
0.47
0.65
0.80
0.89
0.89
0.77
0.54
0.26
0.03
-0.08
-0.07
-0.04
-0.07
-0.23
-0.49
-0.77
-0.98
-1.05
-0.98
-0.79
-0.53
-0.26
-0.03
0.14
0.22
0.24
0.19
0.12
0.04
-0.01
-0.02
0.03
0.10
0.17
0.18
0.10
-0.06
-0.25
-0.42
-0.51
-0.48
-0.37
-0.21
-0.09
-0.10
-0.24
-0.49
-0.73
-0.84
-0.76
-0.49
-0.16
0.08
0.12
-0.04
-0.28
-0.45
-0.45
-0.32
-0.14
-0.04
-0.07
-0.18
-0.27
-0.26
-0.12
0.09
0.30
0.43
0.48
0.46
0.38
0.28
0.18
0.10
0.09
0.17
0.30
0.46
0.58
0.64
0.63
0.57
0.46
0.29
0.06
-0.19
-0.42
-0.57
-0.60
-0.57
-0.55
-0.60
-0.75
-0.93
-1.03
-0.96
-0.71
-0.35
-0.01
0.19
0.19
0.00
-0.26
-0.49
-0.58
-0.50
-0.29
0.00
0.28
0.50
0.63
0.69
0.72
0.75
0.82
0.91
0.97
0.97
0.87
0.72
0.60
0.57
0.61
0.63
0.52
0.23
-0.14
-0.42
-0.43
-0.12
0.40
0.89
1.14
1.06
0.71
0.24
-0.16
-0.40
-0.47
-0.42
-0.29
-0.12
0.07
0.22
0.29
0.21
-0.02
-0.37
-0.77
-1.10
-1.28
-1.25
-0.99
-0.60
-0.17
0.16
0.30
0.25
0.07
-0.14
-0.26
-0.25
-0.13
0.04
0.19
0.27
0.28
0.25
0.20
0.14
0.02
-0.16
-0.41
-0.66
-0.83
-0.85
-0.67
-0.31
0.14
0.60
0.97
1.24
1.40
1.48
1.49
1.40
1.18
0.83
0.42
0.04
-0.23
-0.36
-0.41
-0.45
-0.52
-0.63
-0.71
-0.74
-0.71
-0.71
-0.78
-0.95
-1.13
-1.21
-1.12
-0.86
-0.47
-0.04
0.39
0.79
1.11
1.32
1.34
1.14
0.78
0.37
0.03
-0.15
-0.14
-0.02
0.15
0.29
0.37
0.38
0.34
0.25
0.12
-0.04
-0.20
-0.31
-0.32
-0.23
-0.04
0.18
0.34
0.36
0.23
-0.00
-0.21
-0.30
-0.22
-0.02
0.17
0.25
0.15
-0.09
-0.37
-0.60
-0.68
-0.61
-0.42
-0.20
-0.01
0.11
0.17
0.17
0.14
0.08
-0.05
-0.24
-0.49
-0.75
-0.93
-0.97
-0.85
-0.64
-0.40
-0.16
0.07
0.33
0.62
0.89
1.03
0.95
0.67
0.31
0.04
-0.03
0.11
0.35
0.53
0.54
0.40
0.17
-0.07
-0.27
-0.43
-0.54
-0.59
-0.55
-0.41
-0.19
0.02
0.17
0.21
0.17
0.09
0.02
-0.04
-0.10
-0.16
-0.19
-0.11
0.12
0.49
0.94
1.35
1.62
1.66
1.47
1.13
0.72
0.35
0.09
-0.03
-0.03
0.01
0.02
-0.08
-0.32
-0.66
-1.01
-1.27
-1.35
-1.23
-0.97
-0.66
-0.40
-0.25
-0.20
-0.21
-0.23
-0.23
-0.17
-0.07
0.05
0.19
0.36
0.53
0.68
0.75
0.70
0.54
0.30
0.07
-0.06
-0.05
0.08
0.25
0.36
0.32
0.10
-0.22
-0.52
-0.68
-0.64
-0.44
-0.21
-0.06
-0.08
-0.26
-0.52
-0.78
-0.98
-1.13
-1.21
-1.22
-1.09
-0.79
-0.33
0.16
0.54
0.67
0.54
0.26
0.01
-0.05
0.13
0.46
0.78
0.93
0.86
0.62
0.30
0.04
-0.11
-0.13
-0.02
0.14
0.29
0.37
0.31
0.08
-0.27
-0.65
-0.93
-1.03
-0.92
-0.67
-0.36
-0.08
0.14
0.31
0.42
0.47
0.43
0.33
0.18
0.06
0.02
0.06
0.12
0.14
0.04
-0.17
-0.45
-0.71
-0.88
-0.91
-0.75
-0.43
0.03
0.53
0.98
1.26
1.32
1.17
0.92
0.70
0.63
0.73
0.96
1.21
1.36
1.37
1.24
1.00
0.71
0.41
0.14
-0.07
-0.17
-0.14
0.04
0.33
0.65
0.94
1.13
1.23
1.23
1.19
1.12
1.05
1.01
1.05
1.20
1.49
1.90
2.32
2.63
2.74
2.62
2.33
2.00
1.71
1.53
1.42
1.28
1.02
0.58
0.01
-0.59
-1.11
-1.51
-1.81
-2.15
-2.66
-3.42
-4.37
-5.40
-6.36
-7.17
-7.86
-8.50
-9.17
-9.82
-10.29
-10.41
-10.04
-9.26
-8.26
-7.31
-6.58
-6.09
-5.73
-5.31
-4.72
-3.93
-3.00
-2.00
-0.96
0.11
1.22
2.32
3.33
4.16
4.77
5.18
5.41
5.49
5.40
5.12
4.63
3.99
3.35
2.83
2.51
2.39
2.36
2.29
2.07
1.69
1.20
0.71
0.34
0.16
0.22
0.51
1.03
1.71
2.45
3.12
3.61
3.83
3.80
3.58
3.26
2.94
2.63
2.35
2.07
1.78
1.50
1.23
1.02
0.86
0.74
0.62
0.45
0.24
0.03
-0.08
0.01
0.33
0.83
1.36
1.81
2.09
2.31
2.62
3.19
4.10
5.27
6.52
7.67
8.59
9.23
9.60
9.74
9.64
9.30
8.75
8.06
7.32
6.58
5.80
4.91
3.80
2.43
0.90
-0.60
-1.85
-2.70
-3.14
-3.28
-3.27
-3.23
-3.20
-3.17
-3.15
-3.19
-3.39
-3.84
-4.54
-5.38
-6.20
-6.84
-7.23
-7.39
-7.38
-7.28
-7.08
-6.79
-6.39
-5.92
-5.49
-5.20
-5.11
-5.21
-5.44
-5.69
-5.82
-5.77
-5.47
-4.94
-4.24
-3.46
-2.69
-2.02
-1.51
-1.15
-0.92
-0.73
-0.46
-0.03
0.63
1.48
2.37
3.08
3.44
3.37
2.95
2.37
1.80
1.33
0.98
0.69
0.41
0.13
-0.12
-0.29
-0.37
-0.35
-0.24
0.01
0.44
1.09
1.94
2.87
3.74
4.40
4.74
4.72
4.37
3.73
2.91
1.97
0.99
0.01
-0.95
-1.87
-2.72
-3.45
-3.98
-4.29
-4.42
-4.46
-4.51
-4.65
-4.88
-5.14
-5.32
-5.38
-5.29
-5.08
-4.79
-4.47
-4.11
-3.68
-3.17
-2.55
-1.77
-0.85
0.18
1.20
2.08
2.64
2.79
2.50
1.83
0.95
0.00
-0.87
-1.62
-2.23
-2.71
-3.09
-3.33
-3.43
-3.39
-3.29
-3.27
-3.48
-3.96
-4.63
-5.30
-5.76
-5.91
-5.81
-5.68
-5.77
-6.25
-7.08
-8.02
-8.65
-8.56
-7.45
-5.20
-1.97
1.92
5.99
9.81
13.06
15.62
17.51
18.83
19.61
19.84
19.47
18.51
17.08
15.40
13.66
11.98
10.40
8.89
7.44
6.05
4.75
3.57
2.50
1.56
0.79
0.23
-0.07
-0.18
-0.18
-0.20
-0.28
-0.39
-0.44
-0.41
-0.36
-0.45
-0.82
-1.47
-2.28
-3.03
-3.52
-3.70
-3.64
-3.52
-3.49
-3.66
-4.00
-4.37
-4.62
-4.64
-4.45
-4.13
-3.83
-3.62
-3.49
-3.35
-3.10
-2.72
-2.28
-1.92
-1.78
-1.90
-2.18
-2.46
-2.57
-2.46
-2.15
-1.75
-1.36
-1.02
-0.75
-0.50
-0.25
0.00
0.23
0.40
0.48
0.50
0.51
0.60
0.83
1.24
1.79
2.43
3.09
3.69
4.15
4.43
4.48
4.27
3.81
3.15
2.40
1.72
1.28
1.16
1.38
1.81
2.30
2.66
2.79
2.67
2.35
1.93
1.50
1.09
0.71
0.37
0.05
-0.20
-0.38
-0.47
-0.47
-0.44
-0.42
-0.45
-0.56
-0.71
-0.88
-0.99
-1.01
-0.91
-0.70
-0.44
-0.23
-0.14
-0.19
-0.35
-0.55
-0.73
-0.85
-0.96
-1.10
-1.28
-1.48
-1.63
-1.66
-1.54
-1.30
-1.02
-0.78
-0.62
-0.57
-0.58
-0.62
-0.65
-0.65
-0.63
-0.59
-0.54
-0.46
-0.34
-0.17
0.07
0.36
0.65
0.83
0.84
0.63
0.25
-0.21
-0.65
-0.96
-1.11
-1.15
-1.18
-1.30
-1.60
-2.08
-2.66
-3.23
-3.71
-4.06
-4.33
-4.64
-5.14
-5.94
-7.09
-8.55
-10.21
-11.93
-13.55
-14.97
-16.18
-17.23
-18.27
-19.40
-20.65
-21.92
-22.95
-23.44
-23.10
-21.73
-19.21
-15.53
-10.77
-5.11
1.09
7.38
13.36
18.78
23.67
28.14
32.18
35.53
37.68
38.17
36.88
34.18
30.76
27.33
24.27
21.51
18.71
15.63
12.30
9.12
6.62
5.15
4.74
5.06
5.65
6.08
6.19
6.07
5.96
6.10
6.59
7.32
8.07
8.65
8.93
8.95
8.82
8.67
8.56
8.49
8.41
8.24
7.93
7.40
6.54
5.28
3.54
1.32
-1.31
-4.20
-7.14
-9.92
-12.33
-14.17
-15.34
-15.77
-15.51
-14.67
-13.43
-12.00
-10.60
-9.43
-8.61
-8.19
-8.10
-8.21
-8.38
-8.49
-8.51
-8.47
-8.45
-8.51
-8.62
-8.72
-8.72
-8.53
-8.17
-7.71
-7.24
-6.83
-6.46
-6.06
-5.51
-4.76
-3.87
-2.97
-2.24
-1.81
-1.69
-1.81
-2.03
-2.24
-2.40
-2.52
-2.64
-2.72
-2.69
-2.41
-1.79
-0.83
0.36
1.59
2.66
3.45
3.94
4.18
4.27
4.31
4.37
4.49
4.66
4.82
4.90
4.83
4.58
4.18
3.68
3.11
2.52
1.95
1.45
1.06
0.84
0.77
0.80
0.81
0.68
0.38
-0.06
-0.52
-0.88
-1.06
-1.04
-0.90
-0.70
-0.55
-0.51
-0.56
-0.66
-0.74
-0.73
-0.63
-0.49
-0.38
-0.36
-0.45
-0.59
-0.73
-0.83
-0.88
-0.94
-1.01
-1.07
-1.07
-0.91
-0.60
-0.17
0.24
0.52
0.61
0.51
0.27
-0.02
-0.30
-0.53
-0.68
-0.72
-0.63
-0.46
-0.24
-0.05
0.08
0.12
0.08
-0.05
-0.27
-0.56
-0.89
-1.18
-1.34
-1.36
-1.28
-1.16
-1.08
-1.06
-1.09
-1.13
-1.20
-1.31
-1.51
-1.79
-2.12
-2.41
-2.59
-2.64
-2.58
-2.52
-2.54
-2.69
-2.98
-3.32
-3.57
-3.60
-3.30
-2.68
-1.87
-1.03
-0.33
0.21
0.63
1.04
1.49
1.94
2.25
2.30
2.08
1.77
1.63
1.87
2.52
3.41
4.26
4.83
5.09
5.15
5.26
5.54
5.99
6.45
6.68
6.56
6.12
5.52
4.99
4.70
4.65
4.73
4.75
4.59
4.26
3.85
3.52
3.38
3.47
3.73
4.06
4.33
4.49
4.49
4.34
4.04
3.57
2.91
2.03
0.94
-0.27
-1.48
-2.55
-3.38
-3.94
-4.28
-4.51
-4.71
-4.95
-5.20
-5.41
-5.54
-5.56
-5.47
-5.26
-4.94
-4.50
-3.95
-3.34
-2.77
-2.34
-2.16
-2.22
-2.43
-2.60
-2.55
-2.23
-1.69
-1.13
-0.73
-0.61
-0.74
-1.01
-1.30
-1.57
-1.84
-2.21
-2.70
-3.23
-3.64
-3.80
-3.64
-3.26
-2.85
-2.65
-2.80
-3.28
-3.96
-4.59
-4.94
-4.87
-4.37
-3.52
-2.49
-1.43
-0.44
0.39
1.04
1.47
1.65
1.60
1.33
0.92
0.43
-0.07
-0.56
-1.03
-1.53
-2.06
-2.60
-3.11
-3.53
-3.83
-4.03
-4.17
-4.27
-4.37
-4.47
-4.58
-4.71
-4.85
-4.99
-5.05
-4.95
-4.65
-4.16
-3.58
-3.03
-2.53
-2.07
-1.51
-0.76
0.22
1.33
2.39
3.24
3.74
3.90
3.81
3.63
3.49
3.46
3.46
3.31
2.82
1.83
0.39
-1.25
-2.71
-3.71
-4.18
-4.38
-4.79
-5.87
-7.83
-10.49
-13.36
-15.83
-17.49
-18.25
-18.37
-18.34
-18.63
-19.57
-21.45
-24.47
-28.63
-33.36
-37.35
-38.71
-35.63
-27.28
-14.42
0.76
15.43
27.33
35.58
40.76
44.25
47.27
50.23
52.74
54.18
54.21
53.07
51.30
49.31
47.02
43.94
39.55
33.56
26.36
18.78
11.82
6.20
2.02
-1.14
-3.99
-7.13
-10.76
-14.58
-18.00
-20.38
-21.44
-21.35
-20.67
-20.12
-20.23
-21.15
-22.59
-24.04
-25.07
-25.60
-25.89
-26.45
-27.69
-29.70
-32.18
-34.56
-36.36
-37.40
-37.98
-38.75
-40.33
-43.05
-46.67
-50.52
-53.76
-55.82
-56.63
-56.67
-56.74
-57.69
-60.24
-64.87
-71.82
-80.70
-90.14
-97.54
-99.63
-93.49
-77.87
-53.84
-24.41
6.69
36.61
64.18
89.78
114.20
137.57
158.79
176.03
187.67
193.26
193.74
191.01
187.17
184.03
182.67
183.58
186.47
190.05
191.91
188.56
176.33
152.54
116.98
72.41
24.14
-21.48
-58.98
-85.25
-99.99
-105.11
-103.59
-98.30
-91.43
-84.39
-78.04
-72.93
-69.30
-67.07
-65.75
-64.53
-62.54
-59.21
-54.53
-49.03
-43.69
-39.35
-36.48
-34.93
-34.04
-32.97
-31.06
-28.12
-24.44
-20.63
-17.32
-14.89
-13.37
-12.46
-11.71
-10.74
-9.40
-7.79
-6.18
-4.85
-3.91
-3.30
-2.81
-2.28
-1.67
-1.16
-0.96
-1.21
-1.81
-2.43
-2.69
-2.30
-1.31
-0.05
0.99
1.46
1.33
0.86
0.44
0.32
0.51
0.77
0.80
0.45
-0.20
-0.89
-1.38
-1.54
-1.43
-1.20
-0.99
-0.87
-0.80
-0.77
-0.76
-0.81
-0.95
-1.16
-1.38
-1.54
-1.59
-1.56
-1.52
-1.52
-1.59
-1.69
-1.76
-1.75
-1.69
-1.63
-1.61
-1.64
-1.65
-1.58
-1.35
-0.97
-0.51
-0.09
0.18
0.23
0.09
-0.09
-0.16
0.03
0.50
1.11
1.68
2.02
2.04
1.80
1.50
1.35
1.45
1.77
2.15
2.41
2.45
2.28
2.00
1.67
1.32
0.94
0.52
0.12
-0.18
-0.30
-0.24
-0.07
0.10
0.17
0.17
0.16
0.23
0.41
0.63
0.78
0.80
0.67
0.50
0.38
0.38
0.52
0.69
0.81
0.77
0.55
0.19
-0.19
-0.51
-0.71
-0.81
-0.83
-0.83
-0.80
-0.69
-0.44
-0.03
0.48
0.96
1.27
1.31
1.08
0.63
0.08
-0.48
-0.95
-1.30
-1.47
-1.42
-1.13
-0.65
-0.10
0.37
0.60
0.53
0.20
-0.27
-0.74
-1.05
-1.15
-1.06
-0.84
-0.58
-0.34
-0.16
-0.04
-0.00
-0.05
-0.21
-0.47
-0.75
-0.97
-1.05
-1.00
-0.90
-0.84
-0.89
-1.00
-1.03
-0.85
-0.43
0.09
0.51
0.61
0.30
-0.30
-0.98
-1.50
-1.71
-1.63
-1.36
-1.05
-0.79
-0.59
-0.37
-0.05
0.40
0.89
1.27
1.39
1.22
0.90
0.65
0.71
1.17
1.94
2.79
3.47
3.80
3.78
3.52
3.12
2.68
2.17
1.53
0.74
-0.18
-1.10
-1.84
-2.21
-2.09
-1.56
-0.83
-0.22
-0.01
-0.32
-1.04
-1.87
-2.48
-2.65
-2.36
-1.75
-1.04
-0.40
0.07
0.30
0.28
-0.03
-0.57
-1.20
-1.73
-1.97
-1.88
-1.56
-1.20
-0.94
-0.79
-0.63
-0.30
0.31
1.17
2.15
3.11
3.91
4.49
4.79
4.78
4.42
3.72
2.75
1.67
0.69
-0.01
-0.30
-0.11
0.51
1.43
2.47
3.45
4.20
4.65
4.79
4.67
4.38
4.01
3.65
3.33
3.05
2.81
2.62
2.49
2.47
2.56
2.73
2.88
2.88
2.70
2.36
2.01
1.74
1.57
1.40
1.04
0.36
-0.65
-1.90
-3.21
-4.45
-5.55
-6.48
-7.19
-7.62
-7.75
-7.57
-7.17
-6.65
-6.13
-5.64
-5.18
-4.72
-4.27
-3.83
-3.44
-3.08
-2.68
-2.21
-1.71
-1.26
-1.00
-1.01
-1.27
-1.63
-1.92
-1.96
-1.70
-1.22
-0.67
-0.19
0.09
0.11
-0.11
-0.57
-1.27
-2.19
-3.37
-4.77
-6.26
-7.65
-8.70
-9.24
-9.30
-9.10
-8.98
-9.27
-10.08
-11.24
-12.39
-13.13
-13.29
-13.00
-12.64
-12.69
-13.43
-14.82
-16.48
-17.88
-18.60
-18.57
-18.09
-17.72
-17.99
-19.19
-21.22
-23.66
-25.79
-26.77
-25.81
-22.41
-16.71
-9.64
-2.80
1.98
3.44
1.46
-2.75
-7.09
-9.54
-9.06
-6.00
-1.84
1.62
3.18
2.69
0.96
-0.77
-1.60
-1.34
-0.64
-0.57
-2.06
-5.39
-10.02
-14.82
-18.59
-20.59
-20.86
-20.22
-19.84
-20.83
-23.96
-29.74
-38.39
-49.47
-61.29
-70.53
-72.83
-64.27
-43.46
-12.79
21.92
53.49
76.17
87.61
89.17
84.37
76.84
68.75
60.68
52.53
44.50
37.53
32.82
30.98
31.54
33.10
33.95
32.90
29.80
25.52
21.45
18.81
18.10
18.95
20.32
21.04
20.38
18.27
15.33
12.49
10.57
9.93
10.37
11.33
12.14
12.31
11.70
10.51
9.13
7.95
7.18
6.82
6.65
6.41
5.88
5.03
3.98
2.97
2.22
1.84
1.84
2.14
2.67
3.34
4.08
4.78
5.30
5.45
5.11
4.22
2.89
1.28
-0.38
-1.87
-3.00
-3.64
-3.70
-3.18
-2.19
-0.95
0.21
0.99
1.23
1.04
0.77
0.88
1.71
3.32
5.40
7.42
8.85
9.45
9.37
9.09
9.20
10.17
12.15
14.89
17.90
20.66
22.75
23.98
24.46
24.51
24.66
25.61
28.01
32.10
37.26
41.92
43.83
40.94
32.30
18.78
2.87
-12.21
-23.67
-30.18
-31.99
-30.47
-27.20
-23.39
-19.66
-16.38
-13.89
-12.67
-13.04
-14.87
-17.48
-19.83
-20.96
-20.34
-18.13
-14.99
-11.85
-9.40
-7.95
-7.29
-6.87
-6.12
-4.65
-2.52
-0.19
1.59
1.96
0.22
-3.91
-10.21
-17.88
-25.72
-32.49
-37.25
-39.66
-40.00
-39.08
-37.76
-36.72
-36.25
-36.25
-36.52
-36.86
-37.21
-37.59
-38.05
-38.66
-39.49
-40.62
-42.02
-43.40
-44.23
-43.81
-41.50
-37.06
-30.77
-23.40
-15.90
-9.11
-3.38
1.47
6.09
11.16
17.13
23.91
30.84
36.97
41.43
43.75
44.05
42.87
40.93
38.76
36.54
34.21
31.63
28.86
26.11
23.69
21.81
20.45
19.37
18.27
16.95
15.41
13.85
12.55
11.67
11.20
10.90
10.48
9.70
8.54
7.17
5.91
5.08
4.87
5.28
6.16
7.29
8.44
9.48
10.31
10.93
11.32
11.50
11.51
11.42
11.36
11.47
11.86
12.60
13.64
14.85
16.08
17.22
18.30
19.54
21.26
23.74
27.01
30.77
34.48
37.59
39.80
41.31
42.75
44.98
48.68
53.99
60.42
66.97
72.55
76.51
78.98
80.95
83.94
89.35
97.87
108.89
120.47
129.51
132.30
125.35
106.35
75.09
34.15
-11.39
-55.03
-90.72
-114.69
-126.46
-128.51
-124.84
-119.16
-113.60
-108.57
-103.50
-97.88
-91.95
-86.54
-82.42
-79.79
-78.07
-76.25
-73.44
-69.23
-63.68
-57.18
-50.18
-43.06
-36.17
-29.89
-24.55
-20.39
-17.44
-15.55
-14.50
-14.07
-14.13
-14.46
-14.77
-14.61
-13.60
-11.67
-9.15
-6.71
-5.05
-4.58
-5.26
-6.59
-7.84
-8.44
-8.14
-7.12
-5.89
-5.02
-4.90
-5.62
-6.95
-8.47
-9.74
-10.38
-10.20
-9.14
-7.31
-4.92
-2.29
0.23
2.30
3.69
4.36
4.47
4.30
4.12
4.09
4.20
4.34
4.38
4.31
4.26
4.41
4.94
5.88
7.11
8.46
9.79
11.09
12.40
13.81
15.29
16.69
17.81
18.47
18.64
18.41
17.93
17.32
16.62
15.75
14.60
13.10
11.21
8.97
6.44
3.69
0.88
-1.74
-3.90
-5.38
-6.15
-6.42
-6.51
-6.68
-7.03
-7.42
-7.67
-7.67
-7.49
-7.32
-7.30
-7.40
-7.43
-7.22
-6.71
-6.05
-5.54
-5.45
-5.86
-6.67
-7.62
-8.44
-8.91
-8.95
-8.68
-8.38
-8.42
-9.13
-10.67
-12.95
-15.68
-18.46
-20.95
-22.92
-24.29
-25.05
-25.24
-24.91
-24.17
-23.15
-21.99
-20.83
-19.79
-18.93
-18.33
-17.99
-17.85
-17.74
-17.48
-16.98
-16.37
-15.96
-16.10
-16.96
-18.34
-19.75
-20.51
-20.03
-18.00
-14.47
-9.74
-4.25
1.51
7.07
11.95
15.70
17.97
18.59
17.72
15.80
13.42
11.19
9.58
8.91
9.43
11.38
14.94
19.92
25.57
30.59
33.51
33.40
30.30
25.37
20.31
16.60
14.86
14.65
14.94
14.74
13.64
11.83
9.84
8.12
6.82
5.76
4.68
3.42
2.00
0.60
-0.57
-1.40
-1.86
-2.00
-1.90
-1.53
-0.80
0.40
2.10
4.19
6.34
8.12
9.10
9.05
7.94
6.05
3.78
1.61
-0.06
-0.94
-0.99
-0.36
0.60
1.49
1.99
1.99
1.53
0.78
-0.14
-1.17
-2.35
-3.67
-5.10
-6.49
-7.70
-8.61
-9.18
-9.44
-9.42
-9.17
-8.73
-8.14
-7.47
-6.79
-6.12
-5.47
-4.90
-4.45
-4.18
-4.02
-3.81
-3.35
-2.54
-1.50
-0.53
-0.02
-0.26
-1.29
-2.91
-4.79
-6.65
-8.33
-9.86
-11.34
-12.91
-14.67
-16.65
-18.81
-21.05
-23.15
-24.81
-25.68
-25.45
-23.94
-21.18
-17.47
-13.29
-9.15
-5.47
-2.41
0.10
2.29
4.48
6.91
9.72
12.93
16.42
20.00
23.41
26.37
28.69
30.38
31.66
32.86
34.29
36.06
37.99
39.68
40.67
40.65
39.57
37.63
35.19
32.56
29.95
27.35
24.69
21.99
19.51
17.76
17.32
18.56
21.35
24.93
28.17
30.05
30.07
28.48
26.22
24.44
24.12
25.92
30.10
36.45
43.90
50.25
52.47
47.64
34.40
14.08
-9.38
-30.84
-46.00
-53.11
-53.34
-49.65
-45.04
-41.18
-38.12
-35.10
-31.56
-27.77
-24.59
-22.76
-22.35
-22.62
-22.51
-21.14
-18.29
-14.52
-10.83
-8.17
-7.02
-7.24
-8.13
-8.83
-8.72
-7.64
-5.94
-4.26
-3.18
-2.99
-3.59
-4.58
-5.52
-6.08
-6.21
-6.05
-5.86
-5.84
-6.03
-6.35
-6.58
-6.49
-5.91
-4.80
-3.26
-1.56
-0.02
0.99
1.21
0.47
-1.21
-3.67
-6.55
-9.38
-11.66
-13.06
-13.60
-13.88
-14.92
-17.91
-23.66
-32.10
-42.22
-52.27
-60.46
-65.59
-67.46
-66.77
-64.71
-62.44
-60.79
-60.15
-60.58
-61.72
-62.75
-62.29
-58.66
-50.35
-36.73
-18.46
2.54
23.61
42.23
56.65
66.31
71.62
73.68
73.85
73.46
73.58
74.87
77.39
80.53
83.24
84.35
83.15
79.72
75.10
70.88
68.61
69.10
72.02
76.11
79.67
81.38
80.84
78.74
76.48
75.77
78.02
84.00
93.32
103.99
112.26
113.13
101.92
76.37
38.18
-6.79
-50.40
-85.12
-106.76
-115.52
-114.96
-109.73
-103.31
-97.04
-90.65
-83.60
-76.09
-69.17
-64.09
-61.35
-60.36
-59.71
-57.98
-54.58
-49.96
-45.34
-42.09
-40.99
-41.90
-43.90
-45.74
-46.40
-45.47
-43.21
-40.36
-37.78
-36.16
-35.81
-36.67
-38.36
-40.31
-41.92
-42.76
-42.65
-41.75
-40.48
-39.36
-38.70
-38.30
-37.43
-34.96
-29.91
-21.95
-11.68
-0.43
10.14
18.65
24.40
27.36
27.87
26.41
23.37
19.16
14.35
9.67
5.88
3.47
2.48
2.50
2.89
3.02
2.45
0.98
-1.44
-4.79
-9.06
-14.28
-20.32
-26.76
-32.71
-36.82
-37.58
-33.76
-24.94
-11.73
4.32
21.21
37.16
50.96
62.16
70.79
77.04
81.01
82.76
82.42
80.48
77.68
74.85
72.67
71.37
70.74
70.26
69.38
67.74
65.45
63.04
61.34
61.19
63.11
67.08
72.48
78.27
83.34
86.89
88.79
89.65
90.69
93.45
99.26
108.69
120.92
133.47
142.37
142.96
131.18
105.11
66.00
18.36
-31.11
-75.46
-109.43
-130.77
-140.27
-140.73
-135.49
-127.26
-117.69
-107.65
-97.78
-88.81
-81.49
-76.13
-72.40
-69.31
-65.75
-61.07
-55.38
-49.43
-44.25
-40.57
-38.55
-37.75
-37.38
-36.64
-34.96
-32.21
-28.68
-25.01
-21.91
-19.98
-19.39
-19.81
-20.60
-21.03
-20.69
-19.56
-18.01
-16.52
-15.43
-14.75
-14.25
-13.60
-12.58
-11.11
-9.27
-7.26
-5.33
-3.74
-2.69
-2.18
-2.02
-1.92
-1.62
-1.14
-0.75
-0.88
-1.77
-3.27
-4.81
-5.61
-5.07
-3.09
-0.08
3.20
6.05
8.04
9.13
9.56
9.67
9.74
9.92
10.22
10.53
10.64
10.37
9.57
8.30
6.74
5.19
3.85
2.75
1.70
0.40
-1.35
-3.50
-5.69
-7.40
-8.16
-7.73
-6.27
-4.23
-2.23
-0.79
-0.18
-0.38
-1.11
-2.03
-2.88
-3.56
-4.14
-4.69
-5.27
-5.79
-6.05
-5.82
-4.91
-3.29
-1.13
1.21
3.24
4.45
4.52
3.48
1.74
0.03
-0.92
-0.66
0.82
3.03
5.24
6.79
7.35
6.98
6.05
4.96
4.01
3.33
2.98
2.99
3.29
3.68
3.82
3.42
2.42
1.13
0.10
-0.20
0.32
1.25
1.93
1.84
0.91
-0.49
-1.75
-2.49
-2.71
-2.74
-2.92
-3.37
-3.84
-3.92
-3.37
-2.27
-1.10
-0.45
-0.71
-1.82
-3.28
-4.42
-4.72
-4.13
-3.07
-2.19
-2.05
-2.82
-4.27
-5.89
-7.19
-7.87
-7.86
-7.25
-6.11
-4.48
-2.40
-0.02
2.32
4.20
5.16
4.99
3.81
2.08
0.39
-0.76
-1.14
-0.88
-0.30
0.22
0.47
0.41
0.05
-0.59
-1.56
-2.79
-4.08
-5.01
-5.15
-4.28
-2.57
-0.50
1.43
2.98
4.34
5.91
7.96
10.34
12.51
13.80
13.84
12.76
11.19
9.94
9.59
10.23
11.52
12.79
13.40
12.95
11.40
9.09
6.58
4.40
2.89
2.03
1.55
1.06
0.30
-0.78
-2.05
-3.30
-4.41
-5.32
-6.04
-6.52
-6.66
-6.35
-5.58
-4.42
-3.07
-1.73
-0.54
0.44
1.21
1.83
2.36
2.86
3.40
4.01
4.66
5.16
5.24
4.61
3.11
0.82
-1.94
-4.63
-6.76
-7.99
-8.23
-7.67
-6.65
-5.53
-4.57
-3.90
-3.54
-3.43
-3.47
-3.56
-3.62
-3.60
-3.50
-3.35
-3.19
-3.06
-2.96
-2.89
-2.84
-2.82
-2.82
-2.80
-2.66
-2.38
-1.98
-1.62
-1.47
-1.63
-2.04
-2.48
-2.70
-2.52
-1.94
-1.09
-0.10
0.94
2.03
3.18
4.29
5.14
5.48
5.17
4.31
3.17
2.14
1.53
1.49
2.01
3.00
4.34
5.96
7.72
9.45
10.97
12.14
12.97
13.57
14.03
14.31
14.17
13.21
11.08
7.72
3.48
-0.96
-4.82
-7.55
-8.97
-9.33
-9.08
-8.67
-8.34
-8.11
-7.83
-7.42
-6.91
-6.49
-6.35
-6.56
-7.05
-7.57
-7.93
-8.00
-7.82
-7.47
-7.09
-6.86
-7.03
-7.92
-9.86
-13.01
-17.23
-21.99
-26.57
-30.24
-32.54
-33.28
-32.51
-30.31
-26.72
-21.77
-15.65
-8.83
-2.07
3.79
8.12
10.73
11.87
12.07
11.91
11.77
11.71
11.60
11.18
10.28
8.88
7.10
5.19
3.42
1.99
1.01
0.42
0.02
-0.49
-1.35
-2.66
-4.27
-5.84
-7.00
-7.58
-7.79
-8.19
-9.45
-11.99
-15.67
-19.83
-23.55
-26.22
-27.81
-28.98
-30.70
-33.76
-38.44
-44.59
-51.88
-59.90
-67.89
-74.37
-77.15
-74.06
-64.07
-48.31
-30.03
-13.47
-2.11
2.75
2.26
-0.95
-4.32
-6.47
-7.35
-7.39
-6.44
-3.27
3.95
16.61
34.59
55.93
77.34
95.39
107.92
114.94
118.46
121.46
126.55
134.88
145.92
158.06
169.23
177.39
180.35
175.86
162.00
138.08
105.56
68.09
30.60
-2.33
-27.93
-45.69
-56.72
-62.56
-64.27
-62.37
-57.38
-50.34
-42.88
-36.58
-32.31
-29.84
-28.08
-25.75
-22.01
-16.71
-10.37
-3.96
1.32
4.34
4.16
0.39
-6.65
-15.89
-25.75
-34.64
-41.49
-45.97
-48.38
-49.26
-49.00
-47.71
-45.38
-42.21
-38.65
-35.30
-32.56
-30.39
-28.38
-26.04
-23.09
-19.60
-15.88
-12.33
-9.21
-6.67
-4.77
-3.57
-3.11
-3.27
-3.79
-4.32
-4.55
-4.37
-3.84
-3.07
-2.11
-0.90
0.71
2.79
5.24
7.77
10.04
11.69
12.54
12.53
11.78
10.49
8.88
7.19
5.59
4.19
3.04
2.10
1.32
0.64
0.02
-0.55
-1.06
-1.50
-1.83
-1.99
-1.87
-1.39
-0.52
0.65
1.97
3.17
4.02
4.32
4.03
3.27
2.28
1.37
0.74
0.44
0.36
0.26
-0.04
-0.61
-1.36
-2.07
-2.55
-2.71
-2.56
-2.20
-1.80
-1.46
-1.26
-1.19
-1.20
-1.17
-1.00
-0.66
-0.18
0.30
0.64
0.74
0.64
0.46
0.38
0.50
0.83
1.24
1.54
1.60
1.42
1.13
0.87
0.76
0.80
0.86
0.83
0.63
0.31
0.02
-0.07
0.13
0.60
1.22
1.82
2.27
2.47
2.40
2.09
1.56
0.89
0.13
-0.64
-1.36
-1.98
-2.48
-2.85
-3.05
-3.07
-2.90
-2.60
-2.26
-2.02
-1.99
-2.16
-2.42
-2.59
-2.54
-2.22
-1.71
-1.15
-0.69
-0.41
-0.35
-0.47
-0.70
-0.91
-1.01
-0.87
-0.52
-0.01
0.46
0.73
0.70
0.39
-0.08
-0.52
-0.78
-0.80
-0.62
-0.36
-0.17
-0.23
-0.66
-1.52
-2.70
-4.00
-5.15
-5.91
-6.15
-5.96
-5.60
-5.40
-5.71
-6.69
-8.21
-9.79
-10.65
-9.98
-7.29
-2.70
2.96
8.44
12.53
14.58
14.70
13.55
11.91
10.30
8.75
7.06
5.07
2.93
1.08
-0.01
-0.16
0.40
1.12
1.42
0.97
-0.15
-1.56
-2.75
-3.36
-3.31
-2.81
-2.21
-1.82
-1.79
-2.05
-2.38
-2.55
-2.44
-2.12
-1.77
-1.63
-1.85
-2.40
-3.15
-3.91
-4.57
-5.18
-5.94
-7.02
-8.50
-10.21
-11.83
-12.94
-13.29
-12.88
-11.96
-10.94
-10.20
-9.96
-10.22
-10.80
-11.40
-11.78
-11.81
-11.56
-11.21
-11.06
-11.37
-12.24
-13.58
-15.08
-16.26
-16.71
-16.28
-15.20
-14.02
-13.41
-13.77
-15.00
-16.46
-17.26
-16.78
-14.97
-12.47
-10.28
-9.26
-9.68
-11.21
-13.08
-14.51
-14.84
-13.62
-10.59
-5.73
0.70
7.95
14.92
20.48
23.84
24.88
24.09
22.25
20.07
17.83
15.48
12.90
10.15
7.72
6.32
6.63
8.93
12.96
18.03
23.14
27.49
30.64
32.59
33.60
33.96
33.83
33.18
31.93
30.11
27.93
25.69
23.66
22.00
20.66
19.51
18.37
17.17
15.95
14.83
13.95
13.37
13.06
12.91
12.83
12.78
12.82
13.05
13.58
14.34
15.12
15.50
15.02
13.31
10.26
6.11
1.44
-3.03
-6.71
-9.29
-10.82
-11.61
-12.00
-12.21
-12.29
-12.20
-11.91
-11.50
-11.13
-10.93
-10.90
-10.92
-10.78
-10.36
-9.65
-8.81
-8.03
-7.47
-7.12
-6.88
-6.52
-5.87
-4.84
-3.48
-2.00
-0.63
0.45
1.18
1.68
2.12
2.67
3.37
4.13
4.79
5.20
5.32
5.25
5.15
5.18
5.42
5.87
6.50
7.26
8.02
8.52
8.47
7.58
5.79
3.26
0.40
-2.37
-4.73
-6.65
-8.28
-9.78
-11.10
-11.98
-12.09
-11.25
-9.61
-7.62
-5.80
-4.55
-3.95
-3.85
-3.99
-4.16
-4.35
-4.61
-5.01
-5.52
-6.00
-6.33
-6.42
-6.28
-5.95
-5.52
-5.04
-4.59
-4.21
-3.92
-3.70
-3.49
-3.21
-2.86
-2.47
-2.13
-1.91
-1.79
-1.71
-1.60
-1.42
-1.21
-1.03
-0.95
-0.96
-1.02
-1.04
-1.01
-0.91
-0.78
-0.63
-0.47
-0.30
-0.16
-0.08
-0.10
-0.21
-0.38
-0.54
-0.60
-0.53
-0.33
-0.08
0.10
0.11
-0.09
-0.46
-0.90
-1.29
-1.48
-1.45
-1.22
-0.92
-0.70
-0.67
-0.86
-1.20
-1.52
-1.67
-1.58
-1.34
-1.14
-1.21
-1.65
-2.40
-3.24
-3.93
-4.30
-4.31
-4.07
-3.76
-3.56
-3.60
-3.92
-4.49
-5.22
-6.01
-6.72
-7.21
-7.34
-6.96
-5.99
-4.46
-2.58
-0.66
0.96
2.05
2.57
2.70
2.71
2.89
3.37
4.13
5.04
5.94
6.69
7.19
7.41
7.31
6.93
6.37
5.75
5.21
4.81
4.55
4.36
4.13
3.76
3.19
2.41
1.47
0.46
-0.46
-1.12
-1.43
-1.41
-1.19
-0.96
-0.83
-0.78
-0.66
-0.30
0.35
1.23
2.13
2.82
3.15
3.11
2.75
2.18
1.55
1.10
1.05
1.57
2.59
3.78
4.64
4.76
4.00
2.58
1.01
-0.25
-0.90
-0.99
-0.74
-0.41
-0.12
0.14
0.42
0.69
0.87
0.85
0.57
0.13
-0.35
-0.67
-0.76
-0.62
-0.35
-0.07
0.10
0.08
-0.13
-0.48
-0.87
-1.18
-1.33
-1.29
-1.10
-0.89
-0.80
-0.92
-1.24
-1.62
-1.91
-1.98
-1.80
-1.47
-1.13
-0.93
-0.91
-1.03
-1.16
-1.19
-1.04
-0.76
-0.42
-0.11
0.10
0.21
0.26
0.29
0.35
0.44
0.56
0.69
0.82
0.92
0.98
1.00
0.98
0.92
0.84
0.71
0.50
0.21
-0.13
-0.46
-0.68
-0.69
-0.48
-0.09
0.38
0.80
1.09
1.25
1.32
1.38
1.43
1.47
1.41
1.22
0.90
0.51
0.14
-0.14
-0.32
-0.44
-0.55
-0.64
-0.67
-0.57
-0.32
0.00
0.27
0.35
0.19
-0.13
-0.48
-0.71
-0.76
-0.65
-0.48
-0.32
-0.23
-0.15
-0.03
0.15
0.35
0.46
0.38
0.07
-0.41
-0.91
-1.25
-1.33
-1.15
-0.83
-0.52
-0.32
-0.25
-0.24
-0.26
-0.27
-0.32
-0.45
-0.66
-0.94
-1.21
-1.42
-1.52
-1.53
-1.44
-1.27
-0.99
-0.63
-0.21
0.21
0.53
0.70
0.70
0.54
0.27
-0.05
-0.36
-0.59
-0.66
-0.54
-0.24
0.16
0.58
0.89
1.03
1.01
0.90
0.78
0.69
0.63
0.59
0.55
0.51
0.46
0.40
0.30
0.14
-0.07
-0.29
-0.44
-0.48
-0.40
-0.26
-0.13
-0.05
-0.06
-0.15
-0.31
-0.50
-0.68
-0.80
-0.84
-0.76
-0.60
-0.37
-0.14
0.04
0.11
0.03
-0.18
-0.50
-0.83
-1.07
-1.16
-1.08
-0.88
-0.64
-0.40
-0.21
-0.05
0.12
0.31
0.51
0.71
0.88
0.98
1.02
0.99
0.90
0.77
0.61
0.48
0.41
0.39
0.40
0.39
0.30
0.15
-0.03
-0.14
-0.14
-0.06
0.04
0.06
-0.03
-0.22
-0.41
-0.55
-0.58
-0.48
-0.29
-0.05
0.19
0.34
0.37
0.26
0.05
-0.19
-0.39
-0.48
-0.51
-0.52
-0.58
-0.69
-0.83
-0.93
-0.92
-0.78
-0.54
-0.27
-0.01
0.20
0.38
0.53
0.65
0.71
0.67
0.47
0.14
-0.27
-0.65
-0.88
-0.91
-0.76
-0.50
-0.24
-0.04
0.08
0.18
0.29
0.44
0.59
0.72
0.80
0.88
0.99
1.10
1.18
1.14
0.93
0.58
0.17
-0.19
-0.42
-0.51
-0.51
-0.44
-0.32
-0.16
0.03
0.20
0.28
0.23
0.09
-0.06
-0.08
0.07
0.34
0.63
0.80
0.81
0.69
0.52
0.38
0.28
0.17
-0.02
-0.29
-0.58
-0.80
-0.90
-0.88
-0.85
-0.90
-1.05
-1.23
-1.28
-1.07
-0.56
0.13
0.79
1.19
1.20
0.87
0.38
-0.06
-0.34
-0.43
-0.46
-0.49
-0.57
-0.66
-0.64
-0.49
-0.23
0.03
0.18
0.18
0.08
-0.03
-0.05
0.05
0.23
0.40
0.52
0.54
0.51
0.45
0.39
0.29
0.13
-0.10
-0.37
-0.61
-0.75
-0.77
-0.67
-0.49
-0.29
-0.14
-0.07
-0.05
-0.06
-0.03
0.07
0.26
0.50
0.73
0.90
0.99
0.99
0.90
0.69
0.39
0.03
-0.29
-0.47
-0.43
-0.23
0.03
0.21
0.22
0.07
-0.13
-0.31
-0.40
-0.41
-0.39
-0.37
-0.32
-0.18
0.06
0.37
0.64
0.71
0.50
0.05
-0.49
-0.90
-0.99
-0.74
-0.26
0.21
0.47
0.44
0.17
-0.15
-0.36
-0.36
-0.19
0.08
0.33
0.52
0.63
0.64
0.54
0.32
0.02
-0.27
-0.45
-0.43
-0.23
0.07
0.34
0.50
0.51
0.43
0.31
0.19
0.06
-0.12
-0.34
-0.58
-0.75
-0.76
-0.61
-0.34
-0.09
0.03
-0.05
-0.28
-0.53
-0.65
-0.57
-0.28
0.10
0.47
0.74
0.89
0.96
1.00
1.03
1.01
0.90
0.69
0.43
0.19
0.06
0.07
0.20
0.38
0.53
0.58
0.51
0.33
0.09
-0.14
-0.33
-0.45
-0.54
-0.60
-0.64
-0.62
-0.52
-0.33
-0.10
0.06
0.08
-0.05
-0.23
-0.33
-0.24
0.02
0.29
0.40
0.22
-0.21
-0.73
-1.11
-1.20
-1.00
-0.65
-0.32
-0.12
-0.08
-0.09
-0.04
0.09
0.26
0.34
0.25
-0.00
-0.30
-0.46
-0.38
-0.05
0.39
0.79
1.03
1.06
0.95
0.75
0.51
0.25
-0.04
-0.30
-0.44
-0.40
-0.17
0.12
0.30
0.26
-0.01
-0.38
-0.66
-0.73
-0.61
-0.40
-0.26
-0.27
-0.39
-0.52
-0.54
-0.42
-0.21
0.05
0.30
0.52
0.69
0.79
0.79
0.69
0.52
0.36
0.30
0.39
0.60
0.86
1.06
1.11
0.96
0.65
0.25
-0.16
-0.47
-0.64
-0.68
-0.63
-0.56
-0.52
-0.54
-0.59
-0.68
-0.80
-0.95
-1.14
-1.36
-1.57
-1.74
-1.83
-1.88
-1.94
-2.05
-2.22
-2.41
-2.55
-2.57
-2.47
-2.34
-2.32
-2.57
-3.17
-4.12
-5.25
-6.32
-7.06
-7.37
-7.34
-7.33
-7.79
-9.08
-11.22
-13.83
-16.27
-17.95
-18.69
-18.89
-19.35
-20.94
-24.04
-28.31
-32.82
-36.50
-38.69
-39.45
-39.53
-40.03
-41.89
-45.61
-51.25
-58.38
-65.98
-72.15
-74.12
-68.89
-54.42
-30.98
-1.68
28.31
53.55
70.44
78.36
79.32
76.48
72.49
68.52
64.52
60.09
55.41
51.30
48.77
48.22
49.09
50.10
50.00
48.15
44.91
41.35
38.69
37.66
38.16
39.34
40.13
39.68
37.82
35.03
32.12
29.90
28.76
28.67
29.09
29.10
27.53
23.27
15.70
5.12
-7.17
-19.16
-28.84
-35.00
-37.56
-37.44
-35.91
-33.97
-32.01
-29.93
-27.56
-24.99
-22.55
-20.65
-19.46
-18.78
-18.20
-17.33
-15.99
-14.27
-12.45
-10.83
-9.58
-8.74
-8.22
-7.87
-7.53
-7.11
-6.57
-5.97
-5.43
-5.05
-4.93
-5.04
-5.27
-5.37
-5.13
-4.48
-3.51
-2.53
-1.88
-1.76
-2.16
-2.77
-3.15
-2.93
-2.06
-0.81
0.33
0.93
0.89
0.51
0.33
0.85
2.18
3.92
5.39
5.90
5.18
3.51
1.57
0.14
-0.22
0.78
3.25
7.34
13.19
20.88
30.11
40.11
49.82
58.29
65.10
70.34
74.22
76.44
75.86
70.69
59.41
41.74
19.26
-4.74
-26.23
-41.76
-49.60
-50.03
-45.05
-37.47
-29.88
-23.97
-20.41
-19.06
-19.42
-21.02
-23.54
-26.70
-30.07
-32.97
-34.67
-34.62
-32.77
-29.62
-25.98
-22.67
-20.11
-18.28
-16.82
-15.26
-13.32
-10.97
-8.46
-6.13
-4.31
-3.16
-2.64
-2.55
-2.61
-2.54
-2.19
-1.55
-0.81
-0.18
0.10
-0.03
-0.43
-0.87
-1.09
-0.97
-0.55
-0.01
0.45
0.69
0.72
0.64
0.55
0.50
0.48
0.44
0.38
0.32
0.32
0.41
0.56
0.71
0.83
0.88
0.92
1.00
1.17
1.42
1.70
1.93
2.04
2.01
1.87
1.69
1.54
1.44
1.36
1.26
1.06
0.77
0.47
0.25
0.19
0.30
0.53
0.83
1.13
1.38
1.57
1.65
1.60
1.46
1.28
1.13
1.09
1.13
1.21
1.22
1.13
0.96
0.79
0.69
0.68
0.69
0.64
0.50
0.29
0.10
0.03
0.13
0.36
0.59
0.72
0.68
0.52
0.38
0.36
0.50
0.75
1.01
1.19
1.29
1.33
1.41
1.54
1.74
1.97
2.20
2.43
2.66
2.87
3.06
3.21
3.29
3.35
3.43
3.59
3.86
4.20
4.57
4.90
5.18
5.40
5.58
5.70
5.73
5.57
5.17
4.52
3.65
2.66
1.60
0.47
-0.83
-2.46
-4.50
-6.92
-9.50
-11.91
-13.76
-14.74
-14.70
-13.63
-11.63
-8.94
-5.94
-3.12
-0.97
0.16
0.21
-0.55
-1.62
-2.49
-2.88
-2.82
-2.51
-2.15
-1.81
-1.36
-0.68
0.29
1.39
2.38
3.04
3.28
3.14
2.78
2.32
1.83
1.32
0.78
0.23
-0.32
-0.81
-1.19
-1.44
-1.50
-1.39
-1.12
-0.77
-0.41
-0.14
0.05
0.19
0.38
0.66
1.01
1.30
1.42
1.29
0.95
0.51
0.11
-0.17
-0.33
-0.43
-0.57
-0.79
-1.07
-1.34
-1.49
-1.48
-1.32
-1.10
-0.90
-0.80
-0.80
-0.84
-0.85
-0.78
-0.67
-0.57
-0.53
-0.53
-0.52
-0.41
-0.20
0.06
0.26
0.30
0.15
-0.13
-0.45
-0.69
-0.80
-0.78
-0.67
-0.50
-0.32
-0.16
-0.05
-0.03
-0.12
-0.33
-0.61
-0.91
-1.12
-1.18
-1.07
-0.78
-0.36
0.12
0.59
0.96
1.16
1.13
0.89
0.49
0.06
-0.31
-0.52
-0.55
-0.44
-0.23
-0.01
0.18
0.30
0.34
0.30
0.20
0.04
-0.12
-0.24
-0.25
-0.10
0.20
0.55
0.84
0.94
0.82
0.57
0.34
0.27
0.40
0.66
0.89
1.00
0.99
0.92
0.88
0.91
1.01
1.14
1.31
1.51
1.73
1.93
1.99
1.80
1.29
0.49
-0.53
-1.62
-2.66
-3.53
-4.14
-4.46
-4.52
-4.41
-4.28
-4.27
-4.50
-4.92
-5.42
-5.80
-5.94
-5.83
-5.60
-5.44
-5.48
-5.73
-6.05
-6.24
-6.17
-5.79
-5.14
-4.31
-3.33
-2.18
-0.80
0.78
2.45
4.03
5.31
6.18
6.66
6.88
7.01
7.20
7.50
7.90
8.29
8.59
8.71
8.65
8.51
8.41
8.46
8.69
8.98
9.17
9.05
8.53
7.66
6.55
5.33
4.06
2.73
1.36
0.02
-1.10
-1.80
-2.03
-1.91
-1.72
-1.76
-2.16
-2.80
-3.40
-3.64
-3.36
-2.61
-1.60
-0.58
0.28
0.92
1.37
1.67
1.79
1.66
1.21
0.43
-0.63
-1.81
-3.01
-4.17
-5.30
-6.44
-7.58
-8.63
-9.40
-9.73
-9.54
-8.86
-7.84
-6.67
-5.51
-4.46
-3.54
-2.75
-2.04
-1.35
-0.62
0.16
0.95
1.70
2.30
2.72
2.96
3.08
3.13
3.11
3.01
2.78
2.46
2.07
1.70
1.39
1.16
1.02
0.95
0.94
0.99
1.07
1.14
1.21
1.28
1.42
1.66
1.96
2.23
2.33
2.18
1.78
1.26
0.77
0.42
0.22
0.11
-0.01
-0.19
-0.39
-0.49
-0.37
-0.04
0.37
0.64
0.60
0.21
-0.39
-0.94
-1.20
-1.09
-0.67
-0.12
0.37
0.69
0.86
0.89
0.84
0.69
0.40
-0.00
-0.46
-0.90
-1.23
-1.44
-1.58
-1.66
-1.71
-1.69
-1.54
-1.24
-0.83
-0.41
-0.07
0.13
0.20
0.18
0.14
0.09
0.02
-0.08
-0.18
-0.24
-0.18
0.01
0.29
0.56
0.72
0.71
0.58
0.43
0.36
0.41
0.53
0.65
0.68
0.59
0.41
0.19
-0.08
-0.37
-0.70
-1.04
-1.32
-1.49
-1.49
-1.36
-1.15
-0.96
-0.83
-0.81
-0.90
-1.08
-1.30
-1.53
-1.74
-1.90
-2.01
-2.08
-2.18
-2.37
-2.72
-3.20
-3.76
-4.29
-4.67
-4.87
-4.93
-5.00
-5.26
-5.84
-6.73
-7.79
-8.83
-9.64
-10.15
-10.44
-10.70
-11.12
-11.82
-12.78
-13.86
-14.84
-15.49
-15.61
-15.09
-13.85
-11.92
-9.38
-6.40
-3.18
0.05
3.11
5.88
8.33
10.49
12.41
14.04
15.29
16.02
16.12
15.57
14.51
13.17
11.84
10.77
10.11
9.88
9.96
10.16
10.26
10.12
9.65
8.92
8.01
7.07
6.15
5.26
4.39
3.52
2.66
1.86
1.16
0.57
0.09
-0.29
-0.53
-0.62
-0.51
-0.22
0.17
0.59
0.96
1.24
1.41
1.44
1.31
1.04
0.61
0.06
-0.68
-1.67
-3.00
-4.69
-6.56
-8.31
-9.55
-9.96
-9.40
-7.90
-5.57
-2.57
0.94
4.74
8.50
11.77
14.16
15.43
15.58
14.87
13.66
12.24
10.77
9.26
7.68
6.03
4.43
3.02
1.94
1.27
0.94
0.82
0.75
0.63
0.43
0.21
0.07
0.08
0.23
0.45
0.65
0.72
0.63
0.42
0.14
-0.16
-0.47
-0.82
-1.24
-1.74
-2.29
-2.86
-3.43
-4.03
-4.67
-5.39
-6.14
-6.85
-7.42
-7.79
-7.94
-7.96
-7.93
-7.94
-8.00
-8.04
-7.95
-7.62
-7.06
-6.34
-5.63
-5.11
-4.85
-4.81
-4.85
-4.83
-4.64
-4.28
-3.84
-3.41
-3.05
-2.78
-2.57
-2.35
-2.09
-1.78
-1.47
-1.26
-1.21
-1.39
-1.77
-2.27
-2.76
-3.08
-3.05
-2.50
-1.29
0.64
3.19
6.11
9.00
11.43
13.05
13.68
13.37
12.25
10.49
8.20
5.39
2.12
-1.46
-5.09
-8.41
-11.05
-12.73
-13.27
-12.57
-10.60
-7.39
-3.10
1.96
7.26
12.13
15.90
18.11
18.63
17.70
15.86
13.74
11.82
10.26
8.90
7.37
5.36
2.81
0.00
-2.58
-4.50
-5.61
-6.15
-6.70
-7.86
-10.00
-13.06
-16.57
-19.85
-22.37
-24.01
-25.16
-26.59
-29.09
-33.05
-38.26
-43.93
-49.09
-53.04
-55.64
-57.24
-58.45
-59.81
-61.62
-64.20
-67.97
-73.31
-79.92
-86.22
-89.23
-85.37
-71.88
-48.15
-16.16
20.15
56.30
88.58
114.74
133.84
145.81
151.13
150.96
147.29
142.89
140.64
142.38
147.87
154.43
157.57
152.19
134.15
101.58
55.63
0.37
-58.24
-113.94
-161.97
-200.09
-228.41
-248.06
-259.55
-261.68
-251.83
-227.42
-187.93
-136.15
-78.06
-21.19
27.69
64.53
88.58
101.70
106.83
106.74
103.39
98.04
91.82
86.14
82.57
82.17
84.84
88.98
92.03
91.68
87.03
79.23
71.01
65.49
64.71
68.76
75.83
83.13
88.21
90.01
89.22
87.83
88.34
92.74
101.76
114.36
127.58
136.87
137.00
123.59
94.90
53.06
3.94
-44.38
-84.26
-110.96
-123.84
-125.69
-120.97
-113.58
-105.76
-98.08
-90.41
-82.94
-76.45
-71.97
-69.94
-69.84
-70.21
-69.42
-66.46
-61.36
-55.15
-49.40
-45.48
-44.05
-44.81
-46.70
-48.34
-48.56
-46.89
-43.71
-40.09
-37.36
-36.57
-38.11
-41.50
-45.64
-49.22
-51.22
-51.26
-49.74
-47.65
-46.29
-46.89
-50.40
-57.02
-65.76
-74.04
-77.84
-72.78
-55.76
-26.64
11.15
51.51
87.83
115.34
132.58
141.22
144.63
146.08
147.61
149.68
151.51
151.35
146.84
135.53
115.82
87.99
54.79
20.91
-8.53
-29.85
-41.91
-46.03
-44.87
-41.03
-36.22
-31.29
-26.72
-23.12
-21.15
-21.15
-22.70
-24.68
-25.73
-24.89
-22.07
-17.99
-13.92
-10.98
-9.70
-9.85
-10.60
-11.02
-10.49
-9.07
-7.34
-6.13
-6.04
-7.17
-9.09
-11.08
-12.46
-12.87
-12.35
-11.21
-9.86
-8.64
-7.70
-7.10
-6.80
-6.74
-6.75
-6.61
-6.01
-4.62
-2.17
1.50
6.39
12.36
19.09
26.09
32.68
38.04
41.40
42.35
41.03
38.15
34.78
31.81
29.63
27.88
25.79
22.67
18.38
13.46
8.99
6.09
5.46
7.31
11.39
17.02
22.86
26.81
26.33
19.33
5.24
-14.18
-35.22
-53.53
-65.82
-71.10
-70.60
-66.72
-61.54
-55.91
-49.61
-42.15
-33.71
-25.25
-18.13
-13.20
-10.37
-8.71
-7.08
-4.73
-1.71
1.26
3.22
3.57
2.29
0.01
-2.35
-3.95
-4.33
-3.57
-2.14
-0.70
0.23
0.38
-0.15
-1.02
-1.80
-2.21
-2.19
-1.89
-1.60
-1.53
-1.78
-2.25
-2.74
-3.06
-3.14
-3.02
-2.87
-2.83
-2.98
-3.26
-3.56
-3.73
-3.69
-3.44
-3.04
-2.61
-2.26
-2.06
-2.05
-2.18
-2.35
-2.42
-2.27
-1.88
-1.29
-0.63
-0.07
0.30
0.42
0.34
0.12
-0.14
-0.37
-0.51
-0.55
-0.51
-0.45
-0.48
-0.70
-1.15
-1.81
-2.53
-3.11
-3.36
-3.16
-2.59
-1.86
-1.28
-1.10
-1.42
-2.12
-2.96
-3.70
-4.25
-4.73
-5.46
-6.74
-8.72
-11.32
-14.20
-16.95
-19.25
-21.03
-22.49
-23.96
-25.72
-27.84
-30.07
-31.88
-32.68
-32.07
-30.09
-27.31
-24.65
-23.00
-22.85
-23.95
-25.48
-26.30
-25.48
-22.82
-18.85
-14.72
-11.84
-11.30
-13.41
-17.16
-20.00
-18.28
-8.43
11.54
40.83
75.51
109.19
134.69
146.03
140.14
117.74
83.11
42.86
3.95
-28.16
-50.84
-64.38
-71.05
-73.39
-72.76
-68.86
-60.50
-46.96
-29.04
-8.96
10.62
27.85
42.37
55.02
66.99
78.78
89.96
99.56
106.70
110.81
111.26
106.91
96.02
77.07
49.95
16.85
-17.92
-49.24
-72.97
-87.21
-92.37
-90.20
-82.62
-71.00
-56.21
-39.12
-21.02
-3.31
12.98
27.76
41.86
56.35
71.69
86.86
99.12
104.64
99.85
83.00
55.32
21.10
-13.54
-42.68
-62.63
-73.00
-76.23
-76.10
-75.84
-76.96
-79.12
-80.99
-81.30
-79.52
-75.91
-70.96
-64.83
-57.23
-47.55
-35.39
-20.87
-4.70
11.98
27.95
42.24
54.27
63.84
71.00
75.85
78.37
78.31
75.37
69.47
61.15
51.75
43.15
37.29
35.43
37.78
43.46
51.06
59.24
67.14
74.40
80.91
86.48
90.78
93.43
94.33
93.75
92.16
90.00
87.41
84.09
79.25
71.68
59.99
43.08
20.74
-5.85
-34.11
-60.59
-82.05
-96.47
-103.59
-104.76
-102.06
-97.45
-92.12
-86.55
-80.86
-75.27
-70.23
-66.16
-63.17
-60.92
-58.76
-56.05
-52.48
-48.15
-43.60
-39.41
-36.04
-33.59
-31.82
-30.32
-28.61
-26.30
-23.18
-19.31
-14.95
-10.63
-6.97
-4.52
-3.49
-3.70
-4.60
-5.58
-6.22
-6.41
-6.35
-6.26
-6.20
-5.98
-5.35
-4.15
-2.52
-0.85
0.46
1.14
1.25
1.08
1.03
1.35
2.09
3.08
4.08
4.90
5.48
5.86
6.10
6.22
6.21
6.04
5.73
5.31
4.86
4.40
3.94
3.49
3.04
2.65
2.34
2.13
1.93
1.63
1.11
0.30
-0.72
-1.84
-2.89
-3.77
-4.46
-5.00
-5.48
-5.94
-6.41
-6.87
-7.28
-7.63
-7.91
-8.16
-8.39
-8.61
-8.82
-9.00
-9.18
-9.35
-9.51
-9.57
-9.42
-8.96
-8.16
-7.08
-5.87
-4.73
-3.80
-3.14
-2.71
-2.44
-2.26
-2.15
-2.12
-2.20
-2.38
-2.69
-3.14
-3.70
-4.38
-5.13
-5.94
-6.79
-7.68
-8.60
-9.50
-10.25
-10.71
-10.79
-10.47
-9.87
-9.09
-8.18
-7.06
-5.55
-3.50
-0.87
2.22
5.53
8.76
11.64
13.97
15.61
16.54
16.82
16.60
16.12
15.58
15.13
14.79
14.48
14.10
13.57
12.88
12.05
11.14
10.17
9.14
8.07
6.98
5.94
5.07
4.49
4.23
4.26
4.46
4.64
4.65
4.37
3.80
3.04
2.23
1.49
0.92
0.53
0.26
0.04
-0.22
-0.56
-0.94
-1.31
-1.57
-1.68
-1.64
-1.49
-1.29
-1.13
-1.04
-1.05
-1.13
-1.25
-1.30
-1.24
-1.03
-0.73
-0.47
-0.36
-0.46
-0.72
-1.00
-1.14
-1.07
-0.82
-0.54
-0.38
-0.43
-0.64
-0.91
-1.06
-1.00
-0.71
-0.32
0.03
0.20
0.15
-0.08
-0.39
-0.66
-0.83
-0.87
-0.77
-0.53
-0.13
0.37
0.89
1.32
1.54
1.51
1.26
0.93
0.69
0.71
1.07
1.77
2.70
3.66
4.44
4.88
4.94
4.74
4.48
4.40
4.62
5.13
5.77
6.38
6.85
7.19
7.50
7.89
8.41
9.00
9.54
9.91
10.05
9.91
9.43
8.57
7.36
5.98
4.71
3.74
3.05
2.27
0.87
-1.57
-5.10
-9.28
-13.36
-16.54
-18.34
-18.67
-17.80
-16.15
-14.12
-12.03
-10.05
-8.29
-6.76
-5.44
-4.27
-3.21
-2.29
-1.54
-0.97
-0.60
-0.37
-0.25
-0.21
-0.27
-0.44
-0.71
-1.00
-1.17
-1.14
-0.87
-0.45
-0.02
0.25
0.29
0.11
-0.17
-0.41
-0.52
-0.49
-0.39
-0.33
-0.38
-0.51
-0.66
-0.72
-0.65
-0.48
-0.28
-0.13
-0.05
-0.04
-0.06
-0.10
-0.13
-0.19
-0.29
-0.44
-0.62
-0.81
-0.99
-1.13
-1.25
-1.36
-1.48
-1.63
-1.79
-1.91
-1.94
-1.82
-1.55
-1.19
-0.82
-0.53
-0.37
-0.34
-0.39
-0.43
-0.43
-0.36
-0.29
-0.27
-0.33
-0.48
-0.70
-0.93
-1.14
-1.30
-1.41
-1.45
-1.40
-1.24
-0.99
-0.69
-0.44
-0.32
-0.37
-0.57
-0.81
-0.99
-1.03
-0.93
-0.78
-0.69
-0.76
-0.99
-1.29
-1.50
-1.52
-1.32
-1.00
-0.73
-0.61
-0.63
-0.71
-0.71
-0.54
-0.22
0.17
0.49
0.65
0.63
0.46
0.19
-0.11
-0.39
-0.63
-0.82
-0.97
-1.13
-1.31
-1.49
-1.58
-1.49
-1.17
-0.64
-0.04
0.47
0.79
0.93
1.00
1.16
1.50
2.01
2.57
2.99
3.12
2.94
2.50
1.94
1.41
1.02
0.76
0.63
0.57
0.55
0.53
0.51
0.46
0.35
0.20
0.02
-0.09
-0.07
0.12
0.46
0.81
1.05
1.10
0.98
0.80
0.67
0.66
0.75
0.84
0.82
0.67
0.44
0.24
0.15
0.19
0.33
0.50
0.62
0.66
0.63
0.57
0.52
0.51
0.53
0.55
0.53
0.42
0.22
-0.02
-0.20
-0.24
-0.08
0.24
0.59
0.85
0.90
0.72
0.36
-0.05
-0.41
-0.67
-0.84
-0.97
-1.10
-1.25
-1.36
-1.39
-1.30
-1.16
-1.04
-1.02
-1.08
-1.19
-1.24
-1.20
-1.07
-0.92
-0.80
-0.74
-0.71
-0.67
-0.62
-0.58
-0.57
-0.55
-0.47
-0.25
0.12
0.60
1.05
1.38
1.50
1.40
1.10
0.64
0.08
-0.47
-0.88
-1.02
-0.79
-0.24
0.44
1.02
1.30
1.22
0.86
0.40
-0.01
-0.27
-0.42
-0.50
-0.52
-0.42
-0.16
0.25
0.72
1.08
1.19
0.98
0.54
0.03
-0.38
-0.56
-0.52
-0.35
-0.18
-0.15
-0.30
-0.58
-0.87
-1.04
-1.00
-0.74
-0.35
0.05
0.34
0.44
0.36
0.13
-0.16
-0.44
-0.63
-0.72
-0.71
-0.64
-0.56
-0.50
-0.48
-0.46
-0.41
-0.25
0.03
0.40
0.80
1.14
1.30
1.22
0.93
0.51
0.10
-0.18
-0.29
-0.27
-0.20
-0.18
-0.19
-0.20
-0.14
0.01
0.18
0.30
0.25
0.02
-0.33
-0.68
-0.90
-0.93
-0.80
-0.59
-0.43
-0.42
-0.57
-0.87
-1.19
-1.42
-1.50
-1.40
-1.20
-0.97
-0.77
-0.63
-0.53
-0.43
-0.31
-0.20
-0.15
-0.20
-0.39
-0.71
-1.11
-1.50
-1.82
-2.00
-2.04
-1.94
-1.76
-1.58
-1.43
-1.35
-1.30
-1.25
-1.15
-1.01
-0.90
-0.92
-1.15
-1.59
-2.15
-2.68
-3.02
-3.07
-2.85
-2.39
-1.72
-0.84
0.27
1.52
2.75
3.70
4.16
4.08
3.62
3.05
2.66
2.57
2.74
3.01
3.20
3.23
3.12
2.92
2.72
2.59
2.55
2.62
2.77
2.96
3.11
3.13
2.99
2.66
2.21
1.68
1.13
0.60
0.12
-0.27
-0.53
-0.63
-0.58
-0.42
-0.21
0.02
0.20
0.30
0.31
0.18
-0.06
-0.37
-0.64
-0.82
-0.83
-0.69
-0.47
-0.26
-0.14
-0.14
-0.27
-0.48
-0.76
-1.03
-1.20
-1.20
-0.98
-0.58
-0.12
0.23
0.31
0.10
-0.32
-0.77
-1.06
-1.07
-0.81
-0.36
0.14
0.56
0.82
0.89
0.76
0.50
0.19
-0.05
-0.14
-0.09
0.06
0.22
0.33
0.37
0.36
0.34
0.33
0.33
0.34
0.35
0.37
0.40
0.40
0.31
0.14
-0.06
-0.18
-0.17
-0.03
0.14
0.21
0.11
-0.13
-0.39
-0.56
-0.56
-0.42
-0.23
-0.06
0.03
0.04
-0.02
-0.13
-0.32
-0.60
-0.92
-1.21
-1.39
-1.42
-1.31
-1.11
-0.88
-0.65
-0.46
-0.28
-0.11
0.03
0.11
0.09
-0.05
-0.31
-0.62
-0.87
-0.95
-0.82
-0.50
-0.11
0.22
0.40
0.43
0.42
0.48
0.66
0.90
1.05
0.98
0.67
0.21
-0.22
-0.47
-0.46
-0.22
0.11
0.42
0.58
0.56
0.38
0.11
-0.13
-0.26
-0.21
0.02
0.38
0.76
1.06
1.20
1.14
0.90
0.54
0.15
-0.18
-0.38
-0.43
-0.35
-0.17
0.02
0.17
0.21
0.12
-0.10
-0.39
-0.67
-0.85
-0.88
-0.74
-0.47
-0.11
0.25
0.55
0.75
0.79
0.68
0.45
0.18
-0.05
-0.16
-0.14
-0.04
0.08
0.16
0.16
0.12
0.06
0.01
-0.03
-0.07
-0.12
-0.18
-0.18
-0.06
0.18
0.50
0.80
0.94
0.85
0.54
0.13
-0.24
-0.43
-0.41
-0.24
0.01
0.23
0.37
0.42
0.41
0.36
0.28
0.19
0.06
-0.09
-0.28
-0.48
-0.67
-0.81
-0.88
-0.85
-0.72
-0.48
-0.12
0.30
0.73
1.03
1.13
0.99
0.67
0.28
-0.03
-0.21
-0.27
-0.30
-0.37
-0.51
-0.69
-0.81
-0.80
-0.65
-0.39
-0.14
0.01
-0.02
-0.20
-0.44
-0.62
-0.65
-0.50
-0.24
0.05
0.27
0.40
0.45
0.46
0.46
0.44
0.38
0.25
0.08
-0.10
-0.22
-0.26
-0.20
-0.05
0.15
0.32
0.40
0.34
0.17
-0.05
-0.24
-0.33
-0.32
-0.26
-0.25
-0.35
-0.53
-0.71
-0.79
-0.73
-0.54
-0.32
-0.13
-0.02
0.07
0.21
0.45
0.74
1.00
1.10
0.99
0.72
0.41
0.18
0.08
0.07
0.07
-0.01
-0.16
-0.33
-0.41
-0.37
-0.21
0.02
0.22
0.33
0.34
0.27
0.14
-0.04
-0.24
-0.44
-0.59
-0.67
-0.64
-0.56
-0.49
-0.50
-0.62
-0.79
-0.92
-0.90
-0.71
-0.40
-0.09
0.10
0.12
0.01
-0.13
-0.19
-0.11
0.07
0.27
0.38
0.36
0.22
0.03
-0.08
-0.05
0.15
0.44
0.73
0.92
0.99
0.97
0.91
0.85
0.78
0.68
0.53
0.33
0.16
0.08
0.11
0.24
0.41
0.52
0.52
0.41
0.23
0.07
-0.01
0.03
0.13
0.23
0.24
0.13
-0.08
-0.29
-0.43
-0.45
-0.37
-0.23
-0.13
-0.09
-0.11
-0.16
-0.22
-0.25
-0.25
-0.25
-0.26
-0.26
-0.23
-0.15
-0.03
0.09
0.12
0.03
-0.17
-0.42
-0.58
-0.57
-0.35
-0.03
0.25
0.33
0.14
-0.24
-0.67
-0.94
-0.96
-0.71
-0.32
0.05
0.30
0.38
0.38
0.36
0.38
0.44
0.49
0.52
0.53
0.55
0.59
0.64
0.66
0.61
0.49
0.32
0.14
-0.05
-0.24
-0.41
-0.51
-0.47
-0.23
0.18
0.67
1.06
1.21
1.09
0.75
0.36
0.10
0.04
0.20
0.44
0.66
0.74
0.67
0.48
0.22
-0.08
-0.41
-0.74
-1.04
-1.23
-1.27
-1.12
-0.84
-0.51
-0.24
-0.09
-0.05
-0.07
-0.06
-0.00
0.09
0.17
0.19
0.14
0.02
-0.13
-0.25
-0.35
-0.39
-0.40
-0.34
-0.22
-0.03
0.16
0.32
0.37
0.32
0.20
0.08
0.00
-0.00
0.02
0.01
-0.07
-0.24
-0.45
-0.63
-0.68
-0.56
-0.26
0.19
0.71
1.18
1.51
1.60
1.43
1.01
0.44
-0.13
-0.59
-0.88
-1.01
-1.04
-1.04
-1.04
-1.03
-0.97
-0.85
-0.68
-0.52
-0.40
-0.30
-0.13
0.14
0.45
0.70
0.77
0.61
0.30
-0.02
-0.22
-0.28
-0.26
-0.25
-0.29
-0.33
-0.23
0.07
0.52
0.93
1.13
0.99
0.59
0.12
-0.21
-0.28
-0.11
0.15
0.34
0.38
0.27
0.10
-0.03
-0.09
-0.06
0.04
0.16
0.28
0.34
0.32
0.19
-0.02
-0.21
-0.30
-0.24
-0.05
0.17
0.35
0.40
0.33
0.15
-0.09
-0.34
-0.60
-0.82
-0.99
-1.06
-1.01
-0.84
-0.59
-0.34
-0.13
0.02
0.09
0.11
0.09
0.06
0.07
0.11
0.15
0.16
0.12
0.02
-0.07
-0.10
-0.03
0.13
0.34
0.52
0.59
0.55
0.40
0.19
-0.01
-0.13
-0.13
0.01
0.28
0.57
0.73
0.62
0.22
-0.37
-0.96
-1.33
-1.37
-1.11
-0.68
-0.26
0.07
0.26
0.34
0.31
0.16
-0.12
-0.48
-0.81
-1.00
-0.96
-0.71
-0.38
-0.11
-0.04
-0.19
-0.47
-0.74
-0.89
-0.81
-0.53
-0.11
0.36
0.76
1.01
1.05
0.92
0.69
0.49
0.41
0.48
0.64
0.79
0.86
0.81
0.68
0.53
0.39
0.25
0.12
-0.03
-0.15
-0.20
-0.17
-0.07
0.05
0.17
0.25
0.26
0.17
-0.04
-0.34
-0.66
-0.87
-0.91
-0.76
-0.52
-0.29
-0.18
-0.18
-0.24
-0.29
-0.29
-0.24
-0.17
-0.07
0.05
0.22
0.43
0.64
0.79
0.82
0.76
0.66
0.60
0.59
0.61
0.56
0.40
0.13
-0.17
-0.39
-0.43
-0.31
-0.13
-0.01
-0.02
-0.15
-0.29
-0.36
-0.31
-0.15
0.05
0.23
0.37
0.51
0.67
0.87
1.03
1.10
1.01
0.80
0.55
0.38
0.33
0.39
0.46
0.44
0.30
0.12
-0.01
0.00
0.14
0.32
0.39
0.27
-0.00
-0.32
-0.56
-0.63
-0.57
-0.49
-0.46
-0.53
-0.65
-0.75
-0.78
-0.72
-0.62
-0.53
-0.49
-0.50
-0.55
-0.62
-0.69
-0.75
-0.77
-0.71
-0.56
-0.30
0.03
0.41
0.75
1.00
1.09
0.99
0.71
0.29
-0.16
-0.53
-0.74
-0.76
-0.59
-0.30
0.05
0.41
0.71
0.90
0.91
0.74
0.41
0.01
-0.38
-0.68
-0.81
-0.77
-0.54
-0.17
0.30
0.77
1.11
1.21
0.99
0.49
-0.14
-0.72
-1.11
-1.25
-1.19
-1.02
-0.82
-0.62
-0.41
-0.16
0.15
0.45
0.66
0.74
0.65
0.43
0.13
-0.18
-0.45
-0.64
-0.71
-0.66
-0.49
-0.20
0.14
0.51
0.83
1.05
1.13
1.06
0.88
0.65
0.44
0.32
0.32
0.41
0.54
0.65
0.69
0.65
0.54
0.39
0.22
0.04
-0.17
-0.39
-0.64
-0.89
-1.10
-1.24
-1.28
-1.26
-1.19
-1.14
-1.10
-1.05
-0.95
-0.81
-0.64
-0.49
-0.40
-0.37
-0.36
-0.31
-0.21
-0.08
0.04
0.09
0.07
0.03
0.04
0.15
0.35
0.55
0.66
0.60
0.40
0.15
-0.04
-0.07
0.04
0.22
0.35
0.37
0.29
0.21
0.22
0.35
0.54
0.70
0.75
0.66
0.47
0.23
0.02
-0.15
-0.24
-0.25
-0.18
-0.06
0.08
0.20
0.27
0.28
0.30
0.36
0.46
0.55
0.59
0.52
0.37
0.18
0.01
-0.11
-0.23
-0.42
-0.70
-1.02
-1.29
-1.38
-1.26
-0.94
-0.56
-0.22
-0.01
0.05
0.00
-0.09
-0.21
-0.34
-0.46
-0.57
-0.62
-0.56
-0.35
-0.03
0.33
0.65
0.84
0.89
0.81
0.69
0.58
0.50
0.45
0.38
0.29
0.19
0.12
0.12
0.19
0.33
0.47
0.57
0.57
0.47
0.28
0.06
-0.14
-0.23
-0.20
-0.02
0.25
0.55
0.78
0.87
0.78
0.51
0.12
-0.26
-0.50
-0.50
-0.25
0.15
0.55
0.77
0.70
0.35
-0.18
-0.67
-0.95
-0.89
-0.48
0.12
0.72
1.13
1.23
1.01
0.57
0.04
-0.41
-0.67
-0.68
-0.50
-0.22
0.03
0.11
0.02
-0.18
-0.38
-0.47
-0.44
-0.32
-0.20
-0.11
-0.07
-0.02
0.08
0.22
0.34
0.40
0.35
0.23
0.06
-0.10
-0.20
-0.23
-0.19
-0.07
0.07
0.21
0.28
0.22
0.05
-0.16
-0.29
-0.24
0.02
0.38
0.70
0.81
0.66
0.32
-0.10
-0.44
-0.64
-0.70
-0.67
-0.59
-0.44
-0.23
0.03
0.27
0.42
0.47
0.43
0.36
0.30
0.24
0.17
0.07
-0.02
-0.06
-0.01
0.09
0.16
0.11
-0.08
-0.36
-0.58
-0.62
-0.46
-0.17
0.09
0.22
0.18
0.04
-0.08
-0.08
0.06
0.28
0.50
0.62
0.60
0.42
0.15
-0.15
-0.38
-0.48
-0.42
-0.25
-0.05
0.09
0.12
0.07
0.01
0.01
0.09
0.22
0.31
0.30
0.22
0.11
0.04
0.02
-0.01
-0.13
-0.39
-0.78
-1.17
-1.41
-1.41
-1.15
-0.71
-0.23
0.19
0.45
0.53
0.45
0.25
-0.01
-0.29
-0.49
-0.57
-0.49
-0.25
0.09
0.41
0.60
0.56
0.31
-0.08
-0.44
-0.65
-0.64
-0.44
-0.12
0.20
0.46
0.63
0.67
0.58
0.37
0.07
-0.22
-0.45
-0.56
-0.53
-0.40
-0.21
0.01
0.27
0.53
0.75
0.85
0.78
0.55
0.24
-0.00
-0.09
0.00
0.20
0.37
0.43
0.34
0.16
-0.03
-0.17
-0.25
-0.30
-0.37
-0.44
-0.50
-0.49
-0.37
-0.17
0.09
0.32
0.46
0.48
0.39
0.23
0.09
0.05
0.13
0.31
0.50
0.62
0.60
0.48
0.31
0.19
0.16
0.20
0.27
0.28
0.18
-0.04
-0.33
-0.63
-0.82
-0.84
-0.71
-0.47
-0.26
-0.18
-0.27
-0.51
-0.76
-0.92
-0.90
-0.72
-0.49
-0.29
-0.18
-0.15
-0.10
0.04
0.26
0.50
0.66
0.67
0.51
0.29
0.12
0.10
0.27
0.54
0.82
0.97
0.95
0.73
0.37
-0.05
-0.46
-0.73
-0.80
-0.64
-0.30
0.11
0.46
0.65
0.64
0.46
0.23
0.04
0.00
0.13
0.41
0.76
1.09
1.30
1.33
1.17
0.87
0.51
0.18
-0.04
-0.10
-0.00
0.22
0.53
0.87
1.15
1.26
1.08
0.51
-0.51
-1.89
-3.44
-4.87
-5.87
-6.22
-5.92
-5.15
-4.26
-3.60
-3.39
-3.69
-4.37
-5.21
-5.99
-6.54
-6.79
-6.76
-6.47
-5.97
-5.30
-4.51
-3.69
-2.91
-2.22
-1.60
-1.01
-0.40
0.25
0.85
1.29
1.43
1.26
0.82
0.29
-0.16
-0.39
-0.36
-0.11
0.29
0.71
1.08
1.30
1.35
1.25
1.12
1.09
1.30
1.80
2.57
3.48
4.40
5.16
5.63
5.76
5.52
4.99
4.32
3.68
3.22
3.00
3.00
3.13
3.28
3.33
3.15
2.63
1.70
0.32
-1.41
-3.34
-5.26
-7.05
-8.67
-10.17
-11.63
-13.14
-14.72
-16.38
-18.14
-20.02
-22.00
-24.00
-25.87
-27.46
-28.75
-29.88
-31.11
-32.74
-34.96
-37.71
-40.73
-43.65
-46.17
-48.22
-49.97
-51.76
-53.93
-56.66
-59.84
-63.01
-65.40
-66.01
-63.75
-57.73
-47.46
-33.17
-15.92
2.45
19.73
33.98
44.13
50.29
53.53
55.35
56.88
58.53
59.96
60.49
59.63
57.37
54.14
50.50
46.83
43.23
39.69
36.33
33.47
31.52
30.72
30.91
31.54
31.88
31.33
29.68
27.18
24.34
21.71
19.69
18.38
17.60
17.07
16.46
15.56
14.32
12.85
11.37
10.12
9.28
8.89
8.82
8.84
8.74
8.40
7.84
7.16
6.51
6.03
5.74
5.63
5.67
5.76
5.83
5.78
5.56
5.16
4.67
4.22
3.99
4.13
4.65
5.47
6.41
7.32
8.11
8.81
9.56
10.51
11.77
13.34
15.10
16.87
18.49
19.86
21.01
22.08
23.28
24.79
26.71
28.95
31.36
33.71
35.88
37.85
39.73
41.63
43.58
45.52
47.24
48.49
48.90
47.95
44.95
39.21
30.39
18.82
5.60
-7.73
-19.70
-29.45
-36.88
-42.38
-46.44
-49.27
-50.78
-50.84
-49.60
-47.57
-45.45
-43.75
-42.62
-41.79
-40.86
-39.54
-37.82
-35.88
-33.96
-32.24
-30.76
-29.41
-28.02
-26.41
-24.44
-22.09
-19.48
-16.83
-14.43
-12.54
-11.27
-10.53
-10.04
-9.45
-8.53
-7.26
-5.81
-4.48
-3.50
-2.96
-2.72
-2.55
-2.25
-1.70
-0.93
-0.06
0.76
1.47
2.05
2.56
3.06
3.54
3.96
4.28
4.44
4.48
4.47
4.48
4.57
4.75
5.02
5.37
5.78
6.28
6.86
7.46
8.00
8.40
8.63
8.70
8.68
8.65
8.63
8.63
8.61
8.53
8.38
8.15
7.84
7.40
6.75
5.84
4.63
3.14
1.38
-0.66
-2.99
-5.64
-8.54
-11.50
-14.16
-16.15
-17.19
-17.19
-16.36
-15.01
-13.53
-12.13
-10.90
-9.78
-8.74
-7.81
-7.09
-6.71
-6.65
-6.80
-6.88
-6.62
-5.91
-4.80
-3.57
-2.53
-1.93
-1.79
-1.93
-2.04
-1.88
-1.33
-0.48
0.45
1.26
1.84
2.19
2.37
2.42
2.34
2.08
1.60
0.95
0.26
-0.30
-0.57
-0.50
-0.14
0.37
0.87
1.23
1.38
1.36
1.21
1.03
0.86
0.71
0.61
0.54
0.54
0.61
0.74
0.88
0.99
1.01
0.90
0.65
0.33
-0.00
-0.22
-0.28
-0.17
0.00
0.11
0.06
-0.20
-0.59
-1.00
-1.30
-1.45
-1.43
-1.29
-1.09
-0.83
-0.53
-0.22
0.05
0.19
0.16
-0.02
-0.26
-0.42
-0.37
-0.09
0.34
0.78
1.09
1.20
1.15
1.02
0.90
0.82
0.76
0.67
0.51
0.31
0.11
-0.04
-0.09
-0.06
0.03
0.14
0.23
0.25
0.16
-0.03
-0.29
-0.53
-0.64
-0.56
-0.34
-0.06
0.14
0.18
0.07
-0.11
-0.27
-0.36
-0.38
-0.39
-0.39
-0.39
-0.32
-0.13
0.17
0.47
0.66
0.65
0.43
0.11
-0.20
-0.39
-0.42
-0.32
-0.17
-0.02
0.05
0.03
-0.05
-0.16
-0.29
-0.39
-0.45
-0.44
-0.35
-0.19
0.02
0.23
0.39
0.43
0.33
0.11
-0.19
-0.48
-0.69
-0.74
-0.61
-0.35
-0.04
0.21
0.35
0.40
0.41
0.48
0.60
0.72
0.74
0.60
0.33
0.03
-0.13
-0.08
0.18
0.53
0.80
0.88
0.74
0.44
0.11
-0.18
-0.41
-0.58
-0.71
-0.80
-0.78
-0.60
-0.26
0.16
0.53
0.70
0.60
0.27
-0.12
-0.41
-0.49
-0.35
-0.09
0.15
0.26
0.23
0.10
-0.05
-0.17
-0.23
-0.26
-0.30
-0.38
-0.48
-0.57
-0.57
-0.47
-0.29
-0.06
0.13
0.24
0.25
0.22
0.20
0.25
0.37
0.49
0.51
0.37
0.08
-0.29
-0.63
-0.84
-0.88
-0.77
-0.58
-0.37
-0.19
-0.04
0.05
0.09
0.07
-0.01
-0.11
-0.21
-0.25
-0.21
-0.09
0.07
0.24
0.35
0.36
0.29
0.18
0.13
0.16
0.25
0.30
0.22
-0.04
-0.39
-0.68
-0.78
-0.65
-0.35
-0.02
0.23
0.38
0.44
0.45
0.40
0.24
-0.06
-0.46
-0.83
-1.04
-0.98
-0.68
-0.26
0.15
0.42
0.55
0.54
0.43
0.25
0.01
-0.24
-0.43
-0.47
-0.38
-0.23
-0.19
-0.36
-0.77
-1.31
-1.80
-2.09
-2.13
-2.00
-1.84
-1.75
-1.74
-1.78
-1.80
-1.77
-1.69
-1.58
-1.43
-1.21
-0.91
-0.52
-0.10
0.26
0.50
0.60
0.60
0.57
0.57
0.62
0.65
0.60
0.45
0.23
0.04
-0.06
-0.06
-0.02
-0.09
-0.36
-0.87
-1.53
-2.22
-2.84
-3.36
-3.82
-4.31
-4.84
-5.33
-5.58
-5.40
-4.63
-3.25
-1.34
0.91
3.29
5.57
7.59
9.18
10.26
10.81
10.92
10.70
10.29
9.82
9.35
8.93
8.54
8.17
7.76
7.21
6.46
5.43
4.15
2.72
1.32
0.11
-0.84
-1.53
-2.07
-2.54
-2.97
-3.31
-3.51
-3.49
-3.28
-2.94
-2.56
-2.25
-2.07
-2.04
-2.14
-2.33
-2.51
-2.63
-2.64
-2.50
-2.23
-1.82
-1.32
-0.76
-0.22
0.21
0.41
0.31
-0.08
-0.67
-1.31
-1.84
-2.16
-2.28
-2.29
-2.33
-2.53
-2.90
-3.37
-3.76
-3.87
-3.58
-2.92
-2.08
-1.30
-0.85
-0.81
-1.14
-1.61
-1.96
-1.97
-1.62
-1.02
-0.43
-0.09
-0.19
-0.72
-1.52
-2.31
-2.76
-2.59
-1.69
-0.35
0.70
0.40
-2.32
-7.99
-16.28
-25.86
-34.77
-40.96
-43.04
-40.67
-34.65
-26.53
-18.12
-10.87
-5.58
-2.28
-0.46
0.58
1.43
2.41
3.53
4.64
5.58
6.30
6.78
7.04
7.02
6.65
5.84
4.57
2.97
1.18
-0.69
-2.61
-4.59
-6.51
-8.01
-8.52
-7.46
-4.52
0.08
5.64
11.19
15.90
19.38
21.68
23.09
23.88
24.13
23.78
22.80
21.33
19.56
17.67
15.64
13.26
10.34
6.86
3.03
-0.69
-3.92
-6.47
-8.46
-10.14
-11.76
-13.34
-14.72
-15.66
-16.03
-15.96
-15.83
-16.06
-16.92
-18.33
-19.88
-21.03
-21.33
-20.68
-19.34
-17.89
-16.89
-16.76
-17.59
-19.27
-21.39
-23.24
-23.67
-21.19
-14.48
-3.04
12.16
28.72
43.52
53.82
58.41
57.85
54.03
49.07
44.36
40.21
36.23
31.92
27.30
22.86
19.24
16.76
15.15
13.79
11.98
9.41
6.28
3.18
0.80
-0.48
-0.73
-0.45
-0.33
-0.92
-2.42
-4.59
-6.94
-8.90
-10.11
-10.52
-10.38
-10.08
-10.03
-10.40
-11.11
-11.92
-12.50
-12.65
-12.34
-11.70
-10.93
-10.20
-9.51
-8.81
-7.97
-6.94
-5.71
-4.37
-3.00
-1.64
-0.35
0.82
1.76
2.36
2.55
2.38
2.00
1.66
1.59
1.93
2.65
3.62
4.59
5.33
5.67
5.60
5.23
4.82
4.61
4.77
5.39
6.41
7.73
9.23
10.82
12.47
14.21
16.05
17.97
19.88
21.55
22.74
23.23
22.90
21.79
20.06
17.95
15.70
13.51
11.51
9.72
8.11
6.61
5.11
3.55
1.94
0.37
-1.05
-2.25
-3.27
-4.29
-5.57
-7.35
-9.70
-12.49
-15.35
-17.81
-19.48
-20.15
-19.88
-18.96
-17.78
-16.67
-15.81
-15.19
-14.69
-14.18
-13.60
-12.99
-12.44
-12.06
-11.89
-11.88
-11.93
-11.94
-11.84
-11.63
-11.32
-10.92
-10.49
-10.07
-9.78
-9.70
-9.82
-10.01
-10.01
-9.51
-8.38
-6.70
-4.81
-3.17
-2.14
-1.81
-1.91
-1.87
-0.99
1.33
5.37
10.95
17.46
23.99
29.63
33.74
36.05
36.73
36.15
34.72
32.71
30.21
27.23
23.85
20.32
17.02
14.36
12.59
11.70
11.41
11.37
11.27
11.01
10.74
10.72
11.14
11.95
12.83
13.23
12.60
10.55
6.98
2.12
-3.56
-9.41
-14.82
-19.31
-22.61
-24.67
-25.58
-25.51
-24.64
-23.18
-21.33
-19.37
-17.56
-16.12
-15.15
-14.59
-14.22
-13.81
-13.18
-12.33
-11.40
-10.59
-10.06
-9.87
-9.95
-10.15
-10.29
-10.24
-9.96
-9.48
-8.94
-8.49
-8.28
-8.38
-8.74
-9.18
-9.52
-9.61
-9.45
-9.13
-8.81
-8.63
-8.59
-8.62
-8.51
-8.08
-7.18
-5.77
-3.92
-1.83
0.23
2.01
3.37
4.32
5.08
6.01
7.49
9.80
12.98
16.74
20.57
23.84
26.02
26.81
26.22
24.53
22.10
19.34
16.51
13.85
11.46
9.44
7.86
6.69
5.85
5.17
4.46
3.60
2.56
1.45
0.42
-0.38
-0.86
-1.05
-1.07
-1.06
-1.12
-1.29
-1.53
-1.76
-1.90
-1.92
-1.83
-1.68
-1.52
-1.38
-1.24
-1.08
-0.92
-0.78
-0.70
-0.70
-0.75
-0.77
-0.70
-0.54
-0.31
-0.10
0.04
0.08
0.03
-0.01
0.06
0.36
0.92
1.72
2.65
3.54
4.29
4.85
5.34
5.87
6.53
7.26
7.89
8.18
7.99
7.35
6.41
5.39
4.50
3.84
3.43
3.25
3.32
3.57
3.86
3.90
3.31
1.79
-0.71
-3.89
-7.19
-10.01
-11.95
-12.91
-13.08
-12.76
-12.19
-11.50
-10.70
-9.81
-8.90
-8.08
-7.45
-7.01
-6.68
-6.37
-5.96
-5.41
-4.74
-4.05
-3.41
-2.96
-2.73
-2.71
-2.82
-2.92
-2.89
-2.69
-2.38
-2.03
-1.72
-1.43
-1.13
-0.75
-0.27
0.28
0.80
1.24
1.53
1.68
1.71
1.71
1.76
1.94
2.29
2.81
3.42
4.04
4.58
4.97
5.21
5.29
5.26
5.14
4.95
4.66
4.22
3.50
2.42
0.93
-0.89
-2.82
-4.60
-5.97
-6.85
-7.29
-7.47
-7.56
-7.60
-7.51
-7.09
-6.20
-4.87
-3.31
-1.83
-0.69
0.00
0.34
0.54
0.79
1.17
1.65
2.09
2.41
2.56
2.61
2.61
2.63
2.64
2.63
2.52
2.32
2.08
1.90
1.89
2.11
2.52
3.00
3.38
3.56
3.49
3.27
3.03
2.90
2.94
3.16
3.54
4.01
4.55
5.09
5.61
6.09
6.53
6.94
7.32
7.66
7.93
8.05
7.94
7.47
6.51
4.98
2.91
0.47
-2.05
-4.33
-6.14
-7.37
-8.08
-8.40
-8.43
-8.28
-8.02
-7.71
-7.44
-7.27
-7.24
-7.29
-7.32
-7.25
-6.97
-6.50
-5.88
-5.26
-4.74
-4.44
-4.35
-4.35
-4.30
-4.07
-3.64
-3.11
-2.66
-2.42
-2.42
-2.55
-2.66
-2.63
-2.47
-2.24
-2.03
-1.92
-1.87
-1.82
-1.71
-1.53
-1.28
-1.04
-0.83
-0.67
-0.55
-0.47
-0.43
-0.43
-0.47
-0.53
-0.56
-0.51
-0.36
-0.12
0.14
0.35
0.49
0.54
0.57
0.63
0.72
0.84
0.92
0.89
0.71
0.36
-0.11
-0.61
-1.05
-1.33
-1.43
-1.36
-1.19
-0.99
-0.80
-0.61
-0.41
-0.18
0.06
0.26
0.38
0.40
0.34
0.26
0.22
0.24
0.32
0.40
0.43
0.35
0.18
-0.02
-0.17
-0.21
-0.10
0.10
0.30
0.38
0.30
0.08
-0.19
-0.38
-0.41
-0.30
-0.16
-0.10
-0.20
-0.41
-0.60
-0.64
-0.48
-0.18
0.12
0.27
0.23
0.02
-0.24
-0.44
-0.53
-0.50
-0.38
-0.23
-0.12
-0.08
-0.10
-0.13
-0.12
-0.01
0.20
0.47
0.69
0.78
0.71
0.47
0.13
-0.24
-0.57
-0.83
-1.01
-1.10
-1.12
-1.08
-0.96
-0.80
-0.61
-0.47
-0.43
-0.53
-0.71
-0.87
-0.91
-0.81
-0.63
-0.52
-0.60
-0.92
-1.41
-1.91
-2.29
-2.49
-2.54
-2.55
-2.63
-2.84
-3.15
-3.48
-3.74
-3.87
-3.85
-3.74
-3.67
-3.75
-4.06
-4.58
-5.19
-5.69
-5.89
-5.66
-5.06
-4.28
-3.60
-3.28
-3.46
-4.09
-5.04
-6.04
-6.85
-7.22
-6.96
-6.01
-4.45
-2.50
-0.53
1.16
2.38
3.23
4.04
5.29
7.45
10.76
15.17
20.35
25.73
30.72
34.82
37.70
39.26
39.54
38.63
36.58
33.40
29.11
23.84
17.81
11.42
5.12
-0.69
-5.69
-9.71
-12.72
-14.75
-15.86
-16.16
-15.77
-14.90
-13.80
-12.73
-11.85
-11.22
-10.78
-10.39
-9.95
-9.40
-8.75
-8.05
-7.34
-6.63
-5.92
-5.23
-4.62
-4.14
-3.79
-3.47
-3.06
-2.46
-1.67
-0.82
-0.11
0.28
0.28
-0.04
-0.55
-1.11
-1.60
-2.00
-2.30
-2.51
-2.66
-2.78
-2.93
-3.16
-3.47
-3.80
-4.04
-4.08
-3.90
-3.55
-3.18
-2.94
-2.91
-3.07
-3.31
-3.49
-3.52
-3.41
-3.25
-3.15
-3.20
-3.42
-3.73
-4.01
-4.12
-3.98
-3.68
-3.46
-3.64
-4.49
-6.03
-7.99
-9.83
-11.00
-11.17
-10.47
-9.39
-8.65
-8.83
-10.13
-12.32
-14.82
-17.02
-18.45
-18.90
-18.35
-16.95
-15.01
-13.02
-11.51
-10.68
-9.92
-7.75
-2.20
8.22
23.41
41.15
57.48
68.04
69.76
62.03
46.87
27.98
9.30
-6.20
-16.94
-22.54
-23.24
-19.54
-12.17
-2.25
8.65
18.72
26.40
30.81
32.02
30.82
28.26
25.17
21.94
18.54
14.75
10.44
5.69
0.82
-3.79
-7.71
-10.66
-12.52
-13.40
-13.56
-13.33
-13.00
-12.73
-12.50
-12.24
-11.84
-11.23
-10.42
-9.47
-8.46
-7.45
-6.52
-5.71
-5.04
-4.50
-4.07
-3.70
-3.32
-2.85
-2.25
-1.55
-0.85
-0.33
-0.14
-0.37
-0.91
-1.57
-2.09
-2.30
-2.21
-1.91
-1.56
-1.24
-0.96
-0.67
-0.34
0.03
0.39
0.68
0.87
0.92
0.84
0.65
0.38
0.11
-0.07
-0.12
-0.08
-0.02
-0.01
-0.05
-0.06
0.08
0.42
0.87
1.23
1.30
1.01
0.45
-0.16
-0.63
-0.85
-0.85
-0.73
-0.62
-0.56
-0.55
-0.55
-0.52
-0.49
-0.49
-0.51
-0.52
-0.45
-0.27
0.03
0.37
0.66
0.82
0.81
0.63
0.33
-0.03
-0.37
-0.61
-0.70
-0.67
-0.58
-0.48
-0.43
-0.43
-0.41
-0.31
-0.11
0.16
0.43
0.64
0.75
0.77
0.72
0.64
0.53
0.42
0.35
0.35
0.41
0.47
0.46
0.33
0.10
-0.15
-0.30
-0.32
-0.21
-0.04
0.09
0.15
0.15
0.12
0.06
-0.02
-0.12
-0.21
-0.24
-0.17
-0.01
0.16
0.26
0.22
0.06
-0.13
-0.26
-0.27
-0.20
-0.12
-0.08
-0.08
-0.06
-0.01
0.06
0.08
-0.02
-0.25
-0.51
-0.66
-0.59
-0.30
0.11
0.47
0.65
0.62
0.47
0.32
0.28
0.36
0.48
0.51
0.39
0.10
-0.25
-0.55
-0.70
-0.69
-0.56
-0.41
-0.31
-0.30
-0.34
-0.36
-0.31
-0.20
-0.07
-0.02
-0.12
-0.38
-0.75
-1.12
-1.38
-1.41
-1.17
-0.64
0.09
0.87
1.50
1.81
1.72
1.29
0.71
0.19
-0.12
-0.17
-0.04
0.15
0.28
0.28
0.14
-0.07
-0.30
-0.47
-0.54
-0.50
-0.39
-0.23
-0.06
0.08
0.20
0.27
0.28
0.19
0.01
-0.23
-0.42
-0.49
-0.42
-0.26
-0.13
-0.12
-0.26
-0.49
-0.69
-0.75
-0.60
-0.30
0.06
0.35
0.49
0.49
0.43
0.41
0.47
0.58
0.67
0.63
0.44
0.16
-0.06
-0.08
0.14
0.52
0.88
1.05
0.98
0.71
0.40
0.15
-0.01
-0.14
-0.32
-0.59
-0.89
-1.13
-1.20
-1.11
-0.95
-0.85
-0.91
-1.14
-1.47
-1.78
-1.98
-2.07
-2.12
-2.19
-2.31
-2.43
-2.47
-2.36
-2.09
-1.70
-1.30
-0.94
-0.63
-0.37
-0.17
-0.10
-0.25
-0.67
-1.28
-1.89
-2.29
-2.30
-1.90
-1.19
-0.35
0.51
1.28
1.93
2.42
2.69
2.68
2.39
1.92
1.39
0.94
0.68
0.60
0.65
0.77
0.90
1.02
1.12
1.22
1.31
1.44
1.59
1.75
1.84
1.79
1.55
1.16
0.74
0.46
0.42
0.65
1.06
1.53
1.92
2.13
2.12
1.89
1.47
0.89
0.24
-0.38
-0.86
-1.12
-1.13
-0.94
-0.64
-0.33
-0.08
0.05
0.03
-0.15
-0.50
-0.95
-1.43
-1.81
-2.00
-1.94
-1.67
-1.29
-0.96
-0.81
-0.92
-1.31
-1.86
-2.45
-2.92
-3.18
-3.22
-3.10
-2.94
-2.85
-2.88
-3.03
-3.27
-3.53
-3.77
-3.97
-4.12
-4.22
-4.24
-4.17
-3.96
-3.65
-3.31
-3.03
-2.88
-2.82
-2.71
-2.39
-1.70
-0.67
0.59
1.86
3.02
4.07
5.12
6.31
7.66
9.10
10.42
11.46
12.10
12.30
12.04
11.32
10.13
8.55
6.73
4.95
3.44
2.33
1.61
1.15
0.80
0.53
0.35
0.29
0.34
0.42
0.39
0.15
-0.35
-1.07
-1.91
-2.75
-3.44
-3.86
-3.93
-3.66
-3.13
-2.50
-1.95
-1.57
-1.33
-1.15
-0.92
-0.60
-0.24
0.08
0.31
0.46
0.55
0.61
0.60
0.42
0.02
-0.59
-1.27
-1.79
-2.01
-1.88
-1.51
-1.07
-0.72
-0.53
-0.45
-0.41
-0.33
-0.16
0.11
0.45
0.86
1.29
1.67
1.94
2.06
1.99
1.77
1.45
1.09
0.74
0.44
0.22
0.10
0.08
0.14
0.22
0.32
0.39
0.44
0.42
0.29
0.01
-0.41
-0.89
-1.30
-1.53
-1.53
-1.32
-1.02
-0.75
-0.55
-0.45
-0.39
-0.34
-0.26
-0.15
0.00
0.19
0.39
0.58
0.69
0.68
0.57
0.40
0.25
0.12
0.02
-0.14
-0.38
-0.67
-0.94
-1.08
-1.07
-0.94
-0.81
-0.79
-0.90
-1.08
-1.20
-1.20
-1.06
-0.86
-0.68
-0.55
-0.46
-0.31
-0.06
0.30
0.69
0.99
1.11
1.00
0.72
0.36
0.03
-0.22
-0.35
-0.40
-0.36
-0.27
-0.13
-0.00
0.05
-0.05
-0.30
-0.63
-0.95
-1.15
-1.24
-1.26
-1.32
-1.49
-1.79
-2.18
-2.63
-3.14
-3.70
-4.31
-4.88
-5.30
-5.44
-5.31
-4.98
-4.65
-4.51
-4.69
-5.18
-5.81
-6.42
-6.86
-7.04
-7.00
-6.76
-6.32
-5.64
-4.68
-3.49
-2.20
-0.97
0.04
0.80
1.43
2.06
2.82
3.66
4.46
5.04
5.29
5.24
4.98
4.69
4.47
4.43
4.57
4.89
5.33
5.83
6.31
6.68
6.92
7.02
7.02
6.98
6.90
6.78
6.58
6.29
5.96
5.66
5.46
5.36
5.29
5.15
4.87
4.46
4.03
3.69
3.50
3.40
3.28
3.00
2.53
1.91
1.25
0.64
0.12
-0.36
-0.82
-1.26
-1.63
-1.84
-1.86
-1.72
-1.50
-1.32
-1.26
-1.31
-1.42
-1.55
-1.65
-1.74
-1.85
-2.00
-2.16
-2.28
-2.33
-2.32
-2.30
-2.35
-2.47
-2.60
-2.63
-2.48
-2.14
-1.72
-1.36
-1.16
-1.14
-1.24
-1.39
-1.54
-1.67
-1.79
-1.85
-1.79
-1.57
-1.19
-0.75
-0.37
-0.15
-0.12
-0.24
-0.44
-0.63
-0.76
-0.81
-0.73
-0.48
-0.06
0.51
1.12
1.69
2.14
2.49
2.79
3.13
3.55
3.99
4.37
4.58
4.55
4.32
4.00
3.71
3.52
3.43
3.35
3.20
2.95
2.63
2.32
2.12
2.05
2.11
2.23
2.32
2.32
2.21
1.97
1.62
1.20
0.73
0.25
-0.20
-0.60
-0.98
-1.36
-1.73
-2.04
-2.17
-1.95
-1.31
-0.34
0.68
1.38
1.38
0.51
-1.13
-3.23
-5.43
-7.43
-9.08
-10.33
-11.10
-11.31
-10.82
-9.63
-7.89
-5.92
-4.08
-2.66
-1.81
-1.48
-1.55
-1.86
-2.30
-2.80
-3.32
-3.81
-4.24
-4.63
-4.97
-5.27
-5.54
-5.74
-5.78
-5.64
-5.32
-4.93
-4.61
-4.51
-4.67
-4.98
-5.25
-5.28
-4.98
-4.35
-3.50
-2.54
-1.55
-0.53
0.51
1.60
2.72
3.85
4.96
6.03
7.00
7.82
8.42
8.71
8.67
8.32
7.74
7.05
6.34
5.69
5.13
4.64
4.21
3.79
3.37
2.93
2.51
2.15
1.90
1.78
1.75
1.74
1.64
1.40
1.05
0.72
0.56
0.69
1.11
1.76
2.52
3.34
4.20
5.14
6.15
7.18
8.08
8.71
8.95
8.74
8.08
7.02
5.67
4.19
2.73
1.41
0.26
-0.73
-1.63
-2.47
-3.24
-3.86
-4.27
-4.46
-4.49
-4.45
-4.41
-4.38
-4.35
-4.28
-4.21
-4.25
-4.49
-4.99
-5.73
-6.65
-7.65
-8.63
-9.50
-10.15
-10.44
-10.30
-9.73
-8.85
-7.87
-6.98
-6.27
-5.72
-5.18
-4.49
-3.57
-2.37
-0.91
0.79
2.71
4.82
7.03
9.22
11.21
12.83
14.00
14.70
15.05
15.17
15.22
15.26
15.25
15.09
14.68
13.96
13.02
12.02
11.11
10.40
9.87
9.41
8.87
8.16
7.20
5.98
4.49
2.72
0.71
-1.43
-3.52
-5.35
-6.77
-7.70
-8.20
-8.35
-8.28
-8.09
-7.88
-7.73
-7.70
-7.81
-8.01
-8.15
-8.10
-7.76
-7.16
-6.42
-5.72
-5.19
-4.86
-4.69
-4.56
-4.38
-4.12
-3.80
-3.47
-3.22
-3.07
-3.00
-2.95
-2.83
-2.56
-2.15
-1.69
-1.28
-1.03
-0.95
-0.98
-1.01
-0.97
-0.87
-0.74
-0.63
-0.56
-0.49
-0.37
-0.22
-0.07
0.01
-0.05
-0.26
-0.59
-0.96
-1.31
-1.63
-1.92
-2.17
-2.36
-2.45
-2.44
-2.37
-2.35
-2.48
-2.80
-3.24
-3.64
-3.80
-3.61
-3.03
-2.11
-0.95
0.35
1.69
2.98
4.09
4.94
5.47
5.69
5.67
5.49
5.21
4.82
4.32
3.72
3.08
2.49
2.07
1.84
1.78
1.78
1.76
1.63
1.40
1.12
0.86
0.65
0.50
0.38
0.24
0.07
-0.10
-0.20
-0.19
-0.05
0.18
0.37
0.39
0.16
-0.28
-0.79
-1.18
-1.30
-1.12
-0.75
-0.36
-0.07
0.07
0.10
0.10
0.12
0.16
0.16
0.13
0.07
0.01
-0.00
0.04
0.10
0.14
0.12
0.05
-0.03
-0.08
-0.08
-0.03
0.01
-0.04
-0.21
-0.46
-0.72
-0.88
-0.89
-0.75
-0.55
-0.38
-0.28
-0.24
-0.23
-0.17
-0.07
0.08
0.24
0.39
0.51
0.61
0.66
0.68
0.68
0.68
0.70
0.72
0.73
0.69
0.61
0.52
0.48
0.50
0.60
0.74
0.88
0.97
0.99
0.92
0.74
0.45
0.10
-0.25
-0.47
-0.49
-0.29
0.08
0.51
0.89
1.11
1.10
0.87
0.42
-0.18
-0.83
-1.46
-1.96
-2.28
-2.36
-2.17
-1.74
-1.12
-0.42
0.22
0.69
0.95
1.02
0.99
0.92
0.87
0.83
0.79
0.72
0.56
0.30
-0.09
-0.58
-1.08
-1.46
-1.62
-1.50
-1.13
-0.61
-0.05
0.41
0.69
0.74
0.53
0.12
-0.36
-0.75
-0.89
-0.75
-0.39
0.03
0.34
0.43
0.32
0.09
-0.17
-0.34
-0.41
-0.34
-0.17
0.07
0.30
0.48
0.54
0.47
0.26
-0.06
-0.45
-0.84
-1.15
-1.29
-1.21
-0.93
-0.53
-0.12
0.21
0.39
0.41
0.29
0.08
-0.16
-0.38
-0.56
-0.71
-0.86
-1.05
-1.27
-1.48
-1.60
-1.53
-1.28
-0.89
-0.48
-0.17
-0.02
-0.05
-0.24
-0.51
-0.76
-0.91
-0.88
-0.66
-0.29
0.11
0.42
0.52
0.41
0.15
-0.14
-0.35
-0.39
-0.27
-0.06
0.13
0.19
0.05
-0.26
-0.65
-0.99
-1.19
-1.22
-1.12
-0.93
-0.67
-0.34
0.03
0.39
0.66
0.73
0.58
0.29
0.01
-0.12
-0.03
0.21
0.48
0.66
0.68
0.58
0.41
0.23
0.07
-0.06
-0.13
-0.14
-0.06
0.09
0.27
0.43
0.51
0.51
0.49
0.53
0.68
0.91
1.10
1.14
0.98
0.68
0.39
0.26
0.35
0.59
0.83
0.97
0.96
0.87
0.82
0.86
0.97
1.07
1.09
1.02
0.95
0.94
1.05
1.21
1.31
1.22
0.92
0.48
0.04
-0.24
-0.29
-0.16
0.04
0.19
0.19
0.07
-0.09
-0.19
-0.17
-0.04
0.10
0.17
0.12
-0.04
-0.27
-0.50
-0.65
-0.67
-0.53
-0.24
0.18
0.65
1.09
1.44
1.66
1.76
1.79
1.82
1.91
2.08
2.32
2.61
2.92
3.21
3.42
3.47
3.30
2.89
2.30
1.67
1.13
0.81
0.74
0.83
0.97
1.03
0.94
0.68
0.29
-0.20
-0.77
-1.38
-1.95
-2.40
-2.58
-2.42
-1.93
-1.27
-0.66
-0.32
-0.33
-0.63
-1.03
-1.35
-1.47
-1.38
-1.18
-1.00
-0.89
-0.85
-0.79
-0.61
-0.26
0.24
0.78
1.24
1.49
1.53
1.41
1.21
0.97
0.67
0.20
-0.49
-1.38
-2.29
-2.99
-3.31
-3.27
-3.00
-2.72
-2.58
-2.58
-2.63
-2.63
-2.54
-2.41
-2.35
-2.37
-2.40
-2.32
-2.02
-1.49
-0.88
-0.40
-0.21
-0.31
-0.58
-0.83
-0.88
-0.70
-0.34
0.03
0.27
0.34
0.26
0.10
-0.05
-0.17
-0.24
-0.27
-0.24
-0.15
-0.01
0.14
0.22
0.18
0.02
-0.20
-0.36
-0.39
-0.28
-0.12
0.01
0.02
-0.07
-0.23
-0.38
-0.46
-0.44
-0.29
-0.03
0.33
0.73
1.09
1.31
1.32
1.10
0.77
0.49
0.44
0.69
1.18
1.73
2.09
2.13
1.83
1.34
0.86
0.55
0.43
0.45
0.46
0.39
0.22
-0.00
-0.20
-0.32
-0.37
-0.36
-0.33
-0.30
-0.27
-0.24
-0.21
-0.17
-0.16
-0.25
-0.47
-0.81
-1.22
-1.57
-1.77
-1.78
-1.63
-1.38
-1.09
-0.81
-0.52
-0.24
-0.00
0.15
0.19
0.12
0.01
-0.06
-0.02
0.10
0.25
0.34
0.32
0.18
-0.05
-0.27
-0.40
-0.39
-0.25
-0.05
0.11
0.14
0.05
-0.09
-0.15
-0.07
0.14
0.37
0.49
0.45
0.28
0.06
-0.11
-0.19
-0.19
-0.14
-0.05
0.09
0.26
0.43
0.53
0.49
0.34
0.10
-0.12
-0.29
-0.39
-0.42
-0.38
-0.25
-0.02
0.29
0.56
0.70
0.61
0.33
-0.04
-0.36
-0.54
-0.55
-0.44
-0.27
-0.10
0.06
0.21
0.34
0.43
0.47
0.43
0.32
0.16
-0.00
-0.11
-0.12
-0.01
0.19
0.42
0.62
0.73
0.74
0.68
0.58
0.46
0.32
0.13
-0.12
-0.39
-0.64
-0.83
-0.96
-1.05
-1.12
-1.16
-1.11
-0.93
-0.62
-0.26
0.04
0.18
0.15
-0.02
-0.22
-0.40
-0.56
-0.69
-0.83
-0.94
-0.96
-0.87
-0.65
-0.38
-0.10
0.13
0.29
0.39
0.40
0.31
0.16
-0.00
-0.10
-0.08
-0.00
0.06
0.03
-0.11
-0.29
-0.39
-0.35
-0.16
0.09
0.27
0.30
0.15
-0.11
-0.39
-0.58
-0.61
-0.47
-0.22
0.04
0.20
0.19
0.03
-0.20
-0.41
-0.54
-0.57
-0.51
-0.38
-0.19
0.08
0.43
0.83
1.22
1.52
1.68
1.66
1.52
1.33
1.16
1.01
0.88
0.71
0.47
0.15
-0.18
-0.43
-0.52
-0.45
-0.27
-0.08
0.04
0.06
-0.02
-0.13
-0.21
-0.28
-0.35
-0.45
-0.54
-0.56
-0.42
-0.09
0.39
0.90
1.27
1.40
1.27
0.99
0.70
0.54
0.53
0.63
0.71
0.65
0.44
0.12
-0.21
-0.47
-0.64
-0.74
-0.80
-0.83
-0.79
-0.63
-0.36
-0.05
0.22
0.35
0.32
0.17
-0.01
-0.15
-0.22
-0.20
-0.12
0.01
0.19
0.36
0.47
0.45
0.27
-0.01
-0.30
-0.50
-0.55
-0.48
-0.38
-0.30
-0.29
-0.28
-0.23
-0.08
0.13
0.37
0.54
0.58
0.46
0.20
-0.16
-0.56
-0.92
-1.18
-1.29
-1.22
-0.99
-0.69
-0.37
-0.09
0.15
0.35
0.53
0.68
0.75
0.72
0.60
0.44
0.30
0.25
0.27
0.35
0.43
0.51
0.60
0.69
0.80
0.88
0.89
0.82
0.66
0.43
0.19
-0.03
-0.20
-0.29
-0.29
-0.25
-0.21
-0.19
-0.18
-0.16
-0.06
0.12
0.33
0.47
0.49
0.38
0.17
-0.07
-0.30
-0.53
-0.78
-1.01
-1.16
-1.12
-0.85
-0.42
0.01
0.25
0.19
-0.12
-0.54
-0.84
-0.87
-0.59
-0.09
0.47
0.92
1.14
1.09
0.80
0.34
-0.16
-0.58
-0.82
-0.85
-0.68
-0.41
-0.15
-0.04
-0.11
-0.32
-0.56
-0.69
-0.63
-0.37
-0.01
0.33
0.54
0.60
0.54
0.44
0.36
0.32
0.33
0.35
0.38
0.43
0.49
0.55
0.59
0.61
0.59
0.51
0.38
0.21
0.05
-0.05
-0.05
0.03
0.14
0.17
0.05
-0.21
-0.52
-0.74
-0.79
-0.70
-0.55
-0.46
-0.45
-0.46
-0.40
-0.23
0.02
0.23
0.29
0.16
-0.08
-0.32
-0.43
-0.36
-0.15
0.13
0.42
0.65
0.81
0.86
0.82
0.70
0.55
0.37
0.21
0.04
-0.13
-0.28
-0.35
-0.30
-0.10
0.19
0.44
0.55
0.48
0.24
-0.07
-0.37
-0.61
-0.81
-0.96
-1.03
-0.96
-0.74
-0.40
-0.05
0.17
0.23
0.18
0.16
0.29
0.60
0.96
1.20
1.16
0.83
0.31
-0.19
-0.52
-0.66
-0.66
-0.66
-0.72
-0.82
-0.86
-0.76
-0.49
-0.15
0.14
0.30
0.33
0.33
0.41
0.62
0.91
1.15
1.23
1.09
0.76
0.38
0.05
-0.15
-0.24
-0.29
-0.35
-0.45
-0.55
-0.59
-0.55
-0.44
-0.32
-0.27
-0.30
-0.41
-0.51
-0.55
-0.51
-0.39
-0.24
-0.11
-0.01
0.05
0.07
0.05
0.01
-0.03
-0.00
0.10
0.27
0.45
0.54
0.49
0.32
0.12
0.00
0.05
0.24
0.45
0.52
0.39
0.09
-0.20
-0.33
-0.24
0.01
0.24
0.31
0.17
-0.12
-0.43
-0.64
-0.74
-0.78
-0.83
-0.95
-1.12
-1.28
-1.40
-1.46
-1.48
-1.49
-1.51
-1.53
-1.57
-1.65
-1.79
-1.99
-2.23
-2.45
-2.61
-2.67
-2.64
-2.59
-2.58
-2.69
-2.92
-3.21
-3.48
-3.66
-3.76
-3.89
-4.15
-4.62
-5.27
-5.98
-6.60
-7.00
-7.13
-7.06
-6.88
-6.73
-6.74
-6.99
-7.42
-7.86
-7.98
-7.38
-5.77
-3.08
0.41
4.20
7.72
10.58
12.62
13.94
14.74
15.17
15.27
15.00
14.30
13.19
11.77
10.21
8.65
7.21
5.92
4.78
3.77
2.91
2.24
1.81
1.64
1.68
1.83
1.91
1.79
1.42
0.88
0.34
-0.03
-0.16
-0.07
0.11
0.23
0.23
0.11
-0.07
-0.23
-0.38
-0.56
-0.82
-1.16
-1.54
-1.87
-2.06
-2.08
-1.95
-1.75
-1.58
-1.54
-1.66
-1.97
-2.39
-2.80
-3.03
-2.85
-2.12
-0.79
1.03
3.11
5.12
6.76
7.79
8.07
7.65
6.71
5.50
4.32
3.32
2.53
1.89
1.30
0.71
0.19
-0.15
-0.28
-0.23
-0.17
-0.22
-0.46
-0.84
-1.24
-1.54
-1.70
-1.74
-1.69
-1.61
-1.52
-1.42
-1.32
-1.23
-1.13
-1.03
-0.91
-0.81
-0.78
-0.83
-1.00
-1.24
-1.53
-1.89
-2.33
-2.88
-3.53
-4.25
-4.99
-5.68
-6.32
-6.88
-7.36
-7.76
-8.01
-8.11
-8.06
-7.93
-7.85
-7.93
-8.27
-8.87
-9.67
-10.55
-11.38
-12.05
-12.43
-12.43
-11.92
-10.83
-9.14
-6.93
-4.39
-1.78
0.68
2.89
4.88
6.81
8.80
10.89
12.97
14.83
16.32
17.41
18.17
18.76
19.24
19.57
19.60
19.17
18.18
16.71
14.90
12.93
10.91
8.87
6.80
4.75
2.82
1.15
-0.10
-0.91
-1.32
-1.48
-1.58
-1.75
-2.04
-2.47
-2.99
-3.58
-4.20
-4.83
-5.40
-5.83
-6.07
-6.12
-6.08
-6.11
-6.33
-6.82
-7.49
-8.12
-8.50
-8.45
-7.94
-7.08
-6.09
-5.16
-4.43
-3.94
-3.67
-3.52
-3.38
-3.13
-2.66
-1.94
-0.95
0.22
1.44
2.54
3.36
3.85
4.03
3.95
3.74
3.45
3.11
2.70
2.18
1.58
0.94
0.34
-0.14
-0.47
-0.69
-0.83
-0.93
-0.98
-0.93
-0.73
-0.40
-0.03
0.25
0.35
0.25
0.06
-0.09
-0.08
0.11
0.41
0.69
0.87
0.92
0.90
0.88
0.95
1.12
1.39
1.74
2.15
2.63
3.18
3.77
4.32
4.75
4.97
4.92
4.60
4.07
3.43
2.79
2.21
1.72
1.30
0.91
0.52
0.12
-0.23
-0.50
-0.65
-0.67
-0.66
-0.72
-0.92
-1.29
-1.76
-2.19
-2.46
-2.52
-2.39
-2.16
-1.92
-1.74
-1.63
-1.56
-1.47
-1.29
-1.03
-0.67
-0.31
-0.01
0.12
0.04
-0.25
-0.70
-1.21
-1.67
-1.97
-2.01
-1.77
-1.28
-0.63
0.03
0.59
1.00
1.25
1.39
1.45
1.46
1.43
1.36
1.28
1.21
1.14
1.04
0.84
0.49
0.01
-0.50
-0.91
-1.12
-1.10
-0.86
-0.48
-0.02
0.43
0.83
1.12
1.23
1.11
0.76
0.24
-0.33
-0.82
-1.15
-1.32
-1.35
-1.30
-1.23
-1.14
-1.06
-1.01
-1.01
-1.07
-1.21
-1.41
-1.59
-1.70
-1.67
-1.47
-1.11
-0.63
-0.08
0.50
1.10
1.68
2.15
2.45
2.50
2.28
1.86
1.36
0.96
0.78
0.85
1.11
1.44
1.68
1.78
1.79
1.83
2.04
2.49
3.07
3.60
3.84
3.67
3.09
2.27
1.40
0.69
0.24
0.08
0.14
0.33
0.53
0.64
0.55
0.25
-0.23
-0.84
-1.45
-1.99
-2.37
-2.55
-2.55
-2.44
-2.33
-2.30
-2.40
-2.58
-2.75
-2.82
-2.76
-2.59
-2.33
-2.00
-1.63
-1.22
-0.83
-0.52
-0.37
-0.39
-0.52
-0.71
-0.92
-1.14
-1.41
-1.74
-2.10
-2.45
-2.74
-2.97
-3.14
-3.27
-3.35
-3.36
-3.29
-3.15
-3.02
-2.96
-2.99
-3.01
-2.88
-2.43
-1.55
-0.32
1.08
2.41
3.49
4.28
4.88
5.43
6.03
6.62
7.03
7.06
6.65
5.87
4.92
4.02
3.32
2.80
2.34
1.85
1.28
0.65
0.05
-0.45
-0.82
-1.04
-1.14
-1.13
-1.05
-0.93
-0.82
-0.73
-0.61
-0.43
-0.14
0.23
0.58
0.81
0.87
0.80
0.68
0.59
0.56
0.53
0.42
0.21
-0.08
-0.32
-0.41
-0.32
-0.13
0.06
0.13
0.05
-0.11
-0.26
-0.32
-0.28
-0.17
-0.10
-0.14
-0.31
-0.56
-0.80
-0.94
-0.94
-0.81
-0.60
-0.41
-0.27
-0.21
-0.24
-0.34
-0.48
-0.63
-0.72
-0.69
-0.52
-0.27
-0.03
0.09
0.05
-0.08
-0.20
-0.18
0.01
0.32
0.66
0.90
1.01
1.01
0.96
0.91
0.89
0.89
0.88
0.83
0.74
0.60
0.42
0.20
-0.04
-0.33
-0.66
-0.97
-1.18
-1.22
-1.02
-0.64
-0.18
0.21
0.44
0.46
0.34
0.16
-0.03
-0.24
-0.47
-0.73
-0.92
-0.94
-0.73
-0.29
0.26
0.77
1.08
1.14
0.96
0.67
0.40
0.26
0.33
0.57
0.92
1.23
1.37
1.24
0.82
0.19
-0.49
-1.05
-1.34
-1.29
-0.93
-0.40
0.17
0.60
0.82
0.84
0.70
0.48
0.25
0.09
0.04
0.12
0.32
0.58
0.79
0.86
0.76
0.54
0.29
0.12
0.06
0.05
0.01
-0.14
-0.42
-0.76
-1.09
-1.35
-1.52
-1.63
-1.67
-1.65
-1.54
-1.32
-1.02
-0.69
-0.46
-0.37
-0.45
-0.62
-0.77
-0.80
-0.67
-0.43
-0.17
-0.02
0.00
-0.09
-0.23
-0.35
-0.44
-0.54
-0.72
-0.99
-1.28
-1.49
-1.53
-1.39
-1.20
-1.12
-1.28
-1.67
-2.13
-2.45
-2.50
-2.27
-1.89
-1.52
-1.27
-1.15
-1.05
-0.90
-0.66
-0.37
-0.08
0.16
0.36
0.51
0.64
0.73
0.77
0.76
0.74
0.76
0.81
0.88
0.91
0.84
0.68
0.48
0.29
0.13
0.01
-0.10
-0.20
-0.22
-0.13
0.12
0.48
0.83
1.08
1.16
1.13
1.08
1.09
1.16
1.23
1.21
1.11
0.96
0.86
0.84
0.85
0.78
0.50
0.04
-0.49
-0.87
-0.98
-0.80
-0.47
-0.19
-0.09
-0.22
-0.45
-0.64
-0.67
-0.54
-0.35
-0.19
-0.17
-0.24
-0.35
-0.39
-0.33
-0.17
0.00
0.12
0.17
0.15
0.14
0.18
0.27
0.38
0.45
0.46
0.38
0.26
0.13
0.05
0.04
0.09
0.17
0.26
0.37
0.51
0.71
0.97
1.24
1.44
1.44
1.21
0.78
0.28
-0.12
-0.32
-0.33
-0.26
-0.22
-0.30
-0.47
-0.63
-0.70
-0.65
-0.53
-0.43
-0.37
-0.35
-0.33
-0.26
-0.15
-0.01
0.16
0.36
0.55
0.70
0.72
0.51
0.07
-0.54
-1.15
-1.60
-1.78
-1.67
-1.32
-0.86
-0.40
-0.06
0.10
0.06
-0.16
-0.48
-0.78
-0.95
-0.94
-0.76
-0.45
-0.11
0.18
0.38
0.46
0.40
0.22
-0.08
-0.44
-0.77
-0.96
-0.92
-0.63
-0.16
0.37
0.84
1.15
1.30
1.30
1.20
1.03
0.82
0.61
0.46
0.40
0.48
0.67
0.87
0.99
0.97
0.79
0.49
0.14
-0.16
-0.32
-0.29
-0.09
0.22
0.54
0.73
0.72
0.49
0.09
-0.35
-0.68
-0.81
-0.68
-0.38
-0.02
0.24
0.32
0.23
0.07
-0.06
-0.14
-0.18
-0.28
-0.48
-0.76
-1.04
-1.22
-1.26
-1.17
-1.03
-0.90
-0.81
-0.74
-0.66
-0.54
-0.39
-0.25
-0.15
-0.12
-0.16
-0.21
-0.24
-0.19
-0.08
0.06
0.19
0.26
0.30
0.32
0.38
0.45
0.50
0.48
0.40
0.31
0.30
0.42
0.60
0.76
0.77
0.58
0.26
-0.06
-0.26
-0.29
-0.18
-0.04
0.06
0.11
0.16
0.25
0.37
0.45
0.39
0.15
-0.24
-0.66
-0.95
-0.97
-0.69
-0.22
0.28
0.67
0.86
0.86
0.76
0.63
0.49
0.35
0.20
0.06
-0.01
0.02
0.15
0.31
0.43
0.47
0.44
0.38
0.33
0.27
0.17
-0.01
-0.26
-0.52
-0.72
-0.81
-0.76
-0.60
-0.35
-0.05
0.27
0.52
0.66
0.65
0.49
0.25
-0.00
-0.20
-0.33
-0.42
-0.52
-0.65
-0.78
-0.88
-0.90
-0.84
-0.73
-0.60
-0.53
-0.53
-0.63
-0.81
-1.02
-1.19
-1.22
-1.05
-0.66
-0.11
0.48
0.98
1.33
1.54
1.67
1.80
1.97
2.15
2.26
2.26
2.18
2.09
2.04
2.02
1.96
1.80
1.51
1.12
0.72
0.35
0.03
-0.26
-0.55
-0.81
-0.98
-1.03
-0.98
-0.90
-0.83
-0.83
-0.87
-0.90
-0.90
-0.86
-0.80
-0.73
-0.64
-0.55
-0.45
-0.40
-0.44
-0.61
-0.87
-1.16
-1.38
-1.47
-1.42
-1.30
-1.17
-1.07
-1.01
-0.94
-0.77
-0.47
-0.08
0.33
0.62
0.74
0.70
0.57
0.45
0.40
0.40
0.37
0.26
0.08
-0.08
-0.14
-0.06
0.11
0.26
0.34
0.37
0.44
0.62
0.89
1.16
1.31
1.27
1.06
0.77
0.46
0.19
-0.05
-0.26
-0.40
-0.44
-0.34
-0.14
0.11
0.33
0.46
0.49
0.45
0.38
0.30
0.24
0.26
0.36
0.53
0.70
0.76
0.65
0.33
-0.13
-0.63
-1.04
-1.26
-1.27
-1.10
-0.84
-0.57
-0.34
-0.20
-0.18
-0.27
-0.42
-0.55
-0.60
-0.54
-0.40
-0.24
-0.14
-0.14
-0.22
-0.33
-0.40
-0.35
-0.20
0.01
0.21
0.37
0.46
0.54
0.62
0.73
0.83
0.86
0.80
0.63
0.39
0.14
-0.08
-0.22
-0.29
-0.27
-0.13
0.12
0.44
0.73
0.86
0.75
0.46
0.11
-0.16
-0.24
-0.15
0.01
0.09
0.05
-0.10
-0.26
-0.33
-0.25
-0.09
0.04
0.06
-0.07
-0.27
-0.40
-0.34
-0.05
0.36
0.73
0.87
0.71
0.33
-0.10
-0.39
-0.46
-0.36
-0.18
-0.04
0.05
0.10
0.19
0.29
0.37
0.33
0.15
-0.12
-0.39
-0.55
-0.58
-0.48
-0.31
-0.12
0.03
0.14
0.20
0.18
0.09
-0.08
-0.28
-0.49
-0.68
-0.82
-0.90
-0.92
-0.89
-0.82
-0.71
-0.56
-0.35
-0.06
0.28
0.60
0.79
0.76
0.47
-0.03
-0.61
-1.12
-1.44
-1.50
-1.32
-0.98
-0.57
-0.21
0.04
0.18
0.24
0.28
0.32
0.37
0.40
0.41
0.41
0.45
0.57
0.76
1.00
1.22
1.39
1.50
1.55
1.53
1.40
1.15
0.77
0.33
-0.06
-0.31
-0.36
-0.24
-0.05
0.13
0.23
0.22
0.12
-0.09
-0.37
-0.68
-0.94
-1.06
-0.97
-0.69
-0.34
-0.07
-0.00
-0.15
-0.42
-0.65
-0.73
-0.65
-0.49
-0.36
-0.33
-0.36
-0.40
-0.43
-0.43
-0.42
-0.37
-0.22
0.08
0.51
0.95
1.21
1.18
0.87
0.44
0.07
-0.10
-0.10
-0.03
0.00
-0.06
-0.18
-0.28
-0.31
-0.29
-0.26
-0.23
-0.19
-0.09
0.09
0.33
0.61
0.88
1.09
1.21
1.21
1.05
0.74
0.35
-0.05
-0.33
-0.43
-0.37
-0.23
-0.11
-0.08
-0.09
-0.08
0.04
0.26
0.51
0.65
0.59
0.35
0.03
-0.26
-0.42
-0.47
-0.49
-0.57
-0.69
-0.82
-0.86
-0.79
-0.63
-0.50
-0.48
-0.60
-0.81
-1.00
-1.04
-0.87
-0.52
-0.09
0.28
0.51
0.56
0.50
0.40
0.32
0.27
0.22
0.14
0.05
-0.01
0.00
0.10
0.26
0.41
0.53
0.60
0.64
0.66
0.63
0.56
0.42
0.23
0.02
-0.21
-0.44
-0.68
-0.88
-1.01
-1.04
-0.98
-0.84
-0.67
-0.50
-0.34
-0.19
-0.03
0.12
0.25
0.35
0.41
0.41
0.33
0.15
-0.10
-0.37
-0.57
-0.65
-0.57
-0.40
-0.21
-0.10
-0.10
-0.18
-0.23
-0.19
-0.03
0.19
0.37
0.41
0.30
0.09
-0.11
-0.19
-0.08
0.19
0.58
1.01
1.37
1.61
1.66
1.50
1.16
0.71
0.27
-0.06
-0.21
-0.16
0.03
0.27
0.45
0.51
0.44
0.30
0.14
0.02
-0.05
-0.10
-0.16
-0.22
-0.24
-0.18
-0.01
0.21
0.41
0.52
0.49
0.34
0.11
-0.16
-0.42
-0.62
-0.74
-0.77
-0.72
-0.65
-0.60
-0.62
-0.68
-0.71
-0.67
-0.52
-0.34
-0.20
-0.16
-0.23
-0.34
-0.44
-0.50
-0.50
-0.47
-0.39
-0.24
-0.01
0.25
0.45
0.51
0.42
0.23
0.06
-0.01
0.01
0.00
-0.15
-0.51
-1.00
-1.47
-1.75
-1.76
-1.55
-1.23
-0.94
-0.77
-0.74
-0.83
-1.02
-1.32
-1.78
-2.40
-3.14
-3.91
-4.54
-4.92
-4.97
-4.69
-4.23
-3.80
-3.63
-3.88
-4.54
-5.47
-6.41
-7.14
-7.55
-7.72
-7.87
-8.23
-8.96
-10.11
-11.58
-13.20
-14.73
-15.89
-16.42
-16.02
-14.54
-11.96
-8.54
-4.69
-0.94
2.19
4.39
5.54
5.76
5.30
4.45
3.49
2.57
1.72
0.93
0.13
-0.70
-1.55
-2.37
-3.10
-3.64
-3.92
-3.86
-3.42
-2.62
-1.52
-0.25
1.02
2.16
3.01
3.52
3.72
3.72
3.71
3.87
4.35
5.23
6.50
8.08
9.89
11.83
13.85
15.85
17.76
19.45
20.77
21.57
21.72
21.10
19.70
17.59
14.96
12.06
9.13
6.41
4.01
1.98
0.23
-1.34
-2.84
-4.27
-5.55
-6.51
-7.01
-6.98
-6.47
-5.63
-4.61
-3.50
-2.29
-0.92
0.66
2.40
4.21
5.98
7.63
9.19
10.71
12.18
13.47
14.30
14.40
13.64
12.11
10.13
8.05
6.11
4.36
2.69
1.01
-0.63
-2.05
-3.07
-3.60
-3.80
-3.91
-4.16
-4.58
-5.02
-5.27
-5.19
-4.81
-4.30
-3.87
-3.63
-3.57
-3.57
-3.53
-3.38
-3.13
-2.83
-2.51
-2.15
-1.69
-1.06
-0.22
0.79
1.91
3.01
3.97
4.68
5.10
5.25
5.23
5.20
5.26
5.44
5.66
5.73
5.46
4.78
3.75
2.59
1.61
1.04
1.02
1.55
2.50
3.66
4.72
5.36
5.29
4.38
2.76
0.76
-1.13
-2.49
-3.14
-3.15
-2.81
-2.44
-2.26
-2.34
-2.70
-3.29
-4.10
-5.11
-6.26
-7.44
-8.55
-9.52
-10.28
-10.79
-10.96
-10.72
-10.00
-8.87
-7.48
-6.05
-4.74
-3.56
-2.49
-1.44
-0.39
0.58
1.35
1.83
2.02
1.96
1.73
1.34
0.77
0.01
-0.94
-1.97
-2.95
-3.73
-4.20
-4.30
-4.05
-3.51
-2.77
-1.92
-1.06
-0.27
0.43
1.05
1.63
2.20
2.76
3.24
3.60
3.79
3.81
3.68
3.41
2.99
2.44
1.78
1.07
0.42
-0.07
-0.35
-0.41
-0.28
-0.02
0.27
0.48
0.53
0.34
-0.05
-0.52
-0.94
-1.21
-1.31
-1.29
-1.23
-1.14
-1.03
-0.84
-0.59
-0.33
-0.14
-0.08
-0.14
-0.28
-0.41
-0.48
-0.48
-0.43
-0.34
-0.21
-0.07
0.07
0.19
0.23
0.17
-0.02
-0.32
-0.66
-0.97
-1.17
-1.21
-1.13
-1.00
-0.94
-1.02
-1.26
-1.56
-1.83
-1.97
-1.94
-1.76
-1.50
-1.19
-0.84
-0.46
-0.11
0.16
0.27
0.20
0.03
-0.13
-0.14
0.04
0.39
0.78
1.05
1.09
0.87
0.50
0.14
-0.00
0.17
0.62
1.17
1.62
1.81
1.71
1.44
1.16
0.98
0.90
0.88
0.82
0.71
0.59
0.50
0.47
0.42
0.26
-0.09
-0.58
-1.08
-1.42
-1.44
-1.14
-0.68
-0.29
-0.17
-0.41
-0.91
-1.46
-1.81
-1.85
-1.60
-1.18
-0.76
-0.42
-0.15
0.10
0.40
0.70
0.96
1.09
1.07
0.92
0.73
0.58
0.55
0.63
0.75
0.84
0.82
0.69
0.48
0.26
0.10
0.03
0.02
0.02
-0.03
-0.14
-0.28
-0.38
-0.39
-0.31
-0.15
0.04
0.19
0.28
0.28
0.22
0.14
0.09
0.13
0.24
0.39
0.53
0.62
0.64
0.60
0.55
0.53
0.56
0.63
0.68
0.66
0.50
0.19
-0.29
-0.89
-1.52
-2.07
-2.44
-2.54
-2.38
-2.03
-1.58
-1.14
-0.76
-0.48
-0.32
-0.27
-0.34
-0.51
-0.70
-0.76
-0.50
0.15
1.12
2.14
2.85
3.04
2.68
2.04
1.46
1.24
1.43
1.82
2.11
2.08
1.68
1.05
0.42
-0.02
-0.22
-0.22
-0.14
-0.08
-0.12
-0.28
-0.52
-0.78
-0.95
-0.95
-0.77
-0.43
-0.01
0.38
0.65
0.71
0.51
0.04
-0.64
-1.43
-2.17
-2.69
-2.87
-2.69
-2.22
-1.59
-0.93
-0.32
0.19
0.56
0.79
0.83
0.72
0.54
0.39
0.34
0.37
0.41
0.37
0.21
-0.02
-0.20
-0.20
0.00
0.33
0.63
0.80
0.82
0.77
0.76
0.84
0.99
1.09
1.05
0.86
0.59
0.36
0.28
0.35
0.47
0.52
0.40
0.13
-0.21
-0.50
-0.65
-0.65
-0.55
-0.43
-0.30
-0.18
-0.03
0.18
0.44
0.73
1.00
1.19
1.29
1.30
1.26
1.24
1.27
1.34
1.40
1.38
1.19
0.79
0.19
-0.53
-1.25
-1.84
-2.21
-2.30
-2.12
-1.76
-1.34
-0.98
-0.73
-0.58
-0.46
-0.33
-0.15
0.02
0.11
0.08
-0.08
-0.31
-0.53
-0.67
-0.72
-0.69
-0.64
-0.62
-0.64
-0.69
-0.72
-0.70
-0.59
-0.43
-0.28
-0.17
-0.12
-0.11
-0.08
-0.02
0.03
0.02
-0.09
-0.27
-0.40
-0.40
-0.23
0.06
0.35
0.51
0.48
0.31
0.08
-0.08
-0.13
-0.05
0.08
0.21
0.22
0.06
-0.28
-0.72
-1.13
-1.35
-1.31
-1.04
-0.66
-0.33
-0.15
-0.10
-0.10
-0.06
0.03
0.16
0.27
0.33
0.35
0.37
0.43
0.50
0.56
0.57
0.52
0.46
0.42
0.43
0.47
0.51
0.48
0.35
0.15
-0.07
-0.22
-0.22
-0.04
0.29
0.66
0.94
1.03
0.89
0.59
0.25
-0.04
-0.25
-0.38
-0.50
-0.63
-0.74
-0.75
-0.60
-0.30
0.09
0.41
0.54
0.39
0.02
-0.42
-0.76
-0.87
-0.75
-0.51
-0.31
-0.26
-0.34
-0.46
-0.51
-0.42
-0.24
-0.03
0.10
0.16
0.19
0.22
0.28
0.34
0.37
0.37
0.37
0.42
0.55
0.73
0.90
1.00
1.00
0.93
0.82
0.68
0.49
0.24
-0.06
-0.33
-0.49
-0.49
-0.35
-0.18
-0.12
-0.25
-0.58
-1.02
-1.43
-1.68
-1.72
-1.56
-1.27
-0.94
-0.65
-0.44
-0.34
-0.36
-0.50
-0.73
-0.98
-1.17
-1.22
-1.10
-0.84
-0.51
-0.17
0.13
0.38
0.60
0.78
0.90
0.92
0.82
0.66
0.50
0.43
0.45
0.53
0.61
0.62
0.55
0.41
0.24
0.09
-0.03
-0.13
-0.24
-0.38
-0.51
-0.57
-0.48
-0.21
0.21
0.68
1.06
1.24
1.18
0.92
0.56
0.23
0.00
-0.06
0.04
0.27
0.53
0.74
0.81
0.73
0.54
0.31
0.13
-0.01
-0.11
-0.22
-0.34
-0.43
-0.43
-0.31
-0.12
0.07
0.16
0.11
-0.05
-0.25
-0.44
-0.59
-0.69
-0.74
-0.74
-0.64
-0.42
-0.09
0.29
0.65
0.94
1.17
1.32
1.40
1.39
1.22
0.89
0.43
-0.03
-0.36
-0.46
-0.34
-0.11
0.07
0.06
-0.16
-0.50
-0.82
-0.97
-0.87
-0.55
-0.10
0.37
0.78
1.04
1.14
1.08
0.90
0.67
0.44
0.23
0.06
-0.08
-0.19
-0.25
-0.27
-0.25
-0.22
-0.19
-0.17
-0.14
-0.11
-0.09
-0.15
-0.34
-0.65
-0.99
-1.26
-1.38
-1.32
-1.14
-0.95
-0.78
-0.64
-0.51
-0.38
-0.31
-0.31
-0.39
-0.50
-0.53
-0.42
-0.17
0.15
0.38
0.40
0.18
-0.23
-0.69
-1.05
-1.19
-1.08
-0.76
-0.32
0.16
0.62
1.00
1.28
1.43
1.43
1.29
1.05
0.79
0.56
0.42
0.37
0.35
0.31
0.24
0.19
0.22
0.40
0.71
1.03
1.21
1.16
0.87
0.46
0.07
-0.23
-0.43
-0.62
-0.85
-1.12
-1.36
-1.43
-1.27
-0.90
-0.44
-0.01
0.29
0.42
0.37
0.16
-0.17
-0.56
-0.91
-1.09
-1.06
-0.83
-0.50
-0.17
0.07
0.19
0.23
0.23
0.22
0.22
0.25
0.35
0.54
0.83
1.16
1.43
1.57
1.55
1.40
1.18
0.92
0.62
0.23
-0.23
-0.70
-1.05
-1.15
-0.94
-0.47
0.08
0.51
0.68
0.58
0.29
-0.03
-0.24
-0.31
-0.27
-0.23
-0.26
-0.38
-0.57
-0.76
-0.92
-1.04
-1.10
-1.09
-1.00
-0.80
-0.51
-0.19
0.08
0.25
0.31
0.30
0.27
0.30
0.42
0.61
0.83
1.00
1.05
0.99
0.83
0.66
0.55
0.55
0.63
0.72
0.77
0.74
0.65
0.55
0.48
0.44
0.41
0.38
0.37
0.39
0.44
0.48
0.44
0.23
-0.19
-0.77
-1.39
-1.91
-2.24
-2.35
-2.29
-2.12
-1.91
-1.69
-1.46
-1.20
-0.92
-0.65
-0.43
-0.29
-0.22
-0.22
-0.27
-0.37
-0.54
-0.76
-0.98
-1.12
-1.17
-1.14
-1.12
-1.22
-1.47
-1.86
-2.25
-2.50
-2.53
-2.31
-1.95
-1.56
-1.25
-1.07
-1.02
-1.08
-1.23
-1.47
-1.84
-2.35
-2.99
-3.69
-4.37
-4.96
-5.40
-5.68
-5.81
-5.85
-5.82
-5.73
-5.60
-5.40
-5.13
-4.77
-4.37
-4.00
-3.74
-3.64
-3.71
-3.85
-3.93
-3.83
-3.48
-2.88
-2.11
-1.25
-0.38
0.51
1.43
2.37
3.28
4.08
4.73
5.24
5.69
6.15
6.62
7.04
7.28
7.29
7.05
6.67
6.22
5.77
5.31
4.76
4.12
3.42
2.75
2.22
1.89
1.73
1.70
1.70
1.66
1.52
1.29
1.04
0.92
1.16
1.94
3.40
5.45
7.87
10.30
12.38
13.84
14.56
14.53
13.80
12.45
10.56
8.25
5.70
3.16
0.88
-0.96
-2.31
-3.26
-3.94
-4.49
-4.96
-5.31
-5.50
-5.51
-5.40
-5.27
-5.20
-5.20
-5.19
-5.07
-4.70
-4.08
-3.26
-2.38
-1.57
-0.96
-0.60
-0.45
-0.43
-0.41
-0.30
-0.06
0.25
0.51
0.60
0.48
0.19
-0.14
-0.37
-0.45
-0.37
-0.17
0.08
0.36
0.64
0.94
1.23
1.47
1.60
1.58
1.39
1.05
0.62
0.18
-0.20
-0.44
-0.52
-0.51
-0.47
-0.45
-0.44
-0.38
-0.22
0.02
0.24
0.30
0.14
-0.26
-0.77
-1.24
-1.56
-1.66
-1.60
-1.43
-1.24
-1.07
-0.94
-0.90
-0.99
-1.25
-1.65
-2.12
-2.54
-2.77
-2.71
-2.36
-1.83
-1.28
-0.85
-0.61
-0.53
-0.50
-0.39
-0.14
0.23
0.63
0.96
1.11
1.08
0.90
0.68
0.52
0.48
0.57
0.75
0.92
1.00
0.94
0.77
0.55
0.37
0.28
0.25
0.24
0.22
0.15
0.06
-0.05
-0.13
-0.20
-0.26
-0.35
-0.46
-0.62
-0.82
-1.07
-1.33
-1.52
-1.60
-1.52
-1.31
-1.06
-0.85
-0.74
-0.66
-0.56
-0.34
-0.01
0.36
0.64
0.75
0.69
0.55
0.43
0.42
0.50
0.64
0.78
0.94
1.11
1.31
1.48
1.51
1.33
0.93
0.44
0.01
-0.23
-0.26
-0.16
-0.02
0.10
0.25
0.55
1.08
1.89
2.90
3.98
5.00
5.86
6.45
6.75
6.74
6.45
5.96
5.37
4.76
4.19
3.70
3.31
3.05
2.93
2.98
3.16
3.40
3.61
3.75
3.85
3.99
4.28
4.76
5.42
6.21
7.07
8.00
8.97
9.88
10.51
10.52
9.58
7.53
4.50
0.91
-2.64
-5.62
-7.72
-8.91
-9.43
-9.60
-9.65
-9.65
-9.56
-9.32
-8.93
-8.50
-8.21
-8.14
-8.21
-8.21
-7.90
-7.12
-5.90
-4.47
-3.13
-2.15
-1.59
-1.38
-1.34
-1.28
-1.13
-0.88
-0.62
-0.39
-0.21
-0.03
0.24
0.62
1.06
1.46
1.68
1.66
1.43
1.09
0.77
0.59
0.56
0.64
0.75
0.81
0.84
0.89
1.04
1.29
1.59
1.87
2.04
2.09
2.06
1.99
1.89
1.78
1.63
1.48
1.38
1.37
1.42
1.42
1.22
0.73
-0.01
-0.86
-1.63
-2.19
-2.52
-2.74
-3.01
-3.43
-3.97
-4.55
-5.03
-5.34
-5.44
-5.37
-5.18
-4.91
-4.59
-4.25
-3.90
-3.62
-3.46
-3.47
-3.68
-4.00
-4.34
-4.54
-4.55
-4.38
-4.17
-4.08
-4.23
-4.65
-5.22
-5.75
-6.08
-6.06
-5.71
-5.12
-4.51
-4.06
-3.92
-4.09
-4.46
-4.85
-5.04
-4.85
-4.18
-3.01
-1.36
0.62
2.68
4.49
5.74
6.23
6.01
5.29
4.43
3.71
3.27
3.09
3.01
2.91
2.77
2.63
2.60
2.76
3.09
3.51
3.86
4.00
3.87
3.51
3.05
2.65
2.43
2.39
2.44
2.46
2.35
2.09
1.82
1.72
1.93
2.50
3.34
4.26
5.09
5.70
6.07
6.23
6.20
5.99
5.58
5.02
4.41
3.91
3.68
3.78
4.15
4.61
4.94
4.95
4.56
3.79
2.77
1.66
0.64
-0.11
-0.50
-0.48
-0.10
0.51
1.18
1.72
2.02
2.04
1.80
1.40
0.92
0.46
0.05
-0.29
-0.53
-0.66
-0.70
-0.65
-0.61
-0.67
-0.93
-1.45
-2.18
-2.99
-3.70
-4.18
-4.39
-4.42
-4.41
-4.48
-4.68
-4.96
-5.22
-5.38
-5.41
-5.31
-5.09
-4.74
-4.23
-3.57
-2.83
-2.12
-1.54
-1.18
-1.01
-0.97
-0.96
-0.93
-0.86
-0.77
-0.67
-0.59
-0.54
-0.54
-0.65
-0.86
-1.14
-1.42
-1.58
-1.54
-1.30
-0.93
-0.56
-0.27
-0.08
0.00
0.00
-0.07
-0.22
-0.45
-0.66
-0.76
-0.68
-0.39
-0.02
0.31
0.46
0.40
0.18
-0.08
-0.29
-0.40
-0.41
-0.36
-0.29
-0.21
-0.12
-0.02
0.09
0.17
0.20
0.18
0.13
0.10
0.13
0.20
0.29
0.33
0.28
0.11
-0.13
-0.40
-0.65
-0.88
-1.07
-1.22
-1.32
-1.33
-1.26
-1.13
-0.97
-0.83
-0.74
-0.69
-0.63
-0.52
-0.30
0.05
0.47
0.87
1.13
1.13
0.88
0.48
0.09
-0.10
-0.02
0.34
0.85
1.36
1.74
1.91
1.83
1.53
1.08
0.56
0.06
-0.33
-0.49
-0.40
-0.09
0.36
0.77
0.98
0.90
0.55
0.05
-0.43
-0.77
-0.90
-0.85
-0.71
-0.54
-0.38
-0.26
-0.17
-0.13
-0.13
-0.14
-0.14
-0.10
-0.03
0.01
-0.02
-0.13
-0.30
-0.44
-0.48
-0.41
-0.24
-0.01
0.24
0.46
0.62
0.63
0.47
0.12
-0.32
-0.72
-0.93
-0.88
-0.62
-0.27
0.02
0.16
0.15
0.06
-0.01
0.02
0.14
0.30
0.40
0.39
0.27
0.08
-0.07
-0.11
0.01
0.26
0.55
0.78
0.91
0.91
0.82
0.66
0.46
0.19
-0.14
-0.53
-0.88
-1.13
-1.19
-1.03
-0.67
-0.19
0.32
0.72
0.90
0.82
0.52
0.11
-0.25
-0.46
-0.53
-0.53
-0.52
-0.55
-0.54
-0.43
-0.16
0.20
0.51
0.63
0.53
0.26
-0.02
-0.20
-0.23
-0.17
-0.11
-0.14
-0.24
-0.32
-0.28
-0.05
0.35
0.77
1.04
1.07
0.82
0.42
0.01
-0.27
-0.37
-0.33
-0.19
0.01
0.30
0.68
1.10
1.45
1.60
1.45
1.04
0.49
-0.06
-0.47
-0.74
-0.90
-1.02
-1.12
-1.21
-1.26
-1.20
-1.04
-0.80
-0.50
-0.20
0.06
0.25
0.36
0.39
0.34
0.20
-0.01
-0.27
-0.50
-0.61
-0.54
-0.31
0.01
0.31
0.49
0.54
0.52
0.51
0.51
0.51
0.45
0.32
0.16
0.07
0.12
0.28
0.47
0.60
0.62
0.55
0.50
0.50
0.55
0.57
0.45
0.15
-0.27
-0.69
-0.95
-0.97
-0.79
-0.49
-0.19
0.04
0.19
0.31
0.44
0.57
0.64
0.59
0.39
0.06
-0.33
-0.73
-1.11
-1.48
-1.79
-1.98
-1.95
-1.62
-1.02
-0.30
0.37
0.82
1.06
1.13
1.18
1.25
1.32
1.30
1.11
0.77
0.38
0.10
0.00
0.06
0.18
0.23
0.19
0.08
0.00
0.04
0.19
0.40
0.62
0.80
0.94
1.07
1.21
1.32
1.38
1.33
1.14
0.84
0.45
0.04
-0.33
-0.60
-0.74
-0.77
-0.72
-0.65
-0.57
-0.50
-0.45
-0.43
-0.51
-0.72
-1.06
-1.44
-1.74
-1.83
-1.67
-1.28
-0.81
-0.35
0.02
0.29
0.47
0.59
0.65
0.64
0.59
0.54
0.54
0.62
0.73
0.80
0.75
0.54
0.21
-0.16
-0.50
-0.78
-1.02
-1.27
-1.51
-1.70
-1.75
-1.59
-1.27
-0.89
-0.61
-0.50
-0.51
-0.53
-0.42
-0.18
0.12
0.29
0.21
-0.11
-0.54
-0.91
-1.04
-0.90
-0.54
-0.11
0.25
0.45
0.44
0.27
0.01
-0.21
-0.27
-0.12
0.17
0.47
0.60
0.48
0.12
-0.29
-0.60
-0.67
-0.51
-0.22
0.09
0.34
0.53
0.68
0.81
0.89
0.88
0.77
0.62
0.52
0.55
0.72
0.97
1.24
1.44
1.53
1.49
1.31
1.00
0.60
0.18
-0.14
-0.26
-0.14
0.18
0.55
0.79
0.81
0.58
0.19
-0.25
-0.64
-0.95
-1.17
-1.30
-1.33
-1.26
-1.11
-0.91
-0.72
-0.58
-0.50
-0.43
-0.33
-0.19
-0.06
0.06
0.17
0.32
0.53
0.82
1.14
1.40
1.49
1.36
1.02
0.54
0.03
-0.37
-0.57
-0.52
-0.27
0.07
0.39
0.55
0.52
0.31
-0.03
-0.38
-0.66
-0.80
-0.77
-0.59
-0.34
-0.14
-0.07
-0.13
-0.27
-0.36
-0.31
-0.12
0.14
0.35
0.44
0.44
0.44
0.50
0.64
0.78
0.79
0.60
0.23
-0.19
-0.50
-0.61
-0.49
-0.25
-0.01
0.11
0.09
-0.02
-0.12
-0.14
-0.08
0.01
0.06
0.01
-0.14
-0.34
-0.52
-0.62
-0.61
-0.53
-0.40
-0.25
-0.08
0.12
0.34
0.56
0.72
0.82
0.85
0.84
0.81
0.73
0.58
0.30
-0.11
-0.59
-1.05
-1.36
-1.44
-1.31
-1.03
-0.71
-0.43
-0.23
-0.11
-0.06
-0.05
-0.06
-0.07
-0.03
0.10
0.29
0.48
0.56
0.44
0.10
-0.35
-0.78
-1.04
-1.08
-0.95
-0.74
-0.53
-0.35
-0.20
-0.03
0.13
0.28
0.38
0.43
0.44
0.46
0.50
0.57
0.65
0.72
0.75
0.75
0.69
0.57
0.41
0.20
-0.03
-0.24
-0.39
-0.42
-0.33
-0.11
0.16
0.40
0.52
0.50
0.35
0.18
0.09
0.11
0.23
0.35
0.39
0.32
0.18
0.03
-0.07
-0.15
-0.24
-0.36
-0.48
-0.54
-0.47
-0.25
0.06
0.33
0.45
0.39
0.17
-0.10
-0.32
-0.41
-0.36
-0.18
0.06
0.30
0.49
0.61
0.68
0.72
0.73
0.65
0.46
0.13
-0.26
-0.60
-0.77
-0.74
-0.56
-0.34
-0.19
-0.11
-0.06
0.04
0.19
0.34
0.38
0.26
0.01
-0.26
-0.44
-0.49
-0.44
-0.39
-0.42
-0.53
-0.66
-0.75
-0.73
-0.61
-0.44
-0.29
-0.18
-0.09
-0.02
0.04
0.02
-0.12
-0.39
-0.70
-0.93
-0.95
-0.75
-0.42
-0.12
0.02
0.01
-0.07
-0.07
0.10
0.45
0.84
1.13
1.20
1.03
0.71
0.37
0.15
0.12
0.26
0.46
0.62
0.67
0.61
0.50
0.43
0.44
0.48
0.50
0.45
0.34
0.21
0.10
0.02
-0.09
-0.27
-0.52
-0.74
-0.81
-0.68
-0.37
0.01
0.30
0.42
0.39
0.28
0.19
0.13
0.06
-0.10
-0.36
-0.67
-0.94
-1.06
-0.99
-0.73
-0.35
0.10
0.54
0.94
1.22
1.33
1.23
0.93
0.51
0.09
-0.20
-0.32
-0.29
-0.19
-0.12
-0.12
-0.17
-0.25
-0.29
-0.29
-0.29
-0.34
-0.48
-0.66
-0.81
-0.84
-0.71
-0.44
-0.11
0.17
0.35
0.37
0.28
0.13
-0.02
-0.12
-0.18
-0.21
-0.22
-0.24
-0.25
-0.22
-0.14
-0.00
0.16
0.31
0.39
0.35
0.17
-0.11
-0.43
-0.67
-0.78
-0.70
-0.48
-0.21
0.04
0.20
0.26
0.27
0.27
0.29
0.35
0.41
0.44
0.44
0.44
0.47
0.56
0.69
0.84
0.95
0.99
0.97
0.90
0.84
0.78
0.70
0.55
0.32
0.05
-0.22
-0.42
-0.57
-0.68
-0.77
-0.81
-0.75
-0.53
-0.17
0.23
0.52
0.60
0.46
0.21
0.01
-0.03
0.10
0.30
0.42
0.35
0.11
-0.21
-0.47
-0.54
-0.41
-0.12
0.20
0.44
0.52
0.42
0.20
-0.08
-0.34
-0.54
-0.63
-0.62
-0.52
-0.38
-0.27
-0.26
-0.37
-0.59
-0.85
-1.06
-1.13
-1.02
-0.75
-0.37
0.01
0.31
0.49
0.52
0.45
0.32
0.18
0.06
-0.04
-0.14
-0.22
-0.24
-0.15
0.06
0.33
0.55
0.60
0.43
0.09
-0.33
-0.68
-0.86
-0.84
-0.64
-0.31
0.02
0.24
0.26
0.04
-0.36
-0.77
-1.01
-0.97
-0.68
-0.26
0.11
0.33
0.40
0.41
0.44
0.51
0.60
0.64
0.63
0.58
0.51
0.43
0.31
0.13
-0.10
-0.30
-0.38
-0.26
0.04
0.40
0.66
0.66
0.39
-0.09
-0.58
-0.92
-1.00
-0.83
-0.53
-0.21
0.05
0.21
0.29
0.31
0.28
0.17
-0.02
-0.28
-0.55
-0.75
-0.82
-0.76
-0.61
-0.44
-0.32
-0.28
-0.29
-0.29
-0.24
-0.12
0.03
0.17
0.30
0.42
0.56
0.73
0.92
1.06
1.10
1.02
0.82
0.57
0.33
0.14
-0.01
-0.11
-0.19
-0.21
-0.18
-0.05
0.17
0.45
0.70
0.85
0.83
0.66
0.41
0.16
-0.00
-0.05
0.01
0.13
0.28
0.38
0.41
0.31
0.11
-0.17
-0.43
-0.63
-0.73
-0.77
-0.79
-0.82
-0.85
-0.91
-1.01
-1.19
-1.45
-1.73
-1.91
-1.86
-1.54
-1.02
-0.46
-0.02
0.24
0.34
0.39
0.45
0.56
0.67
0.73
0.74
0.73
0.77
0.90
1.10
1.30
1.37
1.26
0.97
0.58
0.24
0.05
0.08
0.27
0.54
0.75
0.83
0.76
0.61
0.44
0.32
0.29
0.34
0.43
0.50
0.54
0.52
0.48
0.42
0.34
0.24
0.11
-0.06
-0.23
-0.36
-0.40
-0.37
-0.25
-0.10
0.02
0.05
-0.07
-0.34
-0.70
-1.04
-1.22
-1.20
-1.01
-0.78
-0.65
-0.70
-0.85
-0.97
-0.94
-0.73
-0.40
-0.07
0.16
0.29
0.39
0.53
0.74
0.98
1.17
1.23
1.19
1.12
1.06
1.03
0.97
0.81
0.55
0.25
-0.01
-0.17
-0.28
-0.38
-0.55
-0.78
-1.00
-1.14
-1.15
-1.08
-0.99
-0.89
-0.75
-0.52
-0.17
0.22
0.49
0.49
0.17
-0.37
-0.93
-1.29
-1.35
-1.12
-0.72
-0.31
0.03
0.25
0.37
0.37
0.25
0.01
-0.28
-0.52
-0.59
-0.42
-0.09
0.25
0.42
0.34
0.02
-0.39
-0.76
-0.95
-0.95
-0.77
-0.49
-0.20
0.03
0.19
0.28
0.32
0.34
0.34
0.27
0.13
-0.05
-0.17
-0.13
0.14
0.60
1.12
1.56
1.79
1.79
1.65
1.48
1.37
1.35
1.38
1.41
1.40
1.32
1.18
0.95
0.64
0.25
-0.18
-0.60
-0.94
-1.14
-1.19
-1.08
-0.82
-0.48
-0.14
0.09
0.13
-0.04
-0.37
-0.70
-0.91
-0.89
-0.65
-0.26
0.14
0.46
0.64
0.67
0.59
0.43
0.23
0.04
-0.09
-0.13
-0.07
0.05
0.19
0.32
0.44
0.55
0.62
0.62
0.53
0.32
0.01
-0.34
-0.68
-0.96
-1.17
-1.30
-1.37
-1.36
-1.28
-1.11
-0.87
-0.60
-0.36
-0.22
-0.25
-0.43
-0.70
-0.98
-1.18
-1.28
-1.30
-1.32
-1.35
-1.39
-1.36
-1.22
-1.01
-0.82
-0.81
-1.03
-1.45
-1.91
-2.28
-2.44
-2.43
-2.34
-2.31
-2.42
-2.70
-3.14
-3.75
-4.51
-5.37
-6.24
-6.99
-7.52
-7.80
-7.91
-8.01
-8.23
-8.64
-9.12
-9.51
-9.55
-9.06
-7.94
-6.16
-3.82
-1.01
2.12
5.42
8.71
11.84
14.62
16.89
18.53
19.48
19.73
19.29
18.15
16.27
13.58
10.12
6.07
1.82
-2.10
-5.20
-7.18
-7.98
-7.75
-6.71
-5.03
-2.80
-0.05
3.10
6.44
9.72
12.68
15.21
17.29
18.94
20.12
20.66
20.28
18.78
16.09
12.43
8.25
4.12
0.51
-2.32
-4.40
-5.91
-7.09
-8.03
-8.73
-9.11
-9.14
-8.92
-8.65
-8.52
-8.64
-8.93
-9.23
-9.30
-9.00
-8.30
-7.36
-6.43
-5.73
-5.36
-5.26
-5.21
-4.95
-4.36
-3.44
-2.40
-1.49
-0.92
-0.71
-0.77
-0.93
-1.06
-1.12
-1.11
-1.06
-0.96
-0.78
-0.52
-0.22
0.00
0.06
-0.06
-0.29
-0.49
-0.54
-0.44
-0.29
-0.21
-0.26
-0.41
-0.51
-0.44
-0.17
0.17
0.38
0.30
-0.07
-0.59
-1.03
-1.17
-0.97
-0.52
-0.01
0.42
0.67
0.80
0.89
1.02
1.19
1.37
1.49
1.50
1.39
1.20
0.99
0.80
0.66
0.55
0.45
0.34
0.24
0.17
0.16
0.25
0.42
0.62
0.77
0.77
0.57
0.17
-0.38
-0.93
-1.31
-1.39
-1.12
-0.56
0.12
0.77
1.27
1.58
1.75
1.84
1.91
1.97
1.99
1.91
1.71
1.40
1.00
0.57
0.18
-0.10
-0.28
-0.34
-0.34
-0.31
-0.32
-0.38
-0.50
-0.67
-0.90
-1.17
-1.47
-1.76
-1.95
-2.00
-1.90
-1.70
-1.51
-1.39
-1.34
-1.30
-1.16
-0.84
-0.38
0.07
0.38
0.48
0.41
0.32
0.31
0.37
0.44
0.40
0.21
-0.05
-0.27
-0.33
-0.22
-0.05
0.03
-0.08
-0.42
-0.89
-1.36
-1.68
-1.78
-1.64
-1.30
-0.85
-0.40
-0.06
0.07
-0.01
-0.27
-0.59
-0.89
-1.09
-1.18
-1.18
-1.11
-0.99
-0.83
-0.68
-0.58
-0.57
-0.65
-0.78
-0.88
-0.91
-0.89
-0.90
-1.01
-1.25
-1.56
-1.83
-1.94
-1.83
-1.47
-0.91
-0.25
0.44
1.08
1.64
2.09
2.44
2.71
2.92
3.07
3.17
3.20
3.16
3.06
2.90
2.72
2.57
2.48
2.47
2.52
2.60
2.65
2.63
2.52
2.36
2.17
1.99
1.83
1.70
1.60
1.55
1.52
1.47
1.32
1.04
0.62
0.09
-0.44
-0.90
-1.21
-1.37
-1.42
-1.43
-1.45
-1.50
-1.55
-1.55
-1.49
-1.39
-1.33
-1.34
-1.42
-1.49
-1.45
-1.21
-0.81
-0.34
0.07
0.31
0.39
0.36
0.30
0.23
0.13
-0.04
-0.33
-0.68
-1.00
-1.21
-1.26
-1.17
-1.02
-0.88
-0.78
-0.66
-0.47
-0.19
0.13
0.37
0.45
0.35
0.19
0.12
0.25
0.57
0.96
1.23
1.26
1.01
0.59
0.12
-0.28
-0.53
-0.65
-0.69
-0.70
-0.75
-0.87
-1.07
-1.29
-1.46
-1.49
-1.32
-0.94
-0.43
0.07
0.45
0.59
0.48
0.20
-0.10
-0.23
-0.12
0.21
0.59
0.84
0.82
0.54
0.14
-0.23
-0.44
-0.49
-0.45
-0.41
-0.39
-0.39
-0.36
-0.27
-0.16
-0.05
0.07
0.22
0.46
0.79
1.16
1.50
1.78
1.98
2.12
2.21
2.20
2.01
1.61
1.00
0.32
-0.27
-0.64
-0.75
-0.65
-0.46
-0.28
-0.17
-0.12
-0.09
-0.05
0.00
0.03
0.02
-0.00
-0.01
0.05
0.21
0.45
0.74
1.03
1.26
1.35
1.28
1.07
0.79
0.54
0.39
0.36
0.40
0.43
0.42
0.40
0.38
0.37
0.32
0.15
-0.19
-0.66
-1.14
-1.44
-1.46
-1.16
-0.68
-0.19
0.13
0.18
-0.01
-0.37
-0.74
-1.04
-1.21
-1.24
-1.18
-1.04
-0.86
-0.63
-0.34
-0.02
0.30
0.56
0.74
0.81
0.77
0.65
0.44
0.18
-0.10
-0.34
-0.50
-0.54
-0.48
-0.37
-0.26
-0.22
-0.24
-0.27
-0.28
-0.23
-0.15
-0.08
-0.09
-0.15
-0.21
-0.20
-0.05
0.20
0.47
0.61
0.55
0.29
-0.09
-0.47
-0.73
-0.83
-0.78
-0.65
-0.52
-0.42
-0.39
-0.43
-0.51
-0.61
-0.68
-0.68
-0.59
-0.44
-0.27
-0.13
-0.04
-0.01
0.01
0.03
0.08
0.13
0.18
0.18
0.15
0.08
0.01
-0.04
-0.04
-0.00
0.06
0.09
0.06
-0.06
-0.23
-0.43
-0.61
-0.72
-0.77
-0.76
-0.67
-0.52
-0.31
-0.06
0.18
0.39
0.58
0.77
1.00
1.28
1.57
1.78
1.84
1.73
1.48
1.18
0.90
0.68
0.51
0.34
0.15
-0.07
-0.31
-0.52
-0.68
-0.78
-0.83
-0.84
-0.81
-0.77
-0.72
-0.69
-0.66
-0.62
-0.53
-0.37
-0.15
0.10
0.28
0.34
0.27
0.13
0.00
-0.01
0.13
0.37
0.61
0.73
0.64
0.33
-0.11
-0.58
-0.96
-1.20
-1.27
-1.20
-1.03
-0.77
-0.44
-0.07
0.29
0.57
0.72
0.71
0.52
0.20
-0.18
-0.55
-0.81
-0.91
-0.83
-0.60
-0.29
0.02
0.26
0.40
0.42
0.35
0.23
0.10
-0.00
-0.04
0.01
0.15
0.34
0.49
0.54
0.44
0.22
-0.05
-0.28
-0.38
-0.33
-0.13
0.16
0.48
0.78
0.99
1.05
0.97
0.75
0.47
0.22
0.06
0.01
-0.01
-0.07
-0.24
-0.50
-0.77
-0.93
-0.91
-0.73
-0.46
-0.17
0.06
0.20
0.23
0.18
0.06
-0.08
-0.20
-0.26
-0.26
-0.21
-0.19
-0.20
-0.26
-0.32
-0.33
-0.30
-0.26
-0.26
-0.32
-0.41
-0.48
-0.48
-0.40
-0.26
-0.13
-0.02
0.06
0.13
0.20
0.27
0.35
0.45
0.59
0.81
1.08
1.33
1.50
1.50
1.34
1.05
0.69
0.35
0.05
-0.21
-0.41
-0.51
-0.47
-0.25
0.14
0.57
0.89
0.94
0.67
0.15
-0.43
-0.88
-1.06
-0.95
-0.68
-0.41
-0.28
-0.35
-0.57
-0.83
-1.01
-1.08
-1.06
-1.04
-1.12
-1.31
-1.57
-1.81
-1.98
-2.08
-2.15
-2.20
-2.21
-2.13
-1.87
-1.45
-0.96
-0.54
-0.27
-0.16
-0.09
0.06
0.33
0.64
0.80
0.62
0.03
-0.90
-1.91
-2.70
-2.93
-2.39
-1.03
0.98
3.29
5.47
7.09
7.89
7.84
7.09
5.92
4.58
3.16
1.71
0.23
-1.21
-2.45
-3.32
-3.73
-3.72
-3.48
-3.23
-3.14
-3.27
-3.55
-3.89
-4.25
-4.63
-5.10
-5.67
-6.24
-6.67
-6.81
-6.57
-6.01
-5.31
-4.68
-4.28
-4.17
-4.28
-4.52
-4.77
-5.01
-5.20
-5.33
-5.37
-5.23
-4.87
-4.27
-3.50
-2.63
-1.74
-0.88
-0.06
0.77
1.63
2.52
3.40
4.19
4.83
5.29
5.58
5.72
5.74
5.63
5.39
5.00
4.51
4.00
3.63
3.52
3.70
4.12
4.63
5.08
5.33
5.37
5.23
5.00
4.76
4.51
4.21
3.78
3.17
2.42
1.60
0.82
0.19
-0.26
-0.47
-0.45
-0.18
0.29
0.90
1.51
1.99
2.24
2.21
1.95
1.52
1.00
0.45
-0.04
-0.39
-0.51
-0.36
0.01
0.52
1.05
1.57
2.06
2.55
3.03
3.41
3.56
3.39
2.92
2.27
1.63
1.13
0.84
0.69
0.55
0.31
-0.09
-0.64
-1.27
-1.89
-2.42
-2.81
-3.03
-3.05
-2.87
-2.55
-2.19
-1.89
-1.71
-1.67
-1.70
-1.72
-1.64
-1.44
-1.15
-0.84
-0.59
-0.44
-0.38
-0.40
-0.46
-0.52
-0.54
-0.51
-0.41
-0.26
-0.11
-0.03
-0.04
-0.14
-0.24
-0.24
-0.04
0.41
1.06
1.81
2.53
3.13
3.56
3.80
3.84
3.68
3.33
2.81
2.13
1.33
0.46
-0.42
-1.23
-1.89
-2.34
-2.64
-2.89
-3.19
-3.60
-4.07
-4.51
-4.85
-5.09
-5.28
-5.49
-5.67
-5.68
-5.34
-4.57
-3.44
-2.14
-0.89
0.13
0.89
1.43
1.85
2.21
2.50
2.70
2.79
2.80
2.78
2.78
2.85
2.95
3.01
2.97
2.76
2.37
1.89
1.44
1.09
0.93
0.93
1.04
1.17
1.23
1.16
0.95
0.61
0.20
-0.20
-0.51
-0.69
-0.73
-0.69
-0.62
-0.60
-0.60
-0.61
-0.58
-0.50
-0.39
-0.31
-0.34
-0.48
-0.72
-0.97
-1.16
-1.26
-1.31
-1.42
-1.68
-2.10
-2.59
-3.00
-3.17
-3.03
-2.61
-2.00
-1.32
-0.66
-0.04
0.59
1.34
2.37
3.80
5.68
7.89
10.19
12.22
13.70
14.46
14.47
13.82
12.59
10.91
8.87
6.64
4.49
2.63
1.24
0.31
-0.30
-0.75
-1.16
-1.58
-1.97
-2.29
-2.56
-2.81
-3.10
-3.44
-3.77
-4.02
-4.12
-4.06
-3.94
-3.88
-4.00
-4.37
-4.93
-5.57
-6.12
-6.40
-6.35
-5.98
-5.46
-5.00
-4.81
-5.06
-5.74
-6.68
-7.55
-7.98
-7.68
-6.56
-4.77
-2.58
-0.28
1.99
4.23
6.50
8.82
11.02
12.83
13.91
14.07
13.31
11.84
10.01
8.13
6.39
4.84
3.42
2.07
0.79
-0.39
-1.39
-2.19
-2.81
-3.34
-3.84
-4.31
-4.71
-4.92
-4.92
-4.71
-4.41
-4.12
-3.91
-3.79
-3.75
-3.75
-3.81
-3.91
-4.04
-4.11
-4.06
-3.86
-3.53
-3.17
-2.84
-2.58
-2.38
-2.20
-2.05
-2.01
-2.20
-2.67
-3.38
-4.09
-4.47
-4.20
-3.13
-1.34
0.87
3.11
5.07
6.57
7.60
8.22
8.49
8.39
7.86
6.86
5.44
3.78
2.14
0.79
-0.14
-0.66
-0.95
-1.22
-1.63
-2.21
-2.85
-3.39
-3.70
-3.74
-3.58
-3.34
-3.10
-2.87
-2.61
-2.30
-1.97
-1.68
-1.48
-1.37
-1.25
-0.99
-0.48
0.29
1.22
2.17
2.94
3.44
3.69
3.78
3.83
3.93
4.11
4.35
4.66
5.03
5.51
6.09
6.71
7.26
7.60
7.60
7.20
6.41
5.31
4.02
2.71
1.50
0.50
-0.24
-0.75
-1.06
-1.21
-1.21
-1.12
-1.00
-0.94
-1.04
-1.33
-1.75
-2.13
-2.32
-2.26
-2.04
-1.87
-2.01
-2.64
-3.74
-5.11
-6.44
-7.44
-7.97
-8.06
-7.85
-7.48
-7.04
-6.54
-5.96
-5.30
-4.66
-4.16
-3.93
-3.98
-4.23
-4.50
-4.62
-4.50
-4.20
-3.84
-3.58
-3.48
-3.53
-3.59
-3.54
-3.31
-2.92
-2.41
-1.80
-1.06
-0.09
1.17
2.72
4.43
6.11
7.60
8.76
9.52
9.89
9.87
9.51
8.85
7.96
6.89
5.73
4.53
3.35
2.26
1.32
0.57
0.05
-0.26
-0.44
-0.56
-0.68
-0.80
-0.89
-0.88
-0.76
-0.60
-0.51
-0.58
-0.83
-1.19
-1.50
-1.64
-1.56
-1.35
-1.15
-1.08
-1.20
-1.44
-1.67
-1.75
-1.63
-1.36
-1.02
-0.71
-0.49
-0.38
-0.35
-0.39
-0.48
-0.62
-0.77
-0.90
-0.93
-0.86
-0.69
-0.51
-0.41
-0.47
-0.69
-1.02
-1.35
-1.57
-1.60
-1.36
-0.87
-0.20
0.57
1.31
1.93
2.35
2.58
2.64
2.61
2.56
2.55
2.62
2.77
2.97
3.16
3.23
3.13
2.87
2.54
2.30
2.31
2.63
3.23
3.94
4.56
4.89
4.84
4.47
3.94
3.44
3.10
2.96
2.97
3.05
3.12
3.14
3.08
2.94
2.70
2.35
1.91
1.43
0.97
0.65
0.49
0.52
0.70
0.99
1.32
1.62
1.80
1.80
1.61
1.33
1.14
1.23
1.71
2.58
3.73
4.98
6.16
7.13
7.73
7.78
7.10
5.58
3.28
0.45
-2.53
-5.27
-7.49
-9.05
-9.94
-10.23
-10.01
-9.39
-8.57
-7.72
-7.04
-6.63
-6.47
-6.43
-6.39
-6.24
-5.98
-5.66
-5.35
-5.14
-5.06
-5.12
-5.31
-5.57
-5.78
-5.81
-5.54
-4.93
-4.07
-3.13
-2.30
-1.68
-1.29
-1.05
-0.83
-0.55
-0.14
0.43
1.18
2.10
3.11
4.09
4.85
5.25
5.25
4.92
4.41
3.86
3.37
2.96
2.63
2.33
2.05
1.75
1.37
0.90
0.36
-0.18
-0.60
-0.78
-0.72
-0.49
-0.27
-0.20
-0.37
-0.72
-1.15
-1.54
-1.81
-1.98
-2.07
-2.10
-2.07
-1.94
-1.70
-1.43
-1.26
-1.31
-1.67
-2.32
-3.14
-3.93
-4.53
-4.85
-4.96
-5.03
-5.22
-5.58
-6.04
-6.41
-6.45
-6.07
-5.26
-4.19
-3.06
-2.04
-1.18
-0.48
0.14
0.74
1.35
1.97
2.56
3.10
3.57
3.95
4.25
4.46
4.55
4.52
4.34
4.05
3.67
3.27
2.90
2.60
2.39
2.25
2.11
1.90
1.59
1.21
0.85
0.61
0.53
0.57
0.62
0.55
0.30
-0.06
-0.40
-0.57
-0.49
-0.23
0.07
0.27
0.28
0.12
-0.12
-0.32
-0.40
-0.34
-0.17
0.05
0.29
0.50
0.64
0.68
0.57
0.29
-0.13
-0.59
-0.94
-1.06
-0.90
-0.49
0.06
0.59
0.99
1.18
1.17
1.01
0.76
0.45
0.14
-0.14
-0.35
-0.42
-0.36
-0.17
0.04
0.22
0.28
0.23
0.12
0.03
0.04
0.16
0.33
0.48
0.53
0.46
0.29
0.11
-0.02
-0.07
-0.07
-0.06
-0.06
-0.06
-0.03
0.03
0.09
0.10
0.01
-0.14
-0.29
-0.37
-0.38
-0.40
-0.51
-0.76
-1.07
-1.30
-1.33
-1.11
-0.69
-0.20
0.22
0.50
0.62
0.63
0.56
0.45
0.29
0.09
-0.09
-0.17
-0.09
0.17
0.55
0.92
1.13
1.09
0.79
0.35
-0.09
-0.38
-0.45
-0.34
-0.13
0.10
0.31
0.50
0.67
0.85
0.99
1.04
0.98
0.81
0.56
0.30
0.08
-0.08
-0.21
-0.33
-0.46
-0.58
-0.65
-0.63
-0.50
-0.30
-0.08
0.06
0.08
-0.03
-0.24
-0.47
-0.65
-0.70
-0.63
-0.46
-0.29
-0.18
-0.16
-0.21
-0.27
-0.29
-0.23
-0.10
0.08
0.27
0.43
0.54
0.57
0.50
0.34
0.16
0.02
0.00
0.15
0.41
0.73
1.02
1.21
1.28
1.27
1.18
1.02
0.79
0.47
0.09
-0.25
-0.47
-0.53
-0.43
-0.27
-0.16
-0.16
-0.30
-0.51
-0.70
-0.79
-0.73
-0.52
-0.25
-0.02
0.09
0.03
-0.18
-0.44
-0.69
-0.86
-0.93
-0.92
-0.85
-0.73
-0.57
-0.38
-0.17
0.01
0.14
0.19
0.15
0.04
-0.14
-0.34
-0.52
-0.59
-0.52
-0.29
0.05
0.42
0.68
0.75
0.61
0.30
-0.07
-0.40
-0.60
-0.67
-0.66
-0.61
-0.54
-0.39
-0.09
0.33
0.78
1.07
1.04
0.65
0.02
-0.62
-1.05
-1.14
-0.94
-0.58
-0.20
0.10
0.29
0.40
0.46
0.44
0.32
0.09
-0.22
-0.50
-0.65
-0.61
-0.40
-0.12
0.13
0.30
0.41
0.56
0.80
1.10
1.37
1.43
1.19
0.64
-0.05
-0.66
-0.97
-0.85
-0.35
0.35
1.02
1.43
1.46
1.10
0.46
-0.23
-0.76
-0.98
-0.84
-0.45
0.04
0.41
0.55
0.44
0.14
-0.19
-0.43
-0.55
-0.57
-0.54
-0.51
-0.50
-0.45
-0.33
-0.11
0.14
0.32
0.34
0.18
-0.10
-0.37
-0.52
-0.49
-0.32
-0.10
0.08
0.18
0.21
0.20
0.22
0.31
0.49
0.72
0.95
1.09
1.09
0.93
0.69
0.45
0.30
0.27
0.36
0.52
0.72
0.90
1.02
1.06
0.97
0.79
0.57
0.40
0.36
0.44
0.57
0.64
0.56
0.33
0.03
-0.22
-0.34
-0.32
-0.23
-0.15
-0.14
-0.17
-0.20
-0.18
-0.14
-0.13
-0.19
-0.33
-0.45
-0.46
-0.29
0.04
0.43
0.72
0.80
0.63
0.27
-0.18
-0.61
-0.94
-1.13
-1.17
-1.08
-0.88
-0.59
-0.26
0.02
0.19
0.17
-0.03
-0.34
-0.59
-0.68
-0.56
-0.33
-0.14
-0.13
-0.35
-0.70
-1.01
-1.16
-1.10
-0.92
-0.70
-0.53
-0.39
-0.25
-0.09
0.08
0.19
0.22
0.22
0.25
0.39
0.61
0.82
0.88
0.75
0.47
0.16
-0.00
0.03
0.24
0.50
0.65
0.60
0.36
0.02
