1589306182.00
64.000000
-0.00
-0.00
-0.00
-0.00
-0.00
-0.00
-0.00
-0.00
-0.00
-0.00
0.00
0.01
0.01
-0.00
-0.03
-0.05
-0.05
0.00
0.13
0.36
0.66
1.01
1.37
1.72
2.06
2.40
2.79
3.24
3.80
4.43
5.09
5.73
6.32
6.89
7.48
8.17
9.02
10.12
11.40
12.73
14.00
15.15
16.22
17.38
18.82
20.69
23.21
26.19
29.35
32.39
35.17
37.75
40.45
43.73
47.90
53.36
59.79
66.70
73.51
79.90
85.96
92.18
99.31
107.87
118.43
130.48
143.21
155.69
167.32
178.16
188.85
200.80
212.79
227.11
244.36
264.60
286.52
307.12
322.03
326.65
317.69
294.35
259.08
215.75
168.60
120.71
73.46
27.04
-18.61
-63.13
-105.64
-145.07
-181.24
-214.76
-246.76
-278.15
-309.09
-338.83
-366.01
-389.44
-408.45
-423.18
-434.29
-442.79
-449.24
-453.23
-453.31
-447.38
-433.54
-410.67
-378.83
-339.34
-294.15
-244.98
-192.65
-137.10
-77.93
-15.52
47.14
106.22
157.25
196.16
220.17
228.22
220.58
198.72
165.31
124.71
82.88
45.82
17.54
-1.70
-15.57
-30.20
-50.73
-79.50
-115.08
-153.23
-189.26
-219.92
-243.87
-260.55
-269.43
-269.47
-260.08
-241.30
-215.20
-185.66
-157.43
-136.99
-129.42
-137.54
-160.82
-194.21
-229.73
-258.46
-273.46
-271.92
-255.24
-226.81
-189.52
-144.39
-91.40
-31.94
29.22
84.45
126.08
150.27
159.65
162.05
167.07
181.77
208.03
242.70
279.81
313.86
341.62
362.38
376.70
385.05
387.14
382.16
369.60
349.94
324.84
296.74
268.11
240.65
215.05
191.06
167.93
145.06
122.41
100.58
80.48
62.95
48.34
36.37
26.35
17.43
9.02
0.94
-6.59
-13.15
-18.43
-22.35
-25.13
-27.18
-28.89
-30.49
-32.02
-33.33
-34.22
-34.57
-34.37
-33.75
-32.87
-31.88
-30.87
-29.86
-28.85
-27.79
-26.68
-25.50
-24.28
-23.03
-21.78
-20.51
-19.26
-18.03
-16.83
-15.68
-14.49
-13.33
-12.22
-11.17
-10.20
-9.30
-8.45
-7.68
-6.96
-6.28
-5.67
-5.10
-4.57
-4.07
-3.59
-3.13
-2.68
-2.24
-1.80
-1.37
-0.94
-0.50
-0.04
0.44
0.94
1.47
2.03
2.62
3.25
3.91
4.62
5.37
6.16
6.97
7.80
8.65
9.54
10.50
11.55
12.69
13.88
15.08
16.24
17.40
18.59
19.90
21.40
23.10
24.90
26.56
27.85
28.53
28.52
27.86
26.65
24.96
22.70
19.71
15.72
10.56
4.26
-2.82
-10.06
-16.65
-22.00
-25.90
-28.60
-30.77
-33.11
-35.98
-39.24
-42.12
-43.67
-43.19
-40.75
-37.25
-34.17
-32.89
-33.92
-36.52
-38.89
-38.96
-35.49
-29.09
-21.99
-17.37
-17.95
-24.15
-34.17
-44.33
-51.05
-52.57
-49.93
-46.23
-44.66
-46.08
-48.97
-50.38
-47.89
-41.19
-31.75
-21.30
-10.24
2.86
19.18
37.37
52.49
58.25
50.74
31.78
9.06
-6.93
-8.95
2.82
20.41
32.24
30.38
14.98
-6.05
-21.04
-21.59
-6.90
15.74
35.41
41.19
28.94
3.86
-21.46
-34.32
-29.00
-10.18
9.70
17.85
8.77
-12.06
-30.91
-34.25
-16.93
13.98
42.80
53.95
40.96
10.17
-21.84
-37.84
-29.50
-2.14
28.25
44.43
37.75
12.89
-14.50
-26.95
-15.15
16.13
50.56
69.25
61.40
30.12
-8.98
-37.04
-42.38
-27.01
-4.83
7.13
-0.74
-24.89
-50.21
-59.48
-43.79
-8.42
30.14
53.71
52.80
31.60
5.53
-8.59
-2.29
19.84
43.25
52.63
41.04
13.94
-13.72
-26.51
-17.36
8.27
35.87
50.45
45.10
24.43
1.83
-9.18
-2.97
14.62
30.01
30.22
11.01
-20.16
-47.54
-56.12
-40.15
-6.81
27.66
47.11
44.17
23.86
0.72
-10.13
-1.55
21.77
46.61
59.30
53.28
32.27
7.64
-8.78
-11.45
-3.78
4.85
5.41
-5.14
-22.18
-35.93
-37.80
-25.66
-5.94
9.67
10.74
-5.90
-33.76
-59.26
-68.96
-56.71
-27.28
6.30
30.03
36.17
26.79
12.14
3.57
6.69
17.76
26.42
22.64
3.23
-25.31
-49.58
-56.89
-42.52
-12.92
17.66
35.13
33.09
16.19
-2.53
-9.84
-0.03
21.26
40.53
44.62
28.52
-1.21
-29.55
-41.63
-30.98
-3.32
26.99
45.20
44.08
27.47
7.64
-2.72
1.99
16.71
29.09
27.27
7.19
-24.36
-52.77
-63.88
-51.77
-22.36
10.07
30.91
32.74
18.97
1.23
-8.20
-3.68
10.26
21.97
20.21
1.12
-28.61
-54.67
-63.14
-48.24
-15.99
19.07
41.92
44.82
31.24
13.26
3.88
9.27
24.94
38.77
38.90
21.08
-8.17
-34.53
-44.25
-31.88
-3.70
25.90
42.71
40.24
23.12
3.88
-4.98
1.43
17.36
29.96
27.53
6.63
-25.15
-52.83
-62.57
-49.41
-20.40
9.43
25.56
21.64
3.01
-16.88
-24.65
-15.00
5.99
24.54
27.66
11.02
-18.05
-44.16
-52.82
-38.70
-9.07
20.48
35.04
28.64
7.63
-13.29
-20.09
-7.76
16.37
36.99
40.05
20.98
-12.07
-42.41
-54.21
-41.18
-10.10
23.36
43.64
43.55
27.77
9.26
0.85
7.35
22.49
32.92
26.71
0.96
-35.43
-66.01
-75.87
-60.06
-26.88
6.57
23.91
18.36
-3.50
-25.69
-32.52
-17.86
10.79
36.67
43.70
25.85
-8.69
-41.90
-55.98
-43.37
-10.95
24.25
45.00
43.45
25.06
4.60
-3.52
5.84
25.18
39.16
34.20
7.21
-31.52
-63.61
-72.75
-53.98
-16.95
19.47
37.68
31.02
7.17
-16.82
-25.09
-12.45
12.27
31.81
31.16
6.82
-30.25
-60.68
-67.63
-46.58
-7.93
29.05
47.34
41.44
20.03
0.31
-2.75
14.71
42.79
63.80
62.80
36.36
-4.45
-40.16
-53.40
-38.51
-4.55
30.20
48.82
44.82
25.28
5.80
0.49
13.43
36.12
52.82
50.21
25.29
-12.30
-45.78
-60.58
-52.49
-29.99
-9.04
-3.55
-17.46
-42.09
-61.29
-61.07
-38.01
-2.06
28.94
39.37
24.59
-6.00
-34.50
-44.87
-32.05
-4.99
19.09
25.34
9.94
-17.34
-38.94
-40.20
-18.16
16.14
43.86
49.25
28.42
-7.78
-40.08
-51.48
-36.63
-4.62
26.89
42.09
35.78
15.94
-1.79
-4.11
11.82
36.23
52.66
47.83
19.76
-20.03
-52.69
-62.23
-44.48
-9.71
23.20
37.34
27.04
0.89
-23.77
-31.41
-17.40
9.05
30.87
33.56
13.81
-17.94
-43.85
-48.98
-30.14
1.96
29.01
35.73
18.56
-12.05
-37.73
-42.89
-23.56
9.88
38.92
47.48
31.15
0.00
-27.49
-35.16
-18.72
11.68
37.53
43.04
24.32
-8.17
-35.94
-43.55
-27.53
1.34
24.86
28.22
8.81
-21.65
-44.18
-43.48
-17.09
22.69
55.63
65.07
47.09
13.03
-17.23
-26.66
-10.53
20.80
48.45
56.01
38.83
6.93
-21.44
-30.42
-15.90
12.07
35.51
39.21
19.52
-13.16
-40.57
-47.33
-29.64
2.11
29.64
37.25
20.63
-10.32
-37.74
-46.13
-31.60
-4.30
17.57
18.74
-4.12
-39.78
-68.81
-74.89
-54.02
-17.19
16.42
30.57
21.04
-1.87
-20.14
-18.95
4.35
38.30
64.13
66.93
44.11
7.54
-23.49
-33.17
-17.92
11.53
36.83
42.63
25.24
-5.05
-30.45
-36.07
-18.80
10.69
34.24
36.92
15.60
-18.63
-47.05
-53.98
-35.67
-2.77
26.22
35.58
21.19
-6.93
-31.03
-36.17
-19.23
8.96
30.02
29.06
3.54
-34.43
-64.89
-71.43
-50.33
-12.98
21.00
35.01
24.64
0.14
-20.36
-21.74
-1.01
30.58
54.29
55.10
30.54
-7.01
-37.39
-43.96
-22.90
14.48
48.56
62.53
51.60
25.58
2.27
-3.26
12.24
38.19
56.68
53.52
26.60
-11.97
-42.94
-50.83
-32.74
-0.28
27.33
34.15
16.36
-15.37
-42.56
-49.64
-33.04
-3.50
20.33
23.04
1.30
-33.41
-61.56
-66.71
-44.86
-7.06
27.33
41.57
30.93
5.33
-17.20
-21.31
-3.50
25.63
47.87
48.42
24.55
-12.02
-42.00
-49.40
-30.63
3.33
33.56
44.07
30.76
3.80
-18.98
-22.85
-5.17
22.65
41.98
38.19
9.42
-31.38
-63.72
-71.09
-50.14
-12.84
20.74
33.76
21.86
-4.47
-26.83
-29.89
-10.64
19.63
42.14
41.85
16.46
-21.41
-51.47
-57.15
-34.96
3.26
37.49
50.96
39.47
13.71
-7.73
-9.67
10.44
40.67
61.76
58.77
29.93
-11.43
-44.50
-52.73
-32.99
2.52
33.67
43.90
29.38
0.99
-22.74
-26.85
-8.89
19.34
38.89
35.08
6.09
-35.05
-68.14
-77.07
-58.76
-24.90
5.54
17.27
7.34
-13.39
-27.57
-22.06
3.71
36.91
58.71
55.52
26.91
-13.22
-44.53
-51.56
-32.09
1.53
30.02
38.17
23.41
-2.83
-22.43
-21.42
1.32
33.15
54.90
52.34
24.35
-15.55
-47.09
-54.60
-35.64
-2.46
25.71
33.67
18.89
-7.22
-26.66
-25.77
-3.65
26.98
47.21
43.29
14.56
-25.26
-56.15
-63.04
-44.02
-11.46
15.92
23.88
10.77
-11.61
-25.74
-19.11
7.85
41.41
62.38
57.36
26.48
-15.78
-48.78
-57.04
-38.52
-5.66
22.48
31.12
18.03
-5.47
-21.88
-18.30
5.48
36.54
56.38
51.96
23.28
-15.85
-45.98
-52.87
-35.31
-5.68
17.83
21.79
5.19
-20.08
-36.74
-32.63
-8.22
23.31
43.82
40.98
15.32
-19.30
-44.10
-45.99
-24.94
5.97
28.68
30.72
12.27
-13.80
-29.93
-24.34
1.61
33.77
53.19
46.99
15.73
-26.11
-58.42
-66.47
-48.82
-17.86
7.95
14.90
1.63
-20.23
-33.73
-27.11
-1.30
30.53
50.97
48.77
25.36
-5.74
-27.45
-29.22
-13.02
8.00
17.94
8.02
-18.12
-45.85
-58.25
-46.00
-13.17
24.74
49.58
50.51
29.80
1.52
-17.16
-15.76
3.65
28.01
41.47
35.09
12.01
-13.97
-26.74
-17.37
10.31
41.92
60.90
57.91
35.82
7.99
-10.25
-10.60
3.52
19.34
22.98
8.08
-20.15
-47.31
-58.30
-45.92
-15.37
18.68
40.34
41.09
23.88
1.08
-13.58
-13.15
-1.46
9.43
7.09
-13.06
-44.33
-71.45
-79.16
-60.91
-23.26
17.54
44.26
47.73
31.24
8.18
-6.58
-5.41
7.80
20.50
19.95
1.26
-29.11
-56.25
-65.57
-51.03
-18.95
15.62
37.35
38.86
23.85
4.42
-6.83
-4.00
8.82
20.53
20.29
4.25
-21.52
-44.46
-53.06
-43.34
-21.39
0.25
9.91
3.22
-14.62
-31.43
-36.73
-28.32
-13.93
-6.58
-16.50
-44.61
-81.01
-109.22
-113.99
-89.83
-43.92
8.00
49.87
72.16
74.77
65.17
49.01
32.68
20.54
12.66
5.74
-2.97
-12.90
-20.57
-22.85
-19.36
-12.36
-6.28
-5.57
-12.79
-27.29
-45.09
-60.13
-65.85
-57.26
-32.55
4.95
47.47
85.83
113.04
126.67
128.88
124.20
117.08
110.35
104.53
99.15
94.56
92.40
94.67
101.20
108.34
109.82
99.49
74.12
36.10
-6.76
-43.91
-66.48
-71.22
-61.71
-46.36
-33.85
-29.24
-32.17
-38.26
-42.76
-43.58
-42.29
-42.07
-44.45
-47.36
-46.53
-38.37
-22.94
-4.29
12.28
23.38
29.69
34.28
39.42
44.40
46.10
41.58
31.43
20.20
13.72
15.11
21.60
25.83
20.21
2.11
-23.85
-48.38
-62.36
-61.88
-50.46
-36.04
-25.87
-22.62
-22.78
-20.60
-13.07
-2.46
4.22
-0.81
-20.80
-52.08
-84.88
-107.83
-112.90
-98.79
-70.86
-38.21
-10.18
8.08
16.08
17.13
15.89
15.97
17.96
20.29
20.71
18.09
13.65
9.73
8.31
10.20
14.39
18.82
21.44
21.38
19.02
15.81
13.28
12.49
13.69
16.31
19.32
21.84
23.38
23.90
23.76
23.35
23.10
23.40
24.58
26.75
29.82
33.40
36.83
39.49
41.05
41.60
41.71
42.12
43.41
45.95
50.06
56.04
63.74
71.83
77.40
76.50
65.61
43.59
12.87
-21.03
-51.50
-73.41
-84.89
-87.43
-84.48
-79.54
-74.89
-71.44
-69.35
-68.65
-69.40
-71.43
-74.14
-76.39
-77.26
-76.39
-74.19
-71.89
-71.31
-74.20
-81.43
-91.92
-102.04
-106.37
-99.58
-79.09
-46.79
-8.88
26.43
52.34
66.01
69.06
65.96
61.25
57.49
54.85
52.19
48.65
44.52
41.00
39.26
39.48
40.79
41.80
41.17
38.53
34.51
30.37
27.36
26.19
26.67
27.92
28.82
28.51
26.83
24.24
21.64
19.83
19.22
19.68
20.65
21.45
21.58
20.96
19.82
18.64
17.82
17.59
17.89
18.47
19.05
19.39
19.45
19.33
19.20
19.20
19.40
19.78
20.26
20.75
21.18
21.51
21.72
21.80
21.74
21.52
21.14
20.61
19.97
19.21
18.28
17.10
15.56
13.55
11.02
7.94
4.34
0.28
-4.24
-9.26
-14.92
-21.37
-28.75
-37.13
-46.52
-56.80
-67.87
-79.67
-92.31
-106.06
-121.24
-138.14
-156.83
-177.01
-198.06
-219.04
-239.00
-257.15
-272.89
-285.66
-294.72
-298.92
-296.66
-286.49
-266.89
-237.22
-198.16
-151.86
-101.50
-50.51
-1.72
43.27
84.14
121.38
155.53
186.45
213.12
234.19
248.53
255.97
257.74
256.15
254.06
254.43
259.73
271.38
288.77
308.49
324.25
328.21
313.77
278.53
226.05
164.95
105.57
56.18
20.09
-4.30
-21.13
-34.12
-44.75
-52.39
-55.62
-53.67
-46.83
-36.17
-23.08
-9.20
3.35
12.20
15.19
11.19
0.74
-14.21
-31.22
-48.18
-63.68
-76.64
-85.80
-89.69
-87.12
-78.02
-63.82
-46.98
-29.97
-14.22
-0.00
13.42
26.68
39.69
51.56
61.07
67.14
69.21
67.31
61.97
54.07
44.74
35.44
27.79
23.34
23.17
27.74
36.84
49.71
65.32
82.54
100.15
116.95
131.71
143.24
150.41
152.25
147.95
137.00
119.31
95.35
66.19
33.47
-1.04
-35.72
-69.56
-102.54
-135.33
-168.93
-204.09
-240.88
-278.61
-316.12
-352.47
-387.29
-421.28
-455.70
-491.97
-531.29
-574.33
-621.06
-670.27
-718.94
-762.06
-793.34
-806.66
-798.11
-767.51
-718.18
-655.15
-582.56
-501.69
-409.83
-303.57
-181.03
-43.62
103.76
254.11
400.10
535.59
655.86
757.23
836.52
