1594043080.00
64.000000
-0.00
-0.00
-0.00
-0.00
-0.00
-0.00
-0.00
-0.00
-0.00
-0.00
0.00
0.01
0.01
-0.00
-0.03
-0.05
-0.05
0.00
0.13
0.36
0.66
1.01
1.37
1.72
2.06
2.40
2.79
3.24
3.80
4.42
5.06
5.66
6.20
6.68
7.15
7.68
8.31
9.14
10.09
11.04
11.88
12.56
13.14
13.76
14.65
15.96
17.91
20.32
22.90
25.38
27.58
29.57
31.68
34.32
37.81
42.54
48.15
54.10
59.83
64.97
69.58
74.14
79.34
85.71
93.76
103.00
112.62
121.73
129.76
136.74
143.30
150.75
157.79
166.68
177.99
191.81
206.93
220.43
227.99
224.99
208.09
176.42
132.36
79.71
22.79
-35.21
-92.74
-149.54
-205.69
-260.89
-314.26
-364.36
-410.28
-451.37
-487.07
-516.53
-538.30
-550.57
-551.49
-539.92
-515.65
-479.99
-435.20
-384.02
-329.13
-272.67
-216.15
-160.60
-106.92
-56.05
-9.20
32.40
67.82
96.73
119.46
136.94
150.31
160.55
168.21
173.27
175.44
174.48
170.50
164.10
156.27
148.03
140.18
132.99
126.26
119.49
112.08
103.46
93.17
81.28
68.63
57.10
49.23
47.37
52.55
63.62
77.25
88.89
94.50
91.98
81.81
66.56
49.26
32.31
17.06
4.18
-5.71
-11.82
-13.56
-11.17
-5.99
-0.03
5.09
8.85
12.11
16.19
21.83
28.52
34.75
38.92
40.17
38.72
35.45
31.19
26.50
21.71
17.34
14.25
13.39
15.13
19.01
23.66
27.35
28.52
26.37
21.00
13.31
4.78
-2.88
-8.07
-9.84
-8.22
-4.42
-0.48
1.54
0.38
-3.73
-9.27
-14.12
-16.60
-16.10
-13.09
-8.55
-3.33
2.00
6.86
10.34
11.06
7.87
0.70
-8.96
-18.58
-25.77
-29.58
-30.80
-31.33
-32.75
-35.15
-37.15
-36.61
-31.90
-22.79
-10.52
2.79
15.07
24.85
31.38
34.59
34.73
32.21
27.33
20.45
12.28
4.32
-1.15
-1.55
5.20
19.18
38.02
57.01
70.52
73.95
65.69
47.82
25.31
4.00
-11.69
-20.22
-22.86
-22.32
-21.19
-20.83
-21.14
-21.14
-19.92
-17.21
-13.44
-9.55
-6.47
-4.99
-5.59
-8.43
-13.33
-19.92
-27.71
-35.91
-43.63
-49.46
-51.48
-47.89
-37.92
-22.51
-4.34
12.96
26.02
31.87
28.96
17.53
-0.15
-19.75
-35.20
-40.04
-29.70
-3.75
32.37
69.12
96.12
105.88
96.19
70.17
34.30
-5.41
-40.99
-67.73
-83.68
-88.36
-81.95
-65.66
-42.41
-16.93
5.45
20.61
26.57
24.45
17.67
10.16
4.82
2.70
2.73
3.30
3.25
2.05
0.38
-0.09
2.36
8.11
15.69
21.59
21.96
14.81
1.16
-14.90
-27.93
-33.86
-31.89
-24.33
-15.45
-9.27
-7.54
-9.68
-13.65
-17.28
-19.21
-18.81
-15.44
-7.70
5.47
24.52
48.72
75.05
98.74
115.04
120.93
116.12
102.62
83.52
62.18
41.46
23.66
10.63
3.60
2.41
5.76
10.80
13.70
11.48
3.55
-8.00
-19.53
-27.64
-30.91
-30.10
-27.47
-25.33
-24.94
-26.12
-27.56
-28.05
-26.97
-25.73
-27.47
-36.10
-54.09
-80.44
-110.09
-135.34
-149.52
-149.30
-136.92
-118.26
-99.69
-84.92
-74.27
-66.14
-59.22
-54.47
-50.15
-46.24
-42.78
-38.93
-32.44
-20.83
-4.76
15.58
38.29
62.45
86.59
110.00
130.67
147.60
161.50
173.77
185.34
189.27
180.57
156.61
119.30
74.09
27.38
-14.90
-49.40
-75.64
-97.26
-113.67
-121.79
-117.64
-98.48
-64.79
-19.78
30.56
77.84
109.35
118.41
106.58
81.97
57.54
37.90
24.19
15.18
7.91
-0.58
-10.30
-20.35
-30.73
-43.09
-60.39
-83.54
-107.38
-123.33
-124.51
-110.28
-87.07
-63.89
-47.03
-38.10
-34.56
-31.52
-26.82
-21.76
-18.98
-20.34
-25.32
-30.88
-32.77
-27.57
-14.73
2.17
17.24
25.82
26.99
23.43
20.52
20.76
23.95
28.56
33.22
37.52
42.38
49.69
59.34
70.89
82.64
92.45
95.42
90.15
78.97
65.81
53.23
41.58
30.68
22.51
16.68
13.17
12.20
13.38
15.87
19.04
21.68
22.46
20.97
16.79
9.84
0.53
-10.45
-22.00
-32.95
-42.45
-49.92
-55.11
-58.24
-59.18
-57.38
-52.62
-45.49
-37.30
-29.53
-23.06
-18.16
-15.34
-14.61
-16.06
-19.74
-25.27
-31.60
-36.94
-39.29
-37.42
-31.77
-24.05
-16.39
-10.17
-5.48
-1.35
3.66
10.45
18.89
27.91
35.31
39.16
39.11
36.71
34.19
33.17
33.59
33.99
32.47
27.94
20.89
13.07
6.90
3.18
1.85
1.95
2.10
1.02
-1.87
-6.14
-10.80
-14.95
-18.33
-20.87
-22.90
-24.73
-26.96
-29.96
-33.40
-36.35
-37.75
-36.95
-33.37
-27.18
-19.61
-12.70
-8.27
-6.99
-8.32
-11.05
-13.81
-14.62
-11.54
-3.36
10.06
28.00
48.98
70.54
89.31
97.82
90.44
68.24
39.17
12.54
-6.06
-15.59
-18.07
-16.56
-13.52
-9.51
-4.15
2.54
9.63
15.19
17.78
17.00
13.54
8.74
4.48
2.21
2.09
3.07
3.68
2.96
0.78
-2.71
-6.93
-11.00
-14.05
-15.65
-15.95
-15.37
-14.25
-12.60
-10.24
-6.48
-0.29
9.09
21.50
35.58
49.19
60.23
67.38
70.09
69.06
65.81
61.82
57.83
53.80
49.28
43.98
38.12
31.76
25.65
20.87
17.94
16.15
13.70
8.58
-0.64
-13.97
-31.18
-50.37
-68.62
-83.56
-94.48
-102.27
-108.53
-114.66
-121.32
-129.85
-139.93
-149.40
-155.29
-155.17
-147.76
-133.32
-113.97
-85.13
-50.75
-19.96
0.07
9.18
12.16
13.99
17.13
19.93
21.62
20.91
18.71
17.88
21.10
29.19
40.99
54.75
68.29
79.63
85.53
84.38
77.06
66.08
53.98
42.68
33.39
26.59
22.33
19.46
17.18
15.60
14.90
14.82
14.56
13.28
10.36
5.85
-0.03
-6.44
-12.26
-16.59
-19.17
-20.34
-20.66
-20.65
-20.57
-20.57
-20.48
-19.88
-18.41
-15.99
-12.78
-9.15
-5.52
-2.17
0.90
3.94
7.36
11.33
15.70
19.99
23.63
26.24
27.78
28.58
29.21
30.18
31.69
33.53
35.10
35.59
34.21
30.39
24.06
15.72
6.33
-2.89
-10.84
-16.90
-20.96
-23.31
-24.39
-24.58
-24.11
-23.23
-22.25
-21.65
-21.92
-23.37
-25.92
-29.04
-31.93
-33.72
-33.82
-32.04
-28.66
-24.24
-19.38
-14.55
-9.97
-5.62
-1.44
2.58
6.33
9.57
12.10
13.84
14.81
15.13
14.92
14.28
13.38
12.42
11.72
11.59
12.22
13.56
15.19
16.45
16.63
15.27
12.48
8.91
5.56
3.32
2.61
3.15
4.01
4.09
2.48
-1.03
-5.83
-10.70
-14.21
-15.41
-14.31
-12.12
-10.98
-13.32
-20.99
-34.48
-52.60
-72.68
-91.28
-104.85
-110.49
-106.34
-91.85
-67.78
-36.13
0.09
37.27
71.76
100.45
121.28
133.54
137.87
135.83
129.41
120.43
110.20
99.44
88.43
77.33
66.29
55.59
45.50
36.17
27.62
19.77
12.59
6.11
0.34
-4.75
-9.32
-13.57
-17.64
-21.54
-25.20
-28.60
-31.84
-35.18
-38.88
-42.98
-47.16
-50.69
-52.64
-52.27
-49.28
-43.97
-37.14
-29.85
-23.02
-17.18
-12.24
-7.51
-1.93
5.58
15.75
28.62
43.51
59.09
73.65
85.52
93.20
95.56
91.93
82.31
67.56
49.55
30.69
13.58
0.20
-8.64
-13.49
-15.81
-17.18
-18.49
-19.71
-20.40
-20.20
-19.19
-18.05
-17.75
-19.06
-22.04
-26.06
-30.02
-33.38
-36.03
-38.10
-39.68
-40.63
-40.71
-39.62
-37.23
-33.64
-29.84
-26.99
-25.88
-26.73
-29.34
-33.36
-38.40
-44.21
-47.72
-46.86
-41.44
-33.22
-24.25
-15.67
-7.77
-0.53
5.22
9.91
13.22
14.78
14.59
13.12
11.00
8.69
6.72
5.30
4.56
4.05
3.32
2.19
0.83
-0.54
-1.75
-2.76
-3.64
-4.34
-5.17
-6.32
-7.77
-9.26
-10.42
-10.94
-10.65
-9.53
-7.60
-5.17
-2.54
0.06
2.49
4.65
6.48
7.90
8.87
9.41
9.55
9.34
8.87
8.23
7.53
6.83
6.20
5.69
5.35
5.19
5.14
5.11
4.99
4.75
4.45
4.17
3.98
3.90
3.82
3.56
2.97
1.97
0.65
-0.77
-2.04
-3.00
-3.64
-4.18
-4.88
-5.97
-7.48
-9.19
-10.73
-11.70
-11.82
-11.03
-9.47
-7.35
-4.93
-2.32
0.36
3.03
5.54
7.72
9.37
10.45
11.02
11.25
11.32
11.35
11.31
11.13
10.73
10.12
9.39
8.66
8.03
7.51
7.03
6.46
5.72
4.80
3.79
2.78
1.84
0.94
-0.05
-1.26
-2.76
-4.48
-6.24
-7.78
-8.97
-9.82
-10.50
-11.28
-12.33
-13.61
-14.85
-15.61
-15.49
-14.27
-11.98
-8.92
-5.49
-2.03
1.26
4.31
7.13
9.70
11.88
13.52
14.50
14.83
14.63
14.17
13.71
13.40
13.26
13.20
13.12
12.98
12.81
12.75
12.88
13.22
13.66
14.04
14.20
14.11
13.80
13.39
12.96
12.56
12.18
11.78
11.39
11.06
10.89
10.89
10.94
10.82
10.24
9.03
7.22
5.11
3.15
1.88
1.61
2.38
3.87
5.52
6.71
7.03
6.35
4.76
2.41
-0.70
-4.71
-9.90
-16.39
-24.02
-32.26
-40.26
-47.02
-51.66
-53.52
-52.36
-48.26
-41.57
-32.85
-22.81
-12.38
-2.57
5.68
11.77
15.65
17.86
19.34
21.01
23.32
26.02
28.31
29.35
28.69
26.55
23.70
21.29
20.32
21.24
23.72
26.82
29.39
30.41
29.33
26.17
21.66
16.88
12.57
8.77
4.92
0.28
-5.52
-12.27
-19.22
-25.13
-29.11
-31.34
-33.29
-36.86
-43.17
-51.71
-60.41
-66.19
-65.64
-56.33
-38.07
-13.21
14.15
39.49
58.69
68.70
65.75
48.49
21.09
-6.97
-25.91
-31.19
-24.92
-13.91
-5.92
-6.15
-14.91
-27.98
-39.04
-42.75
-36.56
-21.07
0.20
21.51
36.13
39.33
29.81
10.08
-13.75
-33.55
-42.02
-35.69
-16.05
11.94
40.09
62.53
77.13
84.10
83.75
75.49
58.50
33.70
4.83
-22.12
-40.98
-48.59
-46.20
-38.36
-30.25
-25.76
-25.10
-26.29
-26.69
-24.21
-18.49
-10.87
-3.47
1.88
4.46
4.74
3.60
1.69
-0.70
-3.54
-6.53
-8.86
-9.44
-7.80
-4.23
-0.02
3.17
4.28
3.34
1.30
-0.57
-1.47
-1.49
-1.31
-1.67
-2.76
-4.03
-4.47
-3.12
0.47
6.07
12.81
19.25
24.20
27.06
27.74
26.44
23.34
18.57
12.43
5.65
-0.55
-5.01
-6.84
-5.98
-3.44
-0.86
0.22
-0.95
-4.08
-8.31
-12.52
-15.91
-18.18
-19.36
-19.53
-18.74
-17.11
-14.51
-11.66
-9.70
-9.76
-12.47
-17.56
-23.80
-29.42
-32.80
-33.04
-30.40
-25.90
-20.80
-16.13
-12.29
-9.19
-6.43
-3.61
-0.48
2.92
6.48
10.04
13.32
15.97
17.60
17.88
16.71
14.24
10.76
6.69
2.46
-1.54
-4.90
-7.25
-8.34
-8.14
-6.97
-5.43
-4.21
-3.80
-4.32
-5.49
-6.88
-8.16
-9.35
-10.71
-12.54
-14.90
-17.40
-19.41
-20.34
-19.99
-18.62
-16.85
-15.29
-14.26
-13.73
-13.46
-13.19
-12.81
-12.39
-12.00
-11.57
-10.87
-9.67
-7.99
-6.17
-4.86
-4.66
-5.83
-7.99
-10.25
-11.61
-11.39
-9.54
-6.55
-3.08
0.46
4.06
7.97
12.30
16.75
20.53
22.67
22.40
19.53
14.53
8.40
2.34
-2.54
-5.49
-6.30
-5.25
-2.94
-0.05
3.06
6.39
10.23
14.79
19.87
24.84
28.79
31.08
31.67
31.20
30.68
30.96
32.26
34.13
35.78
36.60
36.53
36.04
35.73
35.82
35.88
34.97
32.13
26.95
19.90
12.10
4.90
-0.73
-4.46
-6.55
-7.55
-8.01
-8.30
-8.67
-9.30
-10.38
-12.07
-14.32
-16.89
-19.28
-20.93
-21.39
-20.47
-18.25
-15.10
-11.51
-7.96
-4.79
-2.22
-0.27
1.09
1.91
2.27
2.26
2.03
1.76
1.63
1.68
1.84
1.91
1.69
1.10
0.19
-0.81
-1.66
-2.17
-2.35
-2.36
-2.46
-2.93
-3.91
-5.32
-6.94
-8.48
-9.69
-10.49
-10.88
-10.91
-10.62
-9.96
-8.87
-7.30
-5.31
-3.03
-0.66
1.65
3.78
5.73
7.45
8.90
9.96
10.54
10.59
10.19
9.55
8.89
8.33
7.86
7.32
6.58
5.62
4.66
3.98
3.84
4.22
4.86
5.31
5.18
4.30
2.78
0.92
-0.93
-2.48
-3.59
-4.22
-4.41
-4.23
-3.82
-3.27
-2.64
-1.92
-0.98
0.31
1.98
3.94
5.94
7.69
8.97
9.68
9.87
9.70
9.39
9.16
9.18
9.48
9.85
9.89
9.10
7.13
3.93
-0.12
-4.35
-8.07
-10.75
-12.17
-12.33
-11.37
-9.46
-6.83
-3.75
-0.51
2.65
5.64
8.48
11.23
13.84
16.10
17.71
18.51
18.57
18.26
18.09
18.44
19.50
21.17
23.24
25.49
27.70
29.68
31.20
31.99
31.86
30.73
28.74
26.16
23.31
20.44
17.70
15.13
12.76
10.60
8.58
6.52
4.12
1.06
-2.80
-7.31
-12.03
-16.41
-20.01
-22.63
-24.34
-25.33
-25.75
-25.74
-25.45
-25.21
-25.41
-26.44
-28.37
-30.87
-33.25
-34.78
-34.98
-33.80
-31.54
-28.64
-25.48
-22.24
-18.98
-15.74
-12.63
-9.78
-7.28
-5.05
-2.90
-0.58
2.04
4.95
7.97
10.90
13.60
16.07
18.38
20.66
22.98
25.35
27.68
29.81
31.46
32.20
31.47
28.63
23.17
14.95
4.37
-7.61
-19.68
-30.43
-38.70
-43.83
-45.75
-44.96
-42.26
-38.58
-34.67
-31.03
-27.76
-24.79
-21.90
-18.94
-15.94
-13.03
-10.41
-8.22
-6.42
-4.85
-3.26
-1.41
0.89
3.72
7.09
10.98
15.34
20.05
24.87
29.41
33.20
35.87
37.28
37.64
37.35
36.89
36.52
36.24
35.87
35.20
34.12
32.68
31.06
29.51
28.20
27.22
26.56
26.13
25.88
25.80
25.98
26.56
27.63
29.12
30.74
32.06
32.68
32.44
31.45
29.94
28.13
26.05
23.51
20.23
16.08
11.31
6.46
2.38
-0.25
-0.95
0.28
2.89
5.85
8.00
8.50
7.15
4.54
1.54
-0.86
-1.97
-1.72
-0.71
0.13
-0.12
-2.16
-6.32
-12.83
-21.48
-31.21
-40.35
-47.08
-50.06
-49.22
-46.00
-42.93
-42.99
-48.03
-56.82
-65.41
-69.76
-68.25
-62.18
-55.51
-50.21
-46.96
-45.26
-43.99
-42.21
-39.52
-35.16
-28.75
-19.93
-8.40
5.27
19.77
33.40
44.51
52.05
55.85
56.13
53.35
48.05
40.74
32.29
24.06
17.39
13.09
11.01
9.73
7.32
2.30
-5.79
-16.12
-27.20
-37.95
-48.13
-55.91
-59.14
-55.38
-43.34
-24.17
-1.53
19.54
34.47
41.10
40.37
35.24
28.86
22.97
17.26
10.76
3.66
-2.28
-4.46
-1.05
7.44
18.03
26.40
28.64
23.12
11.07
-4.08
-17.35
-24.52
-23.45
-14.55
-0.74
13.21
21.57
18.81
1.09
-32.01
-76.42
-123.95
-164.40
-189.30
-195.06
-184.09
-163.10
-139.48
-117.78
-98.54
-79.87
-60.34
-41.24
-26.35
-19.68
-22.75
-33.14
-45.45
-53.94
-55.18
-48.91
-37.06
-21.47
-2.74
19.67
46.31
76.41
107.35
135.05
155.42
165.76
166.06
158.21
144.81
128.26
110.35
92.38
75.14
59.39
45.63
35.22
29.20
27.83
30.60
36.64
45.05
54.64
64.22
72.48
79.57
85.92
91.70
96.67
100.66
103.73
105.73
106.64
98.80
78.65
49.04
17.83
-7.93
-25.37
-34.15
-37.88
-39.22
-40.03
-40.24
-39.67
-38.95
-39.19
-41.38
-45.80
-52.24
-59.84
-67.91
-74.82
-79.05
-79.89
-77.61
-73.03
-66.96
-60.01
-52.35
-44.32
-35.47
-25.48
-14.81
-4.97
1.95
4.34
1.71
-5.14
-14.72
-24.70
-32.86
-37.94
-40.05
-40.19
-39.30
-37.61
-31.46
-18.47
0.60
22.17
42.63
60.02
73.62
83.24
89.67
91.77
88.41
80.05
68.81
57.68
49.09
44.00
41.55
39.89
35.30
24.41
5.82
-19.59
-49.20
-79.44
-106.75
-128.38
-142.89
-151.16
-153.84
-150.66
-140.94
-124.51
-101.93
-74.16
-42.27
-2.45
40.44
74.81
89.50
80.85
53.62
18.28
-12.95
-30.58
-31.22
-19.27
-2.64
11.42
19.07
20.31
17.80
14.56
12.25
10.45
6.94
0.77
-6.72
-12.50
-13.80
-9.54
-0.82
9.33
17.21
19.31
14.91
5.80
-4.71
-13.32
-17.89
-17.91
-14.36
-9.09
-4.21
-0.94
0.60
1.07
1.28
1.68
2.16
2.14
0.85
-2.28
-7.16
-13.02
-18.63
-22.84
-25.00
-25.23
-24.27
-22.98
-21.89
-21.17
-20.58
-19.72
-18.30
-16.34
-14.14
-12.14
-10.66
-9.68
-8.96
-8.20
-7.15
-5.70
-3.86
-1.71
0.77
3.71
7.69
13.36
21.15
31.12
42.85
55.33
67.04
76.12
80.92
80.89
76.34
68.29
58.42
49.00
42.34
40.05
42.41
48.30
56.24
64.05
69.16
69.49
64.32
54.57
42.30
30.16
20.73
17.05
20.66
30.73
44.23
57.28
66.40
69.26
65.28
50.04
24.65
-4.22
-27.96
-41.85
-46.42
-45.32
-43.00
-42.82
-46.60
-52.88
-58.66
-61.22
-59.44
-53.43
-44.42
-35.08
-28.68
-28.35
-34.51
-45.49
-58.56
-71.13
-81.35
-86.34
-84.97
-75.61
-61.14
-46.05
-33.30
-22.37
-10.96
2.53
17.27
29.84
36.64
35.85
29.60
22.51
18.88
19.88
23.19
24.70
21.35
12.39
0.13
-10.53
-14.93
-11.02
-0.59
12.30
23.78
32.14
38.30
44.50
52.91
61.89
68.78
70.29
64.56
52.41
36.90
22.44
10.42
1.20
-5.55
-9.93
-11.79
-10.58
-5.89
1.95
11.59
21.07
28.01
30.48
27.88
20.81
10.82
-0.12
-10.21
-18.25
-23.84
-27.05
-28.37
-28.32
-27.58
-26.71
-26.11
-25.95
-26.30
-27.16
-28.44
-29.91
-31.23
-32.03
-32.00
-31.01
-29.27
-27.27
-25.67
-24.89
-24.95
-25.52
-26.13
-26.41
-26.27
-25.77
-24.99
-23.91
-22.34
-20.12
-17.38
-14.54
-12.22
-10.97
-10.98
-12.01
-13.50
-14.85
-15.59
-15.64
-15.19
-14.67
-14.44
-14.72
-15.47
-16.43
-17.29
-17.81
-17.99
-18.11
-18.61
-19.88
-22.10
-25.06
-28.24
-30.97
-32.77
-33.49
-33.40
-33.07
-33.11
-33.99
-35.84
-38.41
-41.09
-42.88
-42.55
-38.86
-31.01
-19.11
-4.38
11.00
24.61
34.57
40.19
42.00
41.32
39.51
37.49
35.67
34.22
33.44
33.91
36.36
41.31
48.84
58.47
69.30
80.24
90.21
98.28
103.75
106.23
105.66
102.34
96.77
89.53
81.16
72.08
62.72
53.51
44.92
37.25
30.55
24.51
18.67
12.70
6.74
1.45
-2.16
-3.21
-1.34
3.10
9.22
15.94
22.45
28.44
33.99
39.27
44.16
48.15
50.45
50.35
47.62
42.72
36.66
30.62
25.48
21.44
18.04
14.24
8.67
-0.03
-12.89
-30.21
-51.38
-74.83
-98.25
-119.00
-134.83
-144.61
-148.58
-148.15
-145.22
-141.52
-138.23
-135.72
-133.45
-130.40
-125.68
-118.90
-110.26
-100.35
-89.89
-79.52
-69.75
-60.44
-51.17
-41.64
-31.90
-22.21
-12.58
-2.65
8.01
19.57
32.17
45.61
59.41
72.98
86.14
99.27
112.91
127.07
137.35
138.95
129.53
111.18
88.70
66.39
46.51
29.63
15.64
4.53
-3.01
-6.36
-5.81
-2.84
0.59
3.18
4.76
5.88
6.93
7.96
8.34
7.24
4.22
-0.24
-4.72
-7.67
-8.24
-6.67
-3.70
-0.15
3.41
6.59
9.12
10.75
11.24
10.52
8.77
6.56
4.50
2.88
1.47
-0.19
-2.64
-5.97
-9.90
-13.83
-17.19
-19.58
-20.98
-21.55
-21.49
-20.81
-19.39
-17.10
-14.02
-10.54
-7.20
-4.45
-2.43
-0.97
0.28
1.53
2.77
3.74
4.16
3.90
3.09
2.06
1.20
0.68
0.53
0.62
0.81
1.02
1.19
1.32
1.38
1.34
1.13
0.69
-0.01
-0.99
-1.87
-2.50
-2.80
-2.73
-2.27
-1.45
-0.42
0.58
1.21
1.25
0.70
-0.06
-0.35
0.47
2.73
6.20
10.22
13.97
16.80
18.38
18.84
18.49
17.69
16.61
15.26
13.59
11.58
9.38
7.21
5.36
4.02
3.19
2.69
2.22
1.54
0.61
-0.38
-1.11
-1.30
-0.87
-0.03
0.84
1.34
1.21
0.42
-0.87
-2.43
-4.10
-5.84
-7.73
-9.88
-12.29
-14.75
-16.87
-18.16
-18.20
-16.87
-14.35
-11.07
-7.53
-4.11
-1.01
1.70
3.95
5.62
6.54
6.61
5.92
4.79
3.64
2.84
2.52
2.57
2.72
2.68
2.30
1.62
0.77
-0.09
-0.85
-1.50
-2.05
-2.48
-2.72
-2.65
-2.26
-1.69
-1.22
-1.21
-1.96
-3.51
-5.65
-7.94
-9.90
-11.09
-11.30
-10.50
-8.86
-6.64
-4.16
-1.74
0.39
2.08
3.28
4.00
4.33
4.40
4.35
4.31
4.33
4.37
4.25
3.80
2.88
1.55
0.06
-1.24
-1.99
-1.99
-1.30
-0.23
0.81
1.43
1.44
0.91
0.10
-0.62
-1.02
-1.10
-1.03
-1.09
-1.49
-2.27
-3.36
-4.60
-5.83
-6.91
-7.65
-7.83
-7.21
-5.67
-3.31
-0.50
2.21
4.29
5.43
5.68
5.34
4.82
4.46
4.38
4.49
4.60
4.55
4.25
3.76
3.20
2.72
2.46
2.45
2.68
3.05
3.46
3.77
3.92
3.83
3.46
2.77
1.74
0.42
-1.09
-2.61
-3.91
-4.84
-5.38
-5.71
-6.07
-6.69
-7.58
-8.55
-9.20
-9.18
-8.29
-6.62
-4.50
-2.31
-0.36
1.23
2.47
3.44
4.19
4.69
4.90
4.86
4.71
4.64
4.77
5.04
5.26
5.10
4.32
2.89
1.05
-0.79
-2.14
-2.72
-2.54
-1.89
-1.23
-0.98
-1.30
-2.10
-3.07
-3.84
-4.19
-4.07
-3.64
-3.15
-2.89
-3.03
-3.61
-4.48
-5.43
-6.19
-6.56
-6.40
-5.68
-4.41
-2.65
-0.50
1.83
4.05
5.80
6.82
7.05
6.63
5.87
5.13
4.63
4.39
4.31
4.21
3.98
3.60
3.12
2.57
1.98
1.32
0.60
-0.14
-0.79
-1.24
-1.45
-1.49
-1.52
-1.77
-2.37
-3.30
-4.39
-5.36
-5.95
-6.12
-5.97
-5.77
-5.79
-6.15
-6.78
-7.42
-7.78
-7.62
-6.82
-5.44
-3.64
-1.66
0.23
1.81
2.87
3.33
3.19
2.55
1.62
0.64
-0.16
-0.64
-0.70
-0.40
0.11
0.62
0.92
0.90
0.57
0.05
-0.50
-0.90
-1.11
-1.18
-1.22
-1.32
-1.49
-1.64
-1.67
-1.53
-1.25
-1.00
-1.00
-1.39
-2.21
-3.33
-4.49
-5.41
-5.82
-5.59
-4.73
-3.39
-1.81
-0.26
1.07
2.10
2.86
3.39
3.72
3.81
3.59
3.03
2.21
1.33
0.62
0.21
0.12
0.20
0.29
0.25
0.08
-0.16
-0.39
-0.62
-0.94
-1.48
-2.32
-3.44
-4.71
-5.92
-6.85
-7.37
-7.48
-7.27
-6.93
-6.63
-6.46
-6.42
-6.45
-6.49
-6.45
-6.26
-5.79
-4.84
-3.23
-0.94
1.87
4.82
7.43
9.35
10.48
11.00
11.30
11.68
12.23
12.78
12.97
12.44
11.05
8.92
6.41
3.95
1.87
0.32
-0.77
-1.50
-1.98
-2.22
-2.23
-2.05
-1.84
-1.81
-2.17
-3.00
-4.20
-5.53
-6.75
-7.71
-8.43
-9.01
-9.58
-10.16
-10.71
-11.16
-11.45
-11.59
-11.56
-11.31
-10.69
-9.59
-7.95
-5.83
-3.47
-1.16
0.83
2.37
3.45
4.15
4.56
4.78
4.89
4.93
4.93
4.93
4.93
4.94
4.96
5.04
5.28
5.79
6.56
7.44
8.19
8.54
8.38
7.82
7.12
6.52
6.10
5.71
5.12
4.16
2.88
1.46
0.13
-1.01
-2.01
-3.03
-4.15
-5.31
-6.30
-6.86
-6.79
-6.04
-4.72
-3.05
-1.28
0.41
1.92
3.28
4.56
5.81
7.02
8.05
8.69
8.82
8.41
7.56
6.43
5.16
3.83
2.48
1.18
0.10
-0.60
-0.82
-0.65
-0.36
-0.31
-0.77
-1.79
-3.22
-4.77
-6.21
-7.38
-8.27
-8.95
-9.51
-10.05
-10.64
-11.35
-12.17
-13.03
-13.74
-14.09
-13.88
-12.95
-11.28
-8.92
-6.03
-2.81
0.45
3.46
5.93
7.63
8.48
8.55
8.06
7.30
6.51
5.85
5.37
5.11
5.14
5.54
6.34
7.42
8.47
9.08
8.89
7.81
6.02
3.90
1.87
0.15
-1.27
-2.52
-3.75
-4.99
-6.14
-7.09
-7.80
-8.35
-8.95
-9.81
-11.03
-12.53
-14.02
-15.17
-15.63
-15.19
-13.88
-11.88
-9.46
-6.88
-4.30
-1.79
0.61
2.83
4.74
6.19
7.08
7.44
7.40
7.20
7.06
7.08
7.27
7.53
7.74
7.83
7.78
7.64
7.43
7.15
6.72
6.07
5.15
3.99
2.66
1.26
-0.18
-1.65
-3.13
-4.60
-5.96
-7.09
-7.93
-8.55
-9.11
-9.81
-10.73
-11.74
-12.50
-12.57
-11.61
-9.55
-6.63
-3.29
-0.00
2.90
5.29
7.20
8.70
9.83
10.58
11.02
11.19
11.21
11.14
11.00
10.74
10.31
9.76
9.16
8.60
8.13
7.74
7.38
7.04
6.72
6.41
6.00
5.31
4.19
2.59
0.70
-1.21
-2.84
-4.03
-4.83
-5.42
-6.06
-6.92
-8.08
-9.45
-10.80
-11.86
-12.32
-11.99
-10.85
-9.04
-6.79
-4.36
-1.87
0.65
3.17
5.56
7.59
9.00
9.66
9.67
9.33
8.96
8.75
8.67
8.54
8.15
7.48
6.65
5.89
5.39
5.19
5.14
5.00
4.58
3.79
2.69
1.42
0.12
-1.16
-2.46
-3.86
-5.40
-7.02
-8.57
-9.88
-10.84
-11.56
-12.25
-13.19
-14.54
-16.16
-17.69
-18.58
-18.38
-16.96
-14.45
-11.28
-7.93
-4.75
-1.90
0.57
2.69
4.43
5.77
6.66
7.15
7.39
7.53
7.70
7.89
8.06
8.11
8.00
7.76
7.44
7.16
6.99
6.93
6.98
7.05
7.01
6.72
6.08
5.05
3.69
2.19
0.70
-0.65
-1.83
-2.90
-3.98
-5.12
-6.39
-7.73
-9.07
-10.29
-11.26
-11.80
-11.74
-10.94
-9.32
-6.96
-4.06
-0.91
2.13
4.78
6.87
8.37
9.33
9.85
10.05
10.01
9.82
9.58
9.44
9.53
9.91
10.55
11.24
11.76
11.88
11.51
10.72
9.72
8.79
8.10
7.65
7.26
6.65
5.62
4.17
2.46
0.78
-0.68
-1.90
-3.09
-4.52
-6.38
-8.62
-10.95
-12.95
-14.20
-14.44
-13.59
-11.74
-9.09
-5.94
-2.57
0.75
3.78
6.39
8.48
10.01
11.01
11.56
11.77
11.83
11.87
11.95
12.09
12.18
12.10
11.78
11.22
10.51
9.72
8.90
7.98
6.88
5.54
4.00
2.37
0.84
-0.47
-1.54
-2.51
-3.56
-4.86
-6.43
-8.20
-10.03
-11.84
-13.58
-15.25
-16.71
-17.73
-17.95
-17.09
-15.08
-12.11
-8.66
-5.30
-2.49
-0.44
0.89
1.77
2.52
3.36
4.33
5.27
6.00
6.38
6.43
6.30
6.15
6.03
5.84
5.40
4.59
3.46
2.23
1.15
0.35
-0.25
-0.88
-1.79
-3.06
-4.56
-6.01
-7.17
-7.97
-8.51
-9.03
-9.72
-10.69
-11.92
-13.29
-14.65
-15.83
-16.65
-16.91
-16.42
-15.04
-12.75
-9.70
-6.19
-2.57
0.87
3.93
6.54
8.69
10.36
11.54
12.22
12.46
12.42
12.30
12.28
12.34
12.33
12.03
11.29
10.16
8.88
7.72
6.89
6.44
6.25
6.15
6.01
5.73
5.27
4.56
3.56
2.24
0.67
-0.98
-2.50
-3.69
-4.54
-5.17
-5.85
-6.78
-8.03
-9.46
-10.71
-11.38
-11.16
-9.94
-7.80
-5.01
-1.84
1.41
4.47
7.08
8.99
9.99
10.04
9.29
8.11
6.92
6.09
5.80
6.01
6.52
7.06
7.38
7.40
7.14
6.79
6.51
6.42
6.47
6.49
6.24
5.58
4.49
3.15
1.81
0.69
-0.08
-0.55
-0.88
-1.29
-2.00
-3.13
-4.76
-6.84
-9.17
-11.46
-13.28
-14.21
-13.86
-12.08
-9.01
-5.11
-1.01
2.60
5.30
7.06
8.17
9.07
10.09
11.20
12.11
12.45
12.02
10.94
9.64
8.57
8.00
7.90
7.99
7.98
7.66
7.05
6.24
5.38
4.50
3.54
2.41
1.08
-0.40
-1.92
-3.37
-4.70
-5.95
-7.26
-8.78
-10.58
-12.61
-14.69
-16.54
-17.87
-18.46
-18.22
-17.12
-15.21
-12.58
-9.37
-5.78
-2.07
1.44
4.44
6.68
8.04
8.58
8.48
8.02
7.47
6.99
6.65
6.41
6.24
6.15
6.18
6.39
6.71
6.97
6.96
6.49
5.54
4.26
2.87
1.61
0.55
-0.41
-1.42
-2.61
-3.98
-5.41
-6.73
-7.86
-8.84
-9.84
-11.08
-12.67
-14.52
-16.33
-17.60
-17.86
-16.80
-14.41
-11.01
-7.12
-3.26
0.22
3.21
5.76
7.96
9.82
11.23
12.08
12.35
12.16
11.74
11.34
11.12
11.06
11.00
10.76
10.19
9.33
8.38
7.53
6.88
6.35
5.72
4.69
3.14
1.15
-1.01
-2.95
-4.39
-5.27
-5.77
-6.17
-6.81
-7.93
-9.60
-11.68
-13.94
-16.04
-17.59
-18.27
-17.82
-16.16
-13.38
-9.75
-5.71
-1.72
1.82
4.65
6.69
8.01
8.79
9.22
9.48
9.69
9.90
10.07
10.14
10.06
9.81
9.48
9.16
8.89
8.66
8.35
7.84
7.06
6.01
4.76
3.37
1.86
0.23
-1.52
-3.29
-4.96
-6.38
-7.50
-8.39
-9.26
-10.32
-11.75
-13.54
-15.43
-16.97
-17.66
-17.10
-15.17
-12.06
-8.23
-4.23
-0.51
2.71
5.40
7.63
9.43
10.72
11.42
11.51
11.17
10.72
10.49
10.63
11.06
11.51
11.65
11.27
10.37
9.16
7.95
7.00
6.38
5.95
5.45
4.64
3.43
1.92
0.35
-1.01
-2.02
-2.78
-3.55
-4.62
-6.15
-8.17
-10.56
-13.03
-15.21
-16.71
-17.15
-16.35
-14.33
-11.17
-7.25
-3.09
0.84
4.26
7.12
9.52
11.62
13.51
15.41
17.26
18.87
20.13
21.09
21.96
22.90
23.86
24.51
24.60
23.71
21.49
17.90
13.35
8.63
4.83
3.32
3.36
5.25
9.09
14.05
18.44
20.50
19.18
14.31
6.38
-3.88
-15.35
-26.92
-37.20
-44.27
-46.10
-41.32
-29.93
-13.74
4.00
19.74
30.24
33.47
29.16
18.70
4.57
-10.43
-23.90
-34.27
-40.80
-43.61
-43.34
-40.74
-36.52
-31.46
-26.35
-21.92
-18.78
-16.71
-15.15
-13.46
-11.11
-8.02
-4.53
-1.11
1.81
4.06
5.75
6.94
7.61
7.77
7.46
6.95
6.50
6.23
6.00
5.46
4.28
2.45
0.36
-1.30
-1.91
-1.24
0.49
2.64
4.63
6.01
6.73
7.00
7.12
7.32
7.66
8.03
8.15
7.88
7.20
6.23
5.14
4.11
3.27
2.71
2.38
2.16
1.87
1.32
0.42
-0.78
-2.13
-3.42
-4.58
-5.59
-6.51
-7.31
-7.91
-8.26
-8.37
-8.43
-8.70
-9.40
-10.57
-12.04
-13.49
-14.59
-15.13
-14.98
-14.12
-12.54
-10.32
-7.62
-4.72
-1.92
0.47
2.28
3.49
4.16
4.39
4.24
3.74
2.92
1.86
0.69
-0.40
-1.24
-1.74
-1.88
-1.70
-1.30
-0.78
-0.20
0.37
0.87
1.25
1.44
1.42
1.21
0.88
0.51
0.18
-0.08
-0.24
-0.31
-0.32
-0.33
-0.39
-0.52
-0.67
-0.72
-0.55
-0.07
0.70
1.67
2.73
3.78
4.83
5.86
6.82
7.62
8.11
8.23
7.98
7.53
7.02
6.54
6.08
5.54
4.87
4.10
3.40
2.98
2.97
3.35
3.94
4.48
4.77
4.75
4.50
4.18
3.88
3.60
3.23
2.65
1.80
0.74
-0.42
-1.60
-2.79
-4.03
-5.36
-6.80
-8.29
-9.78
-11.22
-12.58
-13.79
-14.76
-15.30
-15.23
-14.40
-12.78
-10.53
-7.97
-5.50
-3.47
-2.05
-1.18
-0.60
0.10
1.30
3.28
6.11
9.66
13.59
17.54
21.16
24.20
26.60
28.33
29.47
30.06
30.17
29.93
29.53
29.17
28.95
28.77
28.29
27.13
25.10
22.27
19.06
16.00
13.50
11.69
10.38
9.22
7.88
6.19
4.16
1.95
-0.28
-2.48
-4.67
-6.92
-9.22
-11.45
-13.37
-14.72
-15.41
-15.55
-15.45
-15.44
-15.71
-16.20
-16.66
-16.80
-16.51
-15.92
-15.31
-14.97
-14.97
-15.15
-15.21
-14.91
-14.19
-13.20
-12.23
-11.53
-11.22
-11.29
-11.57
-11.90
-12.08
-11.94
-11.34
-10.22
-8.59
-6.54
-4.22
-1.79
0.62
2.88
4.91
6.59
7.88
8.79
9.43
9.91
10.31
10.62
10.71
10.43
9.72
8.68
7.53
6.49
5.71
5.12
4.54
3.74
2.57
1.10
-0.48
-1.89
-2.92
-3.53
-3.88
-4.19
-4.70
-5.50
-6.56
-7.76
-9.00
-10.25
-11.50
-12.66
-13.49
-13.73
-13.11
-11.59
-9.39
-6.90
-4.50
-2.47
-0.85
0.39
1.29
1.84
2.01
1.82
1.39
0.90
0.51
0.26
0.08
-0.12
-0.41
-0.76
-1.12
-1.43
-1.75
-2.13
-2.69
-3.48
-4.47
-5.56
-6.69
-7.80
-8.91
-10.11
-11.46
-12.99
-14.67
-16.34
-17.81
-18.84
-19.22
-18.79
-17.47
-15.31
-12.47
-9.21
-5.84
-2.65
0.17
2.58
4.65
6.49
8.18
9.68
10.90
11.77
12.30
12.62
12.93
13.37
14.01
14.73
15.34
15.67
15.62
15.24
14.64
13.91
13.12
12.20
11.06
9.64
7.98
6.20
4.47
2.89
1.51
0.24
-0.98
-2.17
-3.20
-3.82
-3.78
-2.91
-1.24
1.02
3.48
5.78
7.62
8.95
9.85
10.52
11.09
11.53
11.65
11.22
10.07
8.23
5.91
3.40
0.93
-1.43
-3.68
-5.86
-7.94
-9.82
-11.33
-12.40
-13.02
-13.31
-13.42
-13.46
-13.42
-13.23
-12.83
-12.23
-11.61
-11.21
-11.26
-11.78
-12.51
-13.01
-12.83
-11.70
-9.61
-6.84
-3.78
-0.77
1.99
4.40
6.43
8.03
9.17
9.86
10.17
10.27
10.33
10.48
10.77
11.16
11.52
11.60
11.17
10.06
8.26
5.98
3.58
1.47
-0.08
-0.98
-1.40
-1.61
-1.89
-2.43
-3.26
-4.31
-5.48
-6.69
-7.92
-9.16
-10.35
-11.35
-11.93
-11.82
-10.82
-8.96
-6.47
-3.72
-1.08
1.26
3.29
5.18
7.09
9.04
10.85
12.20
12.78
12.49
11.45
10.00
8.52
7.28
6.39
5.81
5.44
5.25
5.27
5.56
6.12
6.85
7.55
8.03
8.18
7.98
7.47
6.71
5.68
4.36
2.71
0.73
-1.51
-3.87
-6.22
-8.39
-10.21
-11.54
-12.21
-12.09
-11.11
-9.31
-6.89
-4.21
-1.67
0.34
1.63
2.24
2.35
2.21
2.02
1.82
1.57
1.18
0.70
0.26
0.08
0.29
0.89
1.68
2.36
2.70
2.59
2.09
1.39
0.66
-0.04
-0.73
-1.52
-2.48
-3.51
-4.40
-4.93
-4.98
-4.64
-4.19
-3.92
-4.03
-4.46
-4.97
-5.26
-5.10
-4.46
-3.46
-2.30
-1.14
-0.05
0.99
2.03
3.12
4.29
5.46
6.55
7.42
7.94
8.04
7.76
7.20
6.54
5.89
5.34
4.93
4.67
4.58
4.71
5.09
5.72
6.53
7.38
8.13
8.66
8.95
9.02
8.95
8.77
8.42
7.74
6.59
4.88
2.63
-0.00
-2.79
-5.46
-7.77
-9.53
-10.59
-10.91
-10.53
-9.59
-8.28
-6.75
-5.07
-3.23
-1.22
0.88
2.92
4.69
6.03
6.79
7.03
6.91
6.58
6.10
5.45
4.58
3.38
1.62
-1.16
-5.39
-11.28
-18.56
-26.35
-33.32
-38.06
-39.69
-38.31
-35.17
-31.96
-30.13
-30.46
-32.99
-37.13
-42.02
-46.80
-50.71
-53.40
-54.22
-52.42
-47.38
-39.02
-28.06
-15.91
-4.24
7.04
17.13
25.29
31.19
34.96
36.90
37.33
36.74
35.95
35.96
37.17
39.53
42.32
44.41
44.78
43.05
39.47
34.56
29.16
22.98
15.94
8.26
0.42
-6.85
-12.74
-16.62
-18.30
-18.06
-16.72
-14.92
-13.15
-11.63
-10.33
-8.93
-7.01
-4.22
-0.10
5.37
12.18
20.02
27.66
33.32
35.67
34.80
32.05
29.24
27.51
27.21
27.90
28.80
29.31
29.13
28.07
25.92
22.44
17.57
12.01
7.09
4.27
4.63
8.35
14.57
21.77
28.37
32.94
35.02
34.72
32.53
29.27
25.83
23.01
21.35
21.10
21.72
22.69
23.40
23.19
21.37
17.45
11.33
3.53
-4.80
-12.81
-19.54
-24.48
-27.77
-30.09
-32.41
-35.74
-41.37
-46.46
-50.48
-53.40
-55.45
-56.87
-57.71
-57.75
-56.68
-54.29
-50.57
-46.39
-42.42
-39.02
-36.13
-33.39
-30.29
-26.41
-21.66
-16.17
-10.80
-6.29
-3.24
-2.04
-2.81
-5.25
-8.57
-11.54
-12.73
-11.22
-6.67
0.39
8.72
16.76
23.19
27.30
29.03
28.82
27.08
24.19
20.51
16.36
12.15
8.30
5.12
2.67
0.82
-0.68
-1.99
-3.04
-3.65
-3.61
-2.91
-1.77
-0.57
0.29
0.53
0.09
-0.91
-2.19
-3.55
-4.87
-6.25
-7.86
-9.86
-12.20
-14.55
-16.37
-17.04
-16.18
-13.79
-10.27
-6.34
-2.70
0.18
2.14
3.37
4.14
4.71
5.21
5.63
5.91
6.00
5.88
5.57
5.11
4.50
3.73
2.83
1.81
0.67
-0.59
-2.01
-3.65
-5.49
-7.44
-9.24
-10.66
-11.54
-11.89
-11.97
-12.23
-13.08
-14.77
-17.22
-20.01
-22.48
-23.93
-23.86
-22.14
-19.04
-15.11
-10.94
-7.02
-3.60
-0.73
1.64
3.52
4.88
5.66
5.88
5.68
5.33
5.10
5.17
5.57
6.13
6.62
6.84
6.63
5.96
4.81
3.17
1.03
-1.56
-4.43
-7.24
-9.64
-11.36
-12.41
-13.06
-13.73
-14.83
-16.47
-18.43
-20.18
-21.10
-20.67
-18.67
-15.22
-10.72
-5.74
-0.82
3.62
7.41
10.56
13.24
15.63
17.76
19.49
20.57
20.77
19.99
18.31
16.00
13.36
10.68
8.18
6.01
4.35
3.30
2.91
3.00
3.22
2.99
1.82
-0.55
-3.96
-7.87
-11.57
-14.46
-16.35
-17.49
-18.44
-19.72
-21.54
-23.64
-25.43
-26.24
-25.62
-23.49
-20.05
-15.61
-10.47
-4.85
1.01
6.78
11.95
16.00
18.59
19.72
19.70
19.11
18.49
18.17
18.20
18.36
18.41
18.18
17.63
16.82
15.87
14.87
13.86
12.80
11.67
10.59
9.70
9.06
8.58
7.93
6.77
4.77
1.83
-1.90
-5.86
-9.33
-11.64
-12.39
-11.45
-8.90
-5.00
-0.10
5.48
11.84
19.06
26.89
34.59
41.24
46.14
49.06
50.21
50.11
50.06
51.04
53.21
55.75
57.45
57.48
55.55
51.83
46.79
42.13
39.35
39.04
40.42
42.00
42.61
41.69
39.16
35.12
31.16
28.56
27.96
29.20
32.39
38.93
51.08
70.62
87.63
93.24
84.86
68.16
50.18
33.62
16.78
-4.00
-31.62
-66.18
-101.22
-131.47
-151.84
-160.18
-158.27
-150.75
-143.50
-141.74
-146.54
-156.05
-164.93
-168.72
-164.14
-151.18
-132.25
-110.76
-88.81
-68.98
-52.23
-38.29
-26.54
-16.98
-10.27
-6.68
-5.51
-5.11
-3.72
0.22
6.95
15.18
22.66
27.28
28.30
26.55
23.74
21.37
20.28
20.50
21.49
22.67
23.64
24.35
24.93
25.46
25.72
25.39
24.16
21.93
18.91
15.51
12.27
9.64
7.67
6.02
4.13
1.68
-1.18
-3.79
-5.27
-5.04
-3.17
-0.42
2.15
3.75
4.21
3.92
3.49
3.31
3.33
3.07
1.94
-0.46
-4.04
-8.22
-12.13
-14.86
-15.79
-14.61
-11.42
-6.59
-0.64
5.82
12.13
17.66
21.87
24.38
25.01
23.86
21.23
17.59
13.46
9.40
5.90
3.31
1.80
1.34
1.75
2.78
4.18
5.68
7.05
8.07
8.60
8.65
8.36
8.00
7.81
7.85
7.96
7.78
6.98
5.43
3.31
1.08
-0.72
-1.58
-1.28
0.18
2.60
5.67
9.09
12.60
15.99
19.11
21.82
24.04
25.74
26.97
27.78
28.22
28.28
27.94
27.17
26.06
24.70
23.22
21.70
20.15
18.52
16.79
14.94
12.98
10.91
8.78
6.61
4.46
2.38
0.43
-1.33
-2.92
-4.41
-5.89
-7.48
-9.23
-11.12
-12.97
-14.49
-15.30
-15.06
-13.58
-10.89
-7.23
-3.05
1.18
5.08
8.39
11.07
13.24
15.09
16.79
18.42
19.92
21.12
21.81
21.86
21.29
20.30
19.16
18.18
17.51
17.15
16.95
16.66
16.07
15.11
13.79
12.24
10.64
9.11
7.70
6.40
5.16
3.86
2.42
0.78
-1.07
-3.09
-5.22
-7.37
-9.43
-11.23
-12.51
-13.00
-12.52
-11.00
-8.64
-5.77
-2.76
0.10
2.74
5.16
7.38
9.29
10.65
11.23
10.92
9.86
8.43
7.09
6.21
5.95
6.15
6.55
6.83
6.80
6.48
5.99
5.46
4.96
4.43
3.75
2.84
1.72
0.46
-0.80
-2.01
-3.20
-4.45
-5.86
-7.47
-9.22
-10.99
-12.55
-13.67
-14.13
-13.78
-12.63
-10.80
-8.52
-6.03
-3.53
-1.15
0.98
2.76
4.02
4.64
4.55
3.86
2.84
1.85
1.23
1.17
1.71
2.70
3.93
5.23
6.52
7.73
8.82
9.65
10.03
9.80
8.93
7.58
6.04
4.58
3.37
2.40
1.58
0.86
0.25
-0.19
-0.48
-0.74
-1.18
-1.97
-3.07
-4.20
-4.91
-4.81
-3.70
-1.72
0.75
3.21
5.28
6.75
7.65
8.16
8.51
8.85
9.21
9.48
9.53
9.24
8.63
7.77
6.78
5.71
4.57
3.35
2.04
0.74
-0.43
-1.34
-1.92
-2.27
-2.55
-2.96
-3.65
-4.61
-5.71
-6.76
-7.58
-8.14
-8.57
-9.12
-10.00
-11.21
-12.53
-13.54
-13.78
-12.93
-10.99
-8.25
-5.16
-2.16
0.48
2.72
4.66
6.42
8.00
9.25
9.90
9.77
8.85
7.40
5.82
4.52
3.65
3.13
2.64
1.87
0.67
-0.89
-2.54
-4.03
-5.18
-6.02
-6.70
-7.32
-7.88
-8.21
-8.11
-7.50
-6.50
-5.45
-4.77
-4.76
-5.50
-6.79
-8.30
-9.65
-10.53
-10.80
-10.38
-9.30
-7.66
-5.65
-3.54
-1.56
0.12
1.43
2.38
3.04
3.48
3.75
3.98
4.21
4.48
4.70
4.72
4.41
3.73
2.82
1.93
1.27
0.93
0.79
0.64
0.28
-0.32
-1.06
-1.76
-2.31
-2.66
-2.89
-3.09
-3.33
-3.62
-3.91
-4.14
-4.30
-4.44
-4.57
-4.68
-4.62
-4.17
-3.13
-1.39
0.97
3.61
6.15
8.23
9.73
10.76
11.61
12.53
13.60
14.68
15.50
15.83
15.60
14.96
14.21
13.64
13.39
13.45
13.63
13.73
13.57
13.15
12.54
11.94
11.45
11.06
10.56
9.66
8.06
5.63
2.38
-1.50
-5.77
-10.21
-14.69
-19.08
-23.19
-26.74
-29.41
-30.97
-31.43
-30.95
-29.90
-28.65
-27.46
-26.35
-25.14
-23.62
-21.71
-19.53
-17.10
-14.44
-11.53
-8.35
-4.87
-1.14
2.63
6.10
9.04
11.75
14.66
18.04
21.79
25.57
28.90
31.34
32.63
32.82
32.87
33.69
35.73
38.69
41.92
44.61
46.08
45.95
44.19
41.86
40.01
39.15
39.15
39.75
40.83
42.33
44.26
41.91
33.06
18.96
3.84
-7.94
-13.98
-14.37
-11.37
-8.34
-8.72
-14.14
-24.72
-38.80
-55.30
-72.53
-88.35
-100.78
-108.11
-109.29
-103.55
-91.31
-74.41
-55.80
-38.42
-23.90
-13.64
-7.97
-6.23
-6.97
-8.85
-11.20
-13.98
-17.13
-19.75
-20.54
-18.44
-13.76
-8.11
-3.47
-1.01
-0.52
-0.47
0.90
4.36
9.23
13.69
15.86
14.85
11.28
6.83
3.43
2.42
3.85
6.72
9.61
11.22
11.07
9.04
5.61
1.46
-2.67
-6.16
-8.81
-9.98
-8.91
-5.05
1.52
10.05
19.13
27.25
33.25
36.56
37.37
36.30
33.98
30.40
25.43
18.89
10.78
1.59
-7.97
-16.82
-23.94
-28.61
-30.65
-30.34
-28.21
-24.82
-20.59
-16.19
-12.05
-8.46
-5.64
-3.73
-2.83
-2.88
-3.59
-4.69
-6.54
-9.60
-14.06
-19.58
-25.25
-30.01
-33.08
-34.41
-32.38
-27.60
-22.45
-19.39
-19.08
-20.18
-21.00
-20.51
-18.64
-15.97
-13.50
-11.80
-10.75
-10.64
-10.58
-10.02
-8.57
-5.90
-1.76
3.50
9.15
14.27
17.94
19.69
19.50
18.21
17.25
18.29
22.29
29.11
37.48
45.57
51.83
55.48
56.90
57.25
57.58
58.28
58.91
58.65
56.84
53.45
48.94
44.10
39.68
35.87
32.44
28.68
23.67
16.53
6.89
-4.99
-18.15
-31.16
-42.74
-51.85
-58.25
-62.55
-65.81
-68.96
-72.35
-75.79
-78.64
-80.40
-80.32
-77.75
-72.31
-64.21
-54.53
-45.50
-40.32
-39.91
-45.31
-54.72
-63.28
-65.38
-57.99
-41.63
-19.60
3.98
25.85
44.07
58.18
68.09
73.55
74.09
70.01
62.58
54.09
47.06
42.88
41.88
41.74
39.51
32.62
20.70
5.79
-7.96
-15.47
-12.44
2.54
26.42
52.19
70.78
75.15
62.84
37.36
6.95
-18.92
-33.37
-34.78
-27.08
-18.51
-15.61
-21.73
-35.41
-50.78
-60.23
-58.05
-43.49
-20.27
2.11
14.43
11.81
-3.77
-24.30
-39.69
-42.77
-31.88
-9.99
17.21
44.37
67.23
83.09
90.68
89.53
79.12
58.74
28.33
-10.92
-55.87
-101.91
-143.06
-171.97
-181.12
-165.79
-126.57
-69.35
-4.05
58.58
109.64
141.59
149.75
134.54
101.07
57.57
14.33
-18.98
-36.75
-39.69
-36.50
-40.56
-58.98
-85.81
-108.75
-117.60
-109.04
-84.73
-53.13
-24.67
-5.64
4.65
11.21
18.43
27.32
35.48
39.47
37.27
30.31
23.42
22.02
28.49
40.53
53.05
61.20
62.68
58.05
50.28
43.47
40.89
43.33
48.56
52.73
52.52
46.65
36.13
23.80
12.92
5.76
2.60
1.87
1.42
-0.13
-2.83
-5.79
-7.93
-8.72
-8.45
-8.04
-8.40
-9.91
-12.16
-14.22
-15.08
-14.07
-11.03
-6.32
-0.61
5.47
11.46
17.07
22.14
26.47
29.68
31.12
30.11
26.27
19.74
11.18
1.65
-7.72
-15.87
-22.25
-26.96
-30.58
-33.67
-36.49
-38.85
-40.19
-39.82
-36.90
-31.36
-24.31
-17.66
-13.13
-11.52
-12.35
-14.07
-14.59
-11.50
-3.58
8.50
22.58
36.14
47.12
54.26
57.22
56.61
54.70
53.88
55.43
59.31
64.43
69.04
71.04
68.68
56.35
33.78
7.45
-13.12
-21.51
-16.99
-3.28
13.82
28.42
36.18
35.88
28.36
15.33
-0.94
-17.66
-32.02
-41.93
-46.59
-46.55
-43.15
-37.40
-30.90
-25.08
-20.55
-17.27
-14.97
-13.51
-12.84
-12.36
-11.59
-10.56
-9.73
-9.99
-12.51
-18.25
-27.34
-38.73
-50.35
-58.86
-62.54
-61.33
-56.63
-50.50
-44.75
-40.31
-37.38
-33.81
-29.27
-24.64
-20.35
-15.64
-9.42
-1.78
5.39
9.27
7.83
0.98
-8.95
-18.40
-24.56
-26.52
-25.11
-21.54
-16.16
-8.29
2.74
16.74
32.11
45.96
55.15
57.53
52.93
43.26
32.40
24.15
21.95
27.79
41.05
58.25
73.75
81.51
77.18
59.73
31.93
-0.39
-30.13
-51.36
-61.22
-60.50
-52.77
-42.57
-33.50
-26.95
-22.02
-16.04
-6.30
8.14
25.56
42.12
53.52
55.72
46.62
27.13
1.53
-24.30
-45.15
-58.12
-62.85
-60.58
-53.18
-40.32
-24.47
-9.48
1.40
6.48
6.10
1.40
-5.60
-11.97
-15.32
-14.97
-11.40
-6.17
-1.19
1.80
1.68
-1.67
-7.36
-13.69
-18.69
-19.82
-15.18
-4.22
11.52
28.77
43.95
54.63
60.49
62.99
64.88
66.06
65.39
60.91
51.46
37.89
22.89
10.11
0.37
-6.37
-10.83
-13.46
-14.31
-12.29
-6.65
2.48
13.70
24.31
31.45
32.75
27.50
16.86
3.69
-8.51
-16.72
-19.63
-18.07
-14.48
-11.91
-12.62
-17.23
-24.65
-32.85
-39.78
-44.12
-45.50
-44.15
-40.69
-35.78
-30.22
-24.97
-21.19
-19.97
-21.92
-26.92
-33.88
-41.02
-46.31
-48.12
-45.83
-40.12
-32.79
-26.21
-22.56
-22.91
-26.86
-32.52
-37.03
-37.50
-31.96
-20.15
-3.75
14.01
29.37
39.24
42.32
39.50
33.50
27.84
25.45
27.73
34.12
42.54
50.36
55.28
56.03
52.37
44.93
34.73
23.03
11.18
0.64
-7.20
-11.28
-11.32
-8.00
-2.87
2.03
4.90
4.79
2.01
-1.98
-5.10
-5.65
-3.11
1.46
5.81
7.44
4.82
-1.86
-10.65
-18.73
-23.57
-23.92
-20.08
-13.40
-5.67
1.53
7.07
10.23
10.57
7.91
2.51
-4.78
-12.66
-19.73
-24.97
-27.98
-28.79
-27.75
-25.24
-21.56
-16.86
-11.23
-4.99
1.25
6.59
10.49
12.56
12.58
10.54
6.80
2.13
-2.41
-5.70
-6.92
-5.21
-0.41
6.58
14.07
20.34
24.48
26.62
27.75
29.16
32.53
38.90
47.86
57.75
66.50
72.56
75.50
75.97
70.89
59.59
44.52
29.33
16.13
4.29
-7.99
-22.14
-38.34
-55.49
-70.58
-80.00
-80.59
-70.25
-48.85
-18.20
18.14
55.43
88.66
109.42
112.85
98.71
70.85
34.98
-2.45
-35.55
-60.02
-73.91
-77.40
-72.16
-62.52
-51.35
-41.29
-33.81
-28.97
-25.77
-22.94
-19.36
-13.56
-5.84
2.70
10.09
14.73
15.98
14.28
10.76
6.87
4.04
2.72
2.67
2.72
2.17
1.30
1.25
2.68
5.10
7.26
7.71
5.93
1.81
-3.46
-7.60
-8.18
-3.97
4.43
14.97
24.89
31.54
31.98
25.14
13.10
0.52
-7.19
-5.97
5.11
23.36
42.61
53.39
47.40
21.48
-21.12
-72.60
-123.46
-165.20
-191.85
-192.23
-163.32
-114.80
-63.85
-23.89
0.62
12.18
16.35
19.31
25.77
36.84
51.97
70.08
89.54
107.49
120.47
122.48
111.00
87.81
57.11
24.86
-2.65
-20.87
-28.55
-27.70
-22.09
-15.08
-9.29
-7.27
-10.57
-18.93
-30.44
-42.35
-52.05
-57.34
-56.41
-48.61
-35.40
-19.77
-5.09
5.77
11.08
10.56
5.42
-1.67
-7.02
-8.05
-5.10
-0.67
3.15
6.16
9.59
14.71
21.49
28.17
31.91
30.34
23.56
13.32
2.51
-6.11
-11.10
-12.83
-12.91
-13.38
-15.77
-20.37
-26.16
-31.30
-33.89
-31.46
-23.10
-9.61
6.38
21.24
31.68
35.94
34.33
28.74
21.67
15.07
10.04
6.99
6.11
7.75
12.22
19.25
27.66
35.44
40.43
41.39
38.49
33.20
27.53
23.15
20.69
19.78
19.36
18.24
15.70
11.59
6.35
0.80
-4.03
-7.03
-7.22
-4.10
2.00
9.78
17.12
21.67
21.73
16.93
8.45
-1.39
-10.10
-15.92
-18.34
-17.91
-15.71
-12.77
-9.87
-7.69
-7.15
-9.29
-14.87
-23.70
-34.24
-43.89
-49.96
-50.80
-46.58
-39.22
-31.54
-25.95
-23.41
-23.16
-23.23
-21.55
-16.96
-9.80
-1.64
5.39
9.48
9.84
6.80
1.58
-4.32
-9.49
-13.01
-14.36
-13.33
-9.89
-4.28
2.90
10.56
17.38
22.27
24.77
25.26
24.69
24.02
23.82
24.13
24.66
25.17
25.57
25.81
25.56
24.33
21.76
17.99
13.95
10.83
9.39
9.51
10.51
11.97
14.28
18.30
24.32
30.98
35.34
34.27
26.30
12.71
-2.99
-17.05
-27.50
-34.89
-41.41
-48.90
-57.18
-64.05
-66.57
-63.01
-53.84
-41.51
-29.25
-19.74
-14.47
-13.45
-15.67
-19.64
-23.85
-27.06
-28.38
-27.47
-24.57
-20.54
-16.64
-14.32
-14.93
-19.29
-27.08
-36.38
-44.16
-47.29
-43.77
-33.36
-17.56
0.99
19.28
34.69
45.58
51.15
51.32
46.85
39.59
32.47
29.16
31.80
39.26
48.26
55.53
59.83
61.76
62.87
64.90
68.93
74.83
80.67
84.69
85.60
82.77
76.20
66.25
53.42
38.26
21.53
4.47
-11.07
-23.48
-32.10
-37.41
-40.44
-41.68
-40.55
-35.73
-26.25
-12.49
3.14
16.80
24.62
24.42
16.58
3.78
-10.24
-22.25
-30.65
-35.96
-40.23
-45.80
-53.77
-63.01
-70.55
-73.00
-68.45
-57.65
-43.88
-31.43
-23.56
-21.05
-22.17
-23.96
-23.79
-20.59
-14.84
-7.97
-1.34
4.36
9.08
13.06
16.36
18.72
19.73
19.25
17.66
15.87
15.01
15.87
18.52
22.11
25.18
26.18
23.98
18.26
9.42
-1.54
-13.36
-24.69
-34.24
-40.94
-44.27
-44.46
-42.51
-39.98
-38.29
-38.18
-39.37
-40.68
-40.67
-38.22
-33.03
-25.67
-17.25
-9.01
-1.96
3.32
6.70
8.45
9.10
9.27
9.54
10.20
11.24
12.33
12.99
12.67
10.88
7.26
1.71
-5.44
-13.33
-20.52
-25.37
-26.59
-23.76
-17.65
-9.97
-2.70
2.67
5.73
7.20
8.49
11.04
15.76
22.72
31.18
39.82
47.21
52.09
53.75
52.14
47.89
42.08
35.90
30.30
25.87
22.80
21.04
20.36
20.37
20.43
19.63
16.98
11.81
4.25
-4.65
-13.15
-19.55
-22.95
-23.66
-23.06
-22.97
-24.77
-28.88
-34.63
-40.67
-45.55
-48.19
-48.12
-45.35
-40.31
-33.65
-26.24
-19.11
-13.40
-10.11
-9.83
-12.40
-16.88
-21.68
-25.03
-25.54
-22.73
-17.17
-10.35
-4.22
-0.51
-0.19
-3.10
-7.93
-12.46
-14.27
-11.57
-3.98
7.07
18.60
27.02
29.37
24.52
13.68
0.07
-12.16
-19.35
-19.49
-12.70
-0.90
13.05
26.36
37.02
44.04
47.31
47.25
44.56
40.15
35.09
30.50
27.31
25.89
25.84
26.06
25.10
21.74
15.46
6.69
-3.26
-12.53
-19.20
-21.83
-19.92
-14.10
-6.13
1.61
6.69
7.41
3.31
-4.76
-14.90
-24.79
-32.31
-36.09
-35.61
-31.25
-24.04
-15.48
-7.24
-0.84
2.71
3.22
1.43
-1.30
-3.46
-4.00
-2.77
-0.43
1.83
2.83
1.80
-1.38
-6.11
-11.11
-14.62
-14.77
-10.24
-0.92
11.66
24.48
33.95
37.14
32.89
22.28
8.21
-5.71
-16.39
-22.14
-22.87
-19.64
-13.93
-7.06
-0.02
6.54
12.02
15.91
17.88
18.00
17.03
16.25
17.10
20.69
27.27
35.93
44.59
50.40
50.50
43.20
28.88
10.31
-8.10
-21.85
-28.03
-26.30
-18.76
-8.88
0.10
6.23
9.04
9.02
6.82
2.91
-2.11
-7.41
-11.83
-14.15
-13.57
-10.23
-5.30
-0.65
1.89
1.84
-0.14
-2.52
-3.55
-1.86
2.98
10.32
18.66
26.36
32.89
38.35
43.17
47.81
52.66
57.70
62.38
65.68
66.48
64.89
61.51
57.13
52.54
48.67
46.29
45.95
47.82
46.40
38.57
24.49
6.85
-11.73
-29.64
-45.80
-59.06
-68.42
-73.57
-74.24
-71.07
-65.49
-59.62
-54.14
-49.38
-45.43
-42.29
-39.94
-37.59
-34.57
-30.67
-26.20
-21.63
-17.73
-15.19
-14.48
-15.75
-18.22
-20.75
-22.29
-22.23
-20.38
-17.18
-13.47
-10.34
-8.88
-9.62
-12.66
-17.62
-23.77
-30.10
-35.70
-39.98
-42.80
-44.48
-45.48
-46.32
-47.43
-48.95
-50.67
-51.93
-51.70
-48.82
-42.37
-32.04
-18.47
-3.09
12.24
25.76
36.15
42.76
45.48
44.57
40.61
34.48
27.45
21.05
16.66
15.09
16.26
19.14
22.15
23.74
22.89
19.45
14.05
7.89
2.39
-1.29
-2.48
-1.33
1.22
3.64
4.20
1.52
-5.05
-15.26
-28.00
-41.46
-53.33
-61.08
-62.50
-56.55
-44.15
-28.28
-13.25
-2.94
1.04
0.40
-0.50
3.19
14.18
31.36
50.08
64.47
70.25
66.79
57.16
46.43
39.15
37.48
40.82
46.86
53.25
58.79
63.67
68.70
74.23
79.51
82.93
82.93
78.96
71.94
63.85
56.74
51.63
47.95
43.81
37.03
26.27
11.91
-3.85
-17.67
-26.21
-27.31
-20.77
-8.35
6.82
21.34
32.48
38.85
40.37
37.93
32.77
26.10
18.91
11.90
5.45
-0.52
-6.38
-12.59
-19.30
-26.03
-31.70
-35.25
-36.66
-37.60
-41.11
-50.24
-66.32
-88.02
-111.82
-133.54
-150.10
-160.36
-164.72
-163.89
-157.93
-146.26
-128.35
-104.79
-77.59
-49.75
-24.08
-2.37
14.97
28.44
38.87
47.01
53.39
58.18
61.28
62.46
61.61
58.91
54.97
50.62
46.56
43.01
39.60
35.74
31.11
26.01
21.15
17.36
14.96
13.69
12.65
10.74
7.22
2.04
-4.13
-10.17
-14.88
-17.35
-16.88
-13.44
-7.69
-0.76
6.06
11.69
15.48
17.33
17.73
17.97
19.27
22.47
27.92
35.67
45.27
55.69
65.27
72.17
75.56
75.16
71.26
64.78
57.23
50.19
44.63
40.75
38.20
37.27
37.85
39.17
40.13
39.98
38.52
35.86
32.19
22.77
6.88
-11.86
-28.13
-38.72
-43.21
-42.84
-39.36
-35.10
-31.96
-30.24
-29.80
-30.43
-31.89
-33.52
-34.39
-34.20
-33.47
-33.06
-33.03
-33.37
-34.30
-36.33
-39.27
-42.36
-44.67
-45.37
-43.98
-40.21
-35.18
-31.36
-31.58
-36.48
-43.84
-49.55
-49.64
-42.39
-28.93
-13.62
-0.95
2.51
-7.05
-26.70
-47.76
-60.63
-59.32
-42.61
-14.42
17.84
45.79
63.73
70.08
66.93
59.70
51.03
42.37
33.77
24.66
14.63
4.77
-2.91
-6.58
-5.46
-0.93
4.49
8.01
8.34
6.15
4.36
5.43
9.65
14.61
16.27
11.74
1.14
-11.77
-21.69
-22.69
-13.60
1.00
13.64
18.35
13.49
1.57
-13.00
-26.97
-39.01
-49.13
-56.61
-59.01
-53.65
-39.83
-21.45
-2.94
10.70
16.93
17.06
15.87
18.99
29.37
45.61
61.92
71.68
70.85
60.08
43.44
26.05
11.51
0.87
-6.88
-12.97
-17.65
-20.26
-19.70
-16.06
-10.88
-6.93
-7.23
-14.13
-28.28
-48.09
-70.08
-88.68
-98.02
-93.74
-74.71
-43.82
-7.29
27.84
54.42
69.39
73.49
69.79
61.73
51.88
41.88
31.72
21.83
13.00
6.27
2.15
0.54
0.91
2.55
4.54
6.11
6.92
7.01
7.11
7.90
9.79
12.62
15.62
17.64
17.62
15.16
10.64
5.19
-0.10
-4.39
-7.43
-9.82
-12.60
-16.75
-22.64
-30.00
-36.33
-40.02
-40.51
-38.44
-35.34
-32.59
-30.82
-29.74
-28.52
-26.28
-22.86
-19.00
-14.60
-9.65
-4.09
2.14
8.95
16.20
23.75
30.66
36.11
39.74
41.31
40.73
38.91
35.96
32.19
28.08
23.90
19.74
15.48
10.59
4.49
-3.32
-12.80
-23.23
-33.50
-42.55
-49.61
-54.47
-57.58
-59.76
-61.67
-63.65
-65.41
-66.32
-65.75
-63.27
-58.77
-52.51
-44.94
-36.53
-27.77
-19.07
-10.74
-3.06
3.79
9.66
14.45
18.18
20.95
23.02
24.80
26.70
29.09
32.09
35.62
39.45
43.27
46.79
49.87
52.42
54.39
55.69
56.13
55.55
53.83
51.10
47.72
44.24
41.15
38.66
36.59
34.45
31.73
28.13
23.82
19.29
15.16
11.90
9.64
8.18
7.20
6.34
5.39
4.20
2.75
1.04
-0.83
-2.68
-4.30
-5.52
-6.20
-6.27
-5.71
-4.57
-3.00
-1.30
0.12
0.95
1.04
0.65
0.24
0.32
1.13
2.54
4.13
5.43
6.14
6.23
5.84
5.05
3.82
1.97
-0.67
-4.01
-7.69
-11.18
-13.95
-15.77
-16.76
-17.34
-18.01
-19.11
-20.69
-22.50
-24.12
-25.22
-25.63
-25.50
-25.11
-24.75
-24.53
-24.33
-23.85
-22.82
-21.16
-19.12
-17.14
-15.66
-14.93
-14.88
-15.25
-15.76
-16.24
-16.74
-17.38
-18.23
-19.16
-19.93
-20.30
-20.15
-19.62
-19.04
-18.75
-18.93
-19.44
-19.91
-19.84
-18.91
-17.16
-14.99
-13.01
-11.74
-11.32
-11.46
-11.56
-11.04
-9.56
-7.23
-4.40
-1.35
1.90
5.59
9.96
15.02
20.39
25.49
29.94
33.81
37.60
41.89
46.76
51.61
55.33
56.86
55.78
52.54
48.19
43.78
39.81
36.13
32.15
27.39
21.83
15.97
10.62
6.46
3.70
2.07
1.03
-0.00
-1.32
-2.85
-4.29
-5.36
-5.98
-6.40
-6.99
-8.02
-9.42
-10.72
-11.31
-10.73
-8.95
-6.39
-3.66
-1.23
0.80
2.68
4.77
7.28
10.14
13.03
15.58
17.55
18.84
19.47
19.52
19.01
17.94
16.30
14.12
11.49
8.60
5.67
2.91
0.41
-1.93
-4.36
-7.17
-10.49
-14.23
-17.97
-21.14
-23.25
-24.01
-23.47
-21.92
-19.73
-17.25
-14.68
-12.12
-9.63
-7.28
-5.23
-3.68
-2.82
-2.71
-3.20
-3.95
-4.57
-4.72
-4.32
-3.48
-2.48
-1.58
-0.94
-0.53
-0.26
0.01
0.36
0.81
1.30
1.72
1.94
1.84
1.34
0.48
-0.65
-1.93
-3.27
-4.61
-5.91
-7.04
-7.81
-7.98
-7.43
-6.20
-4.54
-2.78
-1.19
0.11
1.21
2.25
3.35
4.46
5.43
6.02
6.09
5.65
4.91
4.17
3.69
3.59
3.77
4.03
4.15
3.97
3.51
2.92
2.39
2.02
1.77
1.50
1.10
0.53
-0.14
-0.82
-1.37
-1.79
-2.16
-2.58
-3.09
-3.44
-3.32
-2.50
-0.92
1.27
3.74
6.03
7.76
8.83
9.62
10.56
11.79
13.31
15.02
16.74
18.21
19.12
19.33
19.22
19.02
18.54
17.68
16.57
15.39
14.18
12.64
10.48
7.98
5.10
1.15
-4.55
-12.34
-22.16
-33.44
-45.59
-58.28
-71.70
-83.61
-93.18
-100.43
-104.84
-104.15
-95.53
-78.38
-58.94
-40.15
-24.72
-14.21
-8.19
-4.92
-2.80
-0.46
2.10
5.15
10.49
19.76
33.32
49.51
64.99
75.97
79.70
75.16
63.05
45.14
21.72
-5.93
-35.00
-61.02
-78.87
-84.44
-76.32
-56.56
-30.07
-3.25
18.57
32.82
40.11
43.11
44.68
46.30
48.68
50.63
51.21
50.35
48.40
45.53
41.26
34.64
24.96
12.58
-0.82
-12.51
-19.78
-21.10
-16.67
-8.13
2.04
11.10
17.00
18.77
16.71
11.82
5.41
-1.18
-6.67
-9.92
-10.08
-6.93
-1.14
5.68
11.37
13.88
11.95
5.52
-4.23
-15.31
-25.34
-32.44
-35.73
-35.55
-33.18
-30.22
-28.02
-27.22
-27.63
-28.17
-27.65
-25.28
-20.88
-14.74
-7.33
0.53
7.72
12.98
15.68
15.63
12.92
8.13
2.30
-3.09
-6.91
-8.80
-9.02
-7.50
-4.48
-0.97
1.79
2.88
2.53
1.24
-0.39
-1.59
-0.25
5.79
17.33
33.70
52.61
71.00
84.72
89.55
78.12
48.67
7.59
-33.30
-62.65
-77.71
-78.08
-64.65
-38.40
-2.12
41.24
88.06
129.82
156.45
161.04
143.32
107.84
61.13
10.66
-35.15
-69.04
-87.31
-90.14
-80.92
-65.16
-47.25
-31.28
-20.46
-16.21
-18.56
-26.16
-35.85
-42.96
-42.07
-30.70
-11.52
8.75
22.66
25.48
17.75
5.28
-4.24
-4.76
4.65
19.54
33.23
39.89
36.70
24.32
6.29
-13.84
-31.75
-42.56
-41.69
-26.68
0.36
32.03
57.75
67.92
57.88
30.16
-7.10
-44.20
-72.84
-89.07
-95.01
-94.66
-89.92
-80.06
-63.94
-43.07
-21.83
-5.39
3.24
5.00
3.95
4.13
7.14
11.50
14.51
14.78
13.08
11.30
10.78
11.32
11.67
11.00
10.24
11.95
19.04
32.15
49.21
66.38
79.84
87.28
88.21
83.23
71.90
55.22
33.21
6.05
-24.15
-52.98
-74.60
-84.06
-79.76
-64.53
-45.24
-28.76
-20.06
-19.77
-24.28
-28.09
-26.91
-19.95
-9.77
0.02
7.08
11.42
14.98
19.49
24.64
28.24
27.78
22.53
14.42
6.98
3.41
4.94
10.19
15.99
19.36
18.58
13.84
6.91
0.04
-5.05
-7.61
-7.82
-6.54
-4.56
-2.35
-0.27
1.30
2.00
1.68
0.64
-0.40
-0.76
0.32
3.27
7.91
13.74
20.23
26.50
31.24
32.73
29.57
22.37
15.09
12.49
17.05
27.11
37.38
41.88
37.52
24.83
8.01
-7.86
-19.61
-27.13
-32.24
-36.79
-41.27
-42.38
-40.27
-36.10
-31.60
-27.80
-24.16
-18.62
-9.30
3.58
16.91
25.48
25.38
15.33
-1.59
-20.39
-35.64
-43.73
-44.30
-40.03
-35.74
-36.23
-44.84
-61.92
-84.32
-105.27
-115.77
-107.76
-77.83
-29.45
27.18
78.87
115.33
130.69
123.36
98.53
66.38
38.27
22.76
22.09
32.52
46.98
57.81
58.96
48.42
29.19
8.31
-6.56
-12.21
-11.08
-9.42
-13.74
-28.57
-54.38
-87.46
-121.84
-142.93
-139.45
-115.52
-87.97
-70.09
-64.50
-65.97
-67.24
-63.39
-53.75
-44.66
-40.46
-42.11
-46.19
-47.69
-43.18
-32.44
-18.03
-3.75
6.38
10.29
9.46
8.35
10.94
18.34
28.74
38.77
45.24
45.63
39.27
27.47
13.14
-0.80
-12.23
-19.84
-22.97
-21.45
-16.00
-7.61
2.69
14.25
26.29
37.76
47.43
54.10
56.88
55.36
50.04
42.36
34.55
28.84
26.75
28.67
33.85
40.74
47.60
53.15
56.77
58.55
59.04
58.89
58.61
58.50
58.68
59.17
59.91
60.68
60.99
60.05
56.95
51.08
42.37
31.49
19.70
8.40
-1.24
-8.62
-13.67
-16.69
-18.12
-18.36
-17.77
-16.69
-15.47
-14.55
-14.33
-15.18
-17.34
-20.77
-25.15
-29.89
-34.26
-37.61
-39.55
-40.02
-39.21
-37.46
-35.09
-32.35
-29.44
-26.55
-23.89
-21.71
-20.28
-19.81
-20.35
-21.71
-23.41
-24.69
-24.69
-22.80
-18.89
-13.47
-7.49
-1.87
2.89
6.98
10.99
15.51
20.73
26.41
32.06
37.30
41.95
45.96
49.12
51.01
51.10
49.06
44.97
39.39
33.10
26.79
20.87
15.59
11.12
7.66
5.31
3.80
2.46
0.35
-3.37
-9.04
-16.33
-24.37
-32.04
-38.34
-42.60
-44.50
-44.10
-41.63
-37.55
-32.40
-26.78
-21.23
-16.15
-11.69
-7.82
-4.37
-1.18
1.79
4.44
6.53
7.78
7.99
7.17
5.64
3.92
2.55
1.83
1.69
1.77
1.62
0.94
-0.28
-1.78
-3.27
-4.56
-5.68
-6.79
-8.09
-9.73
-11.72
-14.01
-16.35
-18.38
-19.53
-19.20
-16.86
-12.25
-5.56
2.66
11.52
20.03
27.20
32.16
34.32
33.52
30.18
25.27
20.07
15.80
13.10
11.88
11.42
10.68
8.86
5.58
0.94
-4.73
-11.16
-18.13
-25.26
-31.81
-36.76
-39.26
-39.22
-37.52
-35.48
-33.99
-32.72
-30.19
-24.68
-15.49
-3.70
8.15
17.19
21.61
21.32
17.76
12.86
8.24
4.77
2.83
2.77
5.10
10.30
18.36
28.51
39.30
49.04
56.32
60.48
61.64
60.36
57.13
52.01
44.65
34.88
23.30
11.59
2.09
-3.13
-3.31
0.61
6.40
11.50
14.16
13.87
11.18
7.04
2.21
-2.90
-8.01
-12.58
-15.75
-16.57
-14.38
-9.13
-1.51
7.34
16.22
24.25
31.04
36.54
40.80
43.60
44.40
42.63
38.08
31.36
23.81
17.01
12.09
9.22
7.61
6.08
3.73
0.36
-3.62
-7.60
-11.22
-14.39
-17.09
-19.05
-19.80
-19.11
-17.41
-16.00
-16.50
-20.10
-26.83
-35.47
-44.06
-50.72
-54.34
-54.75
-52.48
-48.32
-42.95
-36.93
-30.74
-24.88
-19.80
-15.80
-12.86
-10.75
-9.09
-7.60
-6.15
-4.83
-3.87
-3.47
-3.71
-4.34
-4.89
-4.80
-3.75
-1.89
0.16
1.60
1.80
0.67
-1.32
-3.46
-5.11
-5.97
-6.01
-5.33
-3.97
-2.10
-0.16
1.10
0.86
-1.23
-4.70
-8.35
-10.78
-11.06
-9.20
-6.09
-3.01
-0.98
-0.47
-1.40
-3.64
-7.07
-11.43
-15.97
-19.34
-19.93
-16.57
-9.13
1.25
12.35
21.78
27.82
29.74
27.70
22.28
14.32
4.96
-4.16
-11.29
-14.66
-12.81
-5.16
7.63
23.61
40.28
55.27
67.05
74.58
77.53
76.44
72.44
66.66
59.93
52.82
45.66
38.70
31.27
22.41
11.54
-1.22
-15.49
-30.97
-47.39
-64.46
-78.24
-84.27
-80.80
-69.82
-54.38
-36.57
-17.72
0.75
16.39
27.84
32.66
29.25
18.35
3.01
-13.03
-27.07
-36.72
-41.15
-40.84
-38.28
-35.56
-33.00
-29.58
-24.42
-17.55
-9.67
-1.70
6.09
12.72
18.33
24.36
32.22
41.54
49.97
54.41
52.26
42.48
24.16
-1.63
-31.80
-62.50
-90.49
-113.03
-127.28
-130.74
-114.37
-79.17
-38.20
-7.56
4.86
1.33
-10.46
-22.48
-29.72
-30.93
-28.46
-24.02
-16.67
-4.21
14.10
35.84
56.05
69.10
71.21
61.13
42.36
22.11
7.75
3.01
6.61
13.87
19.98
22.76
22.54
22.13
24.30
29.72
36.35
40.75
40.28
34.40
24.53
12.39
-0.88
-13.91
-26.28
-38.40
-50.91
-63.72
-75.89
-83.66
-82.60
-68.99
-41.47
-2.28
42.64
84.80
115.42
127.83
119.51
93.21
56.69
20.46
-5.76
-16.24
-10.80
5.88
27.08
46.75
61.27
69.64
72.43
70.33
63.62
52.62
37.48
20.55
4.75
-7.56
-15.38
-19.29
-21.02
-22.63
-25.63
-30.41
-36.06
-41.03
-43.82
-43.68
-41.07
-37.62
-35.54
-36.64
-41.61
-49.73
-59.39
-68.85
-76.91
-83.21
-88.12
-92.22
-95.76
-98.48
-99.54
-98.07
-93.50
-85.77
-75.33
-63.01
-49.71
-36.20
-23.00
-10.39
1.50
12.57
22.72
31.88
39.97
46.98
52.89
57.68
61.27
63.54
64.36
63.70
61.69
58.56
54.66
50.32
45.85
41.43
37.12
32.88
28.58
24.10
19.34
14.28
8.98
3.57
-1.85
-7.18
-12.29
-16.95
-20.87
-23.69
-25.15
-25.22
-24.02
-21.82
-18.87
-15.36
-11.44
-7.29
-3.19
0.52
3.60
5.96
7.69
9.00
10.05
10.91
11.57
12.01
12.23
12.28
12.18
11.90
11.37
10.55
9.48
8.32
7.18
6.14
5.12
3.97
2.54
0.76
-1.38
-3.81
-6.43
-9.14
-11.76
-14.01
-15.55
-16.02
-15.27
-13.40
-10.76
-7.84
-5.07
-2.63
-0.49
1.52
3.55
5.57
7.35
8.60
9.10
8.85
8.06
7.08
6.22
5.65
5.39
5.36
5.47
5.65
5.84
6.01
6.11
6.06
5.79
5.22
4.28
2.88
0.97
-1.47
-4.39
-7.63
-10.94
-13.97
-16.34
-17.69
-17.75
-16.42
-13.85
-10.35
-6.35
-2.24
1.71
5.33
8.53
11.24
13.41
14.97
15.89
16.23
16.08
15.62
15.05
14.50
14.03
13.58
13.01
12.21
11.11
9.74
8.17
6.53
4.90
3.33
1.80
0.26
-1.39
-3.27
-5.53
-8.21
-11.24
-14.32
-17.03
-18.91
-19.59
-18.87
-16.74
-13.39
-9.15
-4.40
0.43
4.99
9.07
12.54
15.39
17.60
19.19
20.20
20.69
20.81
20.71
20.53
20.33
20.09
19.69
19.04
18.08
16.82
15.36
13.83
12.34
10.93
9.55
8.10
6.47
4.58
2.42
0.02
-2.57
-5.25
-7.87
-10.17
-11.83
-12.50
-11.95
-10.17
-7.35
-3.81
0.10
4.12
8.07
11.88
15.52
18.93
21.99
24.57
26.49
27.58
27.82
27.30
26.27
25.02
23.84
22.86
22.02
21.16
20.05
18.57
16.70
14.54
12.11
9.41
6.34
2.90
-0.76
-4.27
-7.19
-9.24
-10.49
-11.33
-12.26
-13.53
-14.94
-15.87
-15.57
-13.52
-9.74
-4.69
0.94
6.53
11.80
16.67
21.28
25.68
29.84
33.65
36.95
39.52
41.11
41.37
39.93
36.50
31.12
24.24
16.78
9.91
4.74
1.95
1.57
2.92
4.85
6.09
5.60
2.72
-2.77
-10.83
-21.16
-33.28
-46.38
-59.28
-70.63
-79.20
-84.25
-85.84
-84.79
-82.31
-79.58
-77.27
-75.44
-73.63
-71.17
-67.49
-62.28
-55.42
-46.95
-36.98
-25.79
-14.02
-2.68
7.02
14.12
18.28
19.96
20.22
20.20
20.62
21.53
22.45
22.81
22.32
21.16
19.79
18.61
17.65
16.53
14.65
11.56
7.12
1.58
-4.58
-10.82
-16.70
-21.85
-25.94
-28.64
-29.60
-28.67
-25.97
-22.01
-17.53
-13.40
-10.34
-8.83
-8.98
-10.55
-13.06
-15.80
-18.03
-19.09
-18.59
-16.53
-13.27
-9.37
-5.45
-1.94
0.96
3.26
5.12
6.71
8.18
9.58
10.89
12.02
12.83
13.20
13.07
12.45
11.43
10.10
8.52
6.80
5.11
3.77
3.21
3.77
5.57
8.39
11.76
15.10
17.98
20.19
21.75
22.75
23.25
23.23
22.59
21.28
19.31
16.88
14.27
11.83
9.87
8.58
7.97
7.93
8.27
8.85
9.56
10.36
11.20
11.97
12.52
12.66
12.28
11.31
9.79
7.75
5.22
2.17
-1.38
-5.32
-9.38
-13.13
-16.06
-17.73
-17.86
-16.49
-13.92
-10.64
-7.15
-3.89
-1.19
0.80
2.07
2.70
2.85
2.69
2.38
2.04
1.81
1.79
2.09
2.80
3.87
5.20
6.59
7.85
8.88
9.65
10.18
10.46
10.44
10.05
9.24
8.05
6.53
4.74
2.67
0.26
-2.50
-5.51
-8.46
-10.93
-12.48
-12.79
-11.79
-9.70
-6.92
-3.91
-1.08
1.35
3.34
4.90
6.05
6.75
6.91
6.49
5.51
4.12
2.55
1.01
-0.44
-1.89
-3.53
-5.49
-7.77
-10.16
-12.40
-14.25
-15.65
-16.69
-17.52
-18.25
-18.83
-19.17
-19.21
-18.97
-18.57
-18.22
-18.02
-17.91
-17.66
-16.95
-15.45
-12.98
-9.56
-5.43
-0.97
3.42
7.41
10.82
13.62
15.89
17.70
19.08
20.01
20.46
20.43
19.98
19.22
18.22
16.98
15.45
13.54
11.24
8.69
6.12
3.79
1.86
0.37
-0.81
-1.81
-2.74
-3.63
-4.49
-5.37
-6.38
-7.65
-9.26
-11.17
-13.16
-14.88
-15.91
-15.89
-14.57
-11.88
-8.01
-3.28
1.82
6.83
11.37
15.18
18.22
20.52
22.22
23.46
24.29
24.69
24.59
23.98
22.91
21.50
19.90
18.24
16.53
14.74
12.86
10.89
8.90
6.91
4.94
2.96
0.98
-0.87
-2.44
-3.62
-4.43
-5.05
-5.77
-6.83
-8.33
-10.17
-12.11
-13.81
-14.95
-15.22
-14.44
-12.59
-9.83
-6.43
-2.81
0.69
3.77
6.29
8.22
9.62
10.59
11.24
11.62
11.75
11.61
11.16
10.37
9.28
7.94
6.44
4.89
3.38
2.01
0.84
-0.12
-0.95
-1.73
-2.53
-3.38
-4.25
-5.08
-5.88
-6.70
-7.68
-8.92
-10.49
-12.35
-14.36
-16.25
-17.74
-18.53
-18.36
-17.10
-14.73
-11.42
-7.46
-3.24
0.83
4.46
7.44
9.78
11.54
12.83
13.71
14.14
14.08
13.50
12.52
11.36
10.24
9.32
8.58
7.91
7.17
6.32
5.41
4.51
3.62
2.65
1.43
-0.11
-1.91
-3.81
-5.59
-7.18
-8.66
-10.20
-11.95
-13.85
-15.62
-16.85
-17.14
-16.28
-14.32
-11.54
-8.33
-5.05
-1.95
0.87
3.41
5.70
7.77
9.60
11.14
12.34
13.13
13.48
13.37
12.88
12.08
11.10
10.01
8.90
7.80
6.73
5.69
4.71
3.79
2.91
2.02
1.03
-0.13
-1.44
-2.83
-4.20
-5.48
-6.71
-8.00
-9.50
-11.26
-13.13
-14.84
-16.00
-16.27
-15.43
-13.53
-10.75
-7.43
-3.88
-0.41
2.80
5.61
7.95
9.74
10.97
11.63
11.81
11.66
11.39
11.18
11.11
11.14
11.07
10.69
9.86
8.61
7.09
5.53
4.14
3.03
2.18
1.50
0.88
0.22
-0.55
-1.49
-2.62
-3.99
-5.58
-7.36
-9.28
-11.21
-12.99
-14.40
-15.16
-15.05
-13.94
-11.88
-9.10
-5.90
-2.56
0.68
3.70
6.44
8.83
10.76
12.18
13.04
13.39
13.31
12.96
12.44
11.84
11.21
10.55
9.85
9.06
8.19
7.23
6.26
5.36
4.56
3.84
3.06
2.06
0.75
-0.84
-2.53
-4.13
-5.48
-6.60
-7.64
-8.75
-10.01
-11.32
-12.46
-13.15
-13.24
-12.67
-11.55
-9.98
-8.08
-5.89
-3.47
-0.91
1.63
3.98
5.98
7.55
8.71
9.59
10.27
10.78
11.11
11.18
10.93
10.37
9.58
8.63
7.59
6.47
5.27
4.03
2.85
1.85
1.08
0.48
-0.07
-0.75
-1.65
-2.77
-4.00
-5.22
-6.37
-7.45
-8.53
-9.70
-10.97
-12.26
-13.35
-13.97
-13.86
-12.84
-10.91
-8.29
-5.32
-2.37
0.27
2.51
4.41
6.08
7.61
8.95
9.98
10.59
10.69
10.30
9.54
8.56
7.49
6.44
5.47
4.64
3.97
3.48
3.10
2.74
2.28
1.64
0.79
-0.19
-1.23
-2.25
-3.22
-4.17
-5.14
-6.17
-7.24
-8.31
-9.33
-10.23
-10.93
-11.32
-11.25
-10.61
-9.36
-7.57
-5.41
-3.07
-0.74
1.48
3.50
5.24
6.60
7.51
7.98
8.11
8.05
7.93
7.83
7.68
7.39
6.87
6.12
5.21
4.26
3.36
2.51
1.69
0.81
-0.12
-1.08
-1.97
-2.68
-3.18
-3.52
-3.88
-4.47
-5.44
-6.84
-8.57
-10.42
-12.09
-13.31
-13.83
-13.54
-12.39
-10.46
-7.93
-5.07
-2.13
0.65
3.14
5.23
6.88
8.04
8.70
8.88
8.65
8.15
7.55
6.99
6.51
6.10
5.68
5.18
4.56
3.87
3.18
2.54
1.96
1.40
0.76
-0.00
-0.90
-1.84
-2.75
-3.58
-4.38
-5.26
-6.36
-7.73
-9.33
-10.97
-12.40
-13.32
-13.52
-12.94
-11.63
-9.71
-7.37
-4.77
-2.07
0.55
2.95
5.07
6.87
8.41
9.69
10.66
11.21
11.24
10.73
9.80
8.66
7.55
6.59
5.79
5.08
4.38
3.67
2.99
2.38
1.85
1.34
0.77
0.05
-0.84
-1.84
-2.85
-3.77
-4.52
-5.14
-5.77
-6.57
-7.67
-9.07
-10.57
-11.86
-12.55
-12.37
-11.21
-9.19
-6.57
-3.66
-0.77
1.93
4.35
6.47
8.25
9.63
10.51
10.85
10.71
10.26
9.73
9.30
9.04
8.84
8.53
7.97
7.13
6.10
5.05
4.13
3.38
2.81
2.33
1.80
1.10
0.16
-1.02
-2.33
-3.57
-4.62
-5.41
-6.05
-6.75
-7.69
-8.94
-10.38
-11.72
-12.65
-12.90
-12.34
-10.98
-8.99
-6.60
-4.07
-1.62
0.64
2.71
4.67
6.54
8.26
9.66
10.55
10.83
10.59
10.05
9.48
9.05
8.75
8.44
7.95
7.22
6.35
5.50
4.81
4.30
3.83
3.22
2.28
0.97
-0.62
-2.28
-3.78
-4.94
-5.75
-6.34
-6.95
-7.81
-9.00
-10.42
-11.80
-12.84
-13.26
-12.92
-11.79
-9.98
-7.65
-4.99
-2.23
0.43
2.83
4.89
6.59
7.94
8.91
9.46
9.58
9.29
8.72
8.00
7.27
6.54
5.81
5.03
4.23
3.50
2.94
2.59
2.36
2.09
1.62
0.90
0.01
-0.95
-1.84
-2.67
-3.53
-4.55
-5.82
-7.34
-8.99
-10.61
-12.02
-13.06
-13.58
-13.45
-12.56
-10.88
-8.51
-5.69
-2.76
-0.05
2.27
4.19
5.78
7.15
8.32
9.22
9.72
9.76
9.31
8.57
7.75
7.05
6.50
5.95
5.15
3.87
2.10
0.06
-1.72
-2.76
-2.92
-2.49
-2.11
-2.50
-4.13
-7.00
-10.61
-13.81
-15.57
-15.51
-14.04
-12.21
-11.17
-11.83
-14.14
-17.19
-18.73
-16.69
-10.29
-0.42
10.66
20.45
26.74
28.74
26.69
22.90
20.04
20.67
26.99
40.51
61.57
87.93
115.54
138.80
154.25
160.57
158.93
152.30
144.14
137.39
133.12
132.01
123.42
101.35
66.70
27.15
-8.28
-34.83
-48.83
-55.20
-57.76
-58.67
-57.02
-51.32
-42.67
-32.55
-23.04
-15.94
-12.92
-14.00
-18.57
-24.43
-29.50
-32.76
-34.26
-34.89
-35.51
-36.87
-38.59
-40.05
-39.96
-37.56
-32.93
-26.89
-20.53
-14.64
-9.76
-5.74
-2.37
0.70
3.57
5.83
6.72
5.38
1.45
-4.82
-12.33
-19.56
-24.88
-27.16
-26.33
-23.59
-20.65
-18.85
-18.59
-19.14
-19.20
-17.52
-13.52
-7.61
-1.85
1.62
1.73
-1.13
-5.51
-9.48
-11.15
-9.24
-3.45
3.62
8.85
10.11
6.66
-1.28
-12.68
-25.61
-37.26
-44.77
-49.09
-52.45
-56.83
-63.55
-73.44
-86.60
-102.08
-118.39
-134.89
-156.03
-186.19
-225.56
-269.32
-309.79
-339.80
-355.13
-355.37
-321.46
-246.81
-140.46
-22.83
85.70
171.05
225.09
245.38
236.67
210.90
180.75
152.85
130.58
113.68
98.75
81.84
61.85
41.30
27.51
23.91
29.72
40.56
50.44
54.60
51.60
43.24
33.93
26.93
21.17
14.03
4.14
-7.84
-19.73
-29.18
-32.77
-29.68
-21.27
-11.25
-3.38
0.66
1.71
2.46
6.02
14.75
29.17
48.03
68.42
87.05
101.57
111.00
115.50
115.73
112.39
105.74
95.97
83.39
68.61
52.63
36.66
21.88
9.20
-0.87
-8.33
-13.53
-17.12
-19.87
-22.52
-25.44
-28.56
-31.42
-33.40
-34.10
-33.51
-31.89
-29.71
-27.34
-24.90
-22.28
-19.28
-15.74
-11.63
-6.99
-1.87
3.65
9.35
14.85
19.58
22.86
24.12
22.99
19.49
13.97
7.09
-0.32
-7.42
-13.55
-18.31
-21.67
-23.85
-25.15
-25.85
-26.12
-26.01
-25.55
-24.79
-23.79
-22.64
-21.42
-20.19
-19.00
-17.85
-16.68
-15.34
-13.67
-11.59
-9.20
-6.73
-4.46
-2.58
-1.16
-0.13
0.62
1.11
1.29
1.07
0.36
-0.87
-2.59
-4.73
-7.23
-9.97
-12.81
-15.53
-17.88
-19.60
-20.49
-20.42
-19.34
-17.31
-14.52
-11.28
-7.95
-4.84
-2.13
0.17
2.18
4.03
5.78
7.39
8.76
9.77
10.39
10.67
10.74
10.68
10.51
10.20
9.67
8.88
7.85
6.64
5.33
4.00
2.69
1.44
0.27
-0.78
-1.71
-2.56
-3.47
-4.64
-6.26
-8.35
-10.72
-12.86
-14.15
-14.11
-12.59
-9.96
-6.89
-4.16
-2.28
-1.26
-0.71
-0.09
0.97
2.48
4.09
5.28
5.69
5.30
4.49
3.88
4.04
5.27
7.44
10.06
12.45
14.05
14.59
14.20
13.31
12.51
12.27
12.84
14.12
15.79
17.43
18.71
19.52
19.93
20.21
20.68
21.61
23.15
25.32
28.05
31.27
35.05
39.59
45.08
51.38
57.72
62.63
64.29
61.21
52.99
40.82
27.37
16.12
10.22
11.35
19.02
30.61
42.19
49.73
50.34
42.98
28.48
8.88
-13.38
-36.23
-58.21
-78.30
-95.69
-109.55
-119.13
-124.05
-124.56
-121.82
-117.85
-115.39
-117.26
-125.46
-140.05
-158.34
-174.90
-182.78
-175.82
-151.06
-110.29
-59.73
-7.92
37.34
71.41
93.68
106.47
112.94
115.25
113.90
108.47
98.83
86.11
72.56
60.59
51.58
45.25
40.08
34.25
26.75
17.95
9.38
2.97
0.08
0.88
4.29
8.54
11.86
13.22
12.57
10.72
8.80
7.74
7.90
9.07
10.72
12.35
13.69
14.66
15.15
14.87
13.32
10.10
5.32
-0.12
-4.63
-6.47
-4.48
1.30
9.54
17.97
24.24
26.70
24.89
19.53
12.19
4.67
-1.36
-4.78
-5.11
-2.62
1.79
6.76
10.90
13.13
13.04
10.95
7.69
4.29
1.61
0.05
-0.43
-0.28
-0.15
-0.64
-2.23
-5.07
-9.02
-13.69
-18.65
-23.57
-28.31
-32.89
-37.30
-41.42
-44.88
-47.27
-48.25
-47.75
-46.00
-43.47
-40.70
-38.17
-36.23
-35.08
-34.75
-35.15
-35.93
-36.45
-35.83
-33.25
-28.34
-21.55
-14.11
-7.71
-3.81
-3.00
-4.71
-7.44
-9.42
-9.40
-7.19
-3.64
-0.10
2.24
2.84
1.79
-0.50
-3.70
-7.58
-11.86
-15.86
-18.44
-18.45
-15.27
-9.23
-1.61
6.07
12.70
17.77
21.17
22.50
20.83
14.99
4.45
-10.03
-26.21
-41.02
-51.47
-55.43
-51.83
-40.58
-22.34
1.60
29.29
58.32
86.24
111.14
132.00
148.63
161.17
169.62
173.70
173.28
168.93
162.25
155.50
150.82
149.32
150.57
152.69
152.94
148.46
137.12
118.06
91.99
61.06
28.38
-2.72
-29.49
-50.25
-64.50
-72.63
-75.49
-74.12
-69.64
-63.28
-56.38
-50.12
-45.16
-41.44
-38.18
-34.27
-28.83
-21.72
-13.74
-6.36
-1.19
0.63
-1.23
-6.44
-14.42
-24.78
-37.41
-52.21
-68.57
-85.17
-100.20
-112.00
-119.74
-123.72
-125.29
-126.35
-128.66
-133.14
-139.43
-145.71
-149.03
-146.17
-134.93
-115.30
-89.88
-63.28
-40.38
-24.46
-15.97
-12.65
-11.00
-8.12
-3.36
1.36
2.47
-3.19
-16.31
-34.03
-50.48
-58.88
-54.15
-35.15
-5.49
27.21
53.66
66.07
60.89
40.31
12.08
-12.62
-23.02
-12.64
17.54
58.46
95.69
115.03
108.69
79.15
38.89
5.28
-6.81
8.55
45.91
90.87
126.57
140.91
130.92
102.98
69.12
41.57
28.14
30.13
42.80
57.89
67.08
64.86
50.39
27.74
4.22
-12.52
-17.35
-9.69
6.16
22.86
33.21
33.17
23.40
8.56
-5.23
-13.45
-14.72
-10.67
-4.25
2.32
8.70
15.77
24.10
32.75
39.10
40.19
34.58
23.43
10.38
-0.00
-4.16
-1.12
7.25
16.90
23.05
21.84
11.78
-5.28
-24.47
-39.62
-45.94
-42.29
-31.72
-19.75
-12.14
-12.60
-21.44
-35.66
-50.27
-59.92
-60.17
-48.57
-25.15
6.01
36.90
58.32
63.55
51.17
25.64
-4.58
-30.63
-45.91
-49.57
-46.48
-43.47
-45.53
-53.69
-64.93
-73.29
-71.90
-54.62
-20.31
25.19
71.72
108.44
127.35
125.52
105.48
67.34
20.20
-19.92
-40.01
-37.41
-18.52
7.34
32.00
49.77
57.82
56.93
51.72
42.50
29.79
15.04
0.02
-14.01
-26.61
-37.36
-45.53
-51.23
-55.19
-58.77
-63.78
-71.01
-79.25
-86.93
-89.65
-84.02
-70.08
-51.87
-34.96
-24.03
-21.01
-24.40
-31.13
-37.17
-39.29
-36.35
-29.75
-21.98
-15.21
-10.17
-6.22
-2.30
2.49
8.10
13.89
19.35
24.84
31.52
40.64
52.48
65.88
79.01
89.98
97.67
101.88
102.74
100.20
93.64
82.43
66.64
47.87
28.90
12.84
1.83
-4.05
-6.77
-9.40
-14.53
-23.04
-33.87
-44.85
-53.85
-59.66
-62.24
-62.22
-60.34
-56.85
-51.60
-44.60
-36.54
-28.66
-22.19
-17.88
-15.44
-13.87
-11.64
-7.13
0.81
12.47
27.50
45.10
64.19
83.66
100.43
110.41
110.87
102.46
88.69
74.16
63.56
57.92
56.89
58.91
62.03
64.65
65.72
63.81
56.88
42.71
19.92
-10.43
-44.79
-78.03
-105.50
-125.16
-138.30
-148.24
-157.94
-168.21
-177.19
-181.90
-179.97
-170.82
-155.76
-137.12
-117.08
-97.00
-77.59
-59.47
-44.17
-34.28
-32.73
-41.40
-59.34
-81.92
-101.79
-111.51
-106.83
-88.85
-63.59
-39.11
-21.53
-12.40
-8.43
-3.93
5.89
22.49
43.71
65.44
84.08
98.39
109.61
120.23
131.94
144.18
154.15
158.24
154.14
142.30
126.00
109.68
96.68
87.55
79.97
70.43
56.47
38.23
18.37
0.43
-13.17
-22.37
-29.18
-36.07
-44.35
-53.31
-60.73
-64.30
-62.95
-57.41
-49.62
-41.60
-34.45
-28.01
-21.44
-14.04
-5.98
1.64
7.36
10.23
10.30
8.68
6.90
6.12
6.61
7.72
8.34
7.65
5.56
2.78
0.42
-0.61
-0.12
1.34
2.82
3.54
3.29
2.52
1.89
1.82
2.07
1.80
0.05
-3.72
-9.21
-15.33
-20.66
-24.03
-24.91
-23.40
-19.87
-14.71
-8.20
-0.60
7.59
15.68
22.86
28.58
32.63
35.19
36.59
37.04
36.50
34.78
31.74
27.46
22.35
17.05
12.09
7.73
3.86
0.12
-3.87
-8.26
-12.93
-17.59
-21.93
-25.76
-29.07
-31.88
-34.20
-35.92
-36.79
-36.50
-34.81
-31.79
-28.16
-25.38
-25.45
-30.23
-40.60
-55.66
-72.68
-87.74
-96.98
-97.83
-89.74
-74.20
-54.20
-33.47
-15.66
-3.58
1.44
0.13
-4.66
-8.62
-7.25
2.45
20.86
45.65
72.78
98.21
119.24
135.05
146.25
153.93
158.92
161.67
162.60
162.32
161.63
160.93
159.77
156.76
150.20
138.83
122.61
102.80
81.50
60.84
42.32
26.48
13.09
1.53
-8.69
-17.73
-25.39
-31.38
-35.62
-38.42
-40.42
-42.33
-44.61
-47.28
-49.97
-52.21
-53.71
-54.44
-54.58
-54.31
-53.65
-52.51
-50.86
-48.89
-47.16
-46.55
-47.93
-52.04
-59.12
-68.87
-80.36
-92.12
-102.31
-109.03
-110.75
-106.79
-97.51
-84.29
-69.05
-53.67
-39.51
-27.14
-16.47
-6.86
2.59
12.85
24.67
38.15
52.41
65.59
75.55
80.79
81.27
78.47
74.64
71.53
69.46
67.34
63.52
56.96
47.79
37.20
26.58
16.88
8.39
1.03
-5.09
-9.56
-11.93
-12.16
-10.82
-8.85
-7.09
-5.86
-4.90
-3.72
-1.99
0.18
2.38
3.99
4.45
3.37
0.63
-3.61
-8.76
-13.88
-17.84
-19.72
-19.22
-16.85
-13.92
-12.11
-12.84
-16.71
-23.23
-31.09
-38.63
-44.52
-48.02
-49.02
-47.67
-44.21
-38.87
-32.02
-24.35
-16.86
-10.52
-5.89
-2.89
-0.92
0.72
2.43
4.05
5.02
4.82
3.29
0.84
-1.54
-2.50
-0.62
5.13
14.98
28.11
42.87
57.30
69.95
80.39
89.13
97.05
104.59
111.34
116.19
117.91
115.78
109.90
100.93
89.63
76.49
61.68
45.35
27.81
9.74
-7.96
-24.39
-38.82
-50.76
-60.02
-66.57
-70.55
-72.15
-71.53
-68.90
-64.71
-59.82
-55.55
-53.30
-54.04
-57.71
-63.14
-68.48
-72.05
-73.01
-71.61
-68.84
-65.63
-62.31
-58.44
-53.17
-45.88
-36.59
-26.10
-15.67
-6.53
0.60
5.79
9.90
14.22
19.93
27.47
36.26
44.72
50.86
52.96
50.24
42.97
32.24
19.45
5.87
-7.59
-20.29
-31.71
-41.33
-48.64
-53.38
-55.55
-55.59
-54.28
-52.54
-51.30
-51.16
-52.35
-54.52
-56.97
-58.87
-59.66
-59.25
-57.89
-56.09
-54.31
-52.72
-51.15
-49.05
-45.74
-40.69
-33.67
-24.77
-14.57
-4.02
5.74
13.80
19.78
23.97
27.11
30.01
33.28
36.75
39.30
39.40
36.22
30.34
23.77
19.15
18.57
23.07
31.93
42.65
52.08
58.12
60.60
61.05
61.74
64.84
72.52
85.83
103.62
122.26
136.82
142.10
134.26
112.32
79.48
44.10
16.66
5.29
12.24
33.79
61.76
86.71
101.02
95.54
68.18
27.19
-13.67
-45.32
-66.17
-80.86
-93.29
-104.10
-112.13
-115.33
-113.13
-105.55
-95.69
-86.46
-79.14
-73.17
-67.06
-59.57
-49.74
-37.93
-26.03
-16.37
-8.85
-1.63
7.60
19.63
33.18
46.13
56.48
62.50
63.19
59.04
52.46
44.85
37.89
32.78
30.37
30.57
32.16
33.52
33.82
32.88
30.97
28.49
25.13
20.10
12.73
2.59
-9.72
-22.71
-34.81
-45.43
-54.83
-63.64
-72.01
-79.24
-84.59
-87.04
-85.88
-80.79
-72.11
-60.22
-45.31
-27.13
-2.64
27.18
57.14
79.52
88.51
82.31
63.89
39.94
19.32
9.41
11.21
21.85
35.86
48.00
54.68
55.30
51.44
45.85
40.52
37.93
39.31
41.12
41.98
41.33
39.58
35.37
27.64
16.70
4.16
-7.80
-18.76
-28.86
-38.57
-47.62
-55.47
-60.65
-62.19
-61.42
-61.00
-64.55
-71.90
-78.53
-78.29
-68.97
-53.98
-41.20
-38.90
-50.19
-72.72
-98.31
-118.22
-119.76
-100.25
-68.13
-35.88
-15.85
-1.90
12.93
30.73
50.94
68.97
81.08
88.44
96.23
108.70
125.24
137.59
135.91
115.05
77.04
29.44
-17.81
-56.07
-79.62
-84.90
-71.45
-41.01
1.10
44.25
73.99
77.59
50.17
-2.19
-63.73
-115.86
-143.00
-137.86
-103.54
-52.23
-0.91
33.88
41.20
19.21
-25.00
-77.75
-123.68
-150.82
-153.62
-132.97
-94.64
-47.38
-1.35
32.88
46.59
35.83
3.41
-41.30
-85.68
-118.69
-134.46
-132.67
-116.05
-87.47
-49.04
-3.82
42.10
79.61
99.72
98.18
78.52
50.91
27.65
17.24
21.03
34.03
48.78
59.71
65.36
67.59
69.05
70.95
72.61
72.33
69.11
63.42
56.94
51.69
48.86
48.37
49.05
49.31
47.92
44.45
39.37
33.70
28.54
24.68
22.41
21.48
21.30
21.07
20.01
17.52
13.42
7.95
1.85
-3.93
-8.50
-11.32
-12.42
-12.23
-11.41
-10.54
-9.90
-9.59
-9.56
-9.76
-10.12
-10.52
-10.73
-10.53
-9.78
-8.52
-6.96
-5.43
-4.17
-3.31
-2.87
-2.78
-2.95
-3.24
-3.51
-3.63
-3.49
-3.00
-2.16
-1.03
0.24
1.38
2.11
2.17
1.50
0.31
-1.10
-2.48
-3.86
-5.54
-7.88
-10.90
-14.06
-16.33
-16.66
-14.55
-10.33
-5.13
-0.28
3.27
5.45
6.95
8.81
11.83
16.13
21.18
26.05
29.86
32.03
32.43
31.34
29.32
27.14
25.52
24.83
24.74
24.07
21.16
14.53
3.64
-10.73
-26.62
-41.77
-54.44
-64.10
-71.27
-77.08
-82.62
-88.57
-95.06
-101.65
-107.27
-110.29
-108.82
-101.36
-87.59
-68.83
-47.76
-27.46
-10.20
3.36
14.15
23.89
33.94
44.48
54.45
62.22
66.48
67.04
64.91
61.96
60.07
60.47
63.29
67.59
71.87
74.57
74.64
71.76
66.34
59.43
52.38
46.60
43.12
42.40
44.05
47.02
49.86
51.21
50.28
47.03
42.04
36.19
30.22
24.61
19.58
15.22
11.67
9.07
7.37
6.24
5.14
3.54
1.19
-1.68
-4.56
-7.02
-9.14
-11.67
-15.81
-22.55
-32.13
-43.64
-55.19
-64.51
-69.70
-69.92
-65.70
-58.71
-51.14
-44.88
-40.89
-39.00
-38.11
-36.85
-34.14
-29.61
-23.58
-16.73
-9.62
-2.53
4.54
11.50
17.93
23.14
26.49
27.78
27.56
26.89
26.90
28.20
30.63
33.51
36.01
37.54
37.95
37.24
35.31
31.84
26.44
19.08
10.33
1.35
-6.41
-11.71
-13.99
-13.53
-11.39
-9.19
-8.81
-11.91
-19.50
-31.44
-46.16
-60.80
-71.86
-76.26
-72.43
-60.97
-44.48
-26.80
-11.71
-1.83
1.86
-0.08
-6.14
-14.54
-23.64
-32.09
-38.78
-42.70
-42.98
-39.06
-30.88
-19.11
-5.03
9.49
22.30
31.49
35.88
35.44
31.21
25.03
18.87
14.28
11.86
11.37
12.01
12.96
13.64
13.67
12.78
10.75
7.70
4.18
1.12
-0.46
0.16
2.88
6.77
10.39
12.36
12.33
10.61
7.76
4.26
0.51
-3.04
-5.73
-6.73
-5.23
0.04
9.40
21.71
34.62
45.53
52.53
54.91
53.32
49.37
46.45
47.26
52.74
62.09
73.70
86.02
97.57
106.66
111.06
110.58
105.61
97.29
87.62
79.25
74.48
74.11
77.39
72.77
54.43
24.13
-10.93
-44.80
-76.05
-105.50
-132.63
-153.17
-164.47
-163.04
-148.75
-125.78
-100.73
-79.12
-62.99
-52.49
-45.36
-39.06
-30.49
-18.53
-4.24
10.14
22.68
32.54
39.61
44.07
45.52
44.32
40.68
34.88
27.47
19.66
12.96
8.62
7.12
7.83
9.94
12.35
14.08
14.55
13.74
12.04
9.84
7.46
4.87
2.17
-0.49
-2.82
-4.36
-4.57
-3.10
0.01
4.28
8.82
12.70
15.27
16.37
16.28
15.55
14.67
13.91
13.27
12.62
11.88
11.09
10.45
10.18
10.36
10.92
11.58
11.95
11.68
10.60
8.79
6.60
4.45
2.60
1.00
-0.67
-2.85
-5.80
-9.49
-13.66
-17.96
-22.16
-26.19
-29.96
-33.22
-35.43
-35.87
-33.96
-29.54
-22.91
-14.83
-6.21
2.09
9.36
15.12
19.07
21.12
21.29
19.74
16.69
12.40
7.20
1.49
-4.24
-9.55
-14.24
-18.39
-22.34
-26.37
-30.57
-34.67
-38.25
-40.97
-42.78
-43.80
-44.11
-43.57
-41.74
-38.23
-33.03
-26.73
-20.39
-15.03
-11.22
-8.81
-7.13
-5.44
-3.33
-0.94
1.27
2.86
3.71
4.12
4.50
5.15
5.95
6.52
6.38
5.32
3.46
1.23
-0.98
-2.97
-4.82
-6.72
-8.79
-10.94
-12.91
-14.49
-15.70
-16.85
-18.39
-20.64
-23.57
-26.82
-29.89
-32.41
-34.41
-36.31
-38.72
-42.11
-46.61
-51.84
-56.93
-60.72
-61.91
-59.34
-52.35
-41.07
-26.61
-10.79
4.27
16.90
26.28
32.47
36.12
37.92
38.27
37.24
34.79
30.99
26.14
20.62
14.75
8.77
2.84
-2.76
-7.63
-11.36
-13.68
-14.61
-14.41
-13.49
-12.28
-11.11
-10.17
-9.49
-8.83
-7.69
-5.33
-1.00
5.74
14.75
25.28
36.14
46.07
54.18
60.16
64.20
66.80
68.48
69.66
70.61
71.51
72.52
73.72
75.02
76.04
76.10
74.38
70.20
63.32
54.06
43.26
32.03
21.43
12.15
4.44
-1.88
-7.17
-11.68
-15.52
-18.58
-20.73
-21.99
-22.56
-22.73
-22.80
-22.90
-22.97
-22.84
-22.36
-21.53
-20.49
-19.45
-18.55
-17.81
-17.13
-16.34
-15.31
-13.99
-12.37
-10.51
-8.45
-6.26
-4.08
-2.15
-0.75
-0.14
-0.40
-1.36
-2.68
-3.94
-4.88
-5.46
-5.84
-6.26
-6.92
-7.89
-9.15
-10.61
-12.19
-13.79
-15.30
-16.61
-17.64
-18.42
-19.05
-19.68
-20.43
-21.37
-22.48
-23.66
-24.80
-25.79
-26.48
-26.78
-26.62
-25.99
-24.90
-23.35
-21.37
-19.00
-16.34
-13.56
-10.82
-8.31
-6.10
-4.19
-2.55
-1.17
-0.07
0.72
1.21
1.47
1.65
1.86
2.19
2.62
3.06
3.39
3.49
3.28
2.74
1.96
1.11
0.34
-0.20
-0.51
-0.68
-0.92
-1.41
-2.24
-3.39
-4.81
-6.41
-8.19
-10.11
-12.09
-13.94
-15.37
-16.14
-16.12
-15.35
-14.00
-12.30
-10.37
-8.32
-6.26
-4.37
-2.94
-2.28
-2.51
-3.56
-5.12
-6.77
-8.19
-9.17
-9.71
-9.86
-9.66
-9.12
-8.25
-7.10
-5.76
-4.33
-2.89
-1.46
-0.08
1.15
2.07
2.53
2.42
1.85
1.03
0.27
-0.18
-0.24
-0.00
0.30
0.44
0.30
-0.11
-0.68
-1.18
-1.41
-1.21
-0.57
0.39
1.48
2.51
3.41
4.22
5.12
6.24
7.60
9.03
10.25
10.99
11.17
10.90
10.42
10.00
9.77
9.62
9.27
8.42
6.89
4.73
2.28
0.00
-1.66
-2.47
-2.46
-1.91
-1.23
-0.74
-0.65
-0.96
-1.57
-2.34
-3.18
-4.07
-4.95
-5.73
-6.21
-6.15
-5.38
-3.88
-1.83
0.48
2.81
4.99
7.00
8.85
10.52
11.86
12.65
12.66
11.71
9.77
6.97
3.63
0.21
-2.79
-4.97
-6.09
-6.17
-5.44
-4.24
-2.90
-1.73
-0.90
-0.55
-0.68
-1.17
-1.80
-2.27
-2.43
-2.26
-1.98
-1.87
-2.18
-2.98
-4.18
-5.52
-6.71
-7.47
-7.61
-7.07
-5.92
-4.35
-2.60
-0.90
0.60
1.84
2.86
3.66
4.26
4.68
4.96
5.24
5.61
6.11
6.64
6.99
6.97
6.53
5.75
4.87
4.08
3.54
3.26
3.12
2.98
2.70
2.22
1.55
0.82
0.20
-0.20
-0.38
-0.46
-0.69
-1.24
-2.18
-3.41
-4.69
-5.82
-6.63
-7.07
-7.17
-6.89
-6.19
-4.98
-3.24
-1.05
1.31
3.53
5.27
6.34
6.70
6.47
5.88
5.15
4.46
3.92
3.61
3.55
3.76
4.20
4.79
5.42
6.01
6.53
6.94
7.16
7.07
6.50
5.38
3.77
1.85
-0.15
-2.12
-4.07
-6.17
-8.59
-11.46
-14.76
-18.32
-21.81
-24.78
-26.75
-27.31
-26.26
-23.61
-19.70
-14.97
-9.87
-4.73
0.30
5.17
9.78
13.96
17.43
19.85
20.96
20.67
19.08
16.60
13.79
11.27
9.49
8.65
8.60
8.92
9.14
8.89
8.07
6.81
5.40
4.12
3.10
2.35
1.72
1.04
0.21
-0.81
-2.01
-3.31
-4.69
-6.10
-7.47
-8.74
-9.80
-10.52
-10.81
-10.60
-9.95
-8.94
-7.71
-6.37
-4.92
-3.33
-1.57
0.36
2.32
4.13
5.61
6.65
7.27
7.56
7.70
7.82
7.99
8.18
8.31
8.26
7.94
7.36
6.58
5.73
4.90
4.10
3.29
2.39
1.41
0.46
-0.31
-0.83
-1.13
-1.33
-1.62
-2.12
-2.84
-3.72
-4.67
-5.59
-6.39
-6.95
-7.10
-6.67
-5.60
-3.99
-2.07
-0.11
1.71
3.33
4.79
6.12
7.25
8.05
8.42
8.39
8.11
7.80
7.61
7.60
7.68
7.71
7.58
7.23
6.63
5.83
4.85
3.68
2.31
0.68
-1.26
-3.53
-6.04
-8.66
-11.22
-13.54
-15.50
-17.01
-18.00
-18.41
-18.13
-17.09
-15.28
-12.73
-9.51
-5.79
-1.76
2.31
6.07
9.18
11.38
12.51
12.56
11.71
10.27
8.66
7.35
6.76
7.09
8.26
9.91
11.48
12.43
12.39
11.32
9.46
7.24
5.09
3.28
1.84
0.64
-0.57
-1.94
-3.52
-5.21
-6.91
-8.53
-10.10
-11.71
-13.40
-15.14
-16.68
-17.71
-17.89
-17.02
-15.10
-12.37
-9.21
-6.03
-3.09
-0.52
1.74
3.80
5.70
7.41
8.80
9.74
10.19
10.20
9.88
9.39
8.85
8.37
7.97
7.61
7.18
6.54
5.60
4.40
3.14
2.10
1.52
1.46
1.78
2.23
2.59
2.76
2.79
2.73
2.61
2.34
1.86
1.15
0.40
-0.14
-0.23
0.20
1.01
1.91
2.66
3.17
3.52
3.87
4.29
4.67
4.64
3.73
1.52
-2.14
-7.03
-12.47
-17.63
-21.70
-24.15
-24.79
-23.73
-21.27
-17.93
-14.37
-11.40
-9.75
-9.80
-11.36
-13.73
-15.96
-17.35
-17.72
-17.43
-16.99
-16.76
-16.64
-16.26
-15.34
-13.93
-12.56
-11.99
-12.94
-15.70
-20.04
-25.27
-30.39
-34.45
-36.79
-37.22
-35.98
-33.56
-30.52
-27.41
-24.68
-22.75
-21.94
-22.39
-23.94
-26.08
-28.20
-29.87
-31.10
-32.32
-34.16
-37.09
-41.13
-45.86
-50.64
-54.97
-58.61
-61.69
-64.48
-67.34
-70.61
-74.50
-79.15
-84.56
-90.54
-96.74
-102.65
-107.66
-111.07
-112.27
-110.94
-107.26
-101.90
-95.74
-89.27
-82.20
-73.41
-61.55
-45.75
-26.34
-4.82
16.78
36.70
54.03
68.75
81.29
92.11
101.51
109.76
117.34
124.87
132.81
141.08
148.97
155.32
159.04
159.55
156.92
151.76
144.87
137.07
128.98
121.13
113.84
107.26
101.29
95.62
89.81
83.42
76.20
68.10
59.30
50.15
41.16
32.90
25.94
20.73
17.50
16.21
16.58
18.20
20.64
23.54
26.55
29.33
31.52
32.82
33.02
32.14
30.38
28.06
25.54
23.13
20.99
19.21
17.78
16.66
15.72
14.86
13.93
12.81
11.46
9.89
8.17
6.41
4.74
3.26
2.00
0.83
-0.43
-1.93
-3.64
-5.29
-6.38
-6.37
-4.90
-1.93
2.25
7.09
12.00
16.56
20.56
24.04
27.19
30.23
33.22
36.06
38.45
39.97
40.30
39.29
37.05
33.90
30.29
26.63
23.20
20.00
16.79
13.08
8.26
1.72
-6.96
-17.95
-31.03
-45.57
-60.60
-74.96
-87.53
-97.51
-104.59
-108.96
-111.19
-111.90
-111.51
-110.11
-107.55
-103.61
-98.18
-91.35
-83.35
-74.43
-64.82
-54.72
-44.36
-34.06
-24.18
-15.08
-7.06
-0.27
5.25
9.56
12.81
15.16
16.81
17.91
18.55
18.71
18.33
17.40
15.99
14.28
12.46
10.66
8.86
7.01
5.06
3.05
1.14
-0.50
-1.80
-2.84
-3.87
-5.21
-7.14
-9.82
-13.21
-17.08
-20.95
-24.14
-25.79
-25.11
-21.61
-15.32
-6.86
2.68
12.01
20.03
26.03
29.79
31.51
31.66
30.81
29.54
28.38
27.72
27.74
28.37
29.27
29.93
29.76
28.36
25.57
21.59
16.96
12.42
8.69
6.29
5.33
5.52
6.32
7.15
7.58
7.47
6.90
5.99
4.79
3.25
1.27
-1.16
-3.85
-6.42
-8.40
-9.40
-9.21
-7.77
-5.16
-1.49
3.15
8.67
14.84
21.24
27.22
32.02
35.03
35.94
34.93
32.54
29.50
26.51
24.04
22.25
21.06
20.20
19.32
18.14
16.49
14.37
11.91
9.29
6.70
4.22
1.86
-0.43
-2.66
-4.80
-6.85
-8.87
-10.93
-13.20
-15.72
-18.45
-21.12
-23.36
-24.73
-24.92
-23.79
-21.42
-18.11
-14.18
-9.96
-5.69
-1.47
2.68
6.71
10.52
13.91
16.59
18.33
18.97
18.56
17.34
15.65
13.88
12.28
10.94
9.76
8.61
7.40
6.14
4.93
3.81
2.75
1.61
0.22
-1.50
-3.48
-5.51
-7.39
-9.03
-10.51
-12.06
-13.93
-16.22
-18.79
-21.32
-23.36
-24.49
-24.40
-22.96
-20.26
-16.51
-12.06
-7.31
-2.65
1.58
5.16
8.01
10.16
11.72
12.83
13.54
13.86
13.74
13.15
12.12
10.79
9.36
8.08
7.08
6.40
5.93
5.44
4.67
3.42
1.60
-0.74
-3.39
-6.08
-8.54
-10.58
-12.17
-13.44
-14.59
-15.79
-17.12
-18.49
-19.74
-20.65
-21.05
-20.84
-20.01
-18.54
-16.45
-13.75
-10.48
-6.79
-2.89
0.92
4.32
6.96
8.54
8.85
7.87
5.82
3.18
0.63
-1.15
-1.73
-1.06
0.52
2.50
4.44
6.23
7.99
9.97
12.17
14.27
15.62
15.55
13.70
10.23
5.78
1.24
-2.56
-5.11
-6.32
-6.34
-5.50
-4.08
-2.23
-0.04
2.46
5.19
7.99
10.68
13.17
15.45
17.66
19.94
22.30
24.58
26.41
27.40
27.29
26.10
24.13
21.88
19.90
18.66
18.38
18.99
20.13
21.26
21.80
21.33
19.66
16.95
13.55
9.89
6.22
2.68
-0.76
-4.11
-7.27
-10.12
-12.55
-14.63
-16.62
-18.85
-21.58
-24.83
-28.29
-31.50
-33.95
-35.29
-35.46
-34.58
-32.89
-30.64
-27.99
-25.03
-21.77
-18.24
-14.50
-10.65
-6.87
-3.31
-0.13
2.55
4.68
6.29
7.44
8.24
8.78
9.17
9.48
9.76
10.06
10.36
10.55
10.49
9.99
8.95
7.37
5.41
3.30
1.25
-0.59
-2.26
-3.87
-5.62
-7.62
-9.87
-12.19
-14.27
-15.74
-16.24
-15.60
-13.80
-11.08
-7.84
-4.56
-1.69
0.51
1.97
2.88
3.51
4.16
5.03
6.11
7.25
8.21
8.79
8.90
8.65
8.20
7.77
7.51
7.45
7.52
7.59
7.51
7.18
6.57
5.72
4.74
3.75
2.89
2.20
1.67
1.17
0.52
-0.48
-1.93
-3.87
-6.23
-8.80
-11.29
-13.36
-14.65
-14.88
-13.98
-12.08
-9.59
-7.01
-4.75
-3.05
-1.84
-0.88
0.06
1.10
2.15
2.98
3.36
3.22
2.68
1.98
1.36
0.93
0.64
0.37
0.04
-0.35
-0.68
-0.86
-0.87
-0.80
-0.82
-1.06
-1.50
-2.03
-2.45
-2.66
-2.70
-2.73
-2.93
-3.39
-4.02
-4.65
-5.06
-5.10
-4.74
-4.05
-3.13
-2.09
-1.00
0.06
1.08
2.07
3.09
4.16
5.23
6.11
6.57
6.42
5.58
4.17
2.48
0.84
-0.48
-1.30
-1.56
-1.30
-0.59
0.48
1.79
3.23
4.66
5.97
7.05
7.77
8.03
7.80
7.13
6.20
5.20
4.30
3.52
2.77
1.89
0.76
-0.65
-2.30
-4.08
-5.88
-7.60
-9.08
-10.16
-10.67
-10.48
-9.54
-7.94
-5.88
-3.59
-1.29
0.82
2.60
3.94
4.80
5.18
5.11
4.70
4.10
3.50
3.05
2.88
2.99
3.29
3.60
3.71
3.51
2.95
2.10
1.12
0.18
-0.61
-1.21
-1.64
-1.98
-2.26
-2.55
-2.89
-3.32
-3.91
-4.75
-5.87
-7.19
-8.54
-9.64
-10.23
-10.16
-9.45
-8.34
-7.12
-6.03
-5.15
-4.40
-3.63
-2.74
-1.72
-0.64
0.41
1.35
2.19
2.90
3.49
3.91
4.11
4.12
4.00
3.87
3.81
3.83
3.87
3.85
3.69
3.39
2.98
2.52
2.03
1.51
0.94
0.33
-0.30
-0.91
-1.49
-2.07
-2.68
-3.38
-4.20
-5.16
-6.25
-7.41
-8.54
-9.47
-9.99
-9.94
-9.28
-8.09
-6.57
-4.90
-3.23
-1.66
-0.18
1.19
2.43
3.52
4.38
4.92
5.09
4.86
4.29
3.53
2.73
2.03
1.50
1.14
0.94
0.91
1.10
1.49
1.98
2.41
2.59
2.43
2.01
1.46
0.97
0.64
0.47
0.37
0.20
-0.12
-0.67
-1.43
-2.34
-3.32
-4.25
-5.02
-5.50
-5.61
-5.28
-4.53
-3.40
-2.02
-0.51
0.98
2.36
3.58
4.59
5.36
5.88
6.12
6.10
5.86
5.47
4.99
4.46
3.93
3.39
2.89
2.44
2.04
1.69
1.36
1.01
0.59
0.09
-0.53
-1.26
-2.05
-2.87
-3.66
-4.42
-5.11
-5.76
-6.38
-7.01
-7.72
-8.57
-9.52
-10.47
-11.19
-11.42
-11.02
-9.98
-8.46
-6.73
-5.01
-3.45
-2.10
-0.98
-0.14
0.37
0.54
0.48
0.41
0.58
1.18
2.20
3.48
4.81
6.02
7.01
7.79
8.37
8.73
8.79
8.49
7.81
6.78
5.45
3.93
2.32
0.77
-0.58
-1.65
-2.49
-3.24
-4.08
-5.12
-6.35
-7.57
-8.57
-9.14
-9.23
-8.86
-8.08
-6.94
-5.43
-3.62
-1.62
0.38
2.16
3.54
4.45
4.90
4.94
4.70
4.27
3.77
3.30
2.96
2.83
2.91
3.12
3.31
3.34
3.12
2.67
2.10
1.52
0.99
0.49
-0.05
-0.72
-1.49
-2.28
-2.99
-3.59
-4.17
-4.90
-5.90
-7.12
-8.29
-9.00
-8.92
-7.91
-6.14
-3.97
-1.81
0.06
1.62
2.97
4.29
5.61
6.83
7.70
8.03
7.77
7.08
6.25
5.54
5.09
4.83
4.59
4.23
3.71
3.13
2.60
2.15
1.68
1.00
0.04
-1.14
-2.30
-3.21
-3.76
-4.04
-4.29
-4.74
-5.48
-6.41
-7.35
-8.10
-8.58
-8.78
-8.69
-8.27
-7.41
-6.07
-4.29
-2.23
-0.19
1.58
2.97
3.98
4.75
5.47
6.24
7.04
7.77
8.25
8.37
8.12
7.61
7.01
6.49
6.13
5.86
5.56
5.10
4.43
3.62
2.85
2.25
1.88
1.67
1.42
0.93
0.10
-1.05
-2.38
-3.68
-4.82
-5.74
-6.45
-6.99
-7.31
-7.30
-6.84
-5.87
-4.46
-2.81
-1.16
0.31
1.54
2.59
3.57
4.51
5.39
6.07
6.45
6.49
6.27
5.89
5.49
5.10
4.71
4.29
3.84
3.43
3.09
2.84
2.60
2.25
1.67
0.85
-0.16
-1.24
-2.29
-3.24
-4.08
-4.85
-5.58
-6.32
-7.12
-8.06
-9.17
-10.36
-11.41
-11.99
-11.79
-10.65
-8.69
-6.26
-3.78
-1.60
0.14
1.50
2.65
3.76
4.89
5.99
6.93
7.63
8.10
8.36
8.40
8.13
7.57
6.76
5.78
4.72
3.69
2.73
1.83
0.87
-0.25
-1.43
-2.57
-3.63
-4.69
-5.88
-7.34
-9.15
-11.30
-13.68
-15.65
-16.75
-16.89
-16.45
-15.88
-15.48
-15.34
-15.46
-15.80
-15.38
-13.52
-10.05
-5.15
1.24
9.45
19.35
29.72
38.13
43.30
44.41
41.69
36.70
32.23
31.33
35.86
45.83
59.86
78.19
100.67
125.91
151.02
172.61
188.17
196.87
199.70
186.71
154.71
108.58
58.54
13.08
-24.51
-53.92
-75.69
-90.54
-99.62
-102.86
-101.25
-96.94
-92.41
-89.14
-86.50
-82.88
-76.85
-67.98
-55.86
-42.02
-29.85
-23.24
-25.01
-34.78
-49.51
-64.58
-75.35
-77.87
-71.11
-57.23
-39.43
-23.60
-13.28
-8.98
-8.97
-10.77
-12.39
-13.22
-13.69
-14.46
-16.30
-18.41
-20.66
-23.98
-29.78
-39.38
-52.70
-67.52
-79.79
-84.85
-78.33
-57.83
-23.79
20.35
67.71
109.45
137.15
145.41
133.59
106.21
70.81
33.61
1.73
-20.71
-33.36
-38.57
-39.47
-38.33
-35.95
-32.24
-27.12
-20.80
-14.56
-9.92
-7.87
-8.62
-11.55
-15.67
-20.06
-24.23
-27.77
-30.73
-33.03
-34.24
-33.59
-30.37
-24.39
-16.37
-7.82
-0.53
3.74
4.09
0.84
-4.48
-9.78
-13.14
-13.45
-10.73
-5.85
-0.26
4.69
8.14
9.91
10.38
10.21
10.00
10.10
10.59
11.26
11.83
12.10
12.01
11.65
11.10
10.38
9.62
9.13
9.51
11.31
14.67
18.91
22.59
24.03
22.13
16.95
9.76
2.44
-3.28
-6.55
-7.42
-6.56
-4.74
-2.47
-0.04
2.33
4.17
4.92
4.05
1.38
-2.76
-7.57
-11.98
-15.00
-15.95
-14.64
-11.38
-6.89
-2.08
2.22
5.43
7.30
7.92
7.60
6.71
5.56
4.34
3.13
2.04
1.19
0.73
0.77
1.27
1.99
2.61
2.78
2.39
1.49
0.36
-0.70
-1.46
-1.87
-2.08
-2.35
-2.92
-3.91
-5.34
-7.06
-8.85
-10.47
-11.69
-12.32
-12.21
-11.35
-9.81
-7.79
-5.52
-3.24
-1.12
0.75
2.33
3.60
4.50
5.02
5.18
5.07
4.87
4.71
4.65
4.61
4.48
4.15
3.65
3.10
2.68
2.50
2.52
2.60
2.55
2.23
1.64
0.88
0.09
-0.64
-1.31
-1.99
-2.75
-3.61
-4.55
-5.48
-6.30
-6.88
-7.12
-6.93
-6.30
-5.28
-3.98
-2.53
-1.02
0.48
1.97
3.45
4.91
6.26
7.38
8.16
8.55
8.56
8.24
7.68
6.96
6.15
5.26
4.29
3.22
2.06
0.87
-0.24
-1.15
-1.79
-2.16
-2.38
-2.60
-2.98
-3.58
-4.43
-5.47
-6.61
-7.77
-8.88
-9.88
-10.75
-11.49
-12.07
-12.45
-12.52
-12.15
-11.21
-9.67
-7.61
-5.25
-2.86
-0.64
1.25
2.80
4.00
4.88
5.44
5.71
5.78
5.72
5.62
5.47
5.20
4.67
3.75
2.44
0.90
-0.59
-1.73
-2.34
-2.44
-2.25
-2.04
-2.10
-2.56
-3.39
-4.48
-5.68
-6.85
-7.95
-8.96
-9.91
-10.86
-11.80
-12.70
-13.40
-13.70
-13.44
-12.53
-11.00
-9.01
-6.77
-4.44
-2.10
0.25
2.62
4.94
7.09
8.85
10.06
10.66
10.71
10.38
9.85
9.26
8.62
7.85
6.85
5.62
4.32
3.25
2.70
2.84
3.65
4.93
6.43
7.95
9.35
10.57
11.50
11.96
11.75
10.75
8.95
6.53
3.74
0.85
-1.95
-4.51
-6.70
-8.39
-9.42
-9.73
-9.30
-8.18
-6.50
-4.40
-2.09
0.16
2.02
3.15
3.29
2.32
0.35
-2.32
-5.27
-8.02
-10.18
-11.43
-11.61
-10.71
-8.86
-6.31
-3.37
-0.40
2.24
4.26
5.46
5.78
5.35
4.42
3.38
2.58
2.25
2.50
3.25
4.25
5.18
5.72
5.59
4.70
3.16
1.31
-0.34
-1.33
-1.38
-0.56
0.82
2.28
3.43
4.10
4.34
4.38
4.42
4.58
4.83
5.07
5.17
5.05
4.66
3.94
2.85
1.33
-0.57
-2.70
-4.82
-6.68
-8.09
-9.00
-9.49
-9.73
-9.86
-9.98
-10.08
-10.09
-9.92
-9.53
-8.90
-8.12
-7.36
-6.83
-6.74
-7.17
-8.01
-8.95
-9.57
-9.45
-8.36
-6.35
-3.69
-0.74
2.11
4.64
6.81
8.61
10.04
11.04
11.52
11.48
11.07
10.56
10.23
10.21
10.43
10.66
10.66
10.33
9.70
8.92
8.06
7.11
5.99
4.66
3.16
1.65
0.25
-1.00
-2.15
-3.28
-4.40
-5.44
-6.31
-7.00
-7.59
-8.29
-9.25
-10.49
-11.80
-12.84
-13.25
-12.79
-11.38
-9.16
-6.40
-3.48
-0.77
1.42
2.94
3.77
4.03
3.93
3.67
3.50
3.64
4.25
5.39
6.94
8.65
10.16
11.15
11.42
10.97
9.95
8.57
7.05
5.53
4.12
2.91
1.96
1.30
0.85
0.50
0.10
-0.51
-1.39
-2.55
-3.93
-5.44
-6.96
-8.37
-9.54
-10.30
-10.45
-9.84
-8.46
-6.44
-4.03
-1.55
0.75
2.71
4.32
5.60
6.61
7.35
7.84
8.08
8.13
8.07
7.97
7.91
7.91
7.98
8.08
8.12
8.01
7.68
7.13
6.43
5.69
5.02
4.48
4.03
3.56
2.96
2.16
1.15
-0.00
-1.21
-2.44
-3.66
-4.91
-6.20
-7.50
-8.73
-9.72
-10.32
-10.35
-9.71
-8.39
-6.45
-4.08
-1.54
0.92
3.06
4.80
6.18
7.33
8.38
9.33
10.07
10.46
10.40
9.96
9.35
8.78
8.39
8.12
7.85
7.46
6.99
6.56
6.28
6.14
5.97
5.53
4.65
3.40
2.01
0.82
0.07
-0.20
-0.20
-0.27
-0.77
-1.92
-3.70
-5.88
-8.09
-9.95
-11.17
-11.60
-11.25
-10.19
-8.53
-6.41
-3.97
-1.45
0.92
2.91
4.41
5.46
6.22
6.88
7.55
8.23
8.80
9.09
8.98
8.46
7.62
6.63
5.66
4.85
4.25
3.86
3.58
3.28
2.84
2.16
1.22
0.09
-1.10
-2.19
-3.04
-3.65
-4.09
-4.52
-5.13
-6.04
-7.24
-8.56
-9.71
-10.35
-10.23
-9.23
-7.46
-5.20
-2.82
-0.64
1.17
2.64
3.92
5.17
6.42
7.59
8.50
9.00
9.07
8.78
8.29
7.73
7.16
6.58
6.00
5.46
5.02
4.68
4.36
3.96
3.34
2.52
1.56
0.62
-0.20
-0.89
-1.53
-2.22
-3.02
-3.93
-4.86
-5.78
-6.67
-7.55
-8.42
-9.24
-9.89
-10.17
-9.92
-9.03
-7.56
-5.67
-3.59
-1.53
0.39
2.15
3.80
5.34
6.74
7.87
8.58
8.78
8.47
7.77
6.85
5.90
5.04
4.34
3.83
3.49
3.27
3.10
2.89
2.55
2.04
1.34
0.50
-0.45
-1.46
-2.46
-3.40
-4.23
-4.94
-5.55
-6.16
-6.86
-7.67
-8.56
-9.40
-10.03
-10.25
-9.93
-9.02
-7.58
-5.73
-3.66
-1.54
0.50
2.42
4.16
5.66
6.87
7.70
8.14
8.28
8.25
8.21
8.17
8.01
7.60
6.90
6.02
5.24
4.80
4.84
5.30
5.91
6.31
6.18
5.46
4.25
2.82
1.50
0.58
0.24
0.40
0.82
1.13
1.28
1.33
1.50
2.07
3.40
5.89
9.82
15.10
21.28
27.70
33.04
35.69
34.44
29.38
22.26
15.99
13.36
16.27
25.54
40.23
58.17
76.73
93.54
106.74
114.80
116.41
111.26
101.04
88.34
75.88
65.64
58.57
54.75
53.76
54.96
53.05
45.72
33.93
21.17
10.56
3.15
-1.85
-4.49
-7.23
-11.71
-17.83
-24.95
-32.33
-39.61
-46.18
-51.34
-54.88
-57.36
-59.29
-60.54
-60.90
-60.36
-59.20
-57.82
-56.48
-55.27
-54.24
-53.09
-51.28
-48.68
-45.67
-42.87
-40.76
-39.38
-38.51
-37.89
-37.16
-35.94
-34.06
-31.57
-28.70
-25.78
-23.16
-21.12
-19.85
-19.23
-18.89
-18.44
-17.62
-16.44
-15.02
-13.65
-12.60
-12.11
-12.23
-12.83
-13.60
-14.13
-14.09
-13.46
-12.51
-11.72
-11.54
-12.01
-12.71
-12.90
-11.99
-9.87
-7.00
-4.12
-1.94
-0.84
-0.68
-0.85
-0.47
1.33
5.17
11.20
18.89
26.95
33.36
36.35
35.27
31.02
25.72
21.69
20.32
21.29
22.76
21.74
16.16
6.10
-6.11
-16.91
-22.76
-21.15
-11.42
4.94
23.00
36.60
40.17
30.19
6.05
-29.60
-71.10
-111.10
-142.44
-161.95
-168.88
-164.00
-149.23
-127.81
-104.01
-82.23
-66.11
-57.56
-59.26
-71.22
-90.28
-111.34
-129.74
-142.86
-150.16
-152.72
-137.92
-102.16
-53.04
-4.64
32.89
57.51
72.42
82.10
88.09
92.86
94.56
91.47
83.88
74.07
64.52
56.62
51.62
49.37
49.49
49.35
47.21
43.16
38.76
35.62
34.49
35.25
37.20
39.79
41.24
40.58
38.10
35.04
32.54
31.08
30.48
30.18
29.86
28.79
26.78
24.32
22.17
20.87
20.46
20.68
21.13
21.67
22.00
21.95
21.44
20.41
18.76
16.39
13.36
9.89
6.36
3.10
0.28
-2.11
-4.26
-6.41
-8.69
-11.11
-13.47
-15.46
-16.76
-17.17
-16.63
-15.26
-13.25
-10.88
-8.34
-5.81
-3.43
-1.27
0.57
2.07
3.21
4.04
4.62
5.04
5.35
5.57
5.68
5.65
5.45
5.07
4.58
4.04
3.55
3.14
2.80
2.48
2.12
1.67
1.12
0.49
-0.22
-1.03
-1.97
-3.09
-4.40
-5.88
-7.51
-9.25
-11.00
-12.56
-13.64
-13.94
-13.23
-11.56
-9.17
-6.43
-3.68
-1.08
1.36
3.73
6.01
8.11
9.84
11.07
11.76
11.99
11.92
11.68
11.31
10.84
10.27
9.65
9.04
8.50
8.02
7.52
6.89
5.99
4.77
3.28
1.63
-0.01
-1.48
-2.72
-3.75
-4.63
-5.52
-6.55
-7.89
-9.61
-11.62
-13.65
-15.27
-16.01
-15.60
-14.03
-11.57
-8.64
-5.63
-2.80
-0.28
1.92
3.83
5.47
6.84
7.97
8.84
9.47
9.88
10.07
10.05
9.81
9.32
8.60
7.71
6.81
6.05
5.54
5.24
4.98
4.59
3.94
3.04
2.02
0.98
-0.09
-1.30
-2.76
-4.53
-6.55
-8.64
-10.62
-12.31
-13.61
-14.41
-14.62
-14.16
-13.02
-11.24
-8.95
-6.26
-3.33
-0.30
2.66
5.36
7.64
9.36
10.47
11.01
11.06
10.76
10.30
9.84
9.56
9.53
9.71
9.94
10.02
9.78
9.14
8.11
6.77
5.27
3.76
2.35
1.13
0.13
-0.73
-1.55
-2.46
-3.55
-4.84
-6.31
-7.93
-9.62
-11.24
-12.60
-13.42
-13.42
-12.46
-10.58
-8.02
-5.12
-2.20
0.50
2.86
4.87
6.55
7.91
8.95
9.67
10.08
10.22
10.12
9.88
9.58
9.30
9.06
8.83
8.57
8.23
7.82
7.38
6.97
6.58
6.11
5.47
4.53
3.31
1.88
0.40
-0.99
-2.25
-3.43
-4.66
-6.03
-7.57
-9.18
-10.72
-11.99
-12.83
-13.11
-12.76
-11.75
-10.13
-8.01
-5.56
-2.94
-0.29
2.30
4.76
7.00
8.87
10.23
11.01
11.27
11.21
11.04
10.94
10.92
10.92
10.82
10.54
10.09
9.48
8.73
7.81
6.74
5.60
4.52
3.65
3.05
2.65
2.31
1.86
1.22
0.36
-0.67
-1.86
-3.19
-4.65
-6.22
-7.81
-9.34
-10.65
-11.57
-11.95
-11.65
-10.63
-8.92
-6.67
-4.07
-1.35
1.33
3.82
6.05
7.95
9.48
10.63
11.40
11.80
11.88
11.72
11.41
11.08
10.77
10.50
10.18
9.69
8.96
7.98
6.81
5.55
4.29
3.10
1.99
0.96
0.02
-0.78
-1.45
-2.01
-2.53
-3.13
-3.91
-4.94
-6.25
-7.84
-9.71
-11.79
-13.98
-16.07
-17.75
-18.67
-18.49
-17.04
-14.35
-10.70
-6.56
-2.41
1.36
4.49
6.87
8.52
9.51
9.92
9.85
9.44
8.83
8.15
7.47
6.73
5.79
4.42
2.47
-0.06
-2.94
-5.71
-7.85
-8.87
-8.53
-6.87
-4.23
-1.16
1.77
3.99
5.10
4.85
3.22
0.36
-3.26
-6.98
-9.97
-11.50
-11.15
-9.02
-5.69
-2.06
1.01
2.99
3.77
3.65
3.15
2.79
2.98
3.89
5.49
7.54
9.64
11.29
12.04
11.66
10.21
8.06
5.82
4.06
3.21
3.41
4.50
6.16
8.04
9.90
11.66
13.35
15.00
16.56
17.87
18.66
18.70
17.90
16.31
14.16
11.75
9.42
7.43
5.93
4.88
4.03
3.05
1.62
-0.37
-2.78
-5.16
-6.94
-7.61
-6.94
-5.08
-2.51
0.19
2.51
4.25
5.46
6.39
7.28
8.19
8.97
9.40
9.31
8.65
7.55
6.22
4.82
3.50
2.32
1.35
0.68
0.34
0.35
0.55
0.74
0.67
0.13
-0.95
-2.47
-4.22
-5.95
-7.43
-8.61
-9.51
-10.28
-11.09
-12.06
-13.21
-14.51
-15.81
-16.87
-17.42
-17.20
-16.09
-14.17
-11.71
-9.09
-6.63
-4.53
-2.78
-1.28
0.08
1.30
2.33
3.12
3.68
4.11
4.53
4.98
5.40
5.61
5.44
4.86
3.98
3.07
2.39
2.05
2.03
2.13
2.18
2.04
1.71
1.29
0.91
0.63
0.43
0.18
-0.27
-1.05
-2.21
-3.68
-5.36
-7.14
-8.88
-10.40
-11.50
-11.93
-11.56
-10.39
-8.65
-6.69
-4.81
-3.16
-1.67
-0.18
1.40
3.01
4.37
5.21
5.36
4.88
4.05
3.24
2.73
2.65
2.93
3.40
3.85
4.17
4.31
4.28
4.11
3.78
3.27
2.62
1.88
1.16
0.53
0.00
-0.54
-1.24
-2.21
-3.47
-4.95
-6.47
-7.85
-8.90
-9.48
-9.51
-8.99
-7.95
-6.50
-4.78
-2.95
-1.13
0.62
2.26
3.77
5.11
6.22
7.06
7.60
7.84
7.81
7.48
6.84
5.88
4.66
3.34
2.13
1.22
0.69
0.49
0.41
0.24
-0.14
-0.67
-1.17
-1.44
-1.41
-1.17
-0.97
-1.06
-1.66
-2.76
-4.21
-5.73
-7.02
-7.89
-8.23
-8.03
-7.32
-6.11
-4.45
-2.47
-0.35
1.64
3.33
4.60
5.52
6.21
6.84
7.53
8.27
9.00
9.57
9.82
9.66
9.10
8.21
7.18
6.21
5.42
4.83
4.35
3.85
3.22
2.46
1.58
0.63
-0.34
-1.32
-2.27
-3.14
-3.90
-4.49
-4.94
-5.29
-5.62
-6.02
-6.54
-7.15
-7.74
-8.14
-8.15
-7.61
-6.45
-4.78
-2.79
-0.76
1.11
2.73
4.16
5.51
6.85
8.14
9.23
9.92
10.08
9.75
9.09
8.32
7.60
6.98
6.38
5.71
4.95
4.14
3.38
2.75
2.23
1.75
1.20
0.54
-0.20
-0.95
-1.61
-2.17
-2.65
-3.11
-3.60
-4.15
-4.74
-5.38
-6.05
-6.75
-7.41
-7.92
-8.13
-7.90
-7.16
-5.93
-4.33
-2.54
-0.74
0.93
2.41
3.70
4.78
5.67
6.36
6.81
7.02
6.99
6.73
6.30
5.75
5.16
4.58
4.07
3.60
3.14
2.63
2.03
1.38
0.74
0.18
-0.27
-0.63
-0.95
-1.31
-1.72
-2.21
-2.77
-3.41
-4.14
-4.96
-5.83
-6.70
-7.51
-8.19
-8.69
-8.91
-8.77
-8.17
-7.07
-5.54
-3.70
-1.71
0.30
2.21
3.90
5.28
6.26
6.83
7.02
6.93
6.68
6.35
5.96
5.49
4.93
4.31
3.70
3.18
2.82
2.61
2.51
2.46
2.39
2.23
1.90
1.32
0.47
-0.60
-1.74
-2.78
-3.58
-4.09
-4.35
-4.54
-4.79
-5.22
-5.82
-6.46
-7.02
-7.34
-7.32
-6.87
-5.95
-4.54
-2.70
-0.56
1.64
3.72
5.48
6.83
7.72
8.21
8.35
8.24
7.96
7.57
7.14
6.63
6.05
5.36
4.61
3.88
3.25
2.78
2.45
2.13
1.69
1.01
0.08
-1.00
-2.08
-3.01
-3.73
-4.28
-4.76
-5.31
-5.98
-6.76
-7.64
-8.56
-9.46
-10.24
-10.72
-10.71
-10.04
-8.67
-6.76
-4.54
-2.30
-0.23
1.60
3.18
4.52
5.63
6.47
7.04
7.36
7.47
7.39
7.08
6.52
5.68
4.64
3.55
2.57
1.80
1.23
0.81
0.44
0.05
-0.37
-0.84
-1.36
-1.95
-2.62
-3.35
-4.12
-4.87
-5.58
-6.27
-6.97
-7.71
-8.51
-9.35
-10.16
-10.87
-11.36
-11.50
-11.17
-10.31
-8.95
-7.20
-5.23
-3.20
-1.26
0.54
2.15
3.56
4.71
5.59
6.17
6.45
6.45
6.18
5.74
5.21
4.71
4.34
4.09
3.89
3.64
3.26
2.77
2.27
1.86
1.58
1.35
1.02
0.49
-0.26
-1.11
-1.93
-2.60
-3.11
-3.51
-3.90
-4.35
-4.92
-5.59
-6.33
-7.04
-7.53
-7.62
-7.13
-6.05
-4.49
-2.72
-1.02
0.42
1.56
2.48
3.28
4.03
4.72
5.31
5.75
6.01
6.07
5.92
5.59
5.09
4.45
3.70
2.85
1.93
0.98
0.09
-0.64
-1.15
-1.41
-1.47
-1.42
-1.36
-1.38
-1.49
-1.74
-2.11
-2.64
-3.33
-4.17
-5.11
-6.09
-7.03
-7.83
-8.39
-8.57
-8.28
-7.43
-5.98
-4.01
-1.70
0.70
2.91
4.72
6.05
6.95
7.55
7.99
8.36
8.59
8.60
8.30
7.70
6.95
6.22
5.64
5.25
4.91
4.48
3.84
3.05
2.21
1.50
1.00
0.66
0.32
-0.18
-0.92
-1.86
-2.84
-3.69
-4.30
-4.68
-4.94
-5.24
-5.71
-6.42
-7.31
-8.23
-8.99
-9.40
-9.34
-8.76
-7.69
-6.19
-4.38
-2.39
-0.41
1.35
2.75
3.70
4.23
4.45
4.54
4.62
4.76
4.89
4.89
4.62
4.06
3.28
2.42
1.67
1.15
0.89
0.81
0.78
0.69
0.50
0.20
-0.18
-0.65
-1.27
-2.09
-3.09
-4.17
-5.15
-5.87
-6.26
-6.38
-6.39
-6.46
-6.71
-7.09
-7.45
-7.60
-7.38
-6.70
-5.61
-4.19
-2.62
-1.00
0.58
2.09
3.51
4.78
5.80
6.46
6.67
6.47
5.98
5.43
5.00
4.77
4.69
4.62
4.40
3.94
3.28
2.52
1.82
1.27
0.87
0.56
0.26
-0.11
-0.60
-1.17
-1.78
-2.35
-2.84
-3.22
-3.54
-3.88
-4.30
-4.83
-5.45
-6.09
-6.65
-7.01
-7.05
-6.66
-5.73
-4.23
-2.25
-0.01
2.23
4.17
5.64
6.60
7.11
7.25
7.10
6.71
6.13
5.42
4.70
4.10
3.68
3.45
3.33
3.27
3.19
3.06
2.82
2.39
1.71
0.77
-0.37
-1.54
-2.54
-3.26
-3.67
-3.87
-3.98
-4.12
-4.35
-4.72
-5.25
-5.95
-6.80
-7.67
-8.32
-8.49
-7.95
-6.65
-4.68
-2.30
0.18
2.46
4.31
5.61
6.35
6.64
6.61
6.43
6.22
6.04
5.89
5.73
5.50
5.15
4.62
3.92
3.10
2.27
1.54
0.98
0.58
0.26
-0.13
-0.65
-1.32
-2.08
-2.84
-3.56
-4.25
-4.91
-5.54
-6.08
-6.50
-6.85
-7.19
-7.63
-8.15
-8.63
-8.84
-8.56
-7.71
-6.37
-4.76
-3.08
-1.45
0.13
1.69
3.19
4.50
5.42
5.82
5.74
5.38
5.02
4.83
4.84
4.89
4.74
4.24
3.37
2.27
1.15
0.17
-0.60
-1.17
-1.62
-2.02
-2.43
-2.87
-3.30
-3.67
-3.96
-4.17
-4.36
-4.64
-5.10
-5.78
-6.61
-7.45
-8.16
-8.64
-8.81
-8.64
-8.08
-7.06
-5.57
-3.69
-1.61
0.38
2.04
3.27
4.13
4.76
5.29
5.76
6.09
6.19
6.01
5.60
5.13
4.78
4.62
4.63
4.68
4.61
4.33
3.87
3.29
2.70
2.12
1.51
0.78
-0.09
-1.06
-1.99
-2.72
-3.16
-3.33
-3.36
-3.44
-3.69
-4.18
-4.89
-5.74
-6.61
-7.39
-7.90
-8.00
-7.55
-6.50
-4.91
-2.92
-0.74
1.46
3.49
5.23
6.56
7.37
7.61
7.30
6.62
5.83
5.17
4.83
4.80
4.94
5.06
5.01
4.77
4.42
4.05
3.67
3.21
2.56
1.68
0.65
-0.38
-1.24
-1.86
-2.29
-2.66
-3.08
-3.57
-4.05
-4.44
-4.72
-4.94
-5.23
-5.67
-6.21
-6.63
-6.68
-6.15
-4.98
-3.29
-1.29
0.75
2.66
4.30
5.64
6.63
7.25
7.46
7.29
6.82
6.20
5.57
5.05
4.68
4.40
4.14
3.78
3.31
2.75
2.21
1.84
1.72
1.85
2.12
2.32
2.26
1.85
1.18
0.45
-0.06
-0.15
0.18
0.76
1.33
1.61
1.44
0.77
-0.32
-1.69
-3.08
-4.11
-4.30
-3.19
-0.49
3.70
8.90
14.36
19.30
23.15
25.72
27.23
28.16
29.09
30.50
32.67
35.64
39.19
42.92
46.25
48.56
49.22
47.79
44.04
38.03
30.10
20.80
10.85
0.94
-8.21
-16.02
-22.03
-25.98
-27.90
-28.05
-26.84
-24.66
-21.81
-18.42
-14.57
-10.29
-5.60
-0.57
4.84
10.65
16.85
23.22
29.36
34.78
39.21
42.94
46.79
51.83
58.88
67.93
77.87
86.68
92.15
92.81
88.59
80.94
72.21
64.72
59.75
57.28
56.22
55.13
53.01
49.57
45.09
39.97
34.32
27.91
20.45
12.03
3.23
-5.06
-12.08
-17.52
-21.62
-24.91
-27.82
-30.38
-32.19
-32.82
-32.05
-30.16
-27.74
-25.53
-24.06
-23.61
-24.25
-26.00
-28.83
-32.70
-37.42
-42.68
-48.03
-53.09
-57.60
-61.51
-64.95
-68.14
-71.19
-74.10
-76.67
-78.67
-79.91
-80.34
-80.03
-79.03
-77.24
-74.35
-70.07
-64.39
-57.81
-51.36
-46.18
-43.16
-42.51
-43.75
-45.98
-48.18
-49.58
-49.70
-48.37
-45.56
-41.34
-35.91
-29.63
-23.06
-16.87
-11.66
-7.80
-5.28
-3.76
-2.67
-1.48
0.21
2.51
5.32
8.45
11.66
14.77
17.58
19.91
21.57
22.47
22.70
22.56
22.51
23.05
24.53
27.03
30.31
33.83
36.94
38.97
39.38
37.91
34.54
29.63
23.82
17.89
12.67
8.68
6.03
4.26
2.55
-0.02
-4.05
-9.67
-16.42
-23.50
-30.05
-35.41
-39.23
-41.51
-42.46
-42.46
-41.93
-41.30
-40.91
-40.88
-41.13
-41.32
-41.03
-39.85
-37.61
-34.41
-30.62
-26.74
-23.25
-20.41
-18.24
-16.53
-15.00
-13.42
-11.70
-9.86
-7.95
-5.94
-3.77
-1.37
1.23
3.82
6.12
7.92
9.18
10.07
10.89
11.82
12.84
13.77
14.35
14.47
14.21
13.83
13.59
13.65
14.01
14.55
15.17
15.83
16.56
17.38
18.27
19.14
19.85
20.28
20.36
20.09
19.55
18.82
18.00
17.12
16.17
15.11
13.91
12.57
11.17
9.81
8.60
7.56
6.62
5.62
4.40
2.87
0.99
-1.18
-3.58
-6.10
-8.65
-11.12
-13.33
-15.09
-16.26
-16.82
-16.89
-16.67
-16.38
-16.13
-15.92
-15.69
-15.37
-14.92
-14.34
-13.62
-12.68
-11.43
-9.82
-7.90
-5.83
-3.81
-2.05
-0.61
0.55
1.54
2.46
3.37
4.25
5.02
5.63
6.05
6.28
6.37
6.36
6.25
6.01
5.55
4.82
3.86
2.80
1.85
1.16
0.74
0.48
0.15
-0.42
-1.30
-2.40
-3.54
-4.51
-5.22
-5.64
-5.81
-5.73
-5.43
-4.90
-4.28
-3.70
-3.21
-2.67
-1.93
-0.90
0.42
1.87
3.24
4.17
4.50
4.29
3.90
3.75
4.11
5.00
6.18
7.27
7.65
6.99
5.54
4.07
3.46
4.17
6.06
8.40
10.21
9.87
6.49
0.70
-5.66
-10.64
-13.35
-14.24
-14.72
-16.40
-21.92
-32.39
-46.27
-59.72
-68.88
-71.61
-68.14
-60.47
-51.60
-47.27
-51.92
-66.07
-85.93
-105.83
-120.51
-126.61
-123.06
-111.32
-98.90
-94.58
-104.34
-128.93
-164.58
-204.58
-241.18
-267.42
-258.71
-204.39
-116.79
-25.57
44.12
84.84
103.63
111.95
119.33
130.67
143.50
154.16
161.80
168.88
178.01
190.39
203.80
214.35
218.44
211.57
192.37
163.98
132.86
103.91
81.89
68.01
61.31
59.63
58.44
53.33
41.79
23.94
1.76
-21.36
-41.63
-54.96
-58.34
-51.96
-38.36
-21.44
-4.92
8.54
17.87
22.29
22.64
20.74
17.89
15.12
12.73
10.98
10.15
10.51
11.92
14.09
16.32
17.86
19.12
20.95
24.53
28.37
28.93
22.57
8.09
-11.49
-33.93
-54.81
-68.83
-69.02
-49.53
-9.40
46.77
109.56
166.12
202.65
208.76
179.62
119.31
40.71
-39.82
-106.84
-149.91
-166.30
-160.61
-135.89
-100.97
-69.95
-44.43
-21.31
0.96
21.94
38.89
47.56
44.37
27.14
-2.60
-39.27
-76.75
-109.23
-131.65
-140.27
-132.67
-107.69
-66.65
-13.16
46.82
103.90
148.30
173.57
178.74
168.09
148.75
126.66
104.86
83.44
60.09
33.03
2.91
-27.25
-53.61
-73.16
-84.83
-88.81
-85.63
-76.29
-62.04
-44.68
-26.75
-11.19
-0.57
3.77
2.30
-2.85
-8.83
-13.13
-14.26
-12.19
-8.09
-3.80
-1.02
-0.73
-2.88
-6.53
-10.33
-13.04
-14.00
-13.27
-11.49
-9.52
-8.05
-7.39
-7.42
-7.83
-8.27
-8.57
-8.68
-8.63
-8.40
-7.91
-7.08
-5.87
-4.30
-2.43
-0.25
2.32
5.35
8.83
12.61
16.44
20.08
23.37
26.16
28.33
29.62
29.72
28.37
25.55
21.61
17.11
12.63
8.54
4.85
1.36
-2.15
-5.73
-9.22
-12.35
-14.99
-17.29
-19.63
-22.44
-25.98
-30.17
-34.57
-38.57
-41.52
-42.99
-42.75
-40.80
-37.27
-32.38
-26.45
-19.81
-12.89
-6.15
0.04
5.34
9.58
12.69
14.67
15.59
15.60
15.01
14.31
14.13
15.11
17.66
21.77
26.98
32.56
37.69
41.83
44.75
46.52
47.23
46.81
45.00
41.43
35.92
28.62
20.00
10.65
1.11
-8.38
-17.71
-26.75
-35.06
-41.83
-46.10
-47.11
-44.65
-39.29
-32.15
-24.57
-17.65
-11.98
-7.57
-4.08
-1.03
1.96
5.13
8.58
12.35
16.40
20.62
24.76
28.44
31.19
32.63
32.52
30.93
28.10
24.40
20.17
15.66
11.03
6.40
1.89
-2.37
-6.28
-9.87
-13.20
-16.38
-19.46
-22.39
-25.01
-27.08
-28.30
-28.38
-27.09
-24.39
-20.40
-15.48
-10.11
-4.79
0.15
4.53
8.34
11.65
14.49
16.82
18.55
19.57
19.78
19.19
17.87
15.98
13.71
11.22
8.65
6.06
3.53
1.13
-1.04
-2.90
-4.43
-5.66
-6.69
-7.62
-8.50
-9.33
-10.08
-10.72
-11.32
-11.98
-12.88
-14.15
-15.76
-17.53
-19.05
-19.83
-19.44
-17.65
-14.50
-10.31
-5.60
-0.89
3.37
6.92
9.69
11.79
13.39
14.65
15.70
16.53
17.11
17.38
17.32
16.97
16.36
15.56
14.61
13.60
12.60
11.69
10.88
10.09
9.18
7.99
6.49
4.77
3.03
1.46
0.18
-0.85
-1.70
-2.57
-3.65
-5.12
-7.11
-9.58
-12.29
-14.75
-16.40
-16.73
-15.49
-12.78
-8.98
-4.61
-0.23
3.73
7.00
9.52
11.35
12.68
13.70
14.55
15.21
15.61
15.66
15.34
14.75
14.03
13.31
12.58
11.76
10.77
9.64
8.50
7.57
6.98
6.68
6.44
5.93
4.90
3.30
1.37
-0.54
-2.10
-3.21
-4.03
-4.87
-6.07
-7.75
-9.84
-12.06
-14.01
-15.33
-15.74
-15.13
-13.53
-11.11
-8.13
-4.90
-1.69
1.31
4.04
6.51
8.74
10.74
12.45
13.75
14.52
14.71
14.38
13.70
12.85
11.99
11.15
10.29
9.33
8.24
7.11
6.07
5.20
4.49
3.83
3.06
2.08
0.92
-0.32
-1.53
-2.61
-3.59
-4.51
-5.48
-6.57
-7.84
-9.30
-10.91
-12.49
-13.76
-14.43
-14.26
-13.19
-11.37
-9.05
-6.54
-4.01
-1.47
1.14
3.84
6.57
9.11
11.21
12.68
13.46
13.68
13.52
13.16
12.71
12.15
11.47
10.67
9.82
9.05
8.46
8.13
7.99
7.87
7.56
6.88
5.75
4.27
2.67
1.19
0.05
-0.69
-1.11
-1.43
-1.89
-2.70
-3.95
-5.60
-7.51
-9.46
-11.17
-12.36
-12.77
-12.22
-10.65
-8.21
-5.17
-1.96
1.03
3.52
5.43
6.83
7.91
8.75
9.34
9.58
9.39
8.83
8.10
7.41
6.91
6.57
6.20
5.65
4.83
3.85
2.88
2.09
1.54
1.17
0.84
0.39
-0.25
-1.08
-2.04
-3.02
-3.95
-4.78
-5.53
-6.30
-7.21
-8.40
-9.87
-11.49
-13.00
-14.05
-14.33
-13.66
-12.03
-9.62
-6.70
-3.58
-0.54
2.19
4.47
6.21
7.40
8.10
8.43
8.55
8.55
8.49
8.34
8.06
7.66
7.17
6.67
6.24
5.91
5.65
5.40
5.08
4.67
4.15
3.52
2.78
1.95
1.03
0.10
-0.77
-1.52
-2.17
-2.78
-3.49
-4.40
-5.57
-6.92
-8.30
-9.49
-10.30
-10.58
-10.24
-9.33
-7.93
-6.16
-4.21
-2.22
-0.33
1.34
2.76
3.94
4.93
5.78
6.52
7.11
7.50
7.63
7.50
7.16
6.70
6.24
5.85
5.55
5.32
5.11
4.91
4.69
4.46
4.20
3.87
3.37
2.63
1.64
0.52
-0.58
-1.47
-2.10
-2.49
-2.80
-3.22
-3.89
-4.85
-6.05
-7.31
-8.40
-9.08
-9.14
-8.45
-7.02
-5.01
-2.73
-0.47
1.48
2.99
4.08
4.84
5.40
5.87
6.28
6.60
6.78
6.76
6.51
6.05
5.42
4.70
3.93
3.19
2.53
2.02
1.72
1.65
1.77
1.95
2.03
1.85
1.32
0.49
-0.55
-1.61
-2.58
-3.38
-4.06
-4.72
-5.49
-6.43
-7.48
-8.45
-9.08
-9.13
-8.49
-7.23
-5.55
-3.69
-1.80
0.06
1.88
3.67
5.35
6.76
7.71
8.06
7.79
7.05
6.13
5.32
4.83
4.72
4.86
5.01
4.93
4.48
3.70
2.76
1.89
1.26
0.91
0.74
0.60
0.35
-0.05
-0.56
-1.10
-1.62
-2.12
-2.66
-3.36
-4.27
-5.42
-6.73
-8.03
-9.07
-9.62
-9.46
-8.53
-6.91
-4.84
-2.64
-0.59
1.14
2.55
3.75
4.90
6.09
7.32
8.45
9.29
9.68
9.54
8.93
8.03
7.07
6.25
5.68
5.34
5.13
4.90
4.54
3.99
3.30
2.53
1.72
0.90
0.04
-0.88
-1.82
-2.72
-3.52
-4.25
-5.00
-5.90
-7.00
-8.24
-9.47
-10.47
-11.06
-11.14
-10.61
-9.47
-7.73
-5.55
-3.13
-0.77
1.32
3.04
4.44
5.62
6.63
7.44
7.91
7.95
7.60
6.99
6.33
5.75
5.29
4.88
4.40
3.76
2.98
2.10
1.27
0.57
0.07
-0.28
-0.60
-1.02
-1.62
-2.43
-3.40
-4.41
-5.41
-6.34
-7.19
-7.96
-8.65
-9.29
-9.90
-10.48
-10.97
-11.16
-10.77
-9.60
-7.59
-4.92
-1.98
0.80
3.09
4.76
5.84
6.42
6.64
6.55
6.21
5.68
5.05
4.38
3.77
3.21
2.69
2.16
1.57
0.89
0.15
-0.62
-1.35
-1.99
-2.51
-2.88
-3.16
-3.36
-3.56
-3.79
-4.07
-4.42
-4.85
-5.39
-6.06
-6.87
-7.76
-8.64
-9.36
-9.74
-9.66
-9.06
-7.95
-6.44
-4.66
-2.76
-0.87
0.90
2.45
3.73
4.68
5.25
5.43
5.21
4.64
3.83
2.94
2.10
1.39
0.82
0.34
-0.08
-0.44
-0.73
-0.96
-1.24
-1.73
-2.59
-3.85
-5.37
-6.85
-7.98
-8.53
-8.49
-8.01
-7.34
-6.73
-6.31
-6.14
-6.24
-6.58
-7.14
-7.76
-8.22
-8.15
-7.17
-5.05
-1.85
2.08
6.19
9.89
12.76
14.65
15.60
15.79
15.46
14.92
14.49
14.57
15.40
16.95
18.81
20.25
20.45
18.83
15.34
10.46
5.05
0.01
-3.99
-6.72
-8.39
-9.46
-10.43
-11.60
-12.97
-14.32
-15.31
-15.72
-15.53
-14.96
-14.33
-13.85
-13.53
-13.17
-12.46
-11.16
-9.17
-6.56
-3.59
-0.54
2.33
4.88
7.09
9.06
10.90
12.70
14.41
15.92
17.06
17.74
17.94
17.71
17.15
16.30
15.16
13.72
11.91
9.71
7.17
4.38
1.48
-1.36
-4.02
-6.48
-8.79
-11.04
-13.24
-15.27
-16.92
-18.01
-18.49
-18.51
-18.37
-18.36
-18.62
-19.04
-19.38
-19.27
-18.46
-16.81
-14.43
-11.53
-8.43
-5.45
-2.81
-0.61
1.10
2.36
3.22
3.71
3.93
3.96
3.93
3.95
4.10
4.42
4.89
5.44
5.96
6.32
6.40
6.07
5.31
4.17
2.78
1.30
-0.12
-1.35
-2.34
-3.05
-3.52
-3.79
-4.05
-4.49
-5.27
-6.49
-8.04
-9.69
-11.11
-11.99
-12.10
-11.36
-9.82
-7.65
-5.09
-2.39
0.20
2.52
4.47
6.08
7.47
8.75
9.98
11.09
11.94
12.38
12.34
11.86
11.07
10.13
9.11
8.05
6.91
5.67
4.37
3.07
1.83
0.68
-0.42
-1.53
-2.65
-3.74
-4.72
-5.47
-5.93
-6.10
-6.07
-5.97
-5.91
-5.96
-6.13
-6.35
-6.52
-6.49
-6.10
-5.26
-3.93
-2.18
-0.19
1.82
3.65
5.22
6.52
7.62
8.55
9.27
9.67
9.68
9.27
8.57
7.73
6.94
6.29
5.77
5.33
4.86
4.30
3.64
2.94
2.23
1.56
0.89
0.16
-0.71
-1.70
-2.74
-3.69
-4.48
-5.13
-5.81
-6.70
-7.89
-9.31
-10.74
-11.85
-12.40
-12.21
-11.27
-9.63
-7.41
-4.81
-2.11
0.44
2.60
4.26
5.45
6.29
6.93
7.46
7.91
8.29
8.56
8.68
8.57
8.21
7.57
6.72
5.74
4.73
3.76
2.89
2.14
1.52
1.04
0.64
0.17
-0.52
-1.55
-2.86
-4.27
-5.49
-6.34
-6.79
-7.01
-7.26
-7.77
-8.63
-9.77
-10.97
-11.95
-12.46
-12.27
-11.31
-9.62
-7.38
-4.89
-2.44
-0.25
1.59
3.11
4.38
5.49
6.43
7.19
7.70
7.92
7.85
7.52
6.95
6.22
5.41
4.59
3.82
3.11
2.42
1.70
0.95
0.26
-0.25
-0.52
-0.59
-0.63
-0.86
-1.43
-2.33
-3.37
-4.35
-5.09
-5.59
-5.95
-6.34
-6.85
-7.51
-8.27
-9.09
-9.91
-10.62
-11.04
-10.97
-10.24
-8.79
-6.75
-4.36
-1.86
0.56
2.83
4.88
6.65
8.03
8.93
9.37
9.46
9.40
9.34
9.37
9.42
9.37
9.09
8.52
7.70
6.74
5.80
4.96
4.27
3.71
3.22
2.75
2.25
1.69
1.06
0.34
-0.48
-1.40
-2.38
-3.39
-4.34
-5.22
-6.00
-6.76
-7.56
-8.47
-9.47
-10.49
-11.35
-11.86
-11.84
-11.20
-9.90
-8.05
-5.78
-3.26
-0.70
1.69
3.76
5.38
6.51
7.20
7.58
7.80
7.98
8.15
8.29
8.33
8.22
7.99
7.70
7.42
7.14
6.80
6.30
5.60
4.73
3.82
3.02
2.40
1.93
1.50
1.01
0.40
-0.30
-1.04
-1.78
-2.56
-3.42
-4.39
-5.40
-6.35
-7.13
-7.75
-8.29
-8.85
-9.43
-9.82
-9.72
-8.84
-7.09
-4.66
-1.98
0.49
2.48
3.93
5.02
5.96
6.82
7.57
8.07
8.21
8.02
7.58
7.06
6.58
6.16
5.78
5.36
4.80
4.03
3.07
2.02
1.02
0.22
-0.29
-0.54
-0.66
-0.81
-1.11
-1.63
-2.36
-3.26
-4.24
-5.21
-6.11
-6.88
-7.49
-7.99
-8.42
-8.86
-9.36
-9.92
-10.50
-11.01
-11.27
-11.09
-10.27
-8.72
-6.51
-3.97
-1.50
0.56
2.06
3.12
3.97
4.78
5.58
6.24
6.60
6.61
6.36
6.04
5.83
5.74
5.67
5.47
5.09
4.57
4.08
3.73
3.53
3.39
3.14
2.68
2.02
1.23
0.42
-0.32
-1.04
-1.80
-2.61
-3.43
-4.15
-4.65
-4.93
-5.09
-5.29
-5.69
-6.35
-7.18
-8.04
-8.78
-9.26
-9.35
-8.95
-8.00
-6.49
-4.50
-2.25
0.02
2.09
3.84
5.25
6.36
7.19
7.77
8.06
8.05
7.80
7.40
6.97
6.61
6.32
6.03
5.62
4.98
4.08
3.00
1.94
1.09
0.58
0.41
0.47
0.54
0.45
0.11
-0.49
-1.30
-2.23
-3.20
-4.14
-4.99
-5.74
-6.37
-6.94
-7.52
-8.18
-8.92
-9.67
-10.27
-10.51
-10.19
-9.19
-7.52
-5.38
-3.05
-0.81
1.14
2.78
4.18
5.40
6.45
7.24
7.69
7.76
7.54
7.20
6.90
6.72
6.64
6.55
6.32
5.85
5.14
4.26
3.35
2.52
1.85
1.35
0.94
0.56
0.17
-0.17
-0.39
-0.47
-0.50
-0.68
-1.20
-2.12
-3.32
-4.58
-5.66
-6.45
-6.99
-7.38
-7.62
-7.60
-7.08
-5.86
-3.92
-1.47
1.12
3.48
5.36
6.73
7.68
8.33
8.74
8.91
8.81
8.48
8.02
7.57
7.20
6.90
6.54
5.98
5.12
4.01
2.81
1.75
1.00
0.61
0.47
0.39
0.18
-0.30
-1.04
-1.97
-2.97
-3.94
-4.80
-5.53
-6.11
-6.55
-6.86
-7.10
-7.41
-7.90
-8.66
-9.65
-10.66
-11.37
-11.42
-10.59
-8.86
-6.47
-3.78
-1.21
0.96
2.59
3.70
4.40
4.82
5.09
5.29
5.46
5.62
5.80
5.96
6.10
6.17
6.09
5.80
5.30
4.62
3.89
3.23
2.69
2.26
1.84
1.29
0.55
-0.37
-1.40
-2.39
-3.22
-3.85
-4.33
-4.75
-5.23
-5.86
-6.68
-7.68
-8.79
-9.90
-10.92
-11.72
-12.18
-12.15
-11.52
-10.28
-8.53
-6.46
-4.31
-2.28
-0.44
1.22
2.78
4.29
5.69
6.85
7.65
8.02
8.00
7.75
7.46
7.25
7.16
7.13
7.08
6.94
6.66
6.21
5.59
4.80
3.85
2.80
1.73
0.71
-0.25
-1.13
-1.93
-2.65
-3.26
-3.75
-4.13
-4.47
-4.86
-5.35
-5.90
-6.44
-6.88
-7.17
-7.31
-7.31
-7.11
-6.64
-5.84
-4.68
-3.25
-1.68
-0.10
1.46
3.00
4.57
6.12
7.52
8.57
9.09
9.03
8.49
7.68
6.83
6.12
5.62
5.35
5.22
5.16
5.05
4.81
4.38
3.77
3.05
2.32
1.67
1.14
0.68
0.18
-0.43
-1.21
-2.10
-2.97
-3.73
-4.30
-4.71
-5.10
-5.64
-6.47
-7.67
-9.14
-10.62
-11.71
-11.99
-11.18
-9.28
-6.54
-3.42
-0.39
2.21
4.24
5.70
6.69
7.28
7.52
7.47
7.21
6.91
6.69
6.63
6.66
6.70
6.62
6.38
5.99
5.48
4.90
4.27
3.56
2.78
1.90
0.92
-0.14
-1.27
-2.40
-3.51
-4.54
-5.50
-6.41
-7.28
-8.15
-9.03
-9.91
-10.76
-11.55
-12.25
-12.75
-12.93
-12.62
-11.73
-10.23
-8.26
-6.04
-3.82
-1.77
0.09
1.80
3.43
4.97
6.31
7.30
7.80
7.79
7.41
6.87
6.37
6.03
5.86
5.76
5.61
5.34
4.94
4.45
3.94
3.42
2.88
2.29
1.64
0.93
0.21
-0.48
-1.13
-1.74
-2.34
-2.96
-3.62
-4.35
-5.15
-6.00
-6.82
-7.52
-7.99
-8.14
-7.94
-7.39
-6.52
-5.32
-3.77
-1.91
0.21
2.40
4.49
6.30
7.68
8.60
9.08
9.20
9.08
8.83
8.52
8.18
7.79
7.30
6.70
6.00
5.29
4.65
4.14
3.74
3.36
2.89
2.24
1.42
0.48
-0.44
-1.25
-1.93
-2.50
-3.07
-3.72
-4.47
-5.28
-6.09
-6.87
-7.63
-8.36
-8.98
-9.33
-9.17
-8.36
-6.89
-4.90
-2.64
-0.38
1.73
3.61
5.24
6.62
7.72
8.47
8.87
8.95
8.83
8.62
8.45
8.35
8.30
8.21
7.93
7.36
6.47
5.37
4.25
3.32
2.68
2.30
2.00
1.60
0.98
0.14
-0.81
-1.74
-2.57
-3.30
-4.00
-4.73
-5.57
-6.57
-7.77
-9.15
-10.61
-11.95
-12.90
-13.20
-12.72
-11.43
-9.45
-7.03
-4.48
-2.13
-0.18
1.30
2.42
3.38
4.35
5.37
6.29
6.91
7.07
6.78
6.20
5.52
4.89
4.35
3.84
3.30
2.71
2.12
1.62
1.25
1.00
0.80
0.56
0.15
-0.48
-1.29
-2.16
-2.94
-3.51
-3.88
-4.16
-4.51
-5.04
-5.78
-6.69
-7.69
-8.70
-9.63
-10.32
-10.57
-10.17
-9.04
-7.28
-5.11
-2.81
-0.59
1.46
3.33
5.01
6.40
7.37
7.81
7.71
7.18
6.44
5.71
5.14
4.77
4.58
4.52
4.55
4.62
4.65
4.55
4.22
3.62
2.81
1.94
1.14
0.51
0.06
-0.31
-0.68
-1.08
-1.48
-1.83
-2.12
-2.45
-2.94
-3.67
-4.60
-5.64
-6.61
-7.38
-7.83
-7.89
-7.50
-6.59
-5.18
-3.34
-1.27
0.82
2.77
4.47
5.89
6.99
7.74
8.07
7.96
7.45
6.69
5.88
5.19
4.72
4.43
4.23
4.03
3.75
3.43
3.12
2.85
2.62
2.32
1.88
1.22
0.35
-0.67
-1.74
-2.78
-3.69
-4.43
-4.97
-5.31
-5.49
-5.59
-5.74
-6.06
-6.63
-7.38
-8.08
-8.40
-8.04
-6.86
-4.96
-2.61
-0.18
2.02
3.84
5.29
6.45
7.37
8.04
8.41
8.41
8.06
7.45
6.74
6.05
5.47
5.01
4.61
4.20
3.73
3.18
2.61
2.08
1.63
1.25
0.86
0.36
-0.31
-1.14
-2.03
-2.90
-3.67
-4.34
-5.02
-5.82
-6.83
-8.04
-9.32
-10.47
-11.22
-11.35
-10.72
-9.34
-7.35
-5.00
-2.58
-0.34
1.55
3.06
4.25
5.26
6.18
7.07
7.90
8.56
8.94
8.91
8.46
7.69
6.78
5.92
5.20
4.63
4.13
3.62
3.04
2.41
1.77
1.12
0.44
-0.29
-1.10
-1.94
-2.74
-3.39
-3.87
-4.25
-4.62
-5.13
-5.84
-6.74
-7.70
-8.58
-9.18
-9.38
-9.10
-8.37
-7.30
-6.00
-4.60
-3.14
-1.62
-0.01
1.69
3.42
5.03
6.34
7.23
7.62
7.57
7.22
6.75
6.33
6.05
5.93
5.90
5.83
5.63
5.23
4.64
3.91
3.14
2.40
1.75
1.19
0.68
0.12
-0.57
-1.40
-2.34
-3.28
-4.11
-4.78
-5.36
-5.97
-6.74
-7.70
-8.77
-9.73
-10.32
-10.34
-9.67
-8.35
-6.53
-4.43
-2.29
-0.27
1.53
3.11
4.51
5.75
6.80
7.58
8.01
8.06
7.80
7.33
6.82
6.36
6.04
5.84
5.70
5.52
5.20
4.66
3.92
3.04
2.14
1.31
0.60
-0.03
-0.63
-1.24
-1.85
-2.38
-2.78
-3.06
-3.31
-3.67
-4.22
-4.97
-5.85
-6.75
-7.62
-8.45
-9.22
-9.83
-10.06
-9.65
-8.42
-6.41
-3.89
-1.30
0.97
2.72
4.02
5.05
5.97
6.74
7.18
7.11
6.52
5.60
4.74
4.27
4.31
4.74
5.24
5.50
5.31
4.68
3.71
2.58
1.44
0.38
-0.53
-1.24
-1.75
-2.09
-2.33
-2.60
-2.97
-3.51
-4.19
-4.96
-5.75
-6.51
-7.24
-7.98
-8.77
-9.57
-10.32
-10.85
-10.99
-10.62
-9.69
-8.26
-6.45
-4.35
-2.09
0.30
2.74
5.11
7.20
8.72
9.45
9.31
8.42
7.13
5.84
4.87
4.38
4.27
4.36
4.44
4.40
4.24
4.00
3.73
3.42
3.02
2.52
1.95
1.40
0.93
0.54
0.13
-0.46
-1.28
-2.27
-3.22
-3.88
-4.14
-4.10
-4.10
-4.50
-5.49
-6.93
-8.38
-9.29
-9.24
-8.14
-6.19
-3.83
-1.53
0.41
1.81
2.66
2.98
2.84
2.34
1.63
0.90
0.37
0.24
0.60
1.45
2.63
3.93
5.08
5.86
6.17
6.08
5.74
5.32
4.92
4.55
4.14
3.65
3.07
2.46
1.90
1.40
0.89
0.22
-0.73
-2.03
-3.60
-5.28
-6.83
-8.05
-8.75
-8.82
-8.25
-7.08
-5.45
-3.54
-1.53
0.42
2.16
3.64
4.81
5.68
6.30
6.70
6.95
7.09
7.20
7.34
7.56
7.87
8.17
8.35
8.26
7.83
7.10
6.20
5.29
4.48
3.84
3.32
2.84
2.34
1.79
1.16
0.41
-0.50
-1.59
-2.84
-4.18
-5.51
-6.77
-7.93
-8.96
-9.86
-10.58
-11.01
-10.99
-10.41
-9.22
-7.47
-5.29
-2.88
-0.49
1.64
3.29
4.33
4.77
4.74
4.49
4.29
4.29
4.51
4.81
5.05
5.13
5.06
4.94
4.85
4.78
4.66
4.38
3.84
3.02
1.97
0.83
-0.27
-1.18
-1.86
-2.40
-2.97
-3.77
-4.90
-6.29
-7.69
-8.78
-9.32
-9.19
-8.41
-7.05
-5.17
-2.71
0.43
4.37
9.10
14.44
19.98
25.16
29.38
32.21
33.53
33.68
33.40
33.68
35.48
39.45
45.70
53.77
62.73
71.36
78.57
83.52
85.94
85.98
84.11
80.85
76.51
71.12
64.45
56.23
46.23
34.65
22.17
9.97
-0.61
-8.46
-13.14
-15.13
-15.75
-16.72
-19.44
-24.33
-30.68
-36.99
-41.63
-43.52
-42.37
-38.72
-33.66
-28.26
-23.17
-18.67
-14.78
-11.59
-9.31
-8.30
-9.05
-12.46
-18.91
-27.84
-37.89
-47.62
-56.23
-63.64
-69.98
-74.85
-78.03
-78.38
-74.51
-66.08
-54.80
-44.02
-37.03
-35.25
-37.80
-44.20
-53.70
-65.72
-80.00
-96.60
-115.38
-135.22
-153.99
-169.31
-181.79
-192.27
-200.75
-206.04
-207.07
-203.71
-196.76
-187.34
-161.83
-114.54
-50.24
17.79
77.09
121.56
151.05
168.59
178.11
183.10
183.47
178.59
168.86
157.00
145.48
136.08
129.52
125.30
121.90
115.48
103.15
84.34
61.29
38.22
19.20
6.37
-0.41
-2.58
-2.63
-1.56
-0.30
3.99
12.95
25.73
39.44
50.54
56.43
55.75
49.06
38.20
26.03
14.58
4.77
-3.37
-10.17
-15.79
-20.33
-23.73
-25.94
-26.75
-26.49
-25.80
-25.27
-25.24
-25.69
-26.29
-26.61
-26.32
-25.21
-23.47
-21.48
-19.57
-17.84
-16.17
-14.29
-12.02
-9.33
-6.35
-3.38
-0.74
1.38
2.97
4.16
5.11
5.92
6.68
7.45
8.32
9.33
10.48
11.68
12.72
13.42
13.65
13.46
13.06
12.65
12.39
12.27
12.16
11.88
11.27
10.30
9.04
7.68
6.45
5.53
5.00
4.80
4.74
4.59
4.17
3.40
2.38
1.29
0.31
-0.47
-1.07
-1.58
-2.07
-2.58
-3.10
-3.58
-4.06
-4.60
-5.36
-6.40
-7.69
-9.01
-10.01
-10.33
-9.73
-8.24
-6.15
-3.91
-1.96
-0.54
0.38
1.02
1.62
2.26
2.88
3.26
3.24
2.83
2.21
1.62
1.24
1.12
1.21
1.36
1.45
1.42
1.25
0.93
0.49
-0.02
-0.60
-1.22
-1.93
-2.77
-3.73
-4.75
-5.70
-6.45
-6.99
-7.39
-7.81
-8.34
-9.02
-9.75
-10.32
-10.55
-10.30
-9.53
-8.26
-6.62
-4.72
-2.72
-0.75
1.06
2.64
3.91
4.89
5.61
6.11
6.43
6.59
6.55
6.32
5.89
5.34
4.77
4.30
4.04
4.01
4.17
4.38
4.46
4.23
3.61
2.63
1.43
0.19
-0.92
-1.84
-2.60
-3.25
-3.87
-4.49
-5.14
-5.88
-6.76
-7.80
-8.97
-10.14
-11.11
-11.62
-11.46
-10.48
-8.70
-6.29
-3.53
-0.77
1.72
3.78
5.45
6.82
8.04
9.12
10.01
10.60
10.81
10.64
10.19
9.62
9.07
8.58
8.13
7.65
7.10
6.45
5.72
4.95
4.16
3.36
2.58
1.81
1.07
0.37
-0.34
-1.08
-1.89
-2.75
-3.63
-4.51
-5.39
-6.31
-7.30
-8.32
-9.24
-9.85
-9.93
-9.33
-8.04
-6.18
-3.94
-1.52
0.93
3.30
5.49
7.37
8.81
9.75
10.19
10.23
10.03
9.79
9.62
9.59
9.69
9.84
9.95
9.94
9.76
9.38
8.81
8.09
7.22
6.23
5.10
3.80
2.35
0.81
-0.73
-2.18
-3.47
-4.56
-5.43
-6.12
-6.70
-7.27
-7.99
-8.98
-10.30
-11.85
-13.34
-14.39
-14.59
-13.70
-11.73
-8.95
-5.80
-2.72
-0.05
2.10
3.81
5.22
6.49
7.66
8.65
9.30
9.52
9.32
8.87
8.41
8.12
8.04
8.06
7.99
7.67
7.09
6.36
5.63
5.00
4.44
3.86
3.15
2.24
1.16
-0.01
-1.17
-2.21
-3.05
-3.66
-4.08
-4.46
-4.99
-5.85
-7.12
-8.71
-10.38
-11.80
-12.61
-12.58
-11.65
-9.92
-7.64
-5.10
-2.56
-0.17
2.04
4.09
5.94
7.53
8.69
9.34
9.46
9.18
8.69
8.14
7.60
7.10
6.59
6.11
5.69
5.34
5.02
4.61
4.01
3.13
2.05
0.88
-0.27
-1.30
-2.19
-2.99
-3.76
-4.56
-5.46
-6.49
-7.62
-8.82
-10.01
-11.13
-12.12
-12.88
-13.30
-13.18
-12.37
-10.79
-8.55
-5.90
-3.16
-0.60
1.65
3.59
5.30
6.88
8.34
9.63
10.64
11.26
11.45
11.23
10.69
9.94
9.10
8.26
7.45
6.71
6.08
5.58
5.16
4.73
4.16
3.38
2.34
1.11
-0.18
-1.45
-2.63
-3.70
-4.66
-5.51
-6.25
-6.97
-7.79
-8.83
-10.06
-11.28
-12.14
-12.29
-11.54
-9.95
-7.76
-5.24
-2.62
-0.04
2.42
4.68
6.61
8.12
9.18
9.88
10.38
10.79
11.15
11.40
11.44
11.21
10.70
9.96
9.02
7.96
6.83
5.77
4.87
4.21
3.70
3.18
2.39
1.16
-0.52
-2.48
-4.40
-6.00
-7.13
-7.80
-8.21
-8.60
-9.17
-10.06
-11.24
-12.64
-14.04
-15.20
-15.79
-15.56
-14.34
-12.18
-9.31
-6.09
-2.87
0.08
2.66
4.85
6.70
8.20
9.34
10.03
10.22
9.92
9.23
8.32
7.44
6.79
6.49
6.54
6.80
7.07
7.17
7.02
6.62
6.01
5.21
4.19
2.90
1.38
-0.26
-1.80
-3.02
-3.80
-4.20
-4.38
-4.59
-5.03
-5.81
-6.89
-8.15
-9.42
-10.50
-11.18
-11.30
-10.74
-9.49
-7.66
-5.41
-2.91
-0.31
2.27
4.72
6.88
8.59
9.69
10.13
10.01
9.52
8.90
8.32
7.84
7.41
6.94
6.39
5.77
5.14
4.56
4.05
3.59
3.10
2.52
1.78
0.87
-0.17
-1.22
-2.17
-2.96
-3.62
-4.25
-4.97
-5.83
-6.79
-7.79
-8.77
-9.75
-10.75
-11.74
-12.52
-12.80
-12.25
-10.71
-8.27
-5.25
-2.04
1.04
3.82
6.31
8.51
10.37
11.75
12.50
12.61
12.23
11.64
11.14
10.83
10.67
10.46
9.99
9.18
8.09
6.86
5.66
4.60
3.67
2.78
1.80
0.62
-0.77
-2.27
-3.71
-4.90
-5.77
-6.40
-7.01
-7.86
-9.08
-10.67
-12.41
-14.00
-15.11
-15.53
-15.15
-13.99
-12.18
-9.92
-7.40
-4.79
-2.22
0.28
2.68
5.00
7.15
9.03
10.47
11.29
11.44
10.97
10.09
9.08
8.18
7.50
7.01
6.56
6.04
5.40
4.76
4.25
3.95
3.74
3.39
2.64
1.37
-0.33
-2.21
-3.97
-5.40
-6.43
-7.19
-7.87
-8.65
-9.60
-10.71
-11.88
-12.99
-13.89
-14.42
-14.38
-13.63
-12.07
-9.73
-6.77
-3.45
-0.07
3.09
5.82
8.03
9.70
10.88
11.63
12.01
12.08
11.90
11.48
10.88
10.13
9.25
8.27
7.20
6.05
4.86
3.73
2.77
2.09
1.70
1.49
1.27
0.85
0.08
-1.04
-2.38
-3.82
-5.22
-6.57
-7.92
-9.27
-10.63
-11.91
-12.98
-13.70
-13.97
-13.69
-12.80
-11.28
-9.14
-6.46
-3.37
-0.05
3.28
6.35
8.89
10.67
11.53
11.56
11.00
10.22
9.58
9.28
9.30
9.46
9.57
9.46
9.07
8.39
7.40
6.08
4.42
2.53
0.57
-1.26
-2.82
-4.06
-5.09
-6.07
-7.14
-8.38
-9.77
-11.27
-12.85
-14.48
-16.16
-17.81
-19.20
-20.06
-20.09
-19.13
-17.26
-14.76
-12.02
-9.33
-6.83
-4.58
-2.57
-0.92
0.11
0.21
-0.81
-2.90
-5.70
-8.62
-11.12
-12.82
-13.65
-13.84
-13.78
-13.90
-14.47
-15.47
-16.69
-17.84
-18.70
-19.14
-19.23
-19.27
-19.67
-20.82
-22.58
-24.37
-25.20
-23.91
-19.45
-11.37
-0.08
13.14
26.59
39.09
49.72
57.88
63.18
65.61
65.58
63.92
61.73
60.03
60.12
62.31
66.05
70.15
73.88
77.22
80.51
83.81
86.50
88.33
88.77
87.48
84.28
79.49
73.48
66.23
57.12
40.78
16.05
-13.59
-42.05
-65.21
-82.14
-93.67
-100.92
-104.56
-104.88
-101.32
-95.17
-86.57
-76.36
-65.60
-55.37
-46.79
-40.92
-38.28
-37.85
-38.01
-37.02
-33.82
-28.41
-21.80
-15.73
-11.96
-11.46
-13.65
-17.16
-20.35
-22.32
-22.80
-22.01
-20.51
-18.97
-17.89
-17.24
-16.69
-15.64
-13.64
-10.52
-6.55
-2.50
0.58
1.81
1.11
-0.73
-2.18
-1.67
1.69
7.74
15.14
21.89
26.21
27.28
25.69
23.28
22.40
25.01
31.96
42.58
54.86
65.98
72.74
72.02
61.46
40.46
11.34
-20.21
-46.31
-59.79
-57.74
-43.54
-25.69
-13.75
-13.51
-24.13
-39.18
-50.61
-53.39
-47.94
-39.19
-33.04
-32.89
-38.21
-45.60
-51.33
-53.27
-51.25
-46.10
-38.44
-27.46
-11.45
11.12
40.22
73.09
104.69
129.26
141.97
140.57
126.21
102.99
76.32
51.04
29.99
14.68
6.54
6.68
15.12
29.63
45.23
55.06
53.14
37.27
11.83
-13.04
-26.58
-22.73
-2.48
27.43
57.76
79.64
85.78
72.69
41.62
-2.17
-50.29
-92.43
-118.92
-124.46
-106.82
-75.17
-47.03
-35.44
-40.08
-51.12
-59.42
-62.51
-62.26
-61.76
-63.20
-65.22
-62.98
-53.66
-38.36
-21.48
-8.09
-1.13
-0.51
-3.96
-7.00
-5.06
4.17
19.45
37.11
53.05
64.52
70.57
68.82
59.85
47.82
38.55
35.35
37.46
41.33
43.51
42.36
38.05
33.74
30.52
28.25
25.58
21.34
14.92
7.02
-0.81
-7.61
-12.98
-17.66
-22.30
-27.39
-32.65
-38.20
-43.98
-49.38
-53.54
-55.14
-53.66
-49.79
-46.00
-45.58
-52.65
-69.40
-92.15
-112.56
-120.39
-110.15
-83.75
-51.38
-17.65
14.08
41.81
65.16
82.02
90.78
90.58
81.96
66.98
49.23
31.68
16.97
7.06
2.48
2.56
5.03
7.11
6.65
3.29
-2.56
-9.40
-15.11
-17.97
-16.95
-12.61
-6.71
-1.15
3.21
6.25
8.82
12.13
16.93
23.47
30.94
38.14
44.59
50.98
58.14
66.25
74.36
80.67
83.90
83.24
78.58
70.63
60.51
48.85
35.56
20.21
0.54
-21.13
-39.28
-49.25
-50.13
-44.30
-35.62
-27.84
-23.57
-23.57
-26.61
-30.85
-35.02
-38.31
-40.33
-40.91
-40.02
-37.64
-33.59
-28.01
-20.96
-13.68
-7.51
-3.15
-0.25
2.27
5.38
9.70
15.33
21.47
26.52
29.08
28.11
23.16
14.28
1.92
-12.42
-26.51
-37.13
-41.98
-40.36
-33.85
-25.29
-15.83
-7.31
-0.53
4.45
7.20
5.87
-1.32
-14.90
-32.84
-50.99
-65.22
-72.49
-72.05
-65.00
-55.18
-43.73
-31.75
-20.19
-9.76
-0.98
6.43
13.02
19.17
24.58
28.70
30.61
29.98
27.42
23.45
19.24
15.63
12.70
9.88
6.67
2.77
-1.46
-5.28
-8.09
-9.58
-10.00
-9.84
-9.49
-8.83
-7.66
-5.72
-3.07
-0.15
2.45
4.14
4.64
3.99
2.58
0.80
-1.09
-2.93
-4.62
-5.94
-6.68
-6.62
-5.65
-3.77
-1.10
2.26
6.18
10.53
15.06
19.37
22.92
25.26
26.18
25.79
24.45
22.64
20.78
19.07
17.51
15.99
14.44
12.90
11.49
10.33
9.39
8.47
7.24
5.41
2.92
0.00
-2.90
-5.33
-7.07
-8.18
-9.01
-9.98
-11.43
-13.41
-15.64
-17.67
-19.04
-19.44
-18.79
-17.21
-14.98
-12.36
-9.58
-6.68
-3.63
-0.44
2.74
5.65
7.97
9.42
9.85
9.31
8.30
7.37
6.93
7.03
7.46
7.89
7.97
7.27
5.46
2.77
-0.35
-3.41
-5.92
-7.45
-7.62
-6.36
-4.29
-2.23
-0.32
1.46
3.05
4.15
4.47
4.10
3.73
4.11
6.33
12.02
21.93
35.45
50.85
66.25
80.74
94.54
108.00
114.71
109.16
89.46
59.20
24.73
-8.59
-37.75
-59.83
-76.34
-88.02
-93.91
-93.05
-85.43
-72.51
-57.12
-42.46
-31.05
-24.43
-22.15
-21.99
-21.74
-20.29
-18.16
-16.82
-17.58
-20.76
-25.87
-31.30
-34.80
-34.66
-30.35
-22.78
-14.01
-6.33
-1.47
-0.10
-1.34
-3.20
-3.60
-1.42
3.08
8.55
13.40
16.56
17.73
17.35
16.18
14.86
13.81
13.29
13.39
14.00
14.74
14.89
13.72
10.79
6.23
0.74
-4.60
-8.77
-11.11
-11.53
-10.48
-8.82
-7.48
-7.23
-8.47
-11.10
-14.56
-17.96
-20.31
-20.84
-19.24
-15.74
-11.05
-6.13
-1.84
1.37
3.58
5.25
6.96
9.07
11.51
13.87
15.52
16.02
15.25
13.46
11.18
8.98
7.32
6.40
6.19
6.46
6.92
7.25
7.18
6.48
5.01
2.76
-0.03
-2.84
-4.99
-5.88
-5.31
-3.68
-1.88
-1.03
-1.96
-4.82
-9.01
-13.34
-16.48
-17.44
-15.82
-11.89
-6.44
-0.47
5.03
9.38
12.26
13.77
14.34
14.48
14.64
15.08
15.81
16.64
17.35
17.75
17.76
17.48
17.08
16.74
16.53
16.32
15.86
14.87
13.25
11.20
9.15
7.54
6.59
6.14
5.70
4.77
3.04
0.62
-2.10
-4.60
-6.50
-7.66
-8.15
-8.09
-7.51
-6.33
-4.43
-1.81
1.34
4.63
7.68
10.24
12.30
14.05
15.71
17.35
18.83
19.86
20.16
19.66
18.50
17.03
15.61
14.53
13.86
13.54
13.33
12.95
12.17
10.91
9.24
7.41
5.65
4.08
2.65
1.20
-0.42
-2.20
-3.97
-5.48
-6.60
-7.37
-8.00
-8.73
-9.67
-10.70
-11.53
-11.81
-11.30
-9.90
-7.67
-4.82
-1.56
1.95
5.57
9.11
12.29
14.71
15.99
15.93
14.64
12.58
10.39
8.69
7.79
7.65
7.95
8.31
8.37
7.98
7.12
5.81
4.13
2.12
-0.13
-2.48
-4.74
-6.71
-8.24
-9.27
-9.86
-10.21
-10.57
-11.21
-12.35
-14.04
-16.15
-18.37
-20.26
-21.43
-21.64
-20.88
-19.34
-17.32
-15.06
-12.67
-10.09
-7.23
-4.04
-0.61
2.83
5.92
8.37
9.98
10.75
10.83
10.44
9.80
9.09
8.38
7.66
6.92
6.10
5.19
4.16
3.03
1.77
0.39
-1.10
-2.65
-4.17
-5.54
-6.61
-7.29
-7.53
-7.49
-7.41
-7.62
-8.42
-9.91
-11.95
-14.13
-15.97
-17.04
-17.17
-16.42
-15.03
-13.28
-11.30
-9.15
-6.76
-4.09
-1.14
1.98
5.11
8.08
10.70
12.82
14.28
15.05
15.19
14.91
14.44
13.96
13.58
13.22
12.77
12.11
11.20
10.11
8.93
7.79
6.76
5.83
4.94
3.98
2.84
1.43
-0.26
-2.15
-4.08
-5.87
-7.39
-8.65
-9.72
-10.75
-11.81
-12.87
-13.78
-14.32
-14.27
-13.49
-11.94
-9.63
-6.67
-3.24
0.38
3.83
6.75
8.91
10.29
11.02
11.34
11.50
11.62
11.73
11.73
11.53
11.06
10.35
9.47
8.60
7.88
7.43
7.25
7.25
7.27
7.13
6.70
5.92
4.88
3.72
2.59
1.58
0.68
-0.25
-1.42
-2.96
-4.89
-7.02
-9.09
-10.77
-11.83
-12.19
-11.86
-10.92
-9.52
-7.78
-5.84
-3.82
-1.83
0.05
1.79
3.32
4.62
5.62
6.27
6.55
6.47
6.07
5.44
4.68
3.93
3.30
2.88
2.63
2.44
2.11
1.47
0.47
-0.76
-1.97
-2.93
-3.50
-3.73
-3.77
-3.82
-4.01
-4.37
-4.93
-5.66
-6.58
-7.67
-8.85
-9.99
-10.92
-11.51
-11.61
-11.16
-10.11
-8.49
-6.39
-3.93
-1.28
1.44
4.11
6.64
8.90
10.74
11.98
12.54
12.44
11.83
10.92
9.88
8.85
7.88
6.99
6.22
5.60
5.18
4.93
4.77
4.55
4.08
3.25
2.02
0.54
-0.99
-2.35
-3.42
-4.20
-4.80
-5.39
-6.06
-6.83
-7.69
-8.58
-9.52
-10.52
-11.59
-12.64
-13.50
-13.99
-13.90
-13.13
-11.67
-9.59
-7.10
-4.46
-2.00
0.00
1.40
2.19
2.54
2.66
2.72
2.75
2.71
2.50
2.07
1.45
0.75
0.11
-0.39
-0.72
-0.93
-1.08
-1.22
-1.39
-1.58
-1.83
-2.18
-2.72
-3.49
-4.47
-5.52
-6.44
-7.01
-7.20
-7.14
-7.12
-7.44
-8.23
-9.34
-10.37
-10.84
-10.40
-9.01
-6.92
-4.54
-2.25
-0.20
1.65
3.45
5.32
7.23
9.00
10.41
11.28
11.55
11.29
10.68
9.87
9.00
8.14
7.33
6.62
6.05
5.66
5.44
5.31
5.12
4.74
4.06
3.12
2.00
0.81
-0.33
-1.43
-2.50
-3.58
-4.69
-5.85
-7.07
-8.35
-9.62
-10.78
-11.69
-12.22
-12.29
-11.86
-10.97
-9.65
-7.94
-5.90
-3.66
-1.39
0.78
2.76
4.55
6.16
7.53
8.56
9.12
9.18
8.90
8.53
8.30
8.29
8.36
8.28
7.82
6.95
5.78
4.54
3.43
2.56
1.90
1.42
1.04
0.73
0.42
0.05
-0.50
-1.29
-2.34
-3.57
-4.87
-6.11
-7.22
-8.23
-9.22
-10.24
-11.23
-11.96
-12.17
-11.66
-10.37
-8.47
-6.25
-4.00
-1.91
-0.00
1.75
3.39
4.86
6.11
7.07
7.74
8.17
8.40
8.43
8.23
7.76
7.07
6.27
5.54
5.00
4.65
4.39
4.05
3.49
2.66
1.66
0.64
-0.26
-0.97
-1.52
-2.03
-2.56
-3.16
-3.82
-4.54
-5.34
-6.32
-7.56
-9.03
-10.56
-11.83
-12.54
-12.47
-11.55
-9.92
-7.78
-5.34
-2.80
-0.32
1.98
3.95
5.47
6.46
6.92
6.91
6.52
5.87
5.09
4.31
3.66
3.22
3.00
2.94
2.90
2.74
2.34
1.63
0.66
-0.47
-1.62
-2.64
-3.43
-4.03
-4.56
-5.21
-6.16
-7.49
-9.15
-10.95
-12.61
-13.88
-14.60
-14.74
-14.45
-13.96
-13.50
-13.22
-13.07
-12.84
-12.21
-10.84
-8.53
-5.32
-1.48
2.50
6.07
8.76
10.28
10.61
10.00
8.89
7.75
6.95
6.69
6.89
7.30
7.63
7.61
7.16
6.39
5.51
4.79
4.40
4.37
4.62
4.91
4.96
4.51
3.36
1.43
-1.19
-4.21
-7.24
-9.82
-11.62
-12.49
-12.52
-11.92
-10.90
-9.57
-7.89
-5.83
-3.40
-0.85
1.45
3.12
3.93
3.96
3.58
3.32
3.63
4.70
6.34
8.04
9.15
9.10
7.61
4.77
1.01
-2.96
-6.35
-8.46
-8.87
-7.66
-5.38
-2.90
-1.11
-0.59
-1.36
-2.98
-4.81
-6.28
-7.19
-7.60
-7.69
-7.63
-7.51
-7.47
-7.76
-8.64
-10.22
-12.23
-14.05
-14.89
