1594825280.00
64.000000
-0.00
-0.00
-0.00
-0.00
-0.00
-0.00
-0.00
-0.00
-0.00
-0.00
0.00
0.01
0.01
-0.00
-0.03
-0.05
-0.05
0.00
0.13
0.36
0.66
1.01
1.37
1.72
2.06
2.40
2.79
3.24
3.80
4.42
5.06
5.66
6.20
6.68
7.15
7.68
8.31
9.14
10.09
11.04
11.88
12.56
13.14
13.76
14.65
15.97
17.92
20.32
22.90
25.37
27.57
29.58
31.70
34.37
37.87
42.57
48.09
53.91
59.47
64.44
68.92
73.40
78.57
84.92
92.95
102.11
111.60
120.56
128.45
135.34
141.87
149.35
156.41
165.24
176.38
189.92
204.71
217.95
225.40
222.46
205.70
174.09
129.82
76.60
18.75
-40.34
-98.87
-156.31
-212.67
-267.76
-321.07
-371.52
-418.49
-461.28
-499.03
-530.35
-553.35
-566.02
-566.77
-555.04
-531.27
-497.18
-454.95
-406.77
-354.55
-299.82
-243.90
-188.18
-134.21
-83.55
-37.89
1.30
33.00
57.05
74.61
88.30
101.75
118.43
140.35
166.95
195.26
221.05
240.56
251.86
255.28
252.68
246.20
237.33
226.61
214.09
200.00
185.03
170.17
156.23
143.42
131.40
119.48
107.18
94.57
82.24
71.05
61.69
54.35
48.67
43.89
39.35
34.49
29.17
23.66
18.41
13.86
10.29
7.67
5.81
4.36
3.00
1.57
0.06
-1.40
-2.69
-3.72
-4.57
-5.37
-6.25
-7.25
-8.21
-8.89
-9.08
-8.70
-7.90
-7.01
-6.33
-6.07
-6.29
-6.83
-7.47
-7.93
-7.99
-7.53
-6.58
-5.33
-4.07
-3.04
-2.40
-2.14
-2.16
-2.37
-2.70
-3.12
-3.58
-3.98
-4.15
-3.95
-3.34
-2.45
-1.49
-0.70
-0.27
-0.25
-0.64
-1.30
-2.06
-2.75
-3.20
-3.28
-2.97
-2.27
-1.27
-0.11
1.05
2.02
2.67
2.93
2.86
2.54
2.07
1.55
1.06
0.68
0.51
0.54
0.70
0.76
0.51
-0.10
-0.84
-1.27
-0.97
0.25
2.13
4.19
5.93
7.06
7.62
7.83
7.88
7.79
7.40
6.46
4.92
2.96
0.94
-0.77
-1.97
-2.66
-2.99
-3.15
-3.36
-3.75
-4.45
-5.52
-6.93
-8.53
-10.09
-11.35
-12.12
-12.36
-12.15
-11.63
-10.94
-10.13
-9.18
-8.03
-6.63
-5.08
-3.57
-2.40
-1.82
-1.93
-2.56
-3.31
-3.70
-3.42
-2.46
-1.07
0.34
1.41
1.94
1.93
1.50
0.77
-0.17
-1.22
-2.26
-3.10
-3.55
-3.47
-2.83
-1.79
-0.61
0.41
1.09
1.38
1.43
1.43
1.49
1.60
1.61
1.39
0.91
0.28
-0.42
-0.99
-1.28
-1.19
-0.69
0.19
1.36
2.59
3.57
3.92
3.40
1.98
-0.16
-2.61
-4.86
-6.46
-7.08
-6.58
-5.04
-2.73
-0.06
2.47
4.45
5.62
5.97
5.67
5.00
4.27
3.73
3.49
3.54
3.76
3.98
4.10
4.05
3.85
3.53
3.10
2.51
1.71
0.72
-0.37
-1.41
-2.22
-2.73
-2.95
-2.99
-2.98
-3.04
-3.25
-3.67
-4.32
-5.18
-6.17
-7.10
-7.73
-7.78
-7.10
-5.66
-3.62
-1.21
1.27
3.56
5.47
6.88
7.75
8.11
8.05
7.68
7.15
6.55
5.91
5.23
4.47
3.62
2.69
1.74
0.82
-0.04
-0.86
-1.71
-2.63
-3.62
-4.67
-5.75
-6.85
-7.97
-9.12
-10.26
-11.31
-12.18
-12.82
-13.29
-13.66
-14.02
-14.34
-14.44
-14.05
-12.88
-10.79
-7.84
-4.25
-0.36
3.47
6.92
9.79
12.02
13.70
15.04
16.26
17.53
18.89
20.24
21.41
22.21
22.48
22.09
20.99
19.10
16.44
13.11
9.38
5.59
2.05
-1.04
-3.70
-6.04
-8.23
-10.28
-12.12
-13.52
-14.32
-14.43
-13.95
-13.12
-12.21
-11.42
-10.85
-10.40
-9.86
-8.98
-7.58
-5.66
-3.40
-1.12
0.87
2.32
3.14
3.39
3.22
2.79
2.27
1.82
1.53
1.44
1.51
1.64
1.64
1.43
0.98
0.46
0.10
0.15
0.69
1.63
2.73
3.68
4.26
4.43
4.31
4.08
3.91
3.84
3.83
3.84
3.84
3.91
4.13
4.51
4.98
5.33
5.36
4.97
4.24
3.38
2.69
2.37
2.46
2.79
3.07
3.04
2.55
1.62
0.37
-1.05
-2.49
-3.88
-5.13
-6.18
-6.95
-7.40
-7.54
-7.42
-7.15
-6.82
-6.49
-6.19
-5.95
-5.77
-5.69
-5.73
-5.84
-5.98
-6.06
-6.04
-5.82
-5.33
-4.52
-3.34
-1.82
-0.02
1.92
3.90
5.78
7.50
9.02
10.33
11.48
12.53
13.53
14.47
15.22
15.57
15.29
14.31
12.79
11.08
9.58
8.54
7.90
7.37
6.59
5.36
3.71
1.91
0.26
-1.04
-1.93
-2.49
-2.85
-3.16
-3.55
-4.10
-4.86
-5.75
-6.59
-7.14
-7.24
-6.89
-6.27
-5.62
-5.16
-4.93
-4.85
-4.76
-4.51
-3.96
-3.04
-1.71
-0.01
1.93
3.83
5.35
6.19
6.18
5.37
4.06
2.62
1.41
0.66
0.40
0.52
0.87
1.30
1.77
2.27
2.81
3.35
3.73
3.74
3.12
1.75
-0.34
-2.88
-5.46
-7.63
-9.04
-9.49
-9.01
-7.76
-5.95
-3.79
-1.52
0.65
2.52
3.88
4.66
4.83
4.52
3.87
3.09
2.35
1.77
1.44
1.38
1.55
1.91
2.40
2.89
3.24
3.22
2.62
1.27
-0.82
-3.47
-6.31
-8.90
-10.86
-12.01
-12.34
-12.03
-11.30
-10.40
-9.54
-8.88
-8.58
-8.73
-9.32
-10.18
-11.00
-11.40
-11.00
-9.55
-7.00
-3.50
0.63
4.95
9.04
12.56
15.35
17.43
18.98
20.27
21.49
22.73
23.91
24.79
25.05
24.39
22.58
19.60
15.68
11.27
6.98
3.39
0.87
-0.53
-0.97
-0.81
-0.40
-0.03
0.10
-0.15
-0.86
-2.09
-3.83
-6.03
-8.55
-11.28
-14.09
-16.87
-19.48
-21.72
-23.29
-23.86
-23.25
-21.46
-18.83
-15.93
-13.38
-11.68
-10.99
-11.16
-11.77
-12.39
-12.65
-12.40
-11.68
-10.63
-9.44
-8.25
-7.11
-6.03
-5.02
-4.13
-3.45
-3.12
-3.19
-3.61
-4.13
-4.49
-4.49
-4.12
-3.56
-3.09
-2.93
-3.09
-3.41
-3.62
-3.47
-2.87
-1.88
-0.65
0.62
1.79
2.86
3.84
4.84
5.90
7.03
8.18
9.26
10.16
10.78
11.05
10.97
10.60
10.06
9.52
9.13
8.96
8.99
9.09
9.05
8.74
8.10
7.21
6.23
5.31
4.55
3.96
3.53
3.23
2.99
2.77
2.49
2.06
1.43
0.65
-0.17
-0.86
-1.20
-1.05
-0.27
1.14
3.12
5.54
8.20
10.89
13.41
15.56
17.22
18.31
18.87
19.04
19.04
19.13
19.46
19.97
20.45
20.64
20.38
19.80
19.26
19.27
20.20
22.07
24.34
25.97
25.55
21.67
13.29
0.19
-16.86
-36.10
-55.17
-71.75
-84.12
-91.55
-94.26
-93.06
-88.92
-82.65
-74.81
-65.88
-56.38
-46.96
-38.28
-30.81
-24.69
-19.77
-15.74
-12.27
-9.18
-6.36
-3.67
-0.94
2.13
5.82
10.32
15.64
21.56
27.71
33.70
39.22
44.08
48.23
51.72
54.60
56.90
58.49
59.14
58.59
56.62
53.11
48.14
42.05
35.41
28.87
23.03
18.31
14.90
12.69
11.28
10.08
8.59
6.55
4.12
1.67
-0.23
-1.12
-0.94
-0.09
0.75
1.04
0.50
-0.71
-2.32
-3.96
-5.28
-6.05
-6.17
-5.57
-4.13
-1.96
1.53
6.21
11.23
15.53
18.53
20.35
21.53
22.62
23.66
24.27
23.83
22.10
19.51
16.95
15.61
15.52
17.37
21.24
26.80
33.50
41.01
49.29
58.24
67.59
76.67
84.64
90.51
93.57
93.41
89.94
84.59
78.51
72.72
68.01
65.03
64.08
65.11
67.49
70.01
71.10
69.05
62.84
52.53
39.42
25.38
12.27
1.34
-7.04
-13.13
-17.64
-21.21
-24.22
-26.78
-28.91
-30.54
-31.71
-32.48
-33.03
-33.72
-34.99
-37.22
-40.65
-45.39
-51.50
-59.06
-68.07
-78.27
-89.02
-99.11
-107.15
-111.89
-112.81
-110.35
-105.80
-100.79
-96.69
-94.16
-92.92
-92.05
-90.49
-87.57
-83.33
-78.51
-74.06
-70.65
-68.25
-66.12
-63.19
-58.78
-52.76
-45.50
-37.47
-28.96
-19.89
-9.96
0.95
12.51
23.77
33.68
41.65
47.75
52.72
57.54
63.06
69.64
76.95
83.84
88.98
91.24
89.83
84.03
73.03
56.12
33.12
4.87
-27.12
-59.77
-88.99
-111.14
-124.68
-130.71
-132.15
-132.29
-133.45
-138.04
-146.33
-156.70
-166.96
-175.93
-183.59
-190.25
-195.63
-198.77
-201.16
-203.41
-204.70
-203.19
-197.42
-186.66
-170.62
-149.58
-124.96
-102.92
-88.65
-83.98
-87.04
-94.36
-102.59
-109.11
-112.50
-91.35
-39.38
31.70
100.61
152.58
183.94
197.63
198.85
192.99
184.89
173.73
160.05
145.80
133.66
125.05
119.62
116.28
114.14
112.76
109.39
102.82
93.98
85.35
79.01
75.73
75.17
76.37
78.15
77.75
73.72
66.58
58.34
50.97
45.41
41.59
38.80
36.19
32.43
27.12
20.95
15.11
10.44
6.96
4.12
1.32
-1.76
-5.27
-8.93
-12.22
-14.73
-16.37
-17.45
-18.37
-19.41
-20.59
-21.71
-22.39
-22.25
-21.00
-18.55
-15.05
-10.77
-6.03
-1.06
4.02
9.15
14.22
19.00
23.24
26.79
29.72
32.36
35.10
38.13
41.28
44.02
45.70
45.89
44.55
42.04
38.91
35.65
32.50
29.42
26.21
22.69
18.76
14.48
10.04
5.66
1.55
-2.24
-5.73
-9.14
-12.76
-16.95
-21.98
-27.96
-34.82
-42.25
-49.72
-56.54
-61.86
-64.93
-65.27
-62.89
-58.43
-52.92
-47.51
-42.94
-39.35
-36.27
-32.98
-28.96
-24.30
-19.59
-15.68
-13.12
-11.80
-10.94
-9.41
-6.27
-1.23
5.27
12.22
18.60
23.72
27.41
29.91
31.62
32.74
33.30
33.20
32.42
31.18
29.84
28.75
28.04
27.48
26.61
24.99
22.47
19.37
16.40
14.43
14.11
15.65
18.73
22.69
26.76
30.36
33.14
35.08
36.32
37.13
37.73
38.30
38.85
39.30
39.41
38.95
37.71
35.59
32.57
28.74
24.26
19.40
14.56
10.18
6.69
4.26
2.74
1.72
0.63
-0.97
-3.24
-6.10
-9.24
-12.31
-14.95
-16.86
-17.75
-17.42
-15.78
-12.87
-8.91
-4.23
0.74
5.53
9.71
12.90
14.86
15.55
15.19
14.18
12.97
11.96
11.39
11.35
11.79
12.64
13.77
15.04
16.30
17.39
18.17
18.61
18.72
18.57
18.21
17.64
16.81
15.65
14.18
12.53
10.89
9.45
8.28
7.27
6.17
4.67
2.60
0.05
-2.60
-4.79
-6.07
-6.22
-5.42
-4.10
-2.72
-1.51
-0.39
1.04
3.16
6.15
9.79
13.57
16.86
19.17
20.34
20.47
19.82
18.70
17.26
15.58
13.65
11.56
9.43
7.44
5.73
4.24
2.81
1.19
-0.73
-2.85
-4.84
-6.30
-6.94
-6.76
-6.08
-5.37
-5.07
-5.36
-6.17
-7.25
-8.34
-9.30
-10.08
-10.64
-10.86
-10.50
-9.28
-7.08
-3.99
-0.43
3.05
5.91
7.76
8.51
8.31
7.43
6.18
4.82
3.53
2.44
1.66
1.29
1.44
2.20
3.54
5.32
7.24
8.93
10.07
10.56
10.51
10.16
9.68
9.01
7.77
5.58
2.21
-2.12
-6.78
-11.02
-14.26
-16.35
-17.57
-18.41
-19.30
-20.46
-21.83
-23.23
-24.50
-25.54
-26.27
-26.63
-26.45
-25.59
-23.91
-21.42
-18.24
-14.56
-10.63
-6.69
-2.93
0.50
3.49
5.98
7.93
9.31
10.07
10.25
9.91
9.26
8.58
8.11
8.01
8.25
8.62
8.89
8.89
8.62
8.23
7.88
7.66
7.46
7.10
6.42
5.41
4.30
3.49
3.35
4.05
5.31
6.52
6.83
5.56
2.51
-1.86
-6.56
-10.39
-12.39
-12.22
-10.20
-7.12
-3.86
-1.01
1.22
2.96
4.47
5.91
7.31
8.61
9.78
10.90
12.04
13.21
14.24
14.77
14.45
13.09
10.81
8.07
5.45
3.46
2.29
1.77
1.49
1.03
0.17
-1.05
-2.35
-3.39
-3.98
-4.18
-4.30
-4.76
-5.93
-7.89
-10.46
-13.21
-15.71
-17.75
-19.33
-20.64
-21.81
-22.72
-23.06
-22.49
-20.90
-18.57
-16.02
-13.77
-11.98
-10.42
-8.63
-6.20
-3.09
0.37
3.63
6.21
7.86
8.62
8.71
8.43
7.98
7.48
6.93
6.27
5.45
4.47
3.39
2.36
1.49
0.75
-0.05
-1.17
-2.79
-4.81
-6.82
-8.27
-8.73
-8.12
-6.76
-5.26
-4.17
-3.85
-4.34
-5.42
-6.77
-8.15
-9.40
-10.41
-11.04
-11.10
-10.41
-8.85
-6.52
-3.72
-0.91
1.46
3.07
3.82
3.88
3.56
3.23
3.15
3.41
3.90
4.42
4.73
4.67
4.22
3.50
2.68
1.94
1.35
0.92
0.54
0.12
-0.40
-0.95
-1.43
-1.68
-1.62
-1.24
-0.69
-0.21
-0.06
-0.48
-1.62
-3.50
-6.05
-9.05
-12.17
-14.97
-16.97
-17.87
-17.60
-16.44
-14.84
-13.27
-11.97
-10.88
-9.73
-8.24
-6.30
-4.02
-1.69
0.46
2.30
3.84
5.18
6.41
7.51
8.36
8.82
8.81
8.33
7.51
6.51
5.50
4.57
3.67
2.65
1.39
-0.13
-1.79
-3.31
-4.39
-4.94
-5.06
-5.05
-5.24
-5.87
-6.92
-8.22
-9.56
-10.80
-11.96
-13.16
-14.44
-15.63
-16.40
-16.39
-15.39
-13.50
-11.09
-8.61
-6.36
-4.37
-2.44
-0.32
2.13
4.75
7.22
9.12
10.22
10.52
10.24
9.65
8.99
8.34
7.69
6.99
6.29
5.72
5.47
5.67
6.28
7.09
7.78
8.10
7.96
7.46
6.83
6.34
6.13
6.15
6.16
5.87
5.02
3.54
1.61
-0.40
-1.99
-2.77
-2.54
-1.36
0.54
2.87
5.40
7.99
10.56
12.99
15.08
16.56
17.17
16.85
15.78
14.36
13.03
12.09
11.54
11.15
10.58
9.64
8.41
7.20
6.38
6.14
6.38
6.73
6.78
6.30
5.30
4.05
2.84
1.82
0.98
0.09
-1.02
-2.52
-4.39
-6.53
-8.75
-10.82
-12.47
-13.49
-13.71
-13.05
-11.62
-9.60
-7.29
-5.01
-3.02
-1.50
-0.50
0.03
0.22
0.25
0.25
0.28
0.31
0.20
-0.12
-0.63
-1.19
-1.58
-1.60
-1.22
-0.62
-0.12
-0.01
-0.41
-1.18
-2.04
-2.72
-3.12
-3.33
-3.58
-4.04
-4.70
-5.44
-6.09
-6.60
-7.06
-7.67
-8.58
-9.71
-10.77
-11.35
-11.10
-9.84
-7.73
-5.16
-2.64
-0.56
0.93
1.97
2.91
4.08
5.62
7.41
9.16
10.56
11.50
12.01
12.25
12.31
12.13
11.51
10.25
8.30
5.78
2.94
0.04
-2.76
-5.42
-7.95
-10.42
-12.80
-15.01
-16.85
-18.17
-18.84
-18.89
-18.51
-18.02
-17.75
-17.93
-18.57
-19.50
-20.44
-21.11
-21.37
-21.18
-20.58
-19.56
-18.07
-16.00
-13.27
-9.95
-6.26
-2.55
0.86
3.76
6.07
7.88
9.32
10.45
11.21
11.51
11.26
10.54
9.58
8.73
8.29
8.36
8.75
9.10
9.00
8.26
6.97
5.45
4.07
3.07
2.40
1.76
0.85
-0.49
-2.20
-4.00
-5.58
-6.76
-7.54
-8.04
-8.32
-8.25
-7.56
-5.94
-3.27
0.29
4.26
8.08
11.27
13.64
15.34
16.70
18.07
19.58
21.06
22.15
22.44
21.71
20.06
17.87
15.61
13.64
12.04
10.63
9.16
7.46
5.64
3.97
2.73
1.99
1.53
1.01
0.10
-1.26
-2.85
-4.31
-5.31
-5.79
-5.95
-6.15
-6.71
-7.67
-8.78
-9.53
-9.44
-8.24
-6.06
-3.33
-0.62
1.68
3.47
4.96
6.44
8.06
9.71
11.07
11.78
11.72
11.06
10.20
9.56
9.35
9.46
9.57
9.30
8.48
7.19
5.74
4.50
3.67
3.23
2.92
2.43
1.51
0.10
-1.63
-3.45
-5.16
-6.71
-8.25
-10.05
-12.35
-15.18
-18.34
-21.35
-23.66
-24.85
-24.80
-23.72
-22.00
-20.02
-17.91
-15.58
-12.81
-9.47
-5.62
-1.60
2.14
5.18
7.32
8.58
9.14
9.24
9.01
8.47
7.61
6.41
4.97
3.49
2.18
1.22
0.61
0.18
-0.29
-0.94
-1.80
-2.73
-3.56
-4.15
-4.52
-4.79
-5.10
-5.54
-6.09
-6.73
-7.43
-8.28
-9.40
-10.86
-12.58
-14.30
-15.65
-16.26
-15.92
-14.67
-12.76
-10.55
-8.35
-6.31
-4.42
-2.54
-0.56
1.48
3.42
5.03
6.16
6.82
7.13
7.26
7.24
6.94
6.17
4.81
3.03
1.21
-0.13
-0.62
-0.24
0.69
1.60
2.01
1.75
1.01
0.26
-0.01
0.39
1.33
2.34
2.88
2.64
1.61
0.08
-1.54
-2.92
-3.91
-4.54
-4.88
-4.99
-4.83
-4.37
-3.64
-2.76
-1.92
-1.23
-0.66
-0.03
0.92
2.42
4.60
7.43
10.69
14.06
17.20
19.77
21.50
22.23
21.93
20.68
18.62
15.96
12.90
9.65
6.42
3.46
0.95
-0.96
-2.31
-3.23
-3.97
-4.73
-5.58
-6.45
-7.16
-7.61
-7.83
-8.03
-8.51
-9.44
-10.76
-12.13
-13.04
-13.04
-11.93
-9.77
-6.88
-3.57
-0.05
3.63
7.52
11.57
15.49
18.76
20.80
21.26
20.23
18.20
15.90
13.94
12.53
11.46
10.32
8.79
6.90
4.97
3.45
2.58
2.24
2.03
1.47
0.28
-1.48
-3.45
-5.16
-6.29
-6.78
-6.88
-6.95
-7.28
-7.96
-8.89
-9.84
-10.63
-11.23
-11.74
-12.24
-12.65
-12.73
-12.13
-10.62
-8.19
-5.14
-1.93
0.94
3.19
4.76
5.82
6.62
7.36
8.13
8.84
9.35
9.60
9.60
9.42
9.19
8.95
8.64
8.17
7.49
6.66
5.81
5.10
4.59
4.23
3.88
3.37
2.56
1.39
-0.10
-1.84
-3.74
-5.75
-7.85
-10.06
-12.37
-14.75
-17.06
-19.10
-20.64
-21.51
-21.63
-21.11
-20.13
-18.91
-17.56
-16.09
-14.41
-12.43
-10.21
-7.92
-5.80
-4.02
-2.57
-1.33
-0.11
1.18
2.47
3.53
4.15
4.25
3.96
3.55
3.33
3.42
3.77
4.12
4.18
3.72
2.69
1.23
-0.45
-2.09
-3.56
-4.84
-6.02
-7.20
-8.47
-9.85
-11.23
-12.49
-13.56
-14.47
-15.40
-16.45
-17.59
-18.59
-19.05
-18.58
-17.08
-14.74
-12.00
-9.28
-6.76
-4.33
-1.72
1.25
4.46
7.52
9.95
11.46
12.11
12.22
12.23
12.43
12.85
13.26
13.31
12.75
11.53
9.87
8.14
6.73
5.85
5.42
5.18
4.79
4.06
3.05
2.03
1.30
0.97
0.89
0.70
0.07
-1.12
-2.73
-4.47
-6.04
-7.31
-8.28
-9.05
-9.68
-10.07
-10.03
-9.29
-7.65
-5.08
-1.77
1.92
5.55
8.77
11.35
13.28
14.67
15.66
16.31
16.58
16.40
15.78
14.82
13.75
12.78
11.97
11.24
10.46
9.62
8.92
8.77
9.58
11.52
14.38
17.50
20.08
21.43
21.29
19.91
17.88
15.75
13.80
11.80
9.24
5.59
0.68
-5.15
-11.18
-16.54
-20.62
-23.21
-24.41
-24.41
-23.27
-20.89
-17.09
-11.92
-5.74
0.74
6.69
11.48
14.82
16.81
17.76
18.00
17.72
16.99
15.81
14.32
12.77
11.51
10.81
10.71
10.94
10.99
10.35
8.75
6.31
3.44
0.71
-1.42
-2.82
-3.74
-4.62
-5.96
-8.06
-11.02
-14.72
-18.93
-23.31
-27.45
-30.88
-33.10
-33.73
-32.60
-29.85
-25.93
-21.45
-16.97
-12.90
-9.34
-6.10
-2.86
0.67
4.61
8.81
12.83
16.14
18.26
18.99
18.48
17.10
15.27
13.26
11.12
8.74
6.03
3.14
0.43
-1.66
-2.80
-2.95
-2.42
-1.73
-1.36
-1.54
-2.12
-2.75
-3.06
-2.91
-2.51
-2.34
-2.92
-4.57
-7.23
-10.58
-14.14
-17.48
-20.31
-22.44
-23.73
-24.06
-23.33
-21.66
-19.33
-16.80
-14.48
-12.60
-11.09
-9.58
-7.66
-4.97
-1.44
2.76
7.21
11.46
15.13
18.02
20.10
21.46
22.18
22.27
21.64
20.17
17.85
14.88
11.68
8.79
6.69
5.58
5.33
5.51
5.59
5.18
4.19
2.83
1.45
0.30
-0.57
-1.40
-2.51
-4.12
-6.21
-8.48
-10.49
-11.84
-12.33
-12.03
-11.14
-9.88
-8.45
-7.01
-5.67
-4.65
-4.15
-4.36
-5.22
-6.42
-7.39
-7.46
-6.13
-3.27
0.81
5.42
9.77
13.26
15.70
17.30
18.47
19.61
20.82
21.92
22.55
22.41
21.42
19.71
17.56
15.18
12.70
10.10
7.34
4.47
1.60
-1.10
-3.51
-5.63
-7.59
-9.52
-11.49
-13.35
-14.76
-15.31
-14.65
-12.70
-9.71
-6.26
-3.01
-0.46
1.20
2.11
2.66
3.23
4.03
5.04
6.10
7.03
7.76
8.34
8.84
9.24
9.35
8.90
7.65
5.60
3.03
0.39
-1.84
-3.41
-4.36
-4.98
-5.62
-6.47
-7.48
-8.34
-8.70
-8.33
-7.25
-5.76
-4.30
-3.26
-2.86
-3.16
-4.06
-5.51
-7.49
-9.99
-12.89
-15.87
-18.47
-20.18
-20.67
-19.86
-18.01
-15.50
-12.73
-9.94
-7.16
-4.32
-1.36
1.71
4.67
7.17
8.82
9.36
8.82
7.52
6.03
4.91
4.50
4.78
5.44
6.08
6.41
6.43
6.28
6.12
5.99
5.70
4.96
3.65
1.88
-0.00
-1.55
-2.52
-3.03
-3.50
-4.52
-6.48
-9.40
-12.89
-16.37
-19.32
-21.47
-22.81
-23.45
-23.39
-22.49
-20.52
-17.36
-13.23
-8.68
-4.54
-1.52
0.03
0.29
-0.11
-0.41
-0.07
0.99
2.44
3.75
4.51
4.69
4.58
4.59
4.97
5.67
6.36
6.68
6.42
5.65
4.73
4.08
4.03
4.62
5.69
6.89
7.98
8.90
9.77
10.80
12.06
13.36
14.29
14.44
13.59
11.87
9.61
7.19
4.80
2.37
-0.27
-3.17
-6.15
-8.83
-10.78
-11.80
-11.95
-11.48
-10.60
-9.35
-7.54
-4.94
-1.53
2.40
6.24
9.28
10.99
11.24
10.42
9.25
8.52
8.70
9.83
11.38
12.58
12.74
11.58
9.37
6.77
4.58
3.31
3.00
3.24
3.44
3.13
2.19
0.84
-0.50
-1.49
-2.09
-2.53
-3.25
-4.60
-6.65
-9.07
-11.23
-12.45
-12.26
-10.58
-7.71
-4.20
-0.66
2.48
5.00
6.84
7.97
8.35
7.93
6.84
5.40
4.06
3.27
3.23
3.84
4.73
5.53
6.01
6.20
6.31
6.53
6.96
7.54
8.11
8.57
8.90
9.16
9.30
9.20
8.64
7.42
5.48
2.95
0.16
-2.51
-4.74
-6.40
-7.60
-8.59
-9.71
-11.24
-13.24
-15.59
-17.98
-20.00
-21.35
-21.88
-21.68
-20.91
-19.68
-17.94
-15.52
-12.25
-8.22
-3.85
0.20
3.24
4.96
5.44
5.18
4.76
4.64
4.91
5.38
5.73
5.77
5.48
5.04
4.72
4.73
5.16
5.98
7.03
8.14
9.13
9.92
10.47
10.81
10.94
10.80
10.24
9.05
7.13
4.53
1.49
-1.68
-4.75
-7.68
-10.58
-13.59
-16.63
-19.36
-21.21
-21.69
-20.59
-18.13
-14.84
-11.32
-7.99
-4.96
-2.07
0.88
3.98
7.11
9.96
12.25
13.86
14.89
15.63
16.35
17.13
17.78
17.95
17.38
16.06
14.30
12.60
11.31
10.50
9.92
9.25
8.43
7.73
7.67
8.72
10.96
13.94
16.87
18.95
19.68
19.12
17.72
16.09
14.67
13.51
12.33
10.63
7.98
4.26
-0.27
-4.96
-8.95
-11.51
-12.22
-11.18
-8.95
-6.37
-4.24
-3.10
-3.10
-4.01
-5.37
-6.62
-7.22
-6.74
-4.98
-2.06
1.50
4.78
6.78
6.75
4.61
1.05
-2.62
-5.00
-5.16
-2.99
0.75
4.84
8.07
9.65
9.32
7.15
3.32
-2.08
-8.95
-16.97
-25.40
-33.15
-39.05
-42.27
-42.54
-40.21
-36.02
-30.80
-25.21
-19.67
-14.40
-9.57
-5.31
-1.79
0.91
2.79
4.04
4.98
5.96
7.28
8.97
10.80
12.36
13.27
13.35
12.75
11.88
11.17
10.86
10.89
10.95
10.76
10.17
9.31
8.44
7.78
7.32
6.88
6.15
4.98
3.41
1.73
0.29
-0.68
-1.22
-1.61
-2.34
-3.93
-6.68
-10.57
-15.24
-20.05
-24.26
-27.28
-28.79
-28.77
-27.37
-24.82
-21.30
-16.98
-12.05
-6.92
-2.12
1.78
4.40
5.71
6.01
5.84
5.69
5.87
6.39
6.99
7.41
7.44
7.08
6.48
5.88
5.43
5.17
4.99
4.73
4.29
3.73
3.20
2.89
2.89
3.08
3.18
2.93
2.17
1.01
-0.29
-1.46
-2.42
-3.35
-4.56
-6.28
-8.46
-10.72
-12.45
-13.14
-12.51
-10.70
-8.13
-5.31
-2.59
-0.13
2.09
4.16
6.01
7.44
8.19
8.10
7.30
6.18
5.36
5.34
6.35
8.22
10.40
12.22
13.16
13.06
12.13
10.87
9.89
9.60
10.21
11.57
13.37
15.18
16.66
17.60
17.86
17.37
16.01
13.68
10.41
6.40
2.02
-2.36
-6.55
-10.63
-14.87
-19.46
-24.26
-28.75
-32.18
-33.90
-33.60
-31.47
-28.03
-23.87
-19.51
-15.21
-11.07
-7.14
-3.48
-0.25
2.42
4.46
5.97
7.17
8.37
9.79
11.42
13.04
14.20
14.49
13.72
12.02
9.86
7.83
6.41
5.76
5.75
6.05
6.33
6.45
6.39
6.24
5.99
5.50
4.57
3.01
0.83
-1.79
-4.52
-7.03
-9.05
-10.52
-11.46
-11.91
-11.81
-11.04
-9.46
-7.05
-3.96
-0.51
2.89
5.88
8.28
10.14
11.64
12.96
14.16
15.14
15.73
15.82
15.51
15.05
14.75
14.72
14.75
14.29
12.69
9.50
4.72
-1.13
-7.20
-12.56
-16.42
-18.28
-18.02
-15.90
-12.51
-8.70
-5.43
-3.43
-3.09
-4.30
-6.60
-9.39
-12.22
-14.82
-17.15
-19.20
-20.99
-22.48
-23.64
-24.45
-24.87
-24.80
-24.14
-22.78
-20.70
-17.96
-14.66
-10.94
-6.93
-2.79
1.17
4.63
7.22
8.75
9.28
9.07
8.49
7.85
7.30
6.86
6.47
6.06
5.59
5.12
4.73
4.49
4.44
4.60
4.92
5.24
5.41
5.27
4.76
3.95
2.99
2.10
1.36
0.76
0.14
-0.73
-1.99
-3.70
-5.67
-7.59
-9.04
-9.68
-9.30
-7.90
-5.63
-2.71
0.65
4.30
8.10
11.89
15.47
18.62
21.22
23.38
25.36
27.49
29.99
32.79
35.55
37.75
38.98
39.08
38.16
36.60
34.83
33.10
31.43
29.64
27.44
24.70
21.46
17.97
14.56
11.47
8.79
6.43
4.30
2.31
0.47
-1.23
-2.94
-4.98
-7.77
-11.64
-16.57
-22.12
-27.54
-31.91
-34.56
-35.19
-34.01
-31.56
-28.49
-25.29
-22.25
-19.36
-16.53
-13.68
-10.86
-8.16
-5.74
-3.71
-2.09
-0.88
-0.11
0.17
-0.08
-0.85
-1.97
-3.18
-4.17
-4.71
-4.73
-4.37
-3.90
-3.64
-3.80
-4.42
-5.36
-6.39
-7.26
-7.85
-8.20
-8.54
-9.08
-9.94
-11.08
-12.30
-13.41
-14.35
-15.25
-16.41
-18.03
-20.10
-22.25
-23.92
-24.55
-23.86
-21.91
-19.06
-15.75
-12.26
-8.67
-4.95
-1.04
2.92
6.64
9.76
12.04
13.44
14.14
14.43
14.54
14.54
14.33
13.72
12.63
11.11
9.39
7.75
6.42
5.46
4.75
4.07
3.27
2.31
1.28
0.30
-0.57
-1.33
-2.11
-3.03
-4.21
-5.64
-7.23
-8.88
-10.47
-11.97
-13.43
-14.94
-16.45
-17.71
-18.32
-17.81
-15.91
-12.70
-8.70
-4.63
-1.10
1.61
3.65
5.42
7.28
9.28
11.21
12.68
13.46
13.59
13.35
13.10
13.03
13.08
12.95
12.35
11.17
9.57
7.89
6.51
5.64
5.23
5.03
4.69
3.95
2.72
1.13
-0.59
-2.23
-3.66
-4.94
-6.23
-7.70
-9.41
-11.33
-13.29
-15.12
-16.73
-18.05
-19.06
-19.62
-19.54
-18.61
-16.66
-13.74
-10.09
-6.08
-2.11
1.58
4.86
7.81
10.53
13.11
15.51
17.61
19.22
20.28
20.79
20.88
20.70
20.36
19.85
19.09
18.04
16.75
15.44
14.37
13.72
13.47
13.35
12.99
12.06
10.47
8.36
6.06
3.94
2.25
1.04
0.12
-0.81
-2.08
-3.90
-6.33
-9.19
-12.12
-14.70
-16.54
-17.44
-17.39
-16.51
-14.97
-12.87
-10.27
-7.23
-3.87
-0.39
3.02
6.24
9.31
12.30
15.30
18.31
21.25
24.02
26.63
29.17
31.66
34.01
35.88
36.79
36.25
33.92
29.81
24.20
17.57
10.50
3.53
-2.90
-8.51
-13.15
-16.84
-19.70
-21.90
-23.59
-24.87
-25.83
-26.60
-27.36
-28.29
-29.41
-30.52
-31.18
-30.90
-29.39
-26.78
-23.59
-20.50
-18.07
-16.44
-15.32
-14.21
-12.70
-10.63
-8.19
-5.70
-3.40
-1.39
0.49
2.39
4.40
6.33
7.88
8.74
8.86
8.49
8.10
8.17
8.90
10.11
11.25
11.71
11.10
9.43
7.04
4.42
1.92
-0.36
-2.48
-4.57
-6.61
-8.41
-9.75
-10.50
-10.83
-11.06
-11.58
-12.55
-13.80
-14.89
-15.32
-14.72
-13.04
-10.49
-7.46
-4.32
-1.31
1.54
4.35
7.28
10.38
13.54
16.45
18.71
20.00
20.22
19.53
18.29
16.88
15.54
14.33
13.17
12.01
10.87
9.90
9.24
8.92
8.85
8.78
8.45
7.72
6.56
5.09
3.48
1.86
0.27
-1.33
-3.02
-4.84
-6.71
-8.49
-9.98
-11.05
-11.72
-12.13
-12.38
-12.43
-12.01
-10.73
-8.28
-4.62
-0.12
4.57
8.79
12.13
14.56
16.37
17.98
19.59
21.17
22.41
22.99
22.79
21.97
20.90
19.95
19.27
18.70
17.82
16.25
13.85
10.84
7.78
5.25
3.66
2.98
2.81
2.52
1.58
-0.23
-2.69
-5.35
-7.72
-9.54
-10.84
-11.86
-12.87
-13.99
-15.18
-16.34
-17.42
-18.44
-19.47
-20.46
-21.19
-21.32
-20.56
-18.83
-16.31
-13.38
-10.40
-7.63
-5.12
-2.82
-0.66
1.35
3.19
4.80
6.18
7.36
8.38
9.22
9.83
10.17
10.25
10.06
9.59
8.81
7.70
6.34
4.89
3.58
2.60
1.95
1.54
1.19
0.82
0.51
0.44
0.80
1.58
2.52
3.16
3.01
1.74
-0.66
-3.87
-7.37
-10.61
-13.13
-14.73
-15.39
-15.16
-14.07
-12.05
-9.06
-5.21
-0.92
3.15
6.35
8.31
9.09
9.16
9.10
9.28
9.72
10.07
9.93
9.10
7.75
6.28
5.07
4.23
3.58
2.72
1.39
-0.40
-2.31
-3.92
-4.93
-5.37
-5.54
-5.83
-6.44
-7.27
-8.04
-8.43
-8.33
-7.90
-7.47
-7.37
-7.80
-8.70
-9.93
-11.32
-12.78
-14.32
-15.99
-17.75
-19.42
-20.68
-21.14
-20.50
-18.68
-15.81
-12.22
-8.32
-4.49
-0.89
2.41
5.51
8.45
11.24
13.74
15.72
16.98
17.42
17.16
16.45
15.68
15.10
14.78
14.54
14.01
12.90
11.10
8.80
6.46
4.62
3.73
3.99
5.29
7.33
9.69
12.01
13.96
15.31
15.87
15.49
14.14
11.91
8.95
5.46
1.54
-2.84
-7.72
-13.09
-18.71
-24.13
-28.74
-32.00
-33.56
-33.43
-31.91
-29.46
-26.54
-23.40
-20.09
-16.45
-12.30
-7.60
-2.57
2.33
6.56
9.68
11.58
12.45
12.71
12.79
12.99
13.39
13.87
14.30
14.59
14.74
14.82
14.88
14.79
14.33
13.20
11.26
8.64
5.71
3.03
1.01
-0.21
-0.86
-1.42
-2.35
-3.89
-6.03
-8.54
-11.14
-13.60
-15.79
-17.56
-18.70
-18.96
-18.15
-16.26
-13.50
-10.23
-6.83
-3.56
-0.51
2.32
4.88
7.08
8.78
9.91
10.47
10.59
10.47
10.30
10.14
9.98
9.78
9.48
9.02
8.40
7.62
6.73
5.78
4.88
4.11
3.50
3.02
2.59
2.08
1.42
0.59
-0.38
-1.43
-2.51
-3.68
-5.04
-6.72
-8.76
-11.12
-13.56
-15.78
-17.46
-18.43
-18.70
-18.38
-17.57
-16.23
-14.16
-11.14
-7.12
-2.33
2.77
7.70
12.18
16.14
19.71
22.97
25.77
27.78
28.64
28.17
26.50
24.03
21.19
18.37
15.74
13.36
11.15
9.02
6.86
4.59
2.16
-0.40
-3.05
-5.71
-8.34
-10.85
-13.03
-14.52
-14.83
-13.62
-10.88
-7.10
-3.17
-0.07
1.50
1.30
-0.40
-3.09
-6.25
-9.49
-12.50
-14.94
-16.46
-16.77
-15.78
-13.75
-11.21
-8.79
-6.95
-5.75
-4.86
-3.69
-1.71
1.27
5.00
8.82
11.96
13.83
14.29
13.66
12.62
11.80
11.54
11.73
11.97
11.86
11.29
10.53
10.07
10.32
11.34
12.70
13.70
13.66
12.22
9.46
5.78
1.65
-2.63
-7.02
-11.69
-16.82
-22.43
-28.24
-33.74
-38.25
-41.09
-41.72
-39.77
-35.06
-27.61
-17.68
-5.91
6.65
18.55
28.24
34.42
36.51
34.77
30.21
24.18
18.01
12.55
8.22
5.04
2.88
1.58
0.98
0.98
1.45
2.39
3.87
6.01
8.87
12.30
15.88
19.00
21.02
21.47
20.12
17.06
12.59
7.15
1.19
-4.84
-10.54
-15.58
-19.78
-23.10
-25.58
-27.33
-28.35
-28.54
-27.71
-25.73
-22.64
-18.73
-14.49
-10.43
-6.97
-4.24
-2.23
-0.81
0.06
0.31
-0.13
-1.23
-2.78
-4.43
-5.81
-6.73
-7.21
-7.40
-7.45
-7.36
-6.96
-6.01
-4.38
-2.15
0.30
2.47
3.88
4.25
3.63
2.33
0.73
-0.82
-2.17
-3.28
-4.18
-4.84
-5.22
-5.30
-5.25
-5.43
-6.30
-8.22
-11.21
-14.87
-18.47
-21.22
-22.57
-22.40
-20.99
-18.84
-16.43
-13.99
-11.45
-8.62
-5.30
-1.54
2.38
5.94
8.66
10.31
10.99
11.12
11.19
11.51
12.05
12.50
12.51
11.88
10.76
9.52
8.59
8.16
8.11
8.05
7.63
6.68
5.35
4.02
3.00
2.45
2.25
2.17
2.00
1.74
1.52
1.54
1.87
2.37
2.74
2.68
2.10
1.18
0.34
0.03
0.58
2.04
4.21
6.73
9.23
11.47
13.35
14.91
16.21
17.29
18.05
18.36
18.10
17.25
15.89
14.17
12.23
10.14
7.92
5.60
3.25
1.07
-0.70
-1.91
-2.53
-2.72
-2.77
-3.02
-3.69
-4.85
-6.40
-8.12
-9.81
-11.28
-12.49
-13.47
-14.37
-15.33
-16.44
-17.71
-19.07
-20.37
-21.47
-22.22
-22.50
-22.14
-20.98
-18.92
-15.92
-12.16
-7.94
-3.66
0.30
3.72
6.56
8.91
10.94
12.79
14.52
16.07
17.29
18.03
18.20
17.82
17.05
16.10
15.17
14.34
13.59
12.82
12.01
11.22
10.60
10.25
10.13
9.99
9.49
8.34
6.48
4.13
1.74
-0.30
-1.81
-2.99
-4.28
-6.10
-8.62
-11.58
-14.39
-16.41
-17.21
-16.80
-15.58
-14.01
-12.36
-10.58
-8.31
-5.27
-1.45
2.74
6.63
9.64
11.51
12.43
12.86
13.21
13.63
13.92
13.73
12.81
11.22
9.33
7.64
6.52
6.02
5.90
5.76
5.33
4.49
3.35
2.07
0.78
-0.51
-1.87
-3.37
-4.97
-6.56
-7.97
-9.13
-10.12
-11.20
-12.69
-14.81
-17.47
-20.18
-22.25
-23.03
-22.21
-20.03
-17.10
-14.10
-11.49
-9.27
-7.11
-4.59
-1.46
2.19
5.98
9.42
12.13
14.00
15.11
15.69
15.93
15.83
15.31
14.22
12.56
10.56
8.65
7.23
6.49
6.29
6.22
5.81
4.79
3.23
1.42
-0.24
-1.57
-2.64
-3.78
-5.35
-7.46
-9.94
-12.36
-14.29
-15.53
-16.21
-16.80
-17.85
-19.73
-22.45
-25.67
-28.72
-30.92
-31.78
-31.14
-29.14
-26.13
-22.48
-18.44
-14.15
-9.67
-5.13
-0.75
3.16
6.37
8.82
10.64
12.08
13.36
14.54
15.49
15.99
15.93
15.36
14.52
13.77
13.39
13.45
13.76
13.97
13.77
13.02
11.81
10.38
8.92
7.49
5.98
4.24
2.27
0.26
-1.46
-2.59
-3.06
-3.09
-3.12
-3.66
-5.05
-7.37
-10.34
-13.46
-16.13
-17.81
-18.19
-17.26
-15.23
-12.37
-8.91
-4.95
-0.54
4.19
8.94
13.28
16.80
19.26
20.72
21.46
21.82
22.06
22.28
22.48
22.58
22.58
22.50
22.37
22.14
21.75
21.08
20.10
18.87
17.50
16.13
14.86
13.69
12.59
11.45
10.19
8.78
7.22
5.54
3.76
1.89
-0.16
-2.51
-5.25
-8.33
-11.50
-14.29
-16.15
-16.69
-15.82
-13.89
-11.48
-9.20
-7.40
-6.07
-4.94
-3.67
-2.15
-0.53
0.81
1.55
1.57
1.03
0.25
-0.49
-1.10
-1.64
-2.26
-2.99
-3.70
-4.19
-4.27
-3.92
-3.35
-2.85
-2.69
-3.00
-3.71
-4.64
-5.50
-6.06
-6.16
-5.76
-4.97
-4.02
-3.23
-2.90
-3.26
-4.38
-6.15
-8.39
-10.79
-12.99
-14.58
-15.18
-14.50
-12.48
-9.28
-5.28
-0.98
3.18
6.93
10.19
13.03
15.57
17.88
19.91
21.50
22.51
22.85
22.53
21.70
20.53
19.12
17.43
15.36
12.81
9.81
6.57
3.42
0.66
-1.57
-3.37
-4.97
-6.59
-8.26
-9.81
-10.99
-11.65
-11.87
-11.98
-12.43
-13.56
-15.47
-18.02
-20.90
-23.79
-26.44
-28.67
-30.31
-31.16
-30.98
-29.61
-27.05
-23.48
-19.28
-14.87
-10.64
-6.84
-3.50
-0.47
2.48
5.51
8.60
11.46
13.64
14.80
14.78
13.80
12.29
10.70
9.28
8.00
6.66
5.10
3.35
1.66
0.35
-0.44
-0.80
-1.06
-1.51
-2.25
-3.03
-3.43
-3.09
-1.90
-0.11
1.81
3.34
4.13
4.00
3.00
1.33
-0.65
-2.47
-3.55
-3.41
-1.81
1.13
4.99
9.15
13.04
16.21
18.39
19.43
19.33
18.25
16.51
14.56
12.86
11.65
10.85
10.10
8.96
7.17
4.86
2.53
0.91
0.60
1.87
4.51
7.94
11.39
14.20
15.94
16.48
15.95
14.54
12.51
10.07
7.44
4.84
2.47
0.50
-1.05
-2.32
-3.57
-5.12
-7.22
-9.90
-12.98
-16.02
-18.52
-20.10
-20.55
-19.91
-18.40
-16.29
-13.80
-11.04
-8.05
-4.89
-1.66
1.50
4.45
7.11
9.46
11.48
13.09
14.15
14.43
13.79
12.24
10.01
7.54
5.30
3.69
2.87
2.74
2.98
3.21
3.19
2.88
2.43
2.05
1.85
1.72
1.43
0.76
-0.35
-1.75
-3.17
-4.47
-5.70
-7.15
-9.11
-11.66
-14.55
-17.20
-18.98
-19.41
-18.40
-16.21
-13.32
-10.18
-7.02
-3.85
-0.54
2.96
6.49
9.65
12.00
13.27
13.48
12.93
12.06
11.21
10.51
9.83
8.95
7.76
6.27
4.70
3.30
2.26
1.56
1.00
0.34
-0.58
-1.73
-2.89
-3.77
-4.22
-4.32
-4.36
-4.70
-5.59
-6.99
-8.69
-10.35
-11.74
-12.84
-13.84
-14.99
-16.38
-17.80
-18.79
-18.87
-17.72
-15.49
-12.63
-9.81
-7.47
-5.64
-4.00
-2.05
0.47
3.50
6.59
9.17
10.85
11.58
11.62
11.37
11.13
11.00
10.85
10.46
9.73
8.70
7.59
6.70
6.23
6.17
6.31
6.34
6.02
5.32
4.41
3.52
2.88
2.51
2.28
1.95
1.37
0.49
-0.60
-1.75
-2.82
-3.75
-4.56
-5.29
-5.97
-6.47
-6.56
-5.93
-4.30
-1.59
2.05
6.21
10.43
14.34
17.77
20.75
23.32
25.35
26.47
26.24
24.37
20.99
16.73
12.41
8.74
6.04
4.12
2.49
0.74
-1.23
-3.20
-4.82
-5.85
-6.46
-7.11
-8.41
-10.74
-14.04
-17.76
-21.01
-22.90
-22.91
-21.06
-17.90
-14.28
-10.96
-8.34
-6.42
-4.95
-3.74
-2.80
-2.41
-2.86
-4.16
-5.88
-7.26
-7.56
-6.34
-3.68
-0.04
3.94
7.77
11.20
14.12
16.46
17.99
18.38
17.42
15.14
11.94
8.45
5.29
2.84
1.10
-0.29
-1.84
-3.97
-6.75
-9.89
-12.74
-14.64
-15.12
-14.11
-11.91
-9.09
-6.25
-3.82
-2.00
-0.81
-0.18
-0.01
-0.20
-0.68
-1.36
-2.19
-3.20
-4.48
-6.14
-8.22
-10.59
-12.91
-14.70
-15.48
-14.95
-13.08
-10.19
-6.85
-3.67
-1.14
0.54
1.40
1.69
1.70
1.66
1.66
1.67
1.62
1.50
1.35
1.21
1.13
1.06
0.96
0.83
0.72
0.83
1.34
2.35
3.80
5.43
6.88
7.79
7.92
7.25
5.95
4.32
2.73
1.44
0.59
0.16
-0.03
-0.19
-0.49
-1.03
-1.84
-2.93
-4.27
-5.83
-7.43
-8.72
-9.25
-8.59
-6.58
-3.48
0.15
3.60
6.30
8.06
9.08
9.77
10.52
11.45
12.39
12.95
12.81
11.89
10.38
8.71
7.25
6.21
5.51
4.91
4.10
2.95
1.51
0.05
-1.16
-1.94
-2.33
-2.54
-2.86
-3.47
-4.39
-5.44
-6.36
-6.95
-7.24
-7.44
-7.83
-8.59
-9.67
-10.91
-12.11
-13.26
-14.49
-15.93
-17.58
-19.08
-19.88
-19.43
-17.42
-14.00
-9.72
-5.33
-1.48
1.50
3.65
5.29
6.80
8.40
10.08
11.64
12.80
13.42
13.53
13.32
12.99
12.66
12.27
11.72
10.92
9.96
9.07
8.52
8.49
8.93
9.58
10.08
10.07
9.40
8.16
6.60
5.07
3.88
3.13
2.71
2.35
1.77
0.77
-0.67
-2.40
-4.21
-5.88
-7.28
-8.29
-8.76
-8.49
-7.29
-5.10
-2.09
1.33
4.70
7.63
9.98
11.89
13.59
15.33
17.13
18.83
20.12
20.70
20.43
19.36
17.74
15.82
13.82
11.82
9.81
7.77
5.75
3.86
2.21
0.85
-0.28
-1.29
-2.29
-3.37
-4.51
-5.67
-6.82
-7.97
-9.16
-10.47
-11.95
-13.66
-15.62
-17.81
-20.16
-22.52
-24.65
-26.24
-27.00
-26.66
-25.16
-22.56
-19.11
-15.12
-10.88
-6.67
-2.75
0.61
3.22
5.02
6.13
6.84
7.52
8.41
9.53
10.62
11.32
11.40
10.79
9.68
8.39
7.19
6.22
5.46
4.83
4.25
3.72
3.32
3.14
3.25
3.53
3.81
3.85
3.50
2.78
1.83
0.85
-0.05
-0.93
-1.95
-3.29
-5.05
-7.19
-9.57
-12.05
-14.49
-16.76
-18.67
-19.93
-20.23
-19.32
-17.11
-13.79
-9.81
-5.70
-1.93
1.23
3.78
5.87
7.63
9.12
10.19
10.60
10.21
9.06
7.45
5.79
4.42
3.47
2.80
2.11
1.14
-0.25
-1.95
-3.69
-5.15
-6.08
-6.38
-6.18
-5.78
-5.56
-5.85
-6.78
-8.15
-9.56
-10.59
-10.98
-10.84
-10.56
-10.57
-11.15
-12.30
-13.80
-15.36
-16.84
-18.11
-19.09
-19.57
-19.26
-17.88
-15.31
-11.73
-7.52
-3.12
1.08
4.87
8.18
11.03
13.51
15.68
17.48
18.77
19.36
19.16
18.27
17.02
15.92
15.36
15.50
16.17
17.06
17.91
18.67
19.42
20.30
21.21
21.82
21.67
20.44
18.18
15.32
12.52
10.40
9.21
8.74
8.44
7.68
5.98
3.23
-0.33
-4.26
-8.09
-11.48
-14.24
-16.26
-17.43
-17.66
-16.88
-15.17
-12.82
-10.25
-7.93
-6.13
-4.86
-3.78
-2.40
-0.20
3.04
7.14
11.52
15.33
17.77
18.29
16.79
13.57
9.25
4.52
0.03
-3.69
-6.28
-7.54
-7.53
-6.55
-5.17
-4.12
-4.10
-5.48
-8.18
-11.61
-14.91
-17.35
-18.56
-18.69
-18.31
-18.09
-18.55
-19.85
-21.86
-24.21
-26.49
-28.31
-29.36
-29.39
-28.15
-25.53
-21.52
-16.29
-10.20
-3.74
2.59
8.36
13.46
18.01
22.35
26.77
31.30
35.66
39.35
41.91
43.18
43.33
42.71
41.60
40.03
37.78
34.57
30.29
25.13
19.49
13.84
8.50
3.53
-1.24
-6.07
-11.14
-16.47
-21.87
-27.06
-31.67
-35.42
-38.16
-39.99
-41.17
-42.03
-42.85
-43.74
-44.65
-45.34
-45.59
-45.19
-43.99
-41.91
-38.89
-34.88
-29.87
-24.01
-17.57
-10.97
-4.66
1.00
5.81
9.79
13.11
15.99
18.55
20.79
22.61
23.93
24.74
25.11
25.17
24.97
24.49
23.59
22.12
19.99
17.29
14.24
11.14
8.23
5.58
3.10
0.62
-1.92
-4.45
-6.62
-8.01
-8.27
-7.29
-5.28
-2.74
-0.22
1.82
3.08
3.44
2.87
1.40
-0.85
-3.58
-6.25
-8.15
-8.66
-7.37
-4.33
-0.01
4.85
9.55
13.60
16.81
19.22
20.99
22.25
23.02
23.24
22.85
21.77
20.07
17.93
15.64
13.50
11.69
10.20
8.81
7.27
5.40
3.26
1.23
-0.11
-0.25
1.05
3.62
6.90
10.13
12.69
14.22
14.73
14.43
13.58
12.26
10.35
7.62
3.90
-0.74
-5.92
-11.06
-15.59
-19.07
-21.32
-22.40
-22.48
-21.76
-20.36
-18.39
-15.95
-13.26
-10.57
-8.12
-5.95
-3.96
-1.90
0.38
2.81
5.06
6.70
7.43
7.26
6.45
5.40
4.37
3.38
2.31
1.05
-0.23
-1.10
-1.08
0.11
2.29
4.83
6.90
7.87
7.58
6.37
4.86
3.62
2.82
2.22
1.27
-0.49
-3.20
-6.57
-10.06
-13.09
-15.29
-16.57
-16.98
-16.61
-15.45
-13.41
-10.38
-6.40
-1.72
3.19
7.74
11.40
13.85
15.06
15.26
14.83
14.09
13.20
12.13
10.77
9.04
7.05
5.04
3.29
1.93
0.94
0.11
-0.76
-1.78
-2.88
-3.87
-4.57
-4.90
-4.96
-4.97
-5.22
-5.94
-7.30
-9.35
-12.05
-15.24
-18.70
-22.17
-25.46
-28.41
-30.96
-33.06
-34.59
-35.34
-35.06
-33.59
-30.95
-27.35
-23.09
-18.43
-13.52
-8.39
-3.08
2.31
7.54
12.39
16.70
20.49
23.90
27.03
29.90
32.38
34.25
35.38
35.84
35.84
35.68
35.55
35.41
35.00
33.98
32.06
29.21
25.60
21.58
17.44
13.31
9.16
4.85
0.36
-4.16
-8.39
-11.98
-14.73
-16.75
-18.42
-20.27
-22.72
-25.92
-29.62
-33.27
-36.14
-37.61
-37.36
-35.45
-32.19
-28.02
-23.27
-18.13
-12.73
-7.22
-1.89
2.88
6.74
9.55
11.36
12.42
12.96
13.13
12.98
12.49
11.71
10.82
10.11
9.85
10.17
10.98
11.96
12.70
12.89
12.44
11.53
10.47
9.53
8.72
7.81
6.48
4.54
2.09
-0.55
-2.97
-5.00
-6.76
-8.62
-10.97
-13.92
-17.12
-19.87
-21.40
-21.22
-19.36
-16.35
-12.89
-9.56
-6.54
-3.64
-0.54
2.91
6.47
9.59
11.64
12.25
11.53
9.97
8.22
6.78
5.76
4.92
3.79
2.05
-0.38
-3.19
-5.89
-7.94
-9.06
-9.20
-8.56
-7.39
-5.94
-4.37
-2.83
-1.54
-0.79
-0.87
-1.95
-3.88
-6.31
-8.73
-10.70
-12.04
-12.84
-13.28
-13.51
-13.48
-12.90
-11.39
-8.68
-4.72
0.27
5.88
11.67
17.23
22.30
26.69
30.24
32.77
34.08
33.98
32.37
29.36
25.26
20.56
15.84
11.58
8.07
5.33
3.19
1.44
-0.09
-1.43
-2.50
-3.20
-3.54
-3.68
-3.91
-4.51
-5.63
-7.25
-9.18
-11.16
-13.04
-14.76
-16.32
-17.73
-18.96
-19.97
-20.80
-21.58
-22.51
-23.70
-25.02
-26.12
-26.44
-25.42
-22.74
-18.39
-12.74
-6.40
-0.07
5.69
10.52
14.36
17.33
19.61
21.30
22.33
22.58
21.96
20.61
18.85
17.12
15.72
14.70
13.85
12.84
11.46
9.73
7.96
6.54
5.76
5.65
5.94
6.17
5.97
5.17
3.91
2.50
1.30
0.50
0.05
-0.33
-0.98
-2.19
-4.05
-6.41
-8.99
-11.44
-13.47
-14.86
-15.41
-14.92
-13.23
-10.28
-6.23
-1.47
3.43
7.91
11.61
14.45
16.57
18.19
19.43
20.26
20.59
20.35
19.60
18.54
17.43
16.46
15.71
15.09
14.48
13.75
12.84
11.80
10.74
9.75
8.88
8.05
7.16
6.09
4.80
3.32
1.77
0.26
-1.10
-2.33
-3.50
-4.76
-6.28
-8.17
-10.46
-13.08
-15.80
-18.32
-20.31
-21.48
-21.68
-20.84
-19.01
-16.29
-12.89
-9.05
-5.07
-1.23
2.22
5.11
7.38
9.03
10.16
10.87
11.23
11.27
10.94
10.19
9.10
7.89
6.93
6.56
6.90
7.79
8.81
9.53
9.70
9.41
8.93
8.48
8.08
7.47
6.33
4.49
2.10
-0.44
-2.71
-4.48
-5.84
-7.15
-8.84
-11.14
-13.98
-16.97
-19.52
-21.12
-21.44
-20.49
-18.50
-15.81
-12.68
-9.24
-5.55
-1.66
2.22
5.78
8.62
10.50
11.36
11.34
10.73
9.77
8.57
7.15
5.46
3.55
1.62
-0.07
-1.29
-1.95
-2.18
-2.24
-2.37
-2.69
-3.15
-3.63
-4.03
-4.44
-5.06
-6.11
-7.70
-9.70
-11.78
-13.56
-14.78
-15.40
-15.61
-15.76
-16.22
-17.19
-18.67
-20.47
-22.23
-23.51
-23.95
-23.34
-21.62
-18.90
-15.34
-11.16
-6.59
-1.89
2.62
6.62
9.85
12.18
13.70
14.64
15.32
15.94
16.55
17.03
17.18
16.86
16.08
15.00
13.82
12.71
11.69
10.69
9.59
8.35
7.07
5.88
4.91
4.18
3.56
2.86
1.91
0.69
-0.71
-2.16
-3.53
-4.77
-5.97
-7.26
-8.82
-10.72
-12.90
-15.13
-17.01
-18.13
-18.21
-17.19
-15.23
-12.62
-9.60
-6.28
-2.66
1.26
5.36
9.31
12.73
15.33
17.07
18.14
18.86
19.45
19.94
20.20
20.05
19.43
18.47
17.46
16.74
16.48
16.65
17.05
17.34
17.30
16.86
16.13
15.32
14.68
14.26
13.95
13.46
12.53
11.03
9.04
6.76
4.42
2.13
-0.15
-2.55
-5.16
-7.89
-10.47
-12.48
-13.54
-13.45
-12.31
-10.51
-8.52
-6.78
-5.47
-4.54
-3.84
-3.22
-2.65
-2.20
-1.92
-1.74
-1.48
-0.90
0.07
1.38
2.79
4.15
5.46
6.90
8.68
10.88
13.30
15.48
16.88
17.15
16.24
14.51
12.51
10.80
9.69
9.17
9.02
8.97
8.99
9.22
9.97
11.47
13.70
16.26
18.49
19.64
19.01
16.12
10.75
3.04
-6.52
-16.94
-26.87
-34.70
-39.02
-38.94
-34.44
-26.37
-16.24
-5.76
3.58
10.81
15.64
18.30
19.29
19.20
18.43
17.13
15.24
12.57
9.02
4.71
-0.06
-4.84
-9.24
-13.09
-16.40
-19.31
-21.91
-24.16
-25.93
-27.06
-27.51
-27.38
-26.89
-26.24
-25.52
-24.68
-23.61
-22.24
-20.70
-19.32
-18.55
-18.81
-20.35
-23.13
-26.90
-31.21
-35.58
-39.65
-43.13
-45.85
-47.60
-48.12
-47.18
-44.67
-40.76
-35.88
-30.71
-25.88
-21.82
-18.61
-16.07
-13.90
-11.83
-9.73
-7.54
-5.27
-2.98
-0.72
1.32
2.93
3.93
4.29
4.17
3.85
3.61
3.60
3.80
4.09
4.30
4.27
3.90
3.09
1.88
0.37
-1.21
-2.61
-3.62
-4.20
-4.52
-4.80
-5.27
-6.05
-7.07
-8.15
-9.02
-9.38
-8.94
-7.57
-5.26
-2.15
1.53
5.61
9.97
14.50
19.07
23.38
27.11
29.97
31.88
32.97
33.51
33.66
33.43
32.67
31.29
29.39
27.31
25.48
24.20
23.52
23.21
22.92
22.40
21.63
20.77
20.10
19.81
19.88
20.07
20.05
19.53
18.43
16.88
15.16
13.47
11.84
10.04
7.73
4.62
0.71
-3.71
-8.10
-11.86
-14.61
-16.20
-16.77
-16.50
-15.51
-13.77
-11.13
-7.50
-3.03
1.82
6.37
9.95
12.16
13.03
12.94
12.45
12.00
11.69
11.30
10.50
9.10
7.19
5.17
3.56
2.70
2.64
3.10
3.68
4.10
4.28
4.36
4.50
4.66
4.60
3.92
2.39
0.01
-2.85
-5.64
-7.93
-9.54
-10.65
-11.65
-12.92
-14.56
-16.36
-17.88
-18.61
-18.28
-16.89
-14.76
-12.30
-9.88
-7.64
-5.54
-3.43
-1.23
0.97
2.92
4.29
4.89
4.72
4.02
3.17
2.58
2.45
2.78
3.37
3.89
4.12
3.98
3.63
3.33
3.27
3.47
3.83
4.15
4.33
4.38
4.37
4.26
3.92
3.10
1.70
-0.18
-2.20
-3.99
-5.31
-6.25
-7.20
-8.65
-10.92
-13.92
-17.12
-19.74
-21.03
-20.62
-18.60
-15.49
-11.93
-8.42
-5.15
-2.01
1.20
4.55
7.86
10.74
12.83
13.97
14.28
14.07
13.67
13.29
12.93
12.43
11.61
10.38
8.82
7.19
5.81
4.93
4.60
4.63
4.71
4.55
3.97
2.98
1.70
0.31
-1.02
-2.18
-3.04
-3.49
-3.48
-3.03
-2.32
-1.64
-1.33
-1.63
-2.62
-4.09
-5.64
-6.79
-7.11
-6.38
-4.61
-2.06
0.98
4.18
7.35
10.34
13.02
15.28
17.00
18.15
18.86
19.33
19.82
20.47
21.30
22.18
22.84
23.01
22.44
21.01
18.75
15.85
12.65
9.49
6.64
4.20
2.16
0.47
-0.88
-1.81
-2.30
-2.42
-2.41
-2.55
-3.04
-3.87
-4.84
-5.67
-6.16
-6.36
-6.53
-7.02
-8.08
-9.69
-11.56
-13.14
-13.87
-13.35
-11.50
-8.68
-5.48
-2.55
-0.33
1.15
2.21
3.36
5.02
7.31
10.04
12.88
15.51
17.76
19.57
20.75
20.90
19.45
15.94
10.42
3.55
-3.45
-9.34
-13.29
-15.28
-15.91
-16.07
-16.38
-16.93
-17.34
-16.99
-15.44
-12.55
-8.47
-3.43
2.35
8.70
15.33
21.75
27.12
30.49
31.13
28.80
24.00
17.76
11.23
5.17
-0.46
-6.45
-13.95
-23.72
-35.57
-48.23
-59.67
-67.86
-71.52
-70.50
-65.70
-58.53
-50.31
-41.93
-33.78
-26.00
-18.77
-12.46
-7.48
-4.02
-1.90
-0.54
0.74
2.49
4.81
7.35
9.47
10.64
10.68
9.96
9.16
9.02
9.88
11.52
13.25
14.25
13.94
12.12
9.00
4.90
0.06
-5.43
-11.56
-18.15
-24.78
-30.82
-35.68
-38.97
-40.55
-40.51
-38.97
-35.98
-31.60
-26.03
-19.68
-13.21
-7.36
-2.70
0.52
2.42
3.35
3.76
4.02
4.37
4.86
5.45
6.02
6.47
6.75
6.90
7.05
7.32
7.79
8.40
9.03
9.53
9.85
10.02
10.18
10.48
10.96
11.53
12.02
12.24
12.08
11.58
10.88
10.14
9.38
8.47
7.15
5.24
2.86
0.47
-1.26
-1.73
-0.72
1.47
4.20
6.82
9.07
11.07
13.27
16.06
19.41
22.88
25.75
27.44
27.78
27.05
25.77
24.46
23.34
22.37
21.28
19.88
18.19
16.43
14.94
14.03
13.82
14.22
14.92
15.54
15.82
15.63
15.07
14.33
13.51
12.55
11.21
9.25
6.63
3.68
0.97
-0.90
-1.59
-1.28
-0.53
-0.03
-0.19
-1.00
-1.99
-2.55
-2.16
-0.71
1.53
4.09
6.52
8.58
10.19
11.32
11.89
11.71
10.57
8.39
5.33
1.85
-1.47
-4.02
-5.43
-5.63
-4.88
-3.61
-2.25
-1.01
0.16
1.48
3.12
4.97
6.55
7.18
6.29
3.71
-0.31
-5.24
-10.63
-16.31
-22.32
-28.67
-35.10
-40.94
-45.35
-47.69
-47.72
-45.65
-41.98
-37.19
-31.59
-25.41
-19.01
-12.95
-7.89
-4.36
-2.41
-1.49
-0.70
0.92
3.87
8.06
12.82
17.23
20.44
22.02
21.97
20.64
18.51
15.98
13.27
10.42
7.50
4.64
2.20
0.53
-0.12
0.12
0.73
0.98
0.19
-1.86
-4.85
-8.04
-10.64
-12.23
-12.92
-13.33
-14.20
-16.05
-18.93
-22.37
-25.67
-28.14
-29.31
-29.01
-27.32
-24.46
-20.68
-16.32
-11.62
-6.83
-2.03
2.79
7.72
12.80
18.00
23.07
27.61
31.14
33.17
33.37
31.64
28.15
23.37
17.88
12.34
7.24
2.93
-0.46
-2.96
-4.70
-5.85
-6.58
-7.08
-7.49
-8.00
-8.75
-9.85
-11.28
-12.90
-14.43
-15.57
-16.08
-15.99
-15.53
-15.09
-14.98
-15.38
-16.24
-17.37
-18.49
-19.32
-19.56
-18.91
-17.16
-14.22
-10.18
-5.36
-0.14
5.09
10.04
14.52
18.41
21.62
24.05
25.69
26.60
26.91
26.76
26.21
25.28
24.00
22.49
20.97
19.69
18.73
18.01
17.27
16.30
15.05
13.65
12.37
11.40
10.73
10.11
9.24
7.90
6.10
4.06
2.07
0.41
-0.88
-1.95
-3.17
-4.94
-7.52
-10.90
-14.71
-18.27
-20.83
-21.82
-21.07
-18.77
-15.36
-11.26
-6.77
-2.06
2.74
7.41
11.61
14.97
17.29
18.61
19.17
19.29
19.21
18.98
18.47
17.57
16.25
14.62
12.92
11.34
9.95
8.67
7.30
5.70
3.88
2.02
0.31
-1.12
-2.37
-3.71
-5.45
-7.76
-10.55
-13.51
-16.28
-18.61
-20.49
-22.15
-23.90
-26.04
-28.67
-31.69
-34.77
-37.51
-39.43
-40.14
-39.45
-37.40
-34.20
-30.20
-25.69
-20.82
-15.64
-10.20
-4.66
0.65
5.34
9.11
11.91
13.88
15.28
16.29
16.96
17.21
16.97
16.29
15.37
14.47
13.75
13.19
12.61
11.77
10.57
9.09
7.60
6.45
5.81
5.62
5.57
5.22
4.24
2.56
0.41
-1.82
-3.78
-5.36
-6.74
-8.23
-10.16
-12.63
-15.55
-18.66
-21.65
-24.33
-26.48
-27.93
-28.42
-27.66
-25.43
-21.71
-16.81
-11.27
-5.78
-0.86
3.21
6.53
9.38
12.09
14.77
17.27
19.25
20.32
20.35
19.49
18.14
16.78
15.74
15.04
14.50
13.86
12.98
11.93
10.91
10.14
9.67
9.35
8.85
7.88
6.33
4.40
2.43
0.80
-0.36
-1.14
-1.87
-2.87
-4.32
-6.12
-8.08
-9.99
-11.77
-13.49
-15.18
-16.64
-17.46
-17.08
-15.12
-11.58
-6.88
-1.75
3.07
7.21
10.68
13.76
16.78
19.83
22.72
25.05
26.46
26.80
26.21
25.06
23.76
22.58
21.58
20.60
19.39
17.81
15.87
13.82
11.99
10.65
9.86
9.37
8.77
7.70
6.02
3.87
1.63
-0.32
-1.80
-2.92
-4.03
-5.55
-7.75
-10.65
-14.05
-17.56
-20.78
-23.35
-25.02
-25.66
-25.20
-23.66
-21.09
-17.64
-13.56
-9.16
-4.85
-0.97
2.24
4.69
6.48
7.79
8.79
9.53
9.93
9.90
9.40
8.57
7.65
6.82
6.14
5.40
4.35
2.87
1.03
-0.81
-2.28
-3.13
-3.46
-3.59
-3.94
-4.74
-5.94
-7.28
-8.47
-9.38
-10.13
-11.07
-12.55
-14.76
-17.62
-20.82
-23.87
-26.22
-27.48
-27.38
-25.89
-23.12
-19.33
-14.82
-9.89
-4.77
0.36
5.34
9.98
14.06
17.43
20.01
21.87
23.16
24.03
24.50
24.51
23.95
22.81
21.22
19.47
17.82
16.40
15.11
13.74
12.09
10.12
7.99
5.98
4.28
2.92
1.66
0.17
-1.78
-4.17
-6.77
-9.20
-11.14
-12.49
-13.40
-14.21
-15.27
-16.87
-19.13
-22.00
-25.24
-28.50
-31.33
-33.23
-33.76
-32.60
-29.68
-25.16
-19.45
-13.11
-6.73
-0.84
4.21
8.33
11.59
14.15
16.15
17.65
18.58
18.92
18.66
17.97
17.03
16.02
15.05
14.15
13.27
12.40
11.55
10.79
10.14
9.60
9.12
8.61
7.94
6.99
5.67
3.98
2.01
-0.03
-1.94
-3.64
-5.20
-6.84
-8.74
-10.91
-13.18
-15.29
-17.12
-18.77
-20.50
-22.48
-24.57
-26.24
-26.76
-25.53
-22.40
-17.77
-12.36
-6.97
-2.09
2.11
5.75
9.02
12.04
14.74
16.99
18.60
19.50
19.73
19.47
18.97
18.46
18.06
17.75
17.43
17.01
16.46
15.81
15.15
14.53
13.95
13.35
12.61
11.67
10.51
9.16
7.71
6.27
4.88
3.52
2.10
0.53
-1.21
-3.05
-4.81
-6.40
-7.87
-9.50
-11.58
-14.18
-16.95
-19.14
-19.88
-18.63
-15.41
-10.84
-5.82
-1.18
2.68
5.83
8.61
11.33
14.06
16.50
18.18
18.76
18.21
16.89
15.38
14.15
13.36
12.80
12.08
10.88
9.21
7.38
5.78
4.67
3.98
3.34
2.37
0.87
-1.06
-3.08
-4.84
-6.17
-7.17
-8.14
-9.36
-10.93
-12.73
-14.48
-15.98
-17.22
-18.46
-20.03
-22.10
-24.45
-26.50
-27.45
-26.62
-23.79
-19.28
-13.83
-8.34
-3.44
0.66
4.13
7.33
10.50
13.60
16.27
18.05
18.68
18.24
17.16
16.03
15.31
15.10
15.12
14.90
14.09
12.65
10.85
9.13
7.79
6.85
6.01
4.87
3.17
0.96
-1.41
-3.53
-5.14
-6.29
-7.30
-8.57
-10.38
-12.72
-15.33
-17.88
-20.14
-22.17
-24.19
-26.46
-29.01
-31.54
-33.45
-34.08
-32.99
-30.13
-25.84
-20.71
-15.31
-10.03
-4.99
-0.19
4.38
8.56
12.12
14.80
16.51
17.42
17.91
18.41
19.17
20.12
20.92
21.12
20.46
18.99
17.07
15.16
13.62
12.53
11.71
10.86
9.79
8.51
7.21
6.06
5.13
4.26
3.17
1.63
-0.36
-2.57
-4.62
-6.21
-7.26
-8.03
-8.94
-10.48
-12.93
-16.18
-19.79
-23.06
-25.24
-25.78
-24.45
-21.43
-17.14
-12.09
-6.74
-1.38
3.82
8.70
13.06
16.62
19.18
20.69
21.35
21.51
21.47
21.41
21.24
20.82
20.01
18.91
17.74
16.79
16.19
15.86
15.56
15.02
14.12
12.93
11.68
10.57
9.67
8.85
7.87
6.54
4.81
2.85
0.95
-0.69
-2.05
-3.36
-5.01
-7.35
-10.48
-14.17
-17.91
-21.02
-22.94
-23.30
-22.08
-19.51
-16.03
-12.05
-7.91
-3.79
0.24
4.11
7.65
10.65
12.92
14.38
15.12
15.36
15.29
14.95
14.24
13.02
11.26
9.15
7.05
5.32
4.18
3.63
3.47
3.41
3.24
2.85
2.22
1.35
0.24
-1.21
-3.06
-5.31
-7.83
-10.38
-12.71
-14.67
-16.29
-17.84
-19.70
-22.20
-25.48
-29.30
-33.14
-36.25
-37.98
-37.91
-36.00
-32.60
-28.22
-23.43
-18.64
-14.07
-9.77
-5.76
-2.08
1.16
3.85
5.92
7.41
8.42
9.04
9.27
8.99
8.08
6.47
4.27
1.78
-0.61
-2.58
-4.06
-5.25
-6.51
-8.20
-10.46
-13.16
-15.92
-18.30
-19.89
-20.41
-19.75
-17.92
-15.02
-11.31
-7.20
-3.25
-0.06
2.00
2.89
3.00
2.99
3.55
5.08
7.55
10.48
13.18
15.02
15.76
15.60
15.15
15.19
16.41
19.16
23.35
28.43
33.62
38.01
40.87
41.74
40.56
37.60
33.37
28.44
23.36
18.48
13.97
9.89
6.21
2.96
0.32
-1.40
-1.78
-0.58
2.13
5.84
9.63
12.42
13.35
12.03
8.67
3.96
-1.21
-6.07
-10.24
-13.69
-16.72
-19.65
-22.65
-25.61
-28.10
-29.57
-29.56
-27.92
-24.87
-20.89
-16.50
-12.07
-7.66
-3.15
1.60
6.59
11.65
16.55
21.10
25.26
29.00
32.21
34.57
35.66
35.20
33.21
30.14
26.67
23.42
20.69
18.43
16.39
14.36
12.34
10.51
9.01
7.76
6.48
4.78
2.43
-0.45
-3.41
-5.83
-7.22
-7.49
-7.05
-6.71
-7.44
-10.09
-15.13
-22.46
-31.42
-40.88
-49.47
-55.95
-59.45
-59.66
-56.79
-51.39
-44.14
-35.57
-26.09
-16.02
-5.84
3.81
12.15
18.42
22.18
23.33
22.19
19.32
15.36
10.88
6.39
2.32
-0.95
-3.08
-3.81
-3.09
-1.08
1.80
4.96
7.78
9.77
10.66
10.42
9.16
7.04
4.21
0.81
-2.92
-6.69
-10.18
-13.11
-15.42
-17.18
-18.60
-19.84
-20.96
-21.82
-22.17
-21.69
-20.15
-17.44
-13.67
-9.11
-4.11
1.02
6.13
11.24
16.51
22.02
27.73
33.39
38.67
43.27
47.08
50.14
52.56
54.40
55.60
55.95
55.24
53.40
50.51
46.85
42.73
38.32
33.55
28.18
21.94
14.71
6.63
-1.95
-10.56
-18.84
-26.54
-33.51
-39.60
-44.56
-48.12
-50.17
-50.82
-50.50
-49.79
-49.24
-49.12
-49.35
-49.51
-48.98
-47.27
-44.14
-39.75
-34.56
-29.14
-23.97
-19.32
-15.17
-11.37
-7.77
-4.35
-1.22
1.50
3.73
5.57
7.22
8.87
10.51
11.93
12.78
12.74
11.68
9.77
7.42
5.07
2.98
1.19
-0.44
-2.06
-3.67
-5.07
-5.98
-6.23
-5.93
-5.45
-5.29
-5.85
-7.25
-9.25
-11.45
-13.47
-15.18
-16.66
-18.12
-19.65
-21.13
-22.21
-22.47
-21.63
-19.72
-17.04
-13.97
-10.85
-7.79
-4.74
-1.58
1.71
4.98
7.92
10.27
11.94
13.03
13.83
14.62
15.54
16.56
17.45
18.02
18.24
18.26
18.29
18.58
19.15
19.92
20.69
21.36
21.94
22.54
23.20
23.83
24.17
23.87
22.69
20.60
17.87
14.91
12.18
10.00
8.52
7.66
7.17
6.74
6.10
5.11
3.80
2.34
0.97
-0.14
-0.90
-1.33
-1.37
-0.89
0.38
2.67
5.98
10.06
14.37
18.29
21.26
22.97
23.34
22.51
20.74
18.38
15.82
13.44
11.63
10.58
10.33
10.70
11.30
11.64
11.28
9.85
7.25
3.59
-0.84
-5.62
-10.46
-15.20
-19.81
-24.26
-28.44
-32.07
-34.79
-36.34
-36.76
-36.39
-35.79
-35.42
-35.41
-35.50
-35.13
-33.74
-31.04
-27.10
-22.27
-16.98
-11.50
-5.92
-0.22
5.53
11.08
15.97
19.74
22.12
23.21
23.43
23.36
23.47
23.97
24.76
25.51
25.86
25.57
24.62
23.18
21.50
19.79
18.08
16.28
14.27
11.98
9.49
7.00
4.70
2.69
0.95
-0.64
-2.23
-3.92
-5.75
-7.72
-9.80
-11.99
-14.25
-16.52
-18.66
-20.47
-21.73
-22.29
-22.15
-21.48
-20.58
-19.67
-18.67
-17.14
-14.42
-10.01
-3.95
2.89
9.11
13.22
14.34
12.61
9.13
5.46
2.99
2.41
3.60
5.84
8.31
10.39
11.86
12.79
13.38
13.77
14.05
14.26
14.50
14.90
15.47
16.02
16.13
15.33
13.28
10.08
6.26
2.71
0.29
-0.46
0.53
2.79
5.56
7.97
9.35
9.30
7.88
5.58
3.20
1.63
1.58
3.35
6.69
10.88
14.92
17.84
19.03
18.39
16.39
13.90
11.82
10.74
10.74
11.34
11.80
11.49
10.13
7.91
5.26
2.52
-0.27
-3.32
-6.87
-10.95
-15.23
-19.22
-22.45
-24.76
-26.40
-27.87
-29.68
-32.16
-35.28
-38.68
-41.80
-44.04
-44.96
-44.40
-42.51
-39.76
-36.74
-34.10
-32.32
-31.66
-32.15
-33.56
-35.51
-37.55
-39.20
-39.99
-39.48
-37.34
-33.41
-27.76
-20.79
-13.20
-5.80
0.71
5.93
9.87
12.79
14.93
16.42
17.11
16.83
15.55
13.59
11.51
9.96
9.46
10.27
12.40
15.66
19.73
24.16
28.32
31.38
32.47
31.01
26.98
21.08
14.55
8.76
4.72
2.75
2.51
3.24
4.06
4.31
3.59
1.69
-1.46
-5.83
-11.11
-16.70
-21.73
-25.21
-26.38
-24.85
-20.80
-14.83
-7.75
-0.45
6.31
11.94
16.04
18.48
19.46
19.43
18.96
18.55
18.41
18.45
18.39
18.03
17.43
16.85
16.61
16.78
17.13
17.18
16.52
14.99
12.77
10.21
7.61
5.08
2.55
-0.11
-2.93
-5.71
-8.12
-9.84
-10.68
-10.71
-10.25
-9.88
-10.23
-11.83
-14.87
-19.10
-23.85
-28.18
-31.19
-32.29
-31.37
-28.69
-24.77
-20.12
-15.11
-9.96
-4.80
0.23
4.91
9.07
12.64
15.66
18.27
20.55
22.45
23.75
24.28
24.02
23.23
22.36
21.85
21.89
22.31
22.78
22.91
22.61
22.02
21.44
21.12
21.03
20.86
20.16
18.54
15.86
12.35
8.46
4.76
1.68
-0.55
-2.01
-2.98
-3.77
-4.60
-5.43
-6.00
-5.99
-5.20
-3.70
-1.81
0.06
1.68
3.10
4.62
6.64
9.34
12.62
16.12
19.44
22.39
25.01
27.50
29.99
32.37
34.28
35.28
34.99
33.27
30.19
25.96
20.88
15.31
9.77
4.85
1.12
-1.10
-1.95
-2.04
-2.29
-3.58
-6.35
-10.56
-15.63
-20.78
-25.33
-28.86
-31.33
-33.05
-34.50
-36.31
-39.08
-43.26
-48.97
-55.89
-63.20
-69.73
-74.26
-75.84
-74.14
-69.45
-62.51
-54.21
-45.26
-36.10
-26.97
-18.09
-9.74
-2.28
3.95
8.74
12.06
13.96
14.63
14.32
13.39
12.33
11.74
12.13
13.77
16.57
20.05
23.53
26.36
28.07
28.52
27.81
26.12
23.60
20.30
16.30
11.81
7.24
3.11
-0.15
-2.40
-3.91
-5.28
-7.23
-10.21
-14.23
-18.74
-22.86
-25.65
-26.56
-25.57
-23.16
-20.06
-16.86
-13.79
-10.75
-7.51
-4.01
-0.51
2.59
5.01
6.82
8.41
10.18
12.22
14.14
15.23
14.87
12.89
9.77
6.48
4.07
3.23
4.06
6.15
8.77
11.21
12.97
13.80
13.66
12.67
10.97
8.75
6.17
3.45
0.82
-1.49
-3.26
-4.39
-4.93
-5.03
-4.89
-4.61
-4.11
-3.21
-1.72
0.35
2.73
4.99
6.72
7.82
8.52
9.33
10.74
13.01
16.03
19.39
22.53
24.97
26.42
26.82
26.31
25.10
23.51
21.82
20.30
19.15
18.51
18.39
18.71
19.27
19.79
19.99
19.69
18.90
17.86
16.88
16.25
16.05
16.11
16.12
15.86
15.34
14.92
15.05
16.09
17.95
19.97
21.02
19.91
15.93
9.30
1.32
-5.95
-10.41
-10.71
-6.82
-0.10
7.24
12.85
15.00
12.88
6.64
-2.98
-15.00
-28.37
-41.94
-54.53
-64.90
-72.02
-75.20
-74.29
-69.57
-61.67
-51.46
-40.02
-28.74
-19.22
-13.03
-11.17
-13.59
-19.02
-25.20
-29.71
-30.76
-27.79
-21.62
-14.01
-7.04
-2.37
-0.82
-2.18
-5.47
-9.23
-12.01
-12.79
-11.22
-7.60
-2.73
2.52
7.39
11.45
14.49
16.35
16.78
15.56
12.72
8.79
4.81
2.06
1.52
3.48
7.41
12.24
16.84
20.46
22.88
24.24
24.82
24.81
24.22
23.02
21.27
19.09
16.71
14.34
12.16
10.32
8.95
8.09
7.73
7.76
7.97
8.18
8.24
8.10
7.68
6.91
5.70
4.01
1.89
-0.47
-2.84
-5.06
-7.16
-9.39
-12.09
-15.45
-19.32
-23.15
-26.16
-27.64
-27.23
-25.04
-21.62
-17.66
-13.75
-10.24
-7.21
-4.61
-2.41
-0.67
0.56
1.30
1.73
2.10
2.58
3.16
3.54
3.33
2.35
0.79
-0.80
-1.66
-1.27
0.41
2.81
5.01
6.13
5.60
3.39
-0.11
-4.35
-8.76
-12.92
-16.49
-19.15
-20.62
-20.68
-19.33
-16.91
-14.01
-11.39
-9.70
-9.22
-9.78
-10.82
-11.66
-11.77
-10.91
-9.11
-6.56
-3.43
0.24
4.40
8.92
13.55
17.85
21.39
23.88
25.27
25.74
25.60
25.14
24.52
23.75
22.72
21.28
19.42
17.25
15.12
13.47
12.69
12.94
14.04
15.46
16.52
16.57
15.23
12.53
8.86
4.77
0.77
-2.86
-5.98
-8.60
-10.72
-12.36
-13.61
-14.68
-15.96
-17.72
-20.02
-22.43
-24.21
-24.58
-23.08
-19.80
-15.35
-10.62
-6.29
-2.65
0.51
3.62
7.03
10.75
14.40
17.41
19.26
19.78
19.16
17.89
16.53
15.53
15.16
15.44
16.27
17.37
18.36
18.82
18.37
16.81
14.13
10.56
6.48
2.33
-1.51
-4.75
-7.22
-8.91
-9.99
-10.77
-11.53
-12.51
-13.77
-15.29
-17.01
-18.90
-20.91
-22.91
-24.55
-25.33
-24.70
-22.38
-18.43
-13.35
-7.86
-2.69
1.72
5.37
8.56
11.74
15.15
18.64
21.59
23.18
22.69
19.92
15.27
9.67
4.24
-0.10
-2.92
-4.24
-4.44
-3.93
-3.04
-1.93
-0.66
0.64
1.76
2.43
2.44
1.72
0.40
-1.20
-2.72
-3.85
-4.52
-4.88
-5.29
-6.13
-7.70
-10.05
-12.96
-16.03
-18.83
-20.93
-22.04
-21.97
-20.65
-18.15
-14.69
-10.65
-6.50
-2.66
0.66
3.46
5.89
8.07
9.98
11.38
11.98
11.61
10.38
8.62
6.81
5.30
4.24
3.57
3.09
2.65
2.19
1.78
1.51
1.40
1.35
1.15
0.55
-0.58
-2.19
-4.04
-5.85
-7.38
-8.61
-9.70
-10.96
-12.72
-15.15
-18.14
-21.35
-24.25
-26.32
-27.16
-26.67
-24.99
-22.41
-19.28
-15.83
-12.18
-8.38
-4.47
-0.57
3.16
6.56
9.58
12.24
14.65
16.81
18.60
19.73
19.90
19.03
17.33
15.27
13.40
12.07
11.34
10.92
10.47
9.80
8.94
8.07
7.30
6.59
5.72
4.49
2.83
0.95
-0.89
-2.48
-3.77
-4.92
-6.16
-7.71
-9.69
-12.12
-14.87
-17.76
-20.48
-22.69
-24.04
-24.27
-23.27
-21.07
-17.82
-13.74
-9.14
-4.37
0.16
4.12
7.28
9.64
11.39
12.79
14.02
15.11
15.98
16.45
16.38
15.77
14.70
13.35
11.89
10.46
9.10
7.83
6.64
5.59
4.80
4.45
4.61
5.20
5.93
6.32
5.92
4.48
2.05
-0.95
-3.94
-6.41
-8.11
-9.16
-10.00
-11.19
-13.18
-16.09
-19.66
-23.22
-25.97
-27.23
-26.70
-24.53
-21.24
-17.49
-13.81
-10.50
-7.56
-4.86
-2.27
0.24
2.53
4.43
5.77
6.51
6.73
6.52
5.99
5.17
4.09
2.82
1.54
0.51
-0.00
0.17
1.00
2.34
3.96
5.67
7.34
8.88
10.18
11.08
11.41
11.05
10.04
8.52
6.75
4.91
3.08
1.14
-1.15
-4.00
-7.46
-11.31
-15.06
-18.10
-19.88
-20.08
-18.65
-15.78
-11.74
-6.84
-1.39
4.24
9.59
14.14
17.45
19.32
19.83
19.31
18.13
16.57
14.73
12.62
10.28
7.84
5.53
3.65
2.39
1.83
1.88
2.40
3.20
4.15
5.14
6.11
7.02
7.85
8.56
9.09
9.35
9.34
9.09
8.77
8.50
8.37
8.24
7.81
6.63
4.39
1.04
-3.06
-7.26
-10.71
-12.68
-12.80
-11.08
-7.88
-3.76
0.74
5.17
9.23
12.71
15.45
17.31
18.28
18.49
18.20
17.69
17.18
16.68
16.03
14.93
13.19
10.75
7.80
4.70
1.85
-0.38
-1.78
-2.35
-2.21
-1.60
-0.77
0.00
0.47
0.47
-0.06
-1.03
-2.22
-3.34
-4.21
-4.79
-5.22
-5.75
-6.63
-7.95
-9.61
-11.30
-12.63
-13.17
-12.62
-10.83
-7.87
-4.01
0.37
4.92
9.32
13.40
17.08
20.31
23.02
25.09
26.39
26.90
26.74
26.15
25.38
24.57
23.58
22.10
19.80
16.57
12.64
8.55
4.84
1.82
-0.54
-2.53
-4.42
-6.30
-8.02
-9.34
-10.15
-10.56
-10.82
-11.20
-11.78
-12.50
-13.22
-13.86
-14.50
-15.37
-16.75
-18.87
-21.76
-25.21
-28.75
-31.74
-33.53
-33.65
-31.98
-28.78
-24.58
-19.94
-15.29
-10.83
-6.59
-2.59
1.12
4.38
7.11
9.27
10.98
12.36
13.44
14.13
14.28
13.76
12.62
11.10
9.55
8.30
7.55
7.27
7.26
7.22
6.87
6.03
4.71
3.07
1.37
-0.16
-1.40
-2.39
-3.27
-4.20
-5.29
-6.58
-8.09
-9.88
-12.11
-14.96
-18.48
-22.39
-26.11
-28.81
-29.75
-28.52
-25.23
-20.41
-14.78
-8.97
-3.32
2.09
7.22
11.96
16.03
19.12
21.12
22.15
22.60
22.81
22.92
22.77
22.00
20.28
17.61
14.36
11.15
8.58
7.01
6.36
6.25
6.17
5.78
5.00
3.95
2.89
1.95
1.11
0.20
-0.97
-2.49
-4.25
-6.06
-7.80
-9.48
-11.26
-13.33
-15.69
-18.07
-19.88
-20.51
-19.49
-16.75
-12.64
-7.78
-2.85
1.69
5.65
9.03
11.93
14.35
16.22
17.42
17.87
17.69
17.12
16.45
15.91
15.57
15.28
14.80
13.89
12.51
10.79
9.04
7.57
6.55
5.88
5.29
4.40
2.95
0.97
-1.30
-3.49
-5.33
-6.82
-8.23
-9.98
-12.43
-15.68
-19.53
-23.46
-26.87
-29.21
-30.13
-29.52
-27.46
-24.16
-19.90
-14.99
-9.79
-4.67
-0.00
4.00
7.22
9.76
11.77
13.45
14.90
16.08
16.85
17.04
16.59
15.58
14.22
12.82
11.61
10.74
10.18
9.84
9.58
9.31
8.96
8.46
7.73
6.64
5.09
3.09
0.78
-1.61
-3.83
-5.69
-7.13
-8.28
-9.38
-10.73
-12.52
-14.73
-17.08
-19.04
-19.99
-19.43
-17.15
-13.32
-8.37
-2.81
2.96
8.76
14.57
20.40
26.12
31.46
36.09
39.76
42.48
44.51
46.28
48.25
50.65
53.51
56.60
59.69
62.60
65.27
67.67
69.53
70.32
69.29
65.86
60.00
52.44
44.37
37.01
30.98
26.04
21.34
15.99
9.59
2.33
-5.42
-13.59
-22.69
-33.50
-46.37
-60.65
-74.54
-85.73
-92.27
-93.43
-89.87
-83.21
-75.19
-66.97
-58.83
-50.48
-41.58
-32.20
-22.99
-14.93
-8.97
-5.61
-4.65
-5.41
-6.92
-8.33
-9.13
-9.27
-9.00
-8.71
-8.73
-9.12
-9.75
-10.29
-10.42
-9.94
-8.89
-7.48
-6.04
-4.90
-4.27
-4.31
-5.14
-6.89
-9.63
-13.29
-17.58
-21.95
-25.78
-28.53
-29.94
-30.06
-29.19
-27.66
-25.69
-23.39
-20.77
-17.85
-14.68
-11.42
-8.21
-5.12
-2.09
1.09
4.70
9.04
14.15
19.77
25.32
30.01
33.14
34.31
33.52
31.15
27.66
23.45
18.69
13.46
7.87
2.19
-3.21
-7.94
-11.76
-14.56
-16.30
-16.87
-16.04
-13.60
-9.59
-4.46
0.95
5.69
8.97
10.46
10.33
9.08
7.32
5.58
4.28
3.70
4.11
5.76
8.89
13.66
20.12
28.11
37.17
46.54
55.18
62.02
66.20
67.33
65.59
61.58
56.07
49.70
42.77
35.35
27.36
18.88
10.13
1.51
-6.65
-14.24
-21.36
-28.15
-34.61
-40.43
-45.13
-48.30
-49.92
-50.44
-50.62
-51.12
-52.17
-53.39
-54.02
-53.27
-50.84
-47.05
-42.78
-39.16
-37.08
-36.97
-38.60
-41.22
-43.87
-45.68
-46.15
-45.29
-43.47
-41.13
-38.51
-35.50
-31.72
-26.83
-20.89
-14.49
-8.65
-4.50
-2.83
-3.84
-7.11
-11.81
-17.08
-22.22
-26.87
-30.91
-34.43
-37.48
-40.12
-42.34
-44.00
-44.95
-44.75
-42.63
-37.41
-27.83
-13.22
5.81
27.20
47.92
65.04
76.88
83.42
85.85
85.55
83.09
78.04
69.57
57.44
42.65
27.34
13.94
4.26
-1.12
-2.65
-1.29
2.15
7.25
13.97
22.43
32.64
44.36
57.16
70.55
84.14
97.79
111.48
125.16
138.26
149.47
156.78
158.04
151.77
137.97
118.48
96.42
75.16
57.04
42.58
30.50
18.52
4.61
-12.13
-31.13
-50.76
-69.25
-85.41
-99.00
-110.54
-120.75
-130.07
-138.48
-145.67
-151.37
-155.64
-158.75
-160.84
-161.60
-160.10
-155.17
-146.00
-132.76
-116.66
-99.66
-83.66
-69.89
-58.55
-49.06
-40.58
-32.57
-24.96
-18.05
-12.11
-7.19
-3.08
0.43
3.36
5.47
6.43
6.09
4.64
2.64
0.77
-0.41
-0.70
-0.26
0.50
1.14
1.34
0.99
0.19
-0.85
-1.92
-2.93
-3.96
-5.24
-7.01
-9.47
-12.61
-16.25
-20.11
-23.89
-27.32
-30.10
-31.87
-32.22
-30.77
-27.43
-22.41
-16.30
-9.80
-3.49
2.30
7.55
12.38
16.87
20.98
24.57
27.48
29.68
31.27
32.43
33.28
33.85
34.05
33.69
32.70
31.15
29.30
27.54
26.21
25.45
25.19
25.12
24.89
24.26
23.14
21.67
20.05
18.49
17.09
15.81
14.55
13.23
11.88
10.64
9.75
9.46
9.90
11.04
12.74
14.81
17.11
19.60
22.27
25.13
28.08
30.88
33.25
34.90
35.75
35.95
35.80
35.62
35.60
35.66
35.48
34.72
33.17
30.93
28.45
26.28
24.90
24.39
24.46
24.54
24.13
22.98
21.23
19.27
17.45
15.92
14.56
13.06
11.23
9.11
6.95
5.07
3.62
2.54
1.64
0.84
0.29
0.37
1.50
3.87
7.39
11.62
16.06
20.32
24.23
27.84
31.21
34.30
36.84
38.44
38.73
37.61
35.34
32.50
29.82
27.81
26.60
25.89
25.14
23.84
21.85
19.34
16.71
14.33
12.27
10.31
8.04
5.24
1.99
-1.20
-3.68
-4.92
-4.87
-3.99
-3.12
-3.06
-4.17
-6.28
-8.73
-10.71
-11.64
-11.36
-10.06
-8.06
-5.56
-2.61
0.78
4.53
8.34
11.76
14.38
16.00
16.54
16.04
14.48
11.84
8.22
3.98
-0.17
-3.30
-4.50
-3.14
0.95
7.50
15.81
24.96
33.81
41.28
46.41
48.69
48.10
45.16
40.70
35.56
30.30
25.03
19.50
13.20
5.62
-3.55
-14.25
-26.11
-38.47
-50.55
-61.55
-70.84
-77.96
-82.69
-84.96
-84.79
-82.27
-77.47
-70.54
-61.66
-51.09
-39.19
-26.36
-13.11
0.04
12.62
24.29
34.90
44.43
52.87
60.12
65.98
70.23
72.84
74.12
74.60
74.75
74.60
73.61
70.75
65.02
56.01
44.21
30.93
17.82
6.22
-3.29
-10.93
-17.33
-23.07
-28.30
-32.87
-36.70
-40.14
-44.10
-49.76
-57.93
-68.42
-79.93
-90.34
-97.58
-100.36
-98.64
-93.53
-86.69
-79.66
-73.31
-67.66
-62.12
-55.98
-48.85
-40.81
-32.38
-24.13
-16.45
-9.39
-2.88
3.06
8.08
11.63
13.16
12.61
10.44
7.63
5.21
3.89
3.73
4.21
4.50
3.82
1.74
-1.70
-6.07
-10.71
-15.08
-18.83
-21.89
-24.29
-26.01
-26.84
-26.57
-25.16
-22.96
-20.70
-19.14
-18.69
-19.07
-19.42
-18.60
-15.69
-10.36
-2.92
5.89
15.30
24.75
34.03
43.21
52.46
61.88
71.42
80.85
89.70
97.23
102.32
103.69
100.12
90.94
76.41
57.84
37.40
17.55
0.47
-12.44
-20.70
-24.71
-25.45
-24.21
-22.28
-20.78
-20.46
-21.66
-24.30
-28.00
-32.26
-36.62
-40.73
-44.42
-47.66
-50.53
-53.21
-55.89
-58.68
-61.55
-64.19
-66.10
-66.73
-65.70
-63.04
-59.23
-55.06
-51.28
-48.30
-45.96
-43.67
-40.70
-36.50
-30.98
-24.58
-18.04
-12.14
-7.41
-3.95
-1.46
0.58
2.59
4.66
6.56
7.87
8.33
8.01
7.34
6.88
7.02
7.72
8.56
9.00
8.65
7.50
5.86
4.21
2.93
2.13
1.63
1.14
0.27
-1.28
-3.78
-7.38
-12.03
-17.43
-23.06
-28.21
-32.35
-35.31
-37.36
-39.14
-41.32
-44.31
-48.07
-52.03
-55.16
-56.14
-53.68
-47.04
-36.39
-22.99
-8.87
3.94
14.14
21.61
27.21
32.10
36.96
41.66
45.49
47.81
48.64
48.80
49.57
51.98
56.33
61.95
67.46
71.19
71.80
68.61
61.88
52.55
41.93
31.21
21.15
12.01
3.81
-3.33
-8.97
-12.50
-13.43
-11.80
-8.33
-4.22
-0.66
1.71
3.00
3.96
5.58
8.58
13.17
19.03
25.54
31.99
37.72
42.20
45.05
46.12
45.61
44.13
42.55
41.68
41.94
43.06
44.17
44.13
42.10
37.96
32.39
26.57
21.65
18.26
16.22
14.79
13.06
10.44
6.91
2.98
-0.66
-3.59
-5.81
-7.69
-9.73
-12.13
-14.65
-16.70
-17.59
-16.95
-14.89
-12.00
-9.10
-6.75
-5.02
-3.43
-1.21
2.22
6.86
12.06
16.77
20.06
21.55
21.54
20.86
20.36
20.47
21.05
21.51
21.26
20.04
18.10
16.05
14.50
13.77
13.74
13.99
14.07
13.65
12.66
11.11
9.00
6.22
2.59
-1.95
-7.22
-12.78
-18.13
-22.90
-27.06
-31.01
-35.39
-40.79
-47.38
-54.65
-61.52
-66.68
-69.09
-68.41
-65.09
-60.10
-54.46
-48.84
-43.50
-38.38
-33.52
-29.23
-26.12
-24.82
-25.65
-28.46
-32.71
-37.72
-42.92
-47.99
-52.74
-56.90
-59.91
-60.99
-59.39
-54.77
-47.38
-37.99
-27.65
-17.26
-7.31
2.07
11.02
19.62
27.83
35.47
42.33
48.41
53.87
59.08
64.35
69.81
75.25
80.11
83.62
85.07
84.05
80.68
75.53
69.44
63.15
57.06
51.13
44.95
38.07
30.22
21.51
12.45
3.73
-4.03
-10.54
-15.88
-20.38
-24.40
-28.09
-31.31
-33.71
-34.95
-34.96
-33.91
-32.14
-29.90
-27.19
-23.80
-19.49
-14.29
-8.55
-2.83
2.33
6.60
9.86
12.03
12.94
12.30
9.91
5.88
0.73
-4.68
-9.48
-13.00
-14.90
-15.17
-13.98
-11.61
-8.36
-4.54
-0.42
3.78
7.91
11.82
15.23
17.78
19.09
18.93
17.28
14.38
10.59
6.29
1.83
-2.39
-5.84
-7.99
-8.38
-6.97
-4.18
-0.87
1.96
3.56
3.70
2.73
1.42
0.59
0.77
2.02
3.93
5.83
7.08
7.30
6.46
4.80
2.66
0.30
-2.15
-4.72
-7.42
-10.09
-12.42
-13.97
-14.37
-13.50
-11.54
-8.90
-5.97
-3.00
-0.00
3.11
6.37
9.65
12.62
14.90
16.29
16.77
16.57
15.97
15.20
14.34
13.34
12.11
10.59
8.87
7.15
5.74
4.87
4.59
4.62
4.48
3.62
1.79
-0.90
-3.95
-6.71
-8.69
-9.75
-10.10
-10.07
-9.85
-9.47
-8.81
-7.87
-6.95
-6.59
-7.34
-9.39
-12.38
-15.50
-17.74
-18.35
-17.12
-14.40
-10.88
-7.18
-3.64
-0.27
3.08
6.50
9.85
12.84
15.24
16.99
18.22
19.16
19.90
20.34
20.20
19.24
17.39
14.88
12.11
9.53
7.41
5.81
4.57
3.44
2.18
0.79
-0.58
-1.59
-1.88
-1.20
0.52
3.19
6.61
10.63
15.10
19.85
24.52
28.57
31.34
32.19
30.71
26.88
21.05
13.90
6.23
-1.24
-8.02
-13.92
-19.05
-23.59
-27.63
-31.07
-33.64
-35.09
-35.37
-34.66
-33.34
-31.76
-30.09
-28.36
-26.53
-24.62
-22.79
-21.25
-20.14
-19.44
-19.01
-18.70
-18.48
-18.48
-18.93
-20.05
-21.91
-24.32
-26.79
-28.65
-29.21
-28.04
-25.23
-21.38
-17.46
-14.33
-12.47
-11.76
-11.70
-11.70
-11.48
-11.15
-11.14
-11.85
-13.41
-15.54
-17.71
-19.30
-19.89
-19.30
-17.56
-14.78
-11.09
-6.59
-1.41
4.18
9.75
14.78
18.80
21.55
23.11
23.85
24.26
24.69
25.24
25.67
25.60
24.70
22.86
20.31
17.48
14.91
13.00
11.97
11.80
12.32
13.32
14.56
15.81
16.86
17.50
17.55
16.88
15.49
13.47
11.02
8.34
5.52
2.47
-0.93
-4.73
-8.69
-12.21
-14.50
-14.91
-13.20
-9.72
-5.31
-0.93
2.66
5.10
6.50
7.20
7.61
7.91
8.13
8.13
7.80
7.17
6.48
6.09
6.27
7.02
8.03
8.74
8.70
7.75
6.10
4.16
2.33
0.74
-0.69
-2.18
-3.79
-5.39
-6.65
-7.30
-7.31
-6.91
-6.51
-6.39
-6.63
-7.00
-7.21
-7.11
-6.80
-6.68
-7.21
-8.72
-11.18
-14.22
-17.21
-19.48
-20.54
-20.16
-18.44
-15.65
-12.18
-8.34
-4.38
-0.43
3.38
6.81
9.53
11.18
11.56
10.78
9.28
7.72
6.76
6.84
8.03
10.07
12.54
14.97
17.07
18.70
19.90
20.75
21.31
21.57
21.52
21.22
20.81
20.52
20.55
20.94
21.53
21.95
21.78
20.68
18.47
15.18
10.99
6.11
0.81
-4.67
-9.94
-14.49
-17.72
-19.15
-18.62
-16.42
-13.24
-9.97
-7.29
-5.48
-4.41
-3.68
-3.01
-2.40
-2.14
-2.61
-3.97
-6.02
-8.22
-9.95
-10.70
-10.36
-9.18
-7.59
-6.03
-4.71
-3.63
-2.62
-1.56
-0.51
0.33
0.73
0.56
-0.07
-0.88
-1.56
-1.94
-2.08
-2.26
-2.82
-3.98
-5.74
-7.95
-10.38
-12.87
-15.42
-18.09
-20.92
-23.75
-26.13
-27.47
-27.23
-25.18
-21.54
-16.88
-11.92
-7.16
-2.78
1.31
5.31
9.24
12.88
15.83
17.67
18.27
17.80
16.71
15.54
14.72
14.40
14.49
14.77
15.04
15.26
15.52
15.92
16.46
16.95
17.04
16.44
15.03
12.93
10.39
7.65
4.77
1.68
-1.76
-5.55
-9.47
-13.07
-15.94
-17.88
-19.11
-20.14
-21.56
-23.68
-26.28
-28.66
-29.87
-29.20
-26.49
-22.21
-17.26
-12.52
-8.50
-5.24
-2.36
0.59
3.90
7.59
11.40
14.98
18.02
20.37
21.99
22.90
23.17
22.81
21.85
20.32
18.31
16.05
13.82
12.01
10.91
10.65
11.10
11.88
12.55
12.74
12.28
11.22
9.77
8.12
6.34
4.36
2.04
-0.71
-3.91
-7.42
-11.02
-14.44
-17.40
-19.63
-20.83
-20.72
-19.09
-15.89
-11.38
-6.06
-0.67
4.07
7.69
10.02
11.21
11.60
11.51
11.11
10.39
9.27
7.74
5.94
4.14
2.66
1.78
1.62
2.20
3.44
5.26
7.61
10.40
13.45
16.41
18.84
20.32
20.60
19.72
18.01
16.00
14.22
13.12
12.91
13.57
14.81
16.21
17.23
17.41
16.53
14.65
12.13
9.43
6.97
5.03
3.70
2.94
2.71
2.96
3.60
4.42
5.08
5.19
4.47
2.93
0.87
-1.26
-3.04
-4.29
-5.07
-5.60
-6.13
-6.80
-7.65
-8.62
-9.69
-10.86
-12.15
-13.47
-14.63
-15.37
-15.55
-15.22
-14.58
-13.93
-13.49
-13.31
-13.33
-13.46
-13.64
-13.93
-14.47
-15.48
-17.20
-19.78
-23.25
-27.45
-31.98
-36.28
-39.73
-41.81
-42.26
-41.04
-38.33
-34.40
-29.52
-24.06
-18.42
-13.11
-8.62
-5.26
-3.07
-1.81
-1.02
-0.31
0.50
1.34
1.91
1.96
1.43
0.47
-0.59
-1.43
-1.83
-1.75
-1.19
-0.23
1.07
2.63
4.30
5.92
7.33
8.47
9.36
10.09
10.67
11.03
11.03
10.53
9.47
7.93
6.04
4.01
1.95
-0.07
-2.03
-3.88
-5.54
-6.86
-7.65
-7.71
-6.89
-5.13
-2.49
0.81
4.40
7.84
10.66
12.53
13.31
13.09
12.21
11.10
10.15
9.58
9.33
9.18
8.86
8.23
7.35
6.45
5.73
5.22
4.76
4.10
3.13
1.98
1.01
0.60
0.92
1.81
2.81
3.44
3.39
2.69
1.62
0.61
-0.08
-0.40
-0.55
-0.80
-1.29
-2.01
-2.70
-3.06
-2.84
-2.00
-0.64
1.05
2.92
4.97
7.27
9.96
13.07
16.56
20.31
24.18
28.03
31.66
34.80
37.08
38.06
37.42
35.01
31.08
26.14
20.91
16.06
12.05
9.04
6.86
5.23
3.80
2.34
0.73
-1.04
-2.92
-4.84
-6.70
-8.45
-10.02
-11.39
-12.56
-13.52
-14.31
-15.01
-15.75
-16.77
-18.33
-20.57
-23.40
-26.43
-29.04
-30.60
-30.67
-29.20
-26.44
-22.79
-18.64
-14.29
-9.93
-5.75
-1.96
1.22
3.68
5.46
6.72
7.66
8.41
8.94
9.10
8.74
7.81
6.42
4.83
3.31
2.08
1.18
0.48
-0.22
-1.06
-2.07
-3.09
-3.87
-4.27
-4.36
-4.39
-4.73
-5.59
-6.94
-8.50
-9.93
-11.05
-11.91
-12.73
-13.73
-14.82
-15.66
-15.67
-14.44
-11.84
-8.13
-3.84
0.48
4.51
8.18
11.67
15.11
18.49
21.56
23.88
24.91
24.27
21.84
17.82
12.86
7.87
3.87
1.77
2.03
4.59
8.85
13.83
18.36
21.30
21.65
18.76
12.48
3.31
-7.56
-18.43
-27.47
-33.17
-34.73
-32.28
-26.84
-20.05
-13.80
-9.73
-8.84
-11.25
-16.21
-22.51
-28.81
-33.95
-37.00
-37.21
-34.15
-28.05
-20.21
-12.87
-8.57
-9.02
-14.18
-22.16
-29.98
-34.92
-35.62
-32.36
-26.57
-19.80
-12.95
-6.10
1.03
8.45
15.41
20.58
22.64
21.10
16.69
11.17
6.50
3.89
3.25
3.24
2.18
-1.18
-7.06
-14.73
-23.03
-30.84
-37.27
-41.48
-42.52
-39.45
-31.81
-20.10
-6.07
7.66
18.37
24.12
24.37
20.13
13.54
7.17
3.22
3.01
6.84
14.13
23.78
34.47
44.91
53.95
60.60
64.18
64.34
61.10
54.82
46.14
35.92
25.10
14.71
5.74
-1.03
-5.21
-6.83
-6.41
-4.68
-2.39
-0.13
1.81
3.27
4.16
4.34
3.72
2.30
0.24
-2.12
-4.36
-6.17
-7.42
-8.21
-8.75
-9.28
-9.98
-10.87
-11.82
-12.63
-13.08
-12.99
-12.27
-10.85
-8.68
-5.70
-1.90
2.57
7.34
11.94
15.99
19.44
22.55
25.75
29.18
32.39
34.36
33.84
30.08
23.33
14.94
6.84
0.74
-2.56
-3.33
-2.59
-1.39
-0.20
1.07
2.78
5.00
7.25
8.63
8.29
5.95
2.01
-2.62
-7.02
-10.65
-13.52
-15.99
-18.48
-21.17
-23.85
-26.02
-27.12
-26.74
-24.90
-21.99
-18.62
-15.30
-12.22
-9.19
-5.87
-2.14
1.71
4.96
6.84
6.94
5.54
3.49
1.86
1.42
2.37
4.31
6.60
8.70
10.45
12.02
13.71
15.56
17.25
18.14
17.58
15.26
11.47
7.03
3.01
0.31
-0.67
-0.17
1.16
2.58
3.57
3.95
3.76
3.05
1.69
-0.61
-4.07
-8.62
-13.65
-18.17
-21.10
-21.62
-19.54
-15.28
-9.71
-3.76
1.94
7.10
11.80
16.17
20.21
23.65
26.08
27.15
26.79
25.39
23.64
22.34
22.02
22.72
23.95
24.95
25.08
24.05
22.12
19.87
17.91
16.52
15.56
14.59
13.18
11.15
8.60
5.85
3.15
0.51
-2.24
-5.36
-8.88
-12.57
-16.00
-18.78
-20.89
-22.66
-24.71
-27.54
-31.18
-35.12
-38.46
-40.34
-40.36
-38.70
-36.06
-33.26
-30.84
-28.90
-27.22
-25.50
-23.62
-21.70
-19.93
-18.32
-16.61
-14.34
-11.23
-7.35
-3.28
0.15
2.24
2.82
2.35
1.63
1.46
2.21
3.66
5.17
6.10
6.15
5.52
4.82
4.74
5.67
7.49
9.65
11.37
11.94
11.00
8.50
4.75
0.26
-4.34
-8.34
-11.03
-11.79
-10.24
-6.29
-0.31
6.96
14.49
21.16
26.06
28.72
29.30
28.50
27.32
26.71
27.19
28.75
30.93
33.07
34.66
35.42
35.37
34.69
33.55
32.01
30.05
27.56
24.55
21.22
17.91
15.05
12.88
11.24
9.61
7.21
3.39
-2.02
-8.59
-15.36
-21.29
-25.65
-28.22
-29.33
-29.49
-29.08
-28.19
-26.64
-24.26
-21.10
-17.54
-14.08
-11.13
-8.73
-6.57
-4.19
-1.33
1.91
5.06
7.56
9.09
9.73
9.91
10.14
10.72
11.58
12.35
12.61
12.11
10.96
9.53
8.29
7.51
7.16
6.94
6.49
5.62
4.44
3.33
2.76
3.03
4.19
6.03
8.22
10.51
12.80
15.14
17.58
20.06
22.37
24.19
25.20
25.21
24.22
22.32
19.66
16.31
12.22
7.22
1.19
-5.91
-13.85
-22.10
-29.96
-36.61
-41.45
-44.20
-45.05
-44.56
-43.44
-42.32
-41.49
-40.97
-40.53
-39.88
-38.76
-36.87
-33.91
-29.54
-23.52
-15.94
-7.37
1.22
8.64
13.87
16.38
16.30
14.31
11.29
7.88
4.29
0.33
-4.36
-9.86
-15.75
-21.19
-25.26
-27.41
-27.74
-26.89
-25.69
-24.76
-24.25
-23.84
-22.98
-21.20
-18.23
-14.03
-8.71
-2.55
4.02
10.38
15.74
19.34
20.67
19.73
17.11
13.82
11.03
9.68
10.22
12.49
15.79
19.14
21.60
22.52
21.78
19.77
17.27
15.17
14.19
14.55
16.00
17.84
19.29
19.76
19.09
17.53
15.59
13.82
12.57
11.91
11.62
11.30
10.51
8.98
6.74
4.13
1.76
0.33
0.38
2.11
5.17
8.66
11.28
11.83
9.96
6.61
3.93
4.52
10.14
20.69
33.96
46.61
55.61
59.72
59.84
58.35
57.75
59.40
63.11
67.63
71.65
74.57
76.83
79.48
83.61
89.78
97.86
107.27
117.38
127.71
137.88
147.16
154.17
156.86
153.05
141.33
121.80
96.16
67.17
37.62
9.39
-16.90
-41.51
-64.87
-86.93
-107.00
-124.16
-137.72
-147.72
-154.81
-159.91
-163.76
-166.53
-168.02
-167.87
-165.96
-162.57
-158.29
-153.73
-149.31
-145.03
-140.60
-135.61
-129.69
-122.68
-114.65
-105.82
-96.35
-86.29
-75.53
-63.97
-51.72
-39.26
-27.40
-17.06
-8.86
-2.78
1.92
6.41
11.83
18.71
26.69
34.56
40.70
43.63
42.47
37.07
27.80
15.27
0.04
-17.37
-36.24
-55.38
-73.03
-87.04
-95.51
-97.40
-93.08
-84.16
-73.02
-61.90
-52.31
-44.75
-38.91
-34.21
-30.19
-26.68
-23.71
-21.30
-19.51
-18.61
-19.06
-21.41
-25.75
-31.37
-36.68
-39.84
-39.49
-35.37
-28.36
-19.94
-11.47
-3.62
3.61
10.59
17.54
24.32
30.53
35.75
39.82
42.91
45.41
47.81
50.51
53.67
57.17
60.57
63.20
64.50
64.18
62.53
60.31
58.40
57.45
57.57
58.36
59.24
60.00
60.98
62.81
65.85
69.67
72.92
73.80
70.84
63.51
52.51
39.46
26.29
14.71
5.73
-0.30
-3.69
-5.21
-6.00
-7.52
-11.42
-19.31
-32.23
-50.24
-72.02
-94.90
-115.37
-129.99
-136.41
-133.98
-123.79
-108.08
-89.50
-70.37
-52.32
-36.28
-22.62
-11.30
-2.04
5.58
11.95
17.40
22.07
26.02
29.21
31.59
33.05
33.49
32.86
31.28
29.15
27.09
25.75
25.57
26.56
28.23
29.78
30.45
29.81
28.00
25.57
23.23
21.50
20.51
20.01
19.56
18.79
17.51
15.79
13.83
11.82
9.91
8.21
6.84
5.99
5.88
6.71
8.50
11.06
13.97
16.69
18.72
19.80
20.02
19.77
19.50
19.51
19.72
19.74
19.08
17.44
14.95
12.10
9.50
7.65
6.62
6.17
5.89
5.53
5.05
4.60
4.31
4.04
3.49
2.31
0.42
-1.91
-4.12
-5.66
-6.28
-6.13
-5.64
-5.28
-5.32
-5.61
-5.78
-5.35
-4.00
-1.66
1.47
5.04
8.66
12.07
15.15
17.84
20.07
21.65
22.32
21.82
20.12
17.48
14.48
11.77
9.87
8.89
8.52
8.20
7.45
6.19
4.76
3.80
3.88
5.16
7.26
9.45
10.94
11.28
10.51
9.00
7.27
5.64
4.10
2.33
-0.04
-3.18
-6.80
-10.20
-12.44
-12.79
-11.02
-7.54
-3.25
0.89
4.20
6.47
7.87
8.72
9.20
9.28
8.82
7.77
6.25
4.52
2.86
1.36
-0.07
-1.70
-3.82
-6.47
-9.43
-12.21
-14.22
-15.01
-14.53
-13.16
-11.47
-9.96
-8.73
-7.44
-5.54
-2.62
1.29
5.74
10.13
13.98
17.16
19.77
21.93
23.68
24.92
25.72
26.42
27.68
30.21
34.41
40.19
46.84
53.29
58.32
60.89
60.36
56.61
50.05
41.61
32.45
23.71
16.19
10.15
5.36
1.28
-2.67
-6.87
-11.42
-16.28
-21.38
-26.82
-32.70
-39.03
-45.48
-51.38
-55.91
-58.44
-58.86
-57.70
-55.86
-54.30
-53.54
-53.57
-53.95
-54.13
-53.76
-52.74
-51.13
-48.91
-45.84
-41.46
-35.42
-27.78
-19.10
-10.34
-2.42
4.19
9.64
14.50
19.40
24.54
29.54
33.61
36.01
36.45
35.23
33.08
30.71
28.55
26.59
24.53
22.17
19.57
17.20
15.66
15.40
16.45
18.33
20.29
21.68
22.21
22.02
21.55
21.21
21.09
21.00
20.63
19.88
19.06
18.75
19.54
21.62
24.61
27.62
29.69
30.25
29.47
28.22
27.66
28.62
31.14
34.34
36.77
37.04
34.41
29.00
21.62
13.27
4.70
-3.69
-11.75
-19.38
-26.52
-33.45
-40.87
-49.81
-61.00
-74.15
-87.57
-98.53
-104.25
-103.18
-95.72
-84.12
-71.55
-60.85
-53.59
-49.81
-48.52
-48.35
-48.21
-47.51
-46.06
-43.91
-41.11
-37.69
-33.73
-29.44
-25.13
-21.09
-17.39
-13.83
-10.06
-5.74
-0.88
4.25
9.08
13.12
16.04
17.83
18.67
18.89
18.82
18.83
19.37
20.81
23.42
27.13
31.54
35.93
39.57
41.95
42.89
42.55
41.29
39.45
37.26
34.83
32.19
29.39
26.55
23.77
21.15
18.62
16.01
13.14
9.93
6.49
3.15
0.20
-2.18
-4.08
-5.74
-7.38
-8.97
-10.22
-10.68
-9.99
-8.13
-5.47
-2.58
0.09
2.49
5.01
8.20
12.46
17.63
22.99
27.52
30.49
31.75
31.92
32.10
33.32
36.04
39.91
43.88
46.57
46.74
43.64
37.14
27.77
16.49
4.56
-6.72
-16.20
-23.06
-26.86
-27.76
-26.52
-24.53
-23.45
-24.68
-28.80
-35.25
-42.55
-48.87
-52.89
-54.30
-53.78
-52.46
-51.16
-49.93
-48.18
-45.07
-40.15
-33.64
-26.31
-19.16
-12.91
-7.87
-3.85
-0.45
2.71
5.78
8.65
11.15
13.18
14.84
16.42
18.18
20.15
22.06
23.40
23.71
22.88
21.20
19.27
17.74
16.97
16.89
17.06
16.91
16.07
14.49
12.53
10.73
9.49
8.85
8.41
7.53
5.71
2.89
-0.38
-3.28
-5.00
-5.15
-3.88
-1.67
0.95
3.60
6.13
8.42
10.20
11.03
10.44
8.19
4.44
-0.21
-4.96
-9.01
-11.77
-12.97
-12.58
-10.77
-7.80
-4.06
-0.09
3.49
6.01
6.95
6.06
3.40
-0.63
-5.40
-10.21
-14.38
-17.46
-19.18
-19.56
-18.82
-17.30
-15.33
-13.20
-11.09
-9.16
-7.61
-6.67
-6.42
-6.64
-6.70
-5.69
-2.77
2.35
9.22
16.66
23.28
28.08
30.93
32.50
33.86
35.75
38.16
40.33
41.14
39.84
36.47
31.91
27.47
24.34
23.02
23.33
24.55
25.96
27.19
28.37
29.93
32.24
35.29
38.63
41.48
43.12
43.18
41.74
39.22
36.07
32.49
28.30
23.09
16.45
8.32
-0.84
-10.10
-18.37
-24.75
-28.86
-30.99
-31.85
-32.25
-32.73
-33.35
-33.76
-33.53
-32.30
-29.95
-26.47
-21.82
-15.95
-9.03
-1.81
4.28
7.53
6.69
1.80
-5.45
-12.25
-15.60
-13.50
-5.63
6.88
22.05
37.91
52.92
65.80
75.31
80.00
78.63
70.83
57.61
41.49
25.77
13.53
6.62
5.10
7.38
10.90
13.06
12.00
7.07
-1.22
-11.54
-22.31
-32.22
-40.56
-47.29
-52.80
-57.66
-62.25
-66.68
-70.83
-74.52
-77.56
-79.76
-80.86
-80.49
-78.27
-73.88
-67.30
-58.87
-49.29
-39.38
-29.90
-21.28
-13.65
-6.88
-0.82
4.49
8.77
11.59
12.63
11.98
10.17
8.04
6.33
5.29
4.59
3.38
0.72
-4.14
-11.52
-21.36
-33.21
-46.36
-59.73
-71.91
-81.24
-86.20
-85.79
-79.98
-69.75
-56.93
-43.64
-31.72
-22.28
-15.38
-10.24
-5.60
-0.25
6.48
14.53
23.21
31.56
38.69
44.05
47.48
49.13
49.36
48.76
48.02
47.91
49.00
51.52
55.26
59.70
64.23
68.45
72.29
75.98
79.73
83.53
86.93
89.03
88.66
84.62
76.09
63.01
46.28
27.72
9.57
-6.13
-18.26
-26.85
-32.91
-37.83
-42.76
-48.20
-53.99
-59.56
-64.32
-67.85
-69.98
-70.68
-70.07
-68.45
-66.34
-64.47
-63.62
-64.32
-66.71
-70.41
-74.69
-78.58
-81.17
-81.73
-79.91
-75.82
-69.96
-63.10
-56.04
-49.38
-43.41
-38.09
-33.23
-28.66
-24.35
-20.39
-16.90
-13.95
-11.43
-9.24
-7.26
-5.49
-4.01
-2.89
-2.12
-1.48
-0.64
0.76
2.94
5.82
9.02
12.03
14.35
15.69
15.94
15.22
13.70
11.59
9.14
6.63
4.38
2.66
1.63
1.26
1.41
1.85
2.50
3.44
4.87
7.02
9.92
13.32
16.71
19.55
21.45
22.35
22.52
22.29
21.87
21.18
19.90
17.73
14.57
10.64
6.35
2.18
-1.57
-4.84
-7.73
-10.41
-12.92
-15.07
-16.53
-16.87
-15.69
-12.78
-8.23
-2.35
4.28
11.04
17.32
22.65
26.73
29.48
30.97
31.46
31.37
31.20
31.48
32.67
35.08
38.73
43.43
48.76
54.27
59.61
64.56
68.98
72.64
75.05
75.49
73.21
67.69
58.89
47.32
33.92
19.87
6.33
-5.71
-15.56
-22.88
-27.76
-30.63
-32.09
-32.78
-33.21
-33.71
-34.41
-35.34
-36.44
-37.59
-38.62
-39.39
-39.89
-40.23
-40.55
-40.80
-40.64
-39.44
-36.59
-31.77
-25.21
-17.66
-10.07
-3.31
2.11
6.10
8.83
10.64
11.88
12.94
14.13
15.76
17.99
20.81
23.96
27.06
29.62
31.22
31.65
30.98
29.56
28.01
26.94
26.78
27.57
28.84
29.88
29.97
28.80
26.54
23.74
21.05
18.86
17.19
15.76
14.32
12.87
11.83
11.80
13.32
16.52
21.05
26.23
31.38
36.17
40.67
45.32
50.55
56.56
63.13
69.76
75.97
81.53
86.66
91.91
97.93
105.09
113.28
121.93
130.35
138.24
145.94
154.44
164.82
177.62
192.40
207.80
222.03
233.58
241.56
245.60
245.44
240.49
229.85
212.64
188.61
158.47
123.75
86.27
47.49
8.10
-31.75
-71.94
-111.76
-149.73
-184.00
-213.10
-236.58
-255.11
-269.95
-282.03
-291.29
-296.67
-296.74
-290.66
-278.73
-262.36
-243.43
-223.52
-203.38
-183.09
-162.50
-141.78
-121.70
-103.42
-88.15
-76.60
-68.63
-63.33
-59.26
-54.96
-49.43
-42.42
-34.45
-26.45
-19.28
-13.23
-7.77
-1.79
5.97
16.22
28.62
41.57
52.54
58.79
58.21
50.14
35.72
17.64
-0.63
-15.89
-26.14
-30.93
-31.24
-28.72
-24.99
-21.17
-17.92
-15.72
-15.20
-17.11
-22.08
-30.23
-40.99
-53.21
-65.64
-77.33
-87.83
-97.10
-105.10
-111.45
-115.23
-115.31
-110.72
-101.21
-87.37
-70.51
-52.20
-33.81
-16.20
0.28
15.65
30.04
43.64
56.69
69.53
82.54
96.07
110.19
124.66
138.98
152.54
164.80
175.34
183.89
190.24
194.28
195.94
195.11
191.65
185.35
175.88
163.01
146.74
127.37
105.56
82.14
58.00
33.98
10.79
-10.93
-30.69
-48.18
-63.41
-76.74
-88.70
-99.76
-110.05
-119.24
-126.67
-131.70
-134.06
-134.06
-132.37
-129.75
-126.76
-123.60
-120.25
-116.78
-113.43
-110.58
-108.44
-106.83
-105.14
-102.67
-99.00
-94.27
-89.09
-84.14
-79.69
-75.36
-70.33
-63.78
-55.39
-45.58
-35.35
-25.95
-18.26
-12.55
-8.48
-5.27
-2.11
1.56
5.94
10.98
16.54
22.47
28.63
34.75
40.40
44.97
47.95
49.10
48.63
47.02
44.57
41.04
35.50
26.71
13.84
-2.83
-21.58
-39.67
-54.12
-62.72
-64.59
-60.33
-51.52
-40.14
-27.88
-15.90
-4.65
5.92
16.21
26.70
37.62
48.84
59.78
69.58
77.28
82.12
83.72
82.16
78.00
72.13
65.72
60.02
56.18
55.08
57.15
62.31
69.96
79.16
88.79
97.82
105.41
111.05
114.48
115.54
114.11
110.03
103.26
93.91
82.35
69.06
54.46
38.91
22.72
6.42
-9.05
-22.45
-32.56
-38.70
-41.31
-42.03
-43.31
-47.64
-56.46
-69.59
-85.25
-100.71
-113.34
-121.48
-124.90
-124.45
-121.33
-116.30
-109.31
-99.67
-86.68
-70.25
-51.13
-30.73
-10.55
8.27
25.07
39.55
51.36
59.93
64.52
64.63
60.47
53.06
44.07
35.29
28.05
22.81
19.17
16.21
12.90
8.58
3.07
-3.31
-9.97
-16.30
-21.78
-26.04
-28.89
-30.41
-31.12
-31.97
-34.22
-39.02
-46.87
-57.33
-68.92
-79.66
-87.64
-91.66
-91.48
-87.74
-81.59
-74.24
-66.65
-59.37
-52.61
-46.32
-40.33
-34.53
-28.87
-23.36
-17.95
-12.56
-7.03
-1.23
4.77
10.74
16.29
21.07
24.98
28.23
31.24
34.46
38.04
41.80
45.32
48.20
50.34
52.09
54.04
56.67
60.05
63.61
66.38
67.36
66.02
62.58
57.90
53.14
49.20
46.30
44.07
41.78
38.97
35.79
33.01
31.66
32.37
34.90
38.16
40.60
41.02
39.08
35.46
31.45
28.32
26.82
27.04
28.57
30.69
32.35
31.99
27.64
17.35
0.11
-23.26
-49.84
-75.26
-95.08
-106.31
-108.25
-102.45
-91.83
-79.46
-67.74
-58.05
-50.96
-46.57
-44.74
-45.06
-46.76
-48.60
-49.02
-46.54
-40.31
-30.49
-18.29
-5.65
5.40
13.38
17.74
18.91
17.96
16.16
14.56
13.71
13.62
13.96
14.31
14.53
14.78
15.47
16.97
19.32
22.13
24.83
26.93
28.37
29.54
31.02
33.21
36.03
38.89
40.91
41.34
39.79
36.40
31.71
26.52
21.55
17.10
12.80
7.62
0.22
-10.39
-24.18
-39.78
-54.75
-66.38
-72.71
-73.22
-68.86
-61.54
-53.24
-45.30
-38.25
-32.12
-26.84
-22.62
-19.80
-18.52
-18.46
-18.80
-18.53
-16.96
-14.14
-10.86
-8.37
-7.84
-9.84
-14.19
-20.15
-26.84
-33.54
-39.75
-45.07
-49.06
-51.22
-51.24
-49.22
-45.71
-41.63
-37.91
-35.28
-34.18
-35.06
-38.43
-44.90
-54.88
-68.16
-83.82
-100.32
-115.90
-128.96
-138.22
-142.69
-141.90
-136.10
-126.76
-116.52
-108.66
-105.99
-109.62
-118.29
-128.67
-136.48
-138.07
-131.38
-116.24
-93.72
-65.02
-31.13
6.76
46.32
83.71
114.43
135.30
146.28
151.03
155.32
164.17
179.07
197.16
212.67
220.10
217.06
205.22
189.04
173.26
160.74
151.93
145.73
140.96
137.10
134.25
132.43
130.95
128.47
123.49
115.37
104.70
93.18
82.84
75.14
70.44
67.92
66.15
63.66
59.54
53.62
46.39
38.67
31.12
24.09
17.57
11.44
5.63
0.27
-4.60
-9.22
-14.11
-19.85
-26.53
-33.47
-39.32
-42.62
-42.66
-40.04
-36.64
-34.78
-36.04
-40.35
-45.90
-49.84
-49.67
-44.29
-34.49
-22.47
-10.72
-0.99
6.26
11.82
17.14
23.65
32.37
43.66
57.25
72.21
86.89
99.03
106.14
106.13
98.10
82.83
62.73
41.06
20.78
3.70
-9.89
-20.71
-29.75
-37.57
-44.13
-49.22
-52.89
-55.71
-58.53
-61.99
-66.08
-70.09
-72.98
-73.94
-72.76
-69.90
-66.16
-62.31
-58.79
-55.66
-52.74
-49.78
-46.69
-43.58
-40.71
-38.36
-36.63
-35.35
-33.97
-31.78
-27.99
-22.09
-14.03
-4.35
6.00
15.98
24.91
32.77
40.09
47.75
56.36
65.99
76.16
86.13
95.42
103.96
111.99
119.57
126.35
131.54
134.35
134.45
132.15
128.17
123.11
117.09
109.69
100.45
89.34
77.14
65.20
54.89
46.90
40.94
35.79
29.84
21.69
10.65
-3.16
-18.93
-35.52
-51.84
-67.03
-80.55
-92.02
-101.17
-107.70
-111.37
-112.11
-110.13
-105.93
-100.25
-93.81
-87.14
-80.39
-73.43
-65.98
-57.88
-49.27
-40.50
-31.98
-23.91
-16.22
-8.72
-1.32
5.70
11.67
15.70
17.02
15.19
10.38
3.19
-5.45
-14.57
-23.39
-31.44
-38.53
-44.70
-49.95
-54.14
-56.89
-57.67
-56.04
-51.93
-45.77
-38.46
-31.08
-24.67
-19.95
-17.24
-16.56
-17.75
-20.63
-25.05
-30.82
-37.72
-45.39
-53.29
-60.84
-67.45
-72.61
-75.93
-77.10
-75.88
-72.08
-65.63
-56.73
-45.95
-34.17
-22.47
-11.85
-2.99
3.88
8.93
12.52
14.92
16.25
16.35
15.03
12.26
8.30
3.77
-0.47
-3.60
-5.07
-4.68
-2.50
1.27
6.35
12.39
18.85
24.94
29.71
32.39
32.70
31.04
28.40
25.92
24.45
24.21
24.79
25.52
25.84
25.59
25.01
24.47
24.20
24.11
23.83
22.90
21.04
18.27
14.89
11.31
7.84
4.62
1.58
-1.39
-4.36
-7.20
-9.71
-11.73
-13.34
-14.92
-17.00
-19.96
-23.70
-27.58
-30.54
-31.67
-30.54
-27.44
-23.15
-18.54
-14.15
-10.00
-5.82
-1.32
3.44
8.03
11.80
14.28
15.38
15.48
15.17
15.04
15.36
16.00
16.53
16.51
15.68
14.10
12.10
10.11
8.43
7.13
6.05
4.96
3.76
2.49
1.42
0.84
0.90
1.58
2.65
3.82
4.91
5.81
6.44
6.58
5.82
3.60
-0.42
-6.09
-12.56
-18.55
-22.63
-23.83
-21.93
-17.45
-11.39
-4.73
1.84
8.08
13.93
19.32
23.92
27.20
28.66
28.14
26.00
23.03
20.17
18.12
17.09
16.81
16.76
16.50
15.88
15.06
14.30
13.73
13.17
12.18
10.33
7.45
3.81
0.02
-3.26
-5.68
-7.42
-9.16
-11.77
-15.83
-21.33
-27.55
-33.31
-37.40
-39.00
-37.97
-34.74
-30.02
-24.49
-18.58
-12.44
-6.17
-0.02
5.56
10.01
12.95
14.38
14.70
14.57
14.60
15.05
15.74
16.20
15.94
14.75
12.81
10.60
8.57
6.95
5.58
4.07
2.14
-0.14
-2.29
-3.72
-4.03
-3.36
-2.36
-1.93
-2.72
-4.88
-8.00
-11.41
-14.55
-17.19
-19.44
-21.55
-23.53
-25.09
-25.63
-24.48
-21.21
-15.82
-8.79
-0.96
6.78
13.72
19.49
24.05
27.48
29.86
31.11
31.09
29.83
27.61
25.04
22.88
21.67
21.48
21.88
22.14
21.64
20.19
18.09
15.97
14.38
13.49
13.01
12.34
10.93
8.52
5.22
1.40
-2.64
-6.79
-11.18
-15.92
-20.92
-25.63
-29.25
-30.92
-30.16
-27.06
-22.28
-16.76
-11.27
-6.13
-1.17
3.99
9.62
15.56
21.20
25.76
28.72
30.02
30.12
29.76
29.54
29.69
29.99
29.94
29.15
27.50
25.27
22.90
20.83
19.16
17.66
15.88
13.50
10.52
7.26
4.27
1.96
0.38
-0.86
-2.38
-4.78
-8.29
-12.77
-17.73
-22.65
-27.11
-30.89
-33.85
-35.73
-36.14
-34.62
-30.88
-25.01
-17.58
-9.50
-1.74
5.03
10.52
14.86
18.36
21.24
23.55
25.15
25.91
25.81
25.04
23.93
22.81
21.88
21.13
20.35
19.35
18.02
16.47
14.98
13.81
13.01
12.33
11.35
9.62
7.02
3.79
0.46
-2.43
-4.61
-6.28
-7.99
-10.38
-13.85
-18.34
-23.28
-27.85
-31.21
-32.83
-32.63
-30.79
-27.65
-23.50
-18.48
-12.72
-6.48
-0.19
5.57
10.26
13.63
15.79
17.12
18.06
18.88
19.53
19.78
19.37
18.28
16.75
15.26
14.26
13.94
14.07
14.12
13.48
11.84
9.30
6.38
3.70
1.72
0.41
-0.70
-2.33
-5.05
-9.03
-13.89
-18.88
-23.27
-26.72
-29.43
-32.05
-35.31
-39.61
-44.73
-49.81
-53.62
-54.98
-53.21
-48.34
-41.25
-33.57
-27.47
-25.34
-29.41
-41.19
-60.66
-85.62
-111.51
-132.21
-141.73
-136.44
-116.55
-86.24
-52.10
-20.69
3.65
19.70
28.64
32.50
32.69
29.55
22.99
13.54
2.98
-6.06
-11.09
-10.99
-6.59
-0.27
5.00
7.00
4.96
-0.22
-6.63
-12.26
-15.79
-16.96
-16.27
-14.43
-11.72
-7.87
-2.30
5.26
14.32
23.60
31.63
37.49
41.35
44.40
48.16
53.58
60.44
67.47
73.01
75.94
76.14
74.39
71.86
69.44
67.33
65.22
62.65
59.49
56.07
53.01
50.74
49.20
47.75
45.49
41.68
36.20
29.57
22.73
16.55
11.47
7.38
3.69
-0.23
-4.71
-9.59
-14.31
-18.16
-20.58
-21.38
-20.73
-18.98
-16.45
-13.27
-9.44
-5.00
-0.15
4.63
8.78
11.87
13.88
15.17
16.35
17.94
20.11
22.53
24.56
25.52
25.05
23.25
20.69
18.12
16.19
15.16
14.89
14.92
14.80
14.30
13.45
12.47
11.53
10.58
9.39
7.73
5.55
3.15
1.00
-0.42
-1.02
-1.13
-1.35
-2.22
-3.83
-5.73
-7.05
-6.93
-4.96
-1.32
3.30
8.05
12.32
15.88
18.88
21.58
24.08
26.25
27.77
28.40
28.12
27.20
26.03
24.98
24.18
23.52
22.71
21.44
19.53
17.06
14.31
11.77
9.79
8.51
7.68
6.84
5.54
3.55
1.03
-1.63
-4.12
-6.43
-8.89
-12.00
-16.01
-20.76
-25.60
-29.69
-32.39
-33.44
-33.05
-31.66
-29.67
-27.27
-24.39
-20.89
-16.71
-12.08
-7.48
-3.49
-0.51
1.33
2.28
2.82
3.37
4.10
4.81
5.17
4.91
4.08
3.03
2.22
1.91
2.00
2.05
1.54
0.19
-1.89
-4.23
-6.27
-7.62
-8.28
-8.60
-9.09
-10.15
-11.90
-14.10
-16.31
-18.06
-19.11
-19.47
-19.34
-18.89
-18.06
-16.58
-14.11
-10.57
-6.24
-1.78
2.09
4.95
6.79
8.02
9.18
10.56
12.04
13.18
13.51
12.82
11.36
9.69
8.44
7.93
7.98
8.06
7.57
6.24
4.26
2.21
0.65
-0.20
-0.62
-1.21
-2.48
-4.54
-7.06
-9.49
-11.45
-13.00
-14.55
-16.65
-19.49
-22.79
-25.80
-27.62
-27.63
-25.72
-22.35
-18.26
-14.19
-10.50
-7.13
-3.73
0.02
4.11
8.12
11.39
13.38
13.97
13.54
12.77
12.33
12.51
13.16
13.80
13.96
13.47
12.46
11.34
10.46
9.90
9.45
8.69
7.36
5.44
3.24
1.22
-0.26
-1.18
-1.88
-2.84
-4.39
-6.52
-8.98
-11.37
-13.45
-15.26
-17.07
-19.12
-21.42
-23.60
-25.06
-25.21
-23.75
-20.81
-16.92
-12.75
-8.83
-5.35
-2.17
1.00
4.37
7.80
10.87
13.07
14.13
14.16
13.63
13.13
13.08
13.49
14.05
14.32
14.02
13.21
12.18
11.32
10.88
10.77
10.62
9.93
8.37
5.95
3.04
0.23
-2.00
-3.48
-4.49
-5.56
-7.13
-9.33
-11.89
-14.35
-16.33
-17.82
-19.13
-20.66
-22.57
-24.57
-26.01
-26.15
-24.55
-21.32
-17.05
-12.59
-8.60
-5.31
-2.49
0.32
3.47
6.88
10.04
12.24
13.08
12.65
11.56
10.64
10.41
10.88
11.52
11.61
10.72
8.98
7.02
5.58
5.12
5.48
6.07
6.08
5.06
3.05
0.54
-1.81
-3.58
-4.77
-5.79
-7.12
-9.04
-11.50
-14.14
-16.57
-18.57
-20.18
-21.58
-22.88
-23.93
-24.35
-23.67
-21.61
-18.21
-13.90
-9.40
-5.35
-2.12
0.35
2.50
4.82
7.60
10.68
13.54
15.59
16.48
16.35
15.70
15.21
15.25
15.73
16.13
15.84
14.52
12.35
9.94
8.02
7.00
6.79
6.85
6.51
5.33
3.38
1.12
-0.85
-2.20
-3.05
-3.92
-5.43
-7.87
-11.04
-14.38
-17.26
-19.37
-20.85
-22.17
-23.72
-25.57
-27.22
-27.92
-26.98
-24.23
-20.07
-15.36
-10.89
-7.10
-3.94
-1.00
2.14
5.60
9.13
12.23
14.47
15.73
16.25
16.50
16.88
17.46
17.97
17.99
17.22
15.71
13.90
12.42
11.75
11.94
12.57
12.94
12.50
11.13
9.18
7.24
5.78
4.87
4.17
3.13
1.38
-1.04
-3.70
-6.00
-7.53
-8.32
-8.83
-9.72
-11.50
-14.27
-17.65
-21.00
-23.60
-25.04
-25.29
-24.63
-23.39
-21.75
-19.62
-16.72
-12.86
-8.19
-3.24
1.24
4.64
6.80
8.07
9.09
10.44
12.23
14.12
15.49
15.87
15.28
14.23
13.46
13.53
14.41
15.53
16.09
15.49
13.71
11.27
8.94
7.33
6.53
6.13
5.47
4.14
2.10
-0.21
-2.23
-3.56
-4.21
-4.62
-5.33
-6.72
-8.80
-11.27
-13.69
-15.73
-17.29
-18.52
-19.59
-20.51
-21.07
-20.88
-19.58
-17.02
-13.38
-9.16
-4.99
-1.35
1.54
3.80
5.73
7.58
9.40
10.97
11.92
12.05
11.45
10.52
9.82
9.69
10.15
10.84
11.21
10.92
9.94
8.60
7.39
6.65
6.38
6.26
5.81
4.68
2.87
0.70
-1.30
-2.72
-3.50
-3.95
-4.62
-5.93
-7.99
-10.55
-13.14
-15.38
-17.16
-18.62
-19.96
-21.19
-21.99
-21.85
-20.32
-17.31
-13.19
-8.67
-4.45
-0.97
1.74
3.95
6.03
8.17
10.31
12.14
13.34
13.72
13.38
12.64
11.92
11.52
11.48
11.62
11.62
11.24
10.42
9.36
8.34
7.60
7.14
6.68
5.84
4.37
2.30
0.03
-1.89
-3.08
-3.59
-3.88
-4.65
-6.37
-9.08
-12.36
-15.53
-18.09
-19.92
-21.26
-22.42
-23.47
-24.14
-23.91
-22.39
-19.54
-15.77
-11.80
-8.22
-5.29
-2.84
-0.46
2.21
5.20
8.14
10.43
11.58
11.44
10.36
9.01
8.08
7.93
8.45
9.16
9.50
9.18
8.29
7.28
6.60
6.45
6.66
6.78
6.40
5.44
4.14
2.93
2.16
1.80
1.49
0.71
-0.89
-3.27
-6.06
-8.75
-10.98
-12.74
-14.36
-16.23
-18.51
-20.89
-22.65
-23.00
-21.42
-17.95
-13.28
-8.41
-4.21
-1.13
1.02
2.80
4.83
7.35
10.17
12.68
14.38
15.06
14.98
14.71
14.75
15.20
15.74
15.81
15.03
13.42
11.47
9.91
9.24
9.51
10.25
10.68
10.21
8.62
6.27
3.80
1.78
0.43
-0.53
-1.65
-3.43
-5.96
-8.92
-11.72
-13.87
-15.26
-16.18
-17.11
-18.29
-19.54
-20.32
-19.97
-18.14
-15.01
-11.18
-7.43
-4.27
-1.75
0.45
2.79
5.50
8.39
10.92
12.49
12.83
12.14
11.02
10.21
10.14
10.78
11.63
12.01
11.49
10.05
8.09
6.23
4.92
4.23
3.84
3.22
2.07
0.45
-1.20
-2.32
-2.51
-1.83
-0.72
0.26
0.69
0.59
0.37
0.58
1.68
3.78
6.73
10.25
14.20
18.68
24.01
30.59
38.59
47.85
57.81
67.70
76.83
84.82
91.65
97.57
102.72
106.91
109.54
109.89
107.58
102.85
96.55
89.88
83.76
78.55
73.92
69.20
63.80
57.57
50.79
44.00
37.53
31.38
25.19
18.52
11.15
3.18
-4.98
-12.89
-20.36
-27.56
-35.00
-43.15
-52.18
-61.73
-71.07
-79.30
-85.77
-90.26
-92.95
-94.22
-94.30
-93.20
-90.68
-86.53
-80.82
-74.01
-66.84
-60.07
-54.18
-49.22
-44.88
-40.73
-36.58
-32.58
-29.16
-26.73
-25.37
-24.75
-24.18
-23.03
-21.04
-18.48
-16.00
-14.26
-13.54
-13.69
-14.20
-14.56
-14.59
-14.46
-14.58
-15.23
-16.41
-17.87
-19.22
-20.28
-21.23
-22.62
-25.06
-28.86
-33.78
-38.99
-43.39
-45.96
-46.28
-44.64
-41.86
-38.90
-36.39
-34.48
-32.89
-31.29
-29.68
-28.53
-28.52
-30.22
-33.70
-38.44
-43.60
-48.37
-52.36
-55.65
-58.57
-61.31
-63.60
-64.80
-64.09
-60.93
-55.36
-48.04
-39.93
-31.86
-24.26
-17.10
-10.14
-3.23
3.48
9.57
14.60
18.38
21.13
23.28
25.24
27.10
28.58
29.17
28.45
26.45
23.62
20.75
18.64
17.83
18.36
19.88
21.80
23.64
25.19
26.56
28.04
29.86
31.96
33.97
35.37
35.72
34.93
33.30
31.35
29.54
28.02
26.58
24.83
22.54
19.82
17.15
15.17
14.26
14.36
14.88
14.99
14.07
11.93
8.91
5.66
2.72
0.24
-1.97
-4.29
-6.97
-10.02
-13.12
-15.90
-18.09
-19.63
-20.65
-21.29
-21.53
-21.23
-20.10
-17.93
-14.73
-10.76
-6.51
-2.45
1.14
4.27
7.18
10.09
12.97
15.55
17.42
18.29
18.20
17.57
17.01
17.08
17.95
19.40
20.88
21.88
22.17
21.90
21.50
21.47
22.05
23.03
23.82
23.81
22.68
20.54
17.91
15.36
13.36
11.91
10.45
8.27
4.97
0.63
-4.17
-8.61
-12.05
-13.88
-13.93
-12.55
-10.39
-7.93
-5.51
-3.43
-1.98
-1.78
-2.70
-4.34
-6.13
-7.35
-7.02
-4.22
1.36
9.63
19.67
31.22
44.06
57.52
70.33
81.01
87.89
89.22
83.85
66.85
37.62
1.73
-32.13
-57.51
-71.89
-75.49
-72.64
-64.67
-52.80
-37.84
-20.93
-3.76
11.84
24.56
33.21
37.36
37.83
35.78
33.42
32.75
34.51
37.89
41.17
42.57
41.01
36.81
30.92
25.02
20.50
17.73
16.14
14.93
13.58
12.14
11.23
11.31
12.65
15.02
17.63
19.49
19.91
18.77
16.51
13.96
11.64
9.67
7.60
4.59
-0.21
-7.31
-16.68
-27.89
-40.28
-53.29
-66.31
-78.58
-89.07
-96.68
-100.66
-101.16
-99.43
-97.55
-97.69
-101.11
-107.50
-115.01
-120.78
-122.05
-116.97
-105.09
-87.26
-65.01
-40.07
-13.93
12.19
37.21
59.97
79.32
94.33
104.68
110.79
113.79
115.02
115.36
114.85
112.61
107.31
98.00
84.73
68.64
51.50
34.77
18.99
3.69
-11.92
-28.12
-44.13
-58.33
-69.12
-75.82
-79.07
-80.36
-81.12
-81.88
-82.23
-81.44
-79.31
-76.54
-74.51
-74.24
-75.59
-77.10
-76.59
-72.33
-63.95
-52.72
-40.92
-30.81
-23.78
-19.90
-18.29
-17.66
-17.03
-16.10
-15.20
-14.96
-15.83
-17.78
-20.24
-22.33
-23.27
-22.74
-20.98
-18.62
-16.32
-14.40
-12.76
-11.00
-8.78
-6.09
-3.29
-0.94
0.53
0.98
0.58
-0.36
-1.52
-2.76
-4.02
-5.27
-6.39
-7.16
-7.38
-6.95
-6.00
-4.87
-3.95
-3.51
-3.36
-2.84
-0.92
3.42
10.80
21.02
33.09
45.52
56.78
65.83
72.21
76.05
77.72
77.60
75.94
72.95
69.02
64.81
61.14
58.75
57.94
58.36
59.08
58.90
56.83
52.44
45.95
38.16
30.03
22.41
15.75
10.11
5.31
1.09
-2.73
-6.23
-9.51
-12.79
-16.36
-20.45
-24.97
-29.32
-32.59
-33.72
-32.07
-27.65
-21.21
-13.83
-6.49
0.35
6.78
13.20
19.94
26.89
33.57
39.30
43.63
46.52
48.31
49.52
50.52
51.34
51.69
51.17
49.59
47.14
44.38
42.00
40.50
39.90
39.78
39.49
38.55
36.87
34.77
32.79
31.28
30.26
29.45
28.50
27.21
25.55
23.50
20.82
16.99
11.31
3.25
-7.20
-19.29
-31.63
-42.56
-50.58
-54.83
-55.30
-52.71
-48.15
-42.65
-36.91
-31.19
-25.53
-19.99
-14.83
-10.46
-7.20
-5.00
-3.46
-1.90
0.24
3.08
6.27
9.13
11.00
11.69
11.46
10.97
10.87
11.41
12.29
12.82
12.28
10.39
7.46
4.24
1.52
-0.27
-1.30
-2.25
-3.85
-6.54
-10.25
-14.50
-18.68
-22.37
-25.41
-27.82
-29.51
-30.14
-29.17
-26.12
-20.85
-13.76
-5.67
2.39
9.61
15.67
20.67
25.01
29.01
32.75
35.99
38.37
39.69
40.08
39.92
39.71
39.72
39.88
39.76
38.85
36.85
33.89
30.44
27.07
24.12
21.50
18.75
15.33
10.98
5.91
0.70
-4.02
-7.89
-11.06
-14.10
-17.72
-22.36
-28.05
-34.38
-40.69
-46.31
-50.82
-54.01
-55.82
-56.16
-54.88
-51.78
-46.70
-39.78
-31.48
-22.53
-13.77
-5.88
0.81
6.27
10.67
14.17
16.82
18.59
19.50
19.73
19.65
19.62
19.91
20.50
21.15
21.49
21.25
20.36
18.99
17.43
15.93
14.53
13.05
11.15
8.54
5.20
1.48
-2.06
-4.86
-6.77
-8.09
-9.54
-11.90
-15.61
-20.65
-26.54
-32.55
-38.03
-42.43
-45.40
-46.65
-45.96
-43.16
-38.36
-31.92
-24.49
-16.89
-9.94
-4.26
-0.11
2.60
4.29
5.52
6.72
8.09
9.54
10.85
11.89
12.80
13.91
15.67
18.29
21.72
25.70
29.91
34.17
38.35
42.21
45.16
46.27
44.58
39.58
31.60
21.87
12.10
3.86
-2.05
-5.75
-8.08
-10.07
-12.36
-14.98
-17.42
-19.06
-19.49
-18.79
-17.36
-15.75
-14.24
-12.82
-11.14
-8.84
-5.77
-2.03
2.02
5.98
9.65
13.05
16.38
19.83
23.45
27.02
30.18
32.60
34.20
35.22
36.17
37.54
39.57
42.00
44.13
45.13
44.42
41.96
38.23
33.99
29.80
25.73
21.32
15.90
9.11
1.18
-7.05
-14.50
-20.35
-24.45
-27.28
-29.66
-32.31
-35.47
-38.92
-42.11
-44.46
-45.52
-44.98
-42.66
-38.50
-32.67
-25.66
-18.35
-11.75
-6.81
-4.08
-3.52
-4.60
-6.41
-8.02
-8.65
-7.91
-5.80
-2.69
0.87
4.37
7.52
10.24
12.68
14.97
17.13
19.06
20.58
21.53
21.84
21.48
20.37
18.33
15.12
10.62
5.00
-1.16
-7.02
-11.70
-14.62
-15.78
-15.79
-15.55
-16.00
-17.60
-20.27
-23.43
-26.32
-28.27
-28.94
-28.24
-26.27
-23.15
-18.97
-13.90
-8.24
-2.46
2.90
7.33
10.54
12.53
13.56
14.05
14.43
14.91
15.49
15.97
16.10
15.73
14.92
13.92
13.00
12.38
12.05
11.89
11.72
11.46
11.15
10.87
10.64
10.33
9.70
8.46
6.51
3.96
1.13
-1.57
-3.88
-5.75
-7.38
-9.16
-11.41
-14.31
-17.76
-21.43
-24.85
-27.56
-29.21
-29.61
-28.74
-26.67
-23.51
-19.44
-14.72
-9.78
-5.25
-1.75
0.35
1.13
1.16
1.25
2.09
3.91
6.43
9.00
11.02
12.18
12.58
12.59
12.54
12.53
12.33
11.59
10.01
7.55
4.45
1.12
-2.03
-4.78
-7.15
-9.28
-11.27
-13.06
-14.47
-15.25
-15.32
-14.89
-14.40
-14.39
-15.22
-17.01
-19.55
-22.44
-25.20
-27.41
-28.76
-29.07
-28.28
-26.44
-23.69
-20.22
-16.25
-12.05
-7.90
-4.09
-0.83
1.81
3.96
5.89
7.93
10.32
13.07
15.96
18.70
21.10
23.15
25.04
26.95
28.95
30.84
32.27
32.96
32.86
32.18
31.31
30.49
29.71
28.64
26.86
24.16
20.69
16.92
13.45
10.67
8.53
6.60
4.28
1.09
-3.06
-7.87
-12.82
-17.33
-21.03
-23.72
-25.35
-25.89
-25.26
-23.40
-20.39
-16.51
-12.26
-8.27
-5.05
-2.82
-1.43
-0.53
0.34
1.41
2.63
3.71
4.34
4.41
4.11
3.83
3.94
4.59
5.55
6.42
6.87
6.82
6.50
6.29
6.40
6.77
7.05
6.79
5.71
3.93
1.83
-0.01
-1.25
-1.88
-2.32
-3.23
-5.18
-8.39
-12.58
-17.11
-21.18
-24.20
-25.89
-26.38
-25.92
-24.72
-22.83
-20.13
-16.60
-12.43
-8.04
-3.97
-0.63
1.88
3.70
5.08
6.17
6.94
7.23
6.89
5.99
4.78
3.60
2.73
2.24
1.98
1.66
0.99
-0.11
-1.49
-2.80
-3.66
-3.88
-3.66
-3.52
-4.14
-6.01
-9.12
-12.99
-16.81
-19.86
-21.84
-22.99
-23.86
-25.01
-26.70
-28.70
-30.49
-31.50
-31.36
-30.04
-27.76
-24.80
-21.35
-17.41
-12.86
-7.66
-1.93
3.92
9.37
13.98
17.52
20.03
21.76
22.94
23.69
23.98
23.72
22.89
21.71
20.50
19.65
19.39
19.71
20.33
20.86
20.96
20.48
19.50
18.26
16.97
15.75
14.50
13.03
11.18
8.97
6.58
4.25
2.13
0.14
-2.03
-4.74
-8.28
-12.71
-17.87
-23.47
-29.16
-34.61
-39.50
-43.41
-45.85
-46.33
-44.49
-40.30
-34.11
-26.64
-18.79
-11.38
-4.95
0.32
4.55
7.96
10.70
12.74
13.92
14.11
13.37
11.95
10.25
8.60
7.19
6.00
4.88
3.70
2.44
1.18
0.06
-0.82
-1.49
-2.12
-2.99
-4.31
-6.14
-8.28
-10.36
-12.01
-13.10
-13.90
-14.95
-16.80
-19.75
-23.61
-27.87
-31.92
-35.36
-38.13
-40.30
-41.89
-42.65
-42.11
-39.83
-35.66
-29.94
-23.38
-16.83
-10.88
-5.74
-1.22
3.00
7.20
11.36
15.17
18.22
20.25
21.27
21.68
21.98
22.57
23.55
24.67
25.53
25.82
25.50
24.83
24.16
23.72
23.46
23.10
22.29
20.82
18.80
16.53
14.35
12.47
10.80
8.99
6.65
3.54
-0.32
-4.66
-9.15
-13.56
-17.80
-21.87
-25.60
-28.58
-30.21
-29.96
-27.61
-23.45
-18.22
-12.76
-7.76
-3.48
0.21
3.66
7.19
10.90
14.61
17.94
20.48
21.98
22.43
22.08
21.36
20.71
20.39
20.45
20.68
20.84
20.74
20.38
19.89
19.46
19.19
19.01
18.68
17.95
16.67
14.90
12.85
10.76
8.75
6.80
4.83
2.91
1.26
0.25
0.10
0.73
1.67
2.34
2.35
1.84
1.42
1.96
4.06
7.76
12.30
16.40
18.69
18.27
15.11
10.10
4.68
0.29
-2.23
-2.83
-2.16
-1.09
-0.24
0.27
0.70
1.30
2.02
2.41
2.00
0.60
-1.43
-3.31
-4.26
-3.95
-2.66
-1.15
-0.23
-0.28
-1.13
-2.21
-2.95
-3.16
-3.13
-3.39
-4.41
-6.29
-8.70
-11.11
-13.10
-14.59
-15.89
-17.42
-19.41
-21.58
-23.27
-23.63
-22.00
-18.30
-12.97
-6.83
-0.64
5.16
10.50
15.55
20.41
24.94
28.71
31.20
32.14
31.63
30.12
28.26
26.56
25.26
24.25
23.29
22.18
20.93
19.68
18.62
17.85
17.28
16.70
15.83
14.51
12.72
10.57
8.18
5.65
3.01
0.22
-2.72
-5.70
-8.48
-10.76
-12.29
-13.00
-13.03
-12.77
-12.61
-12.80
-13.29
-13.71
-13.49
-12.08
-9.15
-4.70
0.97
7.39
14.11
20.74
27.01
32.75
37.80
42.01
45.21
47.33
48.36
48.36
47.40
45.50
42.69
39.01
34.57
29.59
24.38
19.23
14.42
10.06
6.10
2.37
-1.35
-5.27
-9.53
-14.13
-18.99
-23.95
-28.79
-33.29
-37.23
-40.38
-42.52
-43.49
-43.21
-41.78
-39.51
-36.94
-34.63
-33.11
-32.68
-33.28
-34.57
-36.00
-37.02
-37.14
-36.04
-33.53
-29.55
-24.19
-17.71
-10.56
-3.41
3.05
8.25
11.92
14.19
15.45
16.16
16.64
16.99
17.07
16.76
16.02
14.99
13.93
12.97
12.08
11.03
9.55
7.56
5.28
3.12
1.55
0.77
0.60
0.54
-0.01
-1.46
-3.79
-6.60
-9.34
-11.59
-13.23
-14.51
-15.87
-17.71
-20.21
-23.31
-26.77
-30.29
-33.59
-36.44
-38.64
-39.94
-40.14
-39.04
-36.63
-33.03
-28.60
-23.76
-18.95
-14.46
-10.42
-6.80
-3.48
-0.43
2.26
4.38
5.68
6.06
5.59
4.63
3.62
2.99
2.88
3.21
3.66
3.85
3.55
2.74
1.60
0.34
-0.85
-1.85
-2.58
-2.93
-2.71
-1.77
-0.08
2.11
4.29
5.83
6.22
5.32
3.41
1.01
-1.32
-3.31
-5.09
-7.02
-9.43
-12.30
-15.17
-17.26
-17.84
-16.49
-13.29
-8.76
-3.55
1.81
7.08
12.24
17.37
22.40
27.04
30.84
33.36
34.44
34.26
33.31
32.10
31.01
30.09
29.17
28.02
26.59
25.03
23.65
22.67
22.12
21.69
20.96
19.49
17.16
14.11
10.80
7.69
5.09
2.96
0.92
-1.61
-5.12
-9.77
-15.31
-21.19
-26.83
-31.82
-36.05
-39.51
-42.14
-43.62
-43.44
-41.14
-36.60
-30.16
-22.53
-14.45
-6.43
1.35
8.92
16.23
22.95
28.40
31.83
32.73
31.14
27.67
23.34
19.20
16.01
14.04
13.15
13.02
13.35
14.08
15.25
16.94
18.98
20.97
22.31
22.47
21.18
18.59
15.20
11.68
8.59
6.13
4.17
2.29
0.06
-2.78
-6.18
-9.86
-13.48
-16.78
-19.67
-22.10
-24.05
-25.36
-25.84
-25.30
-23.76
-21.41
-18.55
-15.42
-12.09
-8.54
-4.79
-1.04
2.25
4.49
5.28
4.65
3.11
1.50
0.66
1.07
2.72
5.15
7.73
9.86
11.20
11.67
11.44
10.78
9.98
9.26
8.74
8.45
8.38
8.48
8.66
8.82
8.76
8.23
6.99
4.95
2.26
-0.72
-3.53
-5.86
-7.70
-9.33
-11.15
-13.36
-15.82
-18.00
-19.15
-18.65
-16.22
-12.10
-6.97
-1.73
2.79
6.05
7.92
8.58
8.38
7.65
6.60
5.36
4.02
2.74
1.69
1.01
0.70
0.53
0.21
-0.48
-1.56
-2.80
-3.83
-4.40
-4.46
-4.25
-4.10
-4.28
-4.86
-5.72
-6.62
-7.42
-8.12
-8.89
-9.93
-11.29
-12.83
-14.31
-15.50
-16.37
-17.16
-18.22
-19.90
-22.28
-25.08
-27.75
-29.58
-30.00
-28.76
-26.00
-22.18
-17.87
-13.52
-9.33
-5.26
-1.13
3.17
7.52
11.63
15.12
17.73
19.44
20.41
20.92
21.19
21.37
21.53
21.71
21.99
22.49
23.20
23.91
24.19
23.50
21.47
18.11
13.90
9.60
6.02
3.73
2.87
3.28
4.60
6.51
8.73
11.04
13.25
15.09
16.26
16.46
15.50
13.38
10.31
6.78
3.42
0.82
-0.65
-0.96
-0.33
0.94
2.74
5.09
8.11
11.68
15.32
18.27
19.82
19.64
18.01
15.73
13.79
12.89
13.26
14.53
16.09
17.35
18.05
18.26
18.21
18.09
17.79
16.93
15.04
11.73
6.91
0.82
-5.99
-12.91
-19.35
-24.89
-29.32
-32.56
-34.61
-35.51
-35.36
-34.36
-32.90
-31.47
-30.54
-30.31
-30.60
-30.88
-30.47
-28.86
-25.96
-22.08
-17.84
-13.82
-10.44
-7.87
-6.11
-5.17
-5.09
-5.98
-7.83
-10.49
-13.67
-16.97
-20.07
-22.71
-24.81
-26.30
-27.09
-27.05
-26.07
-24.12
-21.33
-18.00
-14.57
-11.43
-8.86
-6.94
-5.59
-4.58
-3.66
-2.64
-1.38
0.14
1.89
3.81
5.75
7.54
8.89
9.50
9.08
7.44
4.64
0.97
-3.10
-6.98
-10.10
-12.10
-12.80
-12.28
-10.77
-8.52
-5.72
-2.46
1.23
5.29
9.45
13.33
16.47
18.50
19.30
18.99
17.93
16.46
14.84
13.21
11.61
10.11
8.82
7.85
7.27
6.98
6.76
6.33
5.50
4.28
2.82
1.36
0.13
-0.80
-1.48
-2.04
-2.65
-3.38
-4.23
-5.14
-6.11
-7.19
-8.58
-10.46
-12.87
-15.63
-18.26
-20.16
-20.79
-19.93
-17.70
-14.49
-10.72
-6.70
-2.47
2.03
6.83
11.82
16.71
21.16
24.90
27.84
30.04
31.65
32.72
33.21
32.99
31.98
30.27
28.08
25.80
23.74
22.08
20.81
19.76
18.77
17.74
16.66
15.53
14.31
12.88
11.12
8.96
6.48
3.91
1.47
-0.66
-2.49
-4.22
-6.13
-8.50
-11.42
-14.77
-18.12
-20.89
-22.51
-22.61
-21.18
-18.58
-15.33
-11.88
-8.45
-4.98
-1.29
2.71
6.82
10.59
13.47
15.04
15.21
14.21
12.45
10.36
8.20
6.09
4.05
2.17
0.60
-0.47
-0.95
-0.94
-0.69
-0.60
-0.94
-1.87
-3.29
-4.97
-6.60
-7.96
-8.94
-9.63
-10.18
-10.77
-11.56
-12.56
-13.76
-15.16
-16.86
-18.98
-21.60
-24.58
-27.55
-29.92
-31.14
-30.87
-29.12
-26.20
-22.52
-18.45
-14.19
-9.75
-5.11
-0.37
4.17
8.01
10.61
11.66
11.24
9.90
8.42
7.51
7.53
8.35
9.51
10.49
11.01
11.12
11.09
11.09
11.05
10.61
9.37
7.13
4.06
0.58
-2.84
-5.95
-8.83
-11.76
-14.97
-18.45
-21.92
-25.01
-27.45
-29.29
-30.77
-32.22
-33.74
-35.17
-36.09
-36.02
-34.66
-31.98
-28.22
-23.79
-19.07
-14.25
-9.38
-4.43
0.60
5.55
10.09
13.86
16.62
18.34
19.19
19.48
19.44
19.19
18.67
17.84
16.74
15.57
14.65
14.30
14.64
15.61
16.94
18.33
19.57
20.60
21.51
22.37
23.13
23.60
23.51
22.66
21.06
18.91
16.52
14.09
11.63
8.92
5.65
1.73
-2.66
-7.07
-10.93
-13.81
-15.63
-16.59
-17.12
-17.66
-18.53
-19.88
-21.70
-23.79
-25.85
-27.45
-28.15
-27.61
-25.72
-22.70
-19.08
-15.52
-12.66
-10.86
-10.16
-10.28
-10.70
-10.89
-10.45
-9.22
-7.36
-5.22
-3.26
-1.80
-0.98
-0.68
-0.65
-0.66
-0.58
-0.43
-0.30
-0.25
-0.17
0.14
0.83
1.88
2.99
3.67
3.47
2.20
0.12
-2.10
-3.61
-3.73
-2.20
0.77
4.64
8.84
13.03
17.08
21.08
25.04
28.82
32.08
34.43
35.67
35.84
35.21
34.15
32.95
31.74
30.49
29.10
27.50
25.75
23.97
22.39
21.17
20.38
19.92
19.56
19.09
18.35
17.31
16.01
14.54
12.93
11.20
9.35
7.42
5.53
3.78
2.29
1.00
-0.29
-1.94
-4.20
-7.08
-10.28
-13.17
-15.07
-15.45
-14.21
-11.60
-8.11
-4.23
-0.24
3.72
7.58
11.13
14.00
15.73
16.06
15.02
13.00
10.58
8.33
6.57
5.30
4.33
3.47
2.74
2.35
2.62
3.73
5.58
7.76
9.73
11.05
11.56
11.38
10.80
10.06
9.26
8.27
6.91
5.04
2.68
-0.04
-2.92
-5.89
-8.97
-12.25
-15.79
-19.45
-22.84
-25.47
-26.85
-26.74
-25.26
-22.87
-20.10
-17.33
-14.63
-11.79
-8.50
-4.66
-0.51
3.44
6.57
8.56
9.46
9.62
9.50
9.34
9.06
8.34
6.82
4.39
1.29
-1.96
-4.77
-6.76
-7.89
-8.42
-8.77
-9.23
-9.77
-10.16
-10.02
-9.14
-7.62
-5.89
-4.48
-3.76
-3.73
-4.13
-4.56
-4.82
-5.08
-5.79
-7.44
-10.17
-13.61
-16.96
-19.30
-20.01
-19.01
-16.67
-13.57
-10.12
-6.43
-2.38
2.15
7.02
11.72
15.62
18.13
19.07
18.71
17.62
16.47
15.72
15.50
15.57
15.53
15.01
13.93
12.46
10.99
9.86
9.18
8.78
8.27
7.35
5.90
4.07
2.20
0.58
-0.66
-1.60
-2.40
-3.20
-3.98
-4.64
-5.10
-5.42
-5.85
-6.70
-8.17
-10.19
-12.31
-13.87
-14.23
-13.02
-10.31
-6.50
-2.13
2.39
6.90
11.48
16.26
21.23
26.17
30.70
34.43
37.16
38.93
39.97
40.54
40.79
40.68
40.02
38.66
36.57
33.98
31.25
28.76
26.72
25.08
23.56
21.78
19.42
16.35
12.64
8.52
4.26
0.10
-3.83
-7.48
-10.88
-14.13
-17.36
-20.71
-24.36
-28.41
-32.81
-37.29
-41.32
-44.25
-45.47
-44.63
-41.74
-37.20
-31.57
-25.47
-19.31
-13.35
-7.73
-2.59
1.80
5.09
6.96
7.31
6.35
4.63
2.87
1.65
1.20
1.32
1.53
1.33
0.50
-0.86
-2.42
-3.90
-5.25
-6.67
-8.47
-10.77
-13.38
-15.89
-17.81
-18.93
-19.37
-19.56
-19.97
-20.86
-22.23
-23.82
-25.35
-26.67
-27.78
-28.75
-29.57
-29.99
-29.63
-28.05
-25.05
-20.74
-15.60
-10.29
-5.37
-1.14
2.43
5.57
8.45
11.08
13.22
14.56
14.92
14.42
13.41
12.35
11.59
11.16
10.81
10.17
8.95
7.17
5.10
3.18
1.75
0.87
0.31
-0.41
-1.71
-3.76
-6.37
-9.07
-11.40
-13.11
-14.30
-15.38
-16.83
-18.91
-21.60
-24.52
-27.20
-29.21
-30.29
-30.42
-29.61
-27.88
-25.19
-21.49
-16.89
-11.67
-6.26
-1.18
3.27
7.00
10.16
13.03
15.78
18.38
20.55
21.93
22.25
21.51
19.97
18.08
16.24
14.69
13.40
12.20
10.92
9.54
8.12
6.82
5.67
4.58
3.34
1.78
-0.17
-2.42
-4.73
-6.89
-8.80
-10.52
-12.26
-14.31
-16.93
-20.22
-24.07
-28.09
-31.70
-34.30
-35.41
-34.84
-32.73
-29.43
-25.36
-20.83
-16.03
-11.09
-6.14
-1.42
2.86
6.57
9.77
12.60
15.18
17.48
19.27
20.28
20.38
19.71
18.66
17.71
17.21
17.23
17.57
17.92
17.99
17.65
16.97
16.17
15.50
15.18
15.29
15.78
16.49
17.22
17.79
18.09
18.07
17.66
16.71
14.97
12.17
8.16
3.02
-2.85
-8.84
-14.33
-18.90
-22.40
-24.91
-26.63
-27.67
-28.00
-27.48
-25.94
-23.37
-19.95
-16.05
-12.14
-8.69
-6.07
-4.56
-4.31
-5.39
-7.66
-10.73
-13.98
-16.57
-17.70
-16.85
-14.07
-9.98
-5.69
-2.40
-0.97
-1.62
-3.85
-6.67
-9.02
-10.19
-10.04
-9.03
-7.90
-7.33
-7.73
-9.11
-11.14
-13.40
-15.39
-16.67
-16.90
-15.82
-13.41
-9.90
-5.83
-1.85
1.43
3.78
5.36
6.75
8.63
11.54
15.61
20.51
25.66
30.38
34.16
36.74
38.04
38.16
37.26
35.56
33.41
31.18
29.21
27.70
26.64
25.87
25.14
24.23
23.08
21.70
20.15
18.48
16.69
14.79
12.81
10.83
8.97
7.40
6.11
5.02
3.85
2.26
-0.11
-3.41
-7.51
-11.97
-16.18
-19.46
-21.27
-21.30
-19.50
-16.04
-11.21
-5.39
0.99
7.52
13.78
19.39
24.04
27.48
29.55
30.23
29.64
28.01
25.70
23.05
20.34
17.69
15.10
12.49
9.78
7.01
4.30
1.83
-0.22
-1.73
-2.63
-2.91
-2.64
-1.92
-0.95
-0.05
0.40
0.07
-1.13
-2.97
-4.95
-6.49
-7.23
-7.18
-6.79
-6.62
-7.09
-8.19
-9.42
-10.12
-9.68
-7.88
-4.98
-1.51
1.99
5.20
8.08
10.79
13.49
16.15
18.51
20.20
20.97
20.84
20.13
19.28
18.59
18.09
17.52
16.53
14.97
12.96
10.88
9.13
7.92
7.22
6.73
6.17
5.28
3.99
2.33
0.43
-1.62
-3.70
-5.78
-7.87
-10.01
-12.27
-14.68
-17.21
-19.81
-22.47
-25.20
-27.99
-30.71
-33.02
-34.46
-34.54
-33.01
-29.89
-25.57
-20.52
-15.19
-9.82
-4.48
0.81
5.89
10.43
13.98
16.16
16.91
16.54
15.62
14.77
14.31
14.24
14.26
14.07
13.60
13.06
12.86
13.33
14.48
16.00
17.33
17.96
17.61
16.32
14.34
11.91
9.18
6.14
2.73
-1.02
-4.90
-8.53
-11.54
-13.77
-15.36
-16.77
-18.51
-20.88
-23.79
-26.68
-28.83
-29.60
-28.75
-26.49
-23.27
-19.54
-15.54
-11.26
-6.66
-1.84
2.82
6.79
9.60
11.05
11.30
10.75
9.85
8.90
7.97
6.99
5.85
4.51
3.03
1.60
0.40
-0.45
-0.92
-1.12
-1.19
-1.30
-1.59
-2.09
-2.72
-3.33
-3.81
-4.13
-4.32
-4.47
-4.61
-4.71
-4.67
-4.41
-3.93
-3.39
-3.01
-3.02
-3.57
-4.62
-6.00
-7.41
-8.54
-9.08
-8.72
-7.22
-4.41
-0.30
4.87
10.59
16.15
20.79
24.03
25.88
26.85
27.77
29.44
32.28
36.10
40.25
43.90
46.39
47.44
47.16
45.92
44.08
41.94
39.70
37.64
36.17
35.81
37.08
40.22
45.05
50.88
56.71
61.39
63.92
63.54
59.76
52.31
41.18
26.66
9.44
-9.30
-28.11
-45.49
-60.28
-71.91
-80.42
-86.25
-89.93
-91.77
-91.81
-89.89
-85.90
-79.92
-72.30
-63.53
-54.13
-44.59
-35.39
-27.12
-20.42
-15.89
-13.79
-13.92
-15.52
-17.53
-18.89
-18.94
-17.57
-15.17
-12.43
-9.93
-7.91
-6.21
-4.37
-1.86
1.64
6.10
11.12
16.04
20.10
22.64
23.20
21.61
17.96
12.60
6.03
-1.16
-8.44
-15.41
-21.90
-27.87
-33.37
-38.40
-42.85
-46.47
-48.97
-50.10
-49.71
-47.81
-44.45
-39.71
-33.70
-26.61
-18.75
-10.60
-2.70
4.45
10.47
15.01
17.78
18.43
16.72
12.71
6.91
0.28
-5.99
-10.87
-13.82
-14.86
-14.38
-12.86
-10.65
-7.97
-5.10
-2.50
-0.78
-0.44
-1.51
-3.50
-5.50
-6.58
-6.25
-4.65
-2.43
-0.48
0.51
0.27
-1.09
-3.13
-5.34
-7.26
-8.60
-9.27
-9.34
-8.91
-7.99
-6.43
-3.97
-0.34
4.54
10.52
17.19
24.03
30.55
36.38
41.26
44.99
47.39
48.38
48.10
46.85
45.09
43.19
41.36
39.59
37.75
35.75
33.73
32.00
30.93
30.79
31.62
33.20
35.16
37.02
38.32
38.71
37.93
35.90
32.68
28.47
23.44
17.75
11.48
4.71
-2.38
-9.47
-16.14
-21.92
-26.46
-29.55
-31.15
-31.41
-30.54
-28.86
-26.70
-24.39
-22.27
-20.54
-19.28
-18.37
-17.60
-16.74
-15.69
-14.56
-13.60
-13.10
-13.19
-13.74
-14.43
-14.90
-14.94
-14.58
-14.06
-13.63
-13.43
-13.39
-13.36
-13.29
-13.31
-13.70
-14.70
-16.29
-18.17
-19.79
-20.69
-20.73
-20.20
-19.65
-19.70
-20.69
-22.57
-25.02
-27.61
-29.93
-31.76
-32.90
-33.21
-32.52
-30.66
-27.60
-23.45
-18.48
-13.08
-7.64
-2.48
2.21
6.32
9.81
12.64
14.74
15.99
16.32
15.74
14.46
12.87
11.40
10.42
10.10
10.32
10.77
11.07
10.96
10.39
9.49
8.54
7.74
7.16
6.75
6.34
5.83
5.15
4.38
3.58
2.79
1.96
0.91
-0.56
-2.57
-5.10
-7.96
-10.79
-13.13
-14.58
-14.88
-13.96
-11.93
-8.89
-5.00
-0.35
4.87
10.41
15.87
20.85
25.04
28.33
30.75
32.45
33.56
34.15
34.21
33.71
32.64
31.05
29.10
27.01
24.98
23.07
21.23
19.26
17.00
14.41
11.66
8.99
6.56
4.32
2.00
-0.67
-3.77
-7.12
-10.34
-13.12
-15.40
-17.48
-19.83
-22.88
-26.75
-31.20
-35.67
-39.52
-42.18
-43.30
-42.79
-40.73
-37.28
-32.66
-27.05
-20.65
-13.72
-6.61
0.29
6.56
11.96
16.40
20.03
23.01
25.47
27.33
28.37
28.38
27.30
25.38
23.10
21.01
19.46
18.49
17.82
17.06
15.90
14.25
12.20
9.86
7.25
4.25
0.74
-3.21
-7.25
-10.86
-13.55
-15.16
-15.94
-16.48
-17.45
-19.31
-22.15
-25.66
-29.23
-32.22
-34.08
-34.46
-33.27
-30.63
-26.76
-21.98
-16.59
-10.86
-5.09
0.48
5.57
9.97
13.57
16.33
18.34
19.69
20.44
20.61
20.18
19.20
17.78
16.13
14.49
13.03
11.77
10.55
9.18
7.50
5.52
3.39
1.32
-0.59
-2.33
-4.04
-5.88
-7.88
-9.93
-11.82
-13.35
-14.46
-15.31
-16.22
-17.53
-19.45
-22.00
-24.98
-28.05
-30.82
-32.96
-34.18
-34.22
-32.87
-30.00
-25.63
-19.94
-13.35
-6.40
0.34
6.43
11.63
15.94
19.54
22.59
25.17
27.16
28.35
28.59
27.95
26.72
25.35
24.26
23.62
23.30
22.99
22.36
21.27
19.80
18.19
16.68
15.33
14.01
12.46
10.47
8.05
5.45
3.04
1.09
-0.34
-1.47
-2.73
-4.46
-6.79
-9.59
-12.56
-15.41
-17.96
-20.17
-21.93
-23.04
-23.12
-21.76
-18.73
-14.15
-8.47
-2.33
3.67
9.23
14.30
19.02
23.45
27.50
30.86
33.14
34.08
33.65
32.11
29.88
27.42
25.06
22.97
21.16
19.55
18.15
16.97
16.07
15.41
14.86
14.15
13.00
11.20
8.78
5.97
3.10
0.47
-1.83
-3.92
-6.07
-8.56
-11.53
-14.94
-18.56
-22.08
-25.18
-27.59
-29.13
-29.65
-29.05
-27.27
-24.29
-20.22
-15.24
-9.65
-3.82
1.88
7.12
11.69
15.51
18.60
21.01
22.66
23.43
23.14
21.77
19.53
16.86
14.29
12.22
10.82
9.94
9.29
8.63
7.89
7.12
6.42
5.77
5.00
3.88
2.24
0.12
-2.27
-4.66
-6.84
-8.73
-10.49
-12.36
-14.56
-17.21
-20.23
-23.42
-26.51
-29.26
-31.51
-33.15
-34.08
-34.06
-32.80
-30.02
-25.62
-19.84
-13.20
-6.37
0.04
5.66
10.40
14.31
17.46
19.82
21.29
21.77
21.37
20.45
19.53
19.10
19.38
20.20
21.09
21.47
20.98
19.65
17.87
16.10
14.64
13.43
12.10
10.26
7.71
4.59
1.32
-1.72
-4.31
-6.50
-8.53
-10.69
-13.07
-15.67
-18.37
-21.09
-23.83
-26.66
-29.55
-32.35
-34.65
-35.95
-35.77
-33.83
-30.21
-25.29
-19.68
-14.00
-8.70
-3.93
0.39
4.44
8.33
12.02
15.28
17.83
19.53
20.42
20.79
20.94
21.03
21.02
20.67
19.76
18.22
16.24
14.20
12.46
11.18
10.23
9.25
7.85
5.80
3.22
0.43
-2.11
-4.13
-5.61
-6.79
-8.04
-9.64
-11.69
-14.08
-16.60
-19.07
-21.42
-23.66
-25.70
-27.33
-28.13
-27.65
-25.55
-21.87
-16.97
-11.50
-6.11
-1.22
3.06
6.90
10.50
13.90
16.93
19.26
20.61
21.01
20.75
20.27
19.99
20.00
20.08
19.85
18.96
17.36
15.29
13.17
11.39
10.05
8.97
7.83
6.32
4.31
1.93
-0.57
-2.99
-5.24
-7.41
-9.67
-12.11
-14.75
-17.49
-20.17
-22.71
-25.11
-27.36
-29.35
-30.72
-30.89
-29.25
-25.40
-19.40
-11.78
-3.32
5.28
13.69
22.02
30.58
39.59
48.95
58.20
66.69
73.83
79.30
83.01
84.92
84.92
82.74
78.10
70.93
61.58
50.91
40.08
30.18
21.85
15.10
9.30
3.56
-2.91
-10.46
-18.88
-27.56
-35.73
-42.77
-48.34
-52.42
-55.18
-56.88
-57.80
-58.20
-58.32
-58.24
-57.80
-56.58
-53.98
-49.46
-42.77
-34.14
-24.29
-14.16
-4.75
3.19
9.22
13.19
15.22
15.52
14.39
12.16
9.08
5.34
1.07
-3.62
-8.55
-13.46
-17.98
-21.78
-24.62
-26.45
-27.38
-27.66
-27.45
-26.84
-25.79
-24.23
-22.21
-19.94
-17.82
-16.23
-15.36
-15.09
-15.02
-14.73
-14.00
-12.94
-11.97
-11.58
-12.07
-13.41
-15.28
-17.20
-18.69
-19.44
-19.23
-17.85
-15.11
-10.86
-5.14
1.77
9.26
16.63
23.18
28.43
32.13
34.23
34.75
33.81
31.56
28.25
24.31
20.34
16.97
14.78
14.11
14.99
17.12
20.01
23.11
25.97
28.30
29.98
30.96
31.17
30.52
28.96
26.60
23.73
20.72
17.85
15.18
12.49
9.40
5.56
0.86
-4.54
-10.27
-15.84
-20.86
-24.97
-27.92
-29.49
-29.50
-27.89
-24.77
-20.39
-15.13
-9.36
-3.33
2.99
9.76
17.22
25.37
33.82
41.67
47.78
51.09
51.02
47.72
42.02
35.14
28.27
22.25
17.41
13.69
10.85
8.77
7.43
6.89
7.00
7.39
7.42
6.52
4.42
1.31
-2.26
-5.70
-8.71
-11.41
-14.24
-17.64
-21.84
-26.68
-31.72
-36.37
-40.11
-42.57
-43.54
-43.04
-41.23
-38.41
-34.88
-30.91
-26.64
-22.14
-17.44
-12.67
-8.06
-3.90
-0.46
2.12
3.80
4.65
4.78
4.34
3.50
2.41
1.25
0.18
-0.65
-1.15
-1.30
-1.17
-0.89
-0.58
-0.31
-0.02
0.42
1.15
2.18
3.35
4.38
5.02
5.19
4.95
4.46
3.80
2.86
1.40
-0.72
-3.39
-6.19
-8.46
-9.61
-9.31
-7.63
-4.88
-1.47
2.31
6.36
10.68
15.29
20.05
24.69
28.84
32.17
34.48
35.70
35.91
35.27
33.92
32.00
29.65
27.03
24.35
21.87
19.85
18.47
17.76
17.57
17.62
17.56
17.14
16.18
14.67
12.61
10.05
7.00
3.50
-0.31
-4.17
-7.80
-10.95
-13.51
-15.58
-17.41
-19.30
-21.47
-23.96
-26.63
-29.16
-31.26
-32.71
-33.45
-33.61
-33.27
-32.42
-30.87
-28.35
-24.76
-20.27
-15.42
-10.85
-7.12
-4.43
-2.63
-1.38
-0.38
0.46
1.01
1.10
0.67
-0.15
-1.06
-1.83
-2.39
-2.90
-3.62
-4.75
-6.28
-8.01
-9.66
-10.98
-11.93
-12.68
-13.49
-14.55
-15.95
-17.55
-19.18
-20.72
-22.22
-23.83
-25.78
-28.14
-30.81
-33.57
-36.12
-38.27
-39.92
-41.05
-41.59
-41.35
-40.04
-37.37
-33.13
-27.38
-20.43
-12.81
-5.19
1.83
7.84
12.64
16.26
18.83
20.52
21.42
21.66
21.45
21.09
20.99
21.39
22.34
23.55
24.54
24.85
24.28
22.95
21.29
19.83
18.96
18.79
19.10
19.46
19.43
18.75
17.45
15.74
13.98
12.38
10.95
9.47
7.66
5.32
2.55
-0.36
-2.99
-5.05
-6.44
-7.25
-7.58
-7.45
-6.72
-5.21
-2.83
0.26
3.68
6.93
9.64
11.69
13.22
14.55
15.94
17.49
19.05
20.35
21.15
21.49
21.57
21.75
22.27
23.11
24.00
24.54
24.45
23.66
22.33
20.69
18.83
16.64
13.94
10.65
6.94
3.25
0.12
-2.07
-3.28
-3.88
-4.47
-5.67
-7.84
-10.97
-14.69
-18.39
-21.42
-23.22
-23.43
-21.96
-18.93
-14.59
-9.29
-3.39
2.72
8.61
13.82
17.93
20.64
21.93
22.02
21.34
20.35
19.34
18.36
17.28
15.95
14.30
12.46
10.71
9.31
8.39
7.91
7.69
7.52
7.20
6.62
5.70
4.34
2.52
0.21
-2.45
-5.25
-7.89
-10.12
-11.86
-13.21
-14.49
-16.12
-18.38
-21.33
-24.66
-27.80
-30.08
-31.01
-30.39
-28.39
-25.43
-21.91
-18.14
-14.17
-9.97
-5.55
-1.07
3.13
6.69
9.37
11.11
12.06
12.44
12.44
12.09
11.31
10.07
8.48
6.88
5.74
5.42
6.02
7.30
8.73
9.76
10.06
9.56
8.50
7.16
5.73
4.22
2.49
0.39
-2.09
-4.76
-7.31
-9.45
-11.05
-12.26
-13.40
-14.84
-16.80
-19.23
-21.82
-24.10
-25.63
-26.09
-25.32
-23.21
-19.78
-15.10
-9.39
-3.11
3.11
8.63
12.94
15.84
17.43
18.05
18.11
17.94
17.71
17.41
16.96
16.28
15.33
14.14
12.74
11.15
9.33
7.22
4.80
2.10
-0.74
-3.54
-6.10
-8.32
-10.25
-12.05
-13.91
-15.95
-18.15
-20.31
-22.21
-23.71
-24.90
-26.04
-27.40
-29.07
-30.89
-32.55
-33.73
-34.28
-34.20
-33.54
-32.25
-30.07
-26.74
-22.12
-16.45
-10.26
-4.25
1.04
5.36
8.84
11.78
14.49
17.11
19.53
21.51
22.79
23.26
22.98
22.20
21.24
20.35
19.65
19.12
18.67
18.26
17.95
17.86
18.10
18.61
19.14
19.25
18.50
16.63
13.68
10.02
6.20
2.69
-0.24
-2.67
-4.85
-7.06
-9.39
-11.66
-13.55
-14.75
-15.10
-14.72
-13.88
-12.81
-11.55
-9.96
-7.76
-4.80
-1.17
2.74
6.45
9.60
12.10
14.17
16.11
18.06
19.91
21.30
21.87
21.47
20.23
18.54
16.75
15.11
13.66
12.32
11.03
9.79
8.66
7.68
6.75
5.63
3.99
1.55
-1.74
-5.62
-9.59
-13.06
-15.65
-17.31
-18.40
-19.44
-20.86
-22.76
-24.86
-26.70
-27.78
-27.84
-26.82
-24.84
-22.04
-18.48
-14.27
-9.52
-4.54
0.29
4.59
8.13
10.99
13.42
15.76
18.21
20.72
22.98
24.62
25.37
25.23
24.52
23.70
23.11
22.74
22.18
20.85
18.26
14.41
9.85
5.49
2.18
0.36
-0.08
0.35
1.07
1.75
2.37
3.03
3.74
4.20
3.87
2.20
-1.10
-5.83
-11.39
-16.98
-21.78
-25.24
-27.12
-27.49
-26.57
-24.58
-21.67
-17.87
-13.18
-7.70
-1.69
4.38
9.91
14.32
17.17
18.28
17.75
15.96
13.41
10.69
8.29
6.56
5.68
5.60
6.10
6.88
7.56
7.83
7.46
6.43
4.89
3.15
1.54
0.27
-0.63
-1.34
-2.12
-3.19
-4.56
-6.06
-7.45
-8.55
-9.38
-10.14
-11.11
-12.48
-14.30
-16.40
-18.53
-20.46
-22.00
-22.99
-23.28
-22.70
-21.09
-18.45
-14.90
-10.74
-6.38
-2.21
1.42
4.32
6.46
7.96
9.04
9.87
10.56
11.10
11.41
11.46
11.29
11.07
10.98
11.14
11.51
11.92
12.16
12.09
11.71
11.11
10.44
9.78
9.10
8.26
7.14
5.67
3.94
2.17
0.61
-0.56
-1.34
-1.87
-2.36
-3.00
-3.88
-5.06
-6.55
-8.38
-10.55
-12.91
-15.14
-16.76
-17.25
-16.26
-13.71
-9.88
-5.30
-0.60
3.72
7.40
10.40
12.82
14.72
16.11
16.91
17.08
16.72
16.10
15.56
15.36
15.54
15.87
16.00
15.62
14.61
13.12
11.44
9.86
8.48
7.15
5.64
3.72
1.43
-0.93
-2.90
-4.17
-4.76
-5.07
-5.70
-7.12
-9.42
-12.28
-15.20
-17.70
-19.60
-20.99
-22.03
-22.79
-23.14
-22.74
-21.30
-18.70
-15.08
-10.81
-6.34
-2.08
1.71
4.94
7.61
9.82
11.59
12.91
13.71
13.96
13.74
13.22
12.69
12.37
12.34
12.46
12.46
12.00
10.92
9.32
7.54
6.02
5.08
4.74
4.74
4.64
4.03
2.77
0.92
-1.24
-3.49
-5.69
-7.89
-10.18
-12.65
-15.29
-18.01
-20.68
-23.18
-25.42
-27.29
-28.63
-29.16
-28.60
-26.74
-23.57
-19.34
-14.50
-9.53
-4.78
-0.43
3.50
7.01
10.04
12.36
13.74
14.02
13.31
11.96
10.44
9.21
8.51
8.28
8.23
7.97
7.20
5.84
4.05
2.14
0.44
-0.86
-1.76
-2.35
-2.74
-2.93
-2.90
-2.65
-2.28
-2.01
-2.08
-2.65
-3.73
-5.15
-6.74
-8.42
-10.26
-12.38
-14.85
-17.50
-19.88
-21.43
-21.70
-20.52
-18.06
-14.78
-11.26
-7.95
-5.05
-2.51
-0.07
2.48
5.20
7.90
10.23
11.79
12.42
12.27
11.74
11.30
11.23
11.47
11.70
11.50
10.72
9.50
8.25
7.42
7.18
7.32
7.38
6.84
5.46
3.37
1.04
-0.99
-2.38
-3.15
-3.62
-4.26
-5.41
-7.19
-9.45
-11.95
-14.46
-16.88
-19.12
-21.03
-22.29
-22.48
-21.22
-18.39
-14.24
-9.33
-4.35
0.10
3.75
6.65
9.08
11.31
13.47
15.46
17.02
17.95
18.19
17.92
17.44
17.01
16.76
16.58
16.27
15.64
14.70
13.64
12.74
12.22
12.08
12.05
11.70
10.62
8.65
5.97
3.04
0.39
-1.66
-3.14
-4.38
-5.84
-7.83
-10.41
-13.36
-16.33
-19.01
-21.15
-22.58
-23.12
-22.59
-20.83
-17.87
-13.93
-9.44
-4.90
-0.69
3.00
6.16
8.91
11.34
13.42
15.01
15.93
16.09
15.54
14.48
13.20
11.93
10.80
9.82
8.92
8.01
7.02
5.98
4.91
3.88
2.94
2.07
1.15
0.06
-1.32
-3.01
-4.88
-6.77
-8.47
-9.92
-11.18
-12.43
-13.89
-15.66
-17.76
-20.04
-22.23
-24.03
-25.17
-25.39
-24.57
-22.65
-19.69
-15.81
-11.25
-6.34
-1.40
3.25
7.42
11.03
14.09
16.61
18.51
19.66
19.94
19.42
18.30
16.97
15.77
14.92
14.42
14.14
13.85
13.39
12.71
11.80
10.72
9.50
8.12
6.54
4.76
2.78
0.74
-1.21
-2.87
-4.13
-5.01
-5.70
-6.48
-7.59
-9.17
-11.21
-13.60
-16.18
-18.81
-21.37
-23.71
-25.58
-26.68
-26.70
-25.44
-22.91
-19.31
-14.99
-10.38
-5.77
-1.38
2.71
6.45
9.80
12.62
14.74
16.01
16.42
16.11
15.39
14.63
14.13
13.99
14.12
14.27
14.19
13.76
13.04
12.20
11.45
10.84
10.26
9.48
8.36
6.92
5.37
3.97
2.85
1.93
0.93
-0.41
-2.24
-4.43
-6.70
-8.77
-10.56
-12.21
-13.98
-15.96
-17.93
-19.32
-19.44
-17.81
-14.35
-9.54
-4.14
1.04
5.48
9.01
11.77
13.95
15.64
16.79
17.28
17.04
16.16
14.90
13.59
12.52
11.81
11.37
10.95
10.26
9.11
7.49
5.60
3.73
2.13
0.84
-0.32
-1.57
-3.07
-4.77
-6.43
-7.76
-8.56
-8.87
-8.95
-9.16
-9.76
-10.86
-12.36
-14.07
-15.82
-17.50
-19.06
-20.39
-21.29
-21.42
-20.42
-17.97
-14.03
-8.87
-3.07
2.69
7.83
12.04
15.29
17.74
19.55
20.73
21.21
20.89
19.79
18.15
16.31
14.64
13.31
12.31
11.47
10.61
9.71
8.93
8.51
8.60
9.09
9.59
9.56
8.56
6.50
3.68
0.66
-2.02
-4.15
-5.91
-7.75
-10.11
-13.21
-16.90
-20.82
-24.46
-27.36
-29.15
-29.50
-28.22
-25.27
-20.82
-15.22
-8.92
-2.36
4.12
10.28
15.94
20.98
25.37
29.23
32.78
36.22
39.67
43.00
45.93
48.20
49.64
50.30
50.34
49.99
49.42
48.82
48.44
48.52
49.24
50.50
51.90
52.89
53.03
52.25
50.97
49.87
49.44
49.70
49.93
48.92
45.37
38.48
28.23
15.45
1.48
-12.32
-24.99
-36.15
-45.98
-54.96
-63.63
-72.38
-81.32
-90.17
-98.33
-104.94
-109.12
-110.24
-108.14
-103.21
-96.27
-88.30
-80.14
-72.34
-65.14
-58.56
-52.49
-46.77
-41.26
-35.84
-30.47
-25.19
-20.07
-15.21
-10.61
-6.24
-2.08
1.87
5.53
8.78
11.59
14.05
16.29
18.43
20.41
22.02
22.97
23.03
22.11
20.27
17.64
14.28
10.27
5.70
0.79
-4.13
-8.65
-12.48
-15.42
-17.45
-18.57
-18.74
-17.93
-16.16
-13.58
-10.50
-7.23
-4.04
-0.97
2.06
5.21
8.53
11.91
15.14
18.05
20.56
22.68
24.43
25.71
26.35
26.14
25.04
23.22
21.05
18.90
17.00
15.33
13.66
11.76
9.56
7.20
4.91
2.92
1.23
-0.35
-2.13
-4.31
-6.83
-9.35
-11.30
-12.12
-11.44
-9.19
-5.67
-1.36
3.20
7.57
11.47
14.72
17.21
18.73
19.03
17.89
15.35
11.76
7.86
4.59
2.76
2.76
4.48
7.36
10.78
14.25
17.60
20.88
24.13
27.20
29.69
31.13
31.23
30.03
27.91
25.38
22.85
20.36
17.66
14.43
10.46
5.86
1.01
-3.69
-7.97
-11.90
-15.65
-19.33
-22.71
-25.25
-26.34
-25.64
-23.37
-20.19
-16.97
-14.35
-12.54
-11.33
-10.44
-9.83
-9.80
-10.88
-13.45
-17.41
-22.13
-26.66
-30.05
-31.75
-31.75
-30.50
-28.62
-26.60
-24.63
-22.62
-20.38
-17.74
-14.79
-11.80
-9.13
-7.04
-5.58
-4.59
-3.76
-2.87
-1.93
-1.22
-1.20
-2.21
-4.29
-7.11
-10.05
-12.45
-13.85
-14.07
-13.16
-11.20
-8.15
-3.90
1.54
7.85
14.38
20.29
24.89
27.98
29.88
31.32
32.99
35.23
37.78
39.87
40.58
39.23
35.67
30.39
24.24
18.08
12.53
7.79
3.75
0.27
-2.71
-5.10
-6.85
-8.11
-9.25
-10.73
-12.83
-15.43
-18.05
-20.06
-21.05
-21.10
-20.78
-20.89
-22.13
-24.74
-28.46
-32.67
-36.71
-40.15
-42.84
-44.85
-46.18
-46.66
-45.91
-43.51
-39.24
-33.28
-26.16
-18.65
-11.40
-4.78
1.25
6.97
12.64
18.28
23.58
27.97
30.97
32.40
32.49
31.77
30.81
29.98
29.30
28.57
27.57
26.20
24.60
23.09
21.94
21.26
20.93
20.64
20.08
19.11
17.84
16.59
15.72
15.42
15.68
16.29
17.00
17.66
18.08
17.96
16.78
13.91
8.93
1.99
-6.07
-13.87
-20.00
-23.49
-24.11
-22.25
-18.61
-13.89
-8.54
-2.84
2.96
8.54
13.48
17.38
19.95
21.11
21.04
20.06
18.54
16.79
14.98
13.13
11.14
9.00
6.82
4.87
3.50
2.87
2.87
3.08
2.91
1.93
-0.01
-2.63
-5.45
-7.96
-9.89
-11.33
-12.64
-14.27
-16.52
-19.46
-22.90
-26.47
-29.75
-32.34
-33.94
-34.28
-33.16
-30.48
-26.30
-20.89
-14.69
-8.29
-2.26
2.97
7.17
10.32
12.57
14.12
15.14
15.68
15.68
15.09
13.91
12.31
10.60
9.04
7.82
6.93
6.20
5.45
4.60
3.68
2.78
1.93
1.00
-0.20
-1.89
-4.05
-6.50
-8.91
-11.01
-12.72
-14.22
-15.81
-17.73
-20.13
-22.95
-26.04
-29.22
-32.24
-34.79
-36.48
-36.88
-35.62
-32.58
-27.92
-22.02
-15.40
-8.61
-2.12
3.72
8.67
12.69
15.85
18.31
20.23
21.66
22.51
22.60
21.90
20.52
18.76
16.96
15.38
14.02
12.71
11.28
9.67
8.05
6.65
5.62
4.84
3.94
2.49
0.24
-2.73
-6.03
-9.17
-11.82
-13.95
-15.82
-17.82
-20.31
-23.43
-27.10
-31.04
-34.77
-37.76
-39.47
-39.52
-37.86
-34.67
-30.34
-25.26
-19.68
-13.73
-7.47
-1.02
5.32
11.20
16.22
20.09
22.67
23.94
24.04
23.24
21.96
20.71
19.98
20.11
21.17
22.95
25.00
26.82
28.03
28.47
28.22
27.54
26.76
26.11
25.70
25.48
25.32
25.07
24.63
23.91
22.84
21.30
19.11
16.10
12.20
7.58
2.68
-1.85
-5.33
-7.31
-7.67
-6.73
-5.02
-3.04
-1.07
0.89
3.00
5.40
8.03
10.63
12.83
14.38
15.20
15.44
15.35
15.07
14.59
13.78
12.52
10.83
8.92
7.18
5.90
5.20
4.89
4.58
3.85
2.53
0.70
-1.35
-3.32
-5.11
-6.82
-8.68
-10.85
-13.36
-16.03
-18.69
-21.26
-23.83
-26.61
-29.73
-33.01
-35.94
-37.78
-37.85
-35.80
-31.76
-26.30
-20.18
-14.05
-8.28
-2.89
2.26
7.25
11.94
15.96
18.89
20.52
20.91
20.45
19.63
18.74
17.74
16.29
13.96
10.50
6.09
1.25
-3.34
-7.24
-10.44
-13.34
-16.54
-20.46
-25.13
-30.18
-35.00
-39.04
-41.98
-43.88
-45.03
-45.76
-46.38
-47.08
-48.01
-49.33
-51.10
-53.12
-54.81
-55.14
-53.01
-47.66
-39.18
-28.59
-17.59
-7.88
-0.53
4.41
7.72
10.48
13.48
16.86
20.24
23.07
24.99
26.10
26.78
27.46
28.35
29.30
29.93
29.84
28.88
27.26
25.46
24.07
23.48
23.66
24.13
24.13
22.96
20.35
16.53
12.19
8.10
4.77
2.22
0.09
-2.08
-4.60
-7.42
-10.22
-12.61
-14.32
-15.31
-15.58
-15.05
-13.46
-10.42
-5.65
0.79
8.40
16.40
24.02
30.76
36.47
41.31
45.44
48.81
51.11
51.93
51.05
48.69
45.55
42.49
40.26
39.07
38.56
37.97
36.46
33.51
29.05
23.46
17.37
11.39
5.97
1.31
-2.51
-5.51
-7.63
-8.86
-9.19
-8.81
-8.18
-7.95
-8.75
-10.88
-14.04
-17.41
-19.93
-20.88
-20.23
-18.72
-17.53
-17.67
-19.52
-22.75
-26.52
-29.99
-32.52
-33.80
-33.64
-31.86
-28.27
-22.81
-15.73
-7.59
0.80
8.69
15.49
20.91
24.90
27.60
29.24
30.07
30.32
30.19
29.86
29.51
29.36
29.65
30.52
31.84
33.16
33.78
33.02
30.50
26.34
21.07
15.43
10.01
5.08
0.58
-3.71
-7.95
-12.14
-16.16
-19.90
-23.33
-26.50
-29.35
-31.63
-32.82
-32.31
-29.69
-24.97
-18.75
-11.98
-5.75
-0.94
2.00
3.04
2.49
0.85
-1.29
-3.36
-4.82
-5.23
-4.34
-2.16
0.96
4.48
7.70
10.05
11.22
11.28
10.60
9.67
8.89
8.36
7.83
6.83
4.90
1.86
-2.06
-6.37
-10.49
-14.00
-16.80
-19.09
-21.15
-23.22
-25.34
-27.34
-28.98
-29.98
-30.15
-29.36
-27.53
-24.54
-20.29
-14.78
-8.15
-0.79
6.71
13.61
19.22
23.08
25.08
25.49
24.87
23.82
22.81
22.03
21.39
20.67
19.71
18.46
17.02
15.58
14.21
12.83
11.24
9.22
6.69
3.78
0.77
-2.01
-4.38
-6.34
-8.08
-9.79
-11.52
-13.19
-14.59
-15.62
-16.36
-17.13
-18.25
-19.90
-21.91
-23.82
-24.98
-24.89
-23.35
-20.52
-16.88
-12.97
-9.19
-5.70
-2.45
0.69
3.81
6.76
9.26
11.06
12.01
12.27
12.20
12.13
12.22
12.37
12.31
11.85
11.02
10.14
9.57
9.52
9.88
10.24
10.14
9.31
7.84
6.12
4.53
3.31
2.40
1.52
0.37
-1.16
-2.98
-4.83
-6.50
-7.96
-9.32
-10.76
-12.33
-13.82
-14.85
-14.97
-13.86
-11.49
-8.10
-4.14
-0.04
3.88
7.50
10.82
13.87
16.55
18.62
19.79
19.90
19.02
17.56
16.09
15.14
14.91
15.27
15.79
16.02
15.79
15.21
14.61
14.29
14.30
14.39
14.16
13.27
11.66
9.51
7.13
4.78
2.47
0.02
-2.80
-6.10
-9.72
-13.29
-16.45
-18.97
-20.85
-22.21
-23.15
-23.58
-23.22
-21.74
-18.97
-15.05
-10.38
-5.55
-1.07
2.75
5.89
8.44
10.51
12.09
13.06
13.25
12.61
11.31
9.67
8.08
6.83
5.98
5.40
4.85
4.13
3.21
2.20
1.32
0.68
0.27
-0.15
-0.90
-2.23
-4.22
-6.63
-9.05
-11.03
-12.34
-13.01
-13.40
-14.02
-15.25
-17.15
-19.47
-21.73
-23.37
-24.01
-23.52
-21.93
-19.35
-15.91
-11.69
-6.82
-1.53
3.84
8.87
13.19
16.64
19.25
21.20
22.66
23.69
24.16
23.84
22.56
20.35
17.46
14.27
11.14
8.28
5.70
3.35
1.20
-0.70
-2.23
-3.27
-3.89
-4.31
-4.86
-5.80
-7.20
-8.94
-10.70
-12.18
-13.23
-13.93
-14.55
-15.46
-16.90
-18.87
-21.08
-23.04
-24.24
-24.43
-23.64
