1587312370.00
64.000000
-0.00
-0.00
-0.00
-0.00
-0.00
-0.00
-0.00
-0.00
-0.00
-0.00
0.00
0.01
0.01
-0.00
-0.03
-0.05
-0.05
0.00
0.13
0.36
0.66
1.01
1.37
1.72
2.06
2.40
2.79
3.24
3.80
4.42
5.06
5.66
6.20
6.68
7.15
7.68
8.31
9.14
10.09
11.04
11.88
12.56
13.14
13.76
14.65
15.96
17.91
20.32
22.90
25.38
27.58
29.57
31.68
34.32
37.81
42.54
48.15
54.10
59.83
64.97
69.58
74.14
79.34
85.71
93.76
103.00
112.62
121.73
129.77
136.75
143.30
150.75
157.77
166.64
177.95
191.79
206.97
220.57
228.25
225.36
208.53
176.87
132.76
80.05
23.07
-34.94
-92.44
-149.16
-205.23
-260.37
-313.74
-363.87
-409.83
-450.91
-486.50
-515.74
-537.23
-549.22
-549.96
-538.37
-514.21
-478.67
-433.88
-382.45
-327.02
-269.84
-212.63
-156.66
-102.95
-52.37
-5.90
35.58
71.43
101.35
125.50
144.38
158.69
169.15
176.37
180.75
182.57
182.07
179.51
175.23
169.65
163.18
156.15
148.81
141.30
133.69
126.02
118.33
110.69
103.16
95.80
88.68
81.83
75.25
68.95
62.95
57.25
51.86
46.78
42.03
37.59
33.45
29.61
26.07
22.81
19.83
17.11
14.67
12.48
10.54
8.83
7.35
6.07
4.97
4.05
3.27
2.62
2.09
1.65
1.30
1.01
0.79
0.61
0.48
0.37
0.29
0.22
0.18
0.14
0.11
0.09
0.08
0.07
0.06
0.05
0.05
0.04
0.04
0.04
0.03
0.03
0.03
0.03
0.03
0.03
0.03
0.02
0.02
0.02
0.02
0.02
0.02
0.02
0.02
0.02
0.02
0.02
0.03
0.03
0.04
0.06
0.07
0.09
0.12
0.15
0.17
0.21
0.24
0.28
0.32
0.36
0.40
0.45
0.49
0.54
0.59
0.65
0.71
0.78
0.85
0.93
1.01
1.11
1.21
1.33
1.46
1.61
1.77
1.95
2.15
2.37
2.62
2.88
3.18
3.51
3.86
4.24
4.66
5.11
5.60
6.12
6.69
7.28
7.92
8.61
9.33
10.09
10.90
11.74
12.64
13.60
14.61
15.68
16.79
17.92
19.04
20.08
20.98
21.67
22.02
21.96
21.40
20.29
18.60
16.37
13.65
10.51
7.10
3.58
0.07
-3.26
-6.29
-8.92
-11.09
-12.77
-13.94
-14.62
-14.89
-14.79
-14.40
-13.74
-12.89
-11.86
-10.68
-9.33
-7.79
-6.11
-4.33
-2.45
-0.52
1.42
3.36
5.32
7.35
9.56
11.87
14.26
16.72
19.23
21.77
24.35
27.02
29.91
33.25
36.85
40.67
44.65
48.75
52.90
57.09
61.38
66.00
71.29
77.00
83.04
89.25
95.44
101.39
106.95
112.12
117.17
122.62
128.14
133.53
138.40
142.10
143.77
142.40
136.83
125.35
111.87
97.60
83.22
68.84
54.11
38.47
21.48
3.17
-15.88
-34.61
-52.74
-69.99
-86.44
-102.57
-119.13
-137.00
-157.09
-179.94
-205.27
-232.10
-257.69
-278.10
-289.36
-288.90
-276.62
-254.99
-228.07
-199.98
-174.03
-151.65
-132.79
-116.84
-103.34
-92.18
-83.40
-76.79
-71.72
-67.54
-63.66
-59.83
-56.23
-53.35
-51.69
-51.54
-52.85
-55.27
-58.44
-62.08
-66.19
-70.83
-75.91
-80.83
-84.30
-84.60
-80.11
-69.92
-54.27
-34.63
-13.19
7.78
26.49
41.96
53.88
62.43
67.92
70.78
71.52
70.77
69.27
67.73
66.67
66.32
66.69
67.61
68.90
70.38
71.82
72.91
73.25
72.50
70.46
67.25
63.15
58.54
53.80
49.13
44.60
40.24
36.00
31.81
27.56
23.12
18.41
13.43
8.24
2.92
-2.51
-8.20
-14.39
-21.29
-28.93
-36.98
-44.59
-50.56
-53.44
-51.97
-45.47
-34.04
-18.68
-0.97
17.25
34.44
49.56
62.21
72.39
80.32
86.20
90.14
92.23
92.70
91.93
90.41
88.57
86.57
84.28
81.37
77.58
72.86
67.51
62.00
56.66
51.64
47.00
42.67
38.52
34.44
30.39
26.36
22.24
17.72
12.55
6.79
0.76
-5.07
-10.36
-15.00
-19.23
-23.58
-29.02
-36.17
-45.05
-55.19
-65.91
-76.51
-86.14
-93.67
-97.84
-98.46
-95.32
-88.19
-77.34
-64.00
-50.02
-37.09
-26.12
-17.31
-12.33
-11.78
-14.48
-18.33
-21.81
-24.46
-26.29
-27.46
-28.13
-31.58
-39.48
-50.41
-61.32
-70.22
-76.99
-82.75
-89.11
-97.74
-114.07
-140.61
-174.67
-210.05
-240.83
-263.21
-275.64
-278.58
-248.37
-180.55
-93.57
-14.16
42.80
76.91
94.24
101.17
102.22
100.01
91.97
77.20
58.73
41.38
28.51
20.75
16.99
15.76
15.96
13.85
7.51
-1.08
-8.73
-13.33
-14.99
-15.15
-15.38
-16.88
-22.18
-32.27
-45.86
-60.69
-74.65
-87.01
-97.82
-107.27
-115.37
-122.77
-129.18
-132.78
-134.56
-134.34
-132.38
-129.19
-125.27
-121.01
-116.98
-113.44
-110.23
-107.16
-103.69
-99.70
-95.29
-90.65
-85.98
-81.41
-77.02
-72.86
-69.03
-65.19
-61.19
-56.93
-52.36
-47.47
-42.22
-36.53
-30.31
-23.54
-16.06
-7.95
0.52
8.97
17.04
24.48
31.27
37.59
43.69
49.90
56.32
62.81
69.10
74.95
80.36
85.63
91.31
97.98
106.06
115.58
126.12
137.04
147.69
157.68
166.99
175.89
184.95
194.94
206.75
221.11
238.09
256.54
273.88
286.58
291.19
285.69
270.36
247.69
221.34
194.75
170.02
147.68
127.19
107.80
89.05
70.85
53.13
35.72
18.49
1.81
-13.11
-24.38
-30.05
-28.92
-21.24
-8.68
6.22
20.88
33.50
43.31
50.43
55.44
58.95
61.38
63.02
64.01
64.43
64.18
63.05
60.80
57.45
53.38
49.37
46.24
44.52
44.16
44.60
45.08
45.00
44.15
42.66
40.77
38.68
36.33
33.50
29.88
25.24
19.51
12.84
5.61
-1.70
-8.55
-14.59
-19.70
-24.13
-28.37
-33.06
-38.75
-45.69
-53.52
-61.26
-67.22
-69.44
-66.22
-56.78
-41.72
-22.90
-2.91
15.84
31.81
44.63
54.76
62.90
69.42
74.23
76.89
77.16
75.20
71.74
67.87
64.84
63.68
64.92
68.49
73.62
79.03
83.45
86.32
88.03
89.74
92.77
97.99
105.53
114.65
123.96
131.90
136.98
138.17
135.14
128.31
118.75
107.86
95.85
80.87
59.37
27.74
-15.09
-65.75
-116.37
-156.52
-175.65
-167.58
-132.69
-77.59
-12.79
50.64
103.88
142.14
165.64
180.33
192.89
207.32
223.15
236.36
241.95
236.53
219.72
195.16
171.22
154.19
145.37
141.03
135.53
125.01
108.63
87.56
65.11
47.97
39.75
39.71
43.91
48.78
54.00
62.10
75.82
71.22
35.00
-31.04
-110.80
-186.81
-249.18
-295.13
-321.15
-333.93
-338.11
-333.13
-319.36
-299.18
-276.87
-257.39
-242.66
-232.81
-227.95
-226.96
-225.41
-219.01
-203.68
-177.22
-140.49
-97.87
-56.38
-24.04
-4.19
5.23
6.92
3.48
-4.03
-15.98
-33.27
-56.69
-85.11
-115.55
-143.69
-166.73
-182.43
-189.60
-188.33
-180.37
-169.22
-159.55
-155.14
-149.14
-136.11
-112.10
-76.96
-34.58
8.53
46.17
74.41
93.30
105.83
114.11
119.29
121.18
118.84
111.51
99.59
83.44
63.87
41.46
14.78
-17.95
-58.27
-101.56
-141.96
-172.69
-188.56
-185.51
-162.02
-121.66
-72.84
-26.94
5.05
15.27
1.59
-33.36
-80.93
-129.25
-167.48
-188.07
-187.48
-166.01
-127.48
-69.94
-4.01
53.16
88.90
101.96
99.13
88.12
73.36
56.46
38.05
19.74
6.15
2.14
10.05
27.50
47.21
58.84
53.84
28.15
-15.00
-65.90
-112.24
-143.44
-153.11
-136.93
-96.83
-39.38
25.61
89.41
145.44
189.64
212.67
210.15
186.27
149.77
115.09
80.27
42.03
0.71
-41.97
-79.22
-102.01
-105.17
-91.52
-70.40
-53.97
-48.98
-55.17
-66.80
-75.65
-73.06
-55.36
-25.64
8.35
37.70
58.00
69.29
74.36
77.12
83.42
97.37
119.66
148.03
178.89
210.19
241.00
269.31
278.20
254.53
196.66
117.59
36.70
-30.85
-77.72
-103.18
-110.99
-107.40
-94.57
-73.07
-43.87
-9.59
25.99
53.73
67.37
63.99
44.72
15.91
-14.89
-42.01
-63.26
-79.42
-92.58
-103.90
-114.23
-124.06
-132.86
-139.29
-142.36
-141.88
-138.28
-132.36
-124.64
-116.18
-108.36
-101.76
-96.32
-91.63
-87.21
-82.58
-78.05
-73.59
-69.43
-65.62
-61.56
-56.17
-48.30
-37.02
-21.22
0.07
27.61
61.10
98.97
138.37
175.65
207.10
230.06
244.73
253.45
258.78
261.01
257.37
243.13
214.07
168.75
109.98
45.75
-13.33
-57.45
-80.74
-82.08
-64.12
-31.74
8.77
45.77
66.98
65.20
42.42
6.70
-33.80
-73.69
-109.53
-138.71
-161.42
-176.65
-183.46
-182.15
-174.89
-164.94
-154.90
-144.11
-131.21
-114.95
-94.13
-68.83
-40.63
-12.47
12.68
33.35
50.95
67.49
83.90
99.84
113.94
124.72
131.14
133.19
132.16
131.68
135.02
143.69
157.26
173.63
189.69
201.45
204.92
188.58
148.21
89.96
28.19
-23.05
-56.96
-74.27
-80.13
-80.06
-77.58
-72.42
-63.49
-50.91
-36.74
-23.85
-14.26
-9.34
-8.83
-11.08
-12.72
-11.21
-6.30
0.30
6.09
9.22
7.52
0.76
-9.00
-17.42
-20.52
-16.55
-6.53
6.83
20.21
28.35
28.21
20.18
8.05
-3.96
-13.76
-22.40
-33.48
-48.53
-72.12
-106.55
-150.55
-200.01
-250.82
-300.37
-347.09
-388.25
-401.53
-372.51
-303.50
-213.16
-123.26
-47.62
9.85
49.92
78.89
98.51
103.68
89.12
53.87
2.85
-55.40
-110.17
-152.17
-175.53
-179.32
-168.35
-148.36
-122.69
-91.92
-55.91
-15.94
24.54
60.91
88.41
102.54
101.41
87.73
68.29
52.20
48.27
61.78
91.81
129.80
161.73
174.88
165.97
142.76
120.46
113.64
128.66
160.78
196.44
220.18
222.31
204.94
178.08
153.33
137.73
131.80
131.40
130.80
125.69
114.69
102.11
93.69
93.69
103.02
120.01
142.24
167.53
194.21
205.09
188.36
143.78
83.21
19.83
-39.57
-93.82
-143.48
-188.21
-226.10
-252.04
-263.52
-260.52
-247.29
-230.43
-215.82
-206.80
-203.49
-203.29
-200.27
-189.20
-167.82
-137.26
-101.78
-66.28
-34.87
-10.21
6.76
17.71
24.89
29.91
32.89
34.09
33.58
31.31
27.09
21.19
15.13
11.08
11.20
16.91
30.32
51.92
79.95
110.54
139.62
164.37
183.91
198.91
210.59
221.93
234.20
246.18
254.67
256.84
251.05
237.17
215.61
174.84
113.30
39.97
-30.59
-87.57
-126.66
-150.75
-164.72
-172.08
-175.77
-176.65
-176.55
-175.34
-174.60
-174.95
-176.23
-177.14
-176.59
-174.40
-169.72
-162.73
-154.21
-145.60
-138.04
-133.17
-131.75
-133.86
-138.41
-142.39
-142.46
-135.71
-120.99
-98.87
-72.39
-44.55
-17.84
6.45
28.15
44.86
53.46
52.68
49.75
48.37
50.75
55.68
62.73
71.22
80.13
88.82
97.07
105.00
112.07
118.60
125.26
133.01
142.10
151.89
161.16
168.06
170.29
165.05
151.14
129.34
102.53
74.44
48.59
27.45
11.66
-0.01
-10.38
-21.91
-35.72
-51.02
-65.65
-76.80
-81.74
-78.69
-67.32
-49.14
-26.89
-4.10
15.65
29.38
35.44
33.91
26.40
15.38
3.35
-7.68
-16.52
-22.73
-26.51
-28.46
-29.39
-30.13
-31.28
-33.03
-34.97
-36.27
-36.03
-33.69
-29.19
-22.82
-14.74
-4.54
8.72
26.08
47.76
72.33
96.52
115.88
126.13
124.59
111.11
88.10
59.73
30.80
5.71
-12.18
-20.78
-19.33
-8.57
9.28
30.79
52.03
69.61
81.46
87.19
87.43
83.00
74.03
59.87
39.68
13.32
-18.10
-52.25
-86.32
-117.78
-144.91
-166.82
-183.21
-194.03
-199.41
-199.89
-196.43
-190.27
-182.41
-173.21
-162.46
-149.55
-134.02
-115.97
-96.08
-75.43
-54.95
-35.15
-16.21
1.49
17.20
30.06
39.53
45.68
49.10
50.40
49.75
46.55
39.69
28.58
14.30
-0.21
-11.17
-15.50
-12.06
-1.69
13.30
30.19
46.75
61.63
73.81
81.58
82.21
72.34
50.82
21.43
-8.09
-30.18
-40.65
-39.41
-29.60
-15.89
-2.58
7.71
13.91
15.96
14.28
9.55
2.68
-5.25
-13.12
-20.51
-26.78
-31.96
-36.28
-39.68
-41.42
-40.15
-34.27
-22.54
-4.55
18.35
42.69
64.20
79.36
86.86
88.25
87.71
90.50
98.80
112.31
126.46
134.04
128.25
105.66
67.75
20.47
-29.12
-69.86
-92.92
-97.34
-89.05
-75.24
-60.22
-45.07
-29.59
-14.17
-0.24
9.86
14.14
12.72
7.96
3.29
1.40
3.34
8.45
15.02
20.68
23.54
23.23
21.03
18.96
18.67
20.83
25.04
30.35
35.35
38.94
40.93
42.01
43.20
45.27
48.38
52.12
55.67
57.93
57.91
55.09
49.42
41.22
30.92
18.97
5.82
-7.32
-20.11
-32.03
-42.48
-51.01
-57.31
-61.40
-63.56
-64.20
-63.83
-62.97
-61.91
-60.74
-59.36
-57.66
-55.59
-53.32
-51.30
-50.15
-50.41
-51.91
-53.62
-54.12
-52.17
-47.58
-41.54
-36.13
-33.66
-35.50
-41.66
-50.73
-60.31
-67.55
-69.42
-63.63
-48.23
-23.73
6.50
36.57
59.66
70.34
66.60
50.47
26.95
2.22
-18.65
-32.60
-38.68
-37.52
-30.91
-21.24
-11.22
-3.23
1.63
3.78
5.03
7.32
11.37
15.75
17.74
14.48
4.45
-11.65
-31.08
-50.07
-64.88
-72.65
-71.80
-62.11
-44.75
-22.06
2.91
26.95
47.40
62.53
71.77
75.43
74.55
70.60
65.20
59.66
54.24
48.10
39.83
28.45
14.54
0.46
-10.55
-16.02
-15.69
-11.77
-7.81
-6.80
-9.72
-15.32
-21.20
-25.25
-26.87
-26.99
-27.12
-28.29
-30.77
-34.42
-39.39
-46.36
-55.90
-68.17
-82.30
-96.62
-109.21
-118.72
-124.64
-127.23
-127.13
-124.59
-120.04
-114.09
-107.63
-101.44
-95.85
-90.40
-83.79
-77.01
-70.11
-63.15
-56.19
-49.04
-41.17
-31.73
-19.74
-4.38
14.59
37.02
61.56
85.87
107.05
122.59
131.25
133.60
131.63
127.63
123.22
118.08
110.24
97.25
77.76
52.54
24.56
-2.09
-23.58
-37.30
-42.56
-40.45
-33.16
-23.33
-13.27
-4.31
3.58
11.82
22.78
38.81
61.24
89.90
123.06
157.93
191.34
220.50
243.54
260.15
271.57
280.05
287.60
294.39
297.94
293.49
276.04
243.07
196.57
142.93
90.90
48.47
20.26
6.72
5.10
11.38
22.03
34.65
47.75
60.28
71.37
80.39
86.97
90.79
91.03
86.12
73.83
52.19
20.52
-19.93
-66.08
-114.11
-160.66
-203.67
-242.32
-276.70
-307.32
-335.06
-361.02
-385.90
-409.13
-428.21
-439.11
-437.84
-422.48
-394.63
-359.04
-321.86
-288.09
-260.02
-236.97
-216.56
-196.33
-174.67
-151.16
-125.73
-98.43
-69.35
-39.31
-9.87
16.90
38.93
55.22
66.06
73.23
79.21
86.29
95.59
106.83
118.64
129.22
137.44
142.75
145.78
147.94
150.96
156.39
165.17
177.15
190.89
204.51
215.03
220.98
222.71
222.54
223.75
228.99
239.06
252.47
267.32
279.50
286.97
289.23
287.12
281.77
273.99
264.32
253.12
242.30
230.30
216.97
202.01
185.44
167.05
146.65
124.48
101.61
81.68
64.13
50.17
40.14
33.93
29.95
25.86
20.12
0.46
-14.81
-25.48
-29.57
-26.71
-17.58
-5.20
5.86
10.78
5.70
-9.62
-37.48
-75.23
-122.19
-168.87
-202.35
-214.19
-205.58
-185.27
-161.47
-141.22
-124.31
-106.69
-84.08
-56.22
-26.99
-1.66
16.46
28.79
37.60
47.00
59.59
75.33
90.40
99.09
97.08
83.90
63.55
41.08
21.55
7.76
0.22
-2.74
-3.75
-5.00
-7.54
-11.17
-15.68
-20.60
-25.63
-30.58
-35.69
-41.76
-50.09
-62.49
-80.32
-103.93
-131.49
-158.43
-178.09
-183.25
-168.75
-133.63
-81.88
-21.85
35.73
80.33
104.02
103.27
79.81
40.29
-5.39
-46.60
-74.94
-86.44
-82.37
-68.18
-51.21
-38.07
-32.95
-37.14
-49.78
-69.05
-92.91
-119.15
-144.97
-167.26
-182.71
-189.06
-186.04
-175.61
-161.56
-147.99
-137.66
-131.20
-127.36
-124.18
-120.65
-117.32
-115.94
-118.05
-123.51
-130.13
-134.44
-133.30
-125.32
-111.50
-94.70
-78.07
-63.74
-51.97
-41.29
-29.35
-14.24
4.57
25.53
45.23
59.30
63.90
57.19
40.31
17.09
-7.14
-27.37
-40.41
-45.40
-43.44
-36.62
-26.83
-15.36
-2.74
10.79
24.83
38.55
50.64
59.65
64.33
64.21
59.72
52.03
42.46
31.72
19.46
4.62
-13.70
-35.11
-57.31
-76.60
-89.11
-92.48
-86.76
-74.31
-58.66
-43.05
-29.39
-18.00
-8.19
0.85
9.53
17.80
25.50
32.85
40.47
49.11
59.18
70.43
81.93
92.59
101.55
108.57
113.82
117.38
118.76
116.82
110.12
97.78
80.23
59.47
38.56
20.46
6.99
-1.90
-7.89
-13.47
-20.93
-31.57
-45.53
-62.01
-79.64
-96.77
-111.50
-121.76
-125.73
-122.39
-112.12
-96.85
-79.56
-63.39
-50.63
-42.33
-38.21
-37.22
-38.11
-39.78
-41.52
-42.93
-43.96
-44.78
-45.70
-46.81
-47.74
-47.62
-45.50
-41.01
-34.78
-28.29
-23.05
-19.74
-17.52
-14.22
-7.18
5.54
24.34
47.84
73.36
97.78
118.40
133.38
141.85
143.75
139.65
130.65
118.28
104.32
90.52
78.16
67.71
58.96
51.35
44.66
39.32
36.26
36.44
40.13
46.55
54.12
61.15
66.54
70.17
72.62
74.61
76.42
77.66
77.53
75.25
70.45
63.27
54.27
44.10
33.45
22.95
13.07
4.02
-4.44
-13.04
-22.72
-34.23
-47.75
-62.73
-78.17
-92.97
-106.29
-117.76
-127.31
-135.07
-141.34
-146.65
-151.85
-157.92
-165.71
-175.50
-186.68
-197.51
-205.30
-206.82
-199.03
-179.89
-149.00
-107.88
-59.69
-8.49
41.74
87.90
128.19
162.07
190.12
213.76
235.11
256.62
280.14
305.83
331.11
350.90
358.81
349.63
321.63
277.68
224.44
169.95
120.91
80.86
50.21
27.05
8.64
-7.86
-24.97
-44.62
-67.76
-93.75
-120.35
-144.19
-162.06
-171.97
-173.44
-167.17
-154.60
-137.82
-119.54
-102.92
-90.20
-82.18
-77.69
-73.67
-66.51
-53.91
-36.58
-18.17
-3.70
4.00
4.35
-0.88
-8.33
-13.81
-13.16
-3.23
17.91
50.77
96.31
153.35
217.48
281.21
335.58
372.46
387.05
379.88
357.01
330.80
312.73
308.38
315.31
325.12
327.96
317.37
293.00
246.92
183.36
115.49
58.71
21.60
3.52
-0.89
3.43
14.94
31.38
52.09
74.22
92.75
102.37
100.19
86.23
63.07
34.71
4.26
-24.90
-51.72
-77.41
-103.94
-132.26
-162.08
-192.00
-220.25
-245.58
-266.20
-281.71
-293.76
-305.91
-322.65
-348.98
-387.68
-436.78
-488.87
-531.97
-554.43
-549.57
-517.74
-465.25
-402.72
-339.98
-283.13
-234.32
-193.44
-160.51
-135.88
-118.27
-103.35
-87.46
-68.96
-50.48
-38.44
-40.67
-62.53
-103.74
-157.07
-195.30
-193.93
-141.93
-49.31
60.30
164.53
251.43
318.84
369.87
408.06
433.04
443.36
438.85
423.77
404.06
386.20
374.73
371.43
375.04
380.54
382.36
376.63
362.74
342.71
319.58
294.98
270.50
245.97
219.24
188.01
151.14
109.56
65.81
23.07
-15.97
-49.57
-77.01
-98.64
-115.05
-126.67
-133.41
-135.02
-131.48
-123.25
-111.21
-96.52
-80.40
-63.90
-47.92
-33.17
-20.43
-10.39
-3.63
-0.22
0.40
-0.75
-2.56
-4.42
-6.60
-10.19
-16.70
-27.42
-42.68
-61.80
-83.41
-106.13
-129.24
-153.16
-179.34
-209.90
-247.36
-294.20
-352.44
-422.45
-501.74
-584.08
-660.28
-720.53
-757.49
-769.06
-758.67
-733.65
-701.93
-669.23
-637.98
-608.28
-579.65
-552.45
-528.05
-507.89
-492.41
-480.52
-470.18
-459.45
-447.29
-433.61
-418.92
-403.44
-386.42
-366.02
-339.76
-305.32
-261.37
-208.19
-147.51
-82.08
-14.78
52.07
117.08
179.69
239.69
296.76
350.07
398.50
440.86
476.38
505.15
528.23
547.26
564.13
580.63
598.15
617.15
637.06
656.02
671.16
679.37
678.17
666.47
645.00
615.67
580.99
543.44
504.71
465.92
427.52
389.46
351.39
313.02
274.44
236.76
201.97
172.30
149.50
133.93
124.48
119.15
115.68
111.90
105.98
96.15
80.89
59.64
33.55
5.47
-20.43
-40.04
-51.04
-53.36
-48.97
-40.92
-31.79
-23.23
-16.12
-10.67
-7.22
-6.14
-7.60
-11.32
-16.42
-21.35
-24.52
-24.69
-21.15
-13.81
-3.12
10.02
24.35
38.62
52.06
64.35
75.14
84.26
91.42
96.50
99.74
101.20
100.89
98.71
93.95
85.58
73.00
56.92
39.77
24.95
15.22
12.28
16.81
27.78
42.18
55.95
65.55
69.76
69.58
67.45
66.80
72.71
87.84
110.43
134.62
152.86
160.76
156.93
142.37
120.56
98.70
81.82
70.25
59.75
44.29
21.76
-7.66
-41.66
-74.97
-95.71
-92.63
-60.62
-3.85
64.75
130.06
176.05
190.80
147.50
45.00
-87.63
-206.73
-274.79
-301.37
-306.41
-306.86
-313.02
-327.32
-343.01
-352.50
-351.42
-338.97
-316.20
-282.74
-240.94
-198.06
-163.69
-142.86
-136.41
-140.92
-152.25
-160.34
-153.57
-129.19
-96.08
-66.12
-43.79
-26.49
-9.22
10.32
33.52
54.85
70.00
77.83
81.45
86.76
97.86
114.41
132.29
146.97
149.97
141.07
125.17
110.45
104.67
111.22
128.01
149.32
169.49
184.94
196.72
207.36
218.76
229.73
235.44
228.93
204.41
159.82
97.01
22.60
-54.80
-125.86
-182.21
-218.51
-232.61
-225.70
-201.85
-167.86
-131.05
-98.12
-73.22
-57.42
-50.98
-52.58
-59.56
-68.23
-75.25
-78.31
-77.02
-72.41
-66.34
-63.75
-68.89
-83.19
-104.02
-126.31
-144.61
-155.26
-156.97
-150.95
-144.29
-144.75
-157.91
-185.27
-225.83
-277.74
-338.88
-405.60
-449.69
-447.36
-391.55
-298.93
-196.80
-107.69
-43.04
-4.40
13.67
19.67
17.15
8.00
-7.50
-27.65
-50.72
-71.94
-86.30
-90.02
-80.92
-61.98
-35.78
-5.92
23.79
49.04
65.91
71.95
68.16
59.53
47.39
40.71
48.44
76.35
124.63
188.58
260.50
331.99
395.61
444.59
479.21
501.32
512.87
515.98
513.95
511.14
511.27
515.65
495.76
435.58
336.66
216.36
95.61
-10.99
-97.20
-162.30
-208.67
-239.42
-255.22
-255.88
-242.75
-219.19
-189.09
-155.23
-119.02
-80.66
-41.16
1.30
46.85
92.00
130.29
154.87
161.21
148.68
120.33
82.05
42.94
10.66
-11.29
-23.84
-30.98
-37.67
-48.37
-66.62
-94.60
-132.08
-177.87
-229.79
-284.32
-336.10
-378.55
-405.10
-411.37
-396.42
-362.71
-315.47
-261.04
-205.38
-152.67
-104.85
-61.85
-22.47
14.59
50.04
83.73
115.68
146.53
177.56
209.63
241.23
266.91
278.77
270.00
239.25
193.14
144.02
104.66
82.41
76.08
77.85
78.41
72.62
61.49
50.48
45.10
47.50
55.23
63.40
67.83
67.48
64.72
63.26
65.84
72.27
79.65
83.84
81.59
72.20
57.80
42.03
27.70
15.62
3.73
-11.34
-32.83
-62.10
-97.72
-135.89
-171.38
-199.36
-216.62
-222.48
-218.68
-208.50
-195.33
-181.50
-167.66
-153.04
-136.29
-115.97
-91.28
-61.80
-27.57
10.84
52.08
93.74
133.04
167.15
194.06
212.74
222.62
223.57
215.37
198.72
175.78
150.11
125.77
105.45
89.28
74.64
57.72
35.61
7.96
-22.67
-52.32
-77.46
-96.33
-109.49
-118.90
-126.77
-134.81
-143.37
-151.91
-159.20
-163.89
-164.81
-161.25
-153.39
-141.81
-127.75
-112.65
-97.41
-82.67
-68.47
-54.75
-41.92
-30.65
-21.75
-15.50
-11.37
-8.03
-3.90
2.21
10.95
22.01
34.82
48.75
62.95
76.28
87.40
95.23
99.68
102.14
105.33
111.99
124.03
141.39
162.32
184.00
203.34
218.08
227.15
230.90
230.92
229.32
227.64
226.12
223.05
215.52
200.69
177.33
146.73
112.31
78.29
47.88
22.64
2.42
-13.97
-27.50
-38.94
-49.02
-58.97
-70.40
-85.41
-105.52
-130.93
-160.73
-192.82
-225.01
-255.63
-283.66
-308.79
-331.16
-350.92
-368.01
-381.83
-390.97
-393.64
-388.09
-373.63
-351.50
-324.94
-298.33
-275.47
-258.19
-245.39
-234.24
-221.85
-206.68
-189.79
-174.12
-162.96
-158.13
-159.06
-162.70
-164.92
-161.86
-150.53
-129.42
-98.54
-59.38
-15.15
29.64
70.03
101.64
123.13
136.98
148.33
162.52
182.05
205.39
227.74
243.66
249.34
244.87
234.24
222.91
215.16
212.04
211.14
207.95
197.99
177.88
147.83
113.31
83.38
67.43
69.76
86.67
107.01
123.31
130.68
126.70
111.15
84.23
47.35
3.95
-38.43
-68.55
-78.05
-68.58
-51.04
-38.70
-40.63
-58.67
-88.01
-120.95
-150.06
-170.37
-180.44
-180.69
-172.35
-157.36
-140.19
-123.57
-110.93
-105.15
-107.11
-115.78
-128.25
-140.80
-150.14
-154.54
-153.69
-149.03
-142.83
-136.69
-131.08
-124.44
-115.63
-102.14
-81.79
-53.66
-19.00
19.38
59.03
97.67
133.83
166.74
196.33
222.32
243.72
258.42
263.99
260.69
249.76
233.38
213.97
194.24
176.94
164.40
158.10
158.17
166.23
181.11
198.99
214.37
223.15
225.22
224.87
228.75
242.46
271.73
315.83
368.41
419.98
462.81
494.27
516.58
533.77
521.73
465.61
363.30
229.01
84.94
-48.95
-160.60
-246.15
-308.12
-352.35
-379.53
-392.15
-391.23
-378.61
-357.71
-333.00
-309.54
-291.97
-283.65
-282.64
-286.72
-292.86
-298.99
-303.95
-306.64
-305.73
-300.07
-289.27
-271.99
-248.65
-220.84
-191.35
-162.78
-136.33
-111.82
-88.46
-65.72
-42.75
-19.64
3.18
24.82
44.39
61.26
75.02
85.27
91.73
94.85
95.39
94.51
93.04
91.14
88.36
83.87
77.07
68.09
57.78
47.20
37.10
27.33
16.92
4.70
-9.97
-26.68
-43.97
-59.81
-72.19
-79.57
-81.17
-77.14
-68.40
-56.53
-43.23
-29.54
-15.46
-0.13
17.47
37.43
58.41
78.09
94.01
104.80
110.55
112.52
112.14
110.20
106.67
101.09
93.51
84.61
75.65
67.94
62.42
59.30
58.04
57.45
56.10
53.34
49.03
43.75
38.79
35.65
35.34
37.83
41.79
45.16
47.36
48.74
50.89
56.15
66.56
82.84
103.82
126.77
148.33
167.84
185.67
202.89
220.32
237.44
252.67
264.20
271.13
274.17
277.60
284.18
293.21
300.31
300.26
290.91
275.90
263.46
245.46
216.40
170.10
102.92
17.25
-77.47
-167.43
-239.52
-286.58
-309.83
-314.39
-307.89
-296.26
-281.80
-264.24
-243.12
-219.60
-196.69
-177.76
-163.23
-151.96
-141.46
-129.06
-112.94
-93.11
-71.65
-52.00
-38.12
-31.65
-32.75
-39.94
-50.79
-62.62
-73.24
-81.83
-89.11
-96.25
-103.53
-110.67
-116.72
-120.15
-119.19
-112.40
-99.99
-84.19
-68.31
-55.98
-50.76
-54.72
-67.15
-84.12
-99.58
-104.93
-95.36
-70.04
-32.45
10.25
49.46
77.75
90.86
88.39
71.66
43.35
9.12
-21.42
-38.69
-38.48
-23.22
-2.35
21.43
46.55
70.10
88.12
95.93
88.53
62.55
17.24
-43.27
-109.30
-168.71
-209.73
-223.99
-209.09
-169.73
-116.28
-61.25
-14.76
18.71
39.38
50.82
57.05
60.12
59.49
53.91
43.73
31.85
23.34
22.03
29.17
43.47
62.20
82.37
101.99
119.41
132.96
140.29
138.68
126.59
104.56
74.99
41.27
6.59
-26.76
-55.79
-77.68
-90.00
-90.94
-80.61
-61.83
-40.12
-22.39
-14.62
-20.06
-38.67
-67.38
-98.62
-123.20
-133.20
-125.85
-104.41
-75.45
-45.08
-17.09
7.13
27.99
45.64
59.47
68.15
71.03
69.03
64.54
60.20
58.12
59.23
62.87
67.39
70.54
71.32
70.16
68.56
67.98
69.19
71.87
74.60
75.80
73.24
66.39
56.23
44.65
33.52
24.01
16.22
9.31
2.03
-7.11
-18.17
-30.15
-41.79
-52.08
-60.84
-68.80
-77.26
-84.68
-93.25
-104.93
-120.48
-138.68
-155.59
-165.01
-160.70
-139.14
-102.03
-56.93
-13.85
18.50
35.63
38.52
32.08
22.18
13.44
8.30
7.20
9.07
12.95
16.43
15.81
7.65
-9.14
-31.49
-53.23
-66.13
-65.38
-50.86
-26.92
-0.15
23.68
40.94
50.52
52.47
47.26
36.55
23.99
14.37
11.76
17.20
27.83
38.09
42.47
38.20
26.40
11.11
-3.63
-15.86
-26.01
-35.53
-45.00
-53.27
-58.26
-58.71
-55.58
-51.96
-51.37
-55.98
-65.45
-77.40
-88.80
-97.56
-103.20
-106.67
-109.12
-110.97
-111.54
-109.33
-102.89
-91.52
-75.32
-55.00
-31.59
-6.21
19.95
45.32
68.16
87.08
101.51
112.11
120.36
127.59
134.07
138.64
139.07
133.40
121.19
103.90
84.61
66.52
51.55
39.61
29.01
17.80
5.26
-7.47
-18.01
-23.96
-24.36
-20.18
-13.88
-8.26
-5.11
-4.87
-6.93
-10.56
-15.35
-21.34
-28.40
-35.69
-41.90
-45.90
-47.67
-48.43
-49.89
-52.80
-56.08
-56.93
-52.47
-41.53
-25.16
-6.26
12.54
29.76
45.23
58.84
69.08
73.12
68.07
53.19
30.89
6.57
-13.58
-24.98
-26.24
-19.03
-6.88
6.44
18.10
26.53
31.33
33.09
33.22
33.71
36.57
43.13
53.45
66.13
78.65
88.44
93.71
93.86
89.78
83.10
76.01
70.78
69.51
73.75
83.76
97.93
112.76
123.87
127.38
121.61
107.69
89.13
70.50
55.89
47.70
46.41
50.89
59.01
68.32
76.41
81.11
80.85
75.11
64.73
52.00
40.05
31.71
28.22
28.47
29.09
25.79
15.02
-4.72
-32.44
-65.17
-98.96
-129.93
-155.04
-172.43
-181.53
-183.17
-179.53
-173.62
-168.44
-165.85
-166.03
-167.43
-167.40
-163.17
-152.73
-135.34
-111.46
-82.74
-51.74
-21.49
5.12
25.84
39.68
46.87
48.63
46.80
43.33
40.25
39.45
42.25
48.65
56.89
63.60
65.00
58.47
43.93
24.16
3.61
-13.30
-24.11
-28.87
-29.66
-29.18
-29.34
-30.44
-31.29
-30.29
-26.39
-19.64
-10.89
-1.37
7.91
16.88
26.11
36.50
48.55
62.31
77.80
95.78
116.84
140.52
164.88
186.70
202.32
208.80
205.19
193.06
176.78
160.76
147.53
137.25
128.45
119.28
108.44
95.88
83.05
73.34
69.43
71.63
77.66
83.82
86.38
82.92
73.19
53.00
25.09
-1.81
-18.40
-20.99
-12.21
2.80
19.81
36.78
53.70
71.78
90.79
108.72
122.69
130.44
131.09
124.83
112.16
94.55
74.07
51.60
26.61
-2.30
-36.20
-75.05
-117.89
-163.59
-211.53
-261.50
-313.59
-366.83
-417.90
-460.85
-489.04
-497.96
-487.44
-461.52
-426.41
-388.09
-350.54
-315.72
-284.57
-258.41
-239.29
-228.83
-226.55
-229.00
-230.79
-226.85
-214.47
-194.13
-168.57
-141.45
-115.63
-92.62
-72.82
-56.04
-42.02
-30.42
-20.67
-11.55
-1.56
10.58
25.37
42.47
60.92
79.66
97.80
114.51
129.00
140.47
148.16
151.66
151.34
148.25
143.80
139.31
135.37
131.93
128.67
125.49
122.60
120.34
118.76
117.27
115.40
113.39
113.11
117.85
131.17
155.01
187.83
224.05
255.04
271.65
267.28
240.28
194.48
138.02
80.52
29.73
-10.69
-41.52
-66.45
-89.53
-112.75
-135.35
-154.52
-166.96
-170.77
-166.01
-154.30
-137.71
-117.90
-96.00
-73.04
-50.54
-30.56
-15.15
-5.31
-0.46
1.43
3.14
6.91
13.48
21.56
28.60
31.59
27.96
16.35
-2.71
-26.55
-51.14
-72.27
-87.29
-95.86
-100.19
-103.57
-108.46
-114.97
-120.58
-121.31
-113.70
-96.72
-72.68
-46.52
-23.71
-8.15
-0.86
0.06
-1.67
-1.92
2.29
11.76
24.92
38.71
49.90
55.96
56.00
51.02
43.12
34.73
27.61
22.55
19.66
18.85
20.02
23.04
27.22
30.94
31.87
27.80
17.70
2.41
-15.73
-33.68
-48.68
-59.07
-64.69
-66.50
-66.21
-65.76
-66.62
-69.54
-74.57
-80.89
-87.00
-91.05
-91.05
-85.52
-73.80
-56.03
-33.37
-7.70
19.03
45.51
70.98
95.19
117.58
137.21
154.13
168.57
180.83
191.41
201.22
210.84
220.94
231.27
240.79
250.35
260.27
269.60
276.62
280.42
280.46
278.15
274.60
269.99
267.36
268.38
272.24
276.20
278.31
276.53
271.39
263.29
252.69
245.39
246.30
256.02
269.78
281.32
283.22
272.90
250.83
191.90
89.64
-42.44
-177.97
-294.02
-367.97
-404.09
-406.30
-377.58
-322.24
-246.35
-159.48
-74.84
-15.56
3.70
-18.93
-69.54
-130.50
-189.16
-236.59
-269.79
-288.37
-297.20
-297.47
-288.98
-269.70
-239.95
-202.64
-159.30
-112.41
-65.42
-22.37
11.04
29.70
32.05
19.33
-5.04
-35.82
-68.39
-99.80
-128.75
-153.84
-174.14
-189.07
-199.27
-206.31
-211.50
-215.81
-219.76
-223.93
-227.28
-228.39
-225.91
-219.28
-208.64
-194.87
-179.26
-163.37
-148.29
-134.57
-122.06
-109.93
-96.74
-80.37
-58.63
-29.31
5.86
46.09
90.48
137.76
185.78
231.54
272.15
304.75
327.33
339.27
342.19
338.91
332.63
326.02
320.72
318.47
319.86
324.24
329.82
334.47
335.83
331.62
320.10
300.59
275.42
248.03
221.85
198.78
178.75
159.44
137.28
109.12
65.56
5.79
-62.89
-127.92
-178.11
-208.83
-222.50
-224.97
-221.77
-216.04
-207.24
-194.23
-177.09
-157.84
-139.49
-124.62
-114.25
-107.59
-102.59
-95.61
-83.86
-66.63
-45.68
-24.54
-6.90
4.06
6.83
1.51
-9.36
-22.85
-36.71
-50.27
-64.36
-80.63
-98.55
-118.00
-139.11
-160.83
-180.76
-194.81
-197.31
-182.97
-149.86
-103.49
-51.84
-7.17
18.85
19.59
-4.14
-44.37
-89.99
-130.49
-157.88
-167.74
-158.78
-130.98
-85.76
-26.70
40.56
108.23
168.28
214.36
242.18
249.43
236.58
206.32
159.58
100.82
35.97
-29.16
-84.87
-122.67
-139.22
-136.29
-118.67
-90.92
-57.45
-23.34
6.07
26.98
36.94
35.91
27.44
18.82
18.14
31.40
59.55
98.01
137.37
165.39
171.76
152.69
107.75
51.08
1.27
-28.31
-34.72
-24.53
-8.64
4.22
10.94
13.22
14.99
17.37
18.27
14.44
4.29
-10.82
-26.71
-38.20
-41.77
-36.07
-24.38
-13.69
-11.02
-21.41
-45.80
-79.82
-115.10
-142.17
-151.67
-141.85
-117.28
-85.85
-55.02
-28.87
-7.75
9.94
25.47
38.79
47.97
51.53
49.83
45.12
40.51
38.72
40.53
44.69
48.96
50.90
49.73
46.76
44.49
45.34
50.37
58.42
66.56
71.39
70.81
64.66
55.02
44.67
35.95
29.34
23.33
15.29
2.79
-15.59
-39.44
-66.65
-93.51
-114.82
-124.65
-117.91
-92.87
-53.11
-7.58
31.96
55.27
57.78
42.51
18.26
-4.72
-19.72
-25.27
-23.90
-19.17
-13.19
-6.08
3.14
14.65
26.89
35.82
37.74
31.83
20.87
9.87
3.83
6.27
17.82
36.16
54.94
67.76
71.31
66.63
57.94
49.02
41.63
34.67
24.47
4.00
-32.40
-85.88
-152.68
-226.01
-298.38
-362.57
-412.08
-427.04
-396.49
-326.61
-239.18
-158.68
-100.12
-66.42
-51.97
-48.30
-48.51
-51.56
-59.59
-72.53
-87.28
-99.35
-105.53
-105.03
-99.45
-91.50
-85.62
-84.48
-87.26
-91.36
-93.12
-90.14
-81.97
-69.82
-55.49
-41.73
-30.21
-20.54
-10.96
0.46
14.50
30.84
48.53
66.80
84.97
103.05
121.64
140.98
160.42
178.08
191.95
201.14
206.65
210.54
214.75
220.08
225.27
227.88
225.39
216.30
199.61
173.90
137.48
90.15
36.64
-14.09
-51.53
-68.38
-64.44
-47.28
-28.83
-19.66
-24.34
-37.88
-51.26
-56.58
-50.36
-33.35
-8.34
21.97
55.60
90.59
128.12
167.97
208.15
245.43
277.12
302.37
322.51
340.45
359.27
385.82
423.67
471.05
521.32
566.32
600.30
621.96
634.03
610.82
539.93
423.93
280.52
132.63
-2.19
-115.46
-205.92
-276.25
-331.17
-370.68
-395.07
-405.82
-406.16
-399.43
-387.88
-373.23
-356.74
-340.90
-326.09
-314.36
-308.39
-310.15
-317.38
-324.29
-323.99
-312.23
-289.87
-259.71
-226.25
-193.49
-164.58
-140.46
-120.92
-105.25
-92.71
-82.38
-71.76
-57.37
-37.08
-11.48
16.98
44.10
64.88
74.58
70.16
51.64
19.65
-16.85
-52.68
-83.69
-107.36
-122.77
-130.37
-131.32
-126.96
-117.96
-104.57
-87.50
-66.62
-41.69
-12.74
19.48
53.80
84.99
109.62
126.09
134.07
134.92
130.69
123.63
115.94
109.66
106.48
107.82
113.94
123.56
134.31
143.26
147.98
147.28
141.18
129.85
112.76
87.94
53.85
10.17
-40.94
-94.65
-144.43
-183.72
-207.86
-215.12
-206.91
-184.90
-151.77
-110.94
-66.82
-24.05
13.89
45.54
71.32
92.80
114.47
140.58
174.46
217.51
269.18
327.50
389.34
450.35
489.39
489.40
443.06
357.88
251.60
142.58
43.47
-40.09
-107.81
-162.27
-203.37
-232.95
-251.94
-261.74
-265.12
-265.14
-263.89
-261.94
-258.64
-250.81
-234.15
-206.41
-168.23
-122.86
-74.13
-24.77
24.18
72.63
121.64
171.03
218.42
258.28
282.10
281.05
249.42
187.03
99.70
-1.50
-103.53
-193.63
-258.46
-289.93
-288.61
-262.72
-223.60
-181.22
-141.73
-107.64
-78.80
-54.11
-32.70
-14.27
1.34
14.30
24.44
30.99
32.57
28.00
17.18
1.76
-14.51
-26.30
-27.81
-16.40
4.94
29.03
48.09
57.29
55.98
47.05
34.68
22.13
10.28
-1.77
-14.95
-29.02
-42.30
-52.86
-59.49
-62.12
-61.76
-60.71
-61.48
-65.23
-70.66
-73.79
-69.65
-54.67
-28.81
3.88
36.34
61.68
76.43
80.89
79.42
78.11
81.52
90.62
102.70
112.51
114.47
105.13
84.73
57.72
31.30
13.18
9.06
20.56
43.62
69.02
85.32
83.08
58.40
13.55
-44.67
-107.71
-166.00
-209.04
-228.82
-223.04
-195.96
-156.05
-112.93
-74.73
-46.15
-27.22
-14.28
-2.28
12.52
31.32
53.21
75.56
94.98
108.32
113.40
108.95
95.00
73.33
47.66
23.05
3.99
-7.23
-11.38
-10.86
-9.21
-9.66
-13.87
-21.40
-30.00
-36.53
-37.48
-29.63
-11.28
15.79
45.79
70.45
82.48
79.24
64.10
44.70
28.97
21.08
19.56
20.11
20.27
22.63
34.23
61.51
104.75
155.40
198.38
217.81
204.13
158.04
89.21
11.09
-65.03
-133.51
-193.82
-242.69
-274.56
-283.70
-268.08
-231.39
-182.08
-130.43
-85.40
-52.22
-31.42
-20.29
-14.70
-10.81
-6.03
0.61
8.57
16.64
23.96
30.36
35.88
40.82
45.40
49.69
53.61
56.89
59.35
61.13
62.84
64.53
66.19
67.39
67.51
65.92
62.18
56.37
49.31
42.45
36.63
32.51
30.25
29.42
29.11
28.39
26.77
24.56
22.77
21.52
20.88
20.34
18.65
14.18
5.69
-6.88
-21.86
-36.22
-48.23
-56.50
-61.16
-64.18
-68.91
-78.94
-97.57
-127.08
-159.13
-188.67
-210.42
-218.85
-209.30
-180.23
-134.65
-80.56
-28.04
14.26
40.77
52.15
53.78
52.63
53.07
57.21
62.02
63.75
59.13
45.83
25.01
0.90
-19.16
-28.85
-25.50
-11.33
8.74
29.58
47.50
61.89
73.98
84.93
94.48
101.49
104.40
103.39
100.06
96.30
93.90
93.48
94.62
95.13
92.64
84.67
70.45
50.50
26.39
0.40
-24.94
-47.26
-65.11
-77.78
-86.25
-91.51
-94.83
-97.67
-101.74
-109.02
-121.19
-138.71
-154.69
-164.45
-162.37
-144.78
-112.51
-71.68
-31.68
-1.01
15.97
20.44
16.82
11.02
6.40
3.04
-1.34
-8.99
-19.91
-32.01
-42.33
-49.11
-51.35
-50.52
-47.83
-43.92
-38.32
-29.65
-17.03
-0.93
16.62
34.33
51.33
67.98
84.55
100.11
112.76
119.66
118.44
104.89
81.07
50.96
18.89
-11.52
-40.86
-68.58
-92.16
-107.69
-110.86
-98.17
-69.36
-27.46
19.99
62.47
89.49
93.68
73.80
36.17
-6.19
-40.91
-54.99
-41.06
0.32
61.98
133.10
202.77
262.63
307.70
335.06
343.63
333.49
306.90
269.24
228.42
193.03
169.81
161.23
164.65
173.93
181.52
181.50
171.53
152.88
129.46
106.69
90.00
83.37
88.19
101.31
114.61
116.76
96.96
49.44
-23.59
-112.43
-203.74
-285.26
-350.41
-399.19
-435.99
-466.43
-494.89
-523.86
-554.47
-586.81
-619.29
-648.36
-668.18
-672.19
-655.58
-618.11
-564.96
-505.44
-449.63
-404.94
-374.34
-356.21
-346.07
-338.86
-329.75
-314.87
-291.43
-257.95
-214.47
-162.36
-103.98
-42.06
20.42
81.30
139.06
192.41
239.76
279.07
308.73
327.65
335.79
333.66
323.39
307.85
289.76
270.71
251.14
232.24
215.07
200.60
187.81
177.23
170.40
169.92
177.72
194.29
220.18
252.10
283.19
301.20
299.51
278.99
248.33
218.80
200.05
201.05
223.65
263.31
305.30
339.93
363.77
380.07
393.12
406.41
427.14
459.47
504.42
551.47
594.95
633.43
669.80
705.18
702.93
638.86
508.70
376.81
267.33
186.55
116.99
49.68
-22.29
-102.74
-185.43
-269.64
-345.42
-408.79
-453.22
-476.27
-478.85
-466.37
-444.68
-414.33
-375.97
-332.00
-295.29
-275.41
-276.59
-294.98
-322.61
-349.34
-363.72
-357.44
-328.41
-286.54
-243.58
-209.57
-188.65
-180.02
-179.17
-179.15
-174.73
-163.46
-148.46
-133.05
-119.66
-108.25
-97.30
-84.32
-66.15
-40.50
-7.06
30.35
66.13
94.05
110.36
115.05
111.51
104.14
95.87
87.11
75.69
59.91
39.58
17.78
0.21
-6.65
1.51
25.70
63.76
110.40
159.46
199.11
216.93
205.55
167.47
113.38
55.66
5.69
-37.59
-77.52
-116.20
-151.94
-180.19
-194.44
-191.05
-170.75
-137.89
-99.73
-62.96
-32.70
-10.92
3.44
12.93
19.42
23.68
26.27
27.26
27.70
28.96
31.51
35.46
42.55
53.38
66.69
82.27
99.31
115.83
127.63
129.17
115.80
85.80
41.29
-13.15
-66.80
-107.74
-128.44
-129.41
-117.27
-99.49
-80.64
-62.23
-44.20
-26.43
-10.50
1.02
6.27
5.48
1.05
-3.48
-5.39
-3.61
1.53
8.04
13.43
15.85
15.08
12.52
10.34
10.19
12.76
17.79
23.91
29.51
33.35
35.11
35.39
35.13
34.87
34.64
34.08
32.36
28.84
23.43
16.75
9.78
3.50
-1.77
-6.11
-9.86
-13.37
-16.52
-18.58
-18.38
-14.83
-7.65
2.07
12.29
20.40
23.97
21.57
13.06
-0.44
-17.33
-34.63
-51.35
-67.19
-82.18
-96.46
-110.25
-123.85
-137.28
-149.44
-157.54
-157.58
-145.45
-119.38
-81.73
-38.97
0.51
29.76
46.03
51.21
49.84
46.56
43.76
41.17
37.24
30.98
23.19
16.12
12.14
12.19
15.40
19.44
21.34
19.02
12.07
2.06
-8.15
-15.58
-18.50
-17.10
-13.48
-10.66
-11.09
-15.72
-23.35
-30.76
-34.27
-31.20
-20.23
-1.68
22.68
49.65
74.39
90.92
93.57
79.45
50.92
16.19
-13.14
-26.56
-19.55
4.12
34.10
58.38
68.87
64.44
49.86
31.92
15.34
0.49
-15.70
-36.74
-63.82
-94.63
-124.09
-147.20
-160.53
-162.50
-152.28
-129.28
-93.26
-46.02
7.13
58.08
97.40
117.92
117.80
100.95
74.90
47.41
23.35
4.56
-8.77
-16.83
-19.15
-15.26
-5.77
6.91
19.33
28.50
32.91
36.78
47.74
72.98
114.81
168.73
223.98
266.90
285.53
273.81
233.03
169.72
92.99
12.99
-58.78
-109.54
-128.52
-111.28
-62.50
4.25
69.96
116.95
130.77
107.95
60.61
9.95
-26.16
-41.67
-41.08
-33.12
-24.28
-17.14
-11.33
-5.15
1.12
4.83
2.65
-7.53
-25.82
-50.55
-79.96
-113.91
-150.59
-188.13
-223.61
-252.46
-268.79
-267.26
-245.62
-199.60
-135.99
-69.01
-13.37
23.02
40.58
44.30
39.58
30.11
18.05
4.33
-8.80
-18.51
-22.81
-21.71
-17.54
-13.69
-13.06
-16.59
-23.98
-31.97
-36.19
-33.14
-21.29
-2.47
18.70
36.38
45.72
44.07
32.70
16.22
0.46
-9.18
-10.59
-5.38
2.32
8.40
10.69
9.44
7.82
10.58
23.41
49.87
89.45
136.89
183.24
218.16
233.17
224.72
189.00
131.57
65.76
6.99
-34.40
-56.52
-63.94
-63.72
-61.40
-60.13
-59.87
-59.44
-56.93
-49.72
-34.84
-10.41
22.65
60.71
98.36
130.88
153.95
163.97
158.12
135.83
100.31
59.02
22.11
-1.24
-6.26
4.43
21.99
35.38
36.34
21.96
-5.69
-41.83
-80.86
-115.52
-138.73
-145.89
-136.72
-114.44
-84.22
-51.51
-20.59
6.01
27.89
45.54
59.64
70.17
77.34
81.69
82.66
79.52
71.33
57.85
39.29
16.43
-10.16
-39.26
-69.94
-101.91
-135.10
-169.57
-205.37
-243.22
-278.73
-309.06
-330.55
-339.61
-333.41
-310.42
-271.26
-219.03
-159.17
-98.02
-41.88
6.12
44.81
74.50
96.76
114.02
129.24
145.61
166.33
193.42
228.02
267.30
304.01
328.49
332.05
310.33
265.15
204.11
132.27
61.59
4.66
-31.52
-48.21
-51.61
-47.79
-40.15
-30.07
-18.70
-6.88
3.24
9.33
10.44
7.85
4.46
3.24
5.51
10.85
18.28
25.63
30.72
32.53
31.84
30.61
30.81
32.87
35.47
37.05
35.67
30.09
20.52
8.79
-2.32
-10.26
-14.82
-17.26
-19.48
-23.34
-29.63
-37.59
-45.10
-49.75
-49.64
-45.89
-41.08
-38.53
-41.42
-52.12
-72.39
-103.55
-146.63
-191.05
-225.96
-240.18
-227.07
-187.99
-131.86
-71.72
-19.71
17.11
38.50
47.99
50.88
51.09
50.01
47.29
42.41
35.92
29.67
26.00
25.49
27.48
30.26
31.73
30.46
25.91
18.70
10.31
2.54
-3.83
-8.65
-12.20
-14.78
-15.10
-11.19
-1.52
13.48
30.65
44.36
49.13
42.09
25.45
5.80
-9.21
-14.41
-9.11
3.38
17.85
29.88
37.34
40.37
40.43
39.21
37.97
37.41
38.02
39.90
42.59
45.33
47.08
46.12
40.65
29.29
12.20
-8.19
-27.36
-40.23
-42.67
-34.83
-20.89
-7.46
-0.62
-2.99
-12.51
-23.61
-30.33
-28.75
-19.86
-8.83
-1.50
-1.98
-10.31
-22.59
-33.43
-39.12
-39.24
-36.81
-35.12
-35.09
-34.42
-29.18
-16.88
1.05
18.91
30.04
30.32
20.51
5.45
-8.54
-17.33
-19.94
-18.14
-14.80
-11.83
-9.24
-5.17
2.45
13.94
26.98
36.24
35.45
20.49
-7.93
-44.01
-78.38
-101.86
-108.88
-98.52
-74.40
-42.33
-7.90
24.99
53.71
76.84
93.77
104.94
112.95
120.96
131.48
144.90
160.13
171.06
173.83
167.95
151.43
127.68
102.14
79.65
61.76
47.34
35.23
21.33
2.09
-24.46
-57.46
-94.52
-131.27
-162.80
-182.11
-184.61
-170.56
-145.09
-115.62
-87.69
-65.66
-47.56
-30.65
-12.23
9.45
35.00
63.36
90.52
110.96
119.33
113.11
92.96
62.33
25.08
-16.15
-59.72
-103.54
-143.17
-172.11
-183.66
-174.89
-148.32
-111.72
-75.16
-46.94
-30.43
-23.18
-19.18
-12.42
-0.73
13.49
24.41
25.71
13.95
-9.65
-39.54
-67.87
-87.16
-93.22
-85.35
-65.97
-38.45
-5.09
33.52
77.12
123.84
168.64
202.91
217.59
206.69
170.77
118.28
62.87
18.19
-6.57
-9.03
6.60
33.23
62.17
84.81
95.24
91.49
74.63
47.57
16.75
-13.76
-39.00
-53.86
-55.67
-44.97
-25.76
-4.94
9.80
12.31
-0.84
-28.70
-66.43
-107.16
-140.97
-159.30
-159.82
-147.41
-130.45
-115.06
-102.44
-86.45
-61.79
-27.29
12.20
48.04
72.30
79.31
68.52
41.89
7.66
-24.40
-47.47
-62.43
-75.63
-91.78
-109.17
-121.27
-121.07
-104.29
-73.09
-34.26
1.30
21.94
20.62
-1.43
-35.91
-72.63
-101.94
-125.35
-147.33
-170.54
-192.74
-206.78
-203.31
-175.50
-122.18
-48.38
34.21
110.90
167.10
192.34
183.90
147.80
96.68
45.43
6.92
-13.11
-16.13
-8.73
1.98
12.19
22.37
35.08
51.89
72.75
94.45
112.88
125.39
132.75
139.24
150.35
170.07
199.24
236.94
278.06
314.54
337.37
340.24
322.81
291.32
256.46
229.16
218.73
226.83
247.27
269.28
282.74
281.87
265.85
237.26
186.45
114.08
31.53
-43.36
-96.70
-125.79
-137.56
-142.35
-148.22
-158.16
-168.51
-175.07
-176.30
-173.94
-171.00
-168.94
-166.94
-162.66
-154.16
-139.68
-120.20
-98.99
-79.60
-64.68
-54.35
-47.18
-41.84
-38.11
-36.13
-37.63
-45.01
-59.54
-80.63
-104.27
-125.54
-141.04
-150.17
-154.92
-159.08
-167.82
-181.21
-196.93
-210.77
-218.54
-217.33
-205.61
-183.47
-152.08
-113.15
-68.55
-21.00
26.46
70.56
108.63
139.63
162.88
178.57
187.86
193.31
198.56
208.36
227.34
254.01
285.46
314.57
331.61
327.71
298.66
246.01
176.34
98.30
20.31
-49.86
-107.47
-149.92
-177.07
-191.45
-198.46
-205.40
-219.13
-242.90
-266.58
-276.79
-262.78
-223.75
-168.42
-108.38
-52.11
-3.50
36.82
69.54
93.75
108.19
113.19
109.99
101.19
89.55
76.44
61.49
43.22
18.42
-14.50
-55.03
-100.07
-143.09
-175.34
-188.49
-177.94
-145.17
-98.39
-49.39
-9.23
15.79
25.93
25.99
21.85
17.47
13.87
10.06
5.02
-1.12
-7.12
-11.45
-13.61
-14.50
-15.83
-19.25
-25.24
-32.75
-39.70
-43.89
-43.86
-39.93
-33.23
-25.63
-18.74
-12.97
-7.45
-0.52
9.43
23.21
40.20
58.82
76.99
93.05
106.34
117.13
126.17
134.36
142.26
149.65
155.68
158.79
156.99
148.19
130.94
104.98
71.78
34.39
-3.75
-39.52
-71.05
-97.94
-120.61
-139.60
-154.81
-165.38
-168.16
-160.98
-142.93
-114.83
-79.28
-40.05
-1.34
33.45
62.52
85.95
104.41
118.69
129.11
135.46
137.21
134.14
126.91
117.16
107.02
97.41
88.28
79.27
70.68
63.97
61.03
62.94
68.79
75.04
75.31
63.10
34.53
-9.85
-65.14
-124.28
-180.60
-229.42
-263.02
-275.01
-263.00
-230.49
-185.21
-135.25
-86.69
-43.21
-6.67
22.52
44.12
58.48
66.73
70.82
73.25
75.86
79.59
84.41
89.91
95.05
98.99
101.45
102.69
103.73
105.02
106.74
107.74
106.68
102.22
93.83
82.11
67.97
53.46
39.97
28.22
17.72
7.17
-4.75
-18.53
-33.52
-49.50
-64.79
-78.37
-89.62
-99.25
-109.18
-122.05
-140.88
-168.44
-208.41
-254.37
-298.96
-332.89
-347.98
-339.90
-309.77
-263.82
-200.51
-128.21
-58.40
-0.74
41.73
70.63
88.71
97.82
99.21
94.53
84.84
72.78
60.65
50.09
41.18
32.69
23.32
12.48
0.48
-12.67
-25.92
-38.23
-48.74
-57.42
-64.72
-71.06
-76.52
-81.33
-85.05
-86.86
-86.13
-82.51
-76.36
-68.26
-59.14
-50.28
-43.24
-38.97
-37.89
-39.46
-42.31
-44.67
-43.92
-38.14
-26.88
-11.47
6.62
25.78
45.34
65.82
88.56
116.61
152.58
197.64
244.18
286.07
318.28
338.24
346.06
343.96
337.47
332.56
333.97
343.92
362.89
388.27
414.85
435.61
429.89
385.23
302.64
197.74
92.58
5.57
-55.82
-93.78
-115.40
-126.85
-132.22
-133.52
-132.70
-132.72
-135.84
-142.37
-149.88
-154.40
-151.13
-136.49
-110.74
-78.28
-46.18
-21.07
-6.90
-3.53
-7.34
-13.05
-14.98
-9.29
4.54
23.54
42.69
56.89
62.81
59.95
50.33
37.79
26.06
17.10
10.11
2.14
-10.72
-31.48
-61.14
-98.08
-138.60
-178.14
-212.65
-239.82
-259.13
-271.52
-278.44
-281.06
-279.93
-274.99
-265.99
-252.75
-235.33
-213.79
-188.37
-159.40
-127.57
-93.83
-59.42
-25.74
5.86
33.99
57.18
73.78
82.16
81.52
72.26
56.20
35.80
13.40
-9.60
-32.45
-54.84
-76.66
-97.97
-119.62
-143.30
-170.82
-202.40
-235.15
-262.34
-276.18
-271.48
-248.50
-212.98
-173.50
-137.41
-108.01
-83.94
-59.52
-29.14
9.92
56.79
108.30
160.37
208.51
247.61
272.49
281.63
276.10
259.04
234.79
208.46
185.21
169.35
163.95
171.15
195.35
238.86
299.14
367.58
431.99
480.33
504.24
501.18
457.09
371.44
259.05
145.02
50.41
-16.97
-60.71
-88.47
-106.29
-116.78
-117.65
-107.80
-89.41
-69.13
-54.41
-50.02
-57.07
-74.29
-99.73
-129.86
-161.38
-190.53
-213.18
-224.41
-219.79
-197.80
-162.01
-120.14
-79.97
-47.69
-26.35
-16.10
-14.72
-19.00
-25.81
-32.71
-37.36
-35.77
-24.92
-4.92
19.90
42.06
53.65
49.37
28.80
-2.43
-34.60
-58.42
-68.67
-66.01
-55.61
-44.26
-34.99
-30.33
-29.26
-28.26
-24.18
-15.95
-4.69
7.87
20.26
31.83
41.98
50.72
58.04
63.39
66.24
66.81
66.40
66.48
67.67
68.83
67.97
63.32
53.46
37.91
17.47
-5.43
-28.34
-50.01
-71.50
-93.46
-116.14
-139.87
-164.53
-188.25
-205.90
-210.56
-195.42
-157.45
-96.69
-17.71
70.84
159.13
230.94
274.90
289.44
288.82
280.09
266.36
248.73
227.76
201.64
173.68
148.82
129.95
117.00
106.49
96.20
86.05
76.87
70.37
69.66
75.85
86.27
95.77
97.82
88.71
67.94
35.78
-6.17
-54.13
-95.94
-120.89
-124.80
-112.95
-93.59
-72.16
-51.28
-40.29
-33.65
-27.41
-22.09
-21.27
-30.18
-53.83
-85.72
-122.50
-159.55
-189.20
-205.45
-205.73
-191.40
-167.66
-141.64
-120.22
-109.57
-111.55
-122.58
-138.33
-155.62
-173.08
-190.78
-209.10
-227.78
-247.13
-266.65
-284.39
-299.89
-313.46
-324.87
-332.16
-332.21
-322.20
-302.10
-273.97
-239.70
-202.23
-164.06
-126.01
-87.43
-47.97
-9.25
24.81
50.74
69.91
86.02
104.11
129.22
165.25
213.35
271.57
335.61
400.75
464.99
524.26
571.64
598.92
599.53
569.99
510.27
424.03
304.79
166.41
37.91
-52.92
-95.70
-98.82
-80.34
-58.30
-44.28
-41.25
-43.22
-44.14
-42.26
-40.05
-40.84
-46.15
-54.94
-64.22
-70.65
-70.39
-63.43
-53.48
-45.59
-42.87
-45.41
-51.06
-56.89
-60.46
-59.46
-54.28
-47.60
-42.68
-41.43
-43.73
-48.13
-52.85
-56.57
-58.16
-58.08
-57.80
-58.85
-61.81
-65.89
-69.47
-70.73
-68.66
-61.96
-50.57
-35.51
-18.44
-1.08
15.29
29.46
40.30
46.80
48.15
43.69
33.21
17.21
-2.98
-24.65
-44.85
-60.71
-69.87
-71.02
-64.33
-51.06
-33.09
-12.42
10.11
33.71
57.84
81.98
105.31
126.46
143.96
157.00
161.91
160.37
155.36
149.81
145.85
144.79
147.12
152.47
159.07
163.29
160.54
145.85
116.68
75.06
27.56
-17.06
-51.25
-71.62
-79.58
-79.07
-74.87
-70.00
-65.15
-59.75
-53.57
-47.36
-42.61
-40.39
-40.31
-41.05
-40.95
-38.66
-33.98
-27.81
-21.60
-16.67
-13.65
-12.07
-10.96
-9.31
-6.58
-3.04
0.41
2.62
2.73
0.52
-3.63
-8.92
-14.47
-19.62
-24.21
-28.48
-32.83
-37.43
-41.97
-45.55
-46.85
-44.71
-38.61
-29.21
-18.13
-7.37
1.29
6.91
9.53
9.97
9.40
8.87
8.80
9.27
10.20
11.49
13.15
15.22
17.79
20.91
24.63
28.54
32.27
35.62
38.57
41.34
44.34
48.05
52.84
58.80
64.85
69.97
73.67
76.13
77.81
79.12
80.03
80.24
79.49
76.33
70.28
61.88
52.08
41.24
28.78
13.50
-5.79
-26.68
-48.34
-69.24
-87.87
-103.86
-118.28
-132.76
-147.91
-162.30
-173.12
-180.85
-187.43
-195.37
-206.27
-219.71
-232.99
-242.48
-245.78
-229.57
-192.28
-142.40
-91.92
-47.99
-11.07
21.21
49.95
74.15
92.83
103.61
106.47
103.88
99.44
95.31
93.27
94.40
99.69
110.88
127.45
148.20
171.28
194.02
212.45
222.35
220.92
204.80
178.77
151.90
133.58
129.18
138.61
156.74
176.66
193.92
206.05
212.38
211.54
200.92
178.89
146.86
106.60
61.82
16.85
-24.52
-59.01
-84.92
-103.34
-114.99
-117.30
-109.66
-94.15
-74.31
-55.13
-41.87
-39.49
-54.47
-89.44
-138.25
-193.99
-250.20
-299.74
-336.94
-359.21
-367.92
-371.20
-376.10
-380.49
-381.66
-377.36
-364.33
-341.17
-309.84
-252.70
-168.83
-98.73
-53.26
-21.02
4.54
28.34
52.83
77.93
101.66
117.70
121.93
118.53
110.18
97.29
81.17
63.32
44.99
27.02
7.11
-15.87
-37.73
-56.56
-72.82
-86.19
-95.95
-101.62
-103.55
-104.80
-107.78
-110.48
-110.71
-107.08
-98.76
-86.76
-74.02
-63.86
-58.67
-57.25
-53.97
-43.39
-23.23
4.91
35.82
62.77
80.47
86.82
83.70
76.13
69.07
65.52
66.11
69.70
74.57
79.45
83.86
87.70
90.67
91.90
90.31
85.14
76.42
64.97
52.00
38.68
25.88
14.06
3.40
-5.67
-12.39
-15.78
-15.16
-10.76
-3.95
3.12
8.07
9.00
5.14
-2.94
-13.45
-23.76
-31.13
-33.16
-28.16
-15.96
1.93
22.87
44.08
63.69
81.18
97.06
112.10
127.62
143.62
158.54
170.01
176.20
176.87
173.42
168.07
163.04
161.86
165.98
174.20
183.25
189.82
192.25
191.00
187.81
184.77
186.91
196.88
214.02
234.60
254.47
271.16
284.21
294.17
301.72
311.93
327.69
348.60
370.24
386.85
393.68
388.43
371.09
316.24
216.54
85.11
-48.54
-158.35
-233.48
-276.65
-295.69
-298.32
-290.81
-271.76
-244.41
-214.32
-189.53
-175.13
-170.60
-169.90
-165.70
-155.40
-135.70
-110.02
-85.24
-70.78
-71.88
-92.41
-131.94
-186.58
-250.21
-312.69
-367.04
-395.86
-388.40
-343.92
-272.99
-191.54
-114.40
-54.47
-9.04
25.02
49.38
61.72
58.83
37.77
-0.64
-52.53
-112.43
-173.38
-229.73
-276.44
-311.47
-334.30
-345.14
-343.39
-328.19
-299.29
-257.12
-203.67
-142.34
-78.96
-19.86
30.05
69.13
98.36
120.05
137.00
152.72
169.85
188.56
206.95
222.19
232.15
235.85
233.61
227.49
223.10
226.54
241.39
266.96
298.66
329.49
351.70
359.07
335.08
274.95
190.66
105.90
40.71
1.29
-18.45
-28.99
-38.31
-48.02
-54.18
-52.65
-43.04
-29.62
-18.62
-15.72
-24.16
-44.42
-74.18
-107.13
-136.61
-157.99
-169.61
-171.70
-165.88
-154.46
-140.45
-127.17
-117.10
-112.37
-114.22
-121.87
-127.54
-121.97
-99.97
-65.10
-27.26
4.20
24.58
34.26
36.58
35.19
31.67
25.65
16.43
4.74
-6.86
-15.40
-18.99
-17.67
-13.07
-7.98
-5.25
-6.42
-11.19
-17.84
-24.31
-29.10
-31.65
-32.35
-32.40
-33.48
-36.99
-43.47
-52.67
-63.78
-75.61
-86.56
-95.47
-100.53
-100.48
-94.72
-83.33
-66.85
-45.86
-21.18
6.59
36.13
65.56
92.92
116.84
136.91
153.45
166.46
174.16
173.10
159.68
132.90
96.31
57.79
26.75
10.26
10.91
25.17
47.03
70.43
90.85
105.20
110.83
105.07
86.06
54.52
14.63
-26.15
-59.50
-79.16
-82.86
-73.06
-55.60
-37.50
-24.42
-19.09
-20.28
-23.71
-23.92
-16.78
-1.51
18.83
37.68
49.10
49.45
39.02
21.26
0.93
-17.99
-33.18
-43.67
-49.29
-50.59
-49.12
-47.65
-49.40
-56.00
-66.06
-75.18
-77.93
-71.19
-56.16
-38.16
-23.61
-16.29
-15.15
-15.45
-11.94
-1.35
16.09
37.40
58.18
73.72
79.40
71.10
46.10
2.36
-56.59
-122.36
-181.09
-219.19
-229.54
-214.63
-184.47
-151.60
-126.46
-115.11
-116.58
-126.26
-137.17
-141.19
-130.99
-102.03
-54.20
7.94
75.75
139.64
192.44
231.49
258.25
276.58
290.47
302.13
311.42
316.29
314.12
302.94
282.61
254.61
221.31
184.76
145.43
102.22
53.26
-2.10
-61.80
-120.66
-172.62
-213.21
-241.01
-257.74
-263.88
-259.40
-244.71
-220.85
-188.51
-148.29
-101.15
-48.59
5.06
54.67
96.72
131.43
158.66
181.37
202.36
221.59
235.31
237.10
221.46
186.20
133.12
67.81
-0.96
-63.17
-108.84
-130.05
-123.21
-89.70
-35.67
28.96
91.84
139.18
161.67
159.54
140.96
114.22
82.67
46.84
1.34
-56.10
-122.23
-189.57
-250.11
-292.97
-311.33
-304.91
-279.44
-243.63
-203.98
-163.01
-120.20
-75.26
-30.24
9.48
38.27
52.72
53.41
44.18
30.55
18.49
13.48
19.49
36.66
60.64
83.49
95.64
90.97
70.15
40.76
13.43
-3.50
-8.37
-5.90
-3.16
-5.21
-12.20
-20.35
-25.32
-25.42
-22.39
-20.25
-22.68
-30.39
-41.07
-50.57
-55.15
-52.52
-43.27
-30.05
-16.73
-7.22
-4.18
-8.53
-19.24
-33.69
-48.47
-60.22
-66.11
-64.63
-55.67
-40.26
-20.26
2.18
24.80
45.34
61.47
71.45
74.14
69.60
59.53
46.98
35.54
28.23
26.60
28.62
31.88
33.61
31.80
25.88
16.76
6.18
-4.06
-12.79
-19.78
-25.27
-30.02
-34.82
-40.24
-46.51
-53.64
-61.47
-69.90
-79.04
-88.96
-99.70
-110.86
-121.45
-129.94
-134.71
-134.55
-129.01
-118.45
-103.55
-85.12
-63.76
-40.04
-14.85
10.41
33.92
53.82
68.77
78.42
83.35
84.77
83.99
82.00
79.26
75.88
71.73
66.62
60.50
53.39
45.50
37.20
28.91
21.13
14.49
9.51
6.48
5.39
5.89
7.42
9.36
11.20
12.64
14.14
16.15
18.92
22.34
26.07
29.85
33.63
37.43
41.26
45.72
50.97
56.70
62.30
67.48
72.57
78.45
85.92
95.36
107.86
123.54
141.47
159.92
177.21
192.59
206.41
219.68
233.59
250.89
272.96
298.85
324.70
344.65
352.57
343.92
317.29
263.64
183.50
86.28
-12.41
-97.79
-161.93
-204.61
-230.08
-243.28
-247.95
-244.84
-234.84
-220.01
-203.49
-188.42
-176.64
-168.31
-162.35
-157.31
-150.60
-140.78
-127.92
-113.52
-99.64
-87.92
-79.00
-72.63
-67.94
-62.96
-56.16
-47.04
-36.37
-25.85
-17.42
-12.63
-12.18
-15.74
-21.58
-27.63
-32.16
-34.51
-35.07
-35.04
-35.88
-39.05
-45.83
-56.85
-71.63
-87.78
-101.06
-106.04
-98.17
-76.02
-42.77
-5.72
26.20
45.74
50.00
40.74
23.02
2.74
-15.31
-28.32
-35.17
-35.64
-29.96
-18.83
-3.68
13.50
29.65
41.89
48.36
48.48
42.87
33.12
21.47
10.23
1.34
-4.16
-6.29
-5.83
-3.90
-1.34
1.70
5.63
10.93
17.70
25.40
33.04
39.60
44.55
47.87
50.19
52.39
55.14
58.59
62.31
65.55
67.52
67.77
66.23
63.20
59.19
54.62
49.71
44.39
38.34
31.04
21.91
10.53
-2.97
-17.79
-32.58
-45.90
-56.72
-64.66
-69.91
-72.88
-73.78
-72.46
-68.54
-61.89
-52.97
-42.87
-33.09
-24.93
-19.10
-15.46
-13.14
-10.88
-7.44
-2.07
5.27
13.97
23.02
31.40
38.45
43.86
47.68
49.99
50.88
50.30
48.29
45.06
41.01
36.62
32.31
28.25
24.38
20.53
16.56
12.57
8.79
5.55
3.09
1.41
0.31
-0.57
-1.54
-2.84
-4.56
-6.70
-9.17
-11.87
-14.72
-17.68
-20.79
-24.09
-27.65
-31.41
-35.22
-38.86
-42.06
-44.75
-46.94
-48.79
-50.51
-52.26
-54.13
-56.13
-58.11
-59.71
-60.33
-59.15
-55.35
-48.40
-38.34
-25.80
-11.92
2.00
14.86
25.95
34.99
42.00
47.09
50.36
51.93
51.94
50.60
48.24
45.24
41.94
38.65
35.50
32.57
29.83
27.28
24.89
22.67
20.55
18.44
16.18
13.63
10.72
7.56
4.35
1.30
-1.45
-3.92
-6.28
-8.72
-11.38
-14.33
-17.51
-20.84
-24.20
-27.41
-30.41
-33.26
-36.21
-39.67
-44.05
-49.48
-55.60
-61.49
-65.87
-67.53
-65.75
-60.52
-52.56
-42.98
-32.91
-23.15
-14.11
-5.83
1.73
8.57
14.53
19.34
22.77
24.76
25.46
25.17
24.30
23.21
22.13
21.15
20.24
19.39
18.55
17.76
16.98
16.18
15.28
14.20
12.86
11.19
9.20
6.88
4.31
1.59
-1.16
-3.80
-6.28
-8.62
-10.96
-13.51
-16.50
-20.10
-24.40
-29.35
-34.69
-39.95
-44.38
-47.07
-47.19
-44.27
-38.41
-30.37
-21.33
-12.52
-4.87
1.28
6.13
10.12
13.67
16.93
19.83
22.19
23.96
25.21
26.17
27.06
27.98
28.87
29.61
30.05
30.10
29.73
28.93
27.73
26.07
23.92
21.31
18.28
14.99
11.63
8.41
5.42
2.56
-0.37
-3.60
-7.26
-11.34
-15.64
-19.97
-24.15
-28.15
-32.13
-36.34
-41.03
-46.24
-51.81
-57.21
-61.62
-64.01
-63.48
-59.51
-52.19
-42.13
-30.35
-18.20
-6.91
2.84
10.96
17.88
24.18
30.23
36.11
41.62
45.93
48.29
48.57
47.44
46.05
45.43
46.10
47.99
50.71
52.84
53.13
51.08
47.11
42.13
36.97
31.97
27.17
22.46
16.43
7.54
-5.21
-21.92
-41.94
-64.32
-88.19
-112.78
-129.72
-131.83
-115.60
-83.50
-42.09
2.09
44.86
84.01
118.44
147.59
169.50
182.38
187.02
185.48
180.46
174.44
169.05
165.08
162.71
159.29
152.03
139.14
122.22
103.44
84.37
65.50
46.41
26.20
1.22
-31.16
-70.81
-114.59
-157.44
-194.82
-223.47
-241.88
-250.16
-253.01
-255.23
-259.91
-267.75
-277.88
-290.52
-306.86
-328.81
-339.64
-329.74
-298.91
-256.86
-216.10
-184.24
-163.06
-148.71
-133.68
-109.82
-74.61
-29.79
19.55
63.70
101.23
131.38
154.36
171.08
182.84
188.63
188.35
184.04
179.93
181.13
189.65
204.28
219.50
229.17
227.34
211.76
184.60
151.24
118.42
90.85
70.88
58.38
51.49
46.30
38.72
25.57
5.42
-20.64
-48.49
-71.39
-82.53
-78.71
-62.49
-39.76
-15.69
6.65
26.88
45.33
61.78
74.66
81.71
81.41
74.65
64.24
53.42
45.44
41.75
41.46
41.52
37.81
26.51
4.54
-28.75
-73.17
-123.12
-169.93
-203.74
-217.08
-208.33
-182.79
-156.95
-139.35
-135.26
-145.11
-165.09
-188.61
-208.85
-221.07
-218.67
-199.91
-165.93
-122.05
-75.32
-32.82
0.41
22.36
33.87
37.57
36.09
32.78
29.81
29.20
32.43
40.07
51.16
63.62
75.01
83.19
88.03
90.30
91.56
93.28
96.26
100.54
105.68
111.07
115.46
117.57
115.65
108.37
95.51
78.34
59.28
40.94
24.92
11.06
-1.99
-15.79
-30.93
-46.39
-59.98
-69.42
-73.54
-72.69
-68.44
-62.62
-56.51
-50.55
-44.47
-37.87
-30.74
-23.68
-17.71
-13.77
-12.20
-12.47
-13.32
-13.32
-11.48
-7.64
-2.43
3.07
7.89
11.56
14.10
15.98
17.69
19.45
21.08
22.05
21.78
19.99
16.93
13.21
9.54
6.20
2.94
-0.89
-5.92
-12.39
-20.00
-28.17
-36.56
-45.26
-54.75
-65.34
-76.69
-87.51
-95.87
-99.85
-98.25
-91.06
-79.36
-64.85
-49.26
-33.73
-18.77
-4.47
9.15
21.77
32.81
41.66
48.02
52.04
54.33
55.66
56.69
57.82
59.16
60.63
62.06
63.23
63.89
63.79
62.76
60.69
57.66
53.84
49.49
44.76
39.84
34.79
29.66
24.53
19.39
14.24
8.95
3.41
-2.52
-8.86
-15.61
-22.76
-30.36
-38.61
-47.69
-57.61
-67.99
-77.94
-86.18
-91.38
-92.54
-89.23
-81.67
-70.41
-56.21
-39.92
-22.46
-4.98
11.32
25.38
36.63
45.14
51.53
56.67
61.37
66.25
71.64
77.70
84.24
90.78
96.52
100.72
103.02
103.66
103.16
101.81
99.30
94.77
87.39
77.09
64.94
52.75
42.24
34.22
28.22
22.97
17.23
10.49
3.04
-4.39
-11.32
-17.89
-24.73
-32.58
-41.71
-51.80
-62.07
-71.65
-79.87
-86.33
-90.70
-92.51
-91.21
-86.31
-77.83
-66.42
-53.30
-39.79
-26.90
-15.07
-4.32
5.44
14.19
21.79
28.16
33.47
38.21
42.88
47.76
52.73
57.35
61.17
63.98
65.91
67.32
68.53
69.60
70.31
70.30
69.26
67.09
63.91
60.02
55.83
51.71
47.95
44.64
41.60
38.41
34.49
29.37
22.95
15.54
7.83
0.51
-5.97
-11.60
-16.81
-22.28
-28.62
-36.09
-44.33
-52.31
-58.43
-61.01
-58.76
-51.29
-39.33
-24.49
-8.71
6.42
19.95
31.63
41.55
49.83
56.44
61.38
64.81
67.18
69.07
70.96
72.97
74.89
76.30
76.99
77.15
77.30
78.06
79.78
82.26
84.83
86.63
86.95
85.57
82.73
78.97
74.85
70.79
67.04
63.62
60.38
56.81
52.20
45.79
37.13
26.49
14.81
3.30
-7.16
-16.61
-25.97
-36.53
-49.07
-63.26
-77.57
-89.74
-97.53
-99.31
-94.39
-82.97
-65.97
-44.86
-21.48
2.11
23.98
42.65
57.36
68.11
75.38
79.94
82.44
83.30
82.64
80.39
76.42
70.79
63.85
56.23
48.78
42.28
37.24
33.79
31.73
30.64
30.09
29.70
29.11
28.06
26.30
23.80
20.62
16.82
12.42
7.44
1.92
-4.05
-10.32
-16.62
-22.52
-27.65
-31.86
-35.28
-38.31
-41.48
-45.34
-50.30
-56.28
-62.34
-66.96
-68.44
-65.37
-56.98
-43.54
-26.29
-7.20
11.59
29.11
44.79
58.22
69.06
77.30
83.23
87.43
90.51
92.95
96.54
102.00
108.57
114.57
118.69
120.85
122.08
123.76
126.79
133.67
144.82
158.29
170.77
179.68
184.22
185.32
184.76
184.45
189.21
201.15
218.26
234.84
244.13
240.95
223.48
193.50
135.74
50.24
-48.73
-139.25
-205.15
-242.58
-256.15
-252.62
-237.71
-215.66
-186.54
-151.88
-115.08
-80.49
-50.77
-26.79
-7.45
8.84
23.12
38.27
55.13
72.85
89.70
104.01
115.56
125.09
132.80
137.36
141.14
144.42
146.62
146.88
143.26
134.92
121.87
103.80
79.40
47.73
7.89
-39.56
-92.44
-150.55
-211.93
-273.40
-332.11
-386.87
-437.97
-486.77
-534.59
-581.91
-632.61
-685.63
-734.27
-769.33
-784.68
-781.54
-768.38
-756.50
-754.02
-767.30
-790.25
-806.89
-799.60
-758.17
-683.71
-585.99
-478.01
-332.88
-151.42
41.86
212.73
339.51
420.71
467.06
491.93
505.77
514.86
516.26
509.12
496.63
483.66
473.00
463.69
453.69
441.89
429.18
413.01
393.56
373.32
355.17
340.04
326.38
312.29
297.04
281.48
264.12
244.76
224.01
201.89
179.73
156.40
130.64
102.27
72.95
44.29
19.22
1.07
-8.15
-9.09
-5.81
-3.87
-8.43
-22.30
-45.54
-74.88
-104.83
-129.85
-146.21
-153.28
-152.63
-147.01
-138.97
-130.24
-121.57
-113.13
-105.03
-97.61
-91.39
-86.39
-81.89
-76.54
-69.13
-59.07
-46.62
-32.83
-19.10
-6.58
4.15
12.92
19.50
22.64
20.91
13.34
-0.17
-18.79
-40.96
-64.82
-88.68
-111.28
-132.92
-153.59
-172.51
-188.54
-200.92
-209.84
-216.32
-221.76
-227.41
-235.68
-247.13
-260.12
-271.60
-278.54
-278.90
-271.86
-257.59
-237.04
-213.98
-191.06
-169.02
-147.36
-125.62
-104.25
-84.39
-67.33
-40.48
-1.40
43.41
83.22
110.86
125.23
128.77
124.71
115.30
103.13
87.54
68.65
48.02
28.07
10.70
-3.25
-14.12
-22.56
-29.10
-35.95
-44.11
-53.16
-61.90
-69.38
-75.47
-80.60
-85.16
-89.26
-93.92
-99.21
-104.25
-107.73
-108.62
-106.59
-101.96
-95.33
-87.36
-79.30
-71.97
-65.65
-60.23
-55.55
-51.51
-48.09
-45.20
-42.64
-40.38
-38.24
-35.88
-32.93
-29.13
-24.40
-18.83
-12.59
-5.94
0.81
7.34
13.31
18.44
22.50
25.38
27.03
27.56
27.16
26.10
24.69
23.18
21.81
20.73
19.98
19.54
19.34
19.27
19.22
19.05
18.64
17.92
16.84
15.47
13.91
12.36
11.04
10.22
10.08
10.75
12.23
14.46
17.34
20.80
24.84
29.51
34.88
40.92
47.50
54.37
61.18
67.67
73.72
79.45
85.15
91.22
97.91
105.23
112.93
120.58
127.76
134.32
140.43
146.55
153.22
160.76
169.06
177.63
185.69
192.48
197.58
200.98
203.19
205.06
207.71
212.23
219.28
228.57
238.51
246.29
248.56
242.61
227.49
204.57
177.19
149.59
125.58
107.56
96.28
91.13
90.87
94.14
99.74
106.57
113.66
120.10
125.22
128.67
130.45
130.82
130.19
128.89
127.08
124.74
121.72
117.92
113.38
108.28
102.94
97.62
92.44
87.32
82.04
76.32
69.97
62.96
55.38
47.40
39.14
30.59
21.68
12.33
2.51
-7.69
-18.10
-28.53
-38.81
-48.84
-58.64
-68.31
-77.96
-87.66
-97.30
-106.47
-114.33
-119.62
-120.87
-116.76
-106.55
-90.37
-69.20
-44.68
-18.60
7.48
32.48
55.77
76.87
95.30
110.44
121.67
128.58
131.09
129.54
124.48
116.59
106.51
94.87
82.30
69.49
57.16
46.01
36.53
28.90
22.98
18.38
14.64
11.38
8.40
5.70
3.34
1.40
-0.24
-1.86
-3.97
-7.21
-12.25
-19.68
-29.86
-42.96
-58.75
-76.70
-95.98
-115.62
-134.63
-151.99
-166.64
-177.34
-182.74
-181.58
-173.10
-157.38
-135.59
-109.71
-82.16
-55.12
-30.26
-8.59
9.33
23.09
32.38
36.99
37.01
32.92
25.63
16.29
6.04
-4.10
-13.42
-21.42
-27.74
-32.05
-34.10
-33.72
-31.00
-26.31
-20.22
-13.50
-6.87
-0.90
4.09
7.94
10.64
12.14
12.33
11.11
8.45
4.57
-0.10
-5.05
-9.77
-13.98
-17.63
-20.90
-24.05
-27.39
-31.11
-35.23
-39.56
-43.61
-46.66
-47.75
-46.04
-41.11
-33.05
-22.51
-10.49
1.88
13.66
24.19
33.25
40.82
47.02
52.03
55.97
58.91
60.83
61.76
61.78
61.24
60.37
59.17
57.40
54.57
50.25
44.08
36.38
27.81
19.96
14.25
11.53
11.94
14.95
19.77
25.18
30.79
36.47
43.59
53.13
65.26
79.36
94.01
107.81
118.81
126.97
132.82
139.28
148.48
161.20
176.86
193.32
208.16
217.76
221.64
220.58
219.15
221.41
229.89
245.23
265.53
288.17
308.90
327.69
324.98
288.26
213.10
106.62
-14.43
-132.55
-220.96
-280.42
-317.62
-339.36
-347.48
-342.35
-329.10
-310.85
-291.09
-272.04
-256.97
-245.12
-234.57
-221.11
-201.73
-175.37
-142.59
-106.19
-68.74
-34.31
-4.37
20.30
40.56
57.07
70.16
80.05
79.81
65.69
36.63
-3.37
-48.30
-92.11
-130.84
-162.65
-186.86
-204.71
-217.19
-225.11
-228.44
-227.21
-221.65
-212.38
-200.40
-186.86
-171.45
-154.11
-135.43
-116.20
-97.46
-80.28
-65.45
-53.41
-44.15
-37.51
-32.85
-29.39
-26.53
-23.89
-21.35
-18.97
-16.97
-15.63
-15.15
-15.47
-16.22
-17.00
-17.42
-17.25
-16.42
-15.02
-13.20
-11.14
-8.96
-6.64
-4.20
-1.70
0.74
2.92
4.59
5.57
5.72
5.01
3.53
1.45
-1.08
-3.99
-7.32
-11.16
-15.50
-20.08
-24.40
-27.72
-29.29
-28.62
-25.63
-20.68
-14.47
-7.75
-1.18
4.80
10.00
14.37
17.91
20.66
22.68
24.01
24.78
25.08
25.07
24.89
24.58
24.19
23.66
22.94
21.94
20.61
18.93
16.91
14.58
11.93
8.98
5.75
2.31
-1.16
-4.43
-7.29
-9.60
-11.35
-12.72
-13.92
-15.16
-16.55
-18.11
-19.73
-21.29
-22.71
-23.91
-24.90
-25.72
-26.44
-27.16
-27.90
-28.54
-28.76
-28.11
-26.12
-22.48
-17.23
-10.81
-3.81
3.12
9.56
15.35
20.47
24.94
28.72
31.66
33.68
34.82
35.30
35.43
35.53
35.79
36.28
36.93
37.62
38.19
38.52
38.51
38.05
37.06
35.44
33.11
30.07
26.45
22.49
18.46
14.61
11.03
7.72
4.58
1.55
-1.31
-3.92
-6.20
-8.13
-9.85
-11.55
-13.44
-15.74
-18.61
-22.13
-26.27
-30.81
-35.32
-39.20
-41.80
-42.60
-41.35
-38.11
-33.25
-27.36
-21.09
-15.00
-9.49
-4.70
-0.65
2.75
5.56
7.84
9.57
10.74
11.37
11.52
11.28
10.76
10.03
9.14
8.13
7.03
5.94
4.94
4.09
3.40
2.81
2.26
1.72
1.21
0.77
0.42
0.08
-0.38
-1.15
-2.31
-3.81
-5.51
-7.25
-8.91
-10.48
-12.02
-13.65
-15.41
-17.36
-19.57
-22.06
-24.80
-27.53
-29.77
-30.93
-30.46
-28.09
-24.00
-18.72
-13.00
-7.45
-2.45
1.96
5.96
9.69
13.24
16.47
19.22
21.29
22.60
23.19
23.15
22.63
21.77
20.72
19.62
18.59
17.71
17.00
16.42
15.86
15.17
14.20
12.83
11.07
9.08
7.10
5.42
4.23
3.49
3.00
2.43
1.51
0.12
-1.67
-3.66
-5.64
-7.52
-9.33
-11.19
-13.25
-15.61
-18.29
-21.22
-24.22
-27.06
-29.35
-30.67
-30.61
-28.90
-25.55
-20.84
-15.29
-9.51
-3.99
0.98
5.36
9.24
12.67
15.65
18.06
19.80
20.90
21.53
21.98
22.52
23.29
24.27
25.28
26.12
26.63
26.78
26.59
26.12
25.34
24.20
22.60
20.50
17.95
15.04
11.93
8.76
5.66
2.69
-0.17
-2.98
-5.82
-8.74
-11.71
-14.60
-17.24
-19.45
-21.17
-22.42
-23.35
-24.14
-24.97
-25.96
-27.14
-28.42
-29.56
-30.19
-29.88
-28.28
-25.26
-20.92
-15.63
-9.88
-4.16
1.20
6.05
10.41
14.38
18.00
21.22
23.86
25.75
26.79
27.09
26.95
26.72
26.65
26.80
26.96
26.87
26.32
25.34
24.14
23.02
22.19
21.65
21.21
20.62
19.72
18.44
16.86
15.10
13.24
11.31
9.32
7.29
5.20
3.07
0.87
-1.43
-3.82
-6.23
-8.60
-10.89
-13.14
-15.46
-17.99
-20.81
-23.94
-27.32
-30.79
-34.15
-37.07
-39.15
-39.94
-39.07
-36.40
-32.12
-26.72
-20.85
-15.12
-9.89
-5.27
-1.11
2.75
6.47
10.02
13.27
16.06
18.30
20.02
21.32
22.32
23.08
23.60
23.84
23.77
23.45
22.97
22.46
21.98
21.48
20.83
19.91
18.65
17.09
15.36
13.60
11.92
10.37
8.88
7.35
5.66
3.70
1.46
-1.03
-3.66
-6.30
-8.88
-11.36
-13.77
-16.15
-18.52
-20.88
-23.22
-25.60
-28.09
-30.77
-33.62
-36.40
-38.65
-39.79
-39.29
-36.90
-32.71
-27.20
-21.00
-14.75
-8.91
-3.70
0.83
4.74
8.03
10.68
12.62
13.83
14.35
14.32
13.92
13.34
12.75
12.20
11.73
11.26
10.74
10.12
9.41
8.66
7.90
7.13
6.32
5.45
4.47
3.43
2.43
1.58
0.92
0.38
-0.25
-1.20
-2.56
-4.28
-6.17
-7.98
-9.52
-10.77
-11.80
-12.79
-13.88
-15.14
-16.64
-18.42
-20.47
-22.72
-24.94
-26.70
-27.52
-26.96
-24.84
-21.25
-16.60
-11.40
-6.19
-1.35
2.89
6.44
9.25
11.23
12.30
12.45
11.77
10.55
9.16
7.95
7.15
6.81
6.84
7.12
7.57
8.24
9.19
10.52
12.16
13.92
15.52
16.66
17.14
16.94
16.20
15.15
13.99
12.77
11.45
9.91
8.07
5.99
3.83
1.80
0.11
-1.17
-2.10
-2.89
-3.80
-5.08
-6.91
-9.34
-12.25
-15.32
-18.10
-20.08
-20.78
-19.94
-17.57
-13.98
-9.69
-5.32
-1.31
2.06
4.75
6.88
8.58
9.98
11.13
12.08
12.91
13.71
14.58
15.56
16.55
17.39
17.87
17.89
17.50
16.87
16.24
15.71
15.23
14.63
13.66
12.20
10.30
8.15
6.02
4.09
2.41
0.87
-0.67
-2.40
-4.37
-6.57
-8.85
-11.08
-13.14
-15.02
-16.84
-18.78
-21.06
-23.82
-27.00
-30.32
-33.29
-35.31
-35.83
-34.49
-31.27
-26.44
-20.49
-14.01
-7.53
-1.43
4.08
8.92
13.10
16.68
19.71
22.23
24.29
25.93
27.20
28.13
28.76
29.10
29.14
28.85
28.20
27.21
25.92
24.45
22.88
21.28
19.60
17.72
15.54
13.03
10.26
7.38
4.58
1.99
-0.37
-2.55
-4.65
-6.74
-8.86
-11.00
-13.09
-15.08
-16.92
-18.58
-20.15
-21.73
-23.49
-25.58
-28.03
-30.64
-32.97
-34.41
-34.37
-32.46
-28.70
-23.45
-17.34
-11.01
-4.97
0.50
5.32
9.47
12.97
15.83
18.08
19.77
21.02
21.95
22.67
23.20
23.54
23.62
23.38
22.80
21.92
20.89
19.86
19.02
18.39
17.93
17.47
16.80
15.77
14.33
12.59
10.71
8.88
7.18
5.64
4.19
2.70
1.11
-0.65
-2.48
-4.31
-6.00
-7.50
-8.81
-10.05
-11.38
-13.00
-15.09
-17.71
-20.82
-24.22
-27.58
-30.43
-32.27
-32.62
-31.22
-28.11
-23.58
-18.18
-12.48
-6.97
-1.98
2.34
5.99
9.01
11.48
13.49
15.12
16.43
17.47
18.26
18.81
19.16
19.35
19.42
19.35
19.08
18.51
17.65
16.51
15.22
13.85
12.45
10.95
9.28
7.37
5.27
3.14
1.13
-0.58
-1.96
-3.06
-4.04
-5.05
-6.23
-7.68
-9.36
-11.17
-12.90
-14.33
-15.33
-15.89
-16.24
-16.70
-17.67
-19.40
-21.89
-24.83
-27.65
-29.68
-30.29
-29.13
-26.13
-21.57
-15.94
-9.82
-3.76
1.85
6.78
10.94
14.31
16.97
19.07
20.76
22.25
23.67
25.09
26.46
27.67
28.56
28.98
28.87
28.25
27.24
25.97
24.61
23.23
21.83
20.32
18.56
16.41
13.79
10.75
7.45
4.14
1.05
-1.61
-3.76
-5.47
-6.89
-8.20
-9.55
-10.95
-12.33
-13.59
-14.64
-15.50
-16.26
-17.09
-18.17
-19.65
-21.57
-23.86
-26.27
-28.43
-29.87
-30.15
-28.95
-26.20
-22.09
-17.03
-11.53
-6.13
-1.21
3.00
6.49
9.33
11.66
13.53
14.98
16.07
16.88
17.56
18.25
18.99
19.70
20.19
20.28
19.87
19.00
17.83
16.55
15.27
14.01
12.72
11.29
9.62
7.72
5.64
3.54
1.56
-0.18
-1.62
-2.81
-3.87
-4.93
-6.06
-7.32
-8.70
-10.14
-11.58
-12.99
-14.32
-15.56
-16.74
-17.92
-19.22
-20.75
-22.57
-24.69
-26.97
-29.10
-30.59
-30.90
-29.59
-26.54
-21.99
-16.57
-11.03
-6.01
-1.78
1.72
4.75
7.58
10.26
12.69
14.71
16.24
17.38
18.32
19.23
20.15
20.96
21.51
21.64
21.29
20.49
19.32
17.90
16.33
14.72
13.18
11.76
10.42
9.08
7.62
5.99
4.23
2.44
0.70
-0.92
-2.46
-4.00
-5.63
-7.36
-9.12
-10.85
-12.46
-13.99
-15.53
-17.18
-19.03
-21.09
-23.31
-25.58
-27.72
-29.52
-30.71
-31.03
-30.25
-28.28
-25.15
-21.08
-16.43
-11.57
-6.80
-2.35
1.71
5.34
8.49
11.11
13.14
14.58
15.57
16.32
17.10
18.09
19.28
20.47
21.43
21.95
21.94
21.49
20.74
19.79
18.69
17.38
15.84
14.07
12.16
10.23
8.32
6.41
4.39
2.25
0.02
-2.15
-4.09
-5.73
-7.12
-8.44
-9.87
-11.51
-13.30
-15.10
-16.76
-18.20
-19.44
-20.59
-21.77
-23.13
-24.79
-26.77
-28.94
-30.99
-32.44
-32.77
-31.59
-28.78
-24.57
-19.48
-14.10
-8.92
-4.21
0.00
3.80
7.30
10.50
13.37
15.82
17.82
19.36
20.58
21.60
22.51
23.32
23.93
24.22
24.09
23.56
22.76
21.88
21.04
20.26
19.42
18.36
16.97
15.20
13.16
10.96
8.72
6.50
4.27
2.04
-0.23
-2.52
-4.77
-6.94
-8.98
-10.87
-12.61
-14.22
-15.69
-17.03
-18.30
-19.60
-21.10
-22.99
-25.39
-28.28
-31.36
-34.13
-35.95
-36.24
-34.64
-31.18
-26.24
-20.44
-14.47
-8.85
-3.84
0.55
4.47
8.04
11.32
14.27
16.78
18.82
20.41
21.69
22.79
23.86
24.92
25.95
26.84
27.44
27.66
27.44
26.77
25.66
24.17
22.38
20.37
18.23
15.99
13.67
11.23
8.69
6.12
3.67
1.48
-0.41
-2.09
-3.78
-5.74
-8.12
-10.87
-13.80
-16.67
-19.24
-21.44
-23.32
-25.01
-26.72
-28.60
-30.70
-32.88
-34.82
-36.02
-35.97
-34.32
-31.02
-26.37
-20.95
-15.38
-10.14
-5.40
-1.11
2.89
6.75
10.42
13.77
16.62
18.90
20.70
22.22
23.65
25.07
26.46
27.69
28.62
29.14
29.22
28.80
27.88
26.44
24.50
22.15
19.54
16.81
14.07
11.40
8.83
6.38
4.03
1.76
-0.50
-2.81
-5.20
-7.64
-10.04
-12.33
-14.44
-16.39
-18.22
-19.98
-21.72
-23.48
-25.28
-27.15
-29.11
-31.07
-32.85
-34.15
-34.64
-34.04
-32.16
-29.02
-24.83
-19.93
-14.72
-9.60
-4.80
-0.49
3.29
6.54
9.29
11.53
13.27
14.58
15.59
16.45
17.30
18.20
19.10
19.94
20.65
21.19
21.56
21.75
21.69
21.29
20.44
19.13
17.42
15.48
13.51
11.64
9.88
8.10
6.18
4.03
1.68
-0.77
-3.18
-5.45
-7.60
-9.69
-11.82
-14.04
-16.41
-18.94
-21.68
-24.62
-27.72
-30.76
-33.36
-35.02
-35.27
-33.75
-30.44
-25.60
-19.80
-13.70
-7.92
-2.85
1.40
4.92
7.91
10.55
12.90
14.97
16.78
18.39
19.93
21.52
23.18
24.84
26.34
27.50
28.22
28.48
28.34
27.84
26.96
25.64
23.79
21.37
18.50
15.44
12.49
9.95
7.91
6.31
4.92
3.48
1.79
-0.16
-2.32
-4.55
-6.76
-8.88
-10.92
-12.92
-14.95
-17.10
-19.50
-22.25
-25.36
-28.66
-31.77
-34.14
-35.19
-34.56
-32.13
-28.17
-23.20
-17.85
-12.68
-8.04
-4.01
-0.47
2.74
5.78
8.70
11.48
14.05
16.39
18.49
20.43
22.25
23.98
25.58
26.98
28.09
28.85
29.20
29.14
28.69
27.89
26.77
25.33
23.53
21.39
18.94
16.28
13.54
10.80
8.11
5.39
2.52
-0.61
-3.97
-7.43
-10.75
-13.69
-16.11
-18.03
-19.63
-21.15
-22.83
-24.80
-27.01
-29.23
-31.13
-32.29
-32.36
-31.08
-28.42
-24.53
-19.82
-14.76
-9.83
-5.34
-1.40
2.10
5.36
8.51
11.59
14.49
17.06
19.22
21.01
22.56
23.95
25.18
26.13
26.68
26.75
26.40
25.82
25.17
24.53
23.84
22.92
21.62
19.89
17.75
15.38
12.94
10.56
8.29
6.11
3.97
1.83
-0.29
-2.36
-4.36
-6.31
-8.24
-10.18
-12.13
-14.02
-15.83
-17.54
-19.25
-21.08
-23.14
-25.48
-28.01
-30.53
-32.71
-34.13
-34.38
-33.13
-30.32
-26.15
-21.11
-15.85
-10.91
-6.58
-2.82
0.57
3.84
7.08
10.22
13.08
15.55
17.63
19.47
21.22
22.94
24.60
26.05
27.14
27.74
27.84
27.49
26.78
25.79
24.55
23.08
21.34
19.33
17.08
14.64
12.11
9.58
7.12
4.78
2.53
0.37
-1.74
-3.87
-6.09
-8.44
-10.92
-13.42
-15.83
-17.99
-19.84
-21.43
-22.92
-24.47
-26.22
-28.24
-30.46
-32.77
-34.95
-36.75
-37.80
-37.75
-36.30
-33.34
-29.08
-23.97
-18.62
-13.56
-9.12
-5.34
-2.06
0.96
3.91
6.82
9.62
12.22
14.53
16.57
18.39
20.03
21.43
22.52
23.21
23.50
23.46
23.22
22.90
22.50
21.98
21.22
20.12
18.62
16.76
14.60
12.29
9.95
7.68
5.50
3.34
1.07
-1.43
-4.18
-7.11
-9.99
-12.58
-14.75
-16.47
-17.87
-19.17
-20.56
-22.22
-24.27
-26.69
-29.34
-31.89
-33.86
-34.66
-33.82
-31.12
-26.75
-21.23
-15.30
-9.68
-4.83
-0.86
2.39
5.27
8.06
10.85
13.57
16.02
18.01
19.53
20.72
21.81
22.97
24.23
25.45
26.44
27.07
27.34
27.32
27.08
26.60
25.73
24.33
22.38
20.01
17.43
14.83
12.32
9.87
7.40
4.84
2.19
-0.54
-3.26
-5.97
-8.58
-11.01
-13.22
-15.17
-16.95
-18.72
-20.64
-22.83
-25.35
-28.15
-31.07
-33.82
-36.05
-37.28
-37.13
-35.36
-32.02
-27.48
-22.32
-17.15
-12.41
-8.29
-4.73
-1.53
1.47
4.39
7.19
9.81
12.17
14.28
16.19
18.00
19.72
21.27
22.53
23.35
23.66
23.53
23.11
22.60
22.16
21.85
21.51
21.00
20.11
18.77
17.05
15.13
13.18
11.32
9.56
7.78
5.82
3.60
1.12
-1.54
-4.23
-6.85
-9.35
-11.77
-14.20
-16.73
-19.40
-22.27
-25.28
-28.29
-31.03
-33.12
-34.11
-33.63
-31.47
-27.72
-22.80
-17.25
-11.66
-6.47
-1.87
2.20
5.88
9.31
12.51
15.39
17.86
19.85
21.38
22.51
23.34
23.91
24.28
24.53
24.74
25.01
25.32
25.46
25.11
23.91
21.65
18.42
14.59
10.63
6.87
3.29
-0.47
-4.95
-10.57
-17.33
-24.74
-32.04
-38.46
-43.48
-46.88
-48.63
-48.62
-46.58
-42.32
-35.99
-28.13
-19.42
-10.37
-1.10
8.47
18.08
26.73
32.81
34.75
32.01
25.62
17.83
11.00
6.35
3.40
0.42
-4.49
-12.41
-23.07
-35.17
-47.10
-57.60
-66.10
-72.63
-77.50
-80.80
-82.24
-81.09
-76.53
-68.01
-55.71
-40.63
-24.46
-9.04
4.23
14.65
22.13
26.85
28.93
28.38
25.33
20.16
13.67
6.97
1.25
-2.53
-3.84
-2.68
0.45
4.74
9.41
13.84
17.82
21.38
24.61
27.37
29.19
29.35
27.20
22.53
15.73
7.91
0.47
-5.29
-8.53
-9.07
-7.18
-3.38
1.71
7.57
13.85
20.38
27.18
34.47
42.56
51.87
62.66
74.73
87.61
100.80
113.98
127.08
140.24
153.45
166.62
179.24
190.09
198.12
202.99
205.32
206.45
207.80
210.21
214.05
218.72
221.96
221.46
215.58
203.87
186.84
165.32
140.04
112.23
82.65
50.61
16.04
-20.06
-55.39
-87.17
-113.73
-135.45
-153.93
-173.33
-200.37
-240.46
-295.92
-364.86
-441.98
-520.87
-596.07
-662.99
-703.29
-701.14
-648.29
-550.54
-425.77
-294.17
-170.78
-70.77
8.66
70.43
113.36
135.16
134.67
113.86
78.74
38.15
3.53
-13.04
-6.17
19.49
51.91
77.48
87.43
80.92
63.27
41.88
23.37
8.66
-4.70
-18.75
-33.12
-45.22
-51.76
-50.49
-41.11
-24.39
-3.32
18.67
39.21
57.75
74.56
90.25
105.36
120.26
135.30
150.21
164.70
178.77
193.32
208.70
224.55
240.17
254.97
268.86
282.06
295.19
308.53
321.95
332.55
334.90
322.76
291.51
240.14
171.91
93.59
9.16
-71.99
-139.59
-186.46
-211.12
-217.00
-209.50
-193.63
-173.29
-151.62
-130.47
-111.86
-97.41
-87.57
-81.28
-76.47
-71.11
-64.04
-55.30
-45.23
-35.06
-26.32
-19.85
-15.43
-11.93
-7.99
-2.67
4.19
12.52
21.53
30.05
37.05
42.11
45.24
46.56
46.03
43.17
37.82
30.15
20.80
10.98
2.42
-3.22
-4.75
-1.80
4.70
13.35
22.63
31.17
37.88
42.06
43.17
41.28
37.45
33.14
30.61
32.14
38.69
49.24
61.13
70.93
75.82
77.00
74.52
68.50
58.70
44.28
24.56
0.41
-25.91
-50.88
-71.24
-87.34
-100.88
-113.45
-125.48
-135.93
-142.37
-143.44
-138.89
-129.82
-120.99
-116.35
-117.43
-123.69
-133.82
-146.19
-161.49
-180.78
-204.45
-234.61
-270.22
-306.28
-335.90
-353.50
-356.08
-346.28
-329.13
-290.87
-228.56
-149.76
-68.57
2.67
51.03
81.41
99.03
108.12
112.34
113.67
113.79
115.49
121.81
134.56
154.43
178.57
202.79
222.98
233.80
232.84
221.83
205.37
188.67
176.29
169.42
166.99
166.66
164.42
157.30
144.57
126.99
106.32
83.51
61.60
45.29
38.23
39.97
47.13
55.85
62.79
66.45
67.07
66.37
64.93
62.48
58.30
52.14
44.42
34.31
20.31
1.07
-23.49
-50.34
-74.49
-90.66
-95.56
-89.60
-78.47
-70.03
-70.77
-83.21
-106.37
-137.99
-176.49
-221.03
-260.75
-283.57
-279.54
-246.00
-188.81
-119.81
-52.79
0.83
35.52
52.70
57.45
55.91
52.58
49.24
45.56
40.53
33.88
26.70
20.92
17.24
14.99
12.51
7.80
-0.60
-12.97
-28.30
-44.01
-57.62
-66.66
-69.59
-65.43
-53.49
-33.53
-6.55
24.08
52.50
70.94
74.10
61.87
40.30
19.27
8.30
12.80
32.75
63.61
98.58
131.36
157.25
173.24
177.57
169.56
149.94
117.83
78.78
38.45
1.51
-28.94
-51.71
-66.64
-75.35
-79.18
-79.15
-75.36
-68.25
-58.25
-45.89
-32.38
-19.29
-8.28
-0.22
4.81
7.99
10.71
14.33
19.77
26.31
31.70
32.99
28.00
16.25
-0.24
-18.05
-34.66
-46.63
-51.80
-50.07
-43.09
-33.40
-23.47
-15.05
-9.19
-6.13
-5.40
-6.55
-9.22
-13.15
-17.99
-23.31
-28.50
-33.10
-36.80
-39.48
-41.49
-43.37
-45.52
-47.94
-50.25
-51.75
-51.85
-50.24
-46.93
-42.39
-37.26
-32.12
-27.33
-23.04
-19.24
-15.82
-12.55
-9.13
-5.24
-0.84
3.82
8.25
11.95
14.59
16.18
16.96
17.33
17.71
18.59
20.65
24.75
31.75
42.10
55.51
70.84
86.44
100.70
112.65
122.13
129.57
135.64
140.79
145.03
147.96
148.90
147.25
142.77
135.78
127.14
118.06
109.73
102.95
97.86
94.04
90.83
87.83
85.12
83.14
82.26
82.35
82.73
82.52
81.15
78.59
74.98
69.99
62.34
50.03
31.30
5.72
-25.30
-58.95
-92.36
-123.72
-152.93
-181.03
-209.07
-237.08
-263.79
-286.94
-304.03
-312.90
-311.99
-300.37
-277.88
-245.28
-204.43
-158.34
-111.05
-67.18
-31.31
-6.94
4.79
5.78
0.90
-3.60
-2.43
6.63
22.14
40.26
56.96
69.95
79.16
85.75
90.46
92.70
90.86
83.62
71.05
54.95
38.10
23.04
11.32
3.28
-1.58
-4.11
-4.97
-4.38
-1.86
3.74
13.77
29.06
49.24
72.46
95.84
116.37
132.06
142.47
148.76
152.84
156.35
159.81
162.40
162.40
157.91
147.85
132.54
113.89
94.84
78.53
67.38
62.45
63.28
68.08
74.23
78.99
80.26
77.13
70.29
61.83
54.60
51.09
52.38
57.52
63.84
67.89
66.65
58.57
43.81
23.95
1.32
-21.57
-42.46
-59.72
-72.68
-81.75
-88.47
-95.09
-103.91
-116.45
-133.07
-152.94
-174.41
-195.62
-214.88
-230.90
-242.71
-249.46
-250.32
-244.59
-232.02
-213.12
-189.22
-162.23
-134.11
-106.24
-79.08
-52.46
-26.22
-1.03
21.35
38.43
47.90
48.54
40.67
26.03
7.28
-12.72
-31.34
-46.43
-56.47
-60.71
-59.28
-53.14
-43.83
-33.08
-22.41
-12.84
-4.91
1.35
6.30
10.55
14.60
18.58
22.12
24.63
25.62
25.06
23.46
21.55
19.99
19.22
19.47
21.01
24.25
29.36
35.78
42.05
46.13
46.41
42.62
36.20
29.66
25.48
24.88
27.47
31.70
35.82
38.80
40.68
42.11
43.77
45.69
47.28
47.78
46.88
45.15
43.91
44.59
47.87
53.09
58.34
61.16
59.74
53.68
44.11
33.03
22.32
13.01
5.23
-1.33
-6.87
-11.23
-14.14
-15.77
-17.05
-19.40
-24.16
-31.79
-41.45
-51.23
-58.85
-62.55
-61.79
-57.63
-52.44
-49.21
-50.58
-57.84
-70.30
-85.40
-99.45
-108.91
-111.54
-107.06
-96.99
-83.86
-70.12
-57.43
-46.48
-37.25
-29.49
-22.96
-17.17
-11.21
-3.74
6.50
19.92
35.48
50.72
62.63
68.88
69.00
64.58
58.67
54.38
53.51
55.96
59.97
63.21
63.87
61.33
56.12
49.29
41.73
33.68
24.95
15.41
5.51
-3.57
-10.39
-13.97
-14.40
-12.79
-10.79
-9.77
-10.34
-12.40
-15.52
-19.37
-23.91
-29.07
-34.39
-38.77
-40.67
-38.77
-32.46
-22.02
-8.58
6.36
21.26
34.89
46.38
55.42
62.11
66.98
70.75
73.91
76.49
78.15
78.60
78.06
77.57
78.49
81.76
87.03
92.36
94.86
91.96
82.74
68.60
52.81
39.21
30.63
27.82
29.49
33.06
35.95
36.45
33.99
28.78
21.30
11.95
1.23
-10.05
-20.55
-28.87
-34.20
-36.93
-38.56
-41.06
-45.86
-53.16
-61.94
-70.52
-77.38
-81.55
-82.59
-80.29
-74.57
-65.60
-54.11
-41.54
-29.60
-19.55
-11.46
-4.15
4.07
14.15
25.45
35.76
42.35
43.42
39.21
31.87
24.42
19.33
17.52
18.33
20.33
22.23
23.37
23.66
22.96
20.86
16.82
10.69
3.14
-4.42
-10.46
-14.03
-15.28
-15.30
-15.60
-17.36
-20.94
-25.91
-31.41
-36.64
-41.21
-45.24
-49.17
-53.48
-58.49
-64.19
-70.16
-75.62
-79.38
-80.12
-76.66
-68.45
-55.77
-39.86
-22.55
-5.81
8.80
20.52
29.32
35.59
39.73
41.85
41.81
39.67
36.25
33.37
33.57
39.23
51.41
69.06
89.11
107.29
119.77
124.52
121.94
114.46
105.30
97.06
90.77
85.70
79.95
71.56
59.68
45.05
29.92
17.11
8.82
5.77
6.84
9.62
11.21
9.23
2.34
-9.52
-25.50
-44.24
-64.21
-83.97
-102.15
-117.48
-128.82
-135.18
-135.78
-130.23
-118.63
-101.90
-81.79
-60.67
-41.04
-24.88
-13.23
-6.01
-2.14
0.06
2.31
5.84
11.09
17.69
24.59
30.41
33.85
33.94
30.20
22.67
11.95
-0.70
-13.61
-25.01
-33.63
-39.06
-41.95
-43.55
-45.19
-47.64
-50.84
-54.07
-56.30
-56.55
-54.10
-48.62
-40.07
-28.82
-15.64
-1.73
11.43
22.27
29.27
31.19
27.33
17.90
4.15
-11.95
-28.25
-43.07
-55.56
-65.50
-72.88
-77.39
-78.41
-75.38
-68.30
-58.02
-45.91
-33.35
-21.33
-10.21
0.26
10.54
21.14
32.52
44.97
58.22
70.93
80.13
82.48
75.43
58.38
33.19
3.50
-26.58
-54.31
-79.53
-105.35
-135.45
-171.89
-213.52
-255.93
-292.85
-318.49
-329.76
-327.55
-317.56
-306.01
-296.91
-290.63
-284.66
-275.65
-261.31
-241.46
-218.07
-195.67
-177.00
-161.67
-146.61
-128.14
-104.11
-74.84
-42.72
0.45
54.64
113.31
166.48
206.68
231.95
244.51
247.08
243.69
236.60
225.33
210.14
192.62
175.51
161.47
152.57
150.12
154.97
167.12
184.56
205.32
227.59
249.48
268.34
280.77
283.43
274.29
253.21
221.59
183.06
142.50
104.66
72.89
48.60
31.29
19.29
10.21
1.73
-7.27
-16.53
-24.58
-29.81
-31.23
-29.25
-25.58
-22.60
-22.04
-24.42
-29.00
-34.07
-37.52
-37.39
-32.39
-22.11
-6.95
12.65
35.34
58.52
78.62
92.13
97.12
93.90
85.17
75.36
70.07
73.50
86.77
107.34
130.06
148.83
157.86
153.31
129.87
88.62
38.41
-7.31
-37.53
-48.37
-42.44
-25.40
-2.46
23.01
49.65
75.96
99.58
117.24
126.05
125.13
115.58
100.18
82.37
65.02
49.49
35.37
21.24
5.75
-7.39
-14.16
-11.11
3.70
28.55
58.90
88.80
112.87
127.82
133.15
130.95
124.11
115.63
104.61
88.85
66.68
38.78
7.98
-22.55
-50.12
-75.22
-98.57
-124.32
-153.49
-182.37
-204.51
-216.22
-220.73
-225.82
-242.42
-275.73
-329.34
-400.52
-482.37
-566.96
-649.00
-726.36
-795.45
-853.83
-854.41
-765.48
-587.33
-357.11
-124.84
73.51
212.62
309.77
381.00
435.90
471.24
480.46
459.16
408.88
336.02
248.67
156.10
63.19
-24.56
-105.63
-178.27
-240.14
-288.48
-321.84
-339.40
-339.49
-323.20
-291.39
-248.92
-202.32
-158.21
-120.81
-91.02
-64.58
-35.01
0.68
42.13
84.70
123.44
155.67
182.29
206.82
236.59
278.07
332.69
397.12
464.60
528.20
582.89
626.15
638.15
606.26
531.16
427.74
315.96
210.70
118.79
41.28
-23.27
-76.58
-117.21
-144.05
-158.17
-163.77
-166.45
-170.73
-178.87
-190.93
-204.71
-215.74
-219.40
-213.47
-199.37
-180.58
-160.64
-141.82
-125.03
-109.24
-91.67
-70.36
-45.20
-18.80
5.29
24.53
38.31
48.08
58.08
73.79
96.28
126.14
162.23
202.70
245.85
289.83
323.44
336.33
321.59
279.35
217.70
148.00
80.39
20.99
-28.33
-68.18
-98.16
-116.92
-123.07
-116.66
-101.17
-83.20
-70.00
-66.37
-72.34
-82.14
-86.90
-80.15
-59.60
-28.51
5.74
34.53
50.83
51.15
36.85
12.73
-14.64
-38.36
-52.94
-55.18
-44.47
-23.29
2.49
26.38
43.40
51.16
49.90
41.54
28.76
14.44
1.41
-8.00
-12.14
-10.83
-5.75
0.26
4.19
4.22
0.21
-6.70
-14.76
-22.28
-28.00
-31.49
-33.73
-36.60
-42.62
-54.31
-72.74
-96.15
-119.60
-136.32
-140.42
-129.65
-106.66
-77.69
-49.95
-28.29
-13.26
-1.66
10.97
27.16
45.98
63.67
76.46
82.74
84.15
84.58
87.29
92.37
95.92
91.81
73.21
39.62
-2.45
-41.84
-67.98
-75.78
-67.16
-48.99
-28.89
-11.83
1.71
13.96
27.29
42.08
56.39
66.82
70.82
67.11
56.00
39.80
21.32
2.67
-15.29
-32.89
-50.43
-67.26
-78.77
-81.69
-74.08
-56.31
-31.13
-2.66
24.80
48.31
66.91
81.15
91.53
98.29
101.81
102.77
103.06
104.95
110.30
119.28
129.58
136.65
135.48
123.39
101.37
73.81
45.49
19.38
-3.29
-22.80
-40.03
-57.06
-75.66
-97.57
-119.11
-138.82
-157.31
-174.42
-188.89
-198.45
-203.28
-204.64
-204.60
-205.54
-210.93
-225.48
-250.45
-282.12
-311.58
-330.65
-332.77
-315.27
-280.16
-221.86
-148.40
-75.57
-24.77
5.60
22.33
32.66
40.30
47.46
55.40
63.48
72.59
84.64
101.84
122.16
141.60
156.15
163.63
164.07
158.03
148.36
138.95
133.58
132.26
132.63
131.77
127.79
120.57
110.64
100.03
91.35
86.96
86.99
89.49
91.67
91.41
87.95
81.45
73.27
65.02
58.21
53.65
50.65
48.11
45.95
45.66
49.65
60.27
78.20
102.04
128.74
152.46
166.29
164.86
146.28
112.54
68.64
20.35
-30.37
-75.97
-108.02
-122.21
-120.44
-108.13
-91.60
-72.67
-52.34
-32.14
-13.46
0.63
5.68
-1.16
-20.30
-50.25
-88.40
-131.92
-176.66
-212.03
-226.41
-214.06
-179.72
-136.18
-97.00
-70.17
-57.34
-55.67
-59.03
-63.47
-66.97
-67.46
-61.40
-44.01
-11.02
37.59
94.75
148.92
187.41
201.03
187.42
151.09
101.27
49.12
3.44
-30.51
-49.69
-52.71
-39.53
-11.94
26.44
71.12
119.16
167.82
213.73
252.73
279.87
290.42
281.42
253.66
206.91
151.64
104.70
79.86
80.05
98.18
122.94
147.13
167.81
184.59
198.70
210.03
215.93
214.13
204.42
188.60
168.47
145.49
120.45
94.30
67.30
37.96
5.14
-30.39
-66.56
-102.64
-137.36
-169.09
-195.44
-213.77
-225.03
-231.34
-234.67
-237.29
-245.05
-262.65
-293.14
-337.67
-394.76
-464.56
-544.29
-625.43
-695.41
-745.22
-767.52
-759.46
-723.57
-665.22
-595.98
-526.42
-461.54
-374.51
-257.03
-119.67
13.46
104.83
154.79
172.09
166.97
155.42
149.08
151.67
164.89
189.58
226.65
278.59
343.37
409.30
460.75
484.43
473.17
432.41
375.48
317.23
269.96
237.37
214.60
197.61
184.12
171.30
158.61
146.18
133.47
119.27
99.89
71.44
33.01
-12.99
-62.58
-105.02
-127.68
-122.47
-91.09
-44.83
2.97
41.44
73.52
103.70
134.64
164.82
189.36
200.88
193.90
167.41
126.30
80.39
40.23
14.69
7.60
17.20
37.72
62.68
86.68
106.20
119.35
124.10
119.52
106.33
87.60
68.53
55.26
52.44
61.39
80.07
103.51
126.30
143.77
152.66
151.22
139.36
118.59
91.59
61.54
30.61
-0.39
-32.32
-67.08
-106.47
-150.62
-197.57
-243.79
-285.21
-318.80
-343.08
-358.34
-366.21
-369.25
-370.41
-372.31
-376.16
-380.29
-379.69
-366.54
-332.79
-273.45
-189.40
-87.90
19.28
119.52
203.10
265.26
306.11
328.95
338.10
337.55
330.60
320.10
308.61
298.08
288.64
278.13
262.44
236.86
198.66
149.07
93.68
40.67
-2.22
-30.88
-46.00
-51.80
-53.40
-54.28
-55.61
-57.57
-61.15
-68.95
-84.19
-108.34
-139.21
-171.10
-196.93
-211.66
-214.44
-208.63
-199.68
-191.89
-186.49
-181.68
-175.03
-165.66
-155.52
-148.76
-149.61
-160.34
-180.06
-205.06
-230.39
-251.87
-266.78
-273.80
-272.19
-261.26
-240.80
-211.60
-176.03
-137.97
-102.52
-74.36
-56.33
-48.83
-49.95
-56.76
-65.39
-71.89
-72.25
-64.19
-46.89
-20.89
12.40
50.61
89.51
125.46
156.05
181.55
202.55
220.78
238.33
256.69
274.68
285.60
281.33
255.18
206.15
136.24
51.45
-39.88
-128.61
-206.44
-269.56
-314.83
-339.33
-339.64
-318.33
-282.36
-241.41
-204.41
-161.06
-109.74
-55.99
-21.38
-5.85
-4.56
-8.53
-12.99
-15.13
-12.56
-7.16
-0.83
5.80
15.89
30.75
51.09
76.77
107.79
145.72
188.34
231.06
267.42
292.50
301.81
295.34
278.27
260.00
252.95
263.63
291.16
328.19
366.45
398.56
421.41
435.41
425.62
385.08
316.45
231.83
145.16
66.88
1.18
-51.92
-95.31
-132.78
-164.98
-192.12
-214.55
-233.27
-247.49
-255.52
-255.77
-247.56
-231.33
-205.89
-170.61
-125.17
-73.76
-21.34
28.50
73.78
112.67
141.91
157.77
155.88
134.17
94.45
43.91
-6.84
-47.78
-73.51
-83.88
-83.97
-80.12
-77.16
-78.75
-86.35
-98.82
-112.30
-121.51
-121.47
-109.32
-86.54
-57.70
-30.01
-10.32
-2.02
-3.45
-9.01
-13.92
-12.38
0.20
28.42
73.58
132.55
197.39
256.77
298.83
315.43
305.78
265.28
203.61
138.55
85.42
48.41
21.79
-2.75
-29.45
-57.02
-81.74
-99.24
-109.34
-115.83
-123.08
-133.04
-144.91
-156.58
-166.29
-173.76
-178.80
-182.61
-186.83
-192.71
-198.72
-201.89
-199.38
-189.98
-174.31
-153.89
-131.50
-109.99
-91.18
-75.05
-60.20
-45.19
-29.76
-14.54
-0.77
10.27
18.10
23.72
29.60
39.48
56.68
78.56
102.38
125.03
144.13
158.75
169.68
178.98
189.98
205.06
224.76
248.36
273.52
297.05
315.23
324.37
321.77
308.36
287.52
264.12
243.13
227.12
215.18
203.19
185.47
148.68
88.08
9.46
-72.81
-142.92
-191.72
-218.70
-228.68
-227.81
-220.76
-208.69
-192.06
-172.25
-151.50
-131.99
-114.71
-99.14
-83.98
-68.14
-50.30
-30.03
-9.39
7.97
17.98
17.70
6.82
-11.70
-32.95
-48.16
-50.97
-40.34
-20.75
0.31
16.18
23.69
23.44
17.49
7.42
-7.89
-31.20
-63.80
-102.60
-140.43
-167.24
-175.19
-162.33
-133.35
-97.77
-65.14
-40.64
-23.80
-10.19
4.98
23.64
44.26
63.47
78.09
86.78
90.30
89.97
86.37
78.91
67.13
51.75
34.88
18.63
4.43
-6.77
-14.24
-16.94
-13.80
-4.58
9.86
26.93
41.86
49.83
48.27
38.06
23.71
10.04
0.80
-2.63
-2.09
-2.73
-10.46
-29.29
-60.21
-99.74
-142.54
-181.73
-210.61
-219.52
-203.77
-167.04
-120.59
-83.51
-60.63
-48.75
-40.15
-24.89
4.11
49.03
107.29
172.51
234.33
281.51
302.84
291.25
245.99
172.28
79.36
-22.56
-114.48
-177.88
-203.28
-194.63
-162.80
-118.89
-71.77
-28.37
6.23
29.96
42.96
48.23
49.83
52.33
59.77
72.01
85.44
94.84
96.15
86.75
66.45
37.48
5.13
-23.45
-39.59
-38.29
-21.07
5.37
31.25
47.62
49.42
37.80
18.62
-0.92
-16.04
-26.75
-36.93
-50.82
-71.17
-98.32
-128.31
-154.02
-167.65
-160.04
-131.48
-87.71
-39.39
7.41
47.76
78.56
97.83
103.70
94.15
68.20
28.14
-16.10
-51.72
-68.99
-64.45
-42.21
-11.87
15.66
32.47
37.00
32.96
25.84
19.29
14.41
10.64
7.13
3.95
1.75
1.54
3.54
6.48
8.08
6.34
0.95
-6.72
-14.26
-19.60
-21.99
-22.58
-24.00
-29.09
-38.99
-52.11
-64.79
-71.66
-68.40
-53.44
-28.81
0.86
30.07
54.64
73.24
87.12
98.83
110.78
123.85
136.56
145.17
144.52
128.94
94.41
40.71
-26.83
-96.63
-153.01
-181.08
-172.29
-128.54
-62.47
6.63
59.66
83.29
74.65
43.02
3.68
-29.95
-51.16
-60.53
-62.54
-61.38
-58.32
-51.81
-40.18
-24.25
-7.62
4.94
10.19
8.16
2.20
-2.75
-2.26
5.07
17.61
31.32
41.66
45.00
39.50
25.58
5.47
-16.87
-37.18
-51.92
-58.70
-58.09
-53.05
-47.64
-45.79
-50.62
-63.03
-80.95
-98.46
-105.62
-93.00
-55.26
6.05
81.75
157.23
217.71
253.43
254.43
224.79
175.63
118.62
62.05
10.53
-34.49
-72.66
-107.41
-141.97
-177.08
-211.66
-240.63
-255.77
-248.65
-214.78
-155.63
-78.72
5.89
90.49
167.19
230.17
276.61
306.03
319.31
318.29
305.22
282.56
252.86
217.87
179.82
141.46
105.27
72.39
42.05
11.61
-22.02
-60.44
-103.22
-144.41
-175.13
-188.43
-183.30
-164.69
-139.72
-113.59
-88.05
-62.73
-36.31
-8.89
17.18
38.73
52.50
56.41
50.41
36.52
18.13
-0.31
-14.66
-22.25
-22.50
-16.98
-8.64
-0.78
4.90
7.23
6.59
4.50
2.98
4.03
9.62
21.83
42.67
73.38
113.40
159.83
207.24
248.55
276.75
286.93
277.41
249.64
207.06
154.06
95.58
36.83
-16.80
-60.36
-90.30
-105.51
-107.91
-101.92
-93.05
-86.01
-83.61
-86.53
-93.94
-104.27
-115.88
-127.46
-138.21
-147.82
-156.24
-163.21
-167.91
-169.03
-165.36
-156.32
-142.48
-125.48
-107.42
-90.22
-74.98
-61.78
-50.09
-39.38
-29.39
-20.03
-11.02
-1.60
9.26
22.47
38.42
56.57
75.34
92.80
107.33
118.13
125.34
129.46
130.79
129.07
123.38
111.96
93.43
67.92
37.47
5.41
-25.13
-52.50
-76.80
-99.33
-122.97
-149.67
-179.12
-208.34
-233.17
-250.46
-259.19
-260.01
-253.92
-243.59
-230.83
-215.71
-196.47
-170.80
-137.76
-98.27
-54.53
-9.59
29.32
53.02
52.29
21.44
-39.78
-126.28
-228.39
-333.79
-411.69
-435.08
-392.86
-298.25
-178.88
-59.63
45.10
130.86
198.22
249.41
283.88
301.71
304.72
296.75
283.73
270.89
260.92
253.29
245.06
227.59
196.52
153.74
107.89
70.63
50.14
47.50
57.26
71.16
81.33
84.36
81.05
74.53
67.59
60.57
51.69
39.30
23.60
6.36
-9.78
-22.21
-29.72
-31.44
-28.16
-22.50
-18.33
-19.52
-28.38
-43.97
-61.35
-74.30
-77.40
-69.01
-51.79
-31.00
-11.61
3.82
15.52
24.85
32.56
38.26
40.64
38.94
34.03
28.05
23.56
22.46
24.79
29.15
33.66
36.88
38.57
39.79
41.92
46.07
52.18
59.30
65.20
67.61
64.56
54.55
37.26
14.18
-10.90
-32.42
-44.73
-44.96
-34.23
-17.32
-0.56
11.46
17.32
18.07
15.07
8.28
-3.62
-21.31
-42.77
-63.12
-76.05
-76.71
-64.07
-41.09
-13.02
14.56
37.03
51.03
54.15
45.89
27.87
4.10
-19.90
-38.89
-49.86
-52.72
-48.32
-39.41
-27.72
-13.96
1.50
17.57
32.27
43.56
49.58
49.63
43.75
32.96
18.12
-0.20
-21.90
-46.40
-72.13
-95.54
-112.17
-118.88
-115.42
-105.85
-96.63
-93.64
-98.96
-110.33
-122.79
-132.22
-137.90
-142.14
-148.57
-159.60
-175.40
-193.93
-212.23
-227.42
-236.88
-238.10
-228.52
-206.68
-171.97
-128.85
-84.77
-47.37
-21.91
-9.85
-9.52
-17.43
-30.17
-45.00
-60.06
-73.52
-83.47
-88.44
-87.94
-82.59
-73.65
-62.72
-50.97
-39.11
-27.17
-14.84
-1.99
11.09
23.72
35.15
44.86
52.75
59.07
64.35
69.20
74.04
79.11
84.58
90.71
97.99
107.15
119.13
135.08
156.13
182.83
214.63
249.66
284.87
316.92
343.27
362.88
376.28
384.98
390.38
393.15
393.18
390.05
383.67
374.44
362.95
349.49
333.92
315.83
295.16
272.54
249.36
227.34
207.98
192.23
180.31
171.98
166.68
163.69
162.23
161.54
161.18
161.16
161.92
163.82
166.43
168.03
165.81
156.91
139.66
114.61
84.50
53.26
24.49
0.17
-19.63
-36.18
-50.99
-64.87
-77.75
-89.00
-98.28
-105.96
-113.23
-121.56
-132.26
-145.76
-161.45
-177.77
-192.82
-205.26
-214.91
-222.88
-231.16
-241.84
-256.17
-273.86
-293.01
-310.89
-324.99
-334.10
-338.61
-340.27
-341.67
-345.56
-354.30
-369.46
-391.07
-417.18
-443.26
-462.76
-468.91
-457.45
-428.08
-384.12
-330.76
-272.44
-212.27
-151.54
-90.61
-30.41
26.29
76.30
118.11
153.20
186.31
221.85
262.85
309.82
359.71
404.78
435.09
442.05
421.82
377.62
316.03
245.94
176.21
112.51
54.82
-0.88
-59.22
-122.56
-188.78
-255.64
-319.67
-376.11
-410.78
-412.37
-381.16
-331.46
-291.24
-266.81
-255.74
-252.69
-250.67
-246.30
-240.09
-234.20
-229.71
-224.84
-214.59
-196.76
-171.53
-140.75
-107.50
-75.94
-48.91
-26.53
-5.82
18.50
49.06
85.95
127.35
169.85
208.90
240.51
262.34
274.28
278.37
276.06
268.68
257.56
243.76
227.79
210.57
193.72
179.42
169.93
165.96
167.51
173.14
180.12
184.20
182.86
175.66
164.20
150.87
137.67
127.66
122.79
123.56
127.17
132.35
138.75
146.81
156.22
166.19
178.46
194.07
212.43
227.94
237.87
241.71
241.56
239.51
237.57
240.78
252.42
272.69
294.62
314.30
330.29
343.58
354.16
338.16
281.36
182.72
81.85
-7.64
-82.26
-150.05
-212.20
-268.24
-316.71
-352.03
-369.72
-368.05
-353.28
-329.79
-300.56
-266.59
-229.45
-191.11
-151.25
-110.87
-72.64
-44.49
-31.21
-34.19
-50.83
-76.67
-106.14
-131.99
-148.76
-153.49
-149.51
-141.01
-131.93
-124.08
-117.41
-109.66
-96.17
-72.31
-34.96
13.24
65.34
111.30
141.39
148.96
132.46
96.20
44.42
-12.70
-63.00
-97.10
-112.35
-111.51
-98.89
-78.20
-52.41
-24.88
0.39
18.48
25.47
20.54
7.20
-7.58
-16.66
-14.80
-0.51
24.20
53.97
82.12
103.08
113.85
114.90
108.93
101.03
96.72
100.32
112.67
130.03
144.94
149.00
136.24
104.93
59.44
8.47
-38.20
-73.10
-93.19
-99.69
-96.54
-82.75
-60.93
-34.98
-10.06
8.18
14.68
6.44
-15.96
-48.31
-83.63
-115.14
-136.70
-144.67
-138.43
-120.16
-94.14
-65.24
-37.44
-12.44
10.35
33.92
61.45
93.42
125.63
149.67
155.85
137.37
93.70
31.23
-38.22
-101.60
-148.79
-175.24
-181.64
-171.65
-149.48
-118.36
-80.80
-39.26
2.90
41.74
73.79
97.56
113.94
125.24
133.46
138.75
139.37
132.81
117.83
95.95
71.65
50.59
37.35
33.46
37.04
43.68
48.26
46.72
36.81
18.34
-6.97
-35.40
-61.63
-79.77
-85.34
-77.25
-58.59
-36.14
-17.85
-9.46
-12.64
-25.30
-43.65
-64.58
-86.56
-108.98
-131.20
-151.33
-166.78
-175.88
-179.31
-179.97
-181.07
-183.83
-186.69
-186.12
-178.58
-162.72
-140.62
-117.36
-99.60
-94.07
-105.14
-133.36
-174.58
-220.13
-258.57
-279.17
-274.93
-245.33
-197.30
-141.38
-87.81
-42.98
-8.40
17.65
37.81
54.28
67.68
76.33
79.14
75.90
67.79
56.40
42.82
27.19
9.29
-10.82
-33.54
-56.40
-75.26
-85.01
-82.34
-68.05
-47.11
-26.34
-0.76
30.76
66.59
100.78
127.25
142.63
146.98
143.02
134.74
125.21
110.96
88.69
53.76
4.12
-58.13
-126.86
-193.64
-250.24
-291.49
-317.77
-324.79
-312.36
-280.70
-230.50
-164.32
-86.97
-4.52
76.10
147.52
204.79
244.73
267.67
276.81
275.81
267.98
256.51
242.86
226.63
207.93
188.13
171.47
163.36
166.08
178.13
196.72
218.95
244.60
277.17
321.43
380.03
450.50
523.46
570.26
566.86
504.72
397.67
273.06
154.65
52.31
-31.09
-107.63
-183.45
-253.21
-306.02
-331.55
-325.51
-289.35
-232.73
-169.38
-113.98
-76.42
-59.21
-59.80
-73.54
-92.93
-108.68
-113.64
-105.88
-90.05
-73.54
-59.13
-46.29
-33.55
-20.99
-11.44
-10.85
-23.69
-50.76
-87.13
-123.67
-151.33
-164.85
-163.91
-152.18
-134.78
-115.08
-94.29
-72.44
-50.62
-32.24
-21.59
-20.74
-27.93
-38.28
-45.82
-46.31
-38.58
-24.01
-5.22
15.31
36.18
56.50
74.89
89.24
97.09
95.51
82.00
54.85
14.27
-36.60
-92.21
-145.78
-191.47
-226.01
-248.86
-260.75
-261.83
-250.38
-223.39
-178.53
-116.52
-42.25
36.10
109.51
170.96
217.18
248.73
268.73
281.11
289.26
295.57
301.23
306.01
308.14
304.30
290.32
262.88
221.19
168.09
109.45
52.40
3.29
-34.16
-59.04
-72.51
-76.56
-73.04
-63.52
-49.58
-32.94
-15.23
2.56
20.59
39.86
61.35
84.67
107.24
124.72
132.50
127.38
108.65
78.00
38.57
-5.95
-52.15
-96.96
-137.58
-171.87
-198.74
-218.69
-233.42
-244.75
-253.44
-258.60
-258.33
-250.96
-236.47
-216.90
-195.68
-176.31
-161.15
-150.97
-145.20
-143.07
-144.26
-149.04
-157.51
-168.83
-180.53
-188.73
-189.14
-178.17
-154.47
-119.49
-77.31
-33.40
7.03
40.38
65.37
82.47
93.16
98.61
99.29
95.54
88.40
80.18
73.97
72.41
76.14
83.91
92.10
96.34
93.39
82.50
65.45
45.52
26.14
9.80
-0.93
-4.92
-2.08
7.31
23.25
46.22
76.81
115.06
160.03
211.71
268.29
326.44
382.07
431.43
471.93
502.29
522.15
531.53
532.80
526.51
511.11
484.09
444.02
392.45
334.23
276.51
210.30
135.03
55.62
-19.83
-85.18
-139.22
-184.12
-222.26
-254.29
-279.41
-294.06
-297.10
-290.49
-278.41
-264.93
-252.12
-240.00
-227.79
-215.39
-201.71
-187.15
-172.95
-160.36
-149.80
-140.56
-131.55
-121.96
-111.78
-100.47
-88.23
-75.91
-64.45
-54.32
-45.44
-37.48
-30.13
-23.47
-17.25
-11.61
-7.04
-3.97
-2.87
-3.80
-6.45
-10.35
-15.13
-20.32
-25.73
-31.37
-37.37
-43.66
-49.94
-55.83
-61.02
-65.45
-68.86
-70.54
-69.42
-64.31
-54.61
-40.87
-24.85
-8.90
4.76
15.00
21.95
26.51
29.62
31.72
32.68
32.27
30.56
28.07
25.63
23.92
23.12
23.00
23.11
23.06
22.72
22.29
22.26
23.21
25.64
29.80
35.61
42.71
50.56
58.55
66.21
73.22
79.27
83.87
86.27
85.78
81.94
74.78
64.87
53.10
40.42
27.47
14.48
1.34
-11.95
-25.07
-37.34
-47.93
-56.12
-61.65
-64.71
-66.09
-66.65
-66.87
-66.60
-65.22
-62.03
-56.56
-48.82
-39.15
-28.77
-18.87
-9.85
-1.26
7.85
18.05
29.25
40.75
51.59
59.33
61.82
58.44
50.56
40.89
32.16
26.45
24.89
27.53
30.87
30.36
22.89
8.33
-10.30
-28.42
-41.54
-46.74
-44.03
-39.95
-43.73
-63.05
-101.18
-156.26
-223.29
-295.48
-364.98
-404.97
-393.50
-325.85
-219.89
-104.82
-4.85
67.14
109.13
126.81
129.65
124.06
113.85
101.34
86.07
68.76
49.28
26.48
-0.34
-30.13
-61.82
-92.85
-112.55
-114.55
-97.31
-64.65
-22.87
22.59
68.40
111.07
146.81
172.18
185.29
185.85
175.25
156.32
132.13
105.31
77.02
48.08
20.62
-2.70
-18.67
-25.25
-22.21
-10.80
7.32
31.40
59.16
87.32
110.59
122.36
116.22
88.98
43.21
-12.37
-65.37
-104.19
-121.66
-117.11
-95.11
-63.19
-28.52
4.07
32.47
56.47
76.22
91.87
103.20
109.50
108.72
98.35
76.49
43.50
2.71
-40.61
-80.29
-111.11
-130.14
-138.39
-139.14
-136.41
-133.57
-133.11
-137.31
-147.42
-162.60
-172.53
-166.74
-140.57
-99.91
-57.49
-25.09
-8.87
-8.23
-17.98
-31.47
-44.96
-57.76
-70.49
-84.13
-96.02
-102.71
-101.69
-92.68
-77.53
-60.41
-45.85
-36.62
-32.65
-31.18
-28.68
-21.86
-10.27
5.67
24.24
43.13
60.31
74.14
83.37
86.76
83.36
73.04
57.01
37.18
15.87
-4.17
-20.56
-31.43
-35.91
-34.12
-26.92
-15.51
-1.03
15.65
34.93
57.38
83.33
112.30
143.00
173.50
201.31
224.38
240.84
250.65
254.34
253.18
249.02
244.00
239.72
236.05
232.20
226.51
219.09
210.49
201.64
193.41
186.33
180.68
176.09
173.46
162.38
136.82
94.87
39.82
-21.26
-80.23
-126.06
-158.42
-178.98
-190.50
-194.20
-191.00
-181.36
-165.45
-143.64
-117.24
-89.65
-64.42
-45.33
-34.12
-31.38
-36.44
-47.58
-62.16
-77.76
-93.87
-110.63
-129.10
-149.17
-169.21
-185.53
-192.50
-183.76
-155.26
-108.30
-49.37
11.13
62.46
96.26
108.60
97.31
66.02
24.55
-14.73
-42.48
-55.81
-56.81
-49.52
-37.51
-23.12
-7.24
9.13
24.08
34.93
39.75
38.72
33.92
28.33
24.83
25.44
30.57
39.25
49.45
59.36
68.26
76.25
83.93
91.74
100.54
109.30
115.97
117.70
111.70
95.83
69.09
32.08
-12.81
-61.55
-109.52
-152.35
-186.61
-210.32
-222.93
-225.05
-217.61
-200.94
-174.94
-139.93
-97.30
-50.00
-2.48
40.03
72.29
90.34
92.30
78.07
48.27
5.57
-44.56
-92.04
-123.61
-129.66
-110.12
-74.06
-33.87
1.14
26.11
44.53
60.37
75.58
89.62
100.56
106.96
109.17
108.91
107.47
105.12
100.44
90.96
74.57
51.09
22.44
-7.56
-34.21
-53.75
-65.02
-68.41
-66.99
-66.03
-70.88
-84.64
-106.09
-127.12
-139.58
-136.80
-116.85
-83.73
-45.24
-9.30
19.23
39.65
54.09
64.66
72.57
77.61
78.96
76.73
72.32
67.94
66.01
68.13
74.06
82.67
92.22
100.64
106.94
110.79
112.87
112.85
110.40
104.56
94.24
78.49
56.39
28.75
-2.53
-34.88
-65.69
-92.71
-114.82
-132.04
-145.46
-156.70
-165.94
-172.49
-175.18
-173.23
-166.45
-155.34
-140.64
-119.62
-94.51
-66.39
-35.85
-3.50
29.58
61.92
91.91
118.48
139.88
153.14
156.29
148.01
127.75
96.24
56.05
11.90
-27.38
-53.61
-62.34
-53.83
-33.59
-10.15
8.51
18.21
19.43
15.82
11.03
6.73
2.80
-1.89
-7.96
-14.75
-20.52
-23.65
-23.76
-22.09
-20.68
-21.27
-24.44
-29.48
-35.06
-39.62
-42.26
-43.15
-43.51
-44.94
-48.90
-56.01
-65.91
-77.77
-90.22
-101.91
-111.69
-119.27
-123.44
-123.17
-117.41
-105.30
-86.62
-61.59
-31.23
2.66
37.42
70.80
100.79
125.89
146.24
160.69
168.68
170.00
164.71
153.42
137.39
118.01
96.77
75.10
54.03
34.72
18.15
5.15
-3.41
-6.73
-4.67
2.24
12.69
24.58
35.95
45.25
51.54
54.70
55.21
53.65
50.71
47.03
43.20
39.61
35.94
30.43
20.47
3.46
-21.83
-54.17
-90.01
-124.59
-153.68
-175.11
-189.73
-200.38
-210.47
-222.47
-237.14
-253.82
-271.24
-288.43
-303.15
-313.75
-317.76
-311.34
-289.90
-249.74
-190.54
-116.80
-37.25
38.01
100.58
146.27
174.87
188.03
187.40
173.85
149.05
117.32
86.42
65.50
61.88
77.71
108.92
147.02
182.24
207.11
218.28
216.64
205.12
186.87
164.02
137.88
109.77
81.37
54.79
31.43
11.66
-6.69
-27.48
-54.15
-87.37
-123.75
-157.08
-179.87
-186.78
-174.52
-144.18
-100.44
-49.85
1.12
47.55
85.92
115.93
138.61
158.45
179.50
204.05
232.08
261.83
291.11
316.82
337.99
353.70
366.65
378.89
391.24
403.37
414.62
425.29
435.05
445.82
434.47
386.63
300.25
187.89
68.80
-41.54
-125.68
-188.91
-237.06
-273.53
-295.50
-299.73
-287.07
-261.75
-232.36
-209.66
-204.60
-221.21
-257.21
-302.26
-344.43
-375.14
-391.92
-397.94
-398.38
-398.02
-396.75
-392.20
-380.08
-357.47
-323.71
-279.77
-227.72
-170.10
-111.01
-54.29
-4.10
37.78
73.00
105.32
138.22
171.61
201.21
220.12
223.60
211.23
187.93
162.43
143.02
134.66
138.02
150.91
170.19
192.71
213.92
227.45
228.40
215.35
192.67
169.89
158.47
167.48
199.70
250.32
298.34
322.73
310.86
265.10
199.20
128.09
60.36
-2.24
-60.99
-116.21
-163.90
-198.39
-215.93
-217.15
-206.86
-192.54
-179.85
-171.44
-167.44
-165.39
-162.76
-158.75
-154.55
-152.62
-155.17
-163.25
-176.41
-193.15
-210.45
-221.65
-221.32
-206.42
-177.29
-137.49
-92.69
-48.65
-9.94
21.56
46.37
66.33
83.39
98.99
115.91
134.57
154.55
174.79
193.82
209.63
219.76
221.77
214.02
196.49
170.97
140.47
108.23
76.86
45.97
15.61
-14.86
-46.62
-80.50
-116.17
-150.05
-176.33
-188.70
-183.48
-161.36
-127.56
-89.61
-57.02
-32.47
-16.10
-6.76
-1.89
1.91
8.48
21.56
42.42
69.41
99.29
128.79
156.46
182.64
207.23
227.80
238.65
232.67
205.34
158.33
99.33
39.32
-11.89
-49.12
-72.35
-84.65
-89.43
-88.71
-83.34
-75.15
-67.72
-65.61
-72.13
-87.07
-106.42
-124.15
-134.97
-136.82
-131.45
-122.93
-115.18
-110.37
-108.77
-109.41
-111.29
-113.76
-116.81
-120.11
-122.94
-124.27
-123.47
-120.75
-116.79
-112.44
-108.28
-104.56
-100.80
-96.36
-90.93
-84.82
-78.38
-70.99
-61.14
-46.93
-27.69
-3.83
22.64
48.91
72.26
91.25
106.53
120.03
135.42
152.87
170.66
186.41
198.99
206.98
206.95
194.50
165.32
118.13
55.63
-14.54
-79.51
-124.29
-138.55
-121.95
-83.35
-35.12
12.78
52.10
84.17
110.19
128.97
137.40
132.14
111.59
77.15
33.01
-14.52
-57.34
-88.14
-102.08
-98.33
-80.44
-54.59
-27.22
-2.97
15.96
29.67
38.17
40.66
35.46
21.36
-0.59
-26.50
-50.84
-68.78
-77.95
-79.61
-77.40
-75.50
-76.61
-81.01
-86.82
-91.37
-92.55
-89.69
-83.74
-76.41
-69.44
-64.12
-61.12
-60.61
-62.46
-66.19
-70.95
-75.83
-80.33
-84.99
-91.26
-100.46
-112.10
-122.64
-125.70
-114.12
-83.14
-32.90
30.80
98.75
161.80
214.17
254.49
284.48
306.34
320.99
328.27
328.42
323.27
315.46
306.55
295.50
278.81
252.61
215.83
172.22
129.74
97.55
81.75
82.16
92.14
101.37
100.83
87.05
63.65
39.14
22.00
15.68
16.40
15.10
2.24
-26.51
-67.56
-110.81
-144.68
-161.62
-161.57
-151.72
-143.30
-147.13
-169.47
-209.66
-260.38
-309.74
-345.06
-357.32
-344.01
-309.26
-261.58
-210.06
-161.25
-118.35
-82.15
-52.87
-31.02
-17.17
-10.37
-7.14
-2.17
9.19
28.41
52.97
77.66
97.25
108.70
111.57
107.10
96.97
82.99
67.83
55.31
49.31
51.57
60.12
69.29
72.21
64.74
47.84
27.07
9.39
-0.92
-4.73
-7.41
-16.05
-36.46
-70.84
-117.50
-171.80
-227.64
-278.37
-317.60
-340.03
-342.59
-325.29
-291.15
-245.26
-193.83
-143.28
-99.36
-66.26
-45.60
-35.88
-32.25
-27.57
-14.62
11.35
50.70
99.22
149.79
195.24
230.03
251.92
262.28
265.02
264.60
264.14
264.68
265.68
266.27
264.99
260.03
249.02
229.20
197.91
154.06
99.43
38.70
-17.03
-55.21
-67.98
-55.94
-26.14
12.57
53.18
91.22
123.89
150.59
169.84
180.31
182.28
178.36
172.84
169.99
172.30
179.55
189.36
197.20
198.75
191.95
177.64
158.48
137.14
114.87
91.84
68.27
44.77
22.84
4.28
-9.82
-19.93
-28.01
-37.18
-49.54
-65.27
-83.47
-103.22
-124.04
-145.63
-167.55
-189.00
-210.17
-231.03
-251.55
-272.27
-294.29
-318.67
-345.85
-375.46
-406.55
-439.47
-472.27
-499.94
-515.54
-513.40
-491.97
-455.26
-411.41
-369.54
-338.84
-321.99
-314.77
-308.76
-295.94
-271.82
-236.12
-191.60
-125.77
-39.04
57.26
146.38
215.74
261.34
285.90
294.67
292.57
283.57
268.07
247.51
224.72
203.14
184.67
169.28
155.60
142.08
128.17
112.30
94.96
77.99
64.56
56.99
55.98
61.04
70.73
83.01
93.93
100.01
99.13
91.15
77.60
61.21
45.27
32.33
23.49
17.61
13.00
8.50
4.19
1.11
-1.00
-2.09
-2.55
-3.06
-4.41
-6.96
-10.64
-15.20
-20.62
-27.00
-33.89
-40.13
-43.89
-43.36
-37.80
-28.22
-17.26
-8.39
-4.45
-6.44
-13.50
-23.46
-34.01
-43.61
-51.71
-58.55
-64.52
-69.70
-73.66
-75.97
-76.60
-76.04
-75.07
-74.09
-72.89
-70.60
-66.09
-58.58
-48.14
-35.66
-22.40
-9.41
3.17
15.71
28.61
41.80
54.53
65.52
73.63
78.38
80.46
82.04
85.15
90.62
97.73
104.69
109.73
111.91
111.24
108.58
105.94
104.23
103.04
101.32
98.58
95.88
95.45
99.29
108.67
125.18
148.23
175.63
204.73
233.80
262.81
292.62
323.27
354.59
388.21
424.25
460.73
493.18
515.31
521.01
506.14
469.53
398.23
292.23
163.32
32.17
-80.44
-162.61
-213.98
-237.72
-246.44
-250.35
-252.68
-253.70
-252.43
-248.03
-242.12
-235.17
-227.11
-217.90
-206.06
-188.06
-162.27
-130.16
-96.17
-65.99
-43.44
-29.25
-21.87
-18.19
-15.53
-14.78
-19.63
-34.07
-59.51
-93.09
-129.05
-161.99
-187.20
-201.40
-204.71
-200.01
-190.47
-177.65
-161.07
-140.14
-115.98
-91.27
-69.06
-51.30
-37.86
-26.48
-14.30
0.65
18.14
36.00
50.98
59.45
58.57
46.99
25.49
-2.71
-32.09
-55.20
-64.77
-57.40
-35.50
-6.26
21.41
40.76
49.66
50.64
48.53
47.17
47.53
47.96
46.34
41.76
35.08
27.88
21.03
14.22
6.38
-3.12
-14.11
-25.07
-34.58
-42.60
-50.62
-60.56
-73.05
-86.50
-96.26
-98.66
-91.92
-77.17
-57.77
-37.47
-18.81
-2.67
10.97
22.14
30.12
34.21
34.21
31.13
26.97
23.91
23.47
25.76
29.62
33.19
35.02
34.69
33.02
31.58
31.83
34.22
37.88
40.89
41.27
38.00
31.58
23.71
16.69
12.19
10.59
10.79
10.91
9.15
4.64
-2.75
-12.77
-25.06
-38.77
-51.85
-60.76
-62.84
-57.42
-46.65
-35.18
-27.71
-26.00
-27.91
-28.68
-24.16
-14.31
-3.62
1.27
-4.32
-19.36
-37.24
-48.89
-48.02
-34.42
-13.88
5.31
16.75
18.26
11.99
2.12
-8.11
-17.21
-25.49
-33.39
-40.88
-47.38
-52.80
-57.75
-63.31
-70.10
-76.84
-81.05
-79.65
-71.17
-56.89
-40.38
-26.00
-17.00
-13.79
-13.56
-11.76
-3.76
11.62
31.33
49.22
59.13
57.78
46.25
29.75
12.18
-1.68
-9.75
-13.39
-15.69
-18.99
-23.28
-26.28
-24.90
-17.69
-5.12
10.33
25.74
39.65
52.22
64.57
77.59
91.61
105.44
117.63
126.81
132.46
135.61
138.23
142.54
149.84
159.67
169.08
174.71
174.77
170.89
167.82
170.86
182.96
203.23
227.30
248.31
259.96
257.87
240.28
207.77
162.50
107.96
48.85
-9.80
-64.83
-115.03
-160.99
-204.22
-245.68
-285.83
-324.50
-360.94
-386.25
-391.47
-370.90
-325.63
-263.00
-192.32
-121.83
-57.38
-2.39
42.07
75.89
100.60
118.90
133.53
146.87
159.60
169.85
174.55
171.46
159.50
139.78
114.83
87.32
59.74
32.44
4.53
-25.58
-59.12
-97.41
-142.05
-189.44
-236.02
-275.84
-301.97
-307.84
-290.65
-253.98
-207.96
-166.13
-140.24
-135.59
-141.46
-143.24
-127.78
-91.36
-41.36
10.70
57.22
97.71
136.21
176.42
216.08
248.02
264.09
260.18
239.81
213.53
191.00
178.25
176.06
179.52
181.84
178.08
166.86
150.43
132.03
113.23
93.17
69.10
37.10
-6.37
-57.94
-111.85
-160.56
-197.47
-219.64
-228.46
-228.93
-227.58
-230.51
-240.17
-255.28
-271.29
-282.62
-284.65
-274.33
-251.16
-217.67
-180.08
-145.06
-117.58
-98.69
-85.46
-72.45
-54.14
-27.71
11.73
59.22
103.27
133.10
145.52
144.50
136.22
125.07
112.58
98.72
82.68
65.83
51.40
42.64
40.70
43.94
48.83
51.67
50.10
43.07
32.19
20.91
12.72
9.57
10.91
14.80
18.85
21.33
21.24
19.21
16.67
14.38
12.23
8.85
2.26
-8.97
-24.82
-44.12
-64.07
-81.46
-93.71
-98.89
-95.97
-84.82
-66.62
-44.14
-21.58
-2.94
9.07
14.38
15.57
16.23
19.15
24.93
32.02
37.81
40.84
40.89
39.08
37.08
36.03
36.29
37.68
39.94
40.01
37.06
31.54
25.26
20.72
19.44
20.79
21.70
17.86
6.36
-12.20
-33.92
-53.13
-64.86
-67.20
-61.61
-51.43
-39.56
-26.68
-12.17
3.89
19.95
33.63
43.14
48.91
53.60
60.78
73.79
92.86
115.18
137.06
156.12
172.08
186.51
201.70
219.07
239.54
261.05
278.69
286.25
278.63
254.80
219.64
183.36
150.13
125.17
108.01
90.97
63.68
20.85
-33.11
-86.52
-127.49
-150.55
-157.60
-156.64
-155.72
-157.93
-160.57
-157.73
-145.30
-123.70
-97.53
-72.48
-54.48
-47.27
-51.45
-64.05
-79.30
-90.53
-92.11
-80.93
-56.95
-24.45
8.58
33.21
42.27
32.26
4.11
-36.99
-83.17
-124.39
-150.46
-156.51
-143.96
-118.48
-87.08
-55.76
-28.30
-6.55
8.67
17.49
21.18
23.29
28.99
42.46
64.06
89.40
110.66
120.14
115.13
96.07
67.79
37.27
10.45
-9.64
-22.79
-30.51
-34.12
-34.03
-29.08
-19.72
-7.31
6.26
19.27
31.04
41.37
50.64
59.40
67.63
74.69
79.15
79.91
77.07
72.07
66.63
62.32
60.36
61.29
64.20
66.80
67.38
65.59
62.54
59.43
56.64
54.33
52.15
48.46
40.16
24.83
0.83
-28.07
-59.53
-93.22
-129.15
-168.00
-199.91
-217.62
-218.57
-206.08
-185.89
-163.17
-142.09
-133.91
-137.49
-150.44
-171.40
-198.32
-228.68
-260.89
-284.59
-296.94
-283.27
-237.40
-163.76
-75.51
13.17
92.93
160.38
215.61
257.11
284.59
298.23
299.49
292.39
280.64
267.90
256.74
247.65
235.82
216.88
188.21
150.40
106.52
60.13
13.59
-28.86
-65.94
-102.37
-142.72
-189.64
-243.12
-301.41
-362.21
-422.20
-476.46
-497.12
-466.31
-384.61
-272.60
-158.26
-62.82
4.71
46.42
70.91
88.03
101.09
108.85
111.12
109.62
107.55
107.98
112.42
119.64
127.39
130.12
123.28
106.04
81.35
54.10
28.81
8.38
-6.19
-14.90
-20.53
-25.56
-31.24
-35.32
-34.53
-26.32
-9.98
13.43
42.03
72.03
99.56
122.18
139.15
150.44
156.13
155.90
144.84
123.17
92.86
56.98
19.32
-16.17
-46.59
-70.55
-88.28
-100.97
-109.96
-115.49
-116.69
-111.88
-99.11
-77.33
-46.33
-6.74
39.49
88.70
135.25
171.77
190.85
187.93
163.44
123.52
78.13
37.23
7.70
-8.60
-14.25
-13.52
-9.96
-5.50
-0.93
3.20
5.85
6.29
4.88
2.89
2.37
5.00
11.10
19.20
26.31
29.23
24.63
11.31
-9.06
-31.72
-50.07
-58.34
-53.82
-38.12
-16.57
4.07
18.75
25.62
26.15
23.31
19.19
14.03
6.63
-4.17
-18.08
-32.62
-44.34
-49.99
-46.84
-35.51
-19.09
-1.73
12.77
21.66
24.85
23.22
19.18
16.26
17.26
22.90
31.38
38.91
41.08
35.16
20.77
1.61
-16.50
-29.08
-35.64
-39.98
-46.20
-59.00
-81.05
-112.62
-149.50
-184.44
-209.83
-220.25
-213.36
-190.27
-155.64
-110.67
-64.74
-29.43
-11.82
-11.22
-22.58
-40.55
-61.31
-82.73
-103.06
-121.23
-135.09
-143.64
-146.07
-143.82
-139.65
-135.83
-133.48
-132.22
-131.37
-129.27
-124.28
-115.55
-103.49
-91.41
-81.68
-75.42
-72.36
-71.68
-71.81
-71.21
-69.09
-65.92
-63.06
-61.62
-62.22
-64.79
-68.90
-73.58
-77.78
-80.65
-81.90
-81.59
-79.54
-75.30
-68.29
-57.98
-43.97
-26.21
-5.14
18.36
43.20
68.52
93.63
118.05
141.33
163.03
182.82
200.62
216.47
230.35
241.77
249.49
251.55
245.93
231.23
207.29
175.28
137.23
95.60
52.89
11.84
-24.41
-52.26
-68.17
-69.71
-56.53
-30.75
3.52
41.48
79.07
113.86
145.40
174.44
201.88
227.99
252.43
274.59
294.30
311.95
328.42
344.69
361.36
378.15
393.91
407.08
416.27
420.92
421.26
417.92
411.60
402.03
387.48
365.12
332.33
288.01
233.92
174.04
113.10
55.92
5.11
-39.98
-82.54
-126.32
-174.29
-226.32
-280.46
-333.98
-381.38
-416.54
-434.36
-432.25
-410.47
-373.49
-326.39
-275.69
-227.91
-183.37
-138.47
-89.30
-35.40
19.09
64.58
93.89
102.29
89.67
66.99
50.62
55.41
89.00
150.21
228.49
313.82
395.81
437.27
412.70
320.41
184.88
40.17
-72.34
-154.97
-215.62
-259.49
-288.46
-301.00
-293.90
-269.29
-235.98
-205.78
-190.53
-192.12
-206.59
-227.29
-242.23
-241.51
-222.38
-190.37
-155.41
-128.17
-111.13
-101.34
-93.07
-75.97
-41.31
13.80
85.55
166.10
246.04
319.69
383.08
418.16
412.24
362.81
280.48
183.98
92.05
17.11
-34.92
-64.96
-79.16
-83.26
-82.31
-80.19
-79.78
-82.63
-89.09
-97.90
-107.29
-116.17
-123.06
-128.62
-135.69
-148.27
-169.10
-197.34
-227.61
-251.49
-260.77
-249.31
-216.00
-165.18
-105.07
-44.77
8.19
49.30
77.19
92.51
97.98
97.21
93.91
89.76
86.19
83.53
81.22
78.49
74.53
69.89
66.21
65.55
69.13
76.76
86.63
96.30
103.68
106.85
104.72
96.91
83.53
65.20
43.17
19.10
-5.18
-28.37
-51.42
-76.61
-106.30
-141.38
-180.50
-220.39
-257.29
-288.44
-305.84
-304.69
-284.57
-249.78
-207.03
-162.22
-118.94
-78.77
-42.44
-10.22
16.89
38.33
54.38
65.96
74.06
79.32
82.10
82.80
82.29
81.08
79.77
78.98
79.05
79.81
80.72
81.20
81.13
81.37
82.36
84.08
85.88
86.22
83.10
74.74
60.04
38.79
11.60
-19.99
-53.23
-83.86
-106.49
-115.79
-108.68
-86.24
-53.85
-19.16
10.63
31.18
42.04
45.37
44.01
39.69
32.58
22.33
9.66
-3.24
-13.04
-17.03
-15.06
-10.59
-9.21
-17.05
-37.55
-69.05
-104.53
-133.88
-146.78
-139.33
-114.22
-79.12
-42.83
-11.73
11.58
27.59
38.20
45.57
51.76
59.89
72.61
91.02
112.91
132.63
142.63
136.48
111.89
71.63
22.89
-25.77
-67.12
-96.85
-113.66
-118.38
-113.05
-100.29
-83.06
-64.24
-46.26
-30.44
-17.16
-5.74
5.09
16.47
28.95
42.23
55.08
65.71
72.29
73.65
69.69
61.39
50.52
38.93
28.11
18.89
11.80
7.25
5.66
7.29
12.15
19.86
28.96
38.08
45.96
51.87
55.73
58.07
59.66
60.97
61.70
60.79
56.92
49.17
37.73
24.12
10.81
0.34
-5.43
-5.73
-0.67
9.20
23.04
39.62
57.22
73.84
87.83
98.74
107.72
117.08
129.15
144.95
163.50
182.16
197.90
208.53
213.44
213.41
209.68
203.08
193.45
179.85
161.18
136.96
107.63
74.50
39.16
3.16
-32.20
-65.70
-96.10
-122.08
-142.67
-157.74
-168.23
-175.98
-183.01
-190.58
-198.54
-205.31
-208.58
-206.36
-197.97
-184.38
-167.92
-151.44
-137.45
-127.41
-121.64
-119.45
-119.65
-120.71
-120.96
-118.65
-112.23
-100.90
-84.90
-65.66
-45.40
-26.50
-10.68
1.33
9.73
15.15
18.05
18.39
15.75
9.71
0.37
-11.39
-23.98
-35.52
-44.42
-49.90
-52.29
-52.93
-53.58
-55.72
-59.80
-65.08
-69.93
-72.67
-72.39
-69.41
-65.04
-60.90
-58.07
-56.73
-56.35
-56.15
-55.72
-55.49
-56.63
-60.77
-69.09
-81.59
-96.61
-111.09
-121.63
-125.73
-122.81
-114.08
-101.92
-88.55
-75.16
-61.74
-47.34
-30.58
-9.96
15.92
47.47
82.71
116.22
139.52
143.59
123.03
79.29
21.44
-36.39
-80.11
-100.97
-98.43
-79.48
-55.04
-35.04
-25.20
-25.80
-32.57
-38.98
-38.84
-28.23
-6.22
25.39
63.28
103.00
139.43
167.90
185.29
190.97
186.85
176.34
162.98
149.42
136.25
122.07
104.83
83.28
57.65
29.56
2.13
-19.66
-29.22
-21.12
5.51
45.26
87.30
118.65
128.57
112.50
71.70
17.42
-32.56
-63.27
-70.51
-59.93
-40.50
-19.11
1.03
19.39
36.53
51.88
63.24
68.51
67.55
62.73
57.76
55.84
58.72
66.59
77.74
89.03
97.45
101.63
102.19
101.02
100.10
100.21
101.62
103.66
104.88
103.92
100.41
95.17
89.84
85.45
82.85
82.56
84.34
87.17
89.65
90.57
89.24
85.76
79.83
71.72
62.04
51.16
38.80
23.89
4.44
-22.83
-54.75
-90.69
-129.84
-170.32
-208.95
-241.37
-262.99
-270.41
-262.64
-241.47
-211.96
-179.63
-148.82
-121.81
-98.69
-78.18
-58.68
-39.01
-18.66
1.36
19.83
35.49
47.33
54.82
58.07
57.75
54.89
50.67
45.72
40.72
36.42
33.58
32.73
33.84
36.12
38.18
38.51
35.69
29.16
19.21
6.76
-6.95
-20.69
-33.49
-44.71
-53.99
-61.29
-66.60
-69.96
-71.33
-70.70
-68.18
-64.00
-58.57
-52.34
-45.87
-39.75
-34.60
-30.94
-29.06
-28.81
-29.61
-30.68
-31.36
-31.41
-30.88
-29.96
-28.59
-26.50
-23.40
-19.38
-15.11
-11.72
-10.33
-11.52
-15.03
-19.85
-24.69
-28.41
-30.43
-30.84
-30.18
-29.24
-28.69
-28.86
-29.77
-31.21
-33.00
-35.08
-37.60
-40.72
-44.31
-47.84
-50.39
-51.05
-49.35
-45.67
-41.11
-37.12
-34.73
-34.12
-34.49
-34.45
-32.80
-29.09
-23.91
-18.50
-14.20
-11.90
-11.91
-14.22
-18.72
-25.30
-33.59
-42.75
-51.46
-58.38
-62.62
-64.07
-63.13
-60.06
-54.55
-45.77
-33.04
-16.70
1.50
18.85
32.75
41.79
46.26
47.66
47.76
47.63
47.34
46.20
43.58
39.52
34.85
30.75
28.13
27.18
27.32
27.62
27.29
26.04
24.07
21.80
19.61
17.64
15.94
14.54
13.55
13.22
13.85
15.86
19.68
25.79
34.72
46.64
60.90
75.82
89.09
98.50
102.67
101.57
96.64
90.58
86.42
86.31
90.51
97.44
104.35
108.27
106.91
99.50
87.34
72.98
58.93
46.54
36.07
27.12
18.75
9.51
-2.24
-17.05
-33.61
-48.71
-57.95
-56.78
-42.24
-14.61
21.53
55.72
76.32
77.86
63.51
40.73
16.00
-7.42
-29.01
-49.21
-67.93
-83.49
-93.50
-96.46
-92.93
-85.09
-75.54
-66.50
-59.17
-53.76
-49.36
-44.79
-39.65
-34.89
-32.21
-33.11
-38.11
-46.57
-56.78
-66.38
-72.86
-74.51
-71.00
-63.18
-52.55
-40.72
-29.11
-18.83
-10.51
-4.52
-1.24
-1.02
-4.22
-10.87
-20.56
-32.48
-45.61
-58.93
-71.57
-83.05
-93.03
-101.48
-108.38
-113.59
-116.86
-117.79
-115.98
-110.95
-103.71
-94.76
-84.42
-72.87
-59.99
-45.66
-29.85
-12.63
5.92
25.81
47.28
70.18
93.60
115.86
134.74
148.15
154.94
155.43
151.29
145.08
139.09
134.63
132.01
130.52
128.97
126.23
121.71
115.49
108.19
100.54
92.89
85.76
79.16
72.40
64.05
52.57
36.82
16.66
-6.83
-31.29
-52.17
-65.30
-68.81
-63.86
-54.07
-43.90
-37.21
-35.88
-39.17
-41.49
-35.66
-15.93
19.27
66.23
117.01
162.31
195.35
214.80
228.04
245.70
275.86
320.37
375.25
434.35
492.73
548.13
579.10
569.36
512.10
413.21
287.85
153.47
25.10
-86.67
-175.65
-237.37
-273.64
-287.92
-286.70
-279.33
-275.39
-281.03
-295.60
-312.94
-323.73
-318.30
-291.97
-247.83
-194.64
-143.54
-99.69
-65.43
-42.25
-31.94
-35.12
-50.32
-73.68
-99.14
-119.24
-127.41
-121.24
-102.91
-77.80
-51.87
-30.14
-16.50
-13.89
-24.34
-48.18
-82.23
-118.67
-146.38
-155.50
-142.56
-111.72
-71.49
-30.27
6.46
36.27
58.64
73.20
79.30
76.94
66.73
50.97
33.23
17.91
8.52
6.47
10.56
17.98
25.61
31.25
34.39
36.03
37.89
41.10
46.21
52.07
56.83
58.83
57.30
52.72
46.21
38.98
31.66
23.87
13.91
-0.23
-20.55
-48.69
-85.60
-131.17
-183.71
-240.09
-290.90
-327.01
-341.20
-330.44
-297.00
-247.60
-190.89
-134.48
-83.05
-38.03
1.17
36.09
67.98
97.01
122.04
141.29
153.10
156.46
151.40
139.40
123.57
108.24
97.98
96.82
108.13
134.13
174.76
221.37
259.75
274.63
257.67
212.25
151.06
89.55
39.54
6.00
-12.88
-22.16
-26.39
-27.48
-25.26
-19.35
-10.64
-1.69
4.25
4.60
-0.94
-10.23
-19.57
-25.62
-26.81
-23.59
-18.16
-13.07
-10.29
-10.17
-11.31
-11.39
-8.62
-2.82
4.30
9.62
9.81
2.41
-13.34
-36.56
-64.31
-94.12
-123.40
-148.83
-165.86
-169.64
-157.08
-129.00
-90.50
-49.86
-15.63
6.78
16.46
16.18
9.92
0.81
-9.80
-21.11
-31.90
-39.99
-41.19
-32.67
-14.91
7.24
26.03
33.72
26.82
6.50
-21.95
-51.31
-75.38
-90.18
-93.80
-85.48
-65.36
-33.95
5.70
48.17
87.23
117.72
137.51
147.57
150.85
145.56
133.40
115.82
93.85
68.79
42.44
17.02
-6.09
-26.61
-45.25
-62.51
-79.25
-95.80
-111.41
-125.44
-135.73
-140.19
-137.08
-125.43
-105.14
-78.76
-51.18
-28.35
-15.40
-14.19
-22.73
-35.80
-47.18
-51.79
-47.92
-37.10
-22.32
-7.86
3.32
9.66
11.11
8.94
5.34
2.64
2.44
5.15
9.77
14.62
17.79
17.94
14.69
8.86
2.40
-1.70
0.47
12.38
35.37
67.08
101.51
131.15
149.94
155.69
150.38
138.58
125.04
113.00
103.93
98.29
95.92
95.61
94.14
85.86
64.38
25.52
-29.66
-93.61
-154.09
-198.20
-216.92
-208.17
-177.33
-135.03
-93.68
-63.37
-49.32
-51.53
-65.71
-85.58
-104.88
-118.55
-122.98
-115.61
-94.62
-59.34
-11.12
45.97
105.55
160.22
203.28
230.46
240.66
235.49
218.37
193.23
163.70
132.88
103.03
75.50
50.72
28.45
8.12
-10.64
-27.82
-42.93
-55.45
-65.27
-72.93
-79.56
-86.49
-94.75
-104.71
-115.86
-126.82
-135.51
-139.57
-136.90
-126.28
-107.82
-82.95
-54.05
-23.72
5.81
32.96
56.88
77.31
94.37
108.39
119.77
128.77
135.45
139.73
141.54
141.05
138.68
134.95
130.25
124.82
118.92
113.08
108.02
104.18
101.30
98.21
93.28
85.23
74.01
60.92
48.06
37.27
29.28
23.58
18.91
14.00
7.93
0.19
-9.63
-21.92
-36.72
-53.31
-69.96
-84.14
-93.23
-95.32
-89.79
-77.55
-60.71
-42.07
-24.45
-10.21
-0.84
3.09
1.90
-3.48
-11.77
-21.60
-31.56
-40.33
-46.85
-50.40
-50.84
-48.53
-44.28
-39.12
-34.11
-30.17
-27.99
-27.83
-29.38
-31.78
-33.83
-34.47
-33.26
-30.62
-27.77
-26.17
-27.06
-31.02
-37.90
-46.98
-57.37
-68.17
-78.56
-87.76
-94.83
-98.66
-98.19
-92.85
-82.86
-69.35
-54.04
-38.58
-23.96
-10.31
2.85
15.91
28.48
39.32
46.81
49.95
49.15
46.13
43.25
42.34
43.98
47.43
51.10
53.42
53.37
51.07
47.14
42.47
37.87
34.04
31.54
30.73
31.60
33.65
36.59
39.94
43.30
46.46
49.54
52.97
57.14
62.01
66.92
71.50
75.05
76.91
76.74
74.80
72.03
69.78
69.11
70.34
73.75
78.35
82.10
82.54
77.82
67.69
53.78
38.42
17.19
-12.06
-48.96
-89.92
-129.78
-164.28
-191.29
-210.14
-220.83
-222.53
-212.26
-187.42
-148.26
-99.11
-48.53
-6.81
18.39
24.58
15.22
-1.56
-17.57
-27.61
-30.46
-27.25
-21.71
-14.25
-3.62
11.16
29.09
46.15
56.97
57.92
49.19
34.63
19.97
9.00
1.99
-3.27
-9.29
-16.35
-21.96
-22.41
-15.79
-3.36
10.39
20.20
22.82
18.41
10.05
2.07
-1.66
0.65
8.76
20.96
35.20
50.01
64.71
79.16
93.46
107.81
121.63
133.81
143.20
149.33
152.80
154.88
156.80
159.25
162.33
164.63
163.86
157.90
145.75
127.92
105.82
81.05
51.60
19.31
-10.84
-32.72
-42.56
-40.39
-29.16
-13.32
2.54
16.60
28.74
38.79
46.06
49.43
48.10
41.86
31.13
16.82
0.41
-16.51
-33.46
-51.01
-70.22
-91.73
-114.99
-139.95
-165.63
-190.12
-211.18
-227.81
-240.16
-249.12
-255.17
-257.70
-257.31
-253.91
-247.06
-236.65
-224.45
-214.00
-210.07
-217.38
-225.34
-227.40
-220.85
-205.90
-181.83
-146.18
-96.80
-35.55
31.13
94.03
142.57
170.76
178.11
171.84
160.06
149.72
144.70
145.66
150.41
153.58
150.61
140.03
124.35
108.51
99.43
102.04
117.63
142.96
170.10
189.83
194.35
179.62
145.83
97.42
41.26
-15.09
-65.06
-104.74
-132.69
-149.68
-157.59
-159.01
-156.90
-154.39
-153.90
-156.08
-159.60
-161.97
-161.13
-156.16
-147.13
-134.27
-117.16
-94.62
-65.37
-29.18
11.33
50.16
79.76
93.31
86.51
58.68
12.65
-45.64
-104.38
-148.35
-165.49
-153.14
-118.72
-74.05
-29.24
9.15
37.46
54.10
59.57
55.69
46.89
39.98
41.39
53.69
73.25
91.26
97.83
86.07
50.23
-6.88
-76.67
-148.94
-215.46
-271.35
-313.86
-340.48
-348.74
-337.31
-306.52
-259.61
-202.05
-139.77
-77.03
-15.43
46.09
109.70
176.88
247.74
319.77
388.20
447.52
493.41
524.18
540.77
546.05
543.45
536.10
525.86
513.43
499.03
482.79
464.55
442.23
412.78
373.44
323.45
264.34
199.49
133.30
70.24
13.90
-35.04
-77.04
-112.39
-140.58
-161.28
-175.37
-184.87
-192.12
-198.85
-207.97
-221.60
-240.34
-263.45
-290.25
-321.27
-357.92
-401.67
-439.22
-458.83
-456.38
-436.98
-407.49
-369.99
-322.43
-263.29
-194.93
-124.14
-61.69
-16.59
8.07
15.67
13.13
6.83
0.26
-5.76
-11.48
-18.22
-26.17
-33.93
-39.45
-41.64
-40.89
-39.40
-38.74
-39.69
-43.07
-48.93
-56.78
-66.01
-76.78
-89.61
-105.46
-124.70
-146.62
-169.82
-191.95
-210.42
-223.08
-229.07
-228.15
-221.00
-208.46
-191.02
-168.78
-141.26
-107.65
-66.85
-23.27
19.20
56.89
87.30
109.58
124.60
134.41
141.66
149.09
159.03
173.69
193.66
217.24
240.19
256.58
260.71
249.28
222.91
185.73
144.10
103.46
66.77
34.40
5.40
-20.76
-43.44
-61.08
-72.37
-76.80
-75.21
-68.99
-59.05
-45.22
-26.89
-4.09
21.53
46.71
67.59
80.77
84.27
78.23
64.79
46.98
27.77
9.37
-6.88
-20.18
-29.92
-35.59
-36.56
-31.63
-20.04
-2.06
20.65
45.14
67.68
84.70
93.52
93.49
87.66
80.11
74.36
72.16
73.39
76.96
81.51
85.47
88.26
92.95
101.62
114.20
128.54
141.97
153.34
163.45
173.28
184.91
204.68
235.88
277.28
323.55
368.00
406.09
436.69
460.21
480.86
510.19
556.73
622.66
702.94
788.01
868.52
938.09
991.87
983.51
886.67
702.07
459.95
202.91
-35.00
-235.34
-381.13
-484.05
-554.54
-593.89
-604.05
-591.26
-563.78
-531.53
-503.02
-482.82
-473.94
-474.46
-476.69
-473.51
-462.49
-446.66
-433.13
-429.23
-439.62
-466.35
-500.27
-525.22
-526.06
-495.67
-437.50
-362.95
-284.77
-212.08
-150.18
-99.77
-59.29
-27.66
-4.39
12.22
25.29
39.90
61.14
90.89
127.19
161.78
185.65
192.33
180.73
154.18
117.96
76.59
33.76
-10.05
-53.21
-91.80
-121.36
-138.71
-143.47
-138.14
-126.90
-114.07
-102.78
-94.18
-86.80
-79.82
-72.94
-66.48
-61.05
-57.20
-55.10
-54.43
-54.24
-53.20
-50.40
-45.35
-38.22
-29.65
-20.55
-11.71
-3.60
3.91
11.34
18.97
26.78
34.34
41.05
46.48
50.63
53.94
57.07
60.52
64.25
67.82
70.72
72.60
73.51
73.78
73.71
73.29
72.23
70.13
66.79
62.48
57.70
52.88
48.04
42.79
36.57
29.09
20.68
12.15
4.48
-1.76
-6.60
-10.61
-14.40
-18.23
-21.82
-24.54
-25.90
-25.86
-25.10
-24.76
-26.02
-29.51
-35.08
-41.82
-48.37
-53.43
-56.12
-56.18
-53.88
-49.74
-44.26
-37.72
-30.26
-22.00
-13.20
-4.27
4.31
12.26
19.50
26.23
32.80
39.45
46.21
52.81
58.74
63.37
66.16
66.85
65.60
62.93
59.58
56.22
53.17
50.37
47.47
44.13
40.31
36.37
32.85
30.17
28.41
27.21
25.93
24.04
21.36
18.16
15.06
12.65
11.31
11.01
11.38
11.83
11.64
10.08
6.55
0.79
-6.87
-15.36
-22.99
-27.91
-28.70
-24.93
-17.41
-7.87
1.61
9.29
14.26
16.44
16.28
14.32
10.91
6.16
0.08
-7.11
-14.88
-22.40
-28.72
-33.12
-35.24
-35.27
-33.75
-31.39
-28.87
-26.67
-25.00
-23.80
-22.91
-22.09
-21.27
-20.56
-20.10
-19.79
-19.02
-16.65
-11.30
-2.03
10.92
25.88
39.95
50.30
55.31
55.49
53.43
52.85
57.16
68.17
85.70
107.85
132.34
157.38
181.96
205.74
228.70
251.01
273.23
295.93
318.62
338.61
350.24
346.01
319.64
269.43
200.15
122.17
47.49
-15.14
-63.26
-100.52
-133.48
-167.31
-203.07
-237.36
-264.41
-279.72
-282.15
-274.42
-261.55
-248.57
-238.11
-229.91
-221.21
-208.56
-190.66
-169.48
-149.53
-135.67
-130.92
-135.25
-146.47
-161.81
-175.03
-181.53
-178.70
-166.50
-146.45
-120.18
-88.31
-51.02
-9.16
34.70
76.47
111.57
136.23
149.45
153.33
151.87
148.55
145.15
140.60
131.85
114.73
85.26
42.40
-10.88
-68.03
-120.42
-159.31
-179.93
-177.11
-146.92
-95.09
-34.38
21.07
62.03
86.22
101.27
113.37
124.84
133.63
135.10
125.25
102.32
65.89
17.40
-37.77
-91.97
-135.31
-159.34
-159.77
-137.51
-97.64
-49.51
-7.05
22.30
31.89
18.09
-18.44
-71.57
-131.24
-178.89
-199.21
-185.24
-140.25
-76.92
-10.48
43.85
81.25
101.01
105.53
98.72
86.50
76.13
72.75
79.53
94.58
111.35
121.01
117.85
101.15
75.81
49.86
29.65
17.85
11.51
5.73
-4.70
-22.77
-48.42
-78.09
-103.42
-116.83
-114.36
-97.34
-70.89
-41.63
-14.42
8.98
29.17
47.17
62.51
73.55
78.79
78.54
75.00
71.27
70.60
74.72
82.83
91.95
97.06
93.73
79.97
56.72
26.78
-5.31
-35.15
-60.08
-79.75
-95.78
-109.75
-121.81
-130.69
-135.57
-136.00
-133.01
-129.04
-126.61
-126.86
-128.12
-126.67
-114.51
-91.91
-64.63
-40.02
-23.58
-14.77
-11.77
-13.44
-20.73
-36.01
-61.34
-93.97
-124.99
-141.71
-132.92
-94.95
-34.16
34.90
94.94
132.20
141.91
127.73
97.58
58.70
14.59
-33.53
-83.59
-129.98
-163.93
-175.80
-160.28
-119.81
-64.45
-7.78
38.83
70.57
89.81
103.19
117.50
136.05
157.80
179.24
196.69
208.05
213.17
213.42
211.23
209.92
212.12
218.73
228.00
235.20
234.00
218.64
186.60
140.44
87.74
38.24
1.16
-17.13
-14.38
7.31
42.86
86.10
131.24
173.34
205.97
221.20
211.73
173.88
109.89
28.53
-56.97
-136.47
-196.48
-228.17
-232.46
-218.51
-196.85
-174.14
-152.25
-130.57
-108.32
-85.68
-64.92
-49.10
-39.98
-36.81
-37.11
-37.81
-36.36
-31.67
-24.10
-16.01
-10.45
-9.29
-12.15
-16.68
-19.99
-19.76
-15.02
-6.78
1.99
7.55
6.80
-1.81
-18.52
-42.42
-71.24
-99.61
-121.26
-130.36
