1594380033.00
64.000000
-0.00
-0.00
-0.00
-0.00
-0.00
-0.00
-0.00
-0.00
-0.00
-0.00
0.00
0.01
0.01
-0.00
-0.03
-0.05
-0.05
0.00
0.13
0.36
0.66
1.01
1.37
1.72
2.06
2.40
2.79
3.24
3.80
4.42
5.06
5.66
6.20
6.68
7.15
7.68
8.31
9.14
10.09
11.04
11.88
12.56
13.14
13.76
14.65
15.96
17.91
20.32
22.90
25.38
27.58
29.57
31.68
34.32
37.81
42.54
48.15
54.10
59.83
64.97
69.58
74.14
79.34
85.71
93.76
103.00
112.62
121.73
129.77
136.75
143.30
150.75
157.77
166.64
177.95
191.79
206.97
220.57
228.25
225.36
208.53
176.87
132.76
80.05
23.07
-34.94
-92.44
-149.16
-205.23
-260.37
-313.74
-363.87
-409.83
-450.91
-486.50
-515.74
-537.23
-549.22
-549.96
-538.37
-514.21
-478.67
-433.88
-382.45
-327.02
-269.84
-212.63
-156.66
-102.95
-52.37
-5.90
35.58
71.43
101.35
125.50
144.38
158.69
169.15
176.37
180.75
182.57
182.07
179.51
175.23
169.65
163.18
156.15
148.81
141.30
133.69
126.02
118.33
110.69
103.16
95.80
88.68
81.83
75.25
68.95
62.95
57.25
51.86
46.78
42.03
37.59
33.45
29.61
26.07
22.81
19.83
17.11
14.67
12.48
10.54
8.83
7.35
6.07
4.97
4.05
3.27
2.62
2.09
1.65
1.30
1.01
0.79
0.61
0.47
0.37
0.28
0.22
0.18
0.15
0.13
0.13
0.13
0.13
0.14
0.17
0.22
0.29
0.36
0.41
0.41
0.36
0.25
0.12
0.01
-0.05
-0.03
0.05
0.15
0.20
0.19
0.10
-0.02
-0.10
-0.09
0.03
0.22
0.41
0.49
0.41
0.19
-0.08
-0.25
-0.17
0.18
0.70
1.18
1.39
1.18
0.60
-0.09
-0.52
-0.38
0.40
1.57
2.63
3.02
2.43
0.96
-0.85
-2.24
-2.56
-1.62
0.15
1.83
2.45
1.42
-1.13
-4.38
-7.22
-8.80
-8.93
-8.33
-8.22
-9.92
-14.41
-22.11
-32.89
-45.83
-59.08
-69.82
-74.80
-71.39
-58.83
-38.90
-15.56
6.29
22.60
31.62
34.13
32.62
29.73
27.05
24.87
22.91
21.16
20.42
21.96
26.53
33.50
40.95
46.37
48.06
46.16
42.55
39.82
40.01
43.36
47.96
50.18
45.70
30.98
4.84
-30.57
-69.98
-105.98
-131.49
-142.35
-138.95
-125.97
-110.61
-99.56
-96.67
-101.78
-111.06
-118.66
-118.86
-108.25
-87.23
-60.27
-34.81
-19.01
-18.90
-35.84
-65.74
-100.33
-129.95
-146.72
-146.62
-129.97
-100.19
-63.54
-27.36
1.45
18.01
20.59
10.56
-8.06
-30.07
-50.95
-68.38
-82.28
-94.08
-105.10
-115.15
-122.09
-122.78
-114.75
-97.80
-74.76
-50.40
-29.47
-14.70
-5.65
0.76
8.79
21.90
41.31
65.59
91.39
114.84
132.92
144.09
148.39
146.73
140.30
130.17
117.36
103.24
89.90
80.30
78.01
86.18
106.41
137.72
176.34
216.51
251.96
277.73
291.50
294.10
289.01
281.00
274.68
273.07
277.09
285.62
296.00
304.99
309.67
308.08
299.27
282.95
258.95
227.09
187.62
142.01
93.27
45.62
3.31
-30.76
-55.91
-73.61
-86.52
-97.13
-106.52
-114.06
-117.73
-115.12
-104.55
-85.85
-60.61
-31.89
-3.50
21.10
39.45
50.60
54.98
53.94
49.01
41.20
30.46
15.61
-5.13
-33.23
-68.56
-108.60
-148.71
-183.28
-207.73
-220.09
-221.45
-215.19
-205.25
-194.55
-184.31
-174.42
-164.28
-153.67
-142.86
-132.04
-120.64
-107.19
-89.83
-67.35
-40.06
-9.99
19.78
46.35
68.14
85.44
100.09
114.53
130.56
148.55
167.31
184.64
198.33
206.95
210.14
208.23
201.68
190.41
173.71
150.55
120.07
82.01
37.02
-13.29
-66.39
-118.95
-167.30
-208.00
-238.68
-258.74
-269.43
-273.29
-273.13
-270.91
-267.18
-261.23
-251.81
-237.90
-219.16
-195.92
-168.77
-138.25
-104.80
-69.07
-32.25
3.81
36.90
64.99
86.83
102.18
111.64
116.12
116.24
112.02
102.96
88.55
68.81
44.71
18.05
-9.02
-34.58
-57.45
-77.16
-93.73
-107.26
-117.83
-125.56
-130.82
-134.14
-135.98
-136.23
-134.05
-128.14
-117.40
-101.61
-81.77
-59.85
-38.11
-18.32
-1.43
12.37
23.36
31.86
38.08
42.20
44.39
44.94
44.21
42.53
40.17
37.44
34.67
32.22
30.33
28.92
27.37
24.49
18.72
8.53
-7.12
-28.22
-53.52
-80.59
-106.34
-127.70
-142.30
-148.95
-147.75
-139.87
-127.21
-111.96
-96.22
-81.69
-69.49
-59.99
-52.85
-47.15
-41.68
-35.27
-27.18
-17.12
-5.38
7.44
20.61
33.38
45.04
54.93
62.33
66.61
67.32
64.53
58.93
51.82
44.89
39.78
37.81
39.65
45.27
54.08
65.02
76.87
88.48
99.01
108.07
115.63
121.92
127.19
131.57
134.97
137.19
138.01
137.37
135.33
132.09
127.88
122.93
117.52
112.01
106.84
102.38
98.73
95.54
91.99
87.03
79.95
70.77
60.48
50.65
42.77
37.46
34.21
31.63
28.23
23.07
16.10
7.89
-0.75
-9.23
-17.23
-24.66
-31.55
-38.00
-44.21
-50.39
-56.48
-61.91
-65.67
-66.74
-64.68
-60.12
-54.63
-49.99
-47.34
-46.65
-46.85
-46.55
-44.89
-41.89
-38.27
-34.76
-31.52
-28.00
-23.29
-16.64
-7.89
2.56
14.06
25.94
37.65
48.63
58.12
65.13
68.73
68.21
63.27
53.76
39.53
20.30
-4.02
-32.93
-64.94
-97.52
-127.41
-151.28
-166.51
-171.81
-167.68
-156.23
-140.53
-123.60
-107.38
-92.22
-77.17
-60.71
-41.84
-20.60
1.97
24.45
45.77
65.59
84.18
101.94
118.90
134.52
147.85
158.01
164.63
168.15
169.68
170.64
172.13
174.49
177.22
179.42
180.39
180.20
179.61
179.66
181.03
183.67
186.79
189.24
189.98
188.38
184.26
177.89
169.91
161.35
153.54
147.93
145.68
147.28
152.28
159.48
167.33
174.58
180.65
185.55
189.39
191.64
190.74
184.28
169.91
146.42
114.53
76.77
36.48
-3.44
-41.51
-77.83
-113.44
-149.45
-186.44
-224.51
-263.45
-302.93
-342.27
-379.99
-413.76
-440.82
-458.93
-467.20
-466.37
-458.22
-444.61
-426.57
-404.19
-377.32
-346.41
-313.10
-279.92
-249.35
-222.74
-199.76
-178.72
-157.46
-134.35
-108.95
-81.97
-54.76
-28.77
-5.08
15.61
32.84
46.23
55.52
60.74
62.42
61.56
59.51
57.59
56.83
57.73
60.25
63.98
68.41
73.16
77.95
82.37
85.59
86.26
82.81
74.23
60.85
44.66
28.88
16.80
10.50
10.10
13.92
19.47
24.55
27.74
28.16
24.90
16.83
2.98
-16.52
-39.91
-64.01
-85.41
-101.82
-112.91
-119.96
-124.63
-127.46
-127.09
-120.73
-105.40
-79.44
-43.38
0.15
47.19
93.62
136.00
172.08
200.63
220.96
232.34
233.89
224.93
205.61
177.41
143.15
106.18
69.09
32.75
-3.49
-40.68
-78.51
-114.20
-142.83
-158.98
-158.93
-142.29
-112.39
-75.22
-37.76
-6.23
15.11
24.34
21.81
9.64
-8.80
-29.49
-48.45
-62.44
-69.55
-69.36
-62.88
-52.30
-40.40
-29.83
-22.66
-20.03
-22.08
-28.13
-36.87
-46.79
-56.41
-64.63
-70.88
-75.11
-77.34
-77.31
-74.19
-66.77
-54.22
-36.80
-16.40
3.82
20.37
30.68
34.01
31.50
25.55
18.66
12.53
7.71
3.96
0.94
-1.11
-1.23
1.90
9.38
21.43
37.31
55.63
74.93
94.19
112.79
130.03
144.65
154.53
157.12
150.50
134.48
111.30
85.46
62.64
48.21
45.81
56.54
78.77
108.77
141.88
173.89
202.13
225.98
246.56
265.82
285.47
306.11
327.02
346.37
361.64
370.23
369.95
359.41
338.43
308.12
270.67
228.82
185.15
141.58
99.23
58.63
20.00
-16.68
-51.58
-85.19
-118.23
-151.41
-185.25
-220.20
-256.79
-295.61
-336.87
-379.46
-420.53
-455.71
-480.40
-491.28
-487.35
-469.79
-440.91
-403.01
-357.84
-307.07
-252.93
-198.63
-147.83
-103.45
-66.73
-37.04
-12.59
8.65
27.99
45.93
62.29
76.59
88.40
97.47
103.84
107.73
109.56
109.78
108.97
107.79
107.22
108.54
113.18
122.35
136.65
155.77
178.49
203.03
227.41
249.86
269.15
284.70
296.51
304.86
309.80
310.84
306.94
296.94
280.18
256.98
228.58
196.70
162.87
128.19
93.35
59.12
26.54
-3.05
-28.40
-48.96
-65.04
-77.73
-88.40
-98.15
-107.33
-115.47
-121.49
-124.20
-122.85
-117.49
-109.08
-99.18
-89.46
-81.17
-75.06
-71.35
-69.95
-70.59
-72.72
-75.48
-77.82
-78.81
-78.11
-76.26
-74.64
-75.09
-79.35
-88.47
-102.50
-120.48
-140.51
-160.28
-177.62
-191.10
-200.42
-206.43
-210.65
-214.57
-218.93
-223.30
-226.36
-226.50
-222.65
-214.68
-203.50
-190.50
-176.99
-163.66
-150.42
-136.74
-122.19
-107.02
-92.18
-78.98
-68.32
-60.17
-53.40
-46.31
-37.46
-26.36
-13.68
-0.79
10.92
20.76
28.77
35.31
40.59
44.34
45.97
44.86
40.66
33.45
23.80
12.77
1.92
-6.82
-11.48
-10.58
-3.56
8.99
25.50
43.98
62.57
79.82
94.85
107.06
116.14
122.02
125.01
125.83
125.42
124.67
124.07
123.64
122.99
121.55
118.81
114.54
108.85
102.05
94.51
86.48
77.99
68.81
58.49
46.52
32.46
15.99
-2.81
-23.41
-44.63
-64.74
-81.76
-93.90
-100.34
-101.44
-98.76
-94.34
-89.91
-86.22
-82.90
-78.97
-73.60
-66.61
-58.64
-50.76
-43.90
-38.46
-34.34
-31.15
-28.66
-26.93
-26.19
-26.55
-27.64
-28.60
-28.23
-25.52
-20.03
-12.25
-3.52
4.37
9.75
11.70
10.46
7.39
4.44
3.45
5.44
10.28
16.83
23.42
28.53
31.09
30.72
27.43
21.58
13.76
4.84
-4.03
-11.77
-17.65
-21.81
-25.26
-29.44
-35.53
-43.85
-53.57
-63.14
-70.90
-75.82
-77.79
-77.57
-76.31
-75.06
-74.36
-74.16
-73.93
-72.96
-70.62
-66.68
-61.30
-54.91
-47.91
-40.47
-32.46
-23.62
-13.95
-4.02
5.02
11.65
14.43
12.60
6.26
-3.60
-15.43
-27.64
-38.97
-48.75
-56.85
-63.52
-69.20
-74.50
-80.22
-87.32
-96.69
-108.92
-123.96
-141.08
-158.83
-175.26
-188.22
-195.64
-195.95
-188.39
-173.36
-152.37
-127.70
-101.76
-76.31
-52.13
-29.07
-6.63
15.38
36.39
55.21
70.48
81.34
87.83
90.99
92.33
93.29
94.68
96.49
98.04
98.43
96.93
93.18
87.13
78.88
68.50
56.06
41.85
26.49
10.94
-3.63
-16.08
-25.35
-30.26
-29.10
-19.82
-0.72
28.08
63.54
99.72
129.24
145.99
147.46
135.54
115.17
91.80
69.21
48.67
29.94
12.92
-1.40
-11.21
-15.11
-13.16
-6.91
1.48
10.41
19.33
28.25
36.99
44.68
49.67
50.01
44.05
31.16
12.04
-11.02
-34.46
-54.25
-66.93
-70.62
-65.18
-51.83
-32.24
-7.96
19.85
49.91
80.42
109.14
134.01
154.13
170.34
184.69
199.35
215.36
231.96
246.93
257.37
261.07
257.26
246.79
231.72
214.41
196.82
180.13
164.96
151.90
141.86
136.21
136.36
143.14
156.22
173.71
192.30
208.01
217.26
217.88
209.48
193.25
171.11
145.02
116.58
87.11
57.87
30.10
4.83
-17.60
-37.74
-56.77
-75.96
-95.94
-116.45
-136.45
-154.76
-170.60
-183.98
-195.57
-206.11
-215.92
-224.52
-230.94
-234.31
-234.55
-232.54
-229.61
-226.61
-223.27
-218.09
-208.94
-194.20
-173.50
-148.00
-119.91
-91.87
-66.34
-45.37
-30.48
-22.43
-20.82
-23.94
-29.04
-33.14
-33.98
-30.80
-24.44
-16.98
-10.82
-7.87
-8.91
-13.59
-20.80
-29.37
-38.50
-47.98
-57.96
-68.61
-79.67
-90.24
-98.87
-103.83
-103.61
-97.39
-85.40
-68.96
-50.22
-31.53
-14.82
-1.18
9.07
15.95
19.29
18.57
13.16
2.91
-11.48
-28.57
-46.54
-63.80
-79.08
-91.45
-100.03
-104.00
-102.73
-96.21
-85.23
-71.33
-56.49
-42.78
-32.10
-26.07
-25.81
-31.56
-42.28
-55.46
-67.52
-74.81
-74.76
-66.68
-51.79
-32.61
-11.90
8.10
25.99
41.19
53.51
63.00
70.00
75.26
79.93
85.20
91.78
99.37
106.66
111.68
112.60
108.40
99.28
86.43
71.57
56.20
41.17
26.55
11.82
-3.63
-19.98
-36.67
-52.42
-65.44
-73.96
-76.71
-73.26
-64.04
-50.32
-34.01
-17.51
-3.47
5.62
7.95
2.93
-8.45
-23.66
-39.21
-51.45
-57.55
-56.02
-46.90
-31.33
-11.04
12.26
36.95
61.41
83.77
101.85
113.70
118.34
116.28
109.22
98.92
86.18
70.59
51.60
30.26
10.41
-1.84
-0.52
17.00
47.94
84.51
116.65
135.85
137.71
122.59
94.20
57.66
18.27
-18.64
-47.63
-63.74
-64.17
-49.79
-25.48
1.50
24.63
40.98
52.16
62.81
77.62
98.70
124.63
151.50
175.06
192.79
204.77
213.40
222.11
234.00
250.80
272.42
297.00
321.22
340.85
351.29
348.34
328.98
292.27
239.94
176.47
108.34
42.66
-14.58
-59.85
-92.61
-114.90
-130.17
-141.86
-152.12
-161.33
-168.21
-170.78
-167.64
-158.88
-146.14
-131.75
-117.49
-103.90
-90.44
-76.40
-61.82
-47.73
-35.64
-26.47
-19.98
-14.70
-8.60
-0.13
10.98
23.49
34.75
41.32
39.82
27.71
4.11
-30.00
-71.80
-117.25
-161.89
-201.61
-233.82
-258.01
-276.14
-292.03
-309.38
-329.35
-348.93
-361.58
-360.26
-341.27
-306.35
-262.16
-216.59
-174.56
-135.82
-95.67
-48.16
10.55
80.33
157.06
233.90
302.91
356.39
387.96
394.03
374.79
334.43
279.79
217.96
153.55
87.58
18.52
-55.40
-133.29
-210.33
-278.60
-329.65
-357.38
-360.08
-340.81
-306.44
-266.01
-228.73
-202.68
-193.58
-203.73
-231.13
-269.31
-308.42
-337.54
-347.68
-334.11
-297.24
-241.59
-173.75
-100.55
-27.90
39.56
98.31
145.96
181.52
205.45
219.48
225.78
226.03
220.89
210.10
193.38
171.41
146.47
122.22
102.61
90.78
88.10
93.91
105.89
120.93
135.97
148.91
159.26
168.29
178.63
193.19
213.95
240.84
271.47
301.75
327.14
344.02
350.60
346.96
334.54
315.47
292.04
266.65
241.94
220.65
205.12
196.50
194.14
195.83
198.86
201.52
203.93
207.71
214.33
223.56
232.75
237.92
235.75
225.26
207.96
186.56
163.21
138.52
112.28
84.99
59.13
38.73
27.50
26.38
32.28
38.84
38.84
27.13
2.55
-32.08
-71.58
-110.51
-145.14
-174.21
-198.57
-220.26
-241.74
-265.21
-292.07
-322.04
-352.20
-376.92
-389.09
-382.79
-356.11
-312.55
-259.93
-207.13
-160.30
-120.73
-85.57
-50.70
-14.15
22.13
52.79
71.40
72.93
55.32
19.82
-29.55
-86.41
-142.62
-189.33
-218.44
-224.47
-206.07
-166.62
-113.15
-54.36
1.84
50.09
88.00
115.37
132.68
139.84
135.80
119.43
90.98
53.38
12.20
-25.88
-55.56
-75.28
-87.68
-98.04
-111.14
-128.37
-146.74
-160.21
-162.72
-151.12
-126.55
-93.52
-57.34
-21.51
13.59
49.80
89.10
131.42
173.89
211.97
241.57
260.93
271.15
275.11
275.68
274.24
270.27
262.12
248.23
228.07
202.39
172.68
140.59
107.57
74.94
44.01
16.08
-8.04
-28.60
-47.26
-66.84
-90.13
-118.46
-150.62
-182.99
-211.20
-232.26
-246.37
-256.86
-268.42
-284.38
-304.68
-325.88
-343.17
-353.32
-356.60
-356.73
-358.58
-365.46
-377.32
-390.48
-399.19
-397.49
-380.78
-346.48
-294.16
-225.45
-144.36
-57.43
26.80
99.52
154.54
190.75
212.89
229.66
249.83
277.93
311.95
344.05
364.18
364.81
344.13
306.29
259.03
210.11
165.02
126.36
94.97
71.30
56.23
50.68
54.65
66.58
83.04
99.50
111.48
115.54
109.87
94.29
69.55
36.60
-3.72
-50.46
-101.59
-153.27
-200.03
-236.50
-260.08
-272.97
-281.90
-295.15
-318.36
-350.94
-385.82
-412.33
-420.98
-407.57
-374.30
-327.85
-275.88
-224.11
-175.61
-132.00
-95.11
-67.70
-52.53
-50.58
-60.08
-76.75
-95.68
-113.30
-128.56
-142.64
-157.52
-174.20
-191.80
-207.67
-218.37
-220.98
-213.96
-197.39
-172.54
-141.33
-105.63
-66.94
-26.29
15.74
58.78
102.57
146.80
191.09
235.06
278.12
319.19
356.44
387.26
408.82
418.93
416.99
404.40
384.13
359.60
333.58
307.50
281.72
256.35
231.92
209.65
190.85
176.19
165.14
156.09
147.04
136.38
123.39
108.15
91.08
72.43
52.12
29.84
5.53
-20.21
-46.03
-69.90
-89.66
-103.61
-111.09
-112.80
-110.63
-107.16
-104.69
-104.47
-106.34
-108.88
-110.23
-108.98
-104.85
-98.71
-92.09
-86.34
-81.89
-77.93
-72.68
-64.14
-50.94
-32.95
-11.41
11.46
33.14
51.42
64.80
72.50
74.15
69.37
57.65
38.57
12.31
-19.83
-55.09
-89.64
-119.28
-140.53
-151.33
-151.40
-141.89
-124.73
-102.06
-75.89
-48.23
-21.20
3.02
22.42
35.67
42.39
43.29
39.84
33.97
27.53
22.05
18.50
17.36
18.65
22.19
27.87
35.78
46.20
59.19
74.12
89.33
102.22
109.87
110.08
102.25
87.86
70.10
52.77
39.06
30.58
27.14
27.48
30.08
33.85
38.19
42.53
45.83
46.58
43.33
35.61
24.40
12.02
1.32
-5.37
-6.96
-3.63
3.57
13.33
24.56
36.66
49.53
63.47
78.92
96.06
114.39
132.70
149.30
162.70
172.30
178.68
183.29
187.85
193.56
200.70
208.63
216.08
221.56
223.62
220.97
212.42
196.96
174.04
143.92
108.16
69.73
32.58
0.84
-22.23
-34.93
-37.40
-31.33
-19.45
-5.14
7.82
15.51
14.37
1.89
-22.64
-57.91
-100.91
-147.68
-194.29
-237.24
-273.57
-300.64
-316.17
-318.58
-307.60
-284.88
-253.87
-219.25
-185.67
-156.61
-133.65
-116.51
-103.69
-93.33
-83.99
-74.91
-65.85
-56.63
-46.90
-35.98
-23.13
-7.79
10.07
29.86
50.49
70.68
89.28
105.46
118.83
129.40
137.38
143.05
146.65
148.38
148.37
146.72
143.57
139.20
134.02
128.53
123.21
118.32
113.80
109.13
103.41
95.45
83.92
67.75
46.60
21.26
-6.17
-32.53
-54.38
-68.89
-74.64
-71.94
-62.61
-49.34
-34.98
-21.90
-11.61
-4.61
-0.46
1.84
3.35
4.55
4.91
3.06
-2.69
-13.42
-29.04
-48.12
-68.31
-87.08
-102.38
-113.10
-119.22
-121.55
-121.44
-120.23
-118.80
-117.25
-114.94
-110.80
-103.79
-93.43
-79.93
-64.00
-46.59
-28.52
-10.34
7.70
25.64
43.72
62.32
81.68
101.57
121.14
138.98
153.63
164.13
170.60
174.35
177.56
182.49
190.73
202.46
216.36
229.94
240.20
244.53
241.25
229.98
211.51
187.50
160.09
131.49
103.78
78.68
57.44
40.69
28.34
19.49
12.69
6.16
-1.68
-11.87
-24.65
-39.54
-55.64
-71.95
-87.72
-102.46
-115.91
-127.90
-138.15
-146.37
-152.39
-156.33
-158.70
-160.22
-161.46
-162.55
-162.94
-161.64
-157.64
-150.45
-140.40
-128.62
-116.58
-105.40
-95.45
-86.19
-76.46
-65.05
-51.17
-34.67
-16.07
3.72
23.73
43.14
61.45
78.36
93.77
107.58
119.81
130.57
140.16
149.05
157.70
166.29
174.51
181.61
186.63
188.89
188.24
184.93
179.09
170.28
157.21
138.09
111.40
76.68
35.02
-10.97
-57.56
-100.49
-135.53
-159.09
-168.88
-164.64
-148.44
-124.51
-98.21
-74.62
-57.25
-47.30
-43.98
-45.23
-48.78
-52.93
-56.76
-60.15
-63.54
-67.79
-73.89
-82.75
-94.65
-109.01
-124.28
-138.39
-149.40
-156.18
-158.53
-156.94
-152.05
-144.14
-133.17
-119.11
-102.32
-83.65
-64.13
-44.54
-25.07
-5.41
14.77
35.39
55.71
74.62
91.08
104.53
115.11
123.41
130.21
136.24
142.11
148.33
155.27
163.05
171.36
179.43
186.13
190.26
190.88
187.49
180.26
169.89
157.51
144.21
130.47
115.64
97.69
73.74
41.05
-1.45
-52.03
-105.98
-156.56
-196.89
-221.96
-230.03
-222.80
-204.54
-180.56
-155.73
-133.59
-116.08
-103.86
-96.69
-93.76
-93.81
-95.18
-96.01
-94.64
-90.07
-82.41
-72.86
-63.34
-55.84
-51.76
-51.47
-54.41
-59.43
-65.24
-70.77
-75.19
-77.82
-77.98
-75.06
-68.64
-58.78
-46.00
-31.15
-15.07
1.67
18.63
35.35
51.03
64.50
74.49
80.08
81.00
77.69
71.04
61.94
51.06
38.55
24.06
6.65
-15.02
-42.46
-76.83
-118.22
-165.12
-214.29
-261.34
-301.84
-332.36
-351.10
-357.82
-353.20
-338.10
-313.29
-279.53
-238.06
-190.86
-140.53
-89.65
-40.05
7.62
53.68
98.61
142.13
182.77
218.13
245.80
264.40
274.14
276.74
274.82
271.00
267.33
265.09
264.89
266.83
270.39
274.10
275.38
270.66
256.11
228.84
188.08
135.79
76.35
15.39
-41.79
-91.48
-132.09
-163.72
-187.20
-203.35
-212.48
-214.73
-210.48
-200.68
-186.75
-170.30
-152.64
-134.66
-116.75
-98.98
-81.31
-63.69
-46.16
-28.92
-12.24
3.74
19.31
35.30
53.02
73.60
97.40
123.38
149.30
172.36
190.45
203.11
211.89
219.72
229.65
243.71
262.18
283.86
306.82
329.35
350.62
370.72
390.32
410.17
430.63
451.40
471.34
488.48
500.33
504.47
499.28
484.62
461.92
433.80
403.13
372.28
342.65
314.75
288.71
264.57
242.46
222.40
204.03
186.64
169.36
151.64
133.46
115.38
98.24
82.80
69.38
57.71
47.17
37.04
26.79
16.26
5.66
-4.64
-14.36
-23.49
-32.30
-41.23
-50.71
-60.90
-71.64
-82.50
-92.96
-102.60
-111.21
-118.82
-125.59
-131.67
-137.04
-141.60
-145.20
-147.85
-149.81
-151.62
-153.93
-157.32
-162.04
-167.92
-174.50
-181.23
-187.81
-194.34
-201.36
-209.60
-219.66
-231.67
-245.22
-259.53
-273.75
-287.44
-300.70
-314.19
-328.96
-346.20
-366.99
-391.96
-420.82
-451.94
-482.32
-508.18
-526.06
-534.01
-532.31
-523.27
-510.33
-496.74
-484.68
-474.93
-467.26
-461.16
-456.39
-453.26
-452.33
-454.08
-458.32
-463.83
-468.16
-467.85
-459.05
-438.58
-404.88
-358.49
-301.99
-239.30
-174.55
-111.35
-52.21
1.48
49.22
91.34
129.03
164.40
200.12
238.21
278.57
317.97
350.33
368.59
367.42
345.37
305.50
254.13
198.68
145.47
98.87
61.38
34.29
18.09
12.42
15.80
25.74
39.26
53.82
67.89
81.02
93.30
104.85
115.28
123.72
129.12
130.79
128.67
123.54
116.81
110.11
104.74
101.29
99.39
97.89
95.33
90.54
83.16
74.03
65.19
59.41
59.21
65.78
78.19
93.39
106.97
114.47
112.59
99.99
77.30
46.87
12.30
-21.88
-50.70
-69.50
-74.99
-66.27
-45.27
-16.38
14.87
43.29
65.17
78.68
83.59
80.86
72.08
59.17
44.12
28.65
13.81
-0.28
-14.48
-30.17
-48.63
-70.37
-94.69
-119.76
-143.01
-162.00
-175.01
-181.49
-181.94
-177.45
-168.98
-156.92
-141.00
-120.65
-95.75
-67.04
-36.28
-5.82
22.08
45.85
64.91
79.53
90.47
98.55
104.45
108.64
111.57
113.79
116.06
119.17
123.79
130.22
138.14
146.63
154.41
160.17
163.07
162.94
160.20
155.58
149.85
143.42
136.31
128.17
118.45
106.62
92.49
76.53
60.08
45.37
35.01
31.19
34.85
45.10
59.50
74.75
87.71
96.28
99.64
98.04
92.16
82.55
69.33
52.29
31.23
6.25
-22.00
-52.53
-84.27
-116.27
-147.85
-178.51
-207.72
-234.71
-258.39
-277.34
-290.07
-295.31
-292.26
-280.86
-261.92
-236.98
-208.16
-177.77
-147.89
-120.14
-95.46
-74.12
-55.82
-39.89
-25.50
-11.89
1.41
14.57
27.51
40.12
52.31
64.06
75.34
86.07
96.01
104.84
112.15
117.48
120.31
120.23
117.05
111.05
103.04
94.20
85.72
78.42
72.53
67.76
63.39
58.37
51.33
40.58
24.48
1.90
-27.03
-60.77
-96.44
-130.54
-159.64
-180.99
-192.71
-193.87
-184.56
-165.96
-140.39
-110.97
-80.81
-52.19
-26.04
-2.14
20.07
40.66
58.78
72.93
81.76
84.81
82.86
77.49
70.47
63.01
55.64
48.25
40.63
32.74
24.91
17.58
11.20
5.92
1.60
-2.19
-5.88
-9.58
-12.91
-15.01
-14.92
-12.08
-6.71
0.13
7.06
12.91
17.19
20.06
21.99
23.27
23.93
23.88
23.19
22.33
21.89
22.32
23.70
25.76
28.19
30.86
33.95
37.72
42.28
47.41
52.56
57.08
60.37
62.01
61.72
59.34
54.83
48.34
40.25
31.19
21.89
13.17
5.78
0.49
-1.95
-0.91
3.84
11.82
21.60
31.07
37.89
40.30
37.61
30.37
19.94
7.95
-4.10
-15.02
-23.74
-29.17
-30.33
-26.75
-18.88
-8.19
3.20
13.18
20.30
24.22
25.56
25.56
25.46
25.98
27.15
28.31
28.40
26.37
21.55
13.97
4.38
-5.88
-15.35
-22.83
-27.72
-29.95
-29.84
-27.78
-24.10
-19.07
-13.10
-6.60
0.01
6.62
13.53
21.26
30.21
40.22
50.56
60.12
67.92
73.58
77.42
80.31
83.17
86.66
90.96
95.81
100.73
105.25
109.05
112.09
114.49
116.52
118.34
119.87
120.63
119.76
116.31
109.64
99.73
87.25
73.17
58.36
43.21
27.59
11.17
-6.11
-23.83
-41.03
-56.50
-68.99
-77.44
-81.03
-79.37
-72.59
-61.52
-47.63
-32.67
-18.09
-4.54
8.19
20.85
34.07
47.86
61.57
74.21
85.12
94.33
102.57
110.95
120.36
131.12
142.82
154.27
163.79
169.49
169.73
163.78
152.21
136.95
120.51
104.86
90.20
74.68
54.96
27.58
-9.73
-57.38
-113.97
-176.56
-241.08
-302.45
-355.03
-393.45
-413.98
-415.71
-401.04
-374.78
-342.66
-309.51
-278.28
-249.96
-224.25
-200.28
-177.07
-153.70
-129.18
-102.52
-73.04
-40.67
-6.16
29.07
63.30
95.22
124.47
151.71
178.50
206.50
236.75
269.15
302.28
333.84
361.34
382.84
397.41
405.28
407.60
406.08
402.48
398.26
394.27
390.73
387.21
382.71
375.83
364.98
348.69
325.97
296.63
261.41
221.84
179.87
137.47
96.33
57.54
21.68
-11.25
-41.74
-70.67
-99.20
-128.71
-160.50
-195.34
-232.91
-271.40
-307.60
-337.65
-358.23
-367.76
-366.87
-358.04
-344.46
-328.79
-312.43
-295.59
-277.90
-259.24
-240.21
-222.10
-206.54
-194.92
-187.82
-184.69
-183.85
-182.87
-179.33
-171.84
-160.47
-146.71
-132.73
-120.51
-111.12
-104.57
-100.16
-96.93
-94.08
-90.99
-87.00
-81.26
-72.82
-60.96
-45.54
-27.30
-7.67
11.54
28.67
42.69
53.43
61.52
68.06
74.19
80.66
87.60
94.61
100.89
105.67
108.49
109.32
108.60
106.96
104.99
103.07
101.42
100.20
99.49
99.13
98.56
96.74
92.34
84.29
72.04
55.59
35.17
10.91
-17.12
-48.33
-80.92
-111.65
-136.38
-151.43
-154.85
-147.18
-131.03
-109.91
-87.01
-64.41
-43.22
-24.03
-7.36
6.31
16.79
24.43
29.91
33.87
36.45
37.27
35.72
31.43
24.66
16.29
7.52
-0.48
-6.91
-11.34
-13.64
-13.85
-12.12
-8.68
-3.74
2.48
9.74
17.67
25.64
32.81
38.39
42.05
44.17
45.80
48.06
51.66
56.43
61.54
65.94
69.06
71.21
73.47
77.18
83.39
92.40
103.66
115.82
127.01
135.01
137.59
132.98
120.42
100.69
76.04
49.73
24.97
3.96
-12.78
-26.28
-38.37
-50.71
-64.01
-77.82
-91.13
-103.16
-113.91
-124.31
-135.44
-147.74
-160.32
-171.14
-177.85
-178.96
-174.57
-166.40
-156.91
-148.20
-141.13
-135.29
-129.56
-122.97
-115.33
-107.27
-99.80
-93.73
-89.20
-85.70
-82.33
-78.28
-73.16
-67.06
-60.42
-53.69
-47.05
-40.35
-33.24
-25.50
-17.21
-8.85
-1.18
5.07
9.33
11.40
11.41
9.73
6.83
3.16
-0.83
-4.79
-8.40
-11.41
-13.66
-15.05
-15.67
-15.73
-15.52
-15.36
-15.43
-15.83
-16.56
-17.62
-19.04
-20.83
-22.83
-24.64
-25.55
-24.78
-21.76
-16.30
-8.80
-0.00
9.13
17.81
25.45
31.74
36.52
39.72
41.36
41.60
40.74
39.28
37.78
36.80
36.63
37.33
38.63
40.07
41.18
41.54
40.98
39.60
37.64
35.39
33.02
30.43
27.31
23.26
18.02
11.62
4.46
-2.69
-8.96
-13.54
-15.90
-15.82
-13.39
-8.96
-3.07
3.65
10.49
16.84
22.21
26.36
29.22
30.86
31.42
31.06
30.01
28.53
26.85
25.18
23.59
22.03
20.40
18.62
16.73
14.84
13.08
11.51
10.02
8.40
6.43
3.99
1.08
-2.14
-5.46
-8.50
-10.86
-12.08
-11.77
-9.78
-6.35
-2.07
2.26
6.00
8.90
11.16
13.16
15.14
17.02
18.43
18.99
18.59
17.50
16.23
15.22
14.67
14.46
14.34
14.17
14.01
14.11
14.73
15.95
17.63
19.41
20.86
21.59
21.34
20.07
18.00
15.54
13.23
11.64
11.23
12.12
14.09
16.61
19.00
20.72
21.52
21.51
21.05
20.47
19.92
19.33
18.52
17.42
16.15
15.01
14.29
14.11
14.42
15.01
15.65
16.19
16.47
16.31
15.48
13.74
10.87
6.80
1.59
-4.69
-11.93
-20.03
-28.82
-37.91
-46.70
-54.41
-60.24
-63.60
-64.27
-62.44
-58.72
-54.01
-49.21
-45.16
-42.43
-41.32
-41.90
-44.07
-47.51
-51.81
-56.51
-61.23
-65.82
-70.39
-75.29
-80.75
-86.78
-92.86
-98.19
-101.95
-103.69
-103.54
-102.16
-100.45
-99.11
-98.38
-97.85
-96.61
-93.58
-87.77
-78.65
-66.28
-51.27
-34.70
-17.81
-1.78
12.61
25.02
35.58
44.64
52.57
59.50
65.36
69.97
73.32
75.72
77.75
80.08
83.10
86.77
90.65
94.16
96.80
98.32
98.63
97.71
95.52
92.07
87.57
82.47
77.44
73.13
69.94
67.92
66.83
66.28
65.93
65.52
64.98
64.31
63.48
62.40
60.89
58.68
55.55
51.47
46.67
41.60
36.82
32.76
29.56
27.05
24.88
22.71
20.34
17.83
15.40
13.28
11.54
10.01
8.25
5.71
1.91
-3.28
-9.57
-16.28
-22.62
-27.93
-31.78
-34.03
-34.55
-33.16
-29.62
-23.86
-16.27
-7.72
0.54
7.43
12.37
15.52
17.57
19.28
21.03
22.71
23.91
24.33
24.12
23.83
24.08
25.17
26.82
28.30
28.80
27.95
25.98
23.65
21.90
21.31
21.80
22.64
22.74
21.23
17.89
13.35
8.88
5.88
5.29
7.24
10.95
15.06
18.05
18.77
16.70
12.15
6.07
-0.17
-5.15
-7.79
-7.58
-4.67
0.41
7.02
14.76
23.41
32.91
43.04
53.40
63.38
72.20
79.03
82.96
83.07
78.56
69.03
54.68
36.47
15.92
-5.16
-25.16
-43.01
-58.36
-71.42
-82.75
-92.70
-101.13
-107.17
-109.47
-106.70
-98.28
-84.84
-68.15
-50.55
-34.07
-19.74
-7.36
4.00
15.47
27.63
40.31
52.67
63.52
71.65
76.12
76.43
72.69
65.79
57.25
48.94
42.48
38.74
37.45
37.40
36.92
34.70
30.44
25.09
20.55
18.86
21.33
27.88
36.92
45.84
51.97
53.42
49.65
41.40
30.19
17.73
5.39
-5.91
-15.66
-23.71
-30.23
-35.75
-41.05
-46.80
-53.10
-59.20
-63.76
-65.61
-64.60
-62.01
-60.30
-62.12
-69.19
-81.44
-96.98
-112.64
-124.94
-131.07
-129.66
-120.99
-106.85
-89.94
-72.97
-57.85
-45.19
-34.38
-24.23
-13.73
-2.63
8.44
18.23
25.45
29.12
28.90
25.13
18.84
11.47
4.58
-0.71
-4.18
-6.69
-9.95
-15.83
-25.48
-38.65
-53.49
-67.00
-75.99
-78.13
-72.73
-60.83
-44.65
-26.72
-8.99
7.51
22.64
36.64
49.65
61.50
71.88
80.59
87.88
94.44
101.06
108.23
115.70
122.45
126.87
127.27
122.43
112.02
96.67
77.80
57.23
36.70
17.54
0.39
-14.82
-28.69
-42.00
-55.32
-68.54
-80.76
-90.53
-96.44
-97.84
-95.25
-90.17
-84.52
-79.64
-75.82
-72.29
-67.86
-61.80
-54.34
-46.68
-40.38
-36.59
-35.55
-36.63
-38.67
-40.67
-41.99
-42.43
-41.93
-40.36
-37.53
-33.48
-28.74
-24.31
-21.38
-20.69
-22.21
-25.03
-27.91
-29.80
-30.26
-29.33
-27.13
-23.56
-18.25
-11.01
-2.26
6.82
14.65
19.89
22.07
21.76
20.17
18.66
18.11
18.77
20.40
22.55
24.93
27.45
30.21
33.26
36.50
39.53
41.81
42.94
42.96
42.42
42.26
43.38
46.13
50.21
54.65
58.27
60.03
59.36
56.13
50.47
42.64
33.05
22.33
11.44
1.62
-5.93
-10.36
-11.46
-9.68
-5.95
-1.39
2.94
6.12
7.33
5.78
0.77
-8.15
-21.00
-37.29
-56.25
-76.94
-98.44
-119.83
-139.95
-157.35
-170.39
-177.68
-178.60
-173.60
-164.19
-152.40
-140.18
-128.83
-118.91
-110.36
-102.88
-96.11
-89.77
-83.63
-77.45
-71.05
-64.27
-57.06
-49.49
-41.73
-34.04
-26.69
-19.91
-13.81
-8.43
-3.68
0.56
4.40
7.94
11.41
15.20
19.80
25.64
32.73
40.55
48.09
54.17
57.94
59.22
58.58
57.06
55.76
55.37
56.00
57.23
58.28
58.49
57.45
55.22
52.28
49.35
47.16
46.26
46.78
48.51
50.98
53.63
56.08
58.16
59.91
61.45
62.77
63.76
64.23
64.04
63.27
62.17
61.08
60.21
59.53
58.76
57.46
55.29
52.13
48.15
43.65
38.94
34.19
29.34
24.25
18.77
12.92
6.92
1.11
-4.07
-8.21
-10.95
-12.02
-11.25
-8.63
-4.44
0.83
6.51
11.94
16.64
20.37
23.14
25.07
26.30
26.87
26.75
25.91
24.47
22.64
20.65
18.65
16.61
14.38
11.81
8.86
5.64
2.39
-0.72
-3.62
-6.37
-9.11
-11.93
-14.81
-17.66
-20.38
-22.99
-25.65
-28.54
-31.79
-35.37
-39.04
-42.39
-44.90
-46.01
-45.24
-42.28
-37.09
-30.02
-21.80
-13.44
-5.93
0.09
4.62
8.30
12.06
16.70
22.46
28.94
35.36
41.02
45.71
49.80
54.00
58.88
64.53
70.44
75.70
79.25
80.10
77.52
71.05
60.69
46.92
30.76
13.59
-3.18
-18.54
-32.01
-43.60
-53.50
-61.66
-67.70
-71.16
-71.89
-70.34
-67.50
-64.46
-61.88
-59.67
-57.21
-53.77
-49.09
-43.57
-38.12
-33.62
-30.40
-28.09
-25.83
-22.81
-18.60
-13.34
-7.53
-1.69
3.85
8.99
13.68
17.77
20.98
23.01
23.77
23.52
22.82
22.31
22.48
23.53
25.29
27.43
29.63
31.72
33.68
35.57
37.45
39.20
40.60
41.36
41.25
40.27
38.59
36.53
34.33
31.96
29.10
25.20
19.79
12.69
4.22
-4.88
-13.66
-21.24
-27.00
-30.66
-32.20
-31.78
-29.69
-26.32
-22.18
-17.86
-13.89
-10.54
-7.78
-5.25
-2.49
0.89
5.05
9.79
14.73
19.36
23.26
26.12
27.80
28.32
27.80
26.49
24.69
22.79
21.14
19.97
19.32
19.03
18.84
18.50
17.87
17.02
16.13
15.42
15.01
14.78
14.46
13.65
12.05
9.64
6.76
4.04
2.18
1.65
2.54
4.52
7.05
9.56
11.72
13.40
14.63
15.40
15.66
15.32
14.33
12.79
10.94
9.02
7.16
5.35
3.44
1.20
-1.47
-4.59
-7.96
-11.30
-14.29
-16.64
-18.20
-19.04
-19.42
-19.78
-20.59
-22.15
-24.48
-27.24
-29.85
-31.71
-32.47
-32.07
-30.78
-29.00
-27.07
-25.09
-22.95
-20.35
-16.94
-12.43
-6.79
-0.40
5.89
10.98
14.00
14.93
14.94
16.34
21.88
33.86
53.19
79.02
108.89
139.59
168.10
192.47
212.30
228.60
243.36
258.84
276.81
297.87
320.98
343.42
361.27
370.23
366.73
348.91
317.02
273.26
220.97
163.74
104.75
46.73
-7.98
-57.38
-100.10
-136.06
-166.60
-194.11
-220.91
-247.91
-273.88
-295.75
-309.93
-313.85
-307.18
-291.74
-270.52
-246.20
-220.35
-193.42
-165.56
-137.48
-110.85
-87.79
-70.03
-58.24
-51.80
-49.36
-49.66
-51.92
-55.85
-61.10
-66.88
-71.91
-74.82
-74.70
-71.47
-65.96
-59.46
-53.22
-47.87
-43.21
-38.30
-31.98
-23.60
-13.54
-3.50
4.08
6.85
3.56
-5.34
-17.88
-31.34
-43.35
-52.55
-58.70
-62.24
-63.72
-63.39
-61.36
-57.93
-53.83
-50.05
-47.46
-46.26
-45.80
-44.84
-42.15
-37.10
-29.94
-21.63
-13.37
-6.08
-0.09
4.85
9.32
13.90
18.92
24.31
29.68
34.60
38.90
42.86
47.26
52.99
60.75
70.55
81.64
92.74
102.50
109.94
114.59
116.40
115.45
111.82
105.78
97.98
89.51
81.58
74.99
69.81
65.53
61.57
58.01
55.77
56.32
60.88
69.77
82.40
97.74
115.06
134.17
154.99
176.69
197.07
212.58
219.41
214.81
198.18
171.19
137.06
99.27
60.37
21.55
-17.44
-57.79
-101.04
-148.43
-200.11
-254.36
-307.35
-353.50
-386.93
-403.20
-400.69
-381.00
-347.98
-305.94
-258.03
-205.34
-147.10
-81.51
-6.77
77.73
170.46
266.96
359.96
440.47
500.11
533.66
540.73
525.70
495.90
458.93
420.47
383.58
349.27
317.80
289.55
264.96
243.97
225.51
207.65
188.40
166.62
142.54
117.60
93.73
72.39
53.92
37.45
21.31
3.78
-16.15
-38.45
-62.07
-85.51
-107.44
-127.25
-145.20
-162.22
-179.54
-198.24
-219.06
-242.26
-267.50
-293.77
-319.32
-341.87
-359.15
-369.50
-372.44
-368.68
-359.81
-347.67
-333.81
-319.43
-305.41
-292.62
-281.91
-273.99
-269.19
-267.38
-268.06
-270.63
-274.61
-279.69
-285.63
-292.11
-298.66
-304.66
-309.51
-312.78
-314.20
-313.77
-311.68
-308.34
-304.39
-300.76
-298.52
-298.55
-300.94
-304.45
-306.38
-303.01
-290.66
-267.01
-231.76
-186.65
-134.60
-78.64
-21.05
36.72
93.70
148.57
199.08
242.07
274.00
291.94
294.42
282.10
257.69
225.48
190.58
157.90
131.41
113.57
105.14
105.30
112.03
122.68
134.67
145.87
155.03
161.75
166.17
168.78
170.24
171.25
172.42
174.10
176.23
178.40
180.05
180.76
180.52
179.69
178.82
178.29
178.11
177.88
176.96
174.74
170.77
164.83
156.88
146.89
134.87
120.93
105.44
89.06
72.77
57.57
44.21
32.89
23.16
14.13
4.69
-6.05
-18.66
-33.26
-49.72
-67.79
-87.18
-107.57
-128.56
-149.59
-169.92
-188.79
-205.47
-219.48
-230.67
-239.22
-245.54
-250.21
-253.73
-256.48
-258.74
-260.73
-262.81
-265.46
-269.29
-274.78
-282.03
-290.47
-298.86
-305.41
-308.17
-305.49
-296.45
-281.01
-259.93
-234.62
-206.78
-178.16
-150.34
-124.41
-100.67
-78.49
-56.57
-33.65
-9.42
14.87
36.60
53.00
62.81
67.49
71.42
80.65
100.95
135.83
185.76
247.86
316.53
383.99
441.03
478.04
486.70
462.45
406.68
327.48
237.84
152.08
81.55
31.57
1.09
-15.12
-23.10
-26.95
-27.86
-25.02
-17.49
-5.59
8.73
22.79
34.50
43.25
49.98
56.33
63.72
72.56
82.25
91.47
99.13
104.90
109.34
113.55
118.45
124.15
129.73
133.57
134.08
130.44
122.72
111.42
96.72
77.92
53.65
22.89
-13.90
-54.08
-93.11
-125.92
-148.53
-159.27
-158.87
-149.72
-134.76
-116.64
-97.46
-79.01
-62.86
-50.25
-41.79
-37.34
-36.14
-37.31
-40.32
-45.12
-51.83
-60.26
-69.61
-78.45
-85.14
-88.30
-87.27
-82.15
-73.64
-62.76
-50.57
-38.14
-26.46
-16.37
-8.35
-2.35
2.48
7.53
14.36
24.09
36.74
51.13
65.21
76.78
84.38
87.73
87.63
85.50
82.66
80.00
77.95
76.73
76.74
78.53
82.62
88.98
96.88
104.86
111.16
114.32
113.67
109.51
102.91
95.22
87.44
79.79
71.68
62.13
50.53
37.39
24.63
15.13
11.81
16.43
28.74
46.44
65.99
83.85
97.70
107.01
112.82
116.90
120.84
125.41
130.43
135.11
138.68
140.72
141.41
141.26
140.88
140.64
140.65
140.85
141.02
140.86
139.85
137.21
132.18
124.47
114.64
104.30
95.58
90.27
89.02
91.11
95.09
99.90
105.88
114.95
129.78
152.44
182.98
218.96
255.82
288.17
311.31
322.43
321.24
309.63
290.78
268.05
244.07
220.36
197.51
175.69
155.08
135.99
118.58
102.45
86.44
68.96
48.52
24.43
-2.89
-32.09
-61.45
-89.66
-116.20
-141.48
-166.49
-192.30
-219.77
-249.49
-281.83
-316.77
-353.41
-389.52
-421.38
-444.62
-455.64
-453.23
-439.21
-417.89
-394.40
-372.77
-354.87
-340.27
-327.23
-313.67
-297.82
-278.32
-254.12
-224.41
-188.88
-147.99
-102.89
-55.06
-5.72
44.59
96.07
149.21
204.05
259.56
313.24
361.27
399.19
422.95
430.09
420.55
396.79
363.15
324.66
285.77
249.60
217.58
189.70
165.09
142.38
120.12
97.02
72.18
45.23
16.38
-13.66
-44.09
-74.29
-104.14
-134.05
-165.03
-198.37
-235.14
-275.43
-317.72
-358.65
-393.63
-418.19
-429.50
-427.43
-414.48
-394.65
-371.87
-348.69
-325.90
-303.00
-279.12
-253.78
-227.16
-199.93
-172.88
-146.71
-122.08
-99.67
-80.23
-64.49
-52.87
-45.32
-41.11
-39.06
-37.78
-36.12
-33.40
-29.42
-24.29
-18.11
-10.78
-2.09
8.11
19.57
31.59
42.93
52.05
57.35
57.46
51.59
39.76
22.91
3.03
-17.18
-34.77
-47.10
-52.43
-50.39
-42.04
-29.73
-16.71
-6.62
-3.06
-9.14
-27.04
-57.54
-99.46
-149.33
-201.56
-249.24
-285.56
-305.37
-306.41
-289.55
-258.26
-217.22
-170.90
-122.67
-74.57
-27.72
16.89
57.87
93.47
122.00
142.64
155.91
163.32
166.48
166.21
162.20
153.59
140.17
123.25
105.61
90.43
79.82
73.81
70.61
67.70
63.23
56.84
49.36
41.99
35.44
29.64
24.07
18.41
12.87
8.29
5.64
5.51
7.78
11.67
15.98
19.56
21.69
22.16
21.17
19.02
15.84
11.52
5.84
-1.24
-9.25
-17.09
-23.22
-26.05
-24.49
-18.27
-8.14
4.37
17.39
29.24
38.87
45.94
50.76
53.78
55.26
55.13
53.13
49.25
44.07
38.76
34.80
33.25
34.28
36.83
38.81
37.64
30.99
17.44
-2.94
-28.32
-55.06
-78.26
-92.90
-95.46
-85.40
-65.80
-42.67
-23.10
-12.95
-14.95
-28.03
-47.96
-68.86
-84.95
-91.81
-87.13
-70.98
-45.59
-15.01
15.87
42.41
61.44
71.91
74.83
72.51
67.59
62.35
58.50
57.29
59.65
65.98
75.99
88.56
102.11
115.04
126.09
134.15
138.05
136.29
127.44
110.86
87.44
59.90
32.11
7.96
-9.79
-20.03
-23.08
-20.00
-12.05
-0.46
13.40
27.91
41.37
52.34
60.10
64.82
67.34
68.64
69.33
69.22
67.48
63.08
55.38
44.77
32.73
21.41
12.93
8.62
8.57
11.53
15.30
17.23
15.03
7.40
-5.44
-21.82
-38.94
-53.73
-63.73
-67.76
-66.11
-60.23
-52.02
-43.27
-35.33
-29.07
-24.98
-23.19
-23.43
-24.99
-26.79
-27.74
-26.90
-23.79
-18.50
-11.64
-4.11
3.08
9.22
13.95
17.41
20.00
22.13
24.03
25.64
26.68
26.86
26.00
24.14
21.56
18.63
15.82
13.56
12.28
12.34
13.97
17.18
21.77
27.31
33.23
38.93
43.87
47.63
49.97
50.77
50.07
48.03
44.97
41.31
37.58
34.21
31.49
29.45
27.94
26.67
25.37
23.92
22.30
20.66
19.16
17.90
16.87
15.90
14.73
13.09
10.77
7.69
3.96
-0.03
-3.77
-6.56
-7.79
-7.07
-4.37
0.00
5.42
11.16
16.55
21.08
24.51
26.76
27.87
28.01
27.38
26.29
25.04
23.94
23.13
22.65
22.36
22.05
21.55
20.80
19.80
18.70
17.67
16.95
16.81
17.50
19.10
21.43
23.96
25.99
26.95
26.66
25.48
24.23
23.80
24.82
27.42
31.26
35.70
40.09
43.98
47.14
49.48
51.02
51.83
51.97
51.53
50.61
49.33
47.88
46.44
45.23
44.37
43.85
43.40
42.46
40.11
35.02
25.50
9.73
-13.72
-45.24
-83.53
-125.51
-166.65
-201.93
-226.96
-239.01
-237.36
-223.11
-198.48
-166.11
-128.61
-88.44
-48.05
-9.96
23.46
50.39
70.01
82.71
89.92
93.46
94.84
94.83
93.51
90.70
86.50
81.56
76.95
73.68
72.26
72.49
73.63
74.81
75.43
75.28
74.54
73.36
71.79
69.80
67.41
64.88
62.64
61.16
60.70
61.17
62.19
63.19
63.56
62.81
60.59
56.64
50.63
42.05
30.36
15.41
-2.09
-20.28
-36.31
-47.09
-50.23
-44.92
-32.25
-14.86
3.78
20.45
32.86
39.98
41.87
39.13
32.26
21.09
4.69
-18.21
-48.27
-84.71
-124.82
-164.43
-198.92
-224.50
-239.14
-242.81
-237.14
-224.56
-207.51
-187.85
-166.64
-144.29
-120.88
-96.36
-70.72
-43.77
-15.01
16.22
50.29
86.61
123.29
157.53
186.52
208.44
222.67
229.30
228.13
218.14
197.80
166.10
123.74
73.62
20.23
-31.59
-77.97
-116.63
-146.68
-167.87
-180.19
-183.71
-179.12
-168.20
-153.87
-139.66
-128.75
-122.87
-121.82
-123.59
-125.28
-124.20
-118.90
-109.47
-97.26
-84.22
-72.31
-62.91
-56.59
-53.03
-51.12
-49.39
-46.48
-41.66
-35.06
-27.50
-20.00
-13.29
-7.45
-2.00
3.83
10.78
19.23
29.09
39.97
51.39
63.04
74.96
87.50
101.07
115.77
131.09
146.04
159.44
170.54
179.31
186.54
193.45
201.13
210.25
220.86
232.39
243.64
252.65
256.70
252.57
237.55
210.54
172.91
128.42
81.92
37.58
-2.48
-38.42
-71.50
-102.56
-130.76
-153.63
-168.07
-171.91
-164.86
-148.55
-125.80
-99.44
-71.62
-43.47
-15.43
12.26
39.21
64.69
87.72
107.31
122.83
134.26
142.20
147.57
151.29
154.00
156.13
158.10
160.44
163.53
167.08
169.68
168.90
162.04
147.28
124.52
95.40
62.33
27.31
-9.09
-47.63
-89.56
-135.18
-183.04
-229.81
-271.29
-303.55
-323.90
-331.30
-326.12
-309.61
-283.57
-250.06
-211.51
-170.58
-130.03
-92.19
-58.55
-29.39
-3.95
19.00
40.63
61.52
81.60
100.35
117.36
132.50
146.06
158.44
169.77
179.84
188.17
194.31
198.03
199.09
196.79
189.61
175.50
152.85
121.74
84.59
45.71
9.80
-19.73
-41.77
-57.31
-68.09
-75.33
-79.07
-78.77
-74.23
-66.45
-57.53
-49.75
-44.60
-42.32
-42.38
-44.22
-47.95
-54.32
-64.21
-77.92
-94.98
-114.33
-134.84
-155.74
-176.50
-196.53
-214.82
-229.89
-240.25
-244.84
-243.38
-236.31
-224.47
-208.65
-189.49
-167.51
-143.33
-117.77
-91.72
-65.96
-40.85
-16.34
7.86
31.95
55.80
78.89
100.45
119.76
136.29
149.76
160.00
166.92
170.48
170.77
168.15
163.20
156.57
148.83
140.33
131.16
121.43
111.45
102.03
94.49
90.25
90.21
93.87
99.08
102.34
99.92
89.11
69.23
41.60
8.71
-26.99
-63.88
-101.30
-138.72
-175.05
-208.09
-235.05
-253.47
-262.28
-262.30
-255.83
-245.79
-234.41
-222.57
-209.76
-194.88
-177.39
-158.08
-139.13
-123.25
-112.48
-107.22
-106.11
-106.71
-106.78
-105.13
-101.94
-98.12
-94.55
-91.48
-88.57
-85.51
-82.46
-79.99
-78.43
-77.29
-75.27
-70.89
-63.52
-53.76
-43.23
-33.53
-25.48
-18.92
-13.43
-9.18
-7.19
-8.77
-14.51
-23.61
-33.82
-42.39
-46.96
-46.24
-40.15
-29.51
-15.92
-1.52
11.21
19.92
22.95
19.78
11.36
-0.19
-12.02
-21.18
-25.23
-22.68
-13.38
1.32
18.83
35.99
49.90
58.68
61.71
59.56
53.52
45.02
35.37
25.55
16.16
7.47
-0.49
-7.64
-13.60
-17.57
-18.59
-16.03
-10.23
-2.51
5.14
10.87
13.51
12.76
8.66
0.85
-11.83
-31.17
-58.70
-94.34
-135.70
-178.05
-215.27
-241.49
-252.50
-246.44
-223.84
-186.99
-139.30
-84.97
-28.77
24.26
69.48
103.64
125.67
136.78
139.78
137.86
133.58
128.45
123.15
118.06
113.52
109.76
106.70
103.88
100.81
97.34
93.96
91.55
90.84
91.99
94.28
96.43
97.14
95.61
91.75
85.98
78.97
71.37
63.81
56.99
51.83
49.40
50.59
55.85
64.89
76.76
90.10
103.46
115.55
125.44
132.52
136.53
137.54
136.05
132.91
129.15
125.65
122.69
119.72
115.33
107.64
94.95
76.45
52.51
24.69
-4.82
-33.88
-61.07
-85.98
-109.00
-130.66
-150.86
-168.19
-179.94
-182.72
-173.58
-151.26
-116.65
-72.91
-24.41
24.61
71.25
114.84
157.12
201.72
252.72
312.39
379.26
447.16
506.16
545.70
558.12
541.15
498.59
438.94
373.29
312.95
267.39
242.57
239.53
253.91
277.05
298.61
310.09
307.55
292.20
268.62
241.81
214.88
188.73
162.99
137.50
112.84
89.90
68.82
48.55
27.23
3.23
-24.07
-53.87
-84.21
-112.98
-138.83
-161.65
-182.60
-203.51
-226.09
-251.25
-278.97
-308.67
-339.81
-372.07
-405.07
-437.77
-468.09
-493.20
-510.35
-517.99
-516.38
-507.43
-493.83
-478.00
-461.62
-445.81
-431.52
-419.84
-411.44
-405.76
-400.31
-390.88
-372.79
-342.57
-299.30
-244.84
-182.90
-117.50
-51.64
13.07
75.90
135.95
191.52
240.10
279.16
307.07
323.53
329.35
325.69
313.53
293.78
267.85
238.28
208.49
181.72
159.45
140.53
121.69
99.23
71.13
38.18
3.50
-29.24
-57.71
-81.91
-103.53
-124.60
-145.98
-166.95
-185.76
-200.65
-210.56
-215.06
-213.85
-206.20
-190.92
-166.97
-134.15
-93.58
-47.48
1.49
51.05
99.77
146.91
192.10
234.91
274.52
309.74
338.81
359.35
368.39
363.07
341.48
303.73
252.28
191.26
125.02
56.69
-12.07
-80.11
-145.17
-203.00
-248.08
-275.91
-285.27
-279.17
-263.72
-245.42
-228.75
-215.17
-204.14
-194.90
-187.72
-183.76
-183.56
-185.73
-186.73
-182.25
-169.35
-148.02
-121.26
-93.69
-69.40
-50.18
-35.20
-21.76
-6.87
11.62
34.51
61.59
92.14
125.00
158.34
189.29
214.29
230.17
235.43
231.05
219.99
205.77
190.85
175.86
160.13
142.92
124.64
107.01
92.28
82.10
76.67
74.83
74.92
75.75
77.23
80.34
86.47
96.59
110.54
126.70
142.34
154.49
160.96
161.30
157.05
151.41
148.13
150.12
158.26
170.68
183.08
189.78
185.35
166.29
132.14
85.73
32.41
-21.58
-70.76
-111.67
-143.04
-165.13
-178.65
-183.99
-181.04
-169.88
-151.57
-128.50
-104.08
-81.70
-63.51
-49.88
-39.59
-30.88
-22.70
-15.54
-11.37
-12.98
-22.81
-41.94
-69.54
-102.81
-137.59
-169.11
-192.97
-205.91
-206.37
-194.65
-172.66
-143.57
-111.15
-79.23
-51.08
-28.83
-13.09
-2.97
3.31
7.54
10.66
12.37
11.52
6.98
-1.49
-12.92
-25.64
-37.99
-48.93
-58.12
-65.57
-71.24
-75.01
-76.95
-77.54
-77.61
-77.96
-78.82
-79.75
-79.75
-77.76
-72.96
-64.97
-53.73
-39.45
-22.68
-4.29
14.53
32.54
48.90
63.40
76.49
88.86
100.93
112.42
122.41
129.62
132.91
131.71
126.04
116.17
102.15
83.49
59.34
29.11
-6.82
-46.66
-87.48
-126.08
-159.88
-187.60
-209.02
-224.45
-234.01
-237.43
-234.46
-225.57
-212.43
-197.55
-183.42
-171.38
-161.10
-150.84
-138.49
-122.52
-102.59
-79.31
-53.66
-26.37
2.15
31.48
60.70
88.29
112.38
131.40
144.64
152.35
155.51
155.24
152.22
146.52
137.64
124.80
107.42
85.34
59.01
29.34
-2.57
-35.55
-68.45
-99.99
-128.58
-152.45
-169.93
-180.07
-183.20
-181.07
-176.40
-172.01
-169.66
-169.32
-169.10
-165.93
-156.72
-139.32
-113.11
-78.88
-38.25
7.03
55.58
106.49
159.06
212.33
264.82
314.65
360.11
400.32
435.62
467.32
496.93
525.00
550.47
570.69
582.32
582.45
569.56
543.89
507.13
461.96
411.59
359.38
308.44
261.19
218.85
181.24
147.01
114.28
81.32
47.12
11.53
-24.83
-60.81
-94.97
-125.96
-152.98
-176.28
-197.23
-217.99
-240.70
-266.58
-295.44
-325.87
-355.99
-384.26
-409.99
-433.19
-454.16
-472.88
-488.93
-501.69
-510.61
-515.41
-516.08
-512.58
-504.88
-493.14
-477.99
-460.55
-442.18
-423.87
-405.76
-387.12
-366.79
-344.03
-318.93
-292.35
-265.13
-237.40
-208.29
-176.47
-141.27
-103.55
-65.92
-31.88
-4.39
15.34
28.12
36.33
42.82
49.92
58.87
69.86
82.39
95.76
109.41
123.21
137.53
153.05
170.33
189.46
209.73
229.81
248.28
264.09
276.89
286.81
294.04
298.49
299.73
297.22
290.66
280.26
266.79
251.65
236.70
224.03
215.46
211.99
213.21
217.31
221.62
223.55
221.50
215.29
205.78
194.13
180.75
164.77
144.05
115.84
77.55
27.73
-33.43
-103.75
-179.00
-253.33
-320.01
-372.75
-407.05
-421.33
-417.31
-399.46
-373.57
-345.22
-318.49
-295.41
-276.26
-260.16
-245.73
-231.54
-216.32
-199.13
-179.46
-157.36
-133.38
-108.36
-83.15
-58.32
-33.96
-9.65
15.35
41.64
69.14
96.72
122.18
142.79
156.27
161.59
159.46
151.95
141.75
131.11
121.45
113.24
106.51
101.19
97.24
94.42
92.15
89.44
85.29
79.10
70.98
61.73
52.76
45.76
42.35
43.78
50.54
62.21
77.59
95.29
114.50
135.45
159.23
186.98
218.79
253.13
287.04
317.27
341.56
359.59
372.96
384.30
395.88
408.67
421.99
434.04
442.79
446.66
444.61
435.84
419.34
393.98
358.90
314.36
262.23
205.81
148.81
94.19
43.07
-5.33
-53.06
-102.02
-152.69
-203.46
-250.83
-290.46
-318.54
-332.94
-333.75
-323.08
-304.16
-280.38
-254.59
-228.76
-204.08
-181.24
-160.65
-142.60
-127.25
-114.55
-104.25
-95.84
-88.63
-81.93
-75.27
-68.52
-61.89
-55.72
-50.31
-45.72
-41.78
-38.19
-34.69
-31.31
-28.29
-26.03
-24.92
-25.10
-26.44
-28.58
-31.11
-33.67
-35.97
-37.69
-38.35
-37.35
-34.16
-28.52
-20.68
-11.42
-1.79
7.18
14.75
20.61
24.71
27.17
28.16
27.91
26.71
24.99
23.23
21.87
21.16
21.06
21.28
21.49
21.45
21.12
20.70
20.44
20.52
20.90
21.31
21.41
20.92
19.74
17.93
15.70
13.27
10.88
8.94
8.04
8.86
11.93
17.43
24.88
33.31
41.50
48.39
53.46
56.72
58.53
59.31
59.31
58.59
57.14
54.93
51.94
48.12
43.30
37.38
30.43
22.86
15.45
9.11
4.52
1.84
0.61
-0.15
-1.51
-4.20
-8.19
-12.45
-15.06
-13.70
-6.36
8.06
29.39
56.44
87.59
121.48
157.48
195.72
236.70
280.66
326.99
373.85
418.09
455.66
482.41
495.00
491.75
473.00
440.93
398.91
350.63
299.39
247.90
198.29
152.34
111.45
76.42
47.17
22.68
1.16
-19.34
-40.31
-62.22
-84.68
-106.78
-127.84
-147.90
-167.72
-188.74
-212.83
-241.92
-277.27
-318.68
-363.94
-408.58
-446.76
-472.56
-482.22
-475.84
-457.13
-431.56
-404.04
-377.27
-351.49
-325.63
-298.43
-269.87
-241.60
-215.86
-193.84
-175.33
-159.40
-145.33
-132.97
-121.47
-108.91
-92.71
-70.51
-41.25
-6.75
27.92
56.82
72.35
71.82
60.65
48.16
41.16
41.43
46.67
53.26
58.49
61.18
60.82
57.28
49.37
36.30
20.18
6.38
2.09
13.55
43.47
90.24
148.44
210.97
267.86
311.46
338.63
350.62
351.22
344.32
332.59
316.89
296.82
272.01
243.75
214.61
187.10
162.29
139.22
115.85
90.34
62.09
32.00
2.22
-25.21
-49.65
-72.10
-94.37
-117.77
-142.31
-166.82
-189.72
-209.75
-226.73
-241.76
-256.76
-273.84
-294.62
-319.77
-348.58
-378.73
-406.31
-426.60
-435.54
-431.27
-414.96
-390.60
-363.48
-338.33
-317.76
-301.83
-288.90
-276.95
-264.65
-251.33
-236.35
-218.38
-195.44
-165.80
-129.36
-88.40
-47.17
-10.46
18.32
38.36
51.44
60.84
69.79
80.43
93.39
108.18
123.51
137.68
148.64
154.26
152.82
143.67
127.53
106.21
81.91
56.57
31.54
7.80
-13.65
-31.75
-45.52
-54.49
-58.73
-58.67
-54.45
-45.73
-31.81
-12.18
12.98
42.70
75.47
109.68
143.80
176.36
205.72
230.18
248.23
259.03
262.57
259.61
251.29
238.80
223.21
205.67
187.41
169.50
152.45
135.79
118.14
97.75
73.27
44.41
12.12
-21.75
-55.15
-86.51
-114.95
-140.22
-162.18
-180.61
-195.20
-205.94
-213.56
-219.52
-225.60
-233.19
-242.60
-252.88
-262.19
-268.58
-270.71
-268.19
-261.41
-250.95
-237.12
-219.79
-198.58
-173.37
-144.77
-114.19
-83.53
-54.68
-29.09
-7.58
9.38
21.45
28.19
29.13
23.97
12.94
-2.97
-21.87
-41.06
-57.48
-68.19
-70.94
-64.59
-49.38
-27.02
-0.47
26.58
50.59
69.14
81.45
88.31
91.35
92.02
90.94
87.82
82.10
73.71
63.42
52.58
42.58
34.53
29.26
27.62
30.40
37.80
48.88
61.45
72.66
80.15
82.97
81.89
78.82
75.93
74.87
76.42
80.61
86.93
94.66
103.02
111.35
119.14
125.99
131.48
135.03
135.92
133.59
127.93
119.50
109.27
98.22
86.93
75.49
63.76
51.75
39.89
28.90
19.44
11.80
5.78
0.83
-3.62
-7.82
-11.67
-14.84
-17.13
-18.72
-20.06
-21.59
-23.37
-24.75
-24.58
-21.69
-15.55
-6.74
3.17
12.16
18.57
21.70
21.96
20.35
17.91
15.04
11.48
6.56
-0.26
-8.97
-19.03
-29.59
-39.82
-48.97
-56.22
-60.51
-60.58
-55.41
-44.78
-29.63
-11.93
5.89
21.82
34.98
45.70
55.13
64.53
74.74
85.99
98.07
110.66
123.76
137.81
153.85
173.43
198.27
229.73
268.24
312.68
360.19
406.48
446.71
476.45
492.56
493.61
479.71
452.22
413.18
365.05
310.36
251.46
190.35
128.52
67.01
6.65
-51.42
-105.44
-153.00
-191.43
-218.52
-233.10
-235.47
-227.27
-211.02
-189.39
-164.72
-138.77
-113.02
-88.83
-67.50
-49.81
-35.54
-23.34
-11.14
2.73
18.59
35.01
49.28
58.48
60.64
55.21
42.87
24.61
1.09
-27.97
-63.37
-105.60
-153.45
-202.69
-245.57
-271.89
-271.94
-240.53
-180.23
-101.77
-20.86
47.48
94.38
119.37
128.77
131.18
133.09
136.83
141.54
145.62
148.50
150.68
152.40
152.52
148.62
138.30
120.81
97.67
71.98
47.01
25.32
8.13
-4.54
-13.77
-21.27
-28.79
-37.19
-45.67
-51.89
-53.34
-49.07
-40.51
-30.53
-21.24
-12.40
-1.53
13.84
33.28
52.13
62.86
58.14
34.03
-8.33
-63.35
-122.64
-176.59
-215.58
-231.13
-217.67
-174.62
-107.73
-28.26
49.88
114.47
158.09
178.97
179.61
164.14
135.85
96.30
46.32
-12.07
-73.71
-129.72
-168.68
-179.61
-155.99
-98.90
-17.77
71.91
153.49
214.39
249.49
261.08
256.13
242.31
225.02
206.67
188.03
169.95
154.41
143.91
140.06
142.29
147.43
151.08
149.45
140.96
126.76
109.96
94.12
81.61
72.74
65.83
58.09
46.91
30.90
10.36
-12.92
-36.40
-57.85
-76.10
-91.43
-105.44
-120.38
-138.29
-160.17
-185.50
-212.32
-238.01
-260.21
-277.83
-291.46
-303.13
-315.51
-330.99
-350.93
-375.33
-402.74
-430.25
-453.72
-468.55
-470.83
-458.55
-432.58
-396.49
-355.52
-314.84
-277.97
-245.66
-215.86
-185.01
-150.18
-111.25
-71.75
-37.62
-14.25
-3.40
-1.82
-2.67
0.86
11.74
27.66
42.72
51.17
50.82
43.85
34.84
27.55
22.68
17.93
10.16
-2.27
-18.40
-35.18
-49.03
-57.63
-60.79
-60.19
-58.38
-57.53
-58.52
-60.85
-63.13
-63.93
-62.67
-59.88
-57.01
-55.57
-56.27
-58.54
-60.58
-60.13
-55.49
-46.28
-33.78
-20.47
-9.08
-1.32
3.09
6.77
13.96
28.97
54.45
90.21
133.17
178.32
220.41
255.34
280.85
296.52
303.02
301.54
293.21
279.13
260.09
236.74
209.62
179.52
147.62
115.65
85.86
60.60
41.54
28.81
20.50
12.73
0.24
-22.01
-57.58
-107.63
-170.78
-243.93
-323.63
-407.14
-492.53
-577.56
-658.11
-727.48
-777.28
-799.93
-791.50
-753.37
-691.69
-615.05
-531.75
-447.49
-365.42
-287.12
-214.08
-148.15
-90.82
-41.97
0.86
42.14
86.83
138.26
196.41
257.13
312.58
353.48
372.15
365.44
336.40
293.53
247.64
207.72
177.55
154.99
134.21
109.65
79.46
46.52
16.72
-4.53
-15.15
-17.41
-16.48
-17.69
-24.10
-35.38
-48.67
-60.40
-68.17
-71.73
-72.77
-73.82
-77.01
-83.23
-91.75
-100.54
-106.92
-108.07
-101.44
-85.20
-58.97
-24.64
13.35
49.02
76.99
94.64
102.93
105.23
104.85
103.03
98.72
90.34
78.05
64.74
54.85
51.93
56.40
65.20
73.60
77.81
76.78
72.10
66.47
62.05
59.56
58.45
57.52
55.78
52.79
48.84
44.80
41.76
40.54
41.33
43.43
45.48
46.16
44.71
41.31
36.94
32.79
29.64
27.53
25.89
23.99
21.40
18.17
14.77
11.94
10.53
11.37
15.19
22.37
32.70
45.22
58.42
70.57
80.27
86.75
89.87
89.98
87.62
83.38
77.87
71.73
65.53
59.64
54.20
49.13
44.33
39.75
35.43
31.37
27.45
23.47
19.22
14.57
9.48
3.89
-2.46
-9.84
-18.37
-27.55
-36.14
-42.38
-44.61
-41.90
-34.47
-23.52
-10.72
2.39
14.85
26.19
36.21
44.61
50.90
54.62
55.61
54.29
51.59
48.64
46.44
45.51
45.92
47.37
49.45
51.77
54.04
55.99
57.41
57.99
57.44
55.50
51.93
46.65
39.77
31.78
23.58
16.33
11.18
8.75
8.92
10.71
12.75
13.73
13.03
10.82
7.82
4.86
2.39
0.36
-1.60
-3.79
-6.17
-8.42
-10.16
-11.29
-12.10
-13.05
-14.41
-16.07
-17.47
-18.04
-17.53
-16.38
-15.60
-16.39
-19.57
-25.14
-32.09
-38.61
-42.59
-42.29
-36.87
-26.68
-13.16
1.62
15.57
27.19
35.88
41.82
45.62
47.90
49.05
49.22
48.47
46.97
44.95
42.54
39.72
36.22
31.74
26.10
19.48
12.37
5.38
-1.05
-6.92
-12.82
-19.87
-29.37
-42.34
-58.93
-78.03
-97.33
-113.89
-125.08
-129.55
-127.64
-121.02
-111.87
-101.91
-91.87
-81.60
-70.58
-58.53
-45.60
-32.39
-19.55
-7.65
2.96
12.11
19.80
26.19
31.53
36.08
39.96
43.23
45.89
48.13
50.29
52.79
55.74
58.72
60.80
60.90
58.27
52.92
45.74
38.26
32.17
28.88
29.18
33.15
40.15
49.19
59.14
69.06
78.27
86.36
93.01
98.02
101.19
102.47
101.99
100.09
97.24
93.98
90.67
87.53
84.53
81.47
78.16
74.46
70.50
66.55
62.95
59.92
57.45
55.31
53.18
50.77
47.95
44.70
41.00
36.78
31.98
26.58
20.83
15.32
10.89
8.46
8.77
12.12
18.23
26.33
35.30
44.07
51.77
57.99
62.74
66.27
68.90
70.74
71.75
71.73
70.53
68.20
64.97
61.18
57.10
52.86
48.41
43.68
38.68
33.52
28.33
23.08
17.53
11.28
4.02
-4.25
-13.07
-21.74
-29.48
-35.83
-40.69
-44.26
-46.80
-48.34
-48.64
-47.25
-43.72
-37.82
-29.69
-19.89
-9.23
1.35
10.97
18.98
25.00
28.98
31.11
31.76
31.39
30.48
29.46
28.63
28.17
28.05
28.11
28.10
27.77
26.95
25.61
23.83
21.79
19.70
17.79
16.27
15.20
14.51
13.91
12.96
11.19
8.23
4.01
-1.20
-6.79
-11.97
-15.92
-18.03
-18.01
-15.92
-12.16
-7.33
-2.08
3.09
7.84
12.19
16.30
20.47
24.89
29.55
34.15
38.28
41.52
43.63
44.55
44.26
42.78
40.01
35.89
30.55
24.35
17.89
11.70
6.12
1.15
-3.48
-8.11
-12.95
-18.03
-23.24
-28.45
-33.49
-38.13
-42.02
-44.68
-45.63
-44.62
-41.73
-37.40
-32.23
-26.78
-21.45
-16.40
-11.64
-7.14
-2.90
1.01
4.49
7.50
10.08
12.31
14.27
15.97
17.36
18.38
19.02
19.36
19.57
19.85
20.33
20.97
21.59
21.94
21.81
21.22
20.34
19.47
18.84
18.58
18.67
19.08
19.90
21.42
24.05
28.21
34.12
41.70
50.60
60.30
70.33
80.50
90.84
101.55
112.77
124.40
136.04
147.11
157.00
165.22
171.35
175.07
176.18
174.71
171.06
165.83
159.61
152.59
144.28
133.69
119.75
101.83
80.07
55.29
28.66
1.25
-26.13
-52.93
-78.67
-102.87
-125.18
-145.50
-163.94
-180.62
-195.35
-207.37
-215.43
-218.25
-215.04
-206.07
-192.69
-176.97
-161.05
-146.52
-134.05
-123.55
-114.54
-106.58
-99.47
-93.29
-88.07
-83.69
-79.78
-75.90
-71.67
-66.96
-61.92
-56.80
-51.89
-47.37
-43.25
-39.30
-35.19
-30.64
-25.67
-20.79
-16.87
-14.92
-15.66
-19.19
-25.04
-32.38
-40.31
-48.15
-55.35
-61.46
-65.99
-68.45
-68.59
-66.48
-62.53
-57.34
-51.41
-45.07
-38.51
-31.92
-25.58
-19.84
-14.97
-11.08
-8.07
-5.71
-3.80
-2.28
-1.24
-1.00
-1.92
-4.29
-8.21
-13.42
-19.32
-25.06
-29.82
-33.10
-34.86
-35.60
-36.05
-36.85
-38.33
-40.33
-42.38
-43.90
-44.42
-43.75
-41.92
-39.04
-35.22
-30.46
-24.75
-18.23
-11.28
-4.50
1.44
6.09
9.35
11.48
12.95
14.17
15.32
16.27
16.77
16.60
15.72
14.32
12.58
10.69
8.72
6.78
5.00
3.61
2.75
2.41
2.36
2.28
1.97
1.49
1.13
1.24
2.03
3.42
5.13
6.84
8.30
9.47
10.47
11.52
12.87
14.81
17.65
21.65
27.03
33.77
41.61
50.07
58.53
66.39
73.25
78.97
83.78
88.21
92.91
98.41
104.91
112.11
119.33
125.73
130.63
133.93
136.21
138.58
142.21
147.52
153.48
157.38
155.28
143.00
117.43
77.45
24.43
-38.02
-104.54
-168.89
-224.92
-267.49
-293.55
-302.69
-297.13
-280.92
-258.52
-233.64
-208.62
-184.67
-162.50
-142.64
-125.46
-110.67
-97.27
-83.89
-69.67
-54.81
-40.47
-27.97
-17.77
-9.07
-0.24
10.01
21.75
33.65
43.75
50.63
54.08
55.09
55.13
55.28
55.76
56.07
55.49
53.53
50.11
45.52
40.20
34.58
29.10
24.15
20.08
17.13
15.29
14.36
13.92
13.56
12.98
12.08
10.99
9.92
9.10
8.62
8.43
8.40
8.45
8.62
9.02
9.75
10.79
11.92
12.88
13.48
13.63
13.38
12.80
11.87
10.50
8.59
6.21
3.62
1.14
-0.96
-2.65
-4.15
-5.85
-8.08
-11.02
-14.55
-18.32
-21.86
-24.71
-26.53
-27.14
-26.50
-24.58
-21.32
-16.60
-10.36
-2.70
5.95
14.92
23.45
30.95
37.29
42.86
48.42
54.74
62.21
70.70
79.64
88.39
96.68
104.90
113.98
125.04
138.99
156.21
176.63
199.84
225.33
252.27
279.34
304.58
325.69
340.65
348.32
348.72
342.69
331.32
315.39
295.25
271.22
244.15
215.76
188.25
163.47
141.96
122.64
103.26
81.70
57.18
30.87
5.47
-16.18
-32.53
-44.28
-54.20
-65.90
-82.19
-103.81
-129.19
-155.29
-178.91
-198.02
-212.45
-223.81
-234.74
-247.95
-265.44
-288.15
-316.13
-348.95
-385.95
-426.30
-468.64
-510.93
-550.40
-584.06
-609.37
-624.85
-630.26
-626.30
-613.72
-592.57
-561.92
-520.39
-467.09
-402.66
-329.74
-252.48
-175.48
-102.45
-35.46
25.03
79.27
127.08
167.47
198.81
219.94
231.10
234.30
232.68
229.39
226.44
224.07
221.12
215.91
207.32
195.31
180.87
165.36
149.91
134.95
120.24
105.31
89.92
74.47
59.97
47.74
38.84
33.69
31.93
32.59
34.49
36.63
38.44
39.78
40.74
41.41
41.62
41.05
39.30
36.15
31.72
26.57
21.53
17.55
15.37
15.27
16.97
19.62
22.10
23.33
22.63
19.85
15.31
9.61
3.40
-2.78
-8.55
-13.73
-18.36
-22.70
-27.09
-31.74
-36.46
-40.49
-42.70
-42.05
-38.07
-31.15
-22.55
-13.90
-6.66
-1.72
0.76
1.18
0.19
-1.62
-3.79
-5.99
-7.87
-8.98
-8.82
-7.14
-4.14
-0.59
2.32
3.47
2.27
-0.94
-4.97
-8.14
-8.85
-6.22
-0.25
8.24
17.95
27.54
35.94
42.60
47.56
51.55
55.91
62.51
73.31
89.89
112.73
140.73
171.16
200.14
223.55
237.95
241.38
233.63
216.03
190.92
161.07
129.31
98.17
69.78
45.56
26.07
11.15
0.22
-7.30
-11.57
-12.53
-10.31
-5.89
-1.42
-0.12
-5.52
-20.60
-46.92
-84.18
-130.18
-181.21
-232.45
-278.66
-314.95
-337.59
-344.81
-337.19
-317.62
-290.73
-261.86
-235.92
-216.23
-204.03
-198.50
-197.35
-197.78
-197.30
-194.30
-188.03
-178.35
-165.48
-149.75
-131.62
-111.66
-90.40
-68.16
-44.84
-20.07
6.67
35.53
65.94
96.48
124.93
148.71
165.57
174.18
174.57
168.19
157.42
144.87
132.59
121.57
111.81
102.71
93.75
84.70
75.65
66.83
58.32
50.15
42.56
35.96
30.75
26.74
22.62
16.01
4.22
-14.50
-39.87
-69.25
-98.34
-122.71
-139.24
-146.92
-146.72
-140.64
-130.66
-118.09
-103.59
-87.59
-70.73
-54.02
-38.50
-24.79
-12.76
-1.85
8.50
18.28
26.92
33.63
38.05
40.68
42.63
45.06
48.44
52.41
56.10
58.88
60.77
62.30
63.90
65.23
65.15
62.43
56.59
48.48
40.03
33.28
29.42
28.30
28.67
29.09
28.80
28.12
28.21
30.50
36.08
45.37
58.17
73.91
91.82
111.11
130.93
150.49
168.98
185.67
199.85
210.87
218.14
221.29
220.35
215.78
208.49
199.65
190.45
181.90
174.60
168.72
164.00
160.04
156.41
152.80
149.06
144.91
139.80
132.57
121.58
104.93
81.13
49.55
10.94
-32.59
-77.90
-121.59
-160.85
-194.18
-221.42
-243.16
-259.77
-270.53
-273.73
-267.67
-251.92
-228.33
-200.74
-173.65
-150.34
-131.51
-115.12
-97.58
-75.41
-46.74
-11.82
27.54
68.98
110.65
151.59
191.42
229.70
265.49
297.31
323.55
342.88
354.42
357.61
351.87
336.48
310.85
274.95
229.84
177.66
121.28
63.75
7.62
-45.34
-94.35
-139.54
-181.94
-223.30
-265.99
-312.53
-364.59
-421.81
-480.71
-534.79
-575.81
-596.57
-593.56
-568.55
-527.86
-479.87
-431.82
-387.76
-348.37
-312.43
-278.79
-247.38
-218.99
-194.09
-171.89
-150.19
-126.35
-98.56
-66.71
-32.43
1.72
33.39
61.39
85.89
108.21
129.92
152.20
175.24
198.12
219.16
236.43
248.32
253.86
253.04
246.80
236.94
225.69
215.11
206.28
198.80
190.75
179.36
162.08
137.88
107.80
74.82
42.89
15.51
-5.35
-19.96
-30.71
-41.48
-56.45
-78.91
-109.99
-148.07
-188.83
-226.41
-255.03
-270.49
-271.10
-257.70
-232.84
-199.94
-162.47
-123.59
-86.01
-51.83
-22.37
1.91
21.27
36.34
47.78
56.08
61.63
64.82
66.10
65.79
64.06
60.94
56.74
52.31
49.09
48.63
51.88
58.64
67.64
77.04
85.28
91.67
96.39
100.01
103.14
105.99
108.59
110.99
113.41
116.17
119.53
123.44
127.55
131.36
134.50
136.83
138.46
139.60
140.27
140.13
138.43
134.18
126.57
115.39
101.23
85.40
69.57
55.28
43.71
35.59
31.41
31.46
35.68
43.62
54.27
66.23
78.03
88.58
97.37
104.60
111.05
117.75
125.57
134.67
144.22
152.49
157.40
157.14
150.71
137.82
118.50
92.78
60.82
23.42
-17.28
-57.76
-93.85
-122.22
-141.52
-152.69
-158.07
-159.89
-159.16
-155.37
-147.31
-134.11
-116.16
-95.28
-74.24
-55.74
-41.45
-31.56
-24.83
-19.32
-13.24
-5.81
2.59
10.83
17.77
22.97
26.79
29.94
32.67
34.47
34.30
31.53
26.57
20.94
16.33
13.56
11.84
9.19
3.58
-5.85
-18.34
-31.95
-44.66
-55.31
-63.91
-71.14
-77.63
-83.47
-88.23
-91.41
-92.91
-93.13
-92.66
-91.93
-90.86
-88.92
-85.44
-79.93
-72.29
-62.96
-52.74
-42.55
-33.21
-25.14
-18.31
-12.13
-5.67
2.05
11.79
23.73
37.44
51.99
66.28
79.36
90.65
99.99
107.66
114.17
120.18
126.38
133.33
141.42
150.75
161.17
172.26
183.37
193.61
201.99
207.52
209.55
207.96
203.26
196.31
187.97
178.93
169.88
161.78
155.87
153.39
154.75
158.94
163.53
165.15
160.67
148.08
127.13
99.21
66.87
33.19
1.18
-26.67
-48.60
-63.68
-71.82
-73.49
-69.46
-60.59
-47.81
-32.22
-15.22
1.48
15.88
25.70
28.47
21.86
4.39
-23.56
-58.84
-95.45
-125.64
-142.02
-140.03
-119.49
-84.58
-42.35
-0.29
35.61
61.78
76.80
80.54
73.55
56.78
31.76
0.50
-35.05
-73.87
-116.29
-163.09
-213.69
-264.15
-306.54
-330.72
-328.08
-295.46
-237.23
-164.22
-89.72
-24.67
25.86
63.22
93.08
122.04
154.67
192.03
231.83
269.56
299.93
318.31
321.83
310.11
285.21
250.91
211.63
171.32
132.95
98.28
68.15
42.48
19.97
-1.70
-25.02
-51.01
-77.75
-100.21
-112.07
-108.80
-90.37
-62.23
-33.53
-13.65
-8.61
-19.20
-41.59
-69.67
-97.80
-122.78
-144.29
-164.13
-185.11
-210.00
-241.07
-279.76
-326.39
-379.89
-437.37
-494.09
-544.05
-581.39
-602.07
-605.26
-593.43
-571.06
-542.56
-510.29
-473.90
-431.23
-380.33
-321.26
-256.97
-192.61
-133.99
-85.76
-50.34
-27.73
-16.06
-12.56
-14.27
-18.65
-24.03
-29.92
-37.10
-47.38
-62.86
-84.96
-113.34
-145.58
-177.39
-203.57
-219.36
-221.49
-208.76
-181.94
-143.56
-97.56
-49.23
-4.75
29.55
48.59
50.05
35.35
9.61
-19.64
-44.59
-59.36
-61.21
-50.54
-29.83
-2.37
28.53
59.70
88.06
110.74
125.68
132.48
132.73
129.63
126.87
127.18
131.45
138.71
147.11
154.89
161.03
165.32
168.08
169.85
171.24
172.79
174.70
176.60
177.51
176.34
172.50
166.44
159.60
153.70
149.84
148.03
147.37
146.80
145.89
145.01
144.89
145.92
147.66
149.05
148.92
146.58
142.08
135.99
128.87
120.90
111.66
100.23
85.47
66.52
43.22
16.40
-12.14
-40.12
-65.30
-86.05
-101.56
-111.88
-117.66
-119.87
-119.60
-117.96
-115.93
-114.19
-113.04
-112.50
-112.51
-113.14
-114.58
-116.92
-119.84
-122.46
-123.63
-122.41
-118.52
-112.45
-105.15
-97.51
-89.97
-82.28
-73.73
-63.53
-51.24
-37.04
-21.81
-6.67
7.53
20.70
33.69
48.01
65.04
85.35
108.24
131.95
154.24
173.33
188.42
199.93
209.14
217.75
227.37
238.98
252.41
266.00
276.62
280.25
273.11
252.92
219.78
176.41
127.32
77.57
31.38
-8.78
-42.20
-69.37
-91.27
-108.72
-122.21
-132.03
-138.34
-141.36
-141.34
-138.63
-133.69
-127.02
-119.06
-110.06
-100.02
-88.71
-75.93
-61.63
-45.91
-28.84
-10.33
9.96
32.22
56.09
80.39
103.19
122.38
136.22
143.85
145.31
141.25
132.76
121.20
108.15
95.28
84.05
75.33
69.15
64.97
62.19
60.72
61.20
64.48
70.85
79.56
88.94
97.39
104.40
110.98
119.07
130.36
145.26
162.76
181.15
199.07
216.12
232.43
247.73
260.71
269.33
271.95
268.55
260.98
252.07
243.91
236.58
227.95
214.78
194.47
166.42
132.50
96.32
62.05
33.21
11.96
-1.09
-6.75
-6.83
-3.69
0.42
3.97
6.31
7.60
8.20
8.24
7.37
5.15
1.38
-3.60
-9.17
-14.85
-20.72
-27.22
-34.73
-42.96
-50.82
-56.83
-59.95
-60.12
-58.28
-55.71
-53.23
-50.74
-47.34
-41.94
-33.93
-23.45
-11.27
1.59
14.18
25.74
35.63
43.25
48.07
49.82
48.70
45.32
40.59
35.40
30.43
26.02
22.30
19.30
16.98
15.30
14.05
12.83
11.02
7.97
3.16
-3.65
-12.35
-22.53
-33.57
-44.90
-55.90
-66.10
-75.15
-82.91
-89.61
-95.82
-102.27
-109.62
-118.00
-126.87
-135.03
-141.13
-144.14
-143.91
-141.25
-137.62
-134.54
-132.90
-132.70
-133.14
-133.19
-132.06
-129.62
-126.27
-122.65
-119.29
-116.43
-114.12
-112.36
-111.27
-110.86
-110.99
-111.09
-110.22
-107.35
-101.78
-93.37
-82.71
-70.88
-59.11
-48.37
-39.12
-31.26
-24.40
-18.11
-12.26
-7.07
-3.05
-0.67
-0.15
-1.22
-3.30
-5.62
-7.55
-8.70
-9.01
-8.64
-7.81
-6.66
-5.24
-3.52
-1.52
0.59
2.46
3.52
3.16
0.85
-3.72
-10.46
-18.91
-28.31
-37.75
-46.41
-53.69
-59.29
-63.15
-65.39
-66.12
-65.49
-63.60
-60.65
-56.98
-53.06
-49.38
-46.31
-43.90
-41.86
-39.74
-37.04
-33.52
-29.28
-24.69
-20.29
-16.49
-13.50
-11.32
-9.86
-9.10
-9.14
-10.31
-12.88
-16.99
-22.46
-28.80
-35.30
-41.26
-46.20
-49.87
-52.25
-53.39
-53.38
-52.36
-50.48
-47.94
-44.93
-41.58
-37.95
-34.19
-30.52
-27.35
-25.11
-24.05
-24.09
-24.73
-25.32
-25.27
-24.26
-22.34
-19.76
-16.78
-13.54
-10.07
-6.44
-2.88
0.22
2.38
3.24
2.66
0.78
-2.15
-5.81
-9.93
-14.20
-18.30
-21.82
-24.40
-25.79
-25.95
-25.00
-23.15
-20.61
-17.56
-14.19
-10.81
-7.70
-5.12
-3.17
-1.66
-0.26
1.36
3.38
5.67
7.86
9.47
10.10
9.56
7.93
5.55
2.86
0.29
-2.01
-4.17
-6.72
-10.28
-15.32
-21.89
-29.48
-37.12
-43.70
-48.27
-50.38
-50.10
-47.90
-44.43
-40.26
-35.77
-31.16
-26.51
-21.90
-17.49
-13.50
-10.14
-7.51
-5.55
-4.02
-2.67
-1.36
-0.15
0.73
1.07
0.79
0.03
-0.94
-1.91
-2.89
-4.10
-5.87
-8.48
-12.03
-16.44
-21.52
-27.00
-32.47
-37.34
-40.79
-42.00
-40.41
-36.06
-29.55
-21.77
-13.67
-5.88
1.27
7.57
12.66
16.11
17.54
17.03
15.24
13.22
11.96
11.88
12.74
13.81
14.33
14.00
12.99
11.80
10.84
10.19
9.57
8.49
6.52
3.38
-1.06
-6.77
-13.53
-20.80
-27.63
-32.73
-34.81
-32.96
-27.05
-17.76
-6.36
5.71
17.21
27.28
35.44
41.44
45.16
46.63
46.18
44.41
42.16
40.25
39.19
39.08
39.53
39.88
39.58
38.34
36.33
34.03
31.98
30.50
29.55
28.73
27.42
24.96
20.93
15.15
7.87
-0.15
-7.74
-13.47
-15.98
-14.49
-9.08
-0.71
9.19
19.13
28.10
35.64
41.79
46.76
50.68
53.50
55.05
55.10
53.47
50.08
45.07
38.92
32.39
26.46
21.98
19.41
18.65
19.15
20.23
21.35
22.18
22.54
22.10
20.32
16.45
9.92
0.71
-10.47
-22.15
-32.46
-39.60
-42.28
-40.02
-33.22
-22.99
-10.69
2.34
15.26
27.69
39.58
50.84
61.12
69.75
76.09
79.89
81.57
82.06
82.44
83.36
84.73
85.82
85.59
83.25
78.63
72.18
64.79
57.40
50.67
44.86
39.86
35.23
30.32
24.44
16.90
7.21
-4.68
-18.18
-31.93
-43.97
-52.17
-54.84
-51.25
-41.91
-28.39
-12.74
3.22
18.31
32.12
44.69
56.02
65.84
73.56
78.61
80.82
80.72
79.40
78.24
78.40
80.65
85.22
92.04
100.91
111.53
123.51
136.23
148.85
160.46
170.33
178.06
183.63
187.12
188.56
187.68
183.98
176.90
166.02
151.22
132.74
111.26
87.95
64.36
42.18
22.83
7.02
-5.39
-15.22
-23.50
-31.02
-38.12
-44.84
-51.22
-57.53
-64.19
-71.46
-79.19
-86.72
-93.11
-97.51
-99.48
-99.07
-96.60
-92.31
-86.16
-77.88
-67.33
-54.84
-41.41
-28.49
-17.50
-9.17
-3.30
1.01
4.85
8.84
12.98
16.81
19.89
22.10
23.62
24.64
25.06
24.20
20.99
14.31
3.45
-11.60
-30.22
-51.31
-73.71
-96.39
-118.47
-139.22
-157.98
-174.19
-187.54
-197.96
-205.68
-210.96
-213.89
-214.28
-211.77
-205.94
-196.54
-183.45
-166.54
-145.78
-121.47
-94.61
-67.14
-41.64
-20.70
-6.01
2.11
4.77
3.82
1.08
-2.21
-5.53
-8.77
-11.81
-14.37
-16.09
-16.77
-16.64
-16.19
-15.98
-16.26
-16.89
-17.42
-17.46
-16.96
-16.44
-16.90
-19.33
-24.23
-31.23
-39.09
-46.13
-50.88
-52.54
-51.18
-47.57
-42.83
-38.16
-34.79
-33.88
-36.28
-42.07
-50.25
-58.65
-64.65
-66.16
-62.56
-55.01
-45.84
-37.37
-30.89
-26.33
-22.60
-18.49
-13.52
-8.12
-3.27
0.16
1.97
2.62
2.92
3.45
4.26
4.99
5.26
4.92
4.21
3.43
2.57
1.24
-1.31
-5.81
-12.68
-21.96
-33.43
-46.78
-61.59
-77.18
-92.37
-105.47
-114.61
-118.26
-115.71
-107.29
-94.10
-77.55
-59.06
-39.78
-20.60
-2.19
14.96
30.58
44.71
57.64
69.73
81.14
91.65
100.59
107.08
110.32
109.92
106.16
99.94
92.56
85.36
79.38
75.04
72.22
70.43
69.13
67.95
66.75
65.55
64.34
63.02
61.43
59.44
57.00
54.09
50.75
46.95
42.69
38.13
33.68
29.96
27.61
27.06
28.33
31.12
34.84
38.76
42.02
43.69
42.91
39.21
32.80
24.66
16.28
9.18
4.34
1.92
1.40
1.98
2.97
4.02
5.07
6.08
6.95
7.49
7.51
6.96
5.89
4.48
2.88
1.11
-1.01
-3.87
-7.95
-13.49
-20.23
-27.26
-33.29
-37.05
-37.93
-36.12
-32.41
-27.65
-22.29
-16.37
-9.80
-2.87
3.58
8.47
11.00
11.18
9.83
8.18
7.23
7.31
8.08
8.91
9.29
9.16
8.78
8.48
8.41
8.42
8.24
7.63
6.53
5.08
3.46
1.76
-0.17
-2.65
-6.05
-10.48
-15.74
-21.16
-25.79
-28.56
-28.66
-25.72
-19.99
-12.26
-3.65
4.72
11.99
17.80
22.26
25.80
28.94
32.03
35.09
37.82
39.76
40.54
40.02
38.39
36.09
33.53
30.95
28.34
25.46
21.99
17.58
11.84
4.29
-5.54
-17.82
-32.10
-47.07
-60.69
-70.79
-75.79
-75.29
-70.11
-61.91
-52.39
-42.77
-33.51
-24.62
-16.02
-7.85
-0.49
5.65
10.41
13.98
16.77
19.14
21.18
22.64
23.05
21.89
18.84
13.94
7.62
0.70
-5.77
-10.82
-13.89
-15.07
-15.05
-14.74
-14.74
-15.10
-15.38
-15.09
-14.10
-12.83
-11.83
-11.27
-10.54
-8.38
-3.51
4.69
15.74
28.29
40.70
51.62
60.38
66.92
71.52
74.49
76.10
76.59
76.20
75.26
74.04
72.62
70.74
67.86
63.32
56.64
47.85
37.68
27.48
18.79
12.79
9.75
8.98
9.12
8.86
7.65
5.98
5.19
6.87
12.02
20.70
31.98
44.35
56.28
66.62
74.70
80.10
82.44
81.31
76.35
67.62
55.78
42.12
28.29
15.83
5.74
-1.71
-6.91
-10.57
-13.38
-15.76
-17.70
-18.90
-18.90
-17.34
-14.18
-9.87
-5.38
-2.00
-0.99
-3.10
-8.30
-15.63
-23.50
-30.15
-34.24
-35.11
-32.94
-28.42
-22.44
-15.80
-9.03
-2.51
3.41
8.31
11.75
13.50
13.71
12.90
11.68
10.51
9.40
7.99
5.86
2.83
-0.94
-5.05
-9.13
-13.13
-17.22
-21.71
-26.83
-32.66
-39.21
-46.54
-54.75
-63.87
-73.57
-83.05
-91.19
-96.87
-99.36
-98.58
-95.16
-90.14
-84.74
-80.03
-76.67
-74.83
-74.20
-74.13
-73.71
-72.02
-68.24
-61.80
-52.52
-40.72
-27.33
-13.84
-1.97
6.79
11.68
12.94
11.74
9.58
7.67
6.44
5.46
3.75
0.39
-4.98
-11.90
-19.21
-25.39
-29.04
-29.22
-25.75
-19.12
-10.38
-0.83
8.26
15.98
21.78
25.48
27.07
26.65
24.45
21.01
17.33
14.77
14.60
17.40
22.66
28.73
33.44
35.06
32.98
27.99
21.83
16.34
12.69
11.06
10.82
11.00
10.77
9.83
8.50
7.56
8.01
10.64
15.68
22.56
30.09
36.86
41.78
44.37
44.77
43.44
40.81
37.22
33.03
28.80
25.27
23.09
22.50
23.14
24.23
24.92
24.65
23.34
21.23
18.73
16.27
14.28
13.10
12.83
13.02
12.58
10.13
4.56
-4.20
-14.93
-25.47
-33.70
-38.42
-39.87
-39.46
-38.90
-39.28
-40.63
-42.18
-43.06
-43.09
-42.94
-43.81
-46.67
-51.72
-58.25
-65.06
-70.99
-75.34
-78.01
-79.33
-79.70
-79.42
-78.52
-76.80
-73.92
-69.56
-63.63
-56.38
-48.50
-40.92
-34.61
-30.24
-27.91
-27.07
-26.61
-25.11
-21.16
-13.79
-2.71
11.58
27.99
45.15
61.86
77.27
90.91
102.47
111.50
117.44
119.72
118.14
113.12
105.65
97.10
88.77
81.54
75.67
70.97
67.05
63.64
60.72
58.48
57.09
56.44
56.05
55.13
52.76
48.22
41.19
31.81
20.76
9.01
-2.22
-11.53
-17.47
-18.82
-14.98
-6.39
5.34
17.76
28.27
34.89
36.89
34.65
29.30
22.05
13.78
5.08
-3.57
-11.60
-18.45
-23.79
-27.80
-31.11
-34.42
-38.10
-42.02
-45.54
-47.97
-48.94
-48.66
-47.81
-47.29
-47.79
-49.59
-52.39
-55.43
-57.71
-58.26
-56.38
-51.84
-44.89
-36.20
-26.73
-17.39
-8.89
-1.56
4.69
10.19
15.24
19.88
23.89
26.92
28.73
29.40
29.32
28.91
28.47
27.97
27.23
26.09
24.72
23.53
23.04
23.56
24.92
26.42
26.98
25.50
21.21
14.04
4.68
-5.52
-14.97
-22.28
-26.67
-28.08
-26.99
-24.07
-19.97
-15.12
-9.88
-4.67
-0.10
3.21
4.83
4.74
3.36
1.41
-0.43
-1.74
-2.47
-2.85
-3.19
-3.74
-4.56
-5.57
-6.62
-7.49
-7.97
-7.88
-7.11
-5.73
-4.00
-2.41
-1.52
-1.69
-2.97
-5.00
-7.13
-8.73
-9.37
-8.96
-7.61
-5.55
-2.92
0.18
3.65
7.22
10.48
13.03
14.56
15.07
14.91
14.51
14.24
14.15
14.01
13.42
12.07
9.97
7.43
4.94
2.89
1.37
0.11
-1.32
-3.37
-6.38
-10.47
-15.69
-21.93
-28.89
-35.92
-42.06
-46.23
-47.53
-45.66
-40.99
-34.49
-27.33
-20.52
-14.64
-9.79
-5.83
-2.55
0.18
2.37
3.95
4.89
5.24
5.22
5.10
5.13
5.39
5.68
5.66
4.90
3.23
0.74
-2.22
-5.32
-8.47
-11.93
-16.10
-21.13
-26.63
-31.61
-34.83
-35.28
-32.65
-27.43
-20.69
-13.60
-7.07
-1.56
2.86
6.22
8.59
9.95
10.45
10.31
9.90
9.50
9.20
8.86
8.19
7.01
5.28
3.22
1.05
-1.10
-3.29
-5.70
-8.56
-11.98
-15.93
-20.29
-24.72
-28.77
-31.76
-33.01
-31.87
-28.06
-21.73
-13.51
-4.34
4.70
12.62
18.76
22.82
24.93
25.57
25.38
24.97
24.69
24.56
24.32
23.68
22.41
20.59
18.49
16.44
14.70
13.28
12.02
10.66
9.00
6.93
4.38
1.25
-2.60
-7.17
-12.17
-16.91
-20.45
-21.91
-20.81
-17.16
-11.37
-4.00
4.47
13.64
23.11
32.40
40.89
48.07
53.74
58.04
61.38
64.14
66.42
68.00
68.45
67.47
65.02
61.39
57.13
52.73
48.47
44.21
39.57
34.11
27.59
20.07
11.84
3.27
-5.42
-14.08
-22.51
-30.21
-36.34
-39.87
-39.83
-35.74
-27.79
-16.95
-4.64
7.53
18.17
26.37
31.84
34.83
35.98
36.07
35.78
35.59
35.75
36.39
37.65
39.72
42.78
46.87
51.71
56.73
61.14
64.33
66.10
66.71
66.67
66.32
65.51
63.60
59.86
54.02
46.66
39.08
32.83
29.21
28.90
32.01
38.36
47.72
59.81
74.09
89.57
104.84
118.39
129.07
136.35
140.25
140.95
138.45
132.39
122.32
108.18
90.66
71.25
51.79
33.82
18.08
4.39
-8.00
-19.82
-31.33
-42.38
-52.65
-62.06
-70.97
-79.97
-89.49
-99.38
-108.83
-116.55
-121.36
-122.62
-120.54
-116.15
-110.92
-106.25
-102.96
-101.06
-99.82
-98.18
-95.18
-90.39
-84.05
-76.85
-69.72
-63.41
-58.30
-54.29
-50.86
-47.35
-43.25
-38.49
-33.48
-29.02
-25.89
-24.57
-25.06
-27.04
-30.11
-34.00
-38.56
-43.52
-48.33
-52.10
-53.93
-53.21
-49.88
-44.44
-37.69
-30.46
-23.43
-17.18
-12.14
-8.66
-6.81
-6.24
-6.26
-6.00
-4.74
-2.26
1.07
4.56
7.59
10.04
12.43
15.67
20.52
27.11
34.65
41.59
46.09
46.65
42.66
34.59
23.79
11.99
0.81
-8.72
-16.20
-21.68
-25.29
-27.01
-26.67
-24.18
-19.82
-14.33
-8.72
-3.86
-0.17
2.53
4.80
7.22
10.02
12.97
15.47
16.81
16.52
14.58
11.52
8.26
5.82
4.88
5.59
7.40
9.32
10.23
9.32
6.20
1.05
-5.61
-13.08
-20.54
-27.07
-31.80
-33.88
-32.86
-28.71
-21.98
-13.57
-4.57
3.97
11.16
16.33
19.08
19.31
17.40
14.11
10.37
6.98
4.22
1.90
-0.47
-3.19
-6.16
-8.82
-10.53
-11.00
-10.47
-9.63
-9.31
-10.18
-12.58
-16.51
-21.72
-27.72
-33.78
-38.96
-42.38
-43.53
-42.52
-39.97
-36.62
-32.97
-28.99
-24.45
-19.19
-13.61
-8.46
-4.57
-2.27
-1.16
-0.32
1.23
3.95
7.62
11.49
14.80
17.13
18.61
19.78
21.25
23.40
26.22
29.34
32.20
34.20
34.92
34.20
32.23
29.44
26.53
24.16
22.92
23.16
25.01
28.38
32.95
38.34
44.07
49.74
55.20
60.45
65.72
71.15
76.75
82.30
87.54
92.30
96.59
100.51
103.98
106.65
107.91
107.14
104.08
99.01
92.65
85.93
79.69
74.34
69.86
65.82
61.62
56.91
51.90
47.35
44.35
43.79
45.70
49.02
51.75
51.62
46.81
36.50
21.00
1.54
-20.21
-42.49
-63.84
-83.17
-99.88
-113.78
-125.14
-134.53
-142.73
-150.55
-158.64
-167.22
-175.86
-183.49
-188.61
-189.91
-186.74
-179.49
-169.51
-158.56
-148.28
-139.77
-133.43
-129.15
-126.54
-125.19
-124.77
-125.09
-126.03
-127.35
-128.60
-129.09
-128.03
-124.87
-119.55
-112.53
-104.64
-96.62
-89.00
-82.04
-76.08
-71.66
-69.44
-69.83
-72.47
-76.24
-79.75
-81.93
-82.55
-82.06
-80.91
-78.90
-74.90
-67.38
-55.35
-39.18
-20.84
-3.10
11.52
21.91
28.52
32.98
37.12
42.09
48.12
54.75
61.33
67.50
73.24
78.66
83.72
87.98
90.80
91.67
90.48
87.67
84.02
80.32
77.02
74.16
71.45
68.53
65.19
61.43
57.45
53.44
49.47
45.42
41.12
36.37
31.12
25.49
19.75
14.34
9.77
6.55
5.01
5.12
6.36
7.83
8.63
8.28
7.04
5.90
6.09
8.46
12.98
18.75
24.47
29.07
32.25
34.48
36.55
39.09
42.22
45.57
48.54
50.72
51.98
52.39
52.13
51.29
49.81
47.58
44.47
40.51
35.92
31.00
26.00
20.94
15.59
9.66
3.19
-3.21
-8.30
-10.70
-9.55
-5.00
1.74
8.97
15.16
19.64
22.61
24.82
27.08
29.77
32.84
35.85
38.22
39.32
38.56
35.59
30.42
23.61
16.25
9.69
5.11
3.06
3.46
5.68
9.07
13.21
17.99
23.40
29.24
35.04
40.23
44.43
47.57
49.76
50.99
50.90
48.79
44.01
36.19
25.50
12.60
-1.70
-16.52
-31.02
-44.37
-55.82
-64.96
-71.86
-77.21
-81.91
-86.64
-91.51
-95.99
-99.46
-101.66
-103.03
-104.55
-107.22
-111.57
-117.33
-123.61
-129.32
-133.57
-135.91
-136.23
-134.61
-131.29
-126.66
-121.36
-116.18
-111.92
-109.15
-108.12
-108.76
-110.78
-113.72
-116.83
-119.02
-118.84
-114.76
-105.69
-91.46
-73.05
-52.40
-31.95
-13.98
-0.20
8.73
13.26
14.91
15.90
18.47
24.20
33.53
45.80
59.61
73.43
86.09
96.88
105.55
111.95
116.03
117.90
117.84
116.39
114.17
111.56
108.63
105.11
100.67
95.13
88.72
81.99
75.65
70.26
66.03
62.67
59.52
55.79
50.86
44.56
37.20
29.42
21.90
15.03
8.66
2.06
-5.64
-15.11
-26.28
-38.16
-49.01
-56.87
-60.08
-57.74
-49.89
-37.57
-22.61
-7.27
6.27
16.42
22.59
25.23
25.53
24.86
24.27
24.23
24.76
25.65
26.74
27.88
28.86
29.34
28.85
27.01
23.70
19.09
13.53
7.28
0.53
-6.72
-14.52
-22.71
-30.81
-37.96
-42.99
-44.77
-42.58
-36.41
-27.10
-16.10
-4.98
5.09
13.65
20.93
27.50
33.74
39.69
44.98
49.14
51.94
53.52
54.25
54.48
54.26
53.36
51.44
48.22
43.72
38.27
32.32
26.21
20.01
13.37
5.86
-2.78
-12.23
-21.45
-28.83
-32.69
-31.82
-25.80
-15.08
-0.81
15.53
32.40
48.40
62.55
74.32
83.66
90.81
96.02
99.30
100.35
98.80
94.50
87.64
78.78
68.58
57.61
46.23
34.76
23.58
13.25
4.33
-2.92
-8.65
-13.53
-18.38
-23.91
-30.31
-37.13
-43.33
-47.52
-48.40
-45.23
-38.09
-28.01
-16.76
-6.34
1.51
5.79
6.48
4.48
1.22
-1.79
-3.51
-3.51
-2.07
0.12
2.17
3.32
3.11
1.42
-1.51
-5.28
-9.36
-13.30
-16.86
-20.20
-23.91
-28.94
-36.27
-46.44
-58.98
-72.22
-83.41
-89.54
-88.40
-79.44
-64.12
-45.35
-26.39
-9.73
3.60
13.91
22.20
29.40
35.87
41.56
46.34
50.35
54.13
58.20
62.77
67.45
71.43
73.94
74.72
74.17
73.18
72.58
72.71
73.10
72.71
70.30
65.03
56.69
45.95
34.14
23.06
14.56
10.09
10.31
14.84
22.30
30.78
38.45
44.19
47.82
49.89
51.06
51.65
51.33
49.44
45.47
39.51
32.34
24.98
18.24
12.21
6.38
0.09
-6.99
-14.53
-21.78
-27.99
-32.79
-36.27
-38.73
-40.39
-41.17
-40.87
-39.27
-36.36
-32.23
-26.82
-19.78
-10.60
1.07
15.10
30.75
46.93
62.69
77.54
91.44
104.53
116.66
127.05
134.34
136.94
133.64
124.10
109.04
90.07
69.22
48.42
29.02
11.65
-3.75
-17.79
-31.36
-45.45
-61.04
-78.82
-98.95
-120.83
-142.96
-163.22
-179.47
-190.36
-195.74
-196.48
-193.93
-189.14
-182.45
-173.64
-162.60
-150.22
-138.85
-131.74
-131.65
-139.47
-153.50
-169.77
-183.32
-189.31
-184.36
-167.02
-137.76
-98.38
-51.62
-0.69
50.83
99.28
141.73
175.72
199.18
210.95
211.47
202.95
188.88
172.89
157.74
145.87
138.24
134.01
131.06
127.06
120.00
108.13
89.98
64.63
34.03
1.28
-31.07
-61.43
-88.16
-108.62
-119.32
-116.76
-98.60
-62.72
-9.85
54.70
122.20
184.09
234.86
272.96
299.97
302.62
273.65
219.68
158.33
105.52
67.32
40.76
18.03
-8.95
-43.68
-85.91
-130.54
-171.88
-206.56
-234.09
-256.30
-276.86
-300.63
-325.48
-349.57
-369.61
-381.94
-382.72
-367.97
-334.56
-281.57
-211.58
-129.98
-42.68
46.40
134.62
219.34
296.73
361.44
408.36
435.69
447.93
455.45
470.92
502.25
547.35
593.90
624.17
623.07
584.62
514.12
424.58
330.97
243.83
166.91
98.54
35.24
-24.87
-81.34
-132.45
-177.80
-219.35
-260.42
-302.63
-343.01
-373.31
-382.74
-363.63
-316.60
-252.64
-189.67
-145.80
-132.48
-150.83
-193.22
-248.73
-308.69
-369.25
-429.88
-489.46
-543.47
-584.84
-608.14
-613.96
-610.04
-608.01
-616.89
-637.75
-662.66
-678.70
-674.91
-647.85
-602.64
-549.38
-497.52
-451.74
-411.30
-372.64
-332.85
-291.65
-251.01
-213.61
-180.88
-152.20
-125.72
-99.36
-72.08
-44.48
-18.34
4.36
22.44
36.19
47.28
57.96
70.12
84.52
100.51
116.61
131.34
144.18
155.96
168.84
185.44
207.63
235.40
266.30
296.21
320.73
337.14
345.67
349.46
353.16
360.95
374.70
393.19
412.45
427.29
433.02
427.19
410.54
386.87
362.03
342.40
333.32
337.66
354.75
380.03
405.59
421.52
418.50
390.78
338.52
268.32
191.28
119.24
60.75
18.95
-7.93
-23.71
-31.58
-32.76
-27.35
-16.09
-1.58
12.20
21.70
25.50
24.89
22.80
21.56
21.36
20.20
15.35
5.22
-9.49
-25.96
-40.65
-51.04
-56.58
-58.89
-60.89
-65.53
-74.44
-87.04
-100.70
-111.57
-116.15
-112.58
-101.22
-84.16
-63.99
-42.46
-19.91
4.27
30.48
57.77
83.45
103.88
115.60
116.60
106.97
88.76
65.32
40.38
17.19
-2.09
-16.56
-26.37
-32.40
-35.74
-37.39
-38.00
-37.87
-36.89
-34.65
-30.60
-24.23
-15.30
-3.99
9.01
22.60
35.52
46.51
54.60
59.26
60.55
59.10
56.00
52.45
49.38
47.10
45.22
42.94
39.55
34.88
29.41
24.21
20.41
18.74
19.34
21.68
24.86
27.81
29.61
29.51
26.99
21.79
14.02
4.26
-6.36
-16.31
-23.97
-28.03
-27.85
-23.61
-16.27
-7.32
1.67
9.41
15.20
19.02
21.35
22.95
24.43
26.05
27.54
28.26
27.45
24.61
19.79
13.63
7.26
1.84
-1.76
-3.40
-3.66
-3.75
-5.07
-8.81
-15.55
-25.04
-36.16
-46.96
-54.97
-57.66
-53.13
-40.73
-21.41
2.28
26.87
48.78
65.28
74.96
77.87
75.08
68.15
58.55
47.29
34.97
22.01
8.95
-3.52
-14.60
-23.71
-30.70
-35.74
-39.17
-41.08
-41.26
-39.34
-35.19
-29.22
-22.50
-16.43
-12.17
-10.14
-9.77
-9.77
-8.59
-5.07
1.12
9.39
18.45
26.78
33.25
37.46
39.83
41.30
42.92
45.39
48.67
51.86
53.26
50.76
42.35
26.86
4.46
-23.05
-52.49
-79.87
-101.39
-114.36
-117.82
-112.65
-101.11
-86.12
-70.55
-56.56
-45.22
-36.49
-29.46
-22.79
-15.29
-6.51
2.91
11.34
16.77
17.77
14.17
7.42
0.00
-5.56
-7.67
-6.15
-2.21
2.27
5.55
6.63
5.48
2.80
-0.39
-3.19
-5.08
-5.94
-5.86
-4.90
-3.00
-0.03
3.98
8.62
12.93
15.71
15.94
13.40
8.95
4.42
1.92
2.99
7.95
15.83
24.91
33.53
40.79
46.73
51.98
57.17
62.43
67.45
71.71
74.99
77.50
79.69
81.91
84.03
85.52
85.73
84.33
81.74
79.06
77.63
78.38
81.25
85.02
87.60
86.78
81.00
69.75
53.68
34.02
12.14
-10.89
-34.33
-57.74
-80.79
-103.24
-124.83
-145.00
-162.74
-176.53
-184.67
-186.01
-180.51
-169.51
-155.24
-139.93
-125.00
-110.74
-96.74
-82.67
-68.86
-56.34
-46.24
-38.84
-32.91
-25.87
-14.69
2.78
26.66
54.79
83.50
109.10
129.50
144.86
157.25
169.28
182.77
197.94
213.64
228.19
240.04
247.96
250.77
247.20
236.23
217.64
192.46
162.66
130.16
95.91
59.55
20.20
-22.24
-66.20
-108.48
-145.50
-174.82
-196.05
-210.64
-220.76
-228.00
-232.75
-234.41
-232.18
-225.67
-215.28
-202.00
-186.95
-170.96
-154.53
-137.95
-121.57
-105.93
-91.61
-79.04
-68.26
-58.92
-50.44
-42.33
-34.31
-26.36
-18.63
-11.42
-5.15
-0.30
2.70
3.60
2.63
0.56
-1.56
-2.77
-2.67
-1.65
-0.63
-0.64
-2.35
-5.80
-10.43
-15.44
-19.98
-23.34
-24.97
-24.53
-21.87
-17.11
-10.64
-3.06
4.97
12.93
20.53
27.66
34.26
40.12
44.90
48.19
49.78
49.72
48.36
46.13
43.40
40.34
36.95
33.21
29.09
24.72
20.27
15.88
11.60
7.38
3.08
-1.48
-6.40
-11.58
-16.66
-21.02
-23.90
-24.62
-22.85
-18.74
-12.90
-6.19
0.54
6.69
11.96
16.35
20.01
23.09
25.62
27.49
28.49
28.41
27.25
25.25
22.85
20.53
18.56
16.96
15.53
14.03
12.37
10.57
8.76
6.94
4.99
2.66
-0.19
-3.49
-6.87
-9.75
-11.55
-11.87
-10.67
-8.17
-4.80
-0.98
2.99
6.96
10.86
14.61
18.01
20.70
22.34
22.71
21.90
20.24
18.23
16.31
14.73
13.51
12.51
11.54
10.39
8.88
6.78
3.84
-0.20
-5.39
-11.58
-18.32
-24.99
-30.93
-35.50
-38.19
-38.57
-36.47
-32.05
-25.85
-18.75
-11.67
-5.25
0.26
5.01
9.20
12.90
15.87
17.78
18.39
17.80
16.43
14.85
13.49
12.52
11.87
11.34
10.79
10.20
9.63
9.12
8.57
7.80
6.56
4.68
2.18
-0.76
-3.77
-6.38
-8.11
-8.55
-7.48
-4.97
-1.35
2.92
7.44
12.03
16.70
21.53
26.44
31.15
35.20
38.14
39.74
40.04
39.16
37.20
34.16
30.05
24.98
19.17
12.84
5.99
-1.68
-10.54
-20.71
-31.76
-42.68
-52.25
-59.57
-64.39
-67.10
-68.25
-68.09
-66.40
-62.67
-56.70
-48.94
-40.48
-32.56
-25.93
-20.55
-15.67
-10.41
-4.34
2.22
8.41
13.28
16.32
17.61
17.68
17.24
16.86
16.76
16.90
17.05
16.96
16.49
15.64
14.50
13.20
11.80
10.35
8.85
7.36
6.07
5.21
5.06
5.83
7.68
10.67
14.80
19.97
25.96
32.40
38.78
44.56
49.29
52.65
54.36
54.21
51.97
47.52
41.00
32.80
23.50
13.62
3.39
-7.21
-18.26
-29.54
-40.33
-49.61
-56.46
-60.54
-62.26
-62.45
-61.91
-60.92
-59.17
-56.10
-51.35
-45.06
-37.82
-30.27
-22.75
-15.24
-7.47
0.67
8.90
16.50
22.56
26.25
27.05
24.93
20.23
13.58
5.75
-2.50
-10.47
-17.58
-23.36
-27.41
-29.44
-29.35
-27.37
-24.04
-20.14
-16.51
-13.75
-12.12
-11.51
-11.54
-11.78
-11.80
-11.25
-9.80
-7.15
-3.09
2.36
8.86
15.82
22.43
27.94
31.79
33.77
34.00
32.83
30.68
27.85
24.36
19.98
14.42
7.58
-0.20
-8.10
-15.05
-20.08
-22.69
-22.94
-21.40
-18.78
-15.70
-12.64
-9.98
-8.09
-7.30
-7.72
-9.03
-10.45
-10.98
-9.81
-6.76
-2.41
2.08
5.51
7.08
6.75
5.06
2.81
0.62
-1.30
-3.09
-4.95
-6.93
-8.73
-9.90
-10.00
-8.90
-6.85
-4.30
-1.73
0.54
2.42
3.99
5.22
5.98
6.00
5.10
3.43
1.60
0.55
1.20
4.02
8.75
14.49
20.07
24.49
27.34
28.76
29.20
29.00
28.17
26.33
23.02
17.92
11.07
2.85
-6.12
-15.18
-23.72
-31.09
-36.65
-39.74
-39.83
-36.82
-31.19
-24.06
-16.94
-11.30
-8.13
-7.61
-9.09
-11.32
-12.91
-12.74
-10.31
-5.79
0.07
6.24
11.75
15.96
18.67
20.12
20.75
20.93
20.82
20.31
19.17
17.27
14.81
12.19
9.99
8.68
8.58
9.78
12.21
15.76
20.23
25.33
30.60
35.54
39.67
42.68
44.61
45.79
46.80
48.33
50.99
55.17
60.79
67.23
73.40
77.96
79.79
78.32
73.74
66.83
58.64
50.07
41.60
33.17
24.39
14.80
4.06
-7.81
-20.46
-33.23
-45.20
-55.32
-62.52
-66.04
-65.73
-62.22
-56.82
-51.16
-46.58
-43.80
-42.46
-41.28
-38.66
-33.52
-25.83
-16.57
-7.26
0.81
7.01
11.67
15.87
20.80
26.96
34.15
41.66
48.81
55.54
62.08
69.05
77.29
87.36
98.84
110.94
123.07
135.27
148.50
163.03
178.82
195.69
213.35
230.39
245.55
257.97
267.10
272.91
273.01
264.53
245.82
216.97
178.20
131.04
78.12
22.84
-30.08
-79.28
-124.48
-165.09
-200.73
-233.49
-265.91
-299.74
-334.93
-368.00
-398.14
-424.98
-447.50
-449.00
-417.33
-352.22
-267.29
-195.02
-141.43
-106.05
-87.78
-80.63
-81.84
-90.36
-103.17
-114.38
-116.23
-100.43
-66.41
-19.25
33.56
84.35
126.73
157.97
179.01
193.08
204.98
215.58
223.98
229.43
231.52
229.75
223.93
214.28
201.53
187.55
172.75
157.61
143.30
130.96
120.63
110.80
98.65
81.22
57.55
29.15
1.10
-19.17
-25.11
-13.84
12.80
49.55
90.23
130.01
165.36
193.36
210.61
213.13
197.92
164.83
117.59
62.93
8.18
-41.27
-83.62
-120.03
-153.36
-186.24
-219.93
-254.21
-288.03
-319.90
-348.45
-372.65
-391.64
-404.69
-411.23
-411.24
-405.59
-396.20
-385.19
-373.60
-360.48
-343.18
-319.02
-287.30
-250.31
-212.42
-177.58
-146.89
-117.72
-84.97
-44.33
4.40
56.12
101.99
132.89
143.53
134.23
110.08
78.95
49.05
26.92
16.58
18.73
30.26
44.47
52.47
46.49
23.43
-12.99
-53.33
-86.63
-105.82
-111.41
-110.67
-113.04
-124.56
-144.65
-167.29
-185.28
-194.34
-194.99
-190.67
-184.36
-176.29
-164.30
-146.28
-123.08
-99.63
-83.31
-80.72
-94.36
-120.85
-151.88
-177.13
-187.92
-180.32
-156.28
-122.54
-87.77
-58.99
-39.20
-27.37
-20.72
-17.72
-19.63
-29.59
-49.67
-77.94
-107.76
-130.19
-138.10
-129.56
-108.58
-82.74
-59.03
-40.55
-25.73
-10.09
10.85
39.04
73.59
111.92
151.45
190.56
228.42
264.22
296.44
322.80
340.81
348.79
346.52
335.32
317.61
296.20
273.48
251.00
229.53
209.48
191.38
176.09
164.50
156.96
152.83
150.51
148.05
144.01
138.09
131.06
124.20
118.56
114.46
111.54
109.23
107.21
105.71
105.35
106.80
110.16
114.74
119.05
121.21
119.64
113.66
103.95
92.31
81.03
72.06
66.34
63.51
62.24
60.88
58.25
54.23
49.91
47.18
47.90
53.21
62.90
75.20
86.97
94.28
93.25
81.19
57.68
25.30
-10.63
-43.41
-67.06
-78.22
-77.05
-66.53
-50.74
-33.00
-14.85
3.69
23.05
43.06
62.40
78.89
90.20
94.58
91.31
80.90
65.02
46.09
26.59
8.15
-9.14
-26.63
-46.19
-68.75
-93.24
-116.54
-134.52
-143.87
-143.50
-134.91
-121.40
-106.48
-92.51
-80.18
-68.98
-58.34
-48.64
-41.46
-38.88
-42.20
-50.88
-62.11
-71.74
-76.02
-73.34
-65.14
-55.26
-48.22
-47.13
-52.31
-61.37
-70.59
-76.86
-78.99
-77.97
-75.96
-74.82
-75.05
-75.64
-74.89
-71.57
-65.78
-58.96
-53.16
-49.90
-49.29
-50.07
-50.31
-48.71
-45.44
-42.13
-41.07
-43.88
-50.60
-59.60
-68.39
-74.65
-77.21
-76.26
-73.01
-69.15
-66.30
-65.79
-68.54
-74.87
-84.38
-95.74
-106.84
-115.23
-118.77
-116.27
-107.71
-94.05
-76.71
-57.00
-35.79
-13.60
9.09
31.57
52.88
72.02
88.26
101.25
110.86
116.84
118.77
116.35
109.75
100.11
89.35
79.62
72.54
68.62
67.30
67.46
68.05
68.60
69.18
70.15
71.69
73.59
75.30
76.19
75.85
74.32
72.07
69.87
68.56
68.78
70.74
74.21
78.62
83.28
87.54
90.82
92.47
91.75
87.96
80.72
70.18
57.01
42.16
26.50
10.71
-4.52
-18.26
-29.26
-36.34
-39.05
-38.27
-36.33
-36.30
-40.90
-51.42
-67.30
-86.40
-105.70
-122.24
-133.61
-138.32
-135.74
-126.11
-110.40
-90.20
-67.48
-44.23
-22.04
-1.79
16.46
33.25
49.29
64.89
79.77
93.09
103.77
110.96
114.23
113.67
109.60
102.47
92.81
81.23
68.44
55.07
41.40
27.18
11.73
-5.60
-24.96
-45.54
-65.79
-84.01
-99.00
-110.39
-118.40
-123.11
-123.95
-119.61
-108.72
-90.83
-67.22
-40.86
-15.58
5.25
19.95
28.87
33.98
37.76
42.21
48.32
56.19
65.48
75.87
87.31
99.83
113.32
127.40
141.37
154.32
165.20
172.86
176.27
174.86
168.91
159.68
149.02
138.65
129.42
121.10
112.74
103.64
93.92
84.68
77.29
72.48
69.77
67.58
63.92
57.22
46.68
32.27
14.30
-6.79
-30.50
-56.06
-82.02
-106.13
-125.55
-137.36
-139.49
-131.48
-114.84
-92.88
-69.90
-50.13
-36.80
-31.64
-34.76
-44.94
-59.96
-77.04
-93.23
-105.98
-113.69
-116.09
-114.24
-110.13
-106.01
-103.69
-103.94
-106.30
-109.19
-110.52
-108.39
-101.91
-91.55
-78.95
-66.28
-55.33
-46.94
-40.82
-35.97
-31.25
-25.84
-19.40
-11.93
-3.56
5.57
15.16
24.71
33.38
40.12
44.01
44.54
41.92
37.16
31.84
27.63
25.76
26.70
30.04
34.87
40.20
45.41
50.32
54.83
58.54
60.26
58.15
50.09
34.56
11.39
-17.76
-49.67
-80.30
-105.77
-123.23
-131.16
-129.34
-118.39
-99.58
-74.65
-45.97
-16.52
10.44
32.02
46.60
54.34
57.26
58.41
60.79
66.27
75.07
85.95
96.96
106.37
113.39
118.29
121.99
125.36
128.70
131.53
132.84
131.68
127.68
121.34
113.92
106.97
101.85
99.34
99.47
101.76
105.42
109.79
114.39
118.88
122.73
124.99
124.27
119.29
109.46
95.44
78.94
62.12
46.80
34.05
24.60
19.52
20.64
30.01
48.49
74.10
101.49
122.95
130.76
119.71
88.69
40.80
-17.60
-78.52
-133.75
-176.19
-200.91
-206.02
-193.05
-166.55
-132.82
-98.25
-67.77
-44.05
-27.64
-17.98
-14.51
-17.46
-27.78
-46.19
-71.90
-101.82
-130.83
-153.27
-165.11
-165.61
-157.54
-145.76
-134.93
-127.49
-122.99
-118.96
-112.68
-102.74
-89.60
-74.99
-60.75
-47.78
-35.67
-23.04
-8.46
8.75
28.06
47.89
66.31
81.78
93.66
102.12
107.66
110.49
110.29
106.48
98.84
88.02
75.42
62.38
49.13
34.31
15.38
-9.94
-42.14
-79.06
-116.40
-149.22
-173.80
-188.73
-194.83
-194.19
-188.91
-180.40
-169.24
-155.69
-140.02
-122.71
-104.41
-85.82
-67.71
-50.93
-36.41
-24.85
-16.49
-10.94
-7.35
-4.68
-1.98
1.58
6.88
14.75
25.59
38.77
52.28
63.13
68.54
67.41
61.13
53.20
47.62
46.98
51.30
58.24
64.54
67.77
67.52
65.18
62.89
62.16
63.18
64.91
65.90
65.15
62.43
57.99
52.13
44.89
36.16
26.13
15.69
6.41
0.08
-1.93
0.82
7.87
18.28
31.13
45.82
61.97
79.18
96.80
114.03
130.07
144.29
156.35
166.07
173.41
178.51
181.62
183.10
183.19
181.86
178.67
172.98
164.20
152.09
136.82
118.88
98.87
77.38
54.99
32.39
10.36
-10.48
-30.05
-49.11
-69.11
-91.52
-116.79
-143.54
-168.50
-187.36
-196.32
-193.40
-179.19
-156.49
-129.15
-100.86
-74.30
-50.97
-31.64
-16.74
-6.52
-1.00
0.40
-1.15
-4.08
-7.01
-9.11
-10.38
-11.43
-13.07
-15.79
-19.38
-22.97
-25.35
-25.55
-23.27
-19.01
-13.91
-9.20
-5.69
-3.40
-1.62
0.75
4.68
10.57
18.05
26.31
34.42
41.72
47.76
51.86
52.72
48.08
35.32
12.39
-20.86
-61.95
-106.09
-147.42
-180.72
-202.88
-213.48
-214.25
-208.07
-197.87
-185.88
-173.40
-160.91
-148.36
-135.48
-122.01
-107.91
-93.30
-78.37
-63.20
-47.78
-32.08
-16.36
-1.29
12.25
23.57
32.54
39.81
46.51
53.71
61.99
71.33
81.37
91.80
102.47
113.18
123.27
131.36
135.39
133.26
123.59
106.46
83.75
58.75
35.36
17.01
5.80
2.24
5.43
13.74
25.40
38.85
52.77
65.94
77.20
85.69
91.04
93.62
94.34
94.32
94.42
95.07
96.33
98.06
99.97
101.56
102.09
100.71
96.86
90.63
82.83
74.69
67.42
61.84
58.35
57.11
58.26
61.82
67.50
74.38
80.95
85.53
87.00
85.30
81.43
76.82
72.69
69.62
67.67
66.71
66.74
67.85
69.93
72.23
73.20
70.69
62.58
47.23
23.96
-6.82
-43.56
-83.63
-123.53
-159.49
-188.36
-208.52
-220.45
-226.39
-229.25
-231.33
-233.43
-234.78
-233.81
-229.17
-220.43
-207.92
-192.23
-173.71
-152.46
-128.87
-104.09
-79.97
-58.38
-40.36
-25.56
-12.71
-0.64
10.71
20.04
25.59
26.36
23.19
18.75
16.78
20.79
33.20
55.12
86.52
126.33
172.25
220.31
264.81
299.13
317.34
316.05
295.69
260.13
215.24
166.63
117.79
69.57
20.74
-30.80
-86.87
-148.08
-213.12
-278.35
-337.93
-384.92
-413.28
-420.20
-407.37
-380.57
-347.27
-313.54
-281.88
-251.20
-218.78
-182.94
-144.75
-107.75
-76.05
-52.15
-35.81
-24.62
-15.61
-6.98
1.22
7.38
9.80
7.90
2.76
-3.34
-8.15
-10.48
-10.74
-10.55
-11.85
-15.82
-22.35
-30.11
-37.16
-41.85
-43.39
-42.01
-38.59
-34.08
-28.98
-23.13
-15.97
-6.90
4.22
16.90
30.11
42.68
53.85
63.63
73.06
83.91
98.03
116.68
139.84
166.05
192.78
217.26
237.24
251.64
260.68
265.63
268.27
270.30
272.93
276.66
281.11
285.15
286.90
284.07
274.32
255.82
227.80
190.87
147.04
99.41
51.40
6.06
-34.65
-70.13
-101.03
-128.92
-155.78
-183.78
-214.76
-249.65
-287.51
-324.81
-355.66
-373.12
-371.54
-349.02
-308.53
-257.08
-203.26
-154.20
-113.64
-81.80
-56.72
-36.19
-18.79
-3.98
8.70
20.26
32.20
45.82
61.40
78.07
94.15
108.10
119.38
128.89
138.66
151.18
168.33
190.49
215.94
240.85
260.16
268.93
263.88
244.46
212.85
173.06
129.34
84.90
41.17
-1.85
-44.91
-88.80
-134.05
-180.92
-229.28
-278.45
-326.72
-371.28
-408.56
-435.16
-448.90
-449.44
-438.29
-418.08
-391.77
-361.94
-330.65
-299.46
-269.52
-241.45
-215.20
-190.02
-164.81
-138.62
-111.14
-82.87
-54.87
-28.41
-4.50
16.30
33.93
48.77
61.61
73.49
85.37
97.74
110.22
121.48
129.73
133.57
132.86
129.10
125.04
123.67
127.06
135.53
147.75
161.54
174.87
186.59
196.46
204.71
211.37
215.89
217.25
214.43
206.86
194.67
178.56
159.58
138.87
117.55
96.66
77.25
60.27
46.49
36.31
29.63
25.81
23.59
21.25
16.99
9.49
-1.44
-14.64
-27.94
-38.85
-45.65
-47.98
-46.97
-44.74
-43.64
-45.54
-51.44
-61.48
-75.17
-91.67
-110.01
-129.25
-148.45
-166.81
-183.54
-197.97
-209.65
-218.60
-225.42
-231.09
-236.54
-242.10
-247.19
-250.70
-251.78
-250.60
-248.39
-246.58
-245.43
-243.08
-235.76
-219.26
-191.02
-151.59
-104.67
-55.58
-9.22
31.77
67.35
99.45
130.70
163.62
200.41
242.88
292.05
346.87
403.37
454.72
492.91
511.53
508.20
485.49
449.63
407.79
365.43
325.08
286.72
249.25
211.67
173.32
133.32
89.74
39.51
-20.73
-92.90
-175.92
-264.80
-351.04
-424.64
-476.85
-502.82
-502.86
-482.04
-448.13
-409.13
-371.27
-338.19
-311.35
-291.06
-277.06
-268.60
-264.18
-261.28
-256.76
-247.80
-232.75
-211.48
-185.06
-154.92
-122.13
-87.53
-52.24
-18.25
11.65
34.88
50.51
60.19
67.89
78.38
95.13
118.96
147.84
178.05
205.83
228.56
245.17
255.67
260.36
259.34
252.48
239.60
220.91
197.02
168.82
137.29
103.29
67.67
31.45
-3.90
-36.42
-63.90
-84.40
-96.89
-101.70
-100.53
-96.03
-91.14
-88.35
-89.26
-94.34
-102.80
-112.73
-121.30
-125.29
-121.93
-109.68
-88.77
-61.14
-29.81
2.11
32.13
58.69
80.87
98.06
109.75
115.72
116.33
112.52
105.52
96.16
84.48
69.67
50.72
27.16
-0.32
-29.77
-58.42
-83.50
-103.01
-116.31
-124.07
-127.81
-129.12
-128.88
-126.65
-120.77
-108.96
-89.46
-61.99
-28.24
8.40
43.83
74.39
97.65
112.80
120.29
121.38
117.61
110.58
101.91
93.25
86.17
81.96
81.22
83.69
88.36
93.88
99.11
103.49
107.11
110.45
113.73
116.38
116.78
112.66
101.90
83.65
59.12
31.75
6.54
-11.26
-17.58
-10.58
8.90
37.64
70.77
102.83
128.81
145.03
149.71
143.18
127.56
106.21
82.84
60.84
42.61
29.32
20.87
16.24
14.22
14.14
16.25
21.38
29.82
40.07
48.39
49.61
38.97
14.16
-23.45
-69.09
-115.88
-156.60
-185.33
-198.40
-194.71
-175.70
-144.89
-107.16
-67.95
-32.55
-5.69
8.87
8.83
-5.89
-32.62
-65.94
-98.84
-124.57
-138.57
-139.37
-128.16
-107.48
-79.94
-47.65
-12.58
22.90
55.83
83.23
102.97
114.38
118.21
116.14
110.12
102.05
93.63
86.41
81.59
79.82
80.92
83.92
87.46
90.24
91.37
90.45
87.38
82.20
74.96
65.81
55.05
43.25
31.12
19.51
9.24
1.02
-4.72
-7.91
-8.88
-8.19
-6.47
-4.16
-1.49
1.43
4.39
7.09
9.22
10.64
11.50
12.16
13.04
14.46
16.70
20.08
25.07
32.16
41.49
52.46
63.68
73.29
79.57
81.57
79.33
73.67
65.61
55.87
44.68
31.94
17.60
2.07
-13.70
-28.42
-40.79
-49.92
-55.55
-58.06
-58.26
-57.08
-55.29
-53.41
-51.77
-50.57
-49.97
-49.97
-50.34
-50.47
-49.52
-46.61
-41.17
-33.15
-23.05
-11.83
-0.60
9.52
17.68
23.34
26.40
27.17
26.28
24.53
22.62
20.97
19.70
18.78
18.34
18.84
21.15
26.21
34.53
45.91
59.27
73.03
85.65
96.03
103.72
108.74
111.23
111.30
109.03
104.72
99.03
92.92
87.33
82.81
79.34
76.40
73.23
69.12
63.59
56.39
47.51
37.11
25.46
12.88
-0.39
-14.24
-28.61
-43.43
-58.38
-72.98
-86.55
-98.42
-108.06
-115.10
-119.34
-120.69
-119.15
-114.90
-108.18
-99.26
-88.32
-75.43
-60.59
-43.90
-25.68
-6.60
12.28
29.72
44.43
55.40
62.10
64.62
63.61
60.12
55.34
50.34
45.96
42.78
41.12
41.04
42.41
44.92
48.17
51.83
55.65
59.49
63.16
66.40
68.85
70.20
70.29
69.11
66.74
63.18
58.53
53.10
47.63
43.19
40.85
41.19
43.94
48.01
52.03
54.86
56.15
56.29
56.14
56.54
57.97
60.57
64.24
68.93
74.66
81.54
89.59
98.52
107.61
115.70
121.32
122.96
119.53
110.59
96.51
78.27
57.14
34.41
11.21
-11.48
-32.75
-51.68
-67.40
-78.90
-84.84
-83.33
-72.13
-49.43
-14.73
30.36
82.36
136.66
188.81
235.31
273.80
302.67
320.71
327.18
322.37
308.03
287.22
263.42
239.21
215.40
191.07
164.41
133.93
99.33
61.64
22.72
-15.48
-51.59
-85.15
-116.52
-146.67
-177.00
-209.12
-244.41
-283.21
-323.84
-362.20
-392.24
-407.53
-403.33
-378.33
-335.22
-280.02
-220.42
-163.98
-116.88
-83.22
-64.99
-62.13
-72.79
-93.52
-119.76
-146.51
-169.25
-184.96
-192.71
-193.75
-190.93
-187.44
-185.46
-185.49
-186.43
-186.55
-184.66
-180.74
-175.86
-171.24
-167.40
-163.65
-158.32
-149.48
-135.66
-116.40
-92.30
-64.91
-36.17
-7.76
19.62
46.60
74.99
106.82
143.11
182.62
221.55
254.41
276.08
283.92
279.17
266.50
252.28
242.14
239.16
243.48
253.27
266.25
280.75
295.70
309.78
320.48
324.04
316.48
295.42
261.64
219.50
175.83
137.69
110.11
94.74
89.86
91.85
97.06
103.30
110.15
118.21
127.79
137.99
146.75
151.78
151.92
147.74
141.35
135.22
130.91
128.39
126.35
123.21
118.28
112.16
106.31
102.03
99.55
97.80
94.99
89.46
80.52
68.56
54.59
39.70
24.45
8.86
-7.38
-24.52
-42.58
-61.28
-80.27
-99.28
-118.13
-136.69
-154.79
-172.15
-188.45
-203.42
-216.94
-228.88
-239.15
-247.54
-253.88
-258.39
-261.99
-266.13
-272.17
-280.52
-290.16
-298.99
-305.10
-308.13
-309.92
-313.88
-323.53
-340.96
-366.19
-397.66
-433.06
-469.77
-504.46
-532.30
-546.82
-541.18
-510.81
-456.15
-383.57
-303.93
-228.89
-167.02
-121.35
-89.55
-66.38
-46.73
-27.55
-8.09
11.40
31.03
51.75
74.67
99.74
125.01
147.15
162.85
170.48
170.86
166.89
162.29
160.38
163.04
170.51
181.56
194.04
205.33
212.82
214.28
208.15
193.75
171.47
142.87
110.54
77.77
47.72
22.54
2.58
-13.55
-28.08
-42.64
-56.95
-68.50
-73.59
-69.21
-55.12
-34.61
-13.78
0.54
3.36
-6.71
-27.17
-52.78
-77.63
-97.02
-108.56
-112.14
-109.04
-100.94
-89.22
-74.97
-59.40
-44.16
-31.34
-22.93
-20.03
-22.41
-28.39
-35.43
-41.08
-43.89
-43.91
-42.70
-42.77
-46.75
-56.36
-71.69
-90.87
-110.44
-126.44
-135.73
-137.28
-132.73
-125.90
-121.38
-122.84
-131.61
-146.20
-162.88
-177.02
-184.48
-182.79
-171.45
-151.85
-126.64
-99.15
-72.77
-50.41
-34.13
-24.72
-21.49
-22.36
-24.48
-24.97
-21.85
-14.60
-4.24
7.18
17.20
23.83
26.02
24.00
19.16
13.79
10.37
10.84
15.91
24.68
34.95
43.95
49.37
50.17
46.92
41.38
35.77
32.13
31.88
35.95
45.04
59.75
80.44
106.79
137.45
170.10
201.81
229.72
251.66
266.43
273.71
274.03
268.55
259.02
247.63
236.55
227.34
220.42
214.92
209.01
200.63
188.22
171.20
150.05
126.03
100.72
75.45
51.01
27.43
4.19
-19.32
-43.20
-66.44
-86.83
-101.36
-107.18
-102.72
-88.49
-67.29
-43.72
-23.21
-10.97
-11.04
-25.93
-56.30
-100.86
-156.10
-216.20
-273.41
-319.31
-346.74
-351.80
-335.02
-300.97
-256.58
-208.63
-161.85
-118.12
-76.94
-36.64
4.10
45.18
84.67
119.12
144.67
158.42
159.66
150.24
133.92
114.99
96.83
81.33
69.22
60.89
57.16
59.17
67.58
81.69
99.02
115.77
127.84
132.04
126.90
112.91
92.43
68.88
45.86
26.18
11.40
1.92
-2.32
-1.26
5.49
18.12
35.73
55.64
73.64
85.00
86.11
75.80
55.95
30.91
6.30
-12.69
-22.74
-23.41
-17.18
-8.57
-2.68
-3.51
-12.92
-30.64
-54.82
-82.93
-112.33
-140.48
-164.72
-182.39
-191.29
-190.51
-181.01
-165.26
-146.12
-125.75
-105.25
-85.24
-66.75
-51.70
-42.47
-41.03
-47.72
-61.05
-78.47
-97.49
-116.36
-133.58
-147.27
-154.54
-152.79
-140.36
-117.76
-88.10
-56.63
-29.07
-9.23
1.80
6.06
6.05
4.54
3.56
4.06
5.58
6.95
8.48
11.64
19.62
33.46
52.76
75.85
100.49
123.76
142.31
154.08
156.72
148.95
127.41
90.00
37.80
-24.21
-89.40
-152.09
-207.65
-255.55
-277.92
-263.93
-215.81
-148.13
-75.99
-7.40
48.82
96.89
136.83
165.71
177.88
170.91
146.06
110.50
73.69
43.23
23.85
14.82
13.55
15.10
15.90
14.99
14.03
14.84
17.73
22.50
27.36
31.36
33.30
33.11
32.04
32.32
35.53
41.32
48.23
53.47
55.15
52.42
46.06
37.84
29.73
22.60
16.07
9.57
2.76
-3.77
-9.27
-13.49
-16.93
-20.41
-24.34
-28.11
-30.16
-29.15
-24.84
-18.68
-13.25
-10.99
-12.94
-18.40
-25.34
-31.49
-35.19
-35.69
-32.83
-26.68
-17.23
-4.55
10.95
28.35
46.41
63.85
79.68
93.28
104.43
113.17
119.77
124.70
128.49
131.48
133.68
134.76
134.30
132.10
128.42
123.90
119.17
114.40
109.13
102.39
93.27
81.54
67.88
53.66
40.38
29.07
20.02
12.97
7.57
3.78
2.02
2.83
6.49
12.69
20.45
28.42
35.23
39.95
42.13
41.72
38.95
34.11
27.61
20.03
12.26
5.38
0.39
-2.14
-2.36
-1.08
0.50
1.27
0.62
-1.42
-4.30
-7.33
-10.06
-12.53
-15.23
-18.91
-24.14
-31.01
-38.93
-46.77
-53.17
-56.88
-57.19
-54.14
-48.51
-41.58
-34.77
-29.20
-25.35
-23.12
-22.05
-21.80
-22.42
-24.32
-27.88
-33.06
-39.15
-44.98
-49.29
-51.19
-50.33
-46.77
-40.75
-32.54
-22.55
-11.53
-0.58
9.07
16.46
21.19
23.46
23.96
23.63
23.49
24.61
27.93
34.01
42.67
52.84
62.67
70.12
73.56
72.30
66.67
57.65
46.52
34.46
22.47
11.35
1.74
-6.02
-11.96
-16.41
-19.76
-22.18
-23.44
-23.20
-21.34
-18.41
-15.48
-13.80
-14.03
-15.99
-18.75
-21.17
-22.53
-22.81
-22.51
-22.15
-21.87
-21.40
-20.25
-18.15
-15.34
-12.44
-10.39
-10.15
-12.51
-17.93
-26.49
-37.65
-50.19
-62.23
-71.57
-76.22
-75.04
-68.13
-56.87
-43.48
-30.35
-19.25
-10.99
-5.24
-1.00
2.84
6.90
10.95
14.06
15.06
13.18
8.59
2.43
-3.52
-7.48
-8.37
-6.14
-1.71
3.52
8.26
11.83
14.35
16.61
19.63
24.14
30.21
37.20
44.00
49.59
53.53
56.16
58.51
61.87
67.24
74.89
84.19
93.54
100.79
103.81
101.26
93.08
80.50
65.45
49.68
34.37
20.20
8.09
-0.25
-2.47
3.48
18.19
40.22
66.42
93.27
118.13
140.00
159.48
177.98
197.28
219.34
246.58
281.71
326.64
380.74
439.39
494.11
534.40
551.18
539.90
502.05
444.31
375.83
305.04
237.47
175.25
118.08
64.72
14.00
-34.84
-82.39
-129.19
-175.83
-222.48
-268.84
-314.34
-358.43
-401.13
-443.66
-488.57
-538.92
-596.63
-660.39
-724.47
-779.33
-814.51
-822.47
-801.65
-756.99
-697.71
-633.37
-570.50
-511.21
-454.41
-398.19
-341.91
-286.71
-234.48
-186.25
-141.16
-96.75
-50.18
0.40
55.04
111.75
167.79
220.64
269.19
314.04
357.09
400.73
447.23
498.41
555.22
617.04
680.66
739.76
785.67
809.69
806.17
774.85
721.13
653.80
581.60
510.15
441.08
373.26
305.21
237.02
170.61
108.60
52.54
1.96
-45.37
-92.36
-141.36
-193.51
-248.35
-304.22
-358.31
-406.77
-444.85
-467.73
-471.66
-455.53
-421.65
-375.49
-323.95
-273.03
-225.75
-181.71
-138.26
-92.85
-45.11
2.40
44.91
77.50
97.08
103.53
99.48
89.05
76.22
63.85
53.42
45.39
39.80
36.60
35.65
36.45
38.08
39.31
38.82
35.76
30.06
22.54
14.57
7.49
2.12
-1.54
-4.14
-6.50
-9.16
-12.00
-14.41
-15.52
-14.68
-11.68
-6.91
-1.16
4.58
9.53
13.31
16.11
18.61
21.70
26.11
31.99
38.74
45.13
49.60
50.72
47.41
39.23
26.34
9.65
-9.25
-28.18
-44.64
-56.22
-61.05
-58.16
-47.64
-30.52
-8.58
16.03
41.06
64.46
84.71
101.02
113.56
123.34
132.18
142.34
156.09
175.17
200.30
230.75
264.29
297.59
327.07
349.91
364.82
372.06
372.78
368.11
358.49
343.64
323.22
297.57
268.04
236.73
205.63
175.85
147.31
119.03
90.00
59.86
29.20
-0.72
-28.57
-53.45
-75.22
-94.34
-111.52
-127.32
-141.81
-154.62
-165.26
-173.58
-180.33
-187.44
-197.76
-213.99
-237.04
-264.89
-292.69
-314.62
-326.31
-326.76
-318.34
-305.17
-290.87
-277.21
-264.45
-252.65
-242.69
-236.12
-233.91
-235.29
-237.83
-238.70
-236.48
-231.90
-227.02
-223.23
-219.68
-213.39
-201.10
-181.86
-158.72
-138.28
-128.09
-133.23
-153.52
-183.26
-213.19
-234.24
-240.95
-233.05
-214.64
-191.59
-168.64
-147.76
-128.35
-108.58
-87.02
-63.47
-38.81
-14.49
8.17
28.04
43.91
54.39
58.10
54.38
43.81
28.39
10.89
-6.20
-21.41
-34.49
-45.99
-56.55
-66.51
-75.85
-84.40
-91.99
-98.28
-102.54
-103.64
-100.40
-92.23
-79.58
-64.02
-47.79
-32.94
-20.66
-10.88
-2.60
5.41
13.80
22.14
29.09
33.26
34.45
34.56
37.45
47.49
67.52
97.23
133.13
170.10
203.74
232.29
256.88
280.48
306.34
337.06
374.56
419.98
473.21
531.69
589.47
637.70
667.10
671.25
649.18
605.64
548.87
487.31
426.87
370.15
317.50
268.62
223.57
182.72
145.88
111.82
78.48
43.96
7.60
-29.68
-65.81
-98.62
-127.13
-152.11
-175.88
-201.31
-230.58
-264.26
-301.26
-339.42
-376.60
-411.69
-444.94
-477.91
-513.00
-552.86
-599.74
-654.35
-714.63
-775.04
-827.07
-861.32
-870.63
-852.74
-811.08
-753.26
-688.00
-622.13
-559.15
-499.85
-443.88
-391.25
-342.52
-298.08
-257.26
-218.03
-177.79
-134.59
-87.99
-39.07
10.13
57.60
102.23
144.08
184.12
223.71
263.98
305.33
347.40
389.32
430.30
470.18
509.06
546.86
582.45
613.27
635.67
645.93
641.61
622.52
590.74
549.62
502.65
452.29
399.65
344.89
287.71
227.45
163.06
93.23
17.37
-62.61
-140.91
-208.15
-253.59
-268.54
-249.94
-201.92
-134.55
-60.81
7.33
61.44
97.71
116.74
121.79
117.18
106.44
90.94
69.21
38.12
-5.12
-60.34
-123.02
-185.16
-237.14
-270.57
-280.30
-265.39
-229.36
-180.08
-129.01
-89.18
-71.85
-82.19
-116.29
-161.54
-200.57
-217.13
-201.53
-153.19
-79.91
5.54
89.16
158.50
204.56
223.03
214.38
183.70
139.36
90.65
45.06
6.74
-23.58
-47.20
-65.57
-79.41
-88.16
-90.25
-83.57
-65.74
-35.09
8.02
59.92
113.69
160.73
193.85
209.97
211.04
202.60
190.59
178.40
165.78
150.08
129.11
103.49
77.07
55.22
42.29
39.44
44.27
52.08
57.90
58.15
51.36
37.86
18.96
-3.59
-27.84
-51.21
-70.36
-81.93
-83.65
-75.69
-61.10
-44.92
-32.33
-26.77
-28.73
-35.96
-44.85
-52.16
-56.43
-58.28
-59.66
-62.59
-67.96
-75.04
-81.76
-85.71
-85.22
-80.16
-72.00
-63.27
-56.42
-52.86
-52.43
-53.55
-53.95
-51.45
-44.41
-31.73
-12.75
12.62
43.56
77.86
111.88
141.21
162.10
173.02
175.41
173.11
170.62
170.97
174.41
178.56
180.07
176.64
168.26
156.68
143.83
129.89
112.78
89.31
57.46
18.01
-25.37
-67.63
-104.47
-133.69
-155.17
-170.00
-179.66
-185.53
-188.84
-190.23
-189.10
-183.44
-170.50
-148.69
-119.11
-85.70
-53.42
-25.74
-3.17
16.23
34.34
50.81
62.69
66.26
59.74
44.93
26.67
10.29
-1.04
-7.49
-11.55
-15.91
-21.59
-27.57
-31.81
-32.94
-31.24
-28.54
-27.03
-27.76
-29.89
-30.88
-27.72
-18.33
-2.37
18.79
42.89
67.83
92.30
115.75
137.95
158.31
175.72
188.65
195.78
196.77
192.47
184.63
175.27
165.74
156.33
146.34
134.77
120.98
105.14
88.20
71.50
56.20
42.83
31.02
19.56
6.79
-8.72
-27.24
-47.38
-66.26
-80.46
-87.37
-86.32
-78.73
-67.32
-54.81
-42.70
-31.11
-19.14
-5.68
9.98
28.11
48.54
70.30
90.99
106.54
111.92
103.28
80.47
48.62
17.49
-1.21
2.38
32.98
88.35
159.75
234.11
297.33
337.54
347.85
327.65
282.24
220.89
153.94
90.06
34.46
-11.27
-48.27
-79.01
-106.27
-132.56
-159.77
-188.88
-219.67
-250.83
-280.68
-308.49
-335.30
-364.42
-400.02
-444.50
-495.90
-546.71
-585.10
-598.58
-578.72
-524.89
-445.37
-355.27
-272.15
-211.11
-180.79
-181.66
-206.53
-243.32
-278.72
-301.93
-307.01
-293.27
-263.68
-222.28
-172.29
-115.91
-55.43
5.41
61.29
106.41
136.51
150.35
149.97
139.44
123.51
106.73
93.14
85.90
86.32
92.43
98.13
94.52
73.39
31.63
-25.94
-87.24
-137.67
-166.49
-171.41
-159.13
-141.06
-126.74
-119.03
-113.68
-103.68
-85.12
-60.57
-37.64
-24.08
-22.73
-29.90
-37.89
-39.84
-33.43
-21.14
-7.49
4.51
15.03
26.39
40.56
57.25
74.16
88.55
99.05
106.20
111.57
116.53
121.52
126.16
129.62
131.09
129.91
125.79
119.11
111.17
104.33
101.48
104.95
115.32
130.89
148.20
163.45
174.12
179.97
182.77
185.24
189.26
195.00
200.96
204.84
204.80
200.28
192.19
182.33
172.75
164.78
158.69
153.84
149.01
142.99
134.97
124.87
113.21
101.28
90.51
82.34
77.83
77.19
79.52
82.96
85.43
85.40
83.75
82.59
84.68
92.00
104.67
121.00
138.08
152.69
161.15
161.62
151.80
130.06
96.34
52.53
2.25
-50.42
-102.74
-155.49
-209.71
-268.73
-334.24
-403.88
-470.57
-524.05
-554.33
-555.59
-529.90
-482.52
-423.83
-363.32
-306.04
-251.52
-195.63
-134.13
-58.34
14.26
76.08
116.42
127.22
105.85
55.96
-13.68
-91.24
-164.59
-224.37
-261.19
-271.13
-254.18
-213.95
-156.60
-89.40
-19.03
49.55
112.59
170.48
222.95
269.26
307.48
334.83
349.18
350.82
343.31
332.07
324.04
322.30
325.76
330.06
330.46
324.63
313.56
300.03
285.73
270.57
252.03
227.86
198.37
167.04
138.71
117.03
102.35
91.64
80.60
65.54
45.61
22.95
1.49
-15.00
-24.51
-27.52
-26.50
-24.70
-25.02
-29.07
-37.10
-48.21
-60.80
-72.79
-81.97
-86.53
-85.73
-80.47
-73.08
-66.55
-63.16
-63.58
-66.69
-70.34
-72.54
-72.30
-69.81
-66.00
-62.10
-59.07
-57.40
-56.99
-56.99
-56.00
-52.54
-45.82
-36.22
-25.31
-14.96
-6.36
0.67
7.33
14.86
23.51
31.98
38.03
39.50
35.62
27.44
17.51
8.77
3.35
1.88
3.60
7.24
12.00
17.99
25.78
35.43
45.66
53.96
57.69
55.68
49.16
41.36
35.94
34.99
38.20
43.35
47.93
50.67
52.03
53.52
56.37
60.61
64.98
67.76
67.75
64.74
59.45
53.08
46.76
41.37
37.58
35.78
35.98
37.72
40.02
41.80
42.28
41.08
38.27
33.96
27.95
19.80
9.15
-3.82
-18.10
-32.14
-44.50
-54.50
-62.54
-69.72
-77.10
-84.92
-92.38
-98.15
-101.21
-101.69
-100.96
-101.08
-103.77
-109.52
-117.35
-125.43
-131.95
-135.93
-137.51
-137.47
-136.44
-134.35
-130.36
-123.37
-112.79
-99.08
-83.73
-68.53
-54.81
-42.84
-31.93
-21.09
-9.74
1.85
12.77
22.03
29.13
34.32
38.32
41.80
44.72
46.09
44.11
36.82
23.09
3.43
-19.65
-42.27
-60.42
-71.47
-75.13
-73.34
-68.96
-64.22
-59.55
-53.71
-44.79
-31.77
-15.20
3.06
20.97
37.33
52.06
65.48
77.28
86.01
89.45
85.83
75.05
59.27
42.13
27.14
15.89
7.06
-3.23
-19.92
-47.08
-86.08
-134.60
-186.82
-234.53
-269.12
-284.01
-276.73
-250.08
-211.54
-170.84
-136.64
-113.52
-100.85
-93.76
-85.97
-72.78
-52.82
-28.09
-2.33
20.71
38.52
50.15
55.74
55.94
51.79
44.68
36.38
28.81
23.41
20.65
19.84
19.45
17.74
13.55
6.67
-2.22
-11.97
-21.59
-30.41
-38.16
-44.50
-48.80
-50.22
-48.11
-42.52
-34.36
-25.10
-15.97
-7.42
0.94
9.87
19.75
29.95
39.03
45.39
48.15
47.74
45.68
43.67
42.75
42.66
42.06
39.47
34.12
26.53
18.24
10.96
5.69
2.25
-0.60
-4.34
-10.07
-17.98
-27.45
-37.29
-46.10
-52.56
-55.58
-54.49
-49.24
-40.45
-29.34
-17.33
-5.64
4.92
13.93
21.24
26.83
30.83
33.54
35.28
36.21
36.08
34.31
30.51
25.03
19.14
14.66
13.05
14.63
18.22
21.64
22.63
19.86
13.36
4.50
-4.51
-11.20
-13.37
-9.74
-0.17
14.16
31.19
48.64
64.69
78.32
89.09
96.62
100.31
99.41
93.58
83.40
70.36
56.40
43.12
31.20
20.41
10.18
0.23
-9.09
-17.00
-22.87
-26.65
-29.02
-30.97
-33.36
-36.46
-39.98
-43.28
-45.66
-46.54
-45.41
-41.77
-35.16
-25.33
-12.51
2.50
18.39
33.68
47.03
57.49
64.66
68.72
70.36
70.59
70.51
70.98
72.39
74.59
77.04
79.09
80.25
80.30
79.18
76.87
73.23
68.09
61.42
53.42
44.62
35.67
27.22
19.64
13.13
7.77
3.76
1.54
1.69
4.58
9.82
16.06
21.00
22.06
17.29
6.21
-9.81
-27.95
-44.90
-58.15
-66.73
-71.38
-73.93
-76.22
-79.25
-82.91
-86.29
-88.40
-88.85
-87.96
-86.41
-84.75
-83.09
-81.17
-78.73
-75.90
-73.19
-71.05
-69.38
-67.22
-62.89
-54.70
-41.79
-24.72
-5.39
13.58
29.70
41.50
48.86
52.79
54.78
56.02
56.91
57.11
55.95
53.06
48.76
43.98
39.84
37.02
35.43
34.24
32.35
28.85
23.36
15.98
7.05
-3.10
-14.17
-25.54
-36.03
-43.93
-47.34
-44.95
-36.55
-23.37
-7.61
8.28
22.38
33.82
42.74
49.85
55.96
61.48
66.35
70.11
72.22
72.41
70.82
67.96
64.37
60.35
55.76
50.11
43.01
34.52
25.35
16.49
8.69
1.85
-4.93
-12.93
-22.78
-33.78
-43.87
-50.36
-51.14
-45.65
-35.20
-22.28
-9.65
0.81
8.41
13.46
16.65
18.51
19.27
18.99
17.90
16.55
15.65
15.83
17.34
19.94
22.99
25.70
27.45
27.99
27.45
26.31
24.98
23.52
21.54
18.25
13.09
6.27
-0.79
-5.72
-6.07
-0.49
10.62
25.14
40.05
52.74
61.84
67.47
70.56
72.10
72.60
72.10
70.67
68.81
67.66
68.47
72.05
78.28
86.05
93.76
99.93
103.82
105.57
106.03
106.13
106.39
106.59
105.81
102.93
97.30
89.22
80.03
71.62
65.67
62.87
62.77
63.98
64.99
64.79
63.17
60.44
56.83
52.11
45.46
36.04
23.59
8.84
-6.59
-21.01
-33.48
-44.40
-55.22
-67.57
-82.12
-97.96
-112.92
-124.64
-131.65
-133.94
-132.72
-129.58
-125.74
-121.72
-117.72
-114.05
-111.35
-110.24
-110.73
-111.86
-111.78
-108.38
-100.12
-86.53
-68.41
-47.29
-24.86
-2.43
19.20
39.49
57.62
72.05
80.65
81.30
72.93
56.38
34.52
11.49
-8.61
-23.16
-31.83
-36.50
-40.36
-46.66
-57.51
-73.25
-92.46
-112.52
-130.66
-144.79
-153.94
-158.09
-157.52
-152.16
-141.47
-124.81
-102.25
-75.18
-46.26
-18.72
4.71
22.64
35.14
43.29
48.31
50.88
51.09
48.76
44.14
38.20
32.62
29.18
28.99
31.99
36.91
41.84
45.10
45.78
44.01
40.55
36.22
31.54
26.63
21.58
16.90
13.62
13.04
16.13
22.98
32.61
43.27
53.05
60.48
64.84
66.23
65.20
62.50
58.82
54.82
51.19
48.71
48.12
49.94
54.10
60.03
66.69
73.00
78.35
82.85
87.32
92.84
100.05
108.55
116.70
122.00
122.02
115.38
102.66
86.33
70.12
57.68
51.36
51.56
56.81
64.71
72.87
79.53
83.67
84.59
81.59
73.88
61.12
43.87
23.99
4.37
-11.90
-22.50
-26.58
-24.84
-19.05
-11.11
-2.33
6.96
17.01
27.90
38.80
47.82
52.49
50.85
42.54
29.10
13.41
-1.54
-13.88
-23.50
-31.67
-40.10
-50.02
-61.78
-75.24
-90.32
-107.30
-126.60
-148.16
-171.10
-193.88
-214.95
-233.35
-249.03
-262.44
-273.91
-283.11
-288.88
-289.72
-284.40
-272.42
-254.25
-231.29
-205.56
-179.44
-155.35
-135.32
-120.56
-111.15
-106.05
-103.47
-101.41
-98.29
-93.18
-85.87
-76.63
-66.05
-54.91
-44.21
-35.08
-28.50
-24.89
-23.76
-23.72
-23.09
-20.60
-16.02
-10.36
-5.24
-2.05
-1.23
-2.11
-3.38
-3.84
-3.13
-1.82
-1.15
-2.30
-5.88
-11.64
-18.68
-25.84
-32.06
-36.62
-39.09
-39.25
-37.04
-32.53
-26.11
-18.56
-11.02
-4.78
-0.81
0.54
-0.23
-1.97
-3.45
-3.82
-2.98
-1.37
0.53
2.77
6.08
11.61
20.11
31.36
43.98
55.99
65.64
72.35
76.81
80.58
85.09
90.83
97.10
102.41
105.29
105.11
102.42
98.77
96.14
96.22
99.78
106.41
114.62
122.34
127.65
129.48
127.85
123.70
118.21
112.12
105.41
97.52
88.05
77.35
66.64
57.53
51.14
47.45
45.15
42.18
36.72
27.92
16.23
3.02
-10.04
-21.65
-31.11
-38.22
-42.91
-45.10
-44.72
-41.91
-37.30
-31.91
-26.88
-22.99
-20.50
-19.08
-18.21
-17.35
-16.18
-14.46
-11.84
-7.82
-1.91
6.06
15.63
25.74
34.74
40.75
42.02
37.32
26.32
9.83
-10.29
-31.57
-51.72
-69.21
-83.65
-95.39
-104.80
-111.55
-114.52
-112.19
-103.45
-88.32
-68.04
-44.63
-20.22
3.42
25.07
43.81
58.82
69.33
74.78
75.12
71.11
64.16
56.04
48.32
41.98
37.20
33.58
30.52
27.62
24.80
22.19
19.81
17.42
14.47
10.39
4.81
-2.23
-10.39
-19.12
-27.77
-35.65
-42.04
-46.22
-47.65
-46.09
-41.70
-35.01
-26.79
-17.93
-9.33
-1.73
4.39
8.96
12.35
15.12
17.77
20.35
22.48
23.50
22.96
20.91
17.92
14.84
12.32
10.48
8.85
6.59
2.83
-3.08
-11.60
-23.13
-38.04
-56.40
-77.43
-98.82
-116.75
-126.63
-124.61
-109.02
-81.17
-44.96
-5.54
32.28
65.16
91.50
110.92
123.54
129.53
129.18
123.34
113.68
102.57
92.35
84.42
78.67
73.58
67.10
57.80
45.74
32.38
19.73
9.21
0.78
-6.81
-15.22
-25.50
-37.66
-50.71
-63.35
-74.32
-82.63
-87.57
-88.59
-85.50
-78.54
-68.45
-56.27
-43.03
-29.64
-16.91
-5.78
2.64
7.35
7.86
4.65
-0.73
-6.19
-9.91
-11.15
-10.56
-9.76
-10.37
-13.04
-17.04
-20.64
-22.03
-20.46
-16.60
-12.15
-8.90
-7.69
-8.15
-9.16
-9.73
-9.64
-9.42
-9.62
-10.08
-9.53
-6.14
1.56
13.69
28.80
44.49
58.53
69.88
78.87
86.68
94.15
100.94
105.53
106.08
101.74
93.42
83.65
75.49
71.12
70.91
73.43
76.26
77.28
75.32
70.44
63.43
55.13
45.99
36.05
25.31
14.25
4.05
-3.63
-7.43
-6.91
-2.98
2.61
8.24
13.41
18.89
25.96
35.21
45.67
55.22
61.73
64.42
64.31
63.46
63.54
64.71
65.61
64.28
59.36
50.83
39.92
28.39
17.82
9.31
3.40
0.20
-0.61
0.20
1.47
1.89
0.43
-3.55
-10.21
-19.46
-31.01
-44.31
-58.28
-71.27
-81.47
-87.52
-89.16
-87.33
-83.77
-80.27
-77.99
-77.09
-77.03
-76.99
-76.41
-75.13
-73.38
-71.46
-69.49
-67.28
-64.17
-59.19
-51.27
-39.70
-24.66
-7.46
9.60
23.83
33.00
35.95
32.85
24.73
12.94
-1.38
-17.29
-33.82
-49.60
-62.98
-72.57
-78.00
-80.16
-80.83
-81.74
-83.68
-86.23
-88.32
-89.26
-89.51
-90.69
-94.53
-101.75
-111.28
-120.75
-127.57
-130.13
-128.41
-123.57
-116.91
-109.03
-99.46
-87.20
-71.64
-53.42
-34.51
-17.60
-4.95
2.59
5.97
7.54
10.10
15.81
25.55
38.85
54.45
71.13
88.23
105.68
123.49
141.26
158.03
172.62
184.27
193.07
199.82
205.43
210.10
213.12
213.19
209.29
201.45
191.03
180.28
171.40
165.78
163.51
163.58
164.38
164.35
162.53
158.82
153.72
147.82
141.23
133.38
123.33
110.53
95.47
79.70
65.19
53.09
43.01
33.10
21.13
5.61
-13.47
-34.80
-56.59
-77.40
-96.53
-113.78
-128.96
-141.49
-150.37
-154.55
-153.30
-146.57
-135.13
-120.56
-105.14
-91.52
-82.27
-79.14
-82.41
-90.79
-101.95
-113.69
-124.89
-135.98
-148.29
-162.82
-179.09
-194.82
-206.88
-212.90
-212.62
-208.11
-202.63
-198.86
-197.48
-197.10
-195.39
-190.71
-183.00
-173.60
-164.02
-154.85
-145.31
-133.71
-118.56
-99.29
-76.23
-50.12
-21.38
10.14
44.85
82.88
123.81
166.84
211.22
256.40
301.56
344.93
383.32
412.70
429.54
432.30
422.08
402.09
376.14
347.25
317.04
285.99
254.35
222.68
191.95
162.91
135.57
108.92
81.31
51.21
17.90
-18.24
-55.81
-92.85
-127.57
-158.74
-186.09
-210.18
-231.82
-251.48
-268.81
-282.52
-290.83
-291.98
-284.71
-268.63
-244.39
-213.97
-180.54
-147.90
-119.42
-97.12
-81.13
-69.97
-61.40
-53.59
-45.68
-37.83
-30.60
-24.39
-19.30
-15.46
-13.40
-14.13
-18.64
-26.95
-37.57
-47.60
-53.76
-53.66
-46.92
-35.27
-21.81
-9.65
-0.72
4.66
7.29
8.07
7.16
3.70
-3.60
-15.40
-30.92
-47.84
-63.07
-74.18
-80.46
-83.33
-85.65
-90.39
-99.16
-111.25
-123.64
-131.97
-131.95
-120.67
-97.22
-62.48
-18.09
34.44
93.72
157.51
221.90
281.08
328.68
359.68
372.18
367.60
349.24
320.42
283.33
239.38
190.59
140.76
95.25
59.16
35.13
22.05
15.73
10.93
3.91
-6.28
-18.10
-29.09
-37.83
-45.13
-53.85
-67.41
-87.80
-114.34
-143.61
-170.85
-192.07
-205.74
-213.17
-217.47
-221.67
-227.24
-233.60
-238.80
-240.71
-238.11
-231.08
-220.74
-208.48
-195.33
-181.53
-166.55
-149.60
-130.06
-107.80
-83.15
-56.67
-28.91
-0.31
28.67
57.31
84.54
109.06
129.62
145.49
156.51
163.08
165.80
165.14
161.26
153.95
142.86
127.73
108.89
87.56
65.94
46.76
32.43
24.10
21.17
21.72
23.39
24.53
24.87
25.43
27.76
32.80
40.13
47.96
53.93
56.37
55.25
52.50
51.17
54.10
62.50
75.42
90.27
104.24
115.50
123.76
129.79
134.36
137.61
138.94
137.83
134.48
130.03
125.84
122.27
117.91
109.61
93.61
67.30
30.73
-13.04
-58.73
-100.21
-131.98
-149.96
-151.92
-137.74
-109.82
-73.39
-36.01
-5.95
10.45
11.11
-0.82
-18.29
-33.08
-38.96
-33.49
-17.79
5.01
31.70
60.14
89.28
118.37
146.22
170.83
189.65
200.23
200.83
190.89
171.07
142.75
107.47
66.82
23.08
-19.95
-56.90
-82.08
-91.72
-86.05
-69.73
-50.03
-33.45
-22.64
-15.31
-6.02
10.59
36.75
70.49
106.94
140.97
169.41
191.74
209.10
222.49
231.44
233.71
226.23
206.60
174.40
131.49
81.36
28.23
-23.92
-71.94
-113.71
-148.24
-175.71
-197.13
-213.95
-227.35
-237.84
-245.20
-249.18
-250.37
-250.50
-252.05
-257.19
-266.60
-279.06
-292.18
-303.56
-311.82
-316.63
-317.84
-314.42
-304.19
-284.88
-255.83
-219.38
-180.54
-145.43
-118.83
-102.66
-95.93
-95.92
-99.80
-105.53
-111.79
-117.21
-119.74
-116.78
-105.95
-86.05
-57.53
-22.28
17.13
58.42
100.12
141.50
182.03
220.66
255.33
283.07
300.77
306.36
299.64
282.45
258.12
230.40
202.47
176.34
152.51
130.11
107.13
81.01
49.39
10.97
-33.84
-82.69
-131.83
-177.10
-215.03
-243.52
-261.82
-270.03
-268.40
-257.18
-236.85
-208.69
-175.08
-139.34
-105.07
-75.23
-51.53
-34.27
-22.82
-16.20
-13.40
-13.52
-15.50
-18.06
-19.93
-20.33
-19.37
-18.08
-18.09
-20.87
-27.21
-36.83
-48.65
-61.20
-73.14
-83.54
-91.86
-97.93
-101.72
-103.28
-102.54
-99.24
-92.78
-82.39
-67.46
-47.88
-24.37
1.52
27.78
52.41
73.87
91.36
104.77
114.43
120.84
124.36
125.13
123.05
118.03
110.20
100.13
88.77
77.25
66.53
57.16
49.31
42.95
38.09
34.85
33.24
33.06
33.76
34.62
35.02
34.69
33.69
32.37
31.17
30.61
31.27
33.77
38.58
45.72
54.66
64.38
73.72
81.72
87.83
91.79
93.40
92.41
88.61
82.19
73.99
65.45
58.17
53.26
50.81
49.68
48.04
44.13
37.12
27.69
18.00
11.07
9.93
16.82
32.60
56.57
86.55
119.30
151.21
179.09
200.96
216.36
226.14
231.68
233.92
232.79
227.50
217.40
202.87
185.77
168.78
154.31
143.30
134.77
126.33
115.30
100.02
80.51
58.51
36.69
17.74
3.59
-4.88
-7.76
-5.78
-0.09
7.84
16.27
23.39
27.89
29.52
29.47
29.96
33.23
40.34
50.29
60.35
67.17
68.37
63.67
54.89
44.85
35.89
28.91
23.29
17.89
12.11
6.48
2.39
1.30
4.00
10.54
20.68
34.43
52.26
74.58
101.09
130.23
159.31
185.21
205.25
217.88
222.80
220.86
213.65
203.10
191.13
179.29
168.39
158.37
148.47
137.72
125.62
112.50
99.60
88.40
79.86
73.81
68.91
63.15
54.67
42.44
26.29
6.76
-15.36
-39.16
-63.70
-87.98
-111.25
-133.34
-154.71
-176.08
-197.62
-218.37
-236.16
-248.43
-253.34
-250.60
-241.43
-227.79
-211.43
-193.39
-174.12
-154.12
-134.51
-116.95
-103.00
-93.18
-86.28
-79.31
-68.39
-50.24
-23.75
9.08
43.32
72.47
90.63
94.67
85.46
67.78
48.76
35.78
34.38
46.85
71.95
105.38
141.10
172.80
195.44
206.10
204.37
191.80
171.16
145.49
117.53
89.50
63.06
39.36
18.93
1.41
-14.51
-30.75
-49.26
-71.25
-96.54
-123.56
-149.89
-172.97
-190.89
-202.78
-208.87
-210.32
-208.83
-206.16
-203.67
-201.89
-200.54
-198.73
-195.43
-190.05
-182.76
-174.34
-165.82
-157.91
-150.75
-144.09
-137.75
-132.13
-128.27
-127.51
-130.79
-138.09
-148.24
-159.11
-168.27
-173.75
-174.74
-171.73
-166.41
-160.98
-157.45
-156.88
-159.12
-163.03
-167.14
-170.33
-172.32
-173.60
-175.09
-177.70
-181.96
-187.99
-195.55
-204.19
-213.35
-222.25
-230.13
-236.36
-240.86
-244.12
-247.17
-251.21
-257.17
-265.35
-275.34
-286.21
-296.84
-306.22
-313.47
-317.69
-317.76
-312.18
-299.49
-278.69
-249.78
-213.90
-173.02
-129.29
-84.51
-39.92
3.51
44.57
81.53
112.35
135.31
149.83
156.88
158.81
158.51
158.48
159.99
162.96
166.37
168.92
169.68
168.35
165.03
159.80
152.25
141.34
125.68
104.12
76.38
43.69
8.67
-25.14
-54.18
-75.79
-88.92
-94.18
-93.56
-89.81
-85.77
-83.75
-85.00
-89.33
-95.10
-99.60
-99.80
-93.14
-78.14
-54.69
-23.99
11.68
49.43
86.23
119.58
148.05
171.57
191.26
208.58
224.38
238.12
247.93
251.35
246.67
233.78
214.44
191.63
168.51
147.33
128.97
113.16
99.36
87.75
79.65
77.07
81.54
92.85
108.61
124.90
137.88
145.47
148.03
147.85
147.62
148.93
151.53
153.85
154.06
151.17
145.41
137.79
129.26
120.04
109.54
96.80
81.22
63.03
43.37
23.71
5.34
-11.15
-25.71
-38.41
-48.94
-56.52
-60.32
-60.15
-56.78
-51.80
-46.88
-42.96
-39.92
-36.85
-32.68
-26.81
-19.30
-10.68
-1.49
7.87
17.13
25.81
33.13
37.96
39.34
36.88
31.16
23.64
16.29
10.84
8.24
8.26
9.71
10.95
10.58
8.08
3.98
-0.25
-2.70
-1.57
4.19
14.58
28.37
43.45
57.46
68.54
75.94
80.12
82.30
83.70
84.84
85.33
84.17
80.45
73.97
65.39
56.08
47.41
40.37
35.23
31.77
29.49
27.89
26.45
24.44
20.76
14.07
3.19
-12.25
-31.29
-51.68
-70.43
-84.80
-93.19
-95.48
-92.54
-85.40
-74.25
-58.35
-36.73
-9.29
22.34
55.02
85.29
110.90
131.83
149.93
167.64
186.30
205.20
221.87
233.28
237.28
233.56
223.53
209.51
193.76
177.75
162.12
146.88
131.77
116.58
101.36
86.48
72.51
60.12
49.74
41.44
34.79
28.91
22.80
15.53
6.39
-5.04
-19.02
-35.67
-54.82
-75.86
-97.56
-118.14
-135.72
-148.84
-156.94
-160.46
-160.48
-158.14
-154.19
-148.91
-142.46
-135.44
-129.13
-125.34
-125.91
-132.04
-143.77
-159.93
-178.18
-195.41
-208.13
-213.00
-207.52
-190.73
-163.74
-129.72
-93.36
-59.76
-33.23
-16.32
-9.45
-11.28
-19.54
-32.00
-47.17
-64.48
-84.00
-105.84
-129.59
-154.06
-177.55
-198.43
-215.72
-229.44
-240.51
-250.21
-259.61
-269.02
-277.89
-284.88
-288.25
-286.03
-276.30
-257.42
-228.34
-189.04
-140.75
-86.05
-28.46
28.19
80.59
126.52
165.06
196.07
219.46
234.34
238.90
230.95
209.25
174.81
131.21
83.53
36.40
-7.77
-48.98
-88.13
-124.82
-155.90
-176.14
-180.59
-167.44
-139.60
-103.90
-68.33
-38.84
-17.27
-1.21
14.23
33.97
60.93
95.27
134.87
176.54
217.48
256.29
293.12
329.24
366.29
405.73
448.58
495.31
545.53
597.50
647.58
690.36
719.61
730.11
719.35
688.51
641.99
585.74
525.14
463.33
400.92
337.03
271.26
205.38
143.71
91.92
54.73
33.68
26.13
26.10
26.51
21.66
8.90
-11.19
-35.67
-60.42
-81.11
-93.79
-95.55
-85.47
-65.38
-40.04
-15.99
0.41
5.00
-3.13
-22.09
-48.55
-79.43
-112.73
-147.36
-182.44
-216.74
-248.75
-277.21
-301.75
-323.08
-342.74
-362.54
-384.43
-410.30
-441.70
-478.89
-519.61
-558.32
-586.91
-596.85
-582.21
-542.07
-480.98
-407.33
-330.46
-257.91
-194.22
-141.18
-99.05
-67.64
-46.57
-35.01
-31.19
-32.51
-36.24
-40.40
-44.28
-48.29
-53.32
-59.86
-67.66
-75.94
-84.24
-92.85
-102.81
-114.86
-128.38
-140.78
-147.93
-145.58
-131.00
-104.09
-67.50
-25.76
16.00
53.26
82.85
103.33
114.83
118.85
117.69
113.85
109.37
105.40
102.01
98.49
94.03
88.34
82.08
76.76
74.22
75.73
81.31
89.54
97.91
103.66
104.59
99.53
88.48
72.41
52.98
32.33
12.67
-4.08
-16.72
-24.95
-29.19
-30.06
-27.64
-21.11
-9.00
10.00
35.95
66.78
98.23
124.49
139.57
138.98
121.35
89.37
49.56
10.65
-19.02
-34.14
-34.10
-22.75
-6.47
8.55
18.52
22.73
22.71
20.55
17.68
14.59
11.50
9.16
9.11
13.05
22.02
35.72
52.61
70.67
88.31
105.09
121.59
138.81
157.22
176.44
195.27
212.49
227.46
240.46
252.13
262.54
270.31
272.41
264.96
244.64
210.17
162.97
107.01
47.54
-10.29
-62.66
-107.47
-144.10
-172.86
-194.25
-208.65
-216.34
-217.77
-213.79
-205.84
-195.71
-185.13
-175.34
-166.73
-158.88
-150.81
-141.51
-130.33
-117.41
-103.72
-91.09
-81.82
-78.18
-81.49
-91.30
-104.90
-117.76
-124.91
-122.74
-110.56
-90.93
-68.68
-49.01
-35.62
-29.79
-30.62
-36.12
-44.08
-52.60
-59.80
-63.58
-61.73
-52.68
-36.36
-14.70
8.76
29.98
45.74
54.59
56.91
54.30
48.61
41.09
32.22
21.80
9.52
-4.62
-20.06
-35.58
-49.44
-59.70
-64.60
-63.09
-55.21
-42.35
-26.91
-11.66
1.04
9.87
14.58
15.79
14.56
12.10
9.82
9.25
11.97
19.11
30.86
46.22
63.23
79.58
93.41
103.81
110.82
115.01
116.92
116.57
113.51
106.97
96.33
81.54
63.37
43.22
22.69
3.06
-14.97
-31.09
-44.90
-55.43
-61.19
-60.65
-53.11
-39.27
-21.23
-1.86
16.07
30.67
41.14
47.69
51.17
52.84
54.10
56.32
60.45
66.81
74.92
83.80
92.27
99.44
104.92
108.90
112.02
115.18
119.23
124.70
131.41
138.47
144.44
147.85
147.90
144.91
140.51
137.24
137.74
143.78
155.58
171.53
188.67
203.52
213.14
215.77
211.15
200.20
184.47
165.57
144.75
122.90
100.35
76.89
51.75
24.12
-6.09
-37.29
-65.83
-86.61
-94.54
-86.36
-61.97
-24.65
19.94
65.33
105.83
137.47
158.22
167.83
167.44
159.37
146.57
132.02
117.69
103.86
89.09
71.13
48.40
21.46
-6.45
-30.08
-43.84
-43.71
-28.67
-0.91
34.90
72.93
107.38
133.27
146.79
145.65
129.61
101.06
65.09
28.69
-1.01
-18.90
-23.61
-17.93
-7.76
0.12
0.39
-9.29
-28.21
-53.48
-81.45
-108.88
-133.34
-153.43
-168.62
-179.20
-186.28
-191.55
-196.89
-203.68
-212.39
-222.29
-231.85
-239.24
-242.90
-241.88
-235.83
-224.89
-209.52
-190.44
-168.55
-144.94
-120.82
-97.39
-75.78
-56.90
-41.40
-29.64
-21.79
-17.78
-17.32
-19.80
-24.13
-28.75
-31.83
-31.61
-26.94
-17.67
-4.77
9.81
23.71
34.82
41.68
43.88
41.89
36.86
30.26
23.66
18.38
15.20
13.97
13.21
10.18
1.23
-17.01
-46.44
-86.40
-133.61
-183.09
-229.72
-269.94
-302.46
-328.07
-348.60
-365.68
-379.83
-390.09
-394.12
-388.72
-370.57
-337.16
-288.17
-226.48
-158.38
-92.19
-35.49
7.74
38.52
61.78
83.44
107.17
132.76
156.87
175.61
187.11
192.63
195.61
199.55
206.19
214.84
223.19
229.07
231.61
231.57
230.48
229.35
227.72
223.31
212.91
193.84
165.43
129.79
91.44
55.99
28.42
11.79
6.70
11.82
24.78
43.19
65.09
88.89
112.64
133.64
148.35
152.91
144.33
121.48
85.20
37.66
-18.53
-80.59
-145.07
-206.89
-259.22
-294.70
-307.87
-297.55
-267.67
-226.04
