1593455714.00
64.000000
-0.00
-0.00
-0.00
-0.00
-0.00
-0.00
-0.00
-0.00
-0.00
-0.00
0.00
0.01
0.01
-0.00
-0.03
-0.05
-0.05
0.00
0.13
0.36
0.66
1.01
1.37
1.72
2.06
2.40
2.79
3.24
3.80
4.42
5.06
5.66
6.20
6.68
7.15
7.68
8.31
9.14
10.09
11.04
11.88
12.56
13.14
13.76
14.65
15.96
17.91
20.32
22.90
25.38
27.58
29.57
31.68
34.32
37.81
42.54
48.15
54.10
59.83
64.97
69.58
74.14
79.34
85.71
93.76
103.00
112.62
121.73
129.77
136.75
143.30
150.75
157.77
166.64
177.95
191.79
206.97
220.57
228.25
225.36
208.53
176.87
132.76
80.05
23.07
-34.94
-92.44
-149.16
-205.23
-260.37
-313.74
-363.87
-409.83
-450.91
-486.50
-515.74
-537.23
-549.22
-549.96
-538.37
-514.21
-478.67
-433.88
-382.45
-327.02
-269.84
-212.63
-156.66
-102.95
-52.37
-5.90
35.58
71.43
101.35
125.50
144.38
158.70
169.15
176.37
180.74
182.57
182.07
179.53
175.27
169.70
163.19
156.10
148.66
141.05
133.37
125.68
118.02
110.43
102.94
95.58
88.39
81.40
74.68
68.29
62.26
56.60
51.27
46.23
41.41
36.80
32.41
28.33
24.65
21.41
18.60
16.09
13.72
11.32
8.84
6.36
4.08
2.26
1.07
0.46
0.17
-0.20
-1.04
-2.49
-4.36
-6.20
-7.49
-7.89
-7.44
-6.64
-6.18
-6.70
-8.39
-10.92
-13.49
-15.27
-15.80
-15.24
-14.25
-13.71
-14.23
-15.96
-18.66
-22.03
-25.78
-29.31
-31.40
-30.33
-24.61
-14.03
-0.39
12.86
22.07
25.17
22.80
17.76
13.36
11.62
12.45
14.34
15.64
16.17
16.94
19.61
24.71
31.01
35.63
35.33
28.15
14.84
-1.13
-14.97
-22.34
-21.22
-12.38
1.22
15.75
27.98
36.13
39.88
40.05
38.06
35.23
32.64
30.69
29.07
26.92
23.18
16.76
6.73
-6.98
-22.90
-38.05
-48.45
-50.93
-44.57
-31.46
-15.54
-0.26
13.18
25.93
39.53
53.99
66.46
72.35
67.68
51.44
25.81
-5.08
-36.75
-65.23
-87.17
-99.94
-102.13
-94.59
-80.24
-63.11
-46.46
-31.46
-17.38
-2.72
13.11
29.13
43.02
51.97
53.52
46.78
32.97
15.51
-0.94
-12.18
-16.03
-13.25
-6.93
-0.40
4.96
10.39
18.54
31.62
49.47
69.04
85.53
94.36
93.08
82.21
64.97
45.99
29.91
19.55
15.09
14.91
17.12
21.03
27.18
36.00
46.31
55.05
58.58
55.01
45.86
35.58
29.42
30.67
39.44
52.26
63.98
70.29
69.28
61.55
48.95
33.44
16.40
-1.26
-18.92
-35.84
-51.24
-64.49
-75.31
-83.83
-90.40
-95.29
-98.56
-100.08
-99.53
-96.65
-91.42
-84.21
-75.65
-66.35
-56.72
-46.97
-37.21
-27.72
-18.83
-10.72
-3.20
4.18
11.62
18.62
23.73
24.88
20.10
8.09
-11.45
-37.54
-67.90
-98.68
-124.63
-139.88
-139.39
-120.62
-84.71
-36.52
16.61
66.81
107.56
134.82
147.22
145.78
133.37
114.16
92.76
73.31
58.81
50.68
48.81
51.85
57.52
62.93
64.92
60.65
48.48
28.71
3.81
-22.15
-44.90
-61.49
-71.41
-76.79
-81.49
-89.51
-103.34
-123.07
-146.43
-169.68
-189.01
-201.34
-204.98
-199.79
-186.91
-168.39
-146.78
-124.56
-103.75
-85.65
-70.44
-57.53
-46.05
-35.42
-25.60
-17.05
-10.02
-4.02
2.06
9.91
20.76
34.37
48.81
61.26
69.26
71.68
70.81
68.41
66.16
65.40
67.00
71.33
78.19
86.54
94.71
100.97
104.24
105.03
104.77
104.64
104.36
102.27
96.41
85.98
72.05
56.81
42.73
31.25
22.50
15.72
9.79
4.00
-1.80
-7.37
-12.55
-17.14
-21.07
-24.91
-28.46
-31.59
-34.00
-35.41
-35.98
-36.72
-38.59
-41.70
-44.52
-43.95
-36.65
-20.70
3.04
30.59
55.91
73.40
79.82
75.12
61.78
43.43
23.59
4.94
-9.78
-18.97
-22.60
-21.41
-16.52
-9.25
-1.12
6.31
11.93
15.14
15.97
15.38
14.94
15.97
18.97
23.32
27.61
30.41
30.78
28.37
24.27
20.25
17.70
16.98
17.25
16.54
13.55
7.60
-1.39
-11.57
-20.40
-26.13
-28.58
-29.02
-29.65
-32.45
-38.43
-48.17
-59.73
-70.53
-78.18
-81.27
-79.39
-73.23
-64.69
-57.09
-55.60
-62.76
-78.01
-97.25
-113.69
-119.97
-111.20
-87.18
-45.45
0.83
38.53
60.99
69.22
68.81
65.66
63.01
60.86
57.55
50.68
41.51
33.19
28.55
28.67
32.45
37.53
40.97
40.92
36.21
28.59
21.08
16.31
15.64
18.74
24.06
29.24
32.33
32.15
29.64
27.12
26.87
30.52
38.57
51.15
67.48
86.64
106.77
125.04
137.42
139.51
128.92
105.56
75.49
46.07
23.45
10.03
4.33
2.54
0.40
-3.55
-9.00
-14.68
-20.14
-25.85
-32.75
-41.36
-49.83
-57.36
-62.48
-64.13
-62.39
-58.57
-54.38
-51.20
-49.50
-48.80
-48.24
-46.75
-43.93
-40.15
-36.43
-33.77
-32.55
-32.37
-32.21
-31.27
-29.08
-26.15
-23.64
-22.78
-24.16
-27.28
-30.63
-32.44
-31.69
-28.58
-24.75
-22.51
-23.74
-28.88
-36.54
-44.39
-49.45
-50.22
-47.26
-43.02
-40.57
-42.34
-49.32
-60.82
-74.58
-86.98
-93.35
-88.67
-69.57
-36.98
3.72
42.35
67.22
69.96
49.36
12.64
-27.38
-57.38
-68.74
-60.30
-37.68
-9.90
15.12
31.88
39.62
40.44
37.14
31.80
25.29
18.09
10.95
5.37
3.15
5.47
11.81
20.10
27.83
33.34
36.51
38.50
41.05
45.43
52.14
60.39
68.86
76.23
81.95
86.64
91.70
99.17
110.69
126.17
142.64
154.66
156.06
141.64
113.17
77.02
42.10
16.32
3.46
2.31
8.19
15.71
21.48
24.84
26.37
26.71
25.70
22.46
16.19
6.87
-5.05
-18.52
-32.37
-46.37
-60.77
-75.88
-91.86
-108.09
-122.55
-134.35
-142.51
-146.87
-148.95
-151.50
-157.23
-166.90
-177.80
-184.05
-178.92
-157.83
-121.42
-76.18
-31.83
2.99
24.13
33.46
36.99
41.33
50.86
66.64
87.04
109.24
130.08
145.79
151.56
142.15
114.09
68.99
14.27
-38.10
-76.05
-92.12
-86.42
-65.78
-39.97
-18.58
-6.01
-1.71
-2.27
-4.34
-6.15
-7.32
-7.32
-5.28
-0.09
8.99
20.93
33.36
43.51
49.68
52.13
53.36
56.40
63.88
77.26
96.13
118.38
140.06
155.85
158.80
145.89
117.58
78.26
35.79
-4.71
-40.68
-72.60
-102.22
-129.45
-150.28
-158.19
-147.11
-114.94
-65.54
-7.89
46.78
88.80
112.60
117.72
107.66
88.39
65.30
45.38
33.19
29.96
34.08
42.51
52.51
62.27
70.91
77.56
81.32
80.90
75.62
66.17
54.38
42.78
33.48
27.42
23.91
21.65
19.20
15.84
11.88
8.42
6.83
8.01
12.05
18.02
24.83
31.33
37.13
43.10
50.62
61.03
75.34
93.87
115.80
139.93
164.59
188.28
210.16
229.56
245.68
257.42
266.02
271.14
272.27
268.60
259.93
247.59
232.97
217.04
200.44
183.30
164.79
144.01
118.94
88.66
55.70
22.48
-9.84
-40.41
-69.14
-96.99
-125.12
-157.06
-194.46
-232.39
-266.87
-296.87
-322.11
-343.43
-362.92
-383.27
-411.71
-453.82
-505.79
-564.51
-628.67
-693.24
-750.14
-790.70
-808.66
-808.20
-796.80
-773.94
-742.64
-709.72
-678.66
-650.47
-625.57
-569.76
-468.38
-376.81
-317.25
-275.94
-246.26
-222.59
-200.97
-179.30
-156.95
-139.52
-130.54
-121.74
-107.59
-88.61
-65.52
-39.56
-12.30
14.88
37.00
51.70
66.35
86.55
113.16
146.75
186.76
231.50
278.14
320.62
353.95
379.24
396.99
405.57
404.65
394.82
377.36
354.03
325.57
293.31
261.08
231.58
205.26
182.55
163.13
145.84
129.01
110.49
88.82
64.22
37.59
9.73
-16.26
-37.82
-53.85
-64.98
-73.04
-80.04
-87.52
-95.96
-105.09
-109.93
-106.15
-91.57
-66.75
-34.12
3.77
45.41
90.66
140.01
200.66
277.99
373.23
482.53
598.53
713.38
820.97
917.50
1000.84
1078.49
1156.75
1237.77
1318.39
1392.02
1452.33
1495.67
1521.30
1476.95
1333.37
1088.86
773.14
433.10
110.88
-168.52
-397.08
-577.50
-717.26
-816.42
-876.19
-901.03
-899.46
-881.98
-857.67
-832.84
-809.94
-788.92
-762.33
-724.55
-674.11
-614.54
-552.27
-493.60
-442.87
-402.04
-371.42
-346.43
-322.98
-298.71
-273.49
-249.46
-227.37
-206.28
-184.03
-158.28
-125.35
-82.86
-30.07
28.38
86.55
138.60
180.02
208.54
223.84
227.51
221.49
207.69
187.92
164.84
141.74
121.67
106.45
96.04
88.55
81.29
71.91
59.40
45.00
31.36
21.36
16.92
18.39
24.22
31.07
34.39
29.59
13.85
-12.58
-46.05
-80.55
-109.57
-128.44
-135.63
-132.57
-122.52
-109.00
-94.86
-81.95
-71.20
-62.47
-54.94
-47.70
-40.42
-33.93
-29.92
-29.64
-32.28
-34.39
-30.76
-17.67
4.00
28.01
45.16
48.10
35.84
15.43
-2.87
-9.34
-0.16
20.39
42.11
53.66
48.13
25.97
-5.74
-37.05
-59.39
-68.85
-66.71
-57.58
-46.78
-37.83
-31.46
-26.38
-21.20
-15.75
-11.48
-10.30
-12.77
-17.34
-20.45
-18.05
-8.04
8.06
25.63
38.97
44.58
42.72
36.77
31.01
27.53
24.79
18.58
4.70
-18.32
-47.82
-78.09
-103.25
-119.41
-125.73
-123.81
-116.44
-106.55
-96.84
-88.50
-80.68
-70.49
-53.18
-23.86
20.35
78.81
147.05
214.93
270.19
301.79
301.90
268.06
203.96
119.30
28.55
-51.92
-107.47
-128.46
-113.67
-71.22
-14.60
42.11
88.18
118.12
130.84
127.54
110.46
80.90
39.16
-12.39
-68.65
-122.64
-168.08
-201.77
-224.73
-240.62
-246.17
-240.05
-223.31
-199.04
-169.33
-133.81
-91.53
-47.69
-3.73
36.48
67.44
86.01
92.17
89.11
80.70
72.24
68.26
72.08
84.52
104.25
129.46
156.38
179.29
191.35
186.41
160.32
112.98
47.95
-28.18
-99.27
-148.15
-166.87
-159.51
-136.29
-106.95
-77.27
-49.77
-24.83
-1.75
18.87
35.81
48.53
58.09
66.27
74.80
84.48
94.61
103.68
108.88
107.26
97.36
79.71
56.44
31.28
7.38
-13.20
-29.40
-41.60
-50.97
-58.27
-63.67
-66.79
-67.35
-65.53
-61.92
-57.24
-52.54
-48.93
-46.64
-45.57
-45.05
-44.42
-43.34
-41.77
-39.88
-38.09
-37.11
-36.98
-37.85
-39.66
-42.31
-45.71
-49.90
-54.94
-60.82
-69.05
-78.02
-86.45
-92.86
-95.67
-93.53
-85.66
-72.15
-52.23
-28.95
-4.30
20.11
43.41
65.38
86.06
105.26
122.17
135.52
143.38
144.68
138.93
126.83
110.02
90.33
69.41
48.10
26.84
5.39
-16.20
-37.97
-59.80
-80.97
-99.65
-112.50
-115.23
-104.31
-79.27
-43.55
-4.21
30.61
55.04
67.53
70.96
70.38
70.02
71.19
72.67
72.43
69.40
64.55
60.17
58.43
60.25
65.12
71.90
79.14
85.30
88.14
84.75
72.25
49.37
17.84
-17.63
-50.81
-76.42
-92.10
-98.89
-100.15
-99.33
-98.55
-98.18
-97.87
-97.56
-97.82
-99.99
-103.85
-108.14
-110.46
-108.23
-99.38
-83.40
-61.28
-35.24
-8.22
17.04
38.37
54.65
65.79
72.58
75.88
76.60
75.29
72.07
66.76
59.28
49.89
39.51
29.54
21.13
14.81
10.28
6.07
0.19
-9.12
-22.97
-41.68
-63.84
-89.04
-115.76
-140.74
-159.20
-166.20
-158.78
-137.82
-108.17
-77.02
-51.24
-34.43
-26.25
-23.81
-23.99
-24.28
-23.78
-22.18
-18.90
-13.07
-3.76
8.86
22.93
35.89
45.56
51.11
53.89
56.44
61.26
70.49
85.35
105.84
130.76
157.29
179.50
191.96
190.54
174.15
146.26
113.81
84.35
63.64
53.63
52.77
57.53
64.65
70.37
71.55
65.10
47.82
17.69
-24.84
-75.33
-125.66
-165.91
-188.81
-192.31
-180.50
-162.06
-145.77
-137.62
-136.08
-135.18
-127.18
-106.74
-72.29
-26.59
22.39
65.49
93.85
102.79
93.71
75.64
58.75
52.64
62.01
84.39
111.53
132.99
140.94
130.69
105.19
70.11
31.09
-8.58
-47.66
-85.19
-119.12
-146.14
-163.13
-168.54
-164.80
-155.56
-144.89
-135.78
-128.76
-122.19
-113.31
-100.02
-81.44
-59.27
-36.54
-16.51
-1.42
8.31
13.97
17.79
21.87
27.47
34.38
41.48
47.42
50.94
51.48
49.07
44.03
36.58
26.74
14.14
-1.32
-18.90
-37.25
-54.35
-67.96
-76.25
-78.34
-74.20
-64.44
-51.28
-35.72
-18.07
2.03
24.96
50.59
77.77
104.61
128.91
148.96
164.46
176.28
186.35
197.14
211.24
230.92
257.18
288.84
321.82
349.72
365.09
362.06
338.57
297.27
244.53
187.95
133.67
84.84
42.02
4.45
-28.20
-54.88
-73.57
-82.26
-80.18
-68.31
-49.22
-26.19
-2.29
20.55
41.65
61.06
78.62
93.08
102.17
103.66
96.89
83.92
69.32
58.44
55.10
59.82
69.77
80.17
86.54
86.30
79.29
67.03
51.47
34.00
15.23
-4.71
-25.76
-47.65
-69.96
-92.29
-114.21
-134.68
-151.60
-161.97
-162.96
-153.77
-136.91
-118.17
-104.54
-101.34
-109.23
-123.79
-137.53
-143.53
-138.91
-126.00
-111.19
-101.67
-101.76
-110.66
-122.48
-128.15
-118.57
-88.17
-37.52
26.07
90.33
141.88
170.40
171.60
147.67
105.75
54.72
2.60
-44.80
-83.84
-112.83
-132.04
-144.18
-153.61
-164.44
-178.52
-193.76
-204.30
-203.27
-186.02
-152.40
-107.11
-56.60
-6.30
40.09
79.37
107.32
119.40
113.62
93.84
68.24
47.44
38.84
42.12
49.14
48.45
31.64
-1.84
-44.87
-90.34
-133.62
-174.84
-217.13
-263.05
-311.92
-360.04
-402.76
-437.09
-467.32
-500.10
-541.40
-593.28
-652.81
-713.44
-768.03
-811.12
-814.87
-761.14
-644.40
-476.09
-280.80
-85.26
91.53
240.58
360.53
453.92
520.48
560.41
575.41
569.59
549.91
524.51
500.12
480.68
467.49
456.59
443.37
424.21
398.48
367.09
332.67
297.67
263.27
229.49
193.51
152.95
106.91
55.90
3.24
-46.17
-87.72
-118.30
-136.58
-143.92
-142.20
-127.31
-100.99
-66.31
-26.52
15.16
55.58
91.64
120.26
139.90
150.79
153.72
151.44
147.07
143.05
140.10
138.36
134.91
127.03
112.58
89.33
56.80
16.61
-27.21
-67.33
-95.45
-106.22
-99.08
-78.92
-54.56
-34.33
-22.94
-20.36
-23.16
-27.36
-30.85
-33.43
-36.19
-40.10
-44.73
-48.58
-50.16
-49.03
-46.35
-44.15
-44.24
-47.27
-52.72
-59.14
-64.87
-68.71
-70.51
-71.10
-71.75
-73.28
-75.70
-78.16
-79.26
-78.22
-73.81
-65.74
-54.73
-41.96
-28.69
-15.85
-3.99
6.64
15.95
23.86
30.19
34.62
36.92
37.02
35.07
31.52
26.79
21.27
15.26
9.01
2.62
-3.88
-10.49
-17.21
-24.00
-30.85
-37.73
-44.63
-51.32
-57.58
-63.35
-68.53
-73.13
-77.17
-80.74
-83.97
-86.98
-89.59
-91.60
-92.86
-93.19
-92.40
-90.24
-86.30
-79.92
-72.73
-65.33
-57.89
-50.45
-42.95
-35.35
-27.69
-20.06
-12.59
-5.43
1.72
9.06
16.54
23.88
30.45
35.35
37.68
36.57
31.62
23.18
12.11
-0.45
-13.18
-24.86
-34.35
-40.58
-42.59
-39.52
-30.56
-15.32
6.36
34.68
70.32
114.21
166.72
226.28
288.60
347.29
395.48
428.01
442.78
440.67
424.41
397.38
362.90
324.59
286.84
254.46
231.36
218.72
214.05
211.87
205.82
191.35
167.40
136.35
102.73
71.51
46.61
30.18
22.43
21.78
25.25
29.04
29.19
22.51
7.58
-14.65
-40.95
-66.59
-86.93
-98.93
-102.33
-99.96
-97.08
-99.87
-113.77
-141.67
-182.73
-232.40
-283.55
-328.54
-361.24
-378.14
-378.56
-363.60
-335.16
-295.34
-246.72
-193.01
-139.27
-91.32
-54.21
-30.62
-19.90
-18.29
-20.34
-20.91
-16.72
-7.08
6.26
20.27
31.59
37.71
37.48
31.08
19.74
5.53
-8.97
-21.17
-28.78
-31.00
-28.11
-21.65
-13.90
-7.19
-3.38
-3.54
-7.90
-15.19
-23.92
-30.77
-31.58
-22.39
-0.75
33.45
77.89
128.60
181.76
232.10
275.51
308.16
326.76
329.58
317.45
294.20
265.43
237.07
210.21
183.51
153.65
118.05
77.58
36.93
3.10
-23.64
-33.06
-28.78
-17.08
-5.36
0.98
0.95
-1.77
-0.35
12.45
42.25
88.25
145.73
206.16
259.37
295.98
309.58
298.25
264.73
216.37
161.19
108.10
64.51
35.31
22.65
26.30
43.88
71.50
104.27
135.83
160.77
175.13
176.93
165.78
142.17
107.11
62.02
9.18
-49.11
-110.10
-171.25
-230.12
-283.93
-329.10
-362.07
-380.17
-382.97
-372.97
-354.31
-330.79
-303.80
-271.99
-232.71
-185.75
-134.49
-85.82
-47.64
-25.37
-19.57
-25.30
-34.02
-36.86
-29.76
-13.56
6.72
24.36
33.59
31.30
17.35
-6.19
-36.31
-73.06
-116.98
-168.12
-224.65
-282.74
-337.79
-386.15
-426.28
-458.86
-489.72
-524.71
-567.51
-617.97
-672.18
-724.51
-769.65
-804.36
-804.69
-754.69
-648.56
-495.02
-314.76
-131.47
36.63
180.26
297.38
390.05
458.39
502.89
525.11
528.46
518.25
500.35
480.25
462.07
448.41
437.57
426.73
413.03
394.75
372.76
347.64
320.71
293.51
267.46
241.53
213.77
181.72
143.55
98.73
49.28
-1.70
-51.38
-97.46
-138.41
-172.15
-195.60
-205.12
-198.36
-176.09
-142.73
-105.25
-70.47
-42.73
-23.33
-11.85
-5.75
-3.24
-3.08
-3.88
-3.56
0.46
10.83
28.67
52.88
80.13
105.25
122.38
127.20
118.46
97.38
70.89
48.07
35.95
36.51
45.64
55.27
57.95
50.19
33.65
14.34
-0.86
-7.72
-6.55
-1.91
-1.04
-9.97
-30.33
-58.86
-89.30
-115.96
-136.32
-151.19
-163.11
-174.05
-184.78
-192.19
-192.71
-184.22
-167.36
-145.43
-122.60
-102.29
-86.35
-74.58
-64.70
-54.17
-41.05
-25.04
-8.50
5.68
14.93
17.55
13.86
6.81
0.75
0.74
8.15
21.26
37.46
53.66
66.72
75.19
80.54
86.29
97.53
119.17
152.75
199.17
257.75
325.01
386.39
424.83
424.61
378.56
308.03
230.91
164.07
122.23
110.28
129.80
175.40
234.30
289.95
326.79
332.81
305.87
252.27
182.07
105.12
28.38
-43.66
-106.27
-153.33
-179.61
-181.18
-158.82
-119.43
-73.52
-30.60
4.91
34.51
62.25
89.89
114.39
128.56
124.23
96.72
47.65
-15.77
-84.15
-150.69
-211.82
-267.46
-317.64
-360.60
-393.16
-411.80
-414.63
-402.46
-379.46
-349.61
-316.97
-284.31
-253.81
-228.63
-211.67
-204.46
-201.50
-206.30
-213.52
-217.18
-210.14
-185.81
-141.11
-76.83
1.61
84.69
159.65
215.02
240.74
234.15
206.86
170.94
135.97
107.14
88.47
80.71
82.41
88.43
92.20
87.65
70.44
40.69
3.68
-32.40
-59.36
-69.25
-56.53
-18.56
43.06
120.81
202.77
275.45
325.94
344.91
329.85
285.25
221.18
150.06
82.51
23.22
-23.04
-53.73
-69.39
-72.44
-65.94
-52.59
-34.71
-14.95
4.24
21.68
36.78
49.41
59.77
68.22
74.75
78.88
80.79
79.13
73.58
64.52
52.69
39.53
26.99
17.12
11.52
10.96
15.37
24.56
37.73
52.64
67.14
79.78
89.78
97.71
103.62
107.28
108.66
107.84
102.99
92.91
78.06
60.55
43.21
28.35
16.98
8.98
3.26
-5.06
-20.36
-44.27
-75.48
-111.05
-148.40
-186.53
-226.42
-270.29
-324.77
-394.21
-478.06
-570.73
-663.70
-748.92
-820.13
-873.17
-879.22
-822.34
-705.65
-552.59
-395.86
-261.79
-163.06
-99.51
-63.80
-46.66
-44.64
-58.70
-85.53
-119.15
-151.35
-174.46
-182.92
-173.89
-146.96
-106.79
-58.53
-7.34
43.57
94.60
143.66
189.77
233.19
274.95
313.35
344.67
364.62
369.25
356.60
328.81
291.68
252.63
218.18
191.20
170.83
155.92
145.14
137.65
135.59
141.38
156.35
179.80
209.77
242.70
277.43
312.31
343.33
367.85
381.58
379.74
359.52
323.31
277.12
234.53
209.05
208.62
238.87
298.35
379.10
469.41
557.57
631.37
686.53
722.08
704.56
615.79
458.35
256.60
44.96
-127.79
-258.95
-355.66
-424.02
-467.86
-487.44
-481.96
-455.88
-418.66
-380.45
-350.07
-325.76
-300.43
-269.00
-227.81
-178.53
-126.57
-76.94
-32.05
4.63
31.29
45.48
43.82
29.12
10.64
1.38
12.71
48.64
101.93
150.97
174.79
160.07
109.30
37.16
-39.62
-110.04
-170.66
-221.20
-265.62
-302.97
-329.12
-339.13
-330.32
-303.62
-262.56
-210.61
-151.57
-89.93
-28.63
29.37
81.18
124.04
155.52
174.14
180.00
174.89
161.73
145.32
130.00
118.42
110.93
106.11
101.89
96.68
89.95
82.03
74.73
70.17
70.07
74.66
81.81
86.98
84.38
69.16
39.92
0.33
-41.96
-78.22
-102.15
-112.10
-110.82
-103.23
-93.66
-84.16
-74.53
-63.87
-51.88
-39.51
-28.38
-19.72
-13.66
-9.38
-5.55
-1.38
2.91
6.24
7.25
4.88
-0.97
-9.27
-18.27
-25.92
-30.72
-32.21
-30.90
-27.85
-24.28
-21.00
-18.23
-15.65
-12.71
-8.93
-4.39
0.79
6.60
13.19
20.73
29.17
38.00
46.46
53.80
59.31
63.24
66.68
71.05
77.43
86.04
96.18
106.48
115.59
121.89
124.79
124.69
122.60
119.73
116.95
114.17
110.03
106.81
104.22
101.52
97.98
93.06
86.66
79.21
71.87
66.54
65.55
70.01
79.80
92.81
105.31
113.19
113.62
106.17
92.75
76.52
59.71
43.34
27.42
12.05
-1.51
-10.71
-12.95
-7.26
4.49
17.57
26.43
27.01
18.22
2.23
-16.67
-33.93
-46.33
-52.60
-53.49
-50.86
-47.01
-44.15
-44.04
-47.68
-55.14
-65.69
-77.83
-89.94
-100.65
-109.11
-115.26
-119.92
-124.58
-130.58
-138.02
-145.00
-147.90
-143.04
-128.89
-107.69
-85.01
-67.59
-60.22
-63.71
-75.02
-89.24
-102.28
-112.50
-120.62
-128.31
-137.00
-147.54
-160.66
-177.46
-199.00
-225.06
-253.08
-278.49
-295.79
-300.68
-291.64
-270.16
-239.91
-205.24
-170.03
-137.30
-109.49
-88.57
-75.92
-71.55
-73.64
-78.63
-82.34
-81.45
-74.68
-62.96
-48.64
-34.00
-20.26
-7.38
5.30
17.90
29.55
38.55
43.36
43.72
40.97
37.59
36.10
37.94
42.82
48.96
53.94
55.71
53.46
47.80
40.46
33.64
29.34
28.44
30.89
35.82
41.91
47.56
51.31
52.30
50.30
45.93
40.09
34.13
29.77
28.73
32.26
40.54
52.68
66.74
80.43
90.85
95.63
93.26
82.97
64.48
38.32
6.97
-25.04
-51.16
-66.91
-69.50
-58.74
-37.53
-11.91
10.40
23.63
25.28
18.22
4.68
-10.97
-22.77
-24.69
-13.38
10.26
43.19
78.99
111.44
128.00
119.42
84.47
30.87
-29.61
-87.00
-134.13
-171.56
-202.52
-240.53
-296.13
-370.89
-456.63
-541.84
-617.92
-678.30
-723.24
-693.85
-556.35
-321.45
-42.16
224.72
447.51
605.74
720.43
806.07
870.66
909.04
916.12
892.35
844.80
783.28
715.22
647.70
581.06
515.76
445.85
368.02
284.78
203.72
133.48
79.33
44.70
26.33
20.09
17.41
11.50
-0.27
-17.38
-37.17
-56.99
-72.34
-82.89
-88.57
-91.35
-92.03
-89.52
-84.95
-78.62
-69.70
-52.69
-28.59
-0.87
25.07
45.32
57.83
54.63
31.47
-9.39
-53.44
-95.21
-133.67
-170.97
-207.81
-244.50
-293.49
-363.24
-452.73
-541.96
-624.29
-699.57
-771.78
-841.51
-907.61
-983.88
-1078.22
-1186.17
-1279.16
-1346.54
-1387.33
-1407.60
-1411.08
-1301.79
-1036.01
-643.20
-299.33
-37.13
152.87
313.03
454.77
580.39
687.56
757.25
777.53
757.88
727.17
695.11
662.65
626.22
586.48
546.34
497.91
437.65
369.69
313.99
274.61
242.54
211.76
181.22
152.83
124.09
96.50
76.28
78.06
103.86
148.12
202.62
261.52
319.81
368.33
400.25
412.61
409.45
390.98
355.92
304.18
237.57
157.09
64.49
-35.83
-136.31
-225.17
-293.34
-335.44
-348.32
-320.13
-249.45
-147.82
-36.99
62.62
143.46
209.83
265.38
312.64
353.99
382.22
395.02
393.67
370.50
326.06
266.26
199.43
133.51
73.10
18.56
-29.42
-69.65
-100.40
-118.90
-125.22
-122.51
-114.86
-105.95
-99.31
-96.09
-95.99
-97.62
-97.95
-95.45
-90.56
-84.55
-78.86
-75.04
-73.48
-73.94
-75.59
-76.85
-76.85
-75.81
-74.41
-73.46
-73.76
-75.51
-78.69
-82.84
-87.19
-91.13
-94.35
-96.61
-97.63
-97.06
-94.41
-90.11
-83.39
-73.94
-61.92
-47.88
-32.66
-17.28
-2.72
10.09
20.55
28.41
33.48
35.82
35.74
33.62
29.96
25.15
19.51
13.41
7.22
0.97
-5.31
-11.63
-18.08
-24.74
-31.73
-39.14
-46.82
-54.63
-62.56
-70.60
-78.77
-87.08
-95.53
-104.18
-113.08
-121.90
-130.37
-138.25
-145.28
-151.10
-155.29
-157.19
-155.94
-152.98
-148.78
-143.60
-137.68
-131.19
-124.33
-117.29
-110.24
-103.35
-96.82
-90.43
-84.02
-77.43
-70.57
-63.33
-55.69
-47.70
-39.51
-31.37
-23.36
-15.65
-8.49
-2.09
3.32
7.64
10.82
12.86
13.87
14.13
13.88
13.34
12.63
11.83
10.93
9.86
8.51
6.74
4.52
1.82
-1.33
-4.83
-8.55
-12.29
-15.89
-19.22
-22.19
-24.71
-26.77
-28.35
-29.42
-29.98
-29.98
-29.42
-28.30
-26.68
-24.60
-22.12
-19.26
-16.04
-12.48
-8.61
-4.52
-0.36
3.65
7.33
10.52
13.24
15.66
18.02
20.62
23.63
27.03
30.65
34.22
37.49
40.48
43.44
46.82
51.06
56.44
62.86
69.93
77.15
84.07
90.62
97.17
104.34
112.75
122.77
134.29
146.87
159.96
173.23
186.68
200.60
215.41
231.59
249.69
270.38
294.22
320.84
348.20
372.26
387.64
389.17
373.81
341.82
296.82
244.57
191.49
143.41
105.06
80.01
70.55
77.29
98.55
129.84
164.35
194.20
212.28
214.10
198.79
169.16
130.55
89.25
50.74
18.67
-5.46
-21.80
-31.34
-35.18
-34.36
-30.07
-23.98
-18.30
-15.26
-16.45
-22.01
-30.53
-39.58
-46.87
-51.26
-53.28
-54.71
-57.35
-62.06
-68.17
-73.94
-77.49
-77.72
-74.56
-68.62
-60.53
-50.67
-39.39
-27.62
-17.16
-10.56
-10.08
-16.57
-28.91
-44.27
-59.19
-70.88
-78.03
-80.77
-80.13
-77.21
-72.70
-67.02
-60.50
-53.66
-47.06
-41.17
-36.06
-31.48
-27.06
-22.59
-18.10
-13.82
-9.91
-6.41
-3.16
0.02
3.22
6.30
8.97
10.82
11.62
11.32
10.17
8.55
6.89
5.28
3.51
1.07
-2.48
-7.16
-12.22
-16.15
-17.01
-13.12
-3.78
10.54
28.47
48.40
68.94
89.24
108.76
127.24
144.77
161.92
179.50
197.88
215.95
230.65
237.59
232.77
214.74
185.66
150.60
115.44
84.37
58.69
37.26
18.21
0.54
-15.39
-28.48
-38.10
-44.91
-50.65
-57.21
-65.61
-75.58
-85.89
-95.18
-102.85
-109.41
-115.98
-123.54
-132.06
-140.17
-145.49
-145.70
-139.44
-127.05
-110.42
-92.10
-74.40
-58.79
-45.84
-35.64
-28.34
-24.16
-23.04
-24.24
-26.09
-26.46
-23.58
-16.78
-7.00
3.52
12.03
16.27
15.26
9.53
0.93
-7.92
-14.45
-16.97
-15.27
-10.81
-6.18
-4.14
-6.40
-12.78
-21.02
-27.70
-29.63
-25.30
-15.61
-3.78
5.82
9.28
4.52
-7.91
-25.18
-43.25
-58.27
-67.86
-71.52
-70.36
-66.16
-60.54
-54.54
-48.64
-43.19
-38.61
-35.44
-33.95
-33.89
-34.37
-34.10
-31.83
-26.77
-18.83
-8.58
2.96
14.71
25.83
35.98
45.22
53.90
62.38
70.91
79.85
89.75
101.58
116.26
133.91
153.02
170.25
181.14
181.58
169.37
145.05
111.76
74.00
36.23
1.73
-27.83
-52.17
-71.86
-87.55
-99.65
-108.35
-113.91
-117.02
-118.82
-120.55
-122.96
-125.86
-128.01
-127.84
-124.34
-117.65
-109.18
-100.73
-93.65
-88.17
-83.39
-77.84
-70.29
-60.19
-47.73
-33.67
-18.93
-4.42
9.27
21.74
32.88
42.61
50.91
57.80
63.39
67.92
71.70
75.09
78.21
80.91
82.88
83.98
84.60
85.84
89.28
96.28
107.20
120.62
133.09
139.75
135.70
117.64
85.29
41.88
-6.58
-53.02
-91.41
-118.49
-134.32
-141.71
-144.67
-146.83
-150.09
-154.79
-160.04
-164.65
-167.72
-168.58
-166.29
-159.56
-147.44
-130.20
-110.30
-91.65
-77.52
-68.20
-60.09
-47.50
-26.14
4.19
39.63
74.97
107.17
136.82
166.57
197.64
227.24
249.12
256.99
248.52
227.16
200.33
175.38
155.93
141.24
127.84
112.70
95.20
77.08
60.88
48.52
40.30
35.07
31.09
26.95
22.05
16.72
11.99
8.92
8.22
9.85
12.92
15.70
16.15
12.45
3.62
-9.97
-26.68
-44.08
-59.61
-71.28
-78.02
-79.72
-76.85
-70.17
-60.44
-48.47
-35.25
-22.06
-10.44
-1.95
2.14
1.32
-4.05
-12.68
-22.71
-32.18
-39.45
-43.55
-44.21
-41.73
-36.78
-30.22
-22.89
-15.58
-9.01
-3.70
-0.07
1.69
1.58
-0.14
-3.02
-6.51
-10.02
-13.17
-15.85
-18.23
-20.67
-23.42
-26.51
-29.70
-32.64
-35.02
-36.70
-37.67
-37.89
-37.21
-35.40
-32.40
-28.52
-24.53
-21.37
-19.91
-20.53
-23.01
-26.64
-30.47
-33.57
-35.15
-34.70
-31.92
-26.88
-19.97
-11.91
-3.68
3.73
9.56
13.38
15.28
15.76
15.55
15.41
15.93
17.39
19.77
22.77
25.96
28.86
31.01
32.08
31.96
30.81
29.02
27.16
25.74
24.99
24.76
24.65
24.08
22.60
20.06
16.72
13.22
10.33
8.62
8.28
8.83
9.27
8.47
5.74
1.30
-3.51
-6.65
-6.19
-1.17
7.85
18.84
28.89
34.95
34.63
26.65
11.19
-10.01
-33.67
-55.56
-71.37
-78.09
-74.99
-64.05
-49.21
-34.99
-24.97
-20.80
-22.16
-27.33
-34.10
-40.41
-44.72
-46.07
-43.99
-38.60
-30.61
-21.24
-11.92
-3.84
2.25
6.09
7.69
7.11
4.30
-0.71
-7.55
-15.30
-22.57
-27.88
-30.18
-29.28
-25.83
-21.01
-16.20
-12.41
-10.25
-9.87
-11.15
-13.79
-17.34
-21.20
-24.66
-27.00
-27.68
-26.48
-23.62
-19.67
-15.41
-11.55
-8.57
-6.63
-5.52
-4.87
-4.27
-3.42
-2.26
-0.88
0.55
1.85
2.93
3.77
4.46
5.10
5.68
6.17
6.43
6.36
5.90
5.06
3.92
2.63
1.32
0.12
-0.88
-1.61
-2.09
-2.33
-2.40
-2.33
-2.18
-2.02
-1.82
-1.61
-1.37
-1.14
-0.94
-0.78
-0.66
-0.57
-0.51
-0.40
-0.16
0.27
0.88
1.61
2.31
2.82
3.05
2.92
2.46
1.71
0.68
-0.59
-2.12
-3.90
-5.86
-7.91
-9.93
-11.82
-13.51
-14.89
-15.83
-16.18
-15.84
-14.84
-13.33
-11.55
-9.82
-8.37
-7.32
-6.70
-6.44
-6.47
-6.65
-6.81
-6.80
-6.48
-5.80
-4.78
-3.56
-2.26
-1.06
-0.03
0.80
1.42
1.89
2.28
2.66
3.07
3.53
4.02
4.46
4.75
4.84
4.70
4.33
3.72
2.84
1.75
0.60
-0.38
-0.94
-0.89
-0.28
0.73
1.86
2.88
3.69
4.29
4.74
5.08
5.28
5.29
5.08
4.74
4.45
4.36
4.56
5.09
5.83
6.64
7.43
8.10
8.63
9.01
9.25
9.37
9.39
9.33
9.17
8.91
8.54
8.08
7.53
6.89
6.20
5.49
4.77
4.04
3.31
2.55
1.75
0.89
-0.07
-1.14
-2.27
-3.41
-4.41
-5.18
-5.70
-6.05
-6.38
-6.86
-7.54
-8.36
-9.13
-9.63
-9.68
-9.26
-8.43
-7.34
-6.17
-5.07
-4.17
-3.48
-3.01
-2.71
-2.55
-2.51
-2.56
-2.67
-2.74
-2.70
-2.45
-1.96
-1.34
-0.75
-0.42
-0.47
-0.89
-1.57
-2.31
-2.92
-3.31
-3.48
-3.45
-3.32
-3.12
-2.90
-2.70
-2.58
-2.56
-2.60
-2.57
-2.28
-1.55
-0.31
1.33
3.13
4.82
6.25
7.44
8.51
9.64
10.87
12.14
13.25
14.03
14.38
14.29
13.84
13.13
12.20
11.06
9.73
8.25
6.71
5.21
3.77
2.40
1.04
-0.33
-1.63
-2.78
-3.69
-4.32
-4.75
-5.17
-5.73
-6.57
-7.67
-8.91
-10.17
-11.33
-12.29
-13.02
-13.46
-13.55
-13.23
-12.46
-11.30
-9.88
-8.43
-7.14
-6.17
-5.61
-5.39
-5.41
-5.48
-5.48
-5.37
-5.24
-5.17
-5.27
-5.55
-5.92
-6.33
-6.67
-6.98
-7.27
-7.60
-8.02
-8.50
-9.04
-9.57
-10.09
-10.52
-10.84
-11.00
-10.96
-10.76
-10.51
-10.32
-10.21
-10.12
-9.88
-9.31
-8.32
-6.89
-5.16
-3.27
-1.33
0.62
2.53
4.45
6.37
8.22
9.93
11.40
12.55
13.31
13.63
13.56
13.19
12.66
12.08
11.55
11.08
10.65
10.24
9.77
9.25
8.70
8.09
7.42
6.70
5.95
5.21
4.54
3.95
3.37
2.70
1.80
0.62
-0.76
-2.14
-3.23
-3.74
-3.49
-2.50
-0.95
0.85
2.62
4.10
5.15
5.79
6.12
6.21
6.16
6.03
5.80
5.49
5.10
4.65
4.20
3.82
3.55
3.35
3.17
2.86
2.30
1.39
0.16
-1.25
-2.68
-3.97
-5.02
-5.84
-6.50
-7.10
-7.69
-8.30
-8.91
-9.50
-10.05
-10.56
-11.00
-11.30
-11.35
-11.03
-10.32
-9.27
-8.00
-6.72
-5.56
-4.63
-3.92
-3.42
-3.09
-2.90
-2.75
-2.54
-2.15
-1.49
-0.61
0.37
1.24
1.84
2.10
2.07
1.82
1.38
0.74
-0.14
-1.31
-2.70
-4.13
-5.44
-6.48
-7.20
-7.66
-7.94
-8.14
-8.31
-8.44
-8.48
-8.36
-8.01
-7.32
-6.23
-4.67
-2.64
-0.23
2.39
4.96
7.23
9.02
10.30
11.12
11.60
11.88
12.03
12.12
12.17
12.24
12.35
12.53
12.77
13.09
13.45
13.84
14.20
14.48
14.59
14.45
14.00
13.20
12.10
10.78
9.33
7.87
6.46
5.13
3.87
2.63
1.38
0.12
-1.08
-2.12
-2.84
-3.14
-3.00
-2.47
-1.69
-0.84
-0.06
0.58
1.02
1.23
1.18
0.81
0.11
-0.84
-1.91
-2.87
-3.50
-3.66
-3.42
-2.94
-2.50
-2.32
-2.48
-2.97
-3.68
-4.52
-5.50
-6.63
-7.88
-9.17
-10.32
-11.14
-11.62
-11.86
-12.07
-12.52
-13.34
-14.49
-15.81
-17.05
-17.95
-18.30
-17.91
-16.69
-14.69
-12.14
-9.36
-6.67
-4.34
-2.46
-1.04
0.00
0.73
1.19
1.46
1.63
1.86
2.28
2.98
3.91
4.94
5.95
6.79
7.42
7.84
8.11
8.31
8.46
8.52
8.35
7.87
7.04
5.90
4.56
3.20
1.88
0.65
-0.57
-1.89
-3.28
-4.62
-5.64
-6.11
-5.91
-5.10
-3.88
-2.47
-1.04
0.41
1.93
3.60
5.40
7.18
8.73
9.84
10.46
10.63
10.49
10.14
9.65
9.07
8.47
7.97
7.70
7.74
7.97
8.10
7.83
6.96
5.54
3.80
2.08
0.60
-0.51
-1.31
-1.91
-2.40
-2.91
-3.58
-4.56
-5.97
-7.72
-9.55
-11.04
-11.80
-11.56
-10.33
-8.36
-6.02
-3.71
-1.69
-0.05
1.23
2.27
3.15
3.87
4.37
4.61
4.56
4.27
3.79
3.13
2.30
1.32
0.20
-0.97
-2.08
-3.06
-3.90
-4.66
-5.43
-6.27
-7.17
-8.08
-9.01
-10.02
-11.23
-12.75
-14.59
-16.67
-18.86
-20.99
-22.97
-24.82
-26.53
-28.00
-29.00
-29.17
-28.22
-26.11
-23.09
-19.67
-16.44
-13.84
-11.99
-10.72
-9.62
-8.33
-6.67
-4.79
-3.05
-1.89
-1.64
-2.39
-3.93
-5.85
-7.62
-8.88
-9.59
-10.06
-10.83
-12.35
-14.82
-18.07
-21.64
-24.87
-27.40
-29.31
-31.07
-33.39
-36.74
-41.14
-46.09
-50.81
-54.28
-56.06
-56.43
-56.22
-56.38
-57.57
-59.89
-63.05
-66.53
-68.78
-68.12
-62.63
-50.19
-28.78
2.79
44.39
94.17
148.92
206.49
265.21
324.11
382.01
436.19
481.64
511.89
521.43
508.26
476.84
434.77
389.25
343.70
296.69
244.07
182.80
114.00
35.31
-48.02
-128.21
-198.17
-254.08
-295.94
-325.97
-346.98
-359.61
-367.48
-373.03
-378.47
-384.34
-388.63
-386.99
-373.87
-345.78
-302.33
-247.89
-188.68
-131.98
-83.58
-46.67
-21.77
-7.78
-3.15
-6.21
-15.46
-28.23
-42.12
-55.69
-69.00
-83.08
-98.76
-115.84
-132.54
-145.93
-152.05
-147.57
-130.74
-101.87
-63.64
-20.63
21.47
57.38
83.98
101.98
115.75
131.52
154.39
185.54
221.25
254.07
275.79
280.74
267.76
240.21
204.29
166.70
132.51
104.40
82.78
66.69
54.77
45.72
38.51
32.32
26.32
19.56
11.27
1.17
-10.32
-22.05
-32.61
-40.80
-46.14
-48.96
-50.05
-50.03
-48.94
-46.10
-40.50
-31.37
-18.68
-3.51
12.18
26.29
37.28
44.66
48.91
51.14
52.56
54.49
57.83
63.01
70.21
79.55
91.21
105.68
123.57
145.44
171.97
202.74
236.18
269.58
299.75
323.63
338.69
343.03
335.20
315.17
283.41
241.22
190.63
134.14
74.21
13.02
-47.65
-109.69
-171.10
-227.16
-271.82
-300.26
-311.21
-307.24
-293.12
-273.74
-252.52
-230.66
-208.72
-187.41
-167.83
-151.14
-138.07
-128.50
-121.54
-115.67
-108.87
-100.03
-89.31
-77.91
-67.38
-58.90
-52.53
-47.44
-41.73
-33.02
-20.05
-3.23
15.23
32.57
45.55
51.89
50.24
41.23
26.25
6.38
-18.10
-47.73
-83.08
-124.18
-170.04
-219.39
-269.03
-314.30
-349.21
-366.94
-361.10
-328.13
-269.20
-186.97
-95.36
-9.12
61.32
112.07
144.84
164.15
174.14
177.05
173.87
165.00
152.81
140.55
130.84
124.56
120.69
117.26
112.18
104.68
94.97
84.97
76.87
71.90
69.84
69.32
68.61
66.39
62.78
58.69
55.94
56.14
59.83
66.18
73.58
81.32
87.29
90.84
92.04
91.58
90.29
88.89
87.72
86.41
83.64
77.07
64.41
44.34
17.76
-12.06
-40.35
-62.56
-76.03
-80.76
-79.01
-73.60
-66.54
-58.46
-49.11
-38.41
-27.26
-17.26
-10.03
-6.18
-4.88
-4.14
-1.80
3.43
11.45
20.96
30.31
38.39
44.95
50.34
55.30
60.33
65.39
69.96
73.19
73.95
71.19
66.25
60.05
53.56
47.63
42.78
39.18
36.69
34.82
33.15
31.62
30.25
29.32
29.08
29.40
29.74
29.26
26.70
21.20
12.80
2.31
-8.82
-19.18
-27.85
-34.63
-39.89
-45.50
-53.06
-62.98
-74.41
-85.71
-95.23
-101.63
-103.90
-101.44
-96.92
-93.37
-92.75
-95.26
-99.87
-105.35
-110.46
-114.08
-115.35
-117.87
-124.88
-137.05
-151.99
-166.15
-177.45
-185.92
-193.22
-201.45
-217.61
-246.85
-289.86
-342.51
-398.79
-454.08
-505.82
-553.03
-562.01
-511.63
-403.38
-262.44
-119.51
5.74
106.92
185.51
245.47
291.16
321.34
335.18
335.21
327.61
319.22
314.40
314.88
319.50
325.81
327.20
318.10
296.51
264.62
226.57
185.66
145.88
109.75
78.73
50.88
24.19
-1.88
-26.13
-46.43
-61.08
-69.25
-71.20
-68.04
-63.20
-60.92
-64.59
-74.62
-87.63
-96.84
-94.61
-76.02
-41.28
3.57
49.28
86.99
110.66
117.44
106.84
80.27
41.80
-1.07
-37.80
-58.05
-56.06
-33.83
-0.52
31.49
52.35
58.86
53.78
43.34
33.25
26.48
22.96
21.53
20.74
19.11
15.45
9.24
1.60
-4.73
-6.52
-1.45
10.14
24.70
36.61
40.71
34.86
21.32
5.92
-5.19
-8.16
-3.46
5.06
12.94
17.42
17.92
16.10
12.80
6.35
-5.65
-23.95
-45.55
-63.56
-68.72
-56.17
-27.46
12.37
54.59
90.60
114.12
121.89
113.17
89.15
53.31
12.21
-24.80
-48.94
-54.54
-41.02
-13.94
16.39
38.40
43.11
26.92
-6.87
-50.43
-93.33
-125.91
-141.36
-137.96
-118.06
-86.75
-50.11
-13.88
17.09
39.47
51.58
53.55
46.53
33.00
15.49
-4.08
-24.49
-44.58
-62.30
-74.49
-75.10
-62.05
-35.98
-0.17
40.97
83.25
123.17
157.96
185.92
205.49
214.54
212.64
201.20
182.26
157.71
128.28
93.68
53.78
10.47
-33.93
-75.71
-111.00
-136.93
-152.85
-160.46
-162.72
-163.12
-164.51
-169.33
-178.37
-190.17
-200.47
-203.03
-191.76
-163.77
-125.20
-84.14
-51.89
-37.55
-42.91
-61.27
-80.45
-88.51
-78.76
-49.77
-8.90
34.01
71.65
101.62
124.70
142.13
153.92
159.52
157.92
150.00
138.50
126.72
117.89
113.05
110.32
105.75
94.73
73.62
41.51
0.38
-46.19
-92.97
-135.14
-169.41
-194.39
-209.99
-216.68
-214.65
-198.40
-168.30
-126.76
-77.58
-25.52
24.30
67.40
100.74
123.38
136.60
142.89
145.73
148.08
151.48
155.67
159.19
159.98
157.14
147.79
129.76
103.34
71.57
39.81
14.09
-1.26
-5.08
-1.49
2.15
-0.78
-12.93
-32.11
-53.12
-70.78
-82.59
-89.34
-94.01
-99.48
-106.63
-114.36
-120.70
-124.13
-124.60
-123.41
-122.57
-123.71
-127.76
-132.20
-133.30
-127.22
-111.32
-84.81
-48.86
-5.76
41.52
89.06
131.98
164.70
182.13
181.73
165.09
137.64
107.12
80.38
61.14
49.68
43.89
41.42
41.31
44.09
49.89
57.74
65.03
68.49
65.67
56.17
40.29
20.35
0.63
-14.20
-20.28
-16.44
-5.09
8.56
18.28
19.42
10.33
-6.18
-25.80
-44.98
-62.74
-80.28
-99.06
-119.47
-140.13
-158.15
-170.75
-177.19
-177.36
-172.17
-162.75
-149.23
-131.12
-107.73
-78.71
-44.81
-8.73
26.29
57.10
81.43
98.34
108.27
112.56
113.04
111.20
108.00
103.91
99.02
93.31
86.93
80.31
73.87
68.12
63.13
58.80
54.93
51.26
47.57
43.78
40.45
37.34
34.54
32.08
29.95
28.13
26.60
25.35
24.41
23.91
23.89
24.49
25.69
27.37
29.27
31.02
32.59
33.24
32.57
30.34
26.61
21.52
15.36
8.46
1.21
-5.99
-12.84
-18.93
-23.89
-27.43
-29.38
-29.81
-29.06
-27.61
-26.02
-24.81
-24.09
-23.72
-23.15
-21.87
-19.63
-16.56
-13.19
-10.28
-8.55
-8.23
-9.06
-10.11
-10.55
-9.92
-8.48
-7.10
-6.87
-8.63
-12.29
-16.78
-19.92
-19.68
-15.03
-6.48
4.00
13.91
20.71
23.13
21.37
17.45
13.99
13.51
17.97
28.15
43.06
59.20
71.55
71.97
57.54
30.98
-0.06
-25.79
-38.65
-36.47
-23.89
-8.08
3.85
7.52
1.29
-13.82
-34.84
-57.70
-75.03
-80.85
-72.99
-54.18
-30.32
-8.04
7.95
16.30
18.54
17.18
13.84
9.18
3.64
-1.51
-4.47
-3.83
0.49
6.96
13.09
16.53
16.29
13.39
10.24
9.11
10.96
14.92
18.81
20.11
17.12
9.54
-1.31
-13.03
-22.88
-28.56
-28.67
-23.58
-15.85
-9.84
-10.10
-19.06
-35.16
-53.37
-66.90
-70.35
-62.34
-45.50
-24.61
-4.00
14.60
31.74
48.46
64.63
78.46
86.92
87.88
81.26
69.10
54.15
38.80
23.62
7.74
-10.06
-30.91
-54.94
-81.19
-107.61
-130.98
-147.16
-151.79
-141.69
-116.73
-80.82
-41.10
-5.53
20.04
33.93
38.52
38.16
36.73
35.61
33.84
29.90
23.46
16.10
10.59
9.17
12.19
17.83
22.96
24.50
21.10
13.70
5.15
-1.15
-2.74
0.71
7.16
12.99
14.56
9.96
-0.38
-13.83
-27.08
-37.45
-43.74
-46.05
-44.73
-39.98
-32.37
-23.67
-16.74
-14.13
-15.76
-17.59
-12.65
5.48
38.62
81.79
124.82
156.82
171.02
167.37
151.37
130.29
109.32
89.73
69.84
47.75
23.61
0.10
-19.12
-31.56
-37.50
-39.80
-42.56
-48.79
-58.90
-70.70
-80.66
-85.74
-84.77
-78.85
-70.43
-62.04
-55.13
-49.76
-44.89
-39.23
-31.88
-22.94
-13.49
-5.14
0.60
3.04
2.73
1.07
-0.39
-0.58
0.40
1.43
0.94
-2.42
-8.82
-17.06
-24.93
-29.97
-30.34
-25.46
-16.16
-3.71
9.87
22.68
33.43
41.55
46.94
49.73
50.10
48.33
44.92
40.57
36.18
32.60
30.39
29.58
29.87
30.74
31.75
32.76
33.80
35.06
36.55
38.05
39.09
39.20
38.20
36.31
34.15
32.38
31.53
31.67
32.48
33.34
33.51
32.43
29.80
25.76
20.95
16.35
13.10
12.03
13.56
17.44
23.03
29.33
35.27
39.71
41.59
40.16
35.24
27.55
18.73
10.87
5.78
4.25
5.77
8.78
11.41
12.18
10.37
5.90
-0.92
-9.70
-19.95
-30.95
-41.67
-50.83
-57.30
-60.49
-60.56
-58.33
-54.89
-51.26
-48.15
-46.03
-45.15
-45.63
-47.32
-49.73
-52.04
-53.30
-52.80
-50.33
-46.20
-41.19
-36.12
-31.61
-27.91
-24.99
-22.61
-20.50
-18.33
-15.70
-12.21
-7.47
-1.32
6.19
14.63
23.32
31.53
38.62
44.30
48.66
52.06
54.93
57.59
60.07
62.18
63.49
63.40
61.36
56.89
49.76
40.17
28.80
16.74
5.19
-4.90
-13.10
-19.53
-24.75
-29.48
-34.46
-40.23
-47.12
-55.06
-63.55
-71.64
-78.06
-81.67
-81.71
-78.08
-71.30
-62.28
-52.11
-41.76
-32.00
-23.35
-16.11
-10.40
-6.18
-3.32
-1.67
-0.98
-0.98
-1.38
-1.86
-2.23
-2.48
-2.66
-2.83
-3.04
-3.20
-3.23
-3.14
-3.02
-3.00
-3.23
-3.65
-4.02
-3.92
-3.00
-1.08
1.68
4.83
7.68
9.58
10.08
9.00
6.46
2.83
-1.38
-5.69
-9.64
-12.92
-15.32
-16.73
-17.12
-16.54
-15.05
-12.84
-10.19
-7.48
-5.11
-3.36
-2.37
-2.08
-2.34
-2.97
-3.83
-4.80
-5.79
-6.69
-7.40
-7.93
-8.43
-9.09
-10.14
-11.66
-13.56
-15.52
-17.16
-18.18
-18.48
-18.21
-17.73
-17.47
-17.78
-18.80
-20.40
-22.31
-24.13
-25.41
-25.81
-24.96
-22.56
-18.46
-12.71
-5.64
2.13
9.81
16.68
22.21
26.24
28.91
30.52
31.38
31.64
31.31
30.33
28.69
26.46
23.79
20.80
17.55
14.15
10.88
8.24
6.88
7.19
8.92
10.98
11.66
9.28
2.91
-7.16
-19.52
-32.22
-43.49
-52.20
-58.00
-60.95
-61.25
-59.02
-54.37
-47.72
-39.82
-31.71
-24.30
-18.11
-13.10
-8.91
-5.12
-1.50
1.87
4.70
6.70
7.80
8.14
8.05
7.87
7.87
8.23
9.01
10.19
11.68
13.22
14.53
15.34
15.52
15.10
14.30
13.40
12.58
11.86
11.06
9.91
8.22
5.98
3.39
0.86
-1.12
-2.11
-1.80
-0.10
2.85
6.76
11.22
15.81
20.22
24.27
27.95
31.34
34.46
37.32
39.89
42.15
44.12
45.87
47.48
48.98
50.34
51.49
52.46
53.37
54.34
55.44
56.47
57.08
56.80
55.30
52.44
48.33
43.17
37.18
30.49
23.18
15.34
7.13
-1.29
-9.80
-18.34
-26.79
-34.79
-41.77
-46.98
-49.89
-50.39
-48.95
-46.51
-44.09
-42.49
-42.03
-42.54
-43.55
-44.53
-45.11
-45.13
-44.66
-43.84
-42.81
-41.63
-40.25
-38.60
-36.67
-34.54
-32.42
-30.60
-29.19
-28.16
-27.33
-26.45
-25.41
-24.33
-23.56
-23.47
-24.30
-25.97
-28.16
-30.41
-32.19
-33.12
-32.91
-31.43
-28.60
-24.43
-19.03
-12.67
-5.78
1.12
7.48
12.84
16.91
19.62
21.11
21.65
21.54
21.07
20.48
19.96
19.61
19.44
19.44
19.49
19.45
19.17
18.51
17.40
15.85
13.92
11.74
9.47
7.21
5.02
2.86
0.64
-1.79
-4.55
-7.69
-11.17
-14.79
-18.18
-20.88
-22.39
-22.31
-20.53
-17.21
-12.77
-7.79
-2.76
1.94
6.11
9.72
12.72
15.11
16.79
17.78
18.13
18.02
17.66
17.23
16.83
16.41
15.90
15.25
14.45
13.60
12.81
12.16
11.58
10.94
10.06
8.81
7.20
5.30
3.26
1.23
-0.77
-2.80
-4.97
-7.40
-10.04
-12.69
-14.98
-16.46
-16.70
-15.46
-12.73
-8.77
-3.99
1.06
5.92
10.19
13.61
16.04
17.41
17.73
17.11
15.72
13.84
11.78
9.81
8.10
6.69
5.52
4.54
3.79
3.28
3.03
2.94
2.82
2.47
1.81
0.90
-0.05
-0.79
-1.24
-1.46
-1.66
-2.06
-2.77
-3.79
-5.00
-6.29
-7.51
-8.56
-9.26
-9.39
-8.71
-7.11
-4.62
-1.48
1.97
5.39
8.52
11.29
13.71
15.76
17.35
18.37
18.78
18.66
18.23
17.76
17.43
17.29
17.22
17.05
16.62
15.85
14.74
13.27
11.45
9.31
6.89
4.30
1.66
-0.98
-3.55
-6.09
-8.59
-11.05
-13.53
-16.02
-18.54
-21.01
-23.27
-24.97
-25.71
-25.13
-23.10
-19.82
-15.72
-11.36
-7.22
-3.58
-0.50
2.06
4.08
5.57
6.44
6.66
6.34
5.63
4.77
3.92
3.22
2.68
2.30
2.02
1.75
1.45
1.06
0.53
-0.17
-1.02
-2.05
-3.21
-4.51
-5.91
-7.40
-8.91
-10.42
-11.96
-13.57
-15.33
-17.22
-19.10
-20.71
-21.65
-21.53
-20.15
-17.52
-13.93
-9.81
-5.61
-1.64
1.96
5.32
8.63
12.05
15.58
19.01
22.02
24.31
25.75
26.41
26.50
26.24
25.73
24.95
23.82
22.25
20.25
17.89
15.27
12.52
9.73
7.00
4.40
2.06
-0.00
-1.78
-3.32
-4.68
-5.89
-6.93
-7.70
-8.06
-7.78
-6.62
-4.40
-1.06
3.23
8.10
13.06
17.65
21.53
24.52
26.58
27.71
27.96
27.31
25.89
23.95
21.83
19.79
17.91
15.94
13.42
9.95
5.34
-0.14
-5.94
-11.37
-15.92
-19.35
-21.68
-23.13
-23.88
-24.09
-23.82
-23.22
-22.45
-21.71
-21.18
-20.93
-20.92
-21.03
-21.03
-20.71
-19.85
-18.28
-15.94
-12.85
-9.19
-5.23
-1.26
2.45
5.68
8.34
10.37
11.80
12.72
13.21
13.43
13.54
13.67
13.86
14.14
14.41
14.53
14.36
13.79
12.80
11.48
9.97
8.44
7.05
5.86
4.88
4.02
3.21
2.33
1.34
0.19
-1.09
-2.41
-3.61
-4.48
-4.77
-4.32
-3.01
-0.85
2.08
5.62
9.53
13.52
17.31
20.64
23.30
25.21
26.30
26.61
26.15
24.93
22.94
20.19
16.71
12.60
8.05
3.37
-0.96
-4.46
-6.76
-7.75
-7.61
-6.75
-5.64
-4.60
-3.75
-3.03
-2.37
-1.84
-1.63
-2.02
-3.15
-4.84
-6.71
-8.23
-8.99
-8.89
-8.06
-6.78
-5.26
-3.52
-1.37
1.40
4.88
8.88
12.93
16.40
18.86
20.22
20.81
21.25
22.20
24.03
26.74
29.94
33.05
35.41
36.47
35.78
32.97
27.89
20.78
12.35
3.61
-4.27
-10.37
-14.23
-15.90
-15.76
-14.34
-12.04
-9.27
-6.65
-4.76
-3.91
-3.64
-2.80
0.22
6.63
16.78
29.41
42.00
51.79
57.18
58.63
58.49
59.86
65.26
75.74
90.29
106.05
119.33
126.70
125.69
115.29
96.45
72.75
50.62
37.07
36.37
47.33
62.85
72.58
67.28
43.07
0.33
-52.83
-104.05
-142.23
-162.28
-166.10
-159.17
-146.27
-129.61
-109.67
-87.04
-63.96
-44.04
-30.64
-24.93
-25.25
-27.74
-28.39
-24.61
-15.98
-4.19
8.01
18.08
25.27
30.79
37.03
45.91
58.20
71.95
83.54
88.97
85.27
71.65
49.62
21.96
-8.31
-38.28
-66.42
-92.30
-116.16
-138.47
-159.70
-179.83
-197.73
-210.43
-213.58
-202.96
-176.53
-136.43
-89.09
-43.37
-7.18
15.31
24.88
25.64
22.30
18.07
13.86
9.15
3.47
-2.73
-8.14
-11.66
-13.20
-13.83
-15.24
-19.05
-25.79
-34.77
-44.37
-52.61
-57.83
-59.41
-57.06
-51.10
-42.19
-30.92
-17.80
-3.26
12.22
28.09
43.67
58.33
71.41
82.36
90.78
96.41
99.30
99.78
98.44
96.10
93.63
91.73
91.01
92.06
95.20
100.11
105.28
107.99
104.94
93.57
73.38
46.56
17.46
-9.04
-29.27
-41.89
-47.78
-48.99
-47.48
-44.42
-40.25
-35.27
-30.04
-25.46
-22.35
-21.03
-21.15
-21.87
-22.33
-22.01
-20.95
-19.66
-18.81
-18.75
-19.37
-20.08
-20.02
-18.24
-14.29
-8.42
-1.42
5.61
11.66
16.13
18.88
20.17
20.45
20.10
19.29
17.96
15.98
13.29
10.02
6.50
3.17
0.42
-1.55
-2.81
-3.57
-4.05
-4.32
-4.33
-3.98
-3.22
-2.22
-1.34
-1.02
-1.68
-3.63
-6.97
-11.52
-16.90
-22.50
-27.59
-31.53
-33.87
-34.51
-33.63
-31.62
-28.89
-25.73
-22.34
-18.82
-15.29
-11.90
-8.77
-6.03
-3.74
-1.89
-0.38
0.97
2.33
3.78
5.32
6.77
7.81
8.10
7.37
5.64
3.15
0.41
-2.06
-3.82
-4.69
-4.84
-4.61
-4.40
-4.59
-5.30
-6.47
-7.82
-8.99
-9.62
-9.50
-8.61
-7.16
-5.42
-3.74
-2.36
-1.46
-1.07
-1.16
-1.56
-2.05
-2.37
-2.26
-1.52
-0.15
1.74
3.88
5.95
7.63
8.69
9.06
8.79
8.05
7.06
6.01
5.06
4.26
3.57
2.94
2.31
1.68
1.09
0.60
0.22
-0.12
-0.63
-1.64
-3.43
-6.18
-9.79
-13.85
-17.69
-20.61
-22.04
-21.69
-19.60
-16.13
-11.81
-7.12
-2.49
1.84
5.69
8.92
11.41
13.05
13.76
13.52
12.44
10.68
8.52
6.27
4.25
2.69
1.71
1.26
1.08
0.91
0.47
-0.37
-1.56
-2.97
-4.39
-5.73
-6.98
-8.25
-9.68
-11.40
-13.38
-15.47
-17.34
-18.47
-18.38
-16.70
-13.29
-8.33
-2.30
4.11
10.15
15.07
18.32
19.60
19.02
17.07
14.56
12.32
10.93
10.56
10.84
11.19
10.96
9.81
7.71
4.90
1.67
-1.66
-4.89
-7.86
-10.40
-12.41
-13.81
-14.66
-15.13
-15.45
-15.83
-16.32
-16.90
-17.39
-17.59
-17.33
-16.53
-15.22
-13.49
-11.53
-9.50
-7.45
-5.29
-2.85
0.06
3.52
7.33
11.03
14.07
15.99
16.64
16.22
15.03
13.38
11.27
8.56
5.07
0.87
-3.55
-7.45
-10.05
-10.89
-10.01
-7.94
-5.46
-3.37
-2.25
-2.31
-3.48
-5.40
-7.58
-9.48
-10.60
-10.68
-9.67
-7.86
-5.66
-3.51
-1.63
-0.10
1.18
2.31
3.37
4.35
5.29
6.25
7.33
8.62
10.06
11.46
12.61
13.33
13.62
13.57
13.36
13.08
12.75
12.37
11.91
11.46
11.00
10.49
9.78
8.69
7.15
5.30
3.47
2.03
1.34
1.48
2.29
3.51
4.87
6.21
7.59
9.11
10.87
12.82
14.71
16.23
17.17
17.45
17.21
16.60
15.70
14.42
12.58
10.10
7.17
4.24
1.83
0.30
-0.34
-0.43
-0.43
-0.72
-1.43
-2.40
-3.38
-4.16
-4.66
-4.97
-5.29
-5.85
-6.82
-8.21
-9.82
-11.23
-11.80
-10.89
-8.07
-3.32
2.88
9.69
16.15
21.38
24.87
26.47
26.41
25.07
22.94
20.42
17.87
15.51
13.56
12.17
11.46
11.46
12.08
13.11
14.37
15.66
16.86
17.90
18.65
18.87
18.25
16.55
13.77
10.24
6.49
3.04
0.23
-1.91
-3.66
-5.38
-7.35
-9.61
-11.98
-14.18
-15.96
-17.21
-17.98
-18.40
-18.59
-18.64
-18.55
-18.24
-17.58
-16.39
-14.46
-11.66
-8.00
-3.70
0.77
4.81
7.84
9.43
9.51
8.26
6.09
3.52
1.03
-1.10
-2.94
-4.78
-7.07
-10.18
-14.17
-18.83
-23.69
-28.20
-31.81
-34.15
-34.95
-34.06
-31.45
-27.32
-22.09
-16.40
-10.87
-5.94
-1.75
1.90
5.27
8.48
11.44
13.82
15.30
15.77
15.49
15.01
14.92
15.56
16.88
18.45
19.64
19.93
19.01
16.79
13.40
8.99
3.68
-2.34
-8.72
-14.96
-20.44
-24.67
-27.49
-29.12
-30.06
-30.85
-31.81
-32.92
-33.84
-34.06
-33.16
-30.97
-27.62
-23.45
-18.93
-14.50
-10.55
-7.35
-5.04
-3.63
-2.97
-2.74
-2.58
-2.12
-1.19
0.19
1.83
3.48
4.94
6.09
6.84
7.12
6.91
6.26
5.31
4.31
3.46
2.83
2.30
1.61
0.56
-0.78
-2.11
-2.92
-2.80
-1.58
0.59
3.32
6.16
8.84
11.33
13.83
16.59
19.73
23.09
26.34
29.10
31.19
32.73
34.06
35.64
37.81
40.72
44.23
48.04
51.69
54.65
56.37
56.40
54.52
50.84
45.78
39.99
34.14
28.70
23.93
19.81
16.17
12.81
9.51
6.13
2.60
-1.03
-4.56
-7.67
-9.94
-11.02
-10.68
-8.85
-5.61
-1.18
4.17
10.06
15.96
21.20
24.99
26.68
25.90
22.75
17.86
12.13
6.56
1.85
-1.74
-4.43
-6.71
-9.07
-11.74
-14.64
-17.43
-19.67
-21.13
-21.81
-21.93
-21.73
-21.43
-21.16
-21.00
-21.13
-21.75
-23.03
-24.96
-27.25
-29.45
-31.12
-31.96
-31.96
-31.30
-30.17
-28.77
-27.19
-25.49
-23.82
-22.35
-21.30
-20.83
-20.94
-21.44
-21.96
-22.07
-21.42
-19.88
-17.50
-14.56
-11.46
-8.56
-6.11
-4.23
-2.92
-2.15
-1.87
-2.01
-2.50
-3.33
-4.48
-5.93
-7.58
-9.19
-10.33
-10.60
-9.67
-7.45
-4.23
-0.56
2.93
5.74
7.68
8.83
9.48
9.90
10.30
10.76
11.29
11.82
12.29
12.57
12.51
11.97
10.88
9.32
7.54
5.83
4.43
3.48
2.93
2.64
2.39
1.98
1.29
0.20
-1.27
-3.08
-5.10
-7.13
-9.00
-10.58
-11.79
-12.67
-13.26
-13.58
-13.57
-13.12
-12.09
-10.43
-8.20
-5.66
-3.13
-0.98
0.58
1.50
1.93
2.05
2.04
1.99
1.88
1.63
1.18
0.52
-0.27
-1.06
-1.74
-2.21
-2.40
-2.28
-1.92
-1.41
-0.92
-0.68
-0.87
-1.51
-2.52
-3.68
-4.65
-5.16
-4.96
-4.01
-2.46
-0.64
1.02
2.08
2.23
1.43
-0.11
-1.91
-3.51
-4.50
-4.73
-4.28
-3.38
-2.28
-1.11
0.06
1.20
2.31
3.34
4.29
5.26
6.41
7.84
9.54
11.14
12.14
12.00
10.43
7.57
3.95
0.25
-2.90
-5.20
-6.65
-7.50
-8.09
-8.67
-9.36
-10.17
-10.98
-11.62
-11.87
-11.54
-10.52
-8.84
-6.63
-4.10
-1.48
1.02
3.16
4.77
5.74
6.08
5.96
5.68
5.61
5.98
6.79
7.77
8.47
8.46
7.54
5.82
3.64
1.44
-0.41
-1.65
-2.20
-2.01
-1.07
0.61
2.89
5.52
8.08
10.12
11.34
11.57
10.91
9.55
7.68
5.43
2.87
0.00
-3.16
-6.51
-9.90
-13.05
-15.62
-17.33
-18.03
-17.78
-16.76
-15.27
-13.51
-11.60
-9.53
-7.24
-4.75
-2.11
0.53
2.99
5.10
6.70
7.64
7.87
7.38
6.23
4.56
2.52
0.33
-1.82
-3.76
-5.35
-6.51
-7.27
-7.72
-7.95
-8.03
-7.93
-7.54
-6.76
-5.52
-3.90
-2.10
-0.39
0.88
1.51
1.50
1.12
0.77
0.80
1.33
2.14
2.84
3.04
2.51
1.37
-0.14
-1.73
-3.21
-4.51
-5.60
-6.37
-6.61
-6.13
-4.83
-2.88
-0.58
1.78
4.01
6.15
8.43
11.02
13.95
17.02
19.79
21.75
22.51
21.89
20.05
17.36
14.40
11.63
9.38
7.75
6.65
5.92
5.38
4.93
4.54
4.16
3.71
3.07
2.13
0.90
-0.51
-1.92
-3.12
-3.99
-4.49
-4.66
-4.63
-4.53
-4.48
-4.55
-4.76
-5.07
-5.34
-5.44
-5.20
-4.51
-3.39
-1.96
-0.51
0.66
1.22
1.01
0.07
-1.38
-2.97
-4.33
-5.22
-5.53
-5.35
-4.85
-4.24
-3.61
-3.02
-2.42
-1.78
-1.11
-0.47
0.01
0.18
-0.05
-0.71
-1.83
-3.39
-5.47
-8.17
-11.59
-15.69
-20.16
-24.45
-27.88
-29.87
-30.07
-28.52
-25.51
-21.47
-16.73
-11.55
-6.09
-0.53
4.89
9.96
14.58
18.73
22.44
25.60
27.92
29.10
29.03
27.90
26.28
24.73
23.57
22.71
21.69
20.12
17.91
15.42
13.27
11.97
11.71
12.23
13.17
14.20
15.25
16.41
17.86
19.66
21.71
23.79
25.60
26.91
27.58
27.60
27.09
26.23
25.18
24.04
22.78
21.39
19.93
18.57
17.47
16.58
15.48
13.55
10.25
5.45
-0.33
-6.13
-10.94
-14.12
-15.58
-15.70
-14.96
-13.63
-11.71
-9.10
-5.99
-3.01
-1.26
-1.77
-5.11
-10.97
-18.26
-25.40
-30.87
-33.72
-33.77
-31.51
-27.78
-23.47
-19.27
-15.63
-12.75
-10.62
-9.11
-8.00
-7.04
-6.14
-5.28
-4.64
-4.43
-4.90
-6.18
-8.38
-11.45
-15.29
-19.67
-24.29
-28.69
-32.34
-34.84
-35.93
-35.68
-34.35
-32.34
-29.98
-27.55
-25.21
-23.08
-21.32
-19.99
-18.99
-17.96
-16.46
-14.09
-10.77
-6.81
-2.74
0.92
3.89
6.18
7.97
9.38
10.42
11.03
11.25
11.37
11.87
13.27
15.84
19.38
23.30
26.77
29.02
29.62
28.58
26.30
23.46
20.75
18.66
17.32
16.54
15.85
14.80
13.14
10.93
8.62
6.87
6.33
7.46
10.30
14.41
18.92
22.81
25.19
25.70
24.57
22.54
20.46
18.86
17.74
16.68
15.16
13.03
10.60
8.52
7.35
7.23
7.73
8.15
7.79
6.26
3.58
0.02
-4.14
-8.73
-13.74
-19.26
-25.25
-31.47
-37.45
-42.48
-45.85
-46.94
-45.53
-41.84
-36.55
-30.57
-24.74
-19.66
-15.56
-12.38
-9.87
-7.76
-5.79
-3.86
-2.00
-0.39
0.66
0.90
0.24
-1.11
-2.63
-3.75
-4.02
-3.42
-2.27
-1.12
-0.47
-0.57
-1.40
-2.73
-4.34
-6.07
-7.81
-9.39
-10.60
-11.11
-10.64
-8.99
-6.09
-2.05
2.89
8.38
14.07
19.57
24.56
28.79
32.12
34.47
35.79
36.09
35.43
33.97
31.88
29.35
26.53
23.45
20.10
16.45
12.55
8.52
4.56
0.90
-2.26
-4.77
-6.63
-7.95
-9.06
-10.29
-11.99
-14.27
-16.92
-19.48
-21.38
-22.28
-22.14
-21.32
-20.40
-19.93
-20.11
-20.75
-21.25
-20.89
-19.14
-15.79
-11.12
-5.78
-0.61
3.56
6.13
6.88
5.91
3.58
0.45
-2.88
-5.84
-8.00
-9.07
-8.99
-7.89
-6.06
-3.89
-1.78
-0.07
0.95
1.13
0.38
-1.31
-3.77
-6.70
-9.62
-11.90
-13.01
-12.67
-10.90
-8.18
-5.17
-2.53
-0.66
0.43
1.04
1.70
2.84
4.77
7.52
10.84
14.36
17.63
20.26
22.05
22.94
23.00
22.41
21.31
19.93
18.50
17.26
16.38
15.89
15.59
15.12
14.14
12.35
9.71
6.34
2.48
-1.61
-5.67
-9.44
-12.62
-14.84
-15.82
-15.36
-13.52
-10.62
-7.16
-3.67
-0.61
1.73
3.34
4.31
4.83
5.07
5.10
5.01
4.78
4.37
3.59
2.12
-0.37
-4.02
-8.56
-13.34
-17.47
-20.30
-21.71
-22.31
-23.06
-24.79
-27.73
-31.32
-34.49
-36.07
-35.32
-32.14
-26.99
-20.66
-13.99
-7.63
-2.03
2.48
5.79
7.85
8.74
8.68
8.01
7.13
6.43
6.16
6.35
6.85
7.45
8.00
8.45
8.85
9.22
9.51
9.54
9.08
8.00
6.29
4.11
1.73
-0.54
-2.38
-3.48
-3.62
-2.74
-1.04
1.05
2.96
4.24
4.62
4.20
3.28
2.28
1.58
1.43
1.90
2.99
4.62
6.67
8.97
11.27
13.30
14.81
15.65
15.78
15.36
14.66
14.01
13.70
13.84
14.35
15.02
15.66
16.17
16.59
17.05
17.57
18.06
18.24
17.83
16.71
14.99
12.90
10.71
8.52
6.32
4.04
1.64
-0.79
-3.11
-5.19
-7.01
-8.63
-10.11
-11.52
-12.83
-13.98
-14.84
-15.29
-15.16
-14.35
-12.86
-10.82
-8.55
-6.34
-4.43
-2.87
-1.52
-0.12
1.55
3.58
5.88
8.16
10.07
11.33
11.79
11.55
10.88
10.07
9.41
9.07
9.07
9.46
10.26
11.52
13.23
15.29
17.49
19.65
21.76
23.95
26.48
29.53
33.03
36.63
39.76
41.77
42.24
41.04
38.36
34.67
30.35
25.68
20.67
15.14
8.91
1.96
-5.53
-13.17
-20.43
-26.85
-32.08
-35.98
-38.62
-40.13
-40.71
-40.45
-39.31
-37.14
-33.78
-29.23
-23.74
-17.80
-11.97
-6.77
-2.54
0.62
2.72
3.79
3.94
3.34
2.31
1.39
1.09
1.80
3.58
6.19
9.08
11.73
13.71
14.83
15.10
14.65
13.56
11.90
9.65
6.80
3.40
-0.35
-4.16
-7.70
-10.66
-12.86
-14.32
-15.23
-15.98
-16.99
-18.61
-20.97
-23.86
-26.77
-29.11
-30.36
-30.35
-29.28
-27.58
-25.75
-24.05
-22.40
-20.44
-17.68
-13.65
-8.15
-1.29
6.45
14.19
20.87
25.47
27.28
26.18
22.69
17.73
12.37
7.54
3.80
1.38
0.35
0.63
2.04
4.25
6.69
8.70
9.66
9.25
7.53
4.91
1.97
-0.76
-2.93
-4.42
-5.22
-5.40
-5.00
-4.03
-2.57
-0.75
1.13
2.73
3.66
3.64
2.52
0.42
-2.39
-5.51
-8.49
-11.01
-12.83
-13.85
-14.10
-13.79
-13.20
-12.65
-12.44
-12.62
-13.02
-13.25
-12.83
-11.43
-9.02
-5.88
-2.59
0.27
2.26
3.24
3.24
2.46
1.12
-0.62
-2.53
-4.33
-5.64
-6.09
-5.52
-4.01
-1.91
0.31
2.20
3.51
4.23
4.50
4.58
4.68
4.95
5.46
6.23
7.17
8.16
9.03
9.61
9.78
9.45
8.65
7.38
5.68
3.50
0.86
-2.19
-5.47
-8.74
-11.74
-14.27
-16.27
-17.77
-18.81
-19.39
-19.52
-19.24
-18.56
-17.55
-16.21
-14.39
-11.83
-8.35
-3.92
1.15
6.33
10.99
14.53
16.62
17.18
16.36
14.52
12.11
9.62
7.44
5.86
4.86
4.20
3.49
2.26
0.22
-2.70
-6.22
-9.87
-13.06
-15.26
-16.13
-15.54
-13.68
-10.91
-7.68
-4.44
-1.58
0.71
2.39
3.47
4.01
4.02
3.51
2.56
1.33
0.12
-0.77
-1.12
-0.91
-0.24
0.65
1.59
2.45
3.19
3.78
4.19
4.34
4.17
3.73
3.12
2.55
2.18
2.09
2.28
2.62
2.93
3.05
2.86
2.36
1.69
1.05
0.62
0.47
0.50
0.51
0.29
-0.22
-0.92
-1.58
-1.94
-1.89
-1.49
-0.95
-0.51
-0.39
-0.75
-1.70
-3.29
-5.46
-8.03
-10.64
-12.85
-14.27
-14.67
-14.11
-12.88
-11.40
-9.98
-8.81
-7.82
-6.81
-5.48
-3.61
-1.24
1.33
3.61
5.05
5.24
4.04
1.60
-1.65
-5.20
-8.54
-11.30
-13.22
-14.18
-14.17
-13.21
-11.42
-8.95
-6.09
-3.20
-0.70
1.04
1.81
1.55
0.48
-1.12
-2.89
-4.51
-5.73
-6.32
-6.16
-5.21
-3.55
-1.36
1.12
3.67
6.13
8.49
10.77
13.01
15.19
17.21
18.84
19.86
20.07
19.39
17.89
15.77
13.33
10.92
8.87
7.43
6.73
6.79
7.52
8.80
10.48
12.41
14.40
16.21
17.62
18.46
18.66
18.32
17.65
16.89
16.24
15.81
15.55
15.37
15.11
14.62
13.81
12.67
11.29
9.83
8.45
7.31
6.51
6.04
5.90
6.02
6.29
6.59
6.78
6.75
6.39
5.70
4.73
3.63
2.57
1.73
1.28
1.40
2.18
3.59
5.47
7.47
9.26
10.53
11.08
10.90
10.18
9.18
8.22
7.62
7.57
8.18
9.32
10.72
11.96
12.73
12.84
12.35
11.53
10.74
10.33
10.50
11.32
12.67
14.36
16.14
17.77
19.03
19.83
20.18
20.23
20.22
20.34
20.69
21.24
21.82
22.20
22.14
21.50
20.21
18.36
16.13
13.75
11.47
9.43
7.59
5.73
3.56
0.91
-2.20
-5.46
-8.50
-10.99
-12.86
-14.28
-15.51
-16.78
-18.13
-19.47
-20.67
-21.71
-22.68
-23.79
-25.13
-26.73
-28.50
-30.24
-31.77
-32.88
-33.35
-32.98
-31.64
-29.26
-25.93
-21.93
-17.57
-13.28
-9.36
-6.05
-3.46
-1.61
-0.44
0.24
0.64
1.01
1.50
2.18
2.97
3.67
4.03
3.90
3.18
2.01
0.58
-0.88
-2.16
-3.18
-3.92
-4.39
-4.60
-4.61
-4.47
-4.27
-4.17
-4.33
-4.80
-5.57
-6.45
-7.19
-7.61
-7.60
-7.19
-6.50
-5.66
-4.77
-3.86
-2.87
-1.79
-0.71
0.21
0.77
0.85
0.45
-0.21
-0.89
-1.33
-1.44
-1.35
-1.30
-1.53
-2.17
-3.12
-4.17
-5.08
-5.64
-5.83
-5.75
-5.53
-5.34
-5.27
-5.36
-5.63
-6.08
-6.71
-7.51
-8.46
-9.47
-10.43
-11.19
-11.50
-11.16
-10.05
-8.21
-5.88
-3.46
-1.39
-0.06
0.42
0.13
-0.61
-1.46
-2.06
-2.27
-2.08
-1.59
-0.92
-0.18
0.61
1.44
2.25
2.94
3.33
3.34
2.93
2.18
1.22
0.11
-1.15
-2.64
-4.46
-6.61
-8.91
-11.07
-12.76
-13.73
-13.87
-13.26
-12.11
-10.65
-9.10
-7.61
-6.25
-5.03
-3.95
-3.02
-2.27
-1.77
-1.53
-1.48
-1.46
-1.28
-0.78
0.06
1.09
2.08
2.82
3.19
3.30
3.33
3.51
4.00
4.87
6.07
7.49
8.98
10.33
11.36
11.87
11.74
10.96
9.68
8.13
6.57
5.15
3.96
2.93
1.99
1.11
0.36
-0.15
-0.30
-0.04
0.61
1.54
2.63
3.73
4.75
5.65
6.42
7.08
7.65
8.11
8.42
8.52
8.35
7.91
7.26
6.48
5.63
4.69
3.55
2.07
0.23
-1.84
-3.88
-5.56
-6.64
-7.07
-6.96
-6.56
-6.12
-5.78
-5.58
-5.46
-5.32
-5.06
-4.60
-3.88
-2.85
-1.52
0.06
1.79
3.57
5.28
6.76
7.95
8.74
9.08
8.98
8.54
7.97
7.52
7.45
7.90
8.87
10.14
11.43
12.43
12.92
12.85
12.28
11.38
10.31
9.20
8.13
7.13
6.24
5.50
4.96
4.62
4.47
4.46
4.53
4.61
4.70
4.83
5.03
5.26
5.41
5.33
4.86
3.94
2.68
1.32
0.14
-0.58
-0.69
-0.17
0.90
2.32
3.86
5.24
6.22
6.53
6.02
4.55
2.06
-1.38
-5.56
-10.17
-14.70
-18.61
-21.37
-22.59
-22.16
-20.25
-17.28
-13.83
-10.45
-7.57
-5.44
-4.13
-3.57
-3.51
-3.64
-3.59
-3.08
-1.92
-0.19
1.87
3.86
5.34
6.04
5.78
4.64
2.88
0.94
-0.70
-1.66
-1.73
-0.96
0.45
2.21
4.08
5.91
7.60
9.03
10.02
10.39
9.93
8.58
6.39
3.54
0.31
-3.02
-6.17
-8.87
-10.93
-12.28
-12.93
-13.00
-12.71
-12.25
-11.86
-11.67
-11.79
-12.25
-13.03
-13.97
-14.79
-15.20
-14.87
-13.60
-11.41
-8.49
-5.21
-1.94
1.00
3.41
5.13
6.15
6.45
6.10
5.18
3.80
2.01
-0.18
-2.83
-6.01
-9.66
-13.61
-17.51
-20.97
-23.68
-25.49
-26.46
-26.78
-26.75
-26.57
-26.35
-26.07
-25.59
-24.79
-23.57
-21.96
-20.03
-17.86
-15.49
-12.90
-10.01
-6.75
-3.12
0.76
4.68
8.37
11.64
14.29
16.25
17.55
18.27
18.52
18.37
17.88
17.10
16.17
15.21
14.37
13.71
13.18
12.63
11.86
10.72
9.15
7.22
5.03
2.86
0.99
-0.29
-0.74
-0.34
0.71
1.98
3.04
3.53
3.36
2.56
1.23
-0.57
-2.85
-5.65
-8.81
-12.02
-14.88
-17.05
-18.37
-18.92
-18.81
-18.16
-16.98
-15.23
-12.94
-10.25
-7.50
-5.04
-3.10
-1.76
-0.89
-0.31
0.07
0.20
-0.05
-0.82
-2.10
-3.67
-5.15
-6.12
-6.28
-5.57
-4.17
-2.43
-0.68
0.86
2.10
3.02
3.58
3.69
3.35
2.65
1.92
1.58
1.93
2.97
4.31
5.38
5.69
5.08
3.83
2.45
1.44
0.96
0.84
0.63
-0.13
-1.69
-4.02
-6.77
-9.49
-11.72
-13.23
-13.90
-13.86
-13.30
-12.47
-11.62
-10.98
-10.71
-10.82
-11.17
-11.35
-10.92
-9.48
-6.94
-3.54
0.21
3.77
6.82
9.39
11.74
14.22
17.04
20.15
23.31
26.24
28.74
30.80
32.48
33.86
34.95
35.73
36.24
36.57
36.83
37.04
36.99
36.30
34.59
31.64
27.55
22.64
17.30
11.84
6.44
1.23
-3.55
-7.54
-10.36
-11.81
-12.05
-11.51
-10.79
-10.28
-10.11
-10.03
-9.69
-8.82
-7.42
-5.76
-4.26
-3.30
-3.04
-3.46
-4.38
-5.61
-7.11
-8.88
-11.01
-13.44
-15.93
-18.12
-19.66
-20.44
-20.61
-20.52
-20.49
-20.67
-20.93
-20.98
-20.56
-19.57
-18.10
-16.34
-14.49
-12.59
-10.63
-8.58
-6.49
-4.41
-2.44
-0.62
1.00
2.36
3.38
3.94
4.05
3.87
3.74
4.09
5.22
7.15
9.65
12.26
14.52
16.15
17.08
17.43
17.36
17.01
16.39
15.52
14.44
13.31
12.38
11.88
11.83
12.05
12.13
11.56
9.99
7.40
4.08
0.66
-2.20
-3.99
-4.47
-3.70
-1.95
0.39
2.96
5.36
7.29
8.55
9.04
8.79
7.93
6.73
5.44
4.33
3.56
3.21
3.27
3.63
4.20
4.93
5.79
6.81
7.98
9.18
10.25
10.95
11.04
10.41
9.05
7.13
4.96
2.86
1.04
-0.48
-1.89
-3.47
-5.44
-7.85
-10.54
-13.26
-15.80
-18.03
-19.94
-21.53
-22.74
-23.46
-23.57
-23.00
-21.81
-20.21
-18.44
-16.79
-15.42
-14.33
-13.38
-12.33
-11.00
-9.35
-7.48
-5.69
-4.29
-3.53
-3.52
-4.15
-5.12
-6.03
-6.45
-6.04
-4.67
-2.52
0.03
2.46
4.31
5.26
5.21
4.24
2.59
0.60
-1.32
-2.74
-3.31
-2.82
-1.28
1.10
3.98
6.96
9.71
11.97
13.58
14.36
14.18
12.96
10.75
7.86
4.76
1.94
-0.22
-1.62
-2.46
-3.09
-3.87
-5.03
-6.67
-8.76
-11.25
-14.01
-16.76
-19.01
-20.20
-19.86
-17.84
-14.44
-10.27
-6.05
-2.36
0.53
2.62
4.05
5.00
5.55
5.75
5.70
5.61
5.77
6.51
8.02
10.33
13.26
16.51
19.71
22.59
25.01
26.90
28.27
29.04
29.12
28.39
26.82
24.40
21.27
17.66
13.80
9.89
6.09
2.47
-0.95
-4.26
-7.61
-11.25
-15.45
-20.46
-26.34
-32.99
-40.16
-47.51
-54.82
-61.98
-68.98
-75.77
-82.17
-87.83
-92.30
-95.11
-95.82
-94.18
-90.25
-84.52
-78.02
-72.18
-68.45
-68.07
-71.66
-78.95
-88.86
-99.77
-109.77
-117.10
-120.25
-117.99
-109.46
-94.14
-71.84
-43.15
-9.45
26.98
63.55
97.90
128.46
154.56
175.93
192.53
203.56
207.52
202.83
188.85
166.83
140.22
114.01
93.48
83.58
87.09
104.13
132.03
165.92
199.77
227.72
245.26
250.15
244.25
232.25
220.57
215.11
218.94
231.01
246.63
259.51
258.08
235.92
193.15
136.48
75.69
18.59
-31.92
-76.93
-118.10
-155.05
-184.16
-201.84
-207.02
-202.30
-192.61
-182.70
-175.07
-169.55
-164.46
-157.43
-147.43
-135.03
-122.01
-110.48
-101.70
-95.66
-91.32
-87.26
-81.95
-74.87
-66.48
-57.86
-50.18
-44.06
-39.34
-35.38
-31.41
-26.91
-21.83
-16.69
-12.03
-8.18
-4.92
-1.56
2.60
8.12
15.01
22.90
31.05
38.90
46.20
52.96
59.60
65.70
70.29
71.80
68.38
58.59
42.04
19.70
-6.18
-32.57
-56.90
-77.44
-93.61
-105.89
-115.54
-124.27
-133.77
-145.05
-157.18
-167.18
-170.32
-162.01
-140.56
-108.81
-73.68
-43.21
-23.89
-16.26
-16.66
-18.87
-16.94
-7.35
10.62
35.52
64.53
93.26
116.64
129.37
127.95
112.60
87.72
60.36
37.57
23.39
17.94
18.46
21.38
24.18
26.16
27.81
29.88
32.69
35.73
38.61
41.34
44.19
47.09
49.93
51.92
51.98
48.74
41.11
28.35
10.35
-12.09
-38.06
-66.42
-96.44
-127.55
-158.32
-185.43
-203.89
-209.47
-198.39
-171.34
-133.07
-90.74
-50.97
-17.20
10.82
35.67
59.79
84.09
106.97
125.88
138.72
144.86
144.95
139.91
130.18
114.64
94.38
69.94
42.66
14.49
-12.48
-36.43
-56.57
-73.32
-87.53
-99.80
-110.89
-120.29
-126.64
-128.23
-123.68
-112.48
-95.18
-73.06
-47.92
-22.17
2.18
23.79
41.92
56.22
66.61
73.21
76.36
76.55
74.28
70.39
65.64
60.74
56.12
51.99
48.30
45.04
42.32
39.72
37.28
35.09
33.41
32.47
32.47
33.43
35.33
38.00
41.08
44.58
47.75
49.92
50.43
48.71
44.36
37.26
27.73
16.56
5.02
-5.36
-13.06
-16.89
-16.33
-11.53
-3.28
7.14
18.36
29.03
38.04
44.72
48.82
50.40
49.68
47.13
43.23
38.52
33.48
28.43
23.77
20.23
18.83
20.43
25.15
31.71
37.46
39.03
33.83
21.30
3.68
-14.69
-29.10
-35.91
-33.76
-23.61
-8.63
7.36
20.60
28.49
29.78
24.48
14.05
1.07
-11.11
-20.30
-25.33
-26.49
-24.89
-22.11
-19.73
-18.43
-17.58
-15.57
-12.69
-7.44
-0.45
7.00
13.27
16.66
16.09
11.41
3.08
-10.76
-32.55
-64.38
-106.16
-155.85
-210.44
-266.46
-320.47
-355.26
-357.81
-325.32
-267.92
-200.89
-136.15
-79.24
-30.76
10.91
47.50
77.76
99.90
113.13
119.21
121.75
124.44
129.95
139.31
151.96
163.97
170.66
168.52
156.60
136.34
110.45
81.99
54.59
30.61
9.78
-9.57
-28.64
-47.44
-64.54
-77.91
-86.18
-89.28
-88.70
-86.83
-85.05
-82.82
-78.70
-72.11
-64.69
-59.21
-57.41
-57.84
-55.76
-45.46
-23.68
7.76
42.37
72.09
91.31
99.02
98.41
94.07
89.17
84.66
79.73
73.66
67.16
62.18
60.61
62.09
63.13
57.92
40.97
10.14
-31.52
-76.09
-113.40
-135.05
-137.72
-122.36
-96.33
-67.17
-39.83
-15.92
5.26
24.80
42.95
58.72
71.19
79.88
85.68
90.02
94.23
98.39
101.37
101.20
95.69
83.51
64.23
39.14
10.60
-18.60
-45.83
-68.86
-86.02
-96.31
-99.21
-94.71
-83.18
-65.55
-43.77
-20.44
1.68
20.14
33.29
40.36
41.94
39.73
36.15
33.33
32.93
35.95
42.50
51.87
62.54
72.81
80.99
85.89
86.36
81.75
72.12
57.92
40.98
22.43
3.39
-15.07
-31.61
-45.43
-56.11
-63.39
-67.49
-69.07
-69.22
-68.87
-68.64
-68.50
-68.30
-68.13
-67.92
-67.72
-67.84
-68.82
-70.58
-74.29
-77.52
-78.35
-75.86
-69.65
-60.73
-50.89
-42.09
-35.70
-32.43
-32.37
-34.39
-40.78
-52.57
-68.70
-85.33
-97.25
-100.46
-95.03
-85.04
-76.40
-73.17
-73.95
-73.59
-66.41
-51.34
-30.07
-7.88
10.68
24.61
36.56
50.61
68.03
85.60
97.25
97.64
86.23
67.98
50.64
40.75
41.16
50.03
62.45
73.69
80.95
83.70
82.73
78.93
70.56
55.29
31.65
0.42
-34.24
-65.69
-86.83
-93.19
-85.24
-68.53
-51.13
-39.92
-37.89
-43.04
-50.03
-53.10
-48.88
-37.16
-20.08
-0.29
20.47
41.22
60.99
78.10
89.85
93.31
86.08
67.60
39.63
6.08
-28.13
-58.00
-79.65
-90.67
-90.16
-78.27
-55.66
-25.78
8.28
43.16
75.71
103.25
123.81
136.37
140.92
138.20
129.82
118.13
105.23
92.68
81.36
71.49
62.90
55.22
47.77
40.37
33.26
26.71
20.94
16.10
12.14
8.94
6.27
3.70
1.28
-0.69
-1.97
-2.42
-1.93
-0.65
1.06
4.21
7.04
8.66
8.73
7.11
3.79
-1.09
-7.33
-14.69
-22.92
-31.87
-40.93
-49.11
-55.61
-59.93
-62.01
-62.23
-61.34
-60.23
-59.80
-60.30
-60.95
-60.91
-59.40
-56.07
-51.19
-45.46
-39.72
-34.67
-30.28
-25.17
-17.83
-7.02
7.82
26.36
47.92
71.90
98.81
125.72
152.69
180.68
211.13
245.67
285.53
330.73
379.00
425.27
462.31
483.41
484.01
463.80
426.98
380.66
332.07
286.16
244.57
206.41
170.40
135.73
102.49
71.39
42.95
17.05
-6.85
-29.21
-50.01
-68.43
-83.41
-94.22
-100.79
-103.79
-104.49
-104.55
-105.26
-107.03
-109.26
-111.05
-111.72
-111.10
-109.60
-107.91
-107.02
-107.59
-109.68
-112.69
-115.78
-118.16
-119.21
-118.51
-115.87
-112.17
-108.43
-105.39
-103.23
-101.84
-100.91
-99.92
-98.08
-94.70
-91.75
-91.39
-94.80
-101.63
-110.69
-120.67
-130.31
-138.42
-144.25
-152.28
-166.43
-187.53
-212.65
-237.58
-259.63
-278.25
-294.17
-307.89
-325.85
-350.93
-380.00
-405.68
-422.09
-429.27
-432.03
-436.27
-445.60
-469.40
-512.09
-570.95
-637.97
-705.44
-769.98
-830.95
-887.51
-876.78
-761.40
-548.11
-286.58
-33.57
176.74
334.66
444.98
517.42
561.44
576.20
562.18
528.06
488.03
456.34
440.76
442.04
454.99
468.80
466.19
437.21
384.41
320.97
264.58
222.23
192.37
171.02
150.82
123.05
85.09
42.28
5.49
-14.39
-12.00
11.48
47.43
81.70
97.99
85.81
45.26
-12.76
-70.85
-112.25
-125.81
-109.01
-67.31
-11.05
48.58
101.78
140.25
157.57
150.39
121.32
79.49
38.40
11.60
7.32
25.19
57.20
92.35
121.72
141.32
151.54
154.67
152.85
147.53
139.87
131.27
123.08
115.71
107.79
96.47
78.88
53.89
23.15
-9.29
-38.53
-60.48
-72.86
-75.38
-68.83
-53.98
-31.62
-3.65
25.60
49.77
62.12
59.23
42.80
19.82
0.30
-6.67
3.62
29.93
66.17
103.93
135.95
156.39
161.91
152.48
131.88
106.88
84.87
71.30
68.13
75.59
91.32
112.37
136.67
163.32
191.53
219.59
245.04
265.58
281.84
293.82
300.02
297.94
285.24
260.81
225.35
181.64
122.15
52.00
-15.36
-65.79
-91.74
-93.65
-77.21
-50.50
-21.92
1.54
16.96
22.76
19.13
8.94
-0.54
0.55
20.88
63.59
123.53
189.43
245.67
278.37
281.15
257.19
216.47
170.20
126.16
87.08
53.15
23.36
-2.43
-22.99
-36.72
-43.43
-44.98
-44.82
-46.12
-49.83
-55.11
-59.79
-61.69
-59.72
-54.52
-48.34
-44.11
-44.10
-48.84
-57.24
-67.10
-76.11
-82.74
-86.72
-89.11
-91.62
-95.74
-102.22
-110.77
-120.29
-129.51
-137.55
-144.24
-150.15
-156.23
-163.37
-172.20
-182.98
-195.69
-209.98
-225.14
-239.81
-252.21
-260.45
-263.20
-260.21
-252.43
-241.65
-229.71
-217.93
-206.75
-196.02
-185.45
-174.94
-164.68
-154.94
-145.74
-136.82
-127.71
-117.99
-107.53
-96.49
-85.30
-74.44
-64.23
-54.80
-46.04
-37.77
-29.76
-21.96
-14.57
-7.93
-2.49
1.46
3.90
5.08
5.50
5.63
5.79
6.05
6.28
6.24
5.82
5.03
4.03
3.08
2.35
1.87
1.49
0.99
0.20
-0.97
-2.45
-4.09
-5.82
-7.63
-9.56
-11.60
-13.50
-14.84
-15.12
-13.97
-11.47
-8.06
-4.42
-1.16
1.45
3.53
5.42
7.37
9.32
10.98
11.90
11.82
10.80
9.19
7.45
5.95
4.78
3.78
2.66
1.14
-0.84
-3.22
-5.74
-8.08
-10.07
-11.59
-12.71
-13.62
-14.58
-15.78
-17.39
-19.47
-21.96
-24.77
-27.64
-30.21
-32.02
-32.75
-32.13
-30.14
-26.92
-22.72
-17.86
-12.65
-7.38
-2.31
2.26
6.13
9.17
11.41
12.99
14.08
14.81
15.23
15.36
15.18
14.75
14.17
13.56
13.08
12.69
12.27
11.58
10.38
8.47
5.90
2.83
-0.43
-3.52
-6.28
-8.69
-10.94
-13.18
-15.52
-17.78
-19.63
-20.62
-20.32
-18.57
-15.47
-11.35
-6.71
-2.01
2.43
6.51
10.24
13.72
16.98
19.88
22.24
23.87
24.70
24.89
24.66
24.20
23.59
22.74
21.56
20.00
18.20
16.36
14.70
13.24
11.79
10.08
7.80
4.83
1.24
-2.69
-6.62
-10.25
-13.41
-16.14
-18.51
-20.58
-22.26
-23.30
-23.38
-22.33
-20.21
-17.32
-14.00
-10.47
-6.72
-2.62
1.92
6.71
11.31
15.11
17.66
18.80
18.75
18.03
17.13
16.45
16.07
15.92
15.82
15.66
15.39
15.01
14.49
13.74
12.59
10.89
8.56
5.73
2.68
-0.28
-2.93
-5.23
-7.37
-9.67
-12.38
-15.52
-18.77
-21.51
-23.04
-22.84
-20.82
-17.32
-12.96
-8.39
-4.02
0.09
4.12
8.23
12.37
16.25
19.47
21.74
23.04
23.59
23.74
23.76
23.70
23.44
22.81
21.68
20.09
18.19
16.23
14.35
12.63
10.99
9.29
7.42
5.36
3.14
0.82
-1.63
-4.33
-7.45
-11.03
-14.87
-18.55
-21.49
-23.25
-23.58
-22.59
-20.60
-17.92
-14.80
-11.32
-7.53
-3.46
0.78
4.94
8.83
12.24
15.07
17.34
19.11
20.48
21.44
21.89
21.73
20.93
19.62
18.10
16.65
15.46
14.51
13.58
12.34
10.64
8.48
6.12
3.82
1.74
-0.26
-2.46
-5.18
-8.58
-12.52
-16.58
-20.18
-22.82
-24.17
-24.14
-22.84
-20.48
-17.31
-13.50
-9.22
-4.56
0.34
5.23
9.76
13.57
16.34
17.99
18.63
18.56
18.14
17.65
17.19
16.77
16.32
15.80
15.22
14.64
14.10
13.54
12.86
11.93
10.69
9.14
7.39
5.55
3.67
1.76
-0.29
-2.54
-4.99
-7.59
-10.23
-12.76
-14.97
-16.60
-17.32
-16.84
-15.05
-12.08
-8.26
-4.02
0.24
4.32
8.11
11.60
14.73
17.36
19.36
20.61
21.13
21.02
20.51
19.80
19.04
18.35
17.77
17.32
16.95
16.53
15.86
14.75
13.08
10.90
8.40
5.88
3.50
1.27
-0.99
-3.51
-6.34
-9.39
-12.42
-15.17
-17.51
-19.44
-20.93
-21.89
-22.01
-20.98
-18.61
-14.97
-10.45
-5.58
-0.88
3.37
7.04
10.20
12.91
15.14
16.81
17.84
18.24
18.17
17.91
17.69
17.66
17.72
17.65
17.20
16.20
14.74
13.03
11.33
9.76
8.32
6.86
5.24
3.37
1.25
-1.10
-3.69
-6.59
-9.94
-13.83
-18.19
-22.75
-26.96
-30.23
-32.00
-31.89
-29.86
-26.21
-21.51
-16.45
-11.73
-7.81
-4.93
-3.05
-2.03
-1.71
-2.02
-3.06
-4.94
-7.77
-11.42
-15.59
-19.89
-24.04
-27.97
-31.85
-36.09
-41.11
-47.29
-54.79
-63.58
-73.37
-83.78
-94.53
-105.53
-117.01
-129.46
-143.45
-159.22
-176.64
-195.05
-213.57
-231.33
-247.81
-263.01
-277.47
-292.29
-308.86
-328.62
-352.55
-380.42
-410.29
-438.44
-460.15
-470.82
-467.42
-449.24
-417.97
-376.83
-329.45
-279.02
-227.75
-176.85
-126.66
-76.91
-27.00
23.53
74.49
124.89
172.91
216.77
255.29
288.55
317.87
345.03
371.55
398.54
426.86
457.24
489.86
523.44
554.87
579.96
595.43
601.09
600.50
599.62
603.95
615.36
630.79
643.69
647.72
640.27
623.67
603.55
585.20
570.15
555.07
533.55
499.41
449.94
386.77
314.81
239.33
163.52
88.00
12.05
-64.21
-137.99
-205.74
-263.34
-308.75
-343.18
-370.96
-398.05
-429.63
-467.51
-508.57
-546.76
-573.67
-582.59
-571.41
-543.82
-507.78
-472.33
-444.18
-424.68
-413.64
-407.36
-402.23
-395.97
-387.75
-377.55
-365.39
-351.10
-331.32
-309.46
-285.60
-259.79
-232.02
-202.22
-170.83
-139.15
-109.32
-77.13
-51.36
-32.14
-18.05
-6.38
6.09
22.47
45.57
77.50
129.06
186.66
245.21
298.32
341.33
374.25
402.56
435.26
480.52
554.92
640.22
728.03
809.17
877.74
933.19
979.07
1020.00
973.36
944.06
910.06
864.61
803.28
725.93
637.11
544.18
454.47
372.68
313.39
260.40
211.56
165.78
123.50
85.87
53.22
24.14
-4.19
-24.24
-48.73
-77.01
-106.79
-135.27
-160.37
-181.56
-199.73
-216.60
-227.26
-239.52
-253.02
-266.69
-279.33
-290.28
-299.85
-309.23
-319.98
-330.03
-342.48
-355.24
-364.77
-367.36
-360.49
-343.93
-319.79
-291.64
-262.00
-234.64
-210.59
-189.81
-171.97
-157.08
-145.62
-138.03
-134.28
-133.56
-134.45
-135.47
-135.50
-134.12
-131.55
-128.27
-124.71
-121.01
-117.05
-112.68
-107.99
-103.41
-99.65
-97.40
-96.94
-97.97
-99.67
-100.91
-100.68
-98.51
-94.50
-89.27
-83.61
-78.08
-72.85
-67.67
-62.11
-55.90
-49.11
-42.20
-35.79
-30.39
-26.24
-23.27
-21.26
-20.00
-19.38
-19.41
-20.08
-21.27
-22.75
-24.17
-25.26
-25.87
-26.07
-26.12
-26.37
-27.10
-28.45
-30.34
-32.56
-34.84
-36.99
-38.97
-40.83
-42.66
-44.46
-46.14
-47.46
-48.09
-47.68
-45.95
-42.70
-38.01
-32.20
-25.82
-19.51
-13.77
-8.93
-5.07
-2.05
0.28
2.08
3.40
4.28
4.73
4.82
4.63
4.31
4.02
3.81
3.70
3.58
3.30
2.72
1.80
0.60
-0.75
-2.07
-3.30
-4.48
-5.75
-7.33
-9.43
-12.13
-15.37
-18.85
-22.11
-24.60
-25.85
-25.55
-23.70
-20.51
-16.33
-11.53
-6.43
-1.32
3.54
7.89
11.45
14.03
15.60
16.29
16.32
15.97
15.50
15.12
14.93
14.98
15.24
15.60
15.85
15.73
15.03
13.59
11.43
8.75
5.78
2.78
-0.10
-2.83
-5.48
-8.11
-10.71
-13.25
-15.65
-17.85
-19.77
-21.35
-22.39
-22.62
-21.70
-19.43
-15.80
-11.10
-5.83
-0.63
3.97
7.59
10.10
11.56
12.16
12.14
11.71
11.02
10.21
9.35
8.48
7.69
7.01
6.47
6.05
5.69
5.27
4.71
3.95
2.99
1.84
0.54
-0.89
-2.48
-4.22
-6.13
-8.11
-10.03
-11.76
-13.18
-14.21
-14.88
-15.16
-15.02
-14.34
-12.97
-10.79
-7.80
-4.10
0.06
4.39
8.57
12.26
15.20
17.22
18.33
18.73
18.69
18.52
18.40
18.36
18.34
18.19
17.88
17.41
16.80
16.09
15.19
14.01
12.50
10.65
8.57
6.42
4.32
2.32
0.32
-1.90
-4.50
-7.53
-10.85
-14.14
-16.95
-18.85
-19.49
-18.69
-16.47
-13.06
-8.78
-4.07
0.63
4.90
8.44
11.07
12.72
13.41
13.27
12.50
11.33
9.97
8.59
7.32
6.26
5.50
5.02
4.75
4.47
3.93
2.92
1.39
-0.52
-2.60
-4.58
-6.32
-7.81
-9.18
-10.61
-12.22
-14.06
-16.08
-18.16
-20.05
-21.49
-22.17
-21.82
-20.28
-17.48
-13.57
-8.82
-3.70
1.27
5.60
8.92
11.10
12.26
12.67
12.65
12.45
12.14
11.72
11.15
10.47
9.81
9.27
8.98
8.86
8.74
8.39
7.59
6.22
4.35
2.15
-0.21
-2.58
-4.89
-7.18
-9.50
-11.90
-14.40
-16.98
-19.55
-21.89
-23.68
-24.48
-23.85
-21.52
-17.54
-12.32
-6.51
-0.79
4.30
8.52
11.83
14.27
15.90
16.74
16.77
16.01
14.63
12.93
11.23
9.85
8.97
8.57
8.51
8.50
8.26
7.67
6.72
5.55
4.34
3.08
1.74
0.20
-1.61
-3.67
-5.91
-8.26
-10.70
-13.17
-15.52
-17.39
-18.29
-17.79
-15.68
-12.11
-7.51
-2.38
2.87
7.97
12.75
16.99
20.40
22.61
23.47
23.01
21.63
19.79
17.97
16.51
15.51
14.83
14.30
13.63
12.61
11.10
9.08
6.63
3.95
1.22
-1.43
-3.97
-6.54
-9.37
-12.67
-16.61
-21.11
-25.90
-30.62
-34.78
-37.89
-39.55
-39.43
-37.37
-33.47
-28.00
-21.47
-14.47
-7.56
-1.15
4.48
9.12
12.64
14.94
15.98
15.94
15.16
14.10
13.18
12.54
12.09
11.59
10.78
9.60
8.13
6.59
5.11
3.67
2.08
0.10
-2.39
-5.40
-8.72
-12.14
-15.54
-18.93
-22.41
-26.04
-29.61
-32.66
-34.58
-34.79
-32.91
-29.00
-23.37
-16.61
-9.32
-2.07
4.67
10.50
15.19
18.66
20.96
22.27
22.85
22.87
22.51
21.84
20.96
20.02
19.20
18.61
18.28
18.08
17.76
17.08
15.88
14.15
12.01
9.68
7.36
5.12
2.89
0.43
-2.52
-6.09
-10.24
-14.62
-18.67
-21.73
-23.09
-22.27
-19.10
-13.77
-6.83
0.93
8.73
15.87
21.86
26.47
29.64
31.39
31.90
31.41
30.30
29.03
27.97
27.31
26.98
26.74
26.30
25.45
24.10
22.31
20.17
17.76
15.18
12.50
9.76
6.97
4.05
0.84
-2.94
-7.54
-13.11
-19.47
-26.12
-32.31
-37.17
-39.92
-40.13
-37.72
-32.99
-26.52
-18.91
-10.81
-2.76
4.71
11.20
16.47
20.43
23.16
24.92
25.97
26.56
26.86
26.95
26.91
26.78
26.63
26.53
26.48
26.33
25.82
24.64
22.52
19.44
15.61
11.42
7.21
3.17
-0.84
-5.17
-10.14
-15.98
-22.48
-29.12
-35.04
-39.18
-40.38
-37.56
-30.13
-18.46
-4.11
10.46
22.64
30.63
34.13
34.33
33.10
32.10
31.98
32.46
32.80
32.52
31.81
31.39
31.88
33.38
35.35
36.91
37.35
36.44
34.40
31.66
28.70
25.67
22.58
19.26
15.63
11.68
7.52
3.30
-0.85
-4.84
-8.66
-12.28
-15.60
-18.39
-20.25
-20.65
-19.03
-15.01
-8.55
-0.09
9.50
19.18
27.90
34.95
39.93
42.86
43.99
43.62
42.06
39.52
36.24
32.46
28.45
24.47
20.79
17.57
14.90
12.65
10.61
8.45
5.91
2.75
-0.99
-5.16
-9.48
-13.74
-17.84
-21.83
-25.83
-29.98
-34.31
-38.80
-43.30
-47.51
-50.97
-53.03
-53.04
-50.50
-45.33
-37.94
-29.12
-19.85
-10.98
-3.06
3.63
8.98
13.04
15.87
17.62
18.52
18.87
18.89
18.75
18.47
17.95
17.10
15.85
14.22
12.23
9.87
7.07
3.77
-0.02
-4.23
-8.65
-13.07
-17.30
-21.22
-24.85
-28.23
-31.45
-34.60
-37.75
-40.93
-43.72
-45.64
-46.29
-45.48
-43.17
-39.37
-34.19
-27.94
-21.08
-13.94
-7.04
-1.21
2.48
3.14
0.48
-5.06
-12.48
-20.53
-27.46
-32.35
-35.59
-38.86
-44.03
-52.22
-63.41
-76.65
-90.57
-101.92
-108.62
-111.29
-113.31
-119.10
-132.38
-155.08
-187.02
-225.52
-261.44
-285.52
-292.66
-283.89
-264.19
-239.05
-212.24
-185.08
-156.22
-115.92
-56.19
23.59
115.50
208.70
295.10
371.37
437.68
495.93
557.02
629.32
713.65
802.91
888.14
963.45
1025.63
1071.88
1043.99
908.45
678.98
414.07
174.92
-6.63
-128.16
-202.98
-248.05
-276.86
-288.44
-279.54
-252.27
-216.30
-184.78
-166.41
-163.82
-175.34
-197.43
-219.61
-234.26
-238.66
-237.18
-236.51
-240.45
-249.04
-260.06
-270.85
-275.14
-268.79
-252.06
-229.89
-208.14
-190.33
-177.49
-168.91
-163.48
-157.92
-149.50
-137.43
-123.78
-112.07
-105.08
-103.59
-105.03
-104.36
-94.70
-71.22
-34.16
10.66
54.55
90.06
113.62
125.73
128.28
122.22
106.83
80.82
45.20
4.65
-33.21
-62.12
-77.56
-79.62
-71.92
-59.23
-45.57
-32.88
-21.83
-12.99
-7.70
-7.87
-15.52
-31.26
-51.77
-72.86
-87.97
-91.14
-79.68
-55.86
-26.14
1.17
19.58
26.80
24.78
18.08
10.86
4.89
-0.38
-6.26
-13.48
-21.46
-28.62
-33.58
-35.97
-36.64
-37.03
-38.36
-40.68
-43.02
-43.74
-41.66
-35.80
-26.38
-14.69
-2.51
8.62
17.87
25.13
30.79
35.40
39.25
42.22
43.93
44.03
42.44
39.49
35.79
32.00
28.62
25.89
23.71
21.84
19.97
17.91
15.69
13.39
11.04
8.61
6.01
3.15
0.05
-3.15
-6.24
-8.89
-11.05
-12.90
-14.81
-17.15
-20.06
-23.33
-26.50
-29.06
-30.42
-30.53
-29.87
-29.25
-29.39
-30.59
-32.51
-34.14
-34.36
-31.98
-26.70
-19.00
-9.98
-0.74
8.31
17.83
29.89
44.61
63.40
87.34
116.48
149.09
181.41
208.25
224.25
226.01
212.90
187.98
156.38
123.47
92.63
64.18
35.93
4.98
-29.44
-65.18
-96.67
-116.73
-118.77
-98.73
-56.61
3.33
72.77
141.30
197.36
231.15
237.05
215.25
171.71
116.17
59.16
5.90
-38.17
-69.71
-87.69
-92.92
-87.52
-74.25
-56.61
-38.45
-23.12
-12.04
-5.26
-1.61
0.89
3.97
8.91
15.93
24.09
31.84
38.03
41.68
42.34
41.01
37.95
33.46
27.27
18.38
5.27
-13.24
-37.85
-67.59
-100.75
-135.69
-170.24
-201.31
-224.53
-234.81
-227.95
-203.04
-163.74
-117.76
-74.28
-40.32
-18.78
-8.32
-5.17
-5.58
-7.52
-10.52
-14.83
-20.16
-25.03
-27.82
-27.76
-25.62
-23.31
-23.05
-26.17
-32.49
-40.48
-47.72
-52.44
-54.03
-53.49
-52.70
-53.40
-56.14
-59.86
-62.67
-61.41
-54.03
-40.27
-21.85
-1.61
17.53
33.55
46.00
55.63
64.12
72.97
83.38
96.10
110.97
126.36
138.84
143.82
136.10
114.74
83.08
48.14
18.01
-1.36
-8.35
-5.77
1.48
9.05
15.05
19.54
23.40
26.95
29.51
29.93
27.61
23.19
18.23
14.77
14.07
16.09
19.70
23.28
25.45
25.64
24.31
22.61
21.92
22.97
25.92
29.97
34.10
37.48
39.87
41.59
43.28
45.56
48.56
51.94
54.84
56.21
55.24
51.24
44.02
33.78
21.01
6.25
-9.77
-26.42
-43.01
-58.94
-73.69
-86.94
-98.69
-108.44
-117.13
-125.34
-133.42
-141.30
-149.41
-156.33
-160.58
-160.87
-156.32
-146.65
-131.85
-112.31
-88.64
-60.87
-30.91
-0.46
28.74
54.96
76.53
92.58
102.85
107.92
109.06
107.65
104.77
100.69
95.03
86.30
73.44
56.15
35.20
12.31
-10.61
-31.76
-50.09
-65.69
-79.27
-91.75
-104.11
-117.05
-131.04
-145.39
-157.59
-163.32
-158.03
-138.69
-105.56
-62.80
-17.39
23.37
54.64
75.62
88.96
98.09
105.57
112.39
118.39
123.29
127.56
132.38
138.81
147.15
155.75
161.94
163.02
157.27
144.43
125.31
101.57
72.54
41.25
9.81
-20.80
-50.07
-77.30
-101.43
-121.33
-136.02
-145.02
-148.25
-146.71
-142.00
-135.80
-129.77
-124.23
-119.16
-114.22
-108.99
-102.69
-94.98
-85.89
-75.43
-63.43
-49.35
-32.46
-12.02
12.40
39.14
66.63
92.75
115.20
132.11
142.60
147.09
147.17
144.94
142.33
140.54
139.49
138.09
135.21
130.26
123.65
116.68
110.78
107.28
107.07
110.41
116.70
123.97
128.70
126.46
113.49
88.87
55.58
20.16
-9.97
-29.69
-38.40
-39.61
-38.28
-38.02
-39.53
-41.07
-40.84
-38.79
-37.29
-40.35
-51.03
-69.53
-92.69
-115.37
-131.44
-138.33
-136.96
-131.36
-127.59
-131.17
-144.49
-165.86
-189.11
-205.27
-206.06
-187.75
-150.35
-99.77
-45.64
2.18
35.96
51.88
50.53
35.82
14.79
-3.91
-12.83
-8.16
8.07
28.29
43.12
46.49
38.94
27.93
23.68
32.36
52.06
72.65
80.84
67.96
35.14
-7.08
-43.51
-62.00
-59.23
-41.27
-19.25
-5.08
-4.26
-14.15
-27.57
-37.89
-43.23
-46.77
-53.43
-65.22
-79.26
-88.70
-86.41
-68.69
-37.04
2.67
41.52
72.65
93.35
105.19
112.62
120.22
130.38
142.39
153.08
158.82
157.57
149.85
138.43
127.14
119.32
116.94
120.26
127.84
136.59
142.24
139.91
125.68
98.67
62.26
23.55
-9.32
-30.31
-37.90
-35.04
-27.24
-19.64
-14.85
-12.89
-12.60
-13.31
-15.72
-21.60
-32.53
-48.86
-68.88
-90.07
-109.37
-124.46
-134.44
-139.79
-142.11
-143.22
-144.43
-146.29
-148.98
-152.63
-157.37
-162.59
-166.13
-164.41
-153.62
-131.79
-100.62
-65.53
-33.74
-11.38
-0.89
-0.53
-6.07
-13.10
-19.08
-23.75
-27.82
-31.43
-33.45
-31.68
-24.03
-9.65
10.49
33.92
56.77
75.99
89.74
97.99
102.37
105.40
109.30
115.03
122.12
127.95
129.84
126.29
117.64
106.37
96.03
89.81
89.18
93.71
101.37
109.77
116.17
117.51
110.42
92.12
62.24
24.94
-10.86
-34.24
-37.20
-19.47
10.40
38.60
52.84
48.29
29.50
6.84
-9.47
-14.63
-10.69
-3.66
0.87
1.10
-1.07
-2.31
-1.07
1.22
0.94
-5.32
-18.80
-37.93
-58.98
-77.49
-90.29
-96.58
-97.58
-95.76
-93.82
-92.84
-93.10
-94.46
-96.84
-100.49
-105.04
-108.60
-107.56
-97.88
-76.62
-44.03
-4.16
35.61
67.05
83.07
80.22
60.25
29.82
-1.63
-25.35
-35.85
-32.60
-19.69
-3.41
10.07
17.02
16.41
9.16
-2.40
-14.45
-21.68
-18.76
-2.76
23.89
53.38
75.42
81.65
70.07
46.00
19.63
0.56
-5.38
0.64
13.11
26.58
37.93
47.63
56.67
64.85
70.10
70.08
63.37
50.97
36.05
22.21
12.25
6.61
3.58
-0.16
-7.42
-19.37
-34.75
-50.46
-63.11
-70.22
-71.50
-68.72
-65.71
-65.87
-71.12
-81.36
-94.71
-108.97
-122.48
-134.65
-145.95
-158.70
-175.13
-197.11
-225.53
-259.53
-296.30
-331.22
-359.27
-369.67
-357.98
-325.31
-277.94
-224.84
-174.48
-132.30
-99.82
-75.45
-56.53
-42.27
-32.64
-27.85
-27.28
-29.09
-31.02
-31.23
-28.38
-22.26
-14.50
-6.65
0.50
7.34
15.11
25.16
38.13
55.21
76.31
99.51
122.12
141.81
157.46
169.37
178.68
186.55
196.82
212.02
231.94
253.89
274.03
289.20
297.64
298.86
292.83
285.10
280.46
280.75
284.59
289.17
292.70
295.07
297.87
302.64
317.51
348.43
396.26
456.24
520.50
581.64
634.15
674.82
665.72
586.51
440.28
254.47
64.01
-106.11
-245.41
-353.55
-429.10
-481.32
-510.04
-513.70
-493.24
-453.65
-401.94
-343.35
-284.51
-230.34
-185.54
-147.57
-113.13
-80.54
-51.07
-28.01
-13.92
-9.90
-14.88
-26.99
-39.58
-46.78
-45.58
-36.75
-24.23
-12.26
-4.59
-2.83
-6.82
-12.43
-15.06
-11.40
1.52
19.85
38.62
53.11
60.23
59.48
53.94
48.17
46.87
53.22
67.85
89.37
113.79
134.82
144.80
137.20
109.50
66.13
18.23
-20.66
-39.82
-36.94
-19.48
-1.23
4.74
-10.51
-46.94
-95.20
-140.65
-168.36
-168.03
-136.18
-75.81
4.83
93.81
178.19
246.34
289.97
306.26
297.77
270.88
233.11
191.16
149.92
113.53
85.93
70.57
69.27
80.72
99.89
118.95
130.37
129.61
116.68
95.05
69.72
44.89
22.82
3.94
-12.88
-28.68
-43.75
-57.94
-71.43
-85.18
-100.39
-117.39
-134.34
-147.55
-151.36
-140.20
-111.74
-69.21
-21.42
20.30
46.33
52.10
36.35
3.23
-39.53
-83.71
-123.65
-157.05
-183.68
-203.65
-216.81
-228.69
-243.41
-261.62
-280.65
-297.22
-309.49
-316.79
-318.84
-315.76
-317.12
-330.04
-354.89
-385.75
-415.72
-440.75
-459.55
-472.28
-479.87
-495.34
-528.01
-578.04
-637.41
-696.92
-751.85
-801.69
-847.76
-818.78
-681.83
-457.80
-207.28
15.93
189.36
313.85
399.40
457.29
496.65
512.60
502.64
472.40
434.44
401.11
377.99
364.44
357.46
353.88
342.79
318.26
282.90
243.00
209.26
186.41
173.13
166.05
161.34
150.17
127.08
92.28
51.52
13.08
-11.57
-18.37
-6.68
19.97
51.51
77.61
91.68
93.31
87.15
78.96
72.39
68.98
67.81
65.76
62.45
60.01
62.17
72.38
91.73
118.63
150.52
183.65
211.46
228.57
230.45
215.23
185.37
147.26
109.10
78.27
58.32
48.49
45.51
45.55
46.39
47.98
51.04
55.63
60.58
63.74
63.63
60.31
54.72
48.29
42.40
37.19
32.27
26.69
19.35
9.82
-1.72
-14.96
-29.53
-44.96
-60.80
-76.07
-88.50
-98.10
-105.18
-110.35
-114.53
-118.68
-123.21
-128.17
-133.03
-137.91
-142.84
-146.38
-145.36
-136.21
-117.01
-89.58
-61.36
-38.29
-25.59
-24.15
-29.40
-33.87
-30.96
-18.13
3.54
28.17
51.07
69.89
84.63
96.39
105.19
109.62
108.02
99.33
83.90
64.20
43.19
23.21
5.47
-10.18
-24.66
-38.81
-52.69
-65.66
-75.99
-82.19
-83.69
-81.06
-75.74
-69.39
-63.05
-57.03
-51.06
-44.46
-36.85
-28.78
-21.48
-16.23
-14.41
-16.11
-20.26
-25.52
-30.72
-35.08
-39.21
-44.22
-51.89
-63.73
-80.80
-103.33
-129.92
-157.05
-178.44
-187.82
-181.07
-158.32
-124.19
-86.27
-52.21
-27.08
-12.11
-4.19
0.45
4.57
9.08
13.91
19.17
26.27
38.23
50.18
60.29
66.42
66.52
59.17
44.13
22.64
-3.11
-30.80
-58.90
-85.72
-111.07
-135.71
-160.63
-186.32
-212.64
-238.78
-263.65
-286.28
-305.04
-318.47
-325.50
-325.43
-317.86
-302.54
-279.34
-248.40
-210.50
-166.40
-117.24
-64.71
-10.95
41.69
90.92
134.84
172.01
201.60
223.54
239.10
249.74
256.47
259.86
260.22
258.08
254.25
249.58
244.81
242.85
245.69
253.30
263.71
274.17
282.71
288.56
291.68
292.17
294.94
303.34
316.88
331.34
341.32
343.26
336.49
322.36
302.82
287.74
284.64
294.76
313.48
333.89
351.67
366.60
380.98
397.63
429.08
484.21
563.30
658.91
759.96
858.41
951.08
1038.27
1054.69
961.46
762.49
505.29
247.89
23.64
-162.44
-319.86
-458.94
-584.07
-682.79
-738.94
-754.78
-741.24
-715.02
-690.99
-678.68
-682.33
-702.14
-727.21
-746.29
-753.22
-742.43
-713.55
-668.16
-609.40
-542.35
-474.12
-407.68
-346.58
-296.21
-261.41
-245.00
-244.32
-251.84
-258.51
-257.86
-245.77
-223.29
-195.63
-168.40
-146.21
-130.67
-121.03
-115.85
-114.00
-113.75
-113.53
-112.26
-109.27
-104.89
-100.06
-95.88
-93.33
-92.80
-93.92
-95.61
-96.51
-95.33
-91.30
-84.56
-75.90
-66.34
-56.59
-46.75
-36.42
-25.21
-13.04
-0.31
12.16
23.35
32.72
40.49
47.63
55.39
64.61
75.35
87.38
100.01
112.54
124.89
137.89
153.07
171.78
194.31
219.58
246.94
275.22
303.14
329.91
355.83
382.37
411.22
443.96
481.57
526.97
580.16
636.29
686.01
719.05
728.78
715.19
684.95
648.48
619.87
606.50
605.79
607.62
601.24
581.21
548.73
508.90
466.90
431.39
406.17
389.30
375.33
359.59
340.77
319.97
298.51
237.46
119.49
-44.79
-221.70
-376.63
-491.02
-563.12
-600.73
-615.07
-615.69
-606.72
-590.20
-569.60
-550.33
-537.79
-535.34
-544.63
-567.20
-602.20
-644.72
-690.89
-739.12
-788.44
-835.42
-872.72
-891.33
-884.54
-851.03
-793.03
-717.54
-634.35
-552.70
-478.46
-413.42
-357.02
-308.34
-267.01
-231.73
-200.94
-173.22
-147.71
-124.10
-102.57
-83.58
-67.84
-55.59
-45.87
-36.99
-27.14
-15.06
-0.36
16.41
33.94
50.56
64.80
75.73
83.22
87.79
90.15
90.91
90.34
88.39
84.92
80.03
74.18
68.15
62.90
59.25
57.64
58.03
59.94
62.65
65.41
67.62
68.95
69.28
68.70
67.38
65.50
63.22
60.74
58.26
56.13
54.78
54.64
56.53
60.93
67.78
76.43
86.06
96.02
105.93
116.05
126.83
139.06
153.13
168.79
185.18
201.30
216.60
230.97
245.09
259.74
276.38
295.63
317.04
339.42
361.80
384.11
406.50
429.28
451.60
473.97
495.28
512.70
522.48
521.57
508.86
484.21
450.45
411.41
377.42
357.12
353.48
362.12
374.11
380.79
375.75
361.23
344.04
341.94
368.28
425.15
501.79
580.51
645.07
682.13
689.77
670.97
643.98
626.61
630.21
657.18
703.92
765.61
833.56
904.85
898.81
769.09
520.80
209.34
-101.06
-374.01
-578.36
-741.55
-881.57
-1003.72
-1094.51
-1144.04
-1152.27
-1125.16
-1073.85
-1009.69
-945.37
-884.46
-828.07
-767.36
-696.56
-616.11
-533.25
-457.92
-396.96
-354.95
-329.27
-314.97
-302.43
-285.99
-264.35
-241.04
-222.13
-212.65
-214.18
-224.29
-239.94
-255.42
-267.35
-273.53
-274.15
-271.09
-266.97
-264.62
-264.94
-271.64
-282.70
-297.61
-315.09
-333.26
-348.46
-355.83
-349.67
-325.43
-282.31
-220.01
-151.65
-91.93
-48.96
-22.05
-7.92
-2.24
-1.67
-4.41
-9.16
-15.31
-19.13
-22.35
-23.43
-21.59
-16.81
-9.91
-2.17
5.70
12.79
19.79
27.92
38.79
52.48
68.09
83.98
98.31
109.75
117.25
121.35
123.56
126.42
131.80
140.81
153.66
169.60
187.44
205.65
223.40
240.56
258.01
276.74
297.88
322.57
351.74
385.46
422.10
457.96
487.48
504.82
505.57
488.54
456.30
414.21
368.30
323.25
281.46
243.42
208.98
178.25
151.91
130.81
115.34
104.86
97.64
91.52
84.75
76.57
67.35
58.21
50.45
45.05
42.30
41.54
41.40
40.36
37.14
30.85
21.09
8.08
-7.28
-23.76
-40.71
-58.13
-76.20
-94.56
-112.20
-127.73
-139.84
-147.83
-152.03
-154.36
-157.60
-164.28
-175.93
-193.20
-216.20
-244.34
-275.26
-301.79
-315.51
-312.26
-294.34
-267.72
-238.21
-209.54
-183.12
-158.84
-136.25
-115.71
-98.30
-84.88
-75.29
-68.54
-63.37
-58.47
-52.79
-45.75
-37.54
-29.11
-21.52
-15.46
-11.22
-8.90
-8.17
-8.28
-8.23
-7.24
-5.23
-2.85
-1.57
-2.55
-6.82
-14.23
-22.80
-30.22
-34.04
-32.77
-26.58
-17.40
-8.05
-1.95
-0.91
-5.74
-15.85
-29.26
-42.54
-51.21
-51.04
-39.16
-18.03
5.66
22.96
26.29
13.19
-12.24
-40.91
-63.07
-71.51
-64.31
-44.79
-19.47
5.04
24.59
38.14
46.89
52.68
56.80
59.21
58.83
54.90
47.99
40.27
34.69
33.31
36.28
40.68
44.26
44.50
40.17
32.33
23.67
17.25
14.71
15.73
18.31
20.20
20.36
18.85
17.67
19.16
24.79
34.14
45.31
55.98
64.88
71.71
76.78
80.23
81.57
80.10
75.35
67.68
57.80
46.18
32.01
13.68
-9.88
-37.37
-63.57
-82.23
-89.03
-83.95
-70.44
-53.66
-37.68
-23.90
-11.45
1.02
13.64
25.24
33.39
37.15
36.51
32.37
26.07
18.74
10.62
0.83
-9.97
-22.56
-36.81
-51.61
-65.00
-74.95
-80.24
-81.00
-78.75
-75.63
-73.86
-74.32
-76.60
-79.24
-80.68
-79.84
-76.73
-72.35
-68.00
-65.23
-65.13
-68.51
-75.40
-84.32
-91.79
-92.71
-82.18
-57.88
-22.09
18.72
56.10
83.07
96.86
99.53
96.17
91.87
89.55
89.03
88.58
86.56
82.88
78.80
76.03
75.47
76.70
78.49
79.53
79.70
79.97
81.18
82.59
81.17
72.51
53.04
22.44
-15.73
-54.98
-88.43
-111.49
-123.37
-126.26
-123.70
-118.90
-113.77
-109.54
-107.63
-109.82
-117.32
-128.98
-140.37
-144.54
-135.23
-108.76
-67.52
-19.47
25.11
57.72
75.04
79.51
77.28
74.81
76.34
83.00
93.50
105.25
115.08
119.43
114.99
99.90
75.21
45.16
16.85
-3.31
-11.98
-9.91
-0.76
11.19
22.95
33.42
42.57
50.42
56.24
59.19
59.02
56.65
53.72
51.79
51.63
52.60
53.09
50.96
44.72
34.05
19.90
4.06
-11.42
-24.85
-35.38
-42.87
-47.83
-50.83
-52.26
-52.21
-50.56
-47.15
-41.99
-35.57
-28.47
-21.34
-14.61
-8.47
-2.80
2.61
8.00
13.52
18.69
22.89
25.45
25.82
23.64
18.74
11.52
2.98
-5.30
-12.17
-16.16
-15.98
-10.94
-1.31
11.83
26.89
42.09
56.17
67.24
74.41
77.37
75.94
69.91
59.09
43.71
24.52
3.07
-20.13
-44.21
-68.41
-92.76
-118.04
-145.80
-178.04
-217.76
-257.79
-295.61
-329.39
-356.52
-372.41
-370.87
-346.94
-300.25
-237.02
-168.59
-108.74
-67.00
-45.80
-40.59
-42.54
-44.34
-40.39
-29.06
-11.74
8.09
27.68
45.46
61.44
77.03
94.17
114.57
139.39
169.00
202.22
236.06
265.11
279.57
272.27
241.47
192.75
137.77
90.10
60.04
50.31
54.97
64.09
69.34
68.01
63.29
61.82
66.98
80.15
104.00
135.22
165.79
185.16
186.22
167.55
134.39
96.16
61.78
35.49
15.81
-0.40
-14.95
-26.95
-34.49
-36.77
-35.36
-33.50
-35.05
-43.06
-56.37
-73.43
-91.77
-110.12
-129.50
-153.02
-184.14
-224.36
-271.49
-317.66
-351.70
-362.74
-344.64
-298.08
-229.71
-148.79
-63.19
16.78
84.30
136.95
175.61
201.82
216.61
220.80
215.88
204.26
188.64
172.03
156.35
142.25
129.14
116.24
103.22
90.40
78.39
67.63
58.79
51.97
46.67
41.90
36.84
31.15
25.07
19.15
13.78
9.45
6.35
4.25
2.59
0.90
-1.05
-3.18
-5.19
-6.86
-7.94
-8.24
-7.86
-7.15
-6.61
-6.64
-7.49
-8.08
-8.94
-10.04
-10.96
-11.42
-11.35
-10.88
-10.21
-9.40
-9.38
-8.88
-7.00
-2.97
3.29
11.14
19.45
26.90
32.47
35.81
38.41
40.54
43.12
46.50
50.27
53.35
54.56
53.23
49.47
44.52
39.94
37.41
37.75
41.25
47.51
55.20
61.83
63.59
56.93
39.96
14.03
-16.82
-46.55
-69.36
-82.01
-84.78
-81.18
-74.66
-67.14
-58.85
-50.10
-41.69
-35.46
-33.58
-37.43
-47.39
-60.73
-72.87
-79.61
-79.98
-75.57
-70.10
-67.82
-72.53
-87.56
-112.24
-142.62
-167.67
-178.54
-168.61
-135.76
-82.90
-11.38
64.64
127.73
167.43
184.92
188.20
185.52
180.45
173.41
163.56
150.64
139.06
133.58
133.98
135.29
130.57
113.58
82.88
40.79
-8.37
-56.73
-98.12
-130.22
-152.54
-158.00
-143.04
-107.89
-60.48
-15.13
15.50
22.15
1.50
-40.81
-93.38
-145.01
-177.59
-179.68
-171.04
-164.26
-156.44
-147.21
-136.88
-127.41
-123.32
-129.81
-152.53
-183.94
-211.53
-223.28
-212.71
-178.03
-123.12
-57.69
5.72
54.91
83.28
93.07
91.28
84.56
77.64
71.66
64.86
55.43
42.56
27.91
15.18
7.25
4.32
5.00
6.88
7.67
6.44
3.46
0.36
-0.56
2.35
9.11
18.63
28.88
37.23
41.07
37.89
26.34
6.85
-17.91
-43.55
-64.74
-76.78
-78.10
-68.18
-48.72
-22.88
5.89
35.05
63.51
91.38
119.24
147.22
174.42
198.30
215.46
223.03
220.02
207.91
190.18
170.83
152.58
136.15
120.43
104.07
87.06
71.34
59.83
54.87
56.82
63.82
72.76
80.58
85.46
87.01
85.88
82.82
78.10
71.44
62.46
51.13
37.93
23.62
8.90
-5.96
-21.18
-37.18
-54.14
-71.72
-89.03
-104.96
-118.51
-129.05
-136.37
-140.61
-142.15
-141.49
-139.25
-136.09
-132.70
-129.59
-126.99
-124.76
-122.42
-119.33
-114.89
-108.79
-101.09
-92.18
-82.63
-72.94
-63.40
-54.07
-44.88
-35.77
-26.86
-18.44
-10.89
-4.50
0.66
4.68
7.80
10.25
12.15
13.55
14.43
14.78
14.62
14.07
13.32
12.60
12.14
12.08
12.41
13.00
13.64
14.11
14.28
14.09
13.56
12.76
11.78
10.73
9.74
8.87
8.13
7.43
6.66
5.69
4.55
3.40
2.52
2.11
2.28
2.94
3.87
4.87
5.76
6.50
7.15
7.80
8.52
9.35
10.23
11.08
11.82
12.35
12.64
12.74
12.79
12.93
13.25
13.75
14.28
14.63
14.67
14.38
13.89
13.35
12.84
12.34
11.71
10.84
9.70
8.36
6.98
5.65
4.39
3.19
1.98
0.75
-0.43
-1.46
-2.20
-2.51
-2.31
-1.59
-0.40
1.15
2.93
4.81
6.69
8.47
10.06
11.38
12.43
13.22
13.84
14.37
14.88
15.36
15.80
16.19
16.53
16.80
16.99
16.98
16.65
15.89
14.71
13.24
11.69
10.27
9.11
8.20
7.37
6.42
5.19
3.61
1.80
-0.10
-1.86
-3.24
-4.08
-4.28
-3.83
-2.87
-1.61
-0.32
0.81
1.71
2.46
3.17
3.93
4.64
5.14
5.22
4.78
3.97
3.00
2.16
1.59
1.24
0.93
0.53
-0.01
-0.57
-1.00
-1.29
-1.52
-1.95
-2.75
-3.94
-5.31
-6.56
-7.43
-7.82
-7.89
-7.89
-8.06
-8.51
-9.18
-9.84
-10.27
-10.25
-9.67
-8.56
-6.99
-5.09
-2.96
-0.73
1.50
3.63
5.54
7.17
8.46
9.45
10.21
10.84
11.40
11.91
12.32
12.54
12.49
12.09
11.33
10.23
8.87
7.35
5.81
4.35
3.07
2.02
1.17
0.45
-0.25
-1.04
-1.99
-3.13
-4.43
-5.84
-7.29
-8.70
-9.94
-10.90
-11.40
-11.33
-10.62
-9.28
-7.40
-5.17
-2.77
-0.36
1.94
4.07
5.95
7.53
8.78
9.67
10.23
10.48
10.48
10.27
9.90
9.45
9.01
8.71
8.60
8.64
8.67
8.46
7.80
6.64
5.08
3.40
1.92
0.77
-0.03
-0.67
-1.37
-2.28
-3.43
-4.71
-5.97
-7.02
-7.73
-7.98
-7.66
-6.72
-5.15
-3.05
-0.63
1.83
4.09
5.97
7.40
8.42
9.12
9.56
9.78
9.77
9.52
9.11
8.65
8.28
8.08
8.07
8.17
8.29
8.35
8.29
8.09
7.75
7.23
6.49
5.51
4.31
2.98
1.68
0.53
-0.39
-1.11
-1.72
-2.33
-3.02
-3.74
-4.32
-4.56
-4.28
-3.38
-1.93
-0.09
1.88
3.79
5.50
6.94
8.16
9.21
10.13
10.92
11.59
12.07
12.33
12.32
12.07
11.63
11.12
10.65
10.30
10.09
9.97
9.84
9.56
9.03
8.15
6.91
5.32
3.49
1.53
-0.40
-2.20
-3.78
-5.15
-6.36
-7.53
-8.82
-10.31
-11.98
-13.66
-15.04
-15.79
-15.66
-14.59
-12.74
-10.43
-8.00
-5.69
-3.59
-1.68
0.09
1.76
3.26
4.43
5.16
5.44
5.41
5.34
5.47
5.94
6.70
7.60
8.41
8.98
9.27
9.32
9.22
9.01
8.75
8.45
8.19
8.04
8.03
8.12
8.19
8.11
7.76
7.07
6.07
4.88
3.66
2.57
1.80
1.44
1.47
1.84
2.46
3.25
4.19
5.29
6.50
7.70
8.70
9.34
9.53
9.32
8.81
8.11
7.27
6.24
4.96
3.42
1.76
0.14
-1.28
-2.40
-3.30
-4.13
-5.03
-6.09
-7.32
-8.64
-9.99
-11.27
-12.43
-13.37
-14.01
-14.25
-14.03
-13.39
-12.50
-11.58
-10.83
-10.42
-10.39
-10.62
-10.90
-10.91
-10.35
-9.06
-7.02
-4.43
-1.55
1.28
3.83
5.94
7.52
8.57
9.12
9.21
8.92
8.39
7.72
7.01
6.30
5.60
4.88
4.14
3.37
2.58
1.82
1.11
0.54
0.13
-0.11
-0.25
-0.39
-0.58
-0.85
-1.15
-1.44
-1.72
-2.09
-2.67
-3.54
-4.67
-5.94
-7.15
-8.09
-8.62
-8.68
-8.24
-7.30
-5.86
-3.96
-1.75
0.57
2.74
4.56
5.93
6.85
7.41
7.70
7.78
7.65
7.33
6.92
6.57
6.39
6.47
6.74
7.08
7.31
7.32
7.07
6.58
5.93
5.19
4.47
3.87
3.42
3.08
2.73
2.21
1.40
0.32
-0.88
-1.99
-2.83
-3.40
-3.80
-4.22
-4.80
-5.46
-5.98
-6.05
-5.45
-4.17
-2.48
-0.78
0.58
1.44
1.88
2.11
2.39
2.80
3.29
3.69
3.85
3.74
3.43
3.06
2.73
2.46
2.21
1.87
1.39
0.75
0.04
-0.63
-1.12
-1.41
-1.54
-1.64
-1.85
-2.24
-2.76
-3.26
-3.60
-3.68
-3.53
-3.29
-3.16
-3.25
-3.62
-4.18
-4.80
-5.31
-5.61
-5.64
-5.40
-4.94
-4.27
-3.41
-2.34
-1.06
0.34
1.72
2.89
3.69
4.04
4.00
3.75
3.46
3.24
3.08
2.86
2.49
1.92
1.23
0.50
-0.21
-0.93
-1.73
-2.62
-3.53
-4.29
-4.74
-4.86
-4.79
-4.78
-5.07
-5.79
-6.89
-8.21
-9.54
-10.73
-11.71
-12.49
-13.14
-13.65
-13.98
-14.00
-13.59
-12.68
-11.35
-9.81
-8.27
-6.93
-5.84
-4.95
-4.17
-3.45
-2.79
-2.25
-1.86
-1.56
-1.25
-0.87
-0.39
0.15
0.65
1.06
1.34
1.50
1.55
1.49
1.36
1.18
0.97
0.77
0.57
0.35
0.11
-0.13
-0.35
-0.50
-0.59
-0.69
-0.93
-1.44
-2.27
-3.37
-4.57
-5.62
-6.31
-6.48
-6.14
-5.43
-4.53
-3.64
-2.93
-2.50
-2.44
-2.74
-3.35
-4.19
-5.14
-6.12
-7.13
-8.19
-9.34
-10.54
-11.59
-12.24
-12.18
-11.24
-9.38
-6.74
-3.57
-0.13
3.38
6.83
10.11
13.13
15.78
17.93
19.53
20.56
21.08
21.11
20.65
19.60
17.87
15.44
12.42
9.07
5.71
2.64
0.11
-1.75
-2.92
-3.48
-3.59
-3.46
-3.26
-3.10
-2.98
-2.88
-2.76
-2.69
-2.82
-3.23
-3.96
-4.87
-5.75
-6.39
-6.70
-6.68
-6.45
-6.10
-5.70
-5.26
-4.77
-4.22
-3.63
-3.04
-2.49
-2.06
-1.78
-1.68
-1.75
-1.92
-2.11
-2.27
-2.40
-2.52
-2.66
-2.82
-2.90
-2.79
-2.39
-1.67
-0.73
0.27
1.17
1.86
2.32
2.59
2.73
2.78
2.77
2.75
2.77
2.91
3.22
3.69
4.26
4.79
5.13
5.23
5.10
4.85
4.58
4.37
4.19
3.98
3.61
3.06
2.37
1.66
1.02
0.50
0.06
-0.38
-0.87
-1.39
-1.85
-2.16
-2.26
-2.22
-2.12
-2.04
-1.98
-1.86
-1.59
-1.13
-0.50
0.17
0.77
1.16
1.25
1.03
0.53
-0.21
-1.08
-1.95
-2.70
-3.25
-3.55
-3.65
-3.64
-3.58
-3.54
-3.50
-3.41
-3.19
-2.84
-2.42
-2.10
-1.99
-2.14
-2.48
-2.89
-3.27
-3.59
-3.89
-4.26
-4.70
-5.11
-5.34
-5.22
-4.68
-3.79
-2.65
-1.42
-0.21
0.87
1.76
2.44
2.97
3.44
3.91
4.41
4.83
5.03
4.90
4.43
3.78
3.17
2.77
2.61
2.55
2.40
1.98
1.25
0.33
-0.61
-1.37
-1.83
-1.91
-1.64
-1.13
-0.57
-0.15
-0.06
-0.40
-1.12
-2.05
-2.97
-3.64
-3.94
-3.88
-3.55
-3.11
-2.65
-2.21
-1.73
-1.13
-0.40
0.40
1.12
1.57
1.70
1.62
1.57
1.76
2.27
2.95
3.50
3.67
3.36
2.68
1.93
1.38
1.20
1.34
1.58
1.69
1.48
0.93
0.18
-0.56
-1.06
-1.25
-1.18
-1.06
-1.10
-1.43
-2.03
-2.77
-3.48
-4.04
-4.39
-4.57
-4.61
-4.48
-4.13
-3.49
-2.54
-1.34
-0.02
1.23
2.27
3.01
3.46
3.70
3.83
3.91
3.94
3.91
3.77
3.51
3.16
2.76
2.38
2.04
1.76
1.51
1.26
1.02
0.79
0.60
0.46
0.36
0.25
0.05
-0.30
-0.79
-1.41
-2.10
-2.81
-3.51
-4.18
-4.73
-5.10
-5.17
-4.89
-4.26
-3.37
-2.35
-1.36
-0.56
-0.03
0.20
0.24
0.25
0.42
0.86
1.51
2.22
2.76
3.02
2.98
2.76
2.53
2.35
2.21
2.02
1.75
1.45
1.24
1.26
1.55
1.97
2.30
2.30
1.87
1.14
0.34
-0.22
-0.40
-0.29
-0.14
-0.28
-0.88
-1.88
-3.04
-4.04
-4.64
-4.75
-4.46
-3.88
-3.14
-2.30
-1.38
-0.45
0.41
1.11
1.57
1.76
1.77
1.74
1.81
2.06
2.47
2.97
3.41
3.69
3.78
3.73
3.60
3.48
3.42
3.43
3.48
3.55
3.59
3.59
3.50
3.29
2.94
2.45
1.81
1.04
0.18
-0.71
-1.54
-2.24
-2.82
-3.30
-3.75
-4.20
-4.59
-4.81
-4.72
-4.31
-3.66
-2.93
-2.28
-1.78
-1.39
-1.02
-0.58
-0.10
0.36
0.64
0.69
0.52
0.28
0.14
0.26
0.67
1.27
1.86
2.20
2.14
1.67
0.94
0.21
-0.31
-0.53
-0.51
-0.38
-0.30
-0.35
-0.55
-0.84
-1.19
-1.57
-2.00
-2.50
-3.07
-3.67
-4.25
-4.73
-5.02
-5.02
-4.62
-3.82
-2.69
-1.42
-0.23
0.70
1.31
1.62
1.74
1.79
1.87
2.03
2.27
2.60
2.95
3.24
3.36
3.19
2.68
1.92
1.10
0.45
0.10
0.05
0.12
0.02
-0.45
-1.28
-2.28
-3.13
-3.56
-3.50
-3.09
-2.59
-2.29
-2.38
-2.86
-3.66
-4.61
-5.53
-6.24
-6.57
-6.40
-5.72
-4.67
-3.46
-2.30
-1.29
-0.39
0.50
1.42
2.31
3.03
3.45
3.50
3.27
2.92
2.63
2.49
2.54
2.72
2.97
3.25
3.53
3.78
3.98
4.11
4.12
3.93
3.51
2.83
1.98
1.08
0.31
-0.20
-0.45
-0.53
-0.58
-0.73
-1.05
-1.52
-2.06
-2.59
-3.04
-3.36
-3.53
-3.52
-3.33
-2.98
-2.52
-2.02
-1.53
-1.06
-0.64
-0.31
-0.16
-0.22
-0.49
-0.84
-1.13
-1.23
-1.12
-0.89
-0.68
-0.62
-0.74
-1.00
-1.31
-1.62
-1.90
-2.17
-2.42
-2.61
-2.68
-2.58
-2.33
-1.97
-1.56
-1.19
-0.92
-0.80
-0.83
-0.98
-1.24
-1.58
-2.02
-2.58
-3.28
-4.02
-4.67
-5.08
-5.10
-4.68
-3.83
-2.68
-1.36
-0.06
1.07
1.88
2.27
2.30
2.12
1.95
1.97
2.26
2.72
3.21
3.60
3.87
4.06
4.21
4.36
4.47
4.52
4.51
4.42
4.26
3.99
3.53
2.87
2.06
1.26
0.60
0.19
-0.00
-0.08
-0.18
-0.41
-0.79
-1.25
-1.66
-1.91
-1.86
-1.51
-0.89
-0.11
0.66
1.27
1.67
1.85
1.89
1.92
2.01
2.26
2.66
3.20
3.83
4.49
5.14
5.78
6.41
7.03
7.60
8.05
8.29
8.29
8.10
7.86
7.72
7.77
8.01
8.34
8.64
8.83
8.90
8.85
8.75
8.63
8.50
8.36
8.19
7.94
7.56
7.00
6.23
5.21
3.90
2.27
0.25
-2.19
-5.09
-8.39
-11.97
-15.63
-19.13
-22.21
-24.66
-26.35
-27.27
-27.50
-27.18
-26.47
-25.43
-24.05
-22.26
-20.03
-17.38
-14.39
-11.15
-7.75
-4.28
-0.83
2.42
5.29
7.60
9.33
10.54
11.42
12.11
12.76
13.39
13.95
14.35
14.42
13.94
12.67
10.41
7.12
2.98
-1.59
-6.11
-10.10
-13.27
-15.58
-17.11
-18.07
-18.63
-18.90
-18.96
-18.82
-18.50
-18.04
-17.48
-16.83
-16.05
-15.08
-13.80
-12.16
-10.16
-7.86
-5.39
-2.81
-0.21
2.39
4.90
7.15
8.89
9.90
10.12
9.66
8.81
7.93
7.26
6.91
6.80
6.79
6.71
6.47
6.06
5.52
4.93
4.37
3.91
3.62
3.53
3.59
3.71
3.78
3.68
3.34
2.80
2.13
1.45
0.87
0.50
0.39
0.54
0.90
1.34
1.69
1.80
1.58
1.10
0.54
0.12
0.00
0.22
0.68
1.20
1.61
1.78
1.72
1.47
1.16
0.88
0.70
0.64
0.64
0.65
0.65
0.67
0.72
0.84
1.01
1.17
1.31
1.43
1.60
1.87
2.28
2.83
3.45
4.06
4.56
4.87
4.91
4.70
4.33
3.95
3.75
3.82
4.15
4.55
4.83
4.84
4.56
4.09
3.59
3.22
3.05
3.10
3.33
3.66
3.98
4.22
4.30
4.22
4.07
3.89
3.73
3.54
3.21
2.67
1.95
1.18
0.56
0.24
0.27
0.53
0.84
1.08
1.19
1.19
1.16
1.09
0.91
0.47
-0.34
-1.59
-3.18
-4.94
-6.62
-7.99
-8.85
-9.07
-8.66
-7.71
-6.43
-5.11
-4.04
-3.39
-3.24
-3.49
-3.99
-4.60
-5.25
-5.91
-6.58
-7.21
-7.63
-7.71
-7.42
-6.90
-6.42
-6.27
-6.57
-7.19
-7.81
-8.05
-7.71
-6.79
-5.53
-4.20
-3.03
-2.05
-1.17
-0.28
0.71
1.72
2.64
3.32
3.70
3.84
3.83
3.78
3.74
3.72
3.65
3.51
3.30
3.11
3.04
3.19
3.56
4.05
4.49
4.68
4.50
3.94
3.11
2.21
1.43
0.86
0.50
0.25
-0.00
-0.29
-0.57
-0.73
-0.68
-0.40
0.08
0.63
1.13
1.50
1.77
2.00
2.28
2.66
3.15
3.72
4.30
4.86
5.38
5.87
6.31
6.66
6.87
6.89
6.78
6.62
6.52
6.51
6.57
6.61
6.59
6.55
6.56
6.72
7.06
7.52
7.99
8.33
8.41
8.20
7.65
6.75
5.55
4.12
2.59
1.10
-0.23
-1.29
-1.99
-2.29
-2.17
-1.70
-1.03
-0.38
0.11
0.41
0.62
0.89
1.35
1.95
2.57
3.01
3.13
2.89
2.36
1.62
0.79
-0.07
-0.95
-1.88
-2.95
-4.27
-5.91
-7.82
-9.78
-11.52
-12.76
-13.41
-13.52
-13.26
-12.82
-12.29
-11.74
-11.23
-10.84
-10.66
-10.73
-10.89
-10.85
-10.27
-8.90
-6.65
-3.63
-0.06
3.82
7.73
11.43
14.69
17.35
19.37
20.87
21.99
22.82
23.32
23.25
22.35
20.37
17.30
13.37
9.06
4.89
1.32
-1.34
-3.02
-3.76
-3.76
-3.26
-2.55
-1.94
-1.73
-2.14
-3.19
-4.73
-6.46
-8.06
-9.37
-10.41
-11.40
-12.58
-14.11
-15.94
-17.86
-19.52
-20.62
-20.92
-20.41
-19.19
-17.55
-15.77
-14.13
-12.77
-11.73
-10.94
-10.26
-9.55
-8.70
-7.69
-6.56
-5.41
-4.36
-3.52
-2.92
-2.53
-2.27
-2.03
-1.72
-1.37
-1.04
-0.82
-0.75
-0.79
-0.83
-0.79
-0.65
-0.45
-0.23
-0.02
0.24
0.67
1.32
2.15
3.03
3.81
4.40
4.80
5.16
5.62
6.29
7.20
8.34
9.65
11.11
12.70
14.42
16.23
17.97
19.38
20.17
20.08
19.04
17.23
14.95
12.52
10.12
7.74
5.18
2.27
-1.02
-4.56
-8.09
-11.31
-14.07
-16.34
-18.19
-19.64
-20.69
-21.26
-21.31
-20.86
-20.05
-19.07
-18.06
-17.03
-15.88
-14.48
-12.75
-10.73
-8.53
-6.30
-4.10
-1.93
0.25
2.42
4.50
6.37
7.92
9.15
10.08
10.78
11.23
11.37
11.13
10.55
9.74
8.87
8.10
7.50
7.02
6.59
6.13
5.62
5.12
4.63
4.13
3.57
2.93
2.25
1.64
1.19
0.97
0.90
0.85
0.68
0.34
-0.12
-0.61
-1.03
-1.36
-1.59
-1.80
-1.99
-2.16
-2.22
-2.09
-1.70
-1.02
-0.12
0.85
1.72
2.28
2.44
2.25
1.87
1.49
1.25
1.19
1.22
1.21
1.05
0.71
0.25
-0.25
-0.72
-1.09
-1.42
-1.69
-1.92
-2.04
-1.99
-1.72
-1.30
-0.90
-0.68
-0.83
-1.35
-2.13
-2.97
-3.68
-4.16
-4.42
-4.51
-4.47
-4.31
-3.97
-3.42
-2.70
-1.89
-1.11
-0.43
0.17
0.78
1.49
2.35
3.29
4.16
4.76
4.92
4.59
3.84
2.90
2.03
1.43
1.18
1.23
1.43
1.66
1.83
1.94
1.99
1.95
1.73
1.27
0.58
-0.23
-0.97
-1.50
-1.80
-2.02
-2.37
-3.00
-3.92
-5.00
-6.01
-6.72
-7.01
-6.87
-6.41
-5.78
-5.10
-4.42
-3.74
-2.99
-2.12
-1.08
0.06
1.19
2.19
2.91
3.31
3.38
3.23
3.02
2.91
3.07
3.51
4.18
4.91
5.55
6.00
6.23
6.31
6.31
6.32
6.36
6.46
6.71
7.17
7.90
8.86
9.95
11.05
12.09
13.07
14.06
15.14
16.34
17.62
18.87
19.97
20.80
21.30
21.48
21.41
21.22
21.09
21.16
21.50
22.14
23.06
24.19
25.43
26.69
27.92
29.16
30.55
32.29
34.50
37.15
40.02
42.79
45.17
47.09
48.65
50.14
51.76
53.56
55.38
56.92
57.91
58.19
57.81
56.95
55.83
54.59
53.16
51.24
48.25
43.43
35.94
24.95
9.90
-9.28
-31.87
-56.25
-79.98
-100.31
-114.77
-121.83
-121.21
-113.78
-101.17
-85.17
-67.43
-49.27
-31.75
-15.72
-1.85
9.48
18.17
24.39
28.43
30.47
30.61
28.81
25.07
19.49
12.32
3.94
-5.13
-14.29
-22.89
-30.27
-35.93
-39.65
-41.58
-42.25
-42.43
-42.70
-43.22
-43.53
-42.82
-40.23
-35.23
-27.79
-18.35
-7.73
3.26
14.19
25.15
36.60
49.11
62.96
77.96
93.34
107.57
118.93
126.12
128.68
127.05
122.24
115.33
107.15
98.04
87.21
73.79
57.55
39.31
20.63
3.22
-11.61
-22.96
-30.52
-36.43
-43.79
-55.80
-74.63
-100.82
-133.35
-169.78
-206.47
-239.36
-267.70
-292.00
-312.63
-328.31
-336.11
-332.84
-316.68
-288.01
-249.92
-211.42
-182.79
-172.15
-182.55
-212.07
-255.81
-308.38
-364.78
-398.88
-390.40
-331.89
-234.51
-120.51
-9.90
86.48
165.49
228.74
278.90
315.18
336.52
343.51
339.58
329.49
318.26
307.99
299.25
290.77
278.11
257.23
226.28
188.04
147.36
109.06
75.60
48.90
29.02
13.47
-0.51
-14.61
-28.89
-42.31
-53.60
-66.03
-77.67
-87.09
-94.03
-98.35
-99.58
-96.75
-89.08
-71.75
-47.36
-18.77
10.86
38.83
63.49
84.26
101.30
114.94
125.37
131.76
134.58
134.17
131.23
126.37
120.13
112.60
103.17
90.75
73.49
51.05
24.99
-2.62
-29.18
-52.34
-70.43
-83.05
-91.01
-96.10
-99.77
-103.50
-108.71
-116.18
-125.03
-132.20
-132.82
-121.95
-97.19
-60.29
-17.41
22.86
53.10
69.95
74.86
72.54
68.03
64.35
61.98
59.84
56.85
52.84
48.62
45.07
42.43
40.31
38.56
37.61
38.20
40.27
41.61
37.95
24.53
-1.58
-39.73
-85.49
-131.91
-171.59
-198.56
-209.21
-202.63
-181.16
-148.87
-112.05
-77.93
-52.47
-38.36
-34.41
-36.55
-39.82
-40.51
-37.01
-29.11
-17.01
-0.39
21.21
47.38
75.69
102.61
124.47
138.72
144.83
144.52
140.89
137.00
134.69
134.88
136.59
138.41
138.50
134.46
123.46
103.10
72.82
34.87
-5.67
-42.57
-70.84
-88.81
-98.57
-104.33
-109.61
-114.82
-116.80
-110.63
-92.69
-63.19
-26.77
9.28
38.11
56.07
63.56
64.24
62.28
60.35
58.87
56.75
53.08
48.27
43.99
42.10
43.34
46.82
50.64
53.00
53.00
51.21
49.18
48.48
49.93
53.29
57.38
60.92
63.11
63.94
64.26
65.55
69.21
75.94
85.21
93.80
97.30
91.11
72.52
42.37
5.32
-31.68
-61.78
-80.81
-88.48
-87.37
-81.41
-73.96
-66.94
-61.07
-56.79
-54.81
-56.19
-61.73
-70.78
-81.53
-91.47
-98.20
-100.16
-97.18
-90.10
-79.42
-67.31
-54.73
-41.87
-28.43
-14.26
0.47
14.87
27.65
37.53
43.49
45.54
44.31
40.60
35.06
27.88
18.94
8.00
-4.79
-18.65
-31.76
-41.93
-47.17
-46.42
-39.91
-29.11
-16.20
-3.41
7.47
15.79
21.60
24.96
25.79
23.43
17.03
5.97
-9.06
-27.62
-48.85
-71.55
-93.66
-111.76
-121.22
-117.72
-99.33
-68.19
-30.53
5.49
32.92
48.45
53.10
50.76
45.73
40.88
37.10
34.04
31.28
28.95
27.52
27.15
27.39
27.40
26.57
24.73
22.39
20.28
18.82
17.83
16.75
14.83
11.75
7.73
3.57
0.59
0.42
4.75
14.59
29.30
45.89
59.40
64.57
57.92
40.61
17.80
-3.35
-16.84
-20.28
-15.34
-6.07
3.56
11.44
17.64
23.10
28.31
32.96
36.33
38.07
38.71
39.16
39.90
40.66
39.92
35.78
26.80
12.86
-4.76
-23.63
-41.46
-56.66
-68.68
-77.97
-85.59
-92.83
-100.86
-110.46
-120.30
-127.50
-127.88
-117.49
-94.82
-62.09
-25.09
8.99
34.26
48.52
53.12
51.68
47.92
44.02
40.61
37.56
35.15
34.16
35.42
38.66
42.48
44.95
44.71
41.73
37.58
34.59
34.61
37.99
43.29
48.10
50.02
48.00
42.78
36.56
32.08
31.66
36.38
45.39
55.69
62.42
60.04
44.47
15.12
-24.41
-66.98
-104.70
-132.06
-147.84
-155.11
-159.17
-164.83
-174.01
-184.97
-193.05
-192.88
-180.63
-155.79
-121.54
-83.65
-48.49
-19.82
1.83
18.56
33.22
47.39
60.51
70.69
76.40
78.17
78.71
81.49
89.19
102.34
119.48
137.94
154.22
164.56
165.45
154.48
130.57
97.34
61.31
29.82
8.36
-1.31
-1.28
4.37
11.91
19.39
26.73
34.12
40.84
45.31
45.64
40.77
31.45
19.99
9.26
1.83
-1.42
-1.24
1.09
3.95
6.26
7.77
8.75
9.58
10.23
9.82
6.67
-0.49
-12.75
-30.40
-52.10
-76.21
-100.68
-123.38
-142.58
-158.59
-169.95
-175.59
-174.87
-167.31
-153.02
-132.36
-106.19
-74.56
-40.32
-5.74
27.02
56.26
80.94
100.46
114.95
125.05
131.61
135.23
136.99
137.21
135.57
131.70
124.34
112.67
96.50
76.26
52.50
26.57
-0.50
-28.15
-55.98
-83.56
-109.78
-132.83
-150.42
-160.74
-162.33
-155.37
-141.64
-123.89
-104.87
-86.21
-67.96
-47.70
-25.22
-0.41
25.40
49.47
68.27
78.87
79.36
68.92
48.56
20.65
-10.01
-37.27
-54.75
-57.71
-45.10
-20.65
7.92
31.77
44.27
44.50
36.42
26.55
20.60
21.05
27.04
36.33
47.57
61.30
79.23
100.73
121.02
131.75
123.83
91.61
35.83
-36.23
-113.28
-181.04
-227.40
-246.25
-238.31
-210.23
-171.87
-133.27
-101.23
-81.65
-76.97
-86.08
-105.60
-131.97
-162.18
-193.20
-221.26
-243.71
-257.78
-261.82
-256.46
-244.21
-228.18
-210.40
-191.01
-167.79
-138.75
-103.29
-62.69
-20.30
19.52
52.91
77.75
94.15
105.25
114.68
125.18
137.55
150.64
162.42
171.43
177.71
182.80
191.01
205.94
228.89
257.98
289.03
317.33
339.85
356.02
367.47
380.01
399.54
430.53
474.54
529.68
590.72
649.87
697.94
708.65
664.48
562.02
415.93
253.07
100.23
-25.97
-121.24
-189.77
-238.52
-270.31
-285.99
-286.47
-274.97
-257.17
-239.42
-226.11
-218.69
-216.22
-214.04
-207.89
-195.45
-177.24
-156.09
-135.59
-118.21
-104.74
-94.69
-85.27
-73.90
-59.14
-41.41
-22.26
-5.06
7.04
11.63
7.34
-5.31
-24.73
-48.68
-74.60
-100.08
-123.65
-144.61
-162.86
-178.61
-191.81
-202.79
-212.23
-220.77
-228.37
-233.31
-231.98
-220.40
-196.53
-162.15
-123.21
-87.88
-62.94
-51.60
-52.55
-61.18
-72.20
-82.21
-89.22
-92.46
-91.15
-83.91
-69.27
-46.69
-17.28
16.16
49.64
79.41
103.25
120.54
132.07
139.20
143.17
144.64
143.57
139.66
132.95
123.93
113.62
103.31
94.12
86.70
81.06
76.47
71.98
66.96
61.14
54.71
48.28
42.54
38.03
34.92
33.33
32.28
31.00
28.99
26.13
22.89
20.04
18.37
18.33
19.81
22.03
24.04
24.93
24.38
22.90
21.64
21.88
24.56
29.69
36.29
42.87
48.10
51.21
52.42
53.00
53.58
54.77
56.74
59.40
62.35
64.25
62.63
54.27
36.48
8.76
-25.83
-61.28
-90.67
-108.23
-112.56
-106.18
-93.68
-79.29
-65.41
-52.69
-41.17
-31.82
-26.44
-26.78
-32.97
-43.10
-53.83
-61.93
-65.19
-63.59
-58.91
-53.72
-50.44
-50.56
-54.58
-61.82
-70.12
-75.93
-74.99
-63.92
-41.91
-11.79
20.75
49.08
68.19
76.83
77.55
74.84
72.72
73.08
75.42
78.38
81.28
85.15
92.50
105.28
122.85
140.98
152.93
152.21
136.08
106.81
70.82
36.28
10.19
-3.41
-3.31
10.26
37.02
76.85
127.70
184.27
238.22
280.00
302.03
301.38
280.08
242.10
195.70
148.74
106.04
69.09
38.01
13.96
-0.03
-0.61
13.06
37.07
62.48
78.77
78.60
61.16
32.04
0.02
-27.40
-47.11
-60.27
-70.67
-81.63
-94.27
-107.53
-119.68
-129.74
-138.12
-145.73
-152.98
-159.29
-162.92
-161.83
-154.65
-141.53
-124.30
-105.82
-88.92
-75.35
-65.44
-58.32
-52.75
-47.88
-43.77
-41.25
-41.30
-44.44
-50.43
-58.67
-68.63
-80.44
-94.84
-112.75
-134.83
-161.49
-193.19
-230.91
-275.45
-326.10
-379.17
-427.45
-461.63
-473.26
-458.13
-418.06
-360.54
-296.10
-235.22
-184.81
-147.02
-119.66
-98.15
-77.66
-54.40
-26.09
8.42
49.40
96.48
147.82
199.01
242.80
271.49
281.05
274.92
264.08
261.68
276.48
307.39
343.22
368.88
374.61
362.32
344.50
336.07
342.42
357.11
365.83
354.97
319.09
263.84
202.56
148.93
110.17
80.46
49.99
12.47
-31.24
-75.58
-114.22
-143.74
-165.00
-182.55
-209.38
-254.12
-315.90
-384.90
-448.77
-498.00
-528.30
-540.33
-538.50
-538.21
-550.85
-578.19
-613.34
-647.76
-676.70
-700.17
-721.76
-687.26
-574.03
-401.10
-216.05
-57.76
60.77
144.53
204.06
248.37
282.91
301.00
297.98
276.21
244.12
210.47
181.16
160.05
150.64
156.01
170.06
185.78
198.28
205.72
207.55
204.43
197.93
191.86
188.94
185.47
177.71
164.94
150.21
137.89
131.71
132.89
140.23
150.68
158.79
160.89
157.18
151.36
148.10
151.51
162.87
180.84
202.27
222.96
240.26
254.43
268.74
282.97
299.33
319.93
346.21
378.03
412.96
445.81
469.44
476.80
463.68
431.42
385.89
335.38
287.28
245.61
210.51
179.77
151.11
123.65
98.59
77.20
59.54
44.12
28.66
11.51
-7.47
-27.03
-45.33
-60.75
-73.00
-82.92
-91.81
-100.71
-109.76
-118.38
-125.81
-131.74
-136.50
-141.11
-146.93
-154.98
-165.68
-178.54
-192.36
-205.76
-217.75
-228.21
-238.09
-249.15
-263.11
-281.04
-302.51
-325.83
-348.78
-369.59
-387.65
-403.54
-418.86
-435.67
-456.66
-483.72
-516.97
-553.83
-588.71
-613.72
-620.69
-604.14
-563.41
-503.89
-433.71
-360.67
-290.31
-225.57
-167.63
-117.07
-74.90
-42.23
-20.62
-8.88
-3.05
1.51
7.72
16.09
25.52
33.93
39.92
41.69
40.54
40.62
47.38
65.44
97.79
144.86
203.22
275.53
350.47
409.81
440.03
441.48
425.90
407.54
396.88
394.56
395.53
391.43
377.01
351.37
315.94
269.20
208.42
135.41
57.49
-13.33
-65.95
-92.37
-90.66
-66.26
-30.34
4.88
31.06
45.45
50.02
47.87
41.87
33.73
24.01
13.15
2.48
-5.61
-9.31
-8.93
-7.34
-8.22
-14.29
-26.22
-42.33
-58.99
-72.64
-79.18
-76.24
-63.34
-41.34
-12.35
19.87
50.06
72.42
82.33
79.58
68.24
54.96
45.88
43.95
48.26
55.25
61.34
65.36
68.44
72.34
77.88
84.32
89.88
93.23
94.06
93.16
92.34
92.99
95.55
98.06
98.06
93.23
82.20
64.88
42.21
16.41
-10.71
-37.73
-64.24
-90.24
-115.90
-140.96
-164.52
-186.86
-205.05
-216.96
-221.14
-217.06
-204.89
-185.35
-159.56
-126.98
-90.96
-53.69
-17.46
15.89
44.91
68.69
87.08
100.50
109.81
115.70
119.58
122.26
124.23
125.26
124.91
122.70
118.69
112.30
103.19
91.99
79.40
66.42
53.70
41.84
31.04
21.32
12.44
4.09
-3.70
-10.82
-16.71
-20.57
-21.48
-18.76
-11.98
-1.11
13.27
29.99
47.28
63.16
75.67
83.04
83.94
77.53
63.95
44.30
20.35
-5.42
-30.10
-50.87
-65.39
-72.13
-70.80
-61.88
-46.51
-26.41
-3.19
21.67
46.77
70.68
91.83
108.07
117.03
119.27
114.33
102.44
84.48
61.92
36.50
9.97
-16.12
-40.51
-62.07
-80.58
-95.81
-107.93
-116.44
-119.97
-116.61
-105.14
-86.18
-62.65
-40.31
-25.47
-24.05
-38.64
-67.86
-107.18
-150.48
-191.45
-223.80
-242.95
-245.63
-231.87
-203.30
-162.98
-115.70
-66.93
-22.31
14.59
41.29
57.49
62.80
58.86
49.08
36.85
25.10
15.17
7.72
0.71
2.98
16.32
36.31
54.96
65.23
65.54
50.64
26.12
-1.92
-27.77
-49.98
-68.73
-76.54
-71.45
-54.70
-30.83
-4.99
17.14
31.63
34.59
25.51
7.04
-18.12
-47.21
-78.62
-111.25
-144.91
-168.66
-175.13
-161.39
-130.97
-93.35
-57.83
-30.86
-15.57
-12.15
-18.15
-31.11
-46.91
-61.79
-75.63
-88.85
-100.91
-113.58
-124.57
-130.96
-131.29
-123.39
-106.42
-83.22
-55.48
-22.22
16.59
59.54
104.06
146.58
186.49
225.17
262.92
297.02
328.65
356.51
376.42
383.68
362.97
308.48
243.21
178.65
114.58
55.32
4.60
-34.35
-56.93
-59.39
-38.96
2.78
56.65
112.84
164.42
205.12
221.82
206.69
159.97
91.45
14.48
-62.59
-134.78
-198.61
-253.02
-299.20
-336.30
-361.42
-370.86
-362.69
-338.94
-302.04
-253.22
-191.42
-120.55
-45.64
27.62
94.20
149.99
191.31
216.71
227.37
225.63
214.29
197.81
180.55
165.63
154.11
145.01
136.73
128.23
118.91
108.78
99.29
92.08
88.01
86.64
86.53
86.10
84.39
81.24
76.96
72.73
69.92
69.73
73.10
80.30
90.13
99.80
104.65
99.84
83.16
56.58
26.05
-0.87
-17.66
-23.54
-21.13
-15.79
-12.78
-15.13
-23.13
-35.42
-50.21
-66.62
-84.77
-104.66
-126.22
-148.60
-170.35
-189.51
-204.17
-212.46
-213.16
-205.88
-190.90
-169.53
-143.73
-115.99
-89.52
-67.97
-54.68
-51.91
-59.37
-71.73
-83.07
-87.52
-82.02
-68.21
-51.26
-37.16
-29.72
-28.65
-30.74
-30.77
-25.16
-13.09
3.74
22.71
41.46
58.24
71.58
78.86
78.03
67.62
47.23
17.86
-17.69
-55.42
-91.04
-121.37
-144.04
-157.37
-160.79
-154.68
-139.73
-116.64
-86.14
-49.49
-8.77
32.21
70.07
102.09
126.37
142.22
150.13
151.41
147.68
140.65
131.81
122.45
113.27
104.46
96.11
88.29
81.03
74.19
67.68
61.49
55.74
50.49
45.59
41.10
37.02
33.25
29.73
26.40
23.26
20.45
18.16
16.45
15.64
15.96
17.44
19.98
23.30
26.97
30.40
34.05
36.59
37.59
36.92
34.64
30.94
26.06
20.31
14.08
7.91
2.34
-1.82
-3.91
-3.86
-2.07
0.78
3.84
6.38
7.92
8.50
8.80
9.74
11.98
15.81
21.15
27.65
34.95
42.71
50.72
58.85
66.85
74.04
80.40
87.07
95.90
107.84
121.84
134.20
139.75
134.17
115.15
85.02
50.18
18.66
-3.29
-12.29
-7.62
9.95
38.74
73.19
106.74
132.89
147.39
145.77
126.34
91.69
48.02
2.81
-41.90
-85.74
-128.19
-167.60
-202.61
-232.74
-258.58
-281.54
-303.36
-331.06
-368.92
-415.94
-466.27
-513.31
-552.76
-583.42
-606.31
-589.07
-516.51
-397.92
-261.46
-132.62
-22.60
68.09
142.45
202.85
250.39
280.59
292.15
289.70
281.09
272.92
267.44
262.24
252.61
234.10
199.85
150.57
92.32
33.85
-16.16
-50.68
-64.66
-55.99
-27.63
8.64
37.36
45.25
27.87
-7.77
-46.06
-69.71
-67.80
-40.59
0.40
40.06
67.28
79.48
81.29
79.82
79.56
80.70
80.56
76.13
67.40
57.29
49.86
47.23
48.08
48.41
44.14
33.48
18.19
2.44
-9.58
-15.74
-16.85
-15.71
-15.76
-19.39
-27.18
-38.13
-50.39
-61.89
-70.71
-76.01
-76.33
-71.52
-62.52
-51.05
-39.25
-28.82
-20.53
-13.99
-8.10
-1.63
5.91
14.21
22.38
29.44
34.77
38.22
40.04
40.41
39.45
37.01
33.09
28.08
22.72
18.10
15.17
14.47
15.80
18.32
20.53
20.93
18.33
12.07
2.36
-9.75
-22.36
-33.23
-40.15
-41.53
-36.68
-26.10
-11.76
3.65
17.67
29.10
37.91
44.77
50.35
55.03
58.88
61.42
62.49
62.28
62.27
64.28
69.47
77.76
87.58
96.09
98.74
90.62
68.41
31.99
-15.27
-67.94
-119.70
-165.21
-195.84
-205.04
-191.52
-159.99
-118.09
-72.47
-28.05
12.44
47.56
77.07
100.92
119.51
133.97
146.16
157.70
167.97
176.76
182.14
182.76
177.49
165.93
148.59
126.94
103.05
77.26
50.08
22.10
-5.51
-32.14
-58.24
-85.82
-118.52
-149.48
-175.21
-193.58
-204.38
-208.30
-206.68
-200.74
-191.82
-181.20
-169.80
-159.62
-152.05
-147.96
-147.10
-148.03
-147.73
-141.91
-125.99
-97.05
-56.93
-11.13
32.62
67.92
91.45
103.63
107.24
105.66
101.14
93.90
84.12
72.56
61.82
54.84
53.57
57.62
63.79
66.56
59.21
37.20
-0.58
-48.34
-96.37
-134.01
-153.44
-152.11
-132.64
-100.97
-60.92
-17.89
25.78
68.87
108.96
142.54
164.63
170.95
159.61
131.62
89.97
40.39
-10.31
-54.26
-84.97
-99.20
-97.97
-86.43
-71.89
-61.38
-58.21
-62.20
-70.61
-80.55
-90.27
-99.28
-107.38
-113.41
-116.17
-112.61
-101.11
-82.40
-59.49
-36.21
-16.00
-0.58
10.44
18.59
25.98
34.04
43.38
53.87
65.32
77.75
91.30
106.59
123.26
139.72
153.02
159.73
157.06
143.94
121.24
91.25
58.01
25.15
-4.85
-30.75
-52.15
-68.57
-79.06
-82.33
-77.23
-61.69
-34.38
4.58
52.87
105.58
155.79
196.13
221.08
221.25
195.42
150.22
97.94
51.27
18.38
0.90
-4.59
-3.13
1.47
8.29
17.32
27.81
37.67
44.50
47.14
45.96
42.82
40.23
40.69
45.48
54.24
65.10
75.94
85.61
93.60
100.11
106.52
112.41
116.52
116.78
110.65
96.28
73.68
43.87
9.06
-27.21
-62.06
-93.56
-120.74
-143.51
-164.05
-180.42
-190.13
-190.61
-180.10
-158.61
-127.72
-90.23
-50.21
-11.13
24.98
56.48
82.42
101.96
113.78
116.25
108.08
87.67
54.71
10.52
-42.58
-99.77
-153.99
-197.87
-226.46
-233.22
-220.95
-199.07
-179.54
-172.57
-181.07
-200.39
-221.40
-235.26
-237.16
-228.02
-211.35
-190.63
-169.18
-148.35
-129.08
-112.20
-97.90
-84.95
-71.65
-55.81
-31.96
-2.00
26.48
43.32
42.17
23.58
-6.73
-41.93
-76.20
-105.83
-132.49
-154.25
-167.45
-168.16
-153.94
-124.60
-81.96
-28.53
34.01
100.01
164.00
221.24
268.52
304.13
327.41
338.66
338.96
330.03
313.45
291.95
268.23
244.63
222.94
204.10
188.52
175.68
164.37
152.97
141.07
129.54
120.17
114.09
110.33
105.45
94.30
72.92
40.52
0.59
-40.80
-77.45
-104.71
-119.85
-121.08
-107.66
-79.84
-39.75
6.65
50.37
81.41
92.20
78.75
46.70
5.95
-32.21
-58.78
-69.88
-67.01
-55.64
-42.89
-34.83
-34.60
-42.37
-55.09
-67.87
-75.94
-76.15
-68.60
-56.78
-45.63
-39.12
-38.81
-43.69
-51.09
-58.74
-65.84
-72.89
-80.78
-89.37
-97.17
-102.06
-102.70
-98.48
-90.11
-78.75
-65.63
-50.85
-33.13
-10.20
19.75
55.81
93.62
125.77
144.29
144.10
125.27
93.99
57.12
21.67
-7.74
-29.17
-42.50
-48.38
-47.90
-43.33
-38.60
-38.34
-45.33
-58.74
-74.18
-85.82
-89.25
-83.51
-70.78
-54.52
-37.14
-18.32
3.45
29.32
58.59
88.38
114.89
134.90
146.09
146.82
135.80
112.87
80.61
45.55
17.36
5.21
12.78
35.29
61.01
76.36
73.26
52.88
24.28
-1.01
-15.43
-19.04
-18.10
-19.75
-26.69
-35.45
-37.90
-27.16
-2.12
30.88
60.33
74.56
68.08
43.28
8.88
-24.15
-47.87
-59.68
-61.91
-59.06
-54.86
-51.08
-48.16
-46.09
-44.90
-44.56
-44.11
-41.84
-36.00
-26.00
-12.95
0.29
10.78
16.38
16.81
14.00
11.24
11.62
16.63
25.39
34.99
42.02
44.25
41.65
36.13
30.03
24.69
19.90
14.69
8.65
2.86
-0.39
0.92
7.14
16.30
25.09
30.42
30.74
26.81
21.13
16.70
15.78
19.34
26.59
35.13
41.23
40.29
28.51
4.52
-29.49
-67.78
-102.61
-126.91
-136.72
-132.39
-117.88
-98.32
-77.73
-58.20
-40.22
-24.09
-10.66
-1.14
3.47
3.19
-0.63
-5.96
-11.13
-15.45
-19.71
-25.67
-34.67
-47.00
-61.40
-75.14
-84.69
-87.04
-80.39
-64.03
-41.00
-15.11
10.02
31.49
47.46
57.80
62.77
62.54
56.55
43.09
20.03
-14.35
-59.35
-110.69
-159.96
-196.44
-210.93
-199.01
-162.97
-110.13
-50.28
7.29
54.84
85.78
96.73
88.02
64.59
35.94
14.38
10.11
26.76
59.48
97.66
130.28
150.50
157.57
155.05
148.14
140.34
132.93
125.96
120.00
116.58
116.74
121.47
127.63
131.78
131.03
123.85
110.74
93.71
76.04
61.15
51.44
46.90
45.06
41.26
30.61
10.51
-17.82
-48.77
-74.56
-88.58
-88.49
-76.67
-58.99
-41.97
-30.44
-27.05
-31.47
-41.71
-55.10
-69.16
-81.65
-90.95
-96.14
-97.50
-97.21
-97.42
-99.88
-105.74
-115.60
-128.74
-142.50
-152.13
-145.26
-116.45
-67.98
-10.27
42.10
76.50
87.89
80.66
65.54
53.55
50.06
54.48
62.08
68.19
70.99
71.95
73.99
79.55
87.19
92.96
92.90
84.43
67.27
43.18
14.51
-16.65
-48.30
-79.02
-106.63
-126.99
-135.04
-127.19
-103.75
-69.69
-33.03
-1.78
18.94
28.34
29.25
25.79
21.23
17.17
13.86
11.52
10.46
11.07
13.28
16.39
19.26
20.95
21.13
20.30
19.51
19.67
21.14
23.62
26.40
28.75
30.35
31.42
32.60
34.46
37.15
40.27
43.23
45.43
46.70
47.24
47.52
48.11
49.70
53.10
58.83
66.27
72.96
74.74
67.13
47.46
16.75
-20.12
-55.98
-84.16
-101.02
-106.92
-105.15
-99.98
-94.70
-90.98
-89.20
-89.22
-90.90
-93.97
-97.98
-101.99
-105.10
-106.92
-107.75
-108.68
-111.19
-116.69
-125.80
-137.44
-148.25
-153.47
-147.09
-125.14
-87.95
-40.37
9.56
53.83
87.41
109.97
124.94
136.85
148.01
157.12
160.51
154.75
139.25
116.86
92.52
70.93
54.88
44.72
39.35
37.83
39.79
44.93
51.96
58.21
60.23
55.47
43.42
26.00
6.97
-9.64
-20.97
-25.56
-23.57
-16.47
-6.95
1.39
4.54
-0.16
-13.19
-32.56
-54.39
-74.51
-90.02
-100.15
-106.11
-110.44
-114.76
-119.26
-122.90
-124.11
-121.83
-115.83
-106.59
-92.62
-74.77
-53.66
-29.72
-3.34
24.58
52.18
76.91
96.18
108.26
112.49
110.62
105.71
100.95
98.63
98.97
100.27
99.69
95.54
84.69
65.81
39.37
7.96
-23.65
-49.65
-64.82
-66.60
-56.44
-40.13
-24.86
-17.55
-21.90
-36.62
-57.56
-80.62
-103.83
-127.21
-151.85
-176.48
-197.01
-207.85
-203.84
-183.02
-146.72
-98.93
-45.46
6.75
50.85
81.38
95.92
97.21
91.82
87.84
91.78
105.97
127.85
152.94
178.43
199.36
215.31
227.03
234.43
235.41
226.54
204.68
170.17
127.71
84.86
50.72
32.34
33.20
52.48
85.27
122.77
151.14
159.17
142.99
109.38
71.25
40.69
23.12
19.36
20.57
18.44
8.33
-10.89
-38.65
-75.30
-122.91
-180.37
-239.55
-288.93
-318.16
-323.97
-310.77
-288.05
-266.29
-251.66
-245.16
-244.42
-248.92
-255.78
-261.93
-262.18
-250.19
-221.03
-172.21
-106.95
-35.32
29.18
76.17
99.89
105.71
106.44
115.75
143.92
192.68
255.03
319.42
375.19
414.47
435.38
438.52
413.45
356.94
275.77
185.35
102.96
46.30
12.59
-7.00
-22.89
-44.03
-76.20
-118.28
-164.19
-204.83
-231.31
-239.11
-226.65
-196.50
-152.97
-97.89
-32.78
37.44
103.01
150.77
168.89
154.02
112.14
56.20
1.76
-39.68
-64.75
-77.08
-83.15
-87.22
-87.59
-78.64
-55.46
-17.32
30.33
77.71
115.17
137.59
145.86
145.74
143.15
140.37
135.08
122.49
99.20
66.21
29.51
-2.72
-24.06
-33.04
-33.13
-31.12
-31.79
-35.77
-39.48
-37.70
-27.26
-9.86
8.72
20.97
21.59
10.32
-8.47
-27.76
-41.68
-48.70
-51.94
-57.34
-69.45
-88.93
-111.67
-130.68
-139.05
-132.89
-113.40
-85.86
-56.52
-30.39
-9.73
5.38
15.19
18.76
13.83
-3.05
-33.64
-76.44
-126.04
-173.85
-209.94
-225.75
-219.56
-192.17
-150.73
-105.78
-67.58
-42.10
-28.67
-21.03
-10.07
11.26
45.10
86.95
128.68
162.44
183.87
193.36
194.37
191.64
188.82
187.97
189.44
193.00
197.51
200.05
198.09
185.05
156.87
113.21
59.26
4.52
-39.68
-64.38
-66.72
-51.24
-28.25
-8.65
0.14
-2.89
-13.30
-24.00
-29.69
-29.41
-26.36
-26.13
-33.17
-49.47
-73.30
-101.18
-127.71
-146.92
-153.49
-144.41
-121.03
-88.41
-54.04
-24.93
-5.02
5.97
11.14
13.97
16.23
17.21
15.42
9.98
1.80
-6.81
-13.26
-15.87
-14.33
-8.95
-1.15
8.35
18.12
25.41
26.45
17.87
-1.16
-27.09
-52.63
-69.75
-73.23
-63.71
-47.65
-34.29
-31.40
-41.05
-58.28
-73.36
-76.53
-62.06
-30.24
13.12
59.15
98.40
123.74
132.02
124.31
104.64
78.79
52.93
31.97
18.65
12.25
9.84
7.46
1.47
-10.37
-27.33
-45.86
-61.24
-68.07
-64.55
-53.89
-44.90
-41.20
-42.33
-45.15
-45.61
-39.79
-24.88
-3.15
21.11
41.53
52.15
48.37
28.48
-6.24
-52.58
-106.64
-164.27
-219.71
-265.21
-291.60
-291.78
-263.85
-212.52
-147.90
-81.67
-22.99
24.54
62.61
95.89
128.61
163.00
199.58
238.47
279.91
323.39
366.34
403.07
425.71
426.26
400.12
348.44
278.15
199.47
122.21
52.90
-6.43
-57.26
-102.64
-145.60
-188.59
-233.89
-283.80
-339.87
-401.15
-462.93
-517.05
-554.17
-567.13
-553.96
-518.52
-468.70
-413.12
-358.10
-306.43
-258.19
-212.53
-169.02
-127.99
-89.57
-52.97
-16.25
22.75
65.12
110.32
156.52
201.33
243.19
282.02
318.97
355.85
394.44
435.96
480.88
528.21
574.76
614.66
640.01
642.74
617.33
563.14
485.09
392.30
295.37
203.70
123.78
59.36
12.12
-17.62
-30.79
-30.11
-20.73
-10.02
-6.21
-15.76
-40.84
-78.00
-118.67
-152.32
-170.36
-169.26
-151.39
-122.88
-89.91
-55.55
-18.72
23.82
74.25
131.02
188.63
239.55
277.24
298.23
302.32
291.72
269.43
238.10
199.76
156.35
110.13
63.58
18.68
-23.74
-63.92
-102.69
-141.01
-179.43
-218.05
-256.77
-295.23
-333.23
-371.21
-409.95
-450.65
-494.55
-541.76
-589.78
-633.12
-663.73
-674.24
-661.44
-626.61
-575.20
-515.05
-453.54
-395.39
-342.16
-292.16
-243.43
-195.96
-149.07
-101.07
-50.22
4.71
63.73
125.34
188.43
250.57
306.89
354.95
395.11
428.77
458.14
485.60
512.50
540.01
565.06
578.19
571.38
541.39
489.99
424.37
355.30
280.05
202.63
145.70
113.22
96.11
87.69
81.84
72.79
54.87
22.95
-24.00
-84.68
-157.04
-233.44
-302.20
-353.17
-380.29
-382.93
-365.30
-332.47
-290.03
-244.47
-198.61
-152.48
-106.19
-60.60
-16.74
24.94
66.28
109.97
157.44
210.60
270.90
336.96
404.28
465.64
512.15
536.32
534.30
506.70
459.46
401.44
340.25
280.76
225.45
174.58
128.22
87.38
52.95
24.78
0.48
-25.31
-57.59
-97.55
-143.85
-193.15
-240.35
-281.31
-314.38
-340.97
-366.40
-395.82
-430.89
-472.46
-519.79
-568.39
-610.64
-637.55
-641.45
-621.01
-579.26
-520.58
-452.98
-384.88
-319.68
-255.75
-188.59
-102.55
2.89
100.73
175.19
220.47
231.96
211.67
167.89
113.32
61.88
23.32
4.23
9.30
36.60
77.99
124.56
168.36
204.32
230.85
248.19
259.50
268.23
279.43
290.31
295.57
288.95
265.81
225.27
169.83
105.88
41.90
-16.06
-66.75
-111.29
-152.21
-192.33
-234.23
-280.10
-330.22
-381.46
-427.77
-462.08
-477.43
-469.99
-440.66
-394.61
-339.40
-281.96
-226.77
-175.79
-129.88
-89.02
-52.79
-20.15
10.74
42.26
76.37
113.73
153.38
193.12
230.47
263.90
293.29
319.85
345.58
372.75
403.42
438.94
479.15
521.50
560.70
589.19
599.03
584.44
544.09
481.87
405.64
324.53
245.97
174.07
109.59
51.36
-1.98
-50.90
-95.54
-136.94
-177.53
-220.42
-267.14
-315.57
-359.31
-389.68
-399.35
-385.91
-352.67
-306.66
-255.19
-203.48
-154.89
-113.24
-84.89
-77.70
-97.74
-144.45
-208.01
-271.36
-316.20
-330.04
-310.35
-264.09
-202.91
-139.21
-82.92
-40.34
-14.23
-4.06
-6.32
-15.06
-23.31
-23.49
-12.14
8.97
34.49
59.16
81.13
102.25
126.29
155.73
192.93
236.15
280.90
322.38
357.82
387.43
413.22
437.62
462.22
490.76
523.61
556.64
582.04
591.62
580.46
548.68
501.50
424.42
316.23
187.51
56.89
-58.49
-149.29
-213.28
-252.38
-270.23
-271.98
-260.52
-240.24
-216.56
-194.57
-177.25
-163.52
-152.24
-142.76
-135.85
-131.12
-130.03
-135.22
-149.43
-173.98
-206.57
-243.73
-281.11
-313.55
-333.50
-334.60
-314.26
-275.51
-226.20
-176.68
-136.69
-111.61
-101.73
-102.49
-108.28
-115.01
-121.66
-127.42
-131.00
-130.38
-123.05
-107.21
-82.41
-50.17
-13.31
24.11
58.49
87.71
110.98
128.49
140.80
148.52
152.13
151.99
148.57
142.73
135.41
127.34
119.14
111.26
104.12
98.14
93.48
90.15
87.94
86.26
84.28
81.46
77.60
73.12
68.77
65.25
63.08
62.71
64.60
68.83
74.38
78.47
76.93
65.69
43.01
11.09
-24.21
-55.46
-76.78
-86.16
-85.56
-79.23
-71.32
-63.95
-57.21
-50.17
-42.16
-33.38
-24.67
-16.40
-8.27
0.42
10.11
20.54
30.34
37.62
40.71
38.64
31.54
20.37
6.41
-9.07
-25.19
-41.47
-57.40
-72.20
-84.80
-94.28
-100.02
-102.49
-102.24
-100.52
-98.75
-98.22
-100.04
-104.57
-110.69
-115.44
-114.53
-103.73
-81.41
-49.81
-14.65
16.93
39.32
50.55
52.55
49.39
44.98
41.27
38.15
34.73
30.53
26.21
23.03
21.92
22.70
24.26
25.08
23.93
20.65
16.00
11.31
7.79
6.04
5.81
6.24
6.21
4.90
2.12
-1.70
-5.74
-9.17
-11.50
-12.81
-13.66
-14.94
-17.67
-22.53
-29.69
-38.82
-49.06
-59.19
-67.95
-74.25
-77.23
-76.47
-71.86
-63.45
-51.26
-35.27
-15.53
7.33
32.14
57.12
80.08
98.89
112.18
119.62
122.05
121.47
119.40
117.45
116.90
118.40
