1603693197.00
64.000000
-0.00
-0.00
-0.00
-0.00
-0.00
-0.00
-0.00
-0.00
-0.00
-0.00
0.00
0.01
0.01
-0.00
-0.03
-0.05
-0.05
0.00
0.13
0.36
0.66
1.01
1.37
1.72
2.06
2.40
2.79
3.24
3.80
4.42
5.06
5.66
6.20
6.68
7.15
7.68
8.31
9.14
10.09
11.04
11.88
12.56
13.14
13.76
14.65
15.96
17.91
20.32
22.90
25.38
27.58
29.57
31.68
34.32
37.81
42.54
48.15
54.10
59.83
64.97
69.58
74.14
79.34
85.71
93.76
103.00
112.62
121.73
129.77
136.75
143.30
150.75
157.77
166.64
177.95
191.79
206.97
220.57
228.25
225.36
208.53
176.87
132.76
80.05
23.07
-34.94
-92.44
-149.16
-205.23
-260.37
-313.74
-363.87
-409.83
-450.91
-486.50
-515.74
-537.23
-549.22
-549.96
-538.37
-514.21
-478.67
-433.88
-382.44
-326.99
-269.79
-212.56
-156.55
-102.79
-52.16
-5.63
35.93
71.85
101.85
126.08
145.04
159.44
169.97
177.27
181.72
183.61
183.17
180.68
176.48
170.99
164.60
157.68
150.47
143.10
135.67
128.20
120.74
113.36
106.12
99.10
92.36
85.91
79.78
73.97
68.49
63.37
58.63
54.27
50.29
46.67
43.35
40.28
37.44
34.86
32.58
30.68
29.19
28.12
27.41
26.97
26.72
26.62
26.69
26.98
27.56
28.45
29.57
30.70
31.55
31.75
31.00
29.08
25.96
21.63
16.16
9.48
1.45
-8.03
-18.92
-30.90
-43.26
-54.99
-64.99
-72.41
-76.91
-78.78
-78.75
-77.68
-76.16
-74.30
-71.74
-68.00
-62.90
-56.97
-51.50
-48.08
-48.14
-52.23
-59.80
-69.27
-78.90
-87.28
-93.98
-99.62
-105.22
-112.01
-121.12
-133.44
-149.21
-167.26
-184.33
-195.20
-194.12
-176.91
-143.65
-99.30
-52.20
-10.95
18.74
35.57
42.03
42.07
39.34
35.50
30.72
24.95
18.84
13.74
10.99
10.87
12.28
13.90
14.04
11.82
7.50
2.39
-1.76
-3.26
-0.87
2.13
3.78
2.62
-1.84
-9.18
-18.17
-27.34
-35.23
-41.04
-44.75
-46.37
-46.41
-45.42
-43.80
-41.72
-39.23
-35.78
-30.96
-24.71
-16.79
-7.32
3.53
15.68
29.09
43.68
60.39
79.76
101.76
126.38
153.56
183.55
216.52
251.72
286.66
319.04
345.80
364.43
374.60
378.60
380.83
386.20
398.79
420.96
455.80
504.30
564.44
630.51
693.47
743.18
771.41
774.70
740.38
666.28
558.26
428.29
290.60
157.77
38.76
-61.29
-140.23
-198.57
-236.41
-255.75
-260.06
-253.60
-241.15
-226.08
-210.19
-194.33
-179.35
-164.19
-148.22
-131.53
-114.92
-99.65
-86.91
-77.94
-71.21
-66.25
-61.81
-57.16
-52.10
-46.91
-42.06
-37.83
-34.26
-31.18
-28.81
-26.75
-24.75
-22.71
-20.74
-19.00
-17.53
-16.26
-15.02
-13.94
-12.91
-11.83
-10.68
-9.51
-8.37
-7.31
-6.31
-5.32
-4.45
-3.76
-3.25
-2.91
-2.72
-2.64
-2.61
-2.59
-2.52
-2.46
-2.45
-2.54
-2.77
-3.15
-3.70
-4.37
-5.12
-5.89
-6.70
-7.56
-8.50
-9.58
-10.82
-12.20
-13.68
-15.17
-16.60
-17.93
-19.19
-20.48
-21.91
-23.57
-25.45
-27.45
-29.41
-31.17
-32.67
-34.01
-35.41
-37.18
-39.50
-42.38
-45.58
-48.75
-51.51
-53.73
-55.64
-57.76
-60.73
-65.02
-70.71
-77.36
-84.27
-90.72
-96.40
-101.65
-107.33
-114.57
-124.15
-136.19
-150.00
-164.39
-178.15
-190.61
-202.02
-213.41
-226.34
-242.46
-263.04
-288.37
-317.32
-347.13
-373.63
-392.32
-399.84
-395.31
-380.63
-359.79
-337.34
-316.63
-298.83
-283.01
-267.15
-249.48
-229.43
-207.97
-187.27
-169.66
-156.61
-148.02
-142.05
-135.79
-126.27
-111.65
-92.01
-69.24
-46.32
-26.24
-10.88
-0.75
4.97
8.04
10.51
14.00
19.23
25.83
32.61
38.11
41.18
41.25
38.26
32.56
25.06
17.41
12.12
11.91
18.96
33.87
54.92
78.24
98.71
111.66
114.43
107.27
93.12
76.62
62.17
52.39
47.60
46.25
46.42
47.06
48.35
50.92
54.72
58.28
59.14
55.25
46.15
33.39
19.71
7.72
-1.08
-6.36
-8.37
-7.34
-3.06
4.63
15.45
28.37
41.71
53.43
61.98
66.63
67.74
66.69
64.89
63.31
61.98
60.23
57.35
53.38
48.96
44.99
41.95
39.39
36.47
32.62
28.25
24.60
23.10
24.24
27.25
30.47
32.19
31.59
29.01
25.46
22.06
19.54
18.13
17.79
18.36
19.64
21.63
24.44
28.28
33.37
39.52
46.14
52.32
57.44
61.45
65.29
70.64
79.52
93.83
114.48
141.05
171.67
203.61
234.05
261.33
285.54
308.23
331.27
355.08
377.66
394.96
402.55
397.75
381.05
355.82
326.79
297.88
270.96
245.91
221.58
197.02
172.29
148.32
126.27
106.61
88.77
71.37
52.90
32.48
10.26
-12.72
-35.29
-56.86
-77.67
-98.29
-118.75
-137.83
-153.14
-162.16
-163.56
-158.15
-148.83
-139.60
-134.25
-135.46
-144.80
-162.94
-189.51
-222.07
-255.29
-281.81
-293.57
-284.80
-254.55
-207.60
-152.79
-99.78
-55.93
-24.47
-5.23
4.38
7.86
8.67
9.48
11.85
15.98
20.81
24.47
23.93
17.16
3.68
-15.60
-39.30
-66.62
-97.77
-133.52
-173.84
-219.88
-269.17
-315.02
-347.57
-357.65
-341.31
-302.26
-250.78
-199.89
-167.59
-165.56
-195.95
-251.63
-320.91
-392.93
-460.74
-521.02
-572.10
-623.75
-684.38
-757.81
-841.45
-929.12
-1014.40
-1093.02
-1162.27
-1219.74
-1277.42
-1345.73
-1429.10
-1523.18
-1618.40
-1705.24
-1778.72
-1838.27
-1796.00
-1595.93
-1227.03
-736.07
-203.19
297.63
721.91
1052.46
1289.64
1444.83
1521.09
1526.15
1473.71
1388.32
1289.79
1192.89
1105.89
1032.07
973.10
917.98
856.43
783.11
700.43
615.81
538.73
477.04
429.44
395.58
367.21
336.60
299.20
255.49
209.30
165.79
128.83
100.23
81.21
68.23
57.41
46.09
33.92
22.00
12.16
5.69
2.88
4.06
7.64
11.81
15.32
17.75
19.29
20.60
22.17
24.14
26.90
30.43
34.55
38.96
43.36
47.46
51.11
54.23
56.84
59.13
61.24
63.29
65.33
67.43
69.62
71.87
74.18
76.51
78.83
81.10
83.24
85.10
86.58
87.51
87.79
87.28
85.86
83.50
80.15
75.80
70.52
64.37
57.46
49.89
41.82
33.41
24.79
16.12
7.58
-0.68
-8.53
-15.79
-22.36
-28.12
-32.98
-36.89
-39.77
-41.65
-42.61
-42.75
-42.21
-41.18
-39.77
-38.08
-36.16
-34.04
-31.75
-29.30
-26.71
-24.08
-21.41
-18.75
-16.11
-13.46
-10.77
-8.04
-5.33
-2.70
-0.25
1.99
4.03
6.06
8.31
11.00
14.26
18.05
22.11
26.10
29.71
32.82
35.57
38.33
41.56
45.58
50.44
55.90
61.57
67.13
72.56
78.23
84.81
93.00
103.17
115.25
128.71
142.78
156.86
170.72
184.64
199.21
215.11
233.21
254.20
278.43
305.68
334.41
361.63
383.44
395.98
397.00
386.61
367.21
342.68
316.51
290.68
265.67
241.06
216.69
193.46
172.82
156.07
143.22
132.84
122.88
111.51
97.94
82.85
67.72
54.14
43.05
34.60
28.41
23.74
19.86
16.16
11.76
5.86
-2.17
-12.44
-24.19
-35.88
-45.52
-51.21
-52.11
-48.63
-42.41
-36.08
-32.09
-31.75
-34.83
-39.43
-42.39
-40.81
-33.10
-20.05
-4.44
10.16
20.45
24.76
23.64
19.61
15.88
14.80
17.46
23.66
32.07
40.80
47.91
51.55
51.45
48.29
43.47
38.87
36.18
36.54
40.04
45.45
50.86
57.11
65.16
75.85
89.17
104.20
119.77
134.29
146.42
155.49
166.89
185.61
213.96
249.91
288.59
324.71
354.23
374.71
384.81
392.30
403.91
422.97
448.74
478.85
511.31
544.71
577.16
605.83
638.09
679.40
730.86
787.74
842.68
889.82
926.90
954.99
910.66
760.40
506.51
189.57
-135.02
-423.74
-656.07
-830.04
-952.94
-1034.95
-1075.48
-1075.55
-1039.18
-980.53
-915.69
-857.85
-814.17
-785.67
-769.56
-753.29
-726.83
-686.40
-635.63
-581.50
-530.69
-487.09
-452.22
-426.56
-404.87
-382.71
-357.70
-330.23
-301.90
-274.27
-248.69
-226.30
-208.10
-192.43
-177.37
-161.35
-143.92
-125.09
-105.17
-85.00
-65.87
-49.71
-37.29
-28.62
-23.12
-19.91
-17.95
-16.58
-15.61
-15.02
-14.77
-14.28
-12.44
-7.88
0.40
12.20
25.93
39.01
48.84
53.97
54.67
52.90
51.08
50.72
51.75
52.59
51.14
46.26
38.38
29.31
21.31
15.76
12.88
11.95
11.73
11.34
10.60
9.35
7.24
3.36
-3.60
-14.40
-28.50
-43.78
-57.28
-66.57
-71.07
-72.37
-73.54
-77.50
-85.40
-96.15
-107.27
-116.24
-121.68
-123.94
-125.09
-128.06
-135.54
-148.85
-167.08
-187.26
-205.19
-217.13
-221.29
-218.18
-210.00
-199.27
-187.13
-172.90
-155.07
-132.59
-105.90
-76.75
-46.94
-17.54
11.17
38.75
64.09
85.08
99.68
107.24
109.42
109.92
112.66
119.83
131.03
144.97
159.92
174.67
188.76
202.05
214.12
224.21
231.50
235.49
238.08
241.41
247.12
255.61
266.15
277.79
289.75
301.65
313.38
327.51
347.03
374.20
408.96
447.97
484.83
511.91
522.93
501.17
439.28
340.47
218.56
92.24
-22.85
-118.82
-194.62
-252.52
-295.15
-322.27
-333.99
-332.08
-320.42
-304.06
-287.47
-273.30
-262.06
-252.98
-243.29
-230.85
-215.07
-197.04
-178.96
-162.92
-149.95
-139.89
-131.93
-124.10
-114.93
-103.97
-91.84
-79.82
-69.13
-60.37
-53.45
-47.90
-42.71
-37.07
-30.74
-23.95
-17.28
-11.27
-6.19
-2.01
1.47
4.61
7.71
10.78
13.68
16.12
17.88
18.78
18.83
18.11
16.56
14.47
12.03
9.43
6.84
4.44
2.37
0.73
-0.40
-1.00
-1.02
-0.55
0.33
1.54
3.04
4.76
6.68
8.77
11.05
13.58
16.22
18.91
21.62
24.39
27.26
30.33
33.74
37.66
42.37
47.69
53.59
60.01
66.95
74.31
82.04
90.03
98.24
106.72
114.99
122.80
130.09
136.90
143.30
149.40
155.25
160.95
166.73
171.97
176.36
179.70
181.75
182.16
180.23
174.75
163.59
149.95
134.68
118.44
101.97
85.94
70.97
57.43
45.36
34.67
25.29
16.57
8.46
1.44
-3.79
-6.66
-7.13
-5.82
-3.85
-2.35
-2.67
-5.11
-9.04
-13.34
-17.08
-20.17
-23.60
-29.09
-38.33
-52.50
-71.16
-92.48
-113.99
-133.54
-150.24
-164.67
-178.47
-193.68
-212.43
-236.31
-265.83
-299.51
-332.93
-358.76
-368.31
-354.62
-315.65
-255.89
-185.02
-114.30
-52.57
-3.72
33.14
61.38
84.13
102.59
116.27
124.25
126.47
123.98
118.43
111.10
102.52
92.63
81.27
68.95
56.97
47.10
40.82
38.35
38.24
37.57
32.85
21.43
2.55
-22.74
-52.13
-83.34
-115.17
-147.90
-183.01
-222.72
-269.28
-324.18
-387.01
-454.45
-519.97
-575.04
-611.50
-624.37
-613.58
-583.62
-541.31
-493.09
-443.03
-392.76
-342.77
-293.80
-247.33
-204.89
-166.86
-131.84
-97.12
-59.98
-18.87
25.90
72.26
116.70
155.42
185.49
206.22
219.71
230.31
242.83
260.15
281.58
302.92
318.29
322.75
314.33
294.50
266.98
235.96
204.64
174.74
146.95
121.53
98.71
78.86
62.57
50.44
42.82
39.29
38.48
38.17
36.09
30.92
23.32
15.89
12.35
15.90
27.76
46.49
68.51
89.28
104.54
111.76
110.77
103.66
94.09
86.16
83.32
87.25
97.32
110.03
120.53
124.24
118.17
101.39
74.92
41.30
3.87
-33.95
-70.64
-105.18
-136.39
-162.41
-181.38
-192.05
-193.99
-187.59
-174.07
-157.46
-141.51
-127.81
-115.15
-100.77
-82.45
-59.73
-34.43
-10.05
6.49
9.99
-0.43
-20.99
-45.84
-69.95
-90.50
-106.73
-102.77
-70.39
-13.22
54.17
116.43
165.32
199.52
221.31
233.73
238.88
235.23
220.07
192.12
152.59
104.37
51.11
-3.06
-53.95
-91.71
-110.70
-108.25
-85.09
-45.25
4.33
55.31
100.37
134.94
157.56
166.68
161.67
143.11
113.18
75.62
35.47
-1.54
-30.00
-46.25
-50.78
-47.01
-39.63
-32.67
-28.30
-26.62
-26.29
-25.50
-23.07
-19.44
-15.81
-13.26
-12.02
-11.43
-10.32
-7.69
-3.26
2.17
7.00
9.60
9.23
6.33
2.22
-1.66
-4.47
-6.02
-6.30
-4.89
-0.75
7.37
20.06
36.54
54.67
71.30
83.43
88.97
87.21
78.79
65.50
50.08
35.58
24.52
17.53
13.25
9.24
3.52
-4.07
-11.48
-15.30
-12.38
-1.43
15.78
35.56
54.43
70.69
84.52
96.78
107.85
116.96
122.59
122.07
113.13
95.93
73.70
51.70
35.28
29.13
36.77
60.08
96.69
140.11
182.48
217.06
239.26
247.20
242.10
227.68
208.57
185.77
156.34
117.18
67.75
9.73
-54.53
-123.19
-195.37
-253.07
-278.00
-264.66
-223.79
-171.47
-118.01
-66.40
-15.92
34.86
78.35
114.72
142.20
160.16
171.05
178.93
186.76
195.06
201.55
210.42
220.20
226.89
228.23
225.10
220.12
215.44
211.75
208.48
204.52
197.35
184.09
163.95
138.70
111.25
83.76
56.70
28.89
-1.72
-38.04
-82.61
-135.91
-196.39
-261.30
-328.07
-395.04
-461.43
-526.99
-592.47
-659.13
-727.95
-798.55
-868.24
-931.49
-980.61
-1007.86
-1008.34
-982.36
-935.42
-876.12
-812.90
-751.36
-693.41
-638.35
-584.85
-532.44
-481.62
-432.83
-385.33
-337.03
-285.42
-228.90
-167.85
-104.55
-42.46
15.41
67.70
115.07
159.71
204.07
249.46
295.31
339.37
378.78
411.37
436.76
456.44
473.05
489.50
508.24
530.93
558.21
589.21
620.89
647.86
663.09
659.82
633.85
585.22
518.16
439.50
356.31
274.01
195.67
122.59
55.28
-5.50
-59.47
-107.69
-153.42
-200.66
-253.21
-312.64
-376.98
-439.85
-491.21
-521.14
-523.73
-499.97
-456.46
-403.10
-349.26
-300.97
-259.87
-223.32
-188.45
-154.49
-124.20
-99.54
-80.93
-66.76
-54.53
-41.94
-24.46
-0.19
29.00
55.75
77.03
92.91
105.98
118.57
132.34
154.71
189.53
234.73
277.26
312.00
338.66
360.67
380.31
398.98
428.08
474.33
535.71
592.75
638.19
671.49
697.31
718.04
734.77
761.66
807.04
868.01
918.95
949.99
960.09
955.23
939.08
826.15
578.35
220.63
-91.22
-323.97
-480.98
-598.09
-686.86
-754.15
-804.48
-827.11
-815.73
-774.49
-729.87
-692.56
-664.64
-641.41
-620.85
-602.12
-574.17
-530.25
-472.14
-419.11
-378.47
-350.94
-332.07
-319.43
-311.39
-300.01
-279.99
-251.46
-225.64
-206.38
-193.58
-184.15
-176.46
-169.62
-159.83
-144.74
-124.67
-105.31
-88.73
-74.99
-62.63
-50.88
-39.32
-26.58
-11.85
4.55
20.27
34.24
46.05
55.88
63.71
69.50
73.24
75.01
74.96
73.35
70.47
66.65
62.21
57.44
52.60
47.88
43.39
39.20
35.29
31.62
28.11
24.70
21.31
17.89
14.44
11.01
7.68
4.60
1.91
-0.23
-1.69
-2.37
-2.26
-1.38
0.13
2.06
4.13
5.99
7.31
7.77
7.15
5.39
2.58
-1.05
-5.16
-9.36
-13.27
-16.54
-18.91
-20.15
-20.08
-18.54
-15.44
-10.74
-4.56
2.89
11.25
20.16
29.27
38.41
47.56
56.85
66.40
76.25
86.20
95.89
104.85
112.77
119.57
125.55
131.21
137.06
143.33
149.81
155.92
160.89
164.23
166.00
166.87
167.97
170.39
174.77
180.98
188.27
195.63
202.40
208.58
214.99
222.92
233.79
248.79
268.58
292.96
320.59
348.73
373.52
390.74
397.04
391.14
374.42
350.31
323.05
296.07
271.01
247.61
224.60
200.91
176.54
152.68
131.04
113.01
98.94
87.96
78.50
69.07
59.09
49.02
40.00
33.05
28.33
24.82
20.77
14.65
6.06
-3.96
-13.42
-20.31
-23.76
-24.49
-24.48
-25.90
-29.89
-35.99
-42.32
-46.57
-47.16
-43.49
-36.69
-29.04
-22.78
-19.03
-17.33
-16.21
-14.39
-11.42
-7.53
-3.82
-1.39
-0.58
-0.56
0.23
3.14
8.26
14.57
21.64
28.90
35.89
42.41
48.66
54.95
61.10
65.92
68.29
71.11
76.90
86.59
99.29
113.28
127.12
139.62
149.03
155.08
165.53
186.11
217.61
255.55
293.54
326.67
352.49
369.16
378.64
395.36
429.18
480.64
541.17
599.71
649.23
688.06
716.21
738.77
775.05
836.22
919.83
1011.72
1095.62
1162.24
1210.37
1241.94
1167.74
947.81
602.35
203.03
-176.19
-495.83
-749.04
-926.59
-1056.21
-1153.49
-1210.32
-1221.36
-1192.52
-1141.01
-1083.85
-1027.34
-971.74
-917.94
-863.64
-798.23
-717.58
-625.50
-531.46
-447.98
-378.75
-323.80
-283.95
-256.25
-231.33
-203.50
-173.15
-142.06
-114.54
-92.67
-77.19
-69.15
-66.89
-65.37
-61.11
-53.21
-43.03
-32.99
-24.17
-17.19
-12.79
-10.31
-7.83
-4.03
1.53
8.40
15.51
22.28
28.18
32.64
35.64
37.30
37.75
37.25
36.13
34.47
32.49
30.20
27.62
24.79
21.80
18.80
15.94
13.37
11.08
9.10
7.36
5.82
4.43
3.16
1.98
0.88
-0.12
-1.05
-1.93
-2.77
-3.56
-4.31
-5.01
-5.66
-6.23
-6.73
-7.13
-7.42
-7.61
-7.69
-7.66
-7.56
-7.41
-7.23
-7.08
-6.96
-6.93
-7.00
-7.21
-7.57
-8.09
-8.78
-9.63
-10.63
-11.76
-13.00
-14.31
-15.63
-16.92
-18.12
-19.17
-20.02
-20.66
-21.11
-21.39
-21.55
-21.63
-21.64
-21.59
-21.46
-21.28
-21.09
-20.95
-20.96
-21.16
-21.57
-22.16
-22.87
-23.61
-24.36
-25.12
-25.95
-26.97
-28.22
-29.69
-31.32
-32.92
-34.36
-35.58
-36.67
-37.86
-39.45
-41.68
-44.62
-48.10
-51.78
-55.34
-58.61
-61.78
-65.31
-69.79
-75.72
-83.17
-91.80
-100.91
-109.79
-118.09
-126.00
-134.29
-143.92
-155.66
-169.69
-185.49
-202.12
-218.66
-234.62
-250.21
-266.17
-283.46
-303.05
-325.80
-352.38
-382.77
-415.65
-448.00
-475.17
-492.25
-495.81
-485.50
-464.42
-437.85
-410.99
-386.82
-365.35
-344.37
-321.32
-294.75
-264.82
-232.65
-199.19
-164.38
-127.33
-87.16
-43.93
0.80
44.25
83.27
115.61
140.69
159.80
175.65
191.27
208.87
229.23
251.94
276.00
300.73
325.93
351.40
375.93
396.70
409.70
411.29
400.15
378.45
351.45
325.47
305.22
292.00
283.50
275.27
262.85
243.65
217.56
186.57
153.65
121.65
92.69
67.84
47.10
29.51
13.21
-4.53
-26.87
-56.47
-94.01
-136.39
-176.00
-201.73
-202.50
-171.91
-112.11
-34.30
44.72
108.61
147.59
161.01
155.98
142.63
129.29
119.80
113.89
109.58
105.66
102.54
101.49
103.08
106.15
107.74
104.49
94.10
76.24
52.56
25.97
-0.81
-26.20
-50.12
-73.83
-99.03
-127.03
-158.33
-192.71
-229.53
-268.03
-307.16
-345.24
-379.71
-407.15
-423.99
-427.61
-417.60
-396.32
-368.52
-339.97
-315.62
-298.10
-287.32
-281.01
-276.14
-270.21
-262.03
-251.75
-240.25
-228.52
-217.19
-206.48
-196.42
-186.99
-178.06
-169.22
-159.70
-148.40
-134.32
-116.89
-96.42
-74.27
-52.53
-33.29
-17.66
-5.24
5.83
17.98
33.01
51.25
71.34
90.94
107.87
120.91
130.12
136.45
141.01
144.44
146.73
147.45
146.30
143.40
139.34
134.85
130.48
126.37
122.22
117.45
111.57
104.23
95.27
84.63
72.41
58.90
44.78
31.15
19.31
10.36
4.76
2.05
0.98
-0.01
-2.29
-6.51
-12.40
-18.95
-24.82
-28.84
-30.38
-29.38
-26.15
-20.99
-14.03
-5.18
5.59
18.00
31.37
44.70
57.06
67.90
77.19
85.24
92.50
99.11
104.76
108.66
109.73
106.90
99.38
86.80
69.18
46.90
20.52
-9.04
-40.29
-71.00
-98.24
-118.82
-130.10
-130.81
-121.52
-104.60
-83.55
-61.99
-42.80
-27.58
-16.61
-9.12
-3.63
1.73
8.87
19.31
33.48
50.17
66.31
77.72
80.54
72.92
55.95
33.52
10.77
-7.85
-20.04
-25.94
-27.30
-26.04
-23.18
-18.73
-12.21
-3.56
6.44
16.35
24.75
30.96
35.21
38.52
41.95
46.13
51.02
56.13
60.85
64.88
68.28
71.41
74.59
77.78
80.55
82.15
81.86
79.39
75.11
69.99
65.24
61.77
59.80
58.67
57.11
53.72
47.33
37.25
23.29
5.67
-14.90
-37.11
-59.17
-79.10
-95.26
-106.86
-113.99
-117.39
-117.83
-115.65
-110.69
-102.65
-91.71
-78.74
-65.19
-52.50
-41.37
-31.41
-21.25
-9.30
5.37
22.41
40.14
56.12
68.16
75.19
77.67
77.22
75.80
74.82
74.59
74.36
72.94
69.45
63.74
56.56
49.11
42.52
37.44
33.99
31.97
31.05
31.03
31.73
33.06
34.82
36.81
38.78
40.48
41.72
42.27
41.92
40.46
37.76
33.81
28.87
23.50
18.49
14.69
12.70
12.56
13.71
15.15
15.74
14.73
11.84
7.36
1.82
-4.19
-10.24
-15.96
-20.98
-24.88
-27.23
-27.75
-26.37
-23.36
-19.14
-14.23
-9.14
-4.17
0.53
5.01
9.36
13.72
18.08
22.28
26.11
29.29
31.69
33.30
34.32
34.92
35.24
35.25
34.81
33.79
32.12
29.83
26.96
23.54
19.51
14.83
9.58
4.03
-1.32
-5.90
-9.12
-10.60
-10.27
-8.51
-6.34
-5.32
-7.40
-14.33
-27.18
-45.80
-68.81
-93.83
-118.01
-138.55
-153.18
-160.39
-159.57
-150.93
-135.49
-114.89
-91.21
-66.61
-43.06
-21.95
-3.87
11.45
25.08
38.41
52.72
68.56
85.38
101.64
115.20
124.24
127.83
126.33
121.16
114.21
107.01
100.25
93.79
87.12
79.94
72.60
66.03
61.25
58.83
58.55
59.47
60.38
60.33
58.84
55.92
51.78
46.48
39.94
31.95
22.63
12.51
2.54
-6.18
-12.95
-17.65
-20.92
-23.81
-27.44
-32.52
-39.19
-47.07
-55.48
-63.82
-71.82
-79.52
-87.06
-94.41
-101.10
-106.19
-108.55
-107.20
-101.72
-92.28
-79.52
-64.23
-47.22
-29.19
-10.89
6.92
23.53
38.58
52.16
64.82
77.37
90.46
104.32
118.46
131.68
142.30
148.56
149.15
143.71
133.05
118.96
103.60
88.90
75.97
65.04
55.74
47.48
39.78
32.23
24.26
15.06
3.63
-10.78
-28.24
-48.01
-68.54
-88.23
-105.84
-120.97
-133.87
-144.93
-154.06
-160.34
-162.33
-158.70
-149.04
-134.02
-115.23
-94.29
-72.24
-49.14
-24.52
2.13
30.69
60.15
88.90
115.00
136.64
152.22
160.60
161.26
154.56
142.00
125.91
108.93
93.15
79.55
67.75
56.53
44.57
31.04
15.87
-0.60
-18.06
-36.57
-56.33
-77.11
-97.58
-115.25
-127.02
-130.20
-123.65
-108.21
-86.48
-61.77
-37.04
-14.05
6.62
25.16
42.01
57.55
71.97
85.38
97.54
107.77
114.71
116.63
112.12
100.86
84.11
64.27
43.99
24.97
7.40
-9.76
-27.79
-47.15
-67.11
-86.02
-102.26
-114.98
-124.29
-130.72
-134.47
-134.89
-130.62
-120.37
-103.77
-81.94
-57.36
-33.14
-11.94
4.78
17.19
27.04
36.98
49.63
66.51
87.25
109.41
129.14
142.64
147.68
144.66
136.44
127.07
119.87
116.03
114.14
111.12
103.91
91.02
73.18
52.79
32.65
14.65
-0.98
-15.42
-30.37
-46.92
-64.99
-83.28
-99.90
-113.09
-121.79
-125.83
-125.55
-121.43
-113.74
-102.53
-87.83
-69.90
-49.38
-27.20
-4.39
18.09
39.31
58.31
74.02
85.45
92.13
94.69
95.00
95.71
99.14
105.97
114.65
121.77
123.60
117.79
104.46
85.87
65.10
44.36
24.18
3.80
-17.62
-39.70
-60.57
-77.59
-88.65
-93.27
-92.66
-88.98
-84.25
-79.52
-74.51
-68.17
-59.38
-47.63
-33.22
-17.11
-0.70
14.44
26.68
34.55
37.20
34.97
29.59
23.81
20.25
20.08
22.30
24.13
22.66
16.53
6.84
-3.50
-11.57
-16.15
-18.47
-21.25
-26.90
-35.86
-46.14
-54.15
-56.38
-50.99
-38.55
-21.73
-4.17
10.87
21.48
27.40
29.65
29.92
29.99
31.62
36.47
45.98
60.77
80.02
101.28
120.92
135.32
142.00
140.17
130.27
113.23
89.93
61.19
28.44
-6.00
-39.31
-69.19
-94.87
-117.29
-138.08
-158.01
-175.94
-189.01
-193.96
-189.07
-175.11
-155.23
-133.47
-113.09
-95.44
-80.12
-65.85
-51.37
-35.66
-17.66
4.01
30.68
62.60
98.05
133.30
163.78
185.77
197.62
199.64
192.94
178.14
154.94
123.00
83.19
38.49
-6.52
-47.03
-79.68
-103.20
-118.10
-125.57
-126.62
-121.81
-111.68
-97.44
-81.18
-65.50
-52.54
-43.17
-36.26
-28.95
-17.54
1.03
27.55
59.73
92.42
119.44
135.84
139.79
132.76
118.16
99.11
76.75
50.19
17.94
-20.11
-61.60
-102.06
-136.57
-161.51
-175.46
-178.98
-173.76
-161.80
-145.06
-125.41
-104.50
-83.70
-63.78
-44.82
-26.23
-6.77
15.19
41.18
71.60
104.94
137.48
164.05
179.89
182.44
172.31
152.55
126.85
97.65
65.62
30.58
-6.75
-43.50
-75.12
-97.17
-107.45
-107.13
-100.20
-91.56
-84.87
-81.33
-79.85
-78.17
-74.08
-66.15
-53.61
-36.08
-13.64
12.86
41.41
69.02
92.56
109.98
120.96
126.60
128.33
126.65
120.85
109.70
92.82
71.49
48.51
26.84
8.27
-7.10
-20.27
-32.09
-42.29
-49.60
-52.64
-51.10
-46.19
-40.18
-35.27
-32.47
-31.26
-30.06
-26.81
-19.69
-7.25
11.32
35.92
64.92
94.87
121.14
139.29
146.76
143.81
133.06
117.95
100.89
82.31
61.15
36.20
7.46
-23.51
-54.33
-82.96
-108.34
-130.26
-148.53
-162.34
-170.07
-169.78
-160.02
-140.41
-111.82
-76.07
-35.46
7.67
51.12
92.76
130.52
162.33
186.34
201.29
206.82
203.60
193.04
176.74
155.95
131.10
101.85
67.62
28.27
-15.39
-61.44
-107.17
-149.74
-186.81
-216.85
-239.03
-252.81
-257.54
-252.40
-236.82
-210.91
-175.96
-134.10
-87.48
-37.33
16.26
73.51
133.59
193.43
247.64
289.70
314.06
318.07
302.81
272.44
232.63
188.78
144.71
102.22
61.27
20.47
-22.20
-68.52
-119.00
-172.21
-224.58
-271.16
-306.90
-328.01
-332.74
-321.65
-296.97
-261.72
-219.06
-171.60
-121.23
-68.85
-14.67
41.20
97.86
152.92
202.35
241.44
266.30
275.23
269.34
251.89
226.99
198.11
167.26
134.90
100.46
63.11
22.40
-21.29
-66.74
-112.10
-155.30
-194.53
-228.31
-255.25
-273.58
-281.15
-275.95
-257.05
-225.56
-184.54
-137.99
-88.91
-38.15
15.33
72.61
132.35
189.67
237.04
267.20
276.34
265.95
241.98
212.08
182.21
154.60
127.78
98.25
62.74
19.73
-29.92
-83.63
-137.79
-188.40
-231.36
-262.79
-279.56
-279.81
-263.67
-233.36
-192.80
-146.61
-98.57
-50.44
-1.51
50.52
107.44
168.14
227.50
277.20
308.56
315.93
298.99
262.76
215.33
164.67
115.93
70.46
26.48
-19.16
-69.27
-124.93
-184.72
-244.57
-298.28
-338.85
-360.45
-360.39
-339.98
-304.01
-259.02
-211.05
-164.19
-120.11
-78.43
-37.45
5.06
50.99
100.83
152.66
201.77
241.47
265.00
267.63
248.14
208.94
154.96
92.21
26.68
-36.20
-91.82
-136.62
-168.52
-187.04
-193.20
-188.68
-175.19
-154.07
-126.41
-93.51
-56.85
-17.68
23.65
67.79
115.66
166.94
218.79
265.81
301.54
320.75
321.52
305.83
278.46
244.85
208.87
171.77
132.58
89.75
42.78
-6.87
-56.17
-101.81
-141.49
-174.63
-201.73
-223.23
-238.43
-244.98
-239.82
-220.65
-187.18
-141.32
-86.31
-25.64
37.58
100.02
157.21
203.21
231.69
238.23
222.50
189.15
146.30
102.67
64.38
33.28
7.31
-17.39
-44.04
-73.67
-105.09
-135.98
-164.34
-189.16
-210.14
-226.78
-237.57
-240.04
-231.78
-211.75
-181.14
-143.03
-100.93
-57.23
-12.52
33.76
81.78
129.90
174.21
209.53
231.05
235.96
224.37
199.19
165.29
128.16
92.58
61.58
35.96
14.51
-4.98
-24.63
-45.61
-67.80
-90.19
-111.50
-130.39
-145.25
-153.99
-154.03
-142.92
-119.19
-82.98
-36.30
17.17
72.71
125.18
169.59
201.72
218.76
219.95
206.85
183.04
153.13
121.40
90.73
62.17
35.27
8.95
-17.77
-45.41
-74.14
-104.02
-134.67
-164.94
-192.30
-212.78
-221.88
-216.01
-193.69
-156.19
-107.14
-51.58
5.20
58.62
105.42
143.82
173.25
193.79
205.50
208.17
201.50
185.67
161.73
131.56
97.26
60.58
22.63
-15.72
-53.27
-88.30
-118.98
-144.13
-163.78
-178.66
-189.03
-193.76
-190.17
-175.11
-146.74
-106.14
-57.71
-8.09
35.92
69.71
92.22
105.86
115.00
123.82
134.60
147.26
160.16
171.47
180.19
186.16
189.11
187.77
179.61
161.89
133.11
94.27
48.91
2.07
-41.35
-78.12
-107.20
-129.39
-146.23
-158.96
-167.80
-171.84
-169.69
-160.20
-143.36
-120.54
-94.29
-67.60
-42.98
-21.78
-4.03
11.25
25.56
40.41
57.05
76.34
98.67
123.87
151.04
178.39
203.42
223.23
234.92
236.22
225.94
204.23
172.67
133.93
91.08
46.91
3.38
-38.49
-78.19
-115.19
-148.48
-176.56
-197.94
-211.88
-218.76
-220.02
-217.67
-213.55
-208.86
-203.99
-198.70
-192.43
-184.56
-174.62
-162.42
-148.16
-132.43
-116.09
-100.03
-84.85
-70.54
-56.58
-42.15
-26.67
-10.18
6.59
22.40
35.94
46.34
53.56
58.64
63.77
71.84
85.60
106.43
133.27
162.17
186.99
201.06
199.35
180.14
145.54
100.68
52.02
5.39
-35.11
-67.50
-91.46
-107.54
-116.68
-120.12
-119.32
-116.03
-111.96
-108.16
-104.39
-98.78
-88.33
-69.97
-42.05
-5.42
36.21
77.13
111.43
134.91
146.33
147.61
142.77
136.34
131.81
130.85
133.48
138.76
145.67
153.55
161.93
170.07
176.44
178.76
174.51
161.83
140.34
111.50
78.18
43.72
10.75
-19.46
-46.88
-71.91
-94.42
-113.23
-126.39
-132.07
-129.56
-119.73
-104.71
-87.02
-68.60
-50.20
-31.58
-12.11
8.37
29.18
48.96
66.24
80.24
91.23
100.37
109.00
117.75
125.89
131.41
131.63
124.20
107.89
82.95
50.76
13.39
-26.90
-67.81
-106.98
-142.08
-171.07
-192.68
-206.71
-213.98
-215.86
-213.63
-208.01
-199.16
-186.94
-171.46
-153.28
-133.41
-112.93
-92.77
-73.51
-55.48
-38.91
-23.99
-10.92
0.21
9.44
16.93
22.98
27.92
32.19
36.25
40.57
45.43
50.88
56.65
62.28
67.28
71.27
74.04
75.62
76.21
76.12
75.68
75.18
74.88
74.88
75.27
76.13
77.54
79.62
82.23
84.81
86.30
85.21
80.03
69.76
54.29
34.65
12.77
-9.04
-28.81
-45.43
-58.92
-70.29
-81.15
-93.20
-107.65
-124.62
-143.00
-160.68
-175.40
-185.67
-191.38
-193.85
-195.29
-197.74
-202.05
-207.34
-211.06
-209.66
-199.68
-178.71
-146.04
-102.85
-52.05
2.31
55.69
103.92
143.79
173.35
192.02
200.34
199.78
192.30
179.95
164.50
147.24
129.10
110.80
93.24
77.66
65.69
58.98
58.58
64.36
74.60
86.20
95.35
98.61
93.78
80.37
59.62
33.92
6.24
-20.51
-43.93
-62.42
-75.33
-83.11
-87.11
-89.18
-90.99
-93.22
-95.15
-94.80
-89.92
-79.31
-63.78
-46.16
-30.28
-19.31
-14.15
-12.98
-12.03
-7.18
4.45
23.53
48.64
76.89
104.75
128.47
144.43
149.51
142.00
122.63
95.10
65.47
40.30
24.41
19.20
22.56
30.39
38.80
45.82
51.77
58.16
66.14
75.36
83.85
89.04
89.06
83.56
73.75
61.68
49.39
38.07
27.96
18.47
8.74
-2.18
-15.27
-31.97
-54.51
-85.54
-126.75
-177.00
-230.91
-279.05
-310.46
-316.58
-294.89
-250.11
-192.12
-131.49
-75.34
-25.79
18.27
57.73
90.90
113.84
123.15
118.95
105.63
89.78
76.90
69.36
66.87
68.60
74.91
87.15
105.61
127.47
146.99
157.94
156.89
145.02
127.25
109.45
95.60
86.58
80.85
75.87
69.24
59.15
44.52
25.35
3.21
-18.68
-36.41
-47.02
-49.93
-47.03
-41.53
-36.10
-31.58
-27.05
-21.06
-13.10
-4.19
3.43
7.35
6.05
-0.55
-11.19
-23.60
-35.15
-43.50
-47.12
-45.53
-39.29
-29.73
-18.52
-7.23
3.00
11.50
17.99
22.44
24.89
25.23
23.02
17.32
6.59
-11.00
-37.16
-72.56
-115.97
-163.82
-210.57
-249.99
-277.01
-289.25
-287.58
-275.38
-256.65
-234.40
-209.69
-181.87
-149.77
-112.71
-70.91
-25.31
22.77
71.65
119.03
161.95
197.44
223.47
239.78
247.72
249.03
244.46
233.28
214.37
188.28
158.51
130.81
110.62
100.25
97.66
97.79
95.63
88.88
78.56
67.30
56.69
45.98
32.61
14.24
-9.16
-34.89
-59.08
-78.86
-93.95
-106.52
-119.70
-135.83
-155.24
-176.28
-196.52
-214.30
-229.42
-242.83
-255.27
-266.25
-273.86
-275.39
-268.74
-253.53
-231.52
-205.90
-180.01
-156.06
-134.48
-114.40
-93.70
-69.09
-36.29
9.00
69.27
143.14
224.29
302.38
365.31
403.95
415.86
406.00
383.95
359.27
337.72
320.16
303.67
282.08
249.51
202.67
142.17
72.41
1.19
-60.69
-101.32
-111.13
-89.84
-46.10
5.55
50.43
78.06
84.44
72.18
47.93
18.95
-13.47
-51.97
-99.57
-156.49
-220.94
-291.81
-369.67
-456.32
-529.67
-565.68
-551.18
-492.68
-407.34
-311.87
-219.50
-139.85
-78.43
-35.66
-10.68
-0.89
-2.16
-8.62
-14.63
-17.34
-14.41
-6.03
5.51
13.95
13.15
0.81
-19.30
-39.96
-54.52
-59.33
-54.70
-43.29
-29.76
-17.56
-10.14
-7.05
-6.13
-5.48
-4.08
-1.79
1.38
4.57
6.55
6.04
2.83
-3.13
-11.68
-22.25
-33.96
-45.47
-55.62
-63.53
-68.66
-70.32
-68.12
-61.92
-51.65
-37.33
-18.88
3.74
30.25
59.97
91.92
124.89
157.98
191.21
225.71
263.00
303.69
346.12
385.79
416.48
432.17
429.05
406.62
367.28
315.14
254.88
191.46
130.27
77.18
37.55
14.61
8.09
14.19
27.04
41.21
53.60
63.80
72.95
82.08
90.84
97.46
99.61
95.48
84.44
67.02
44.38
17.93
-10.89
-40.52
-69.11
-94.57
-114.79
-128.14
-133.83
-132.24
-124.94
-114.53
-103.83
-94.87
-88.07
-81.94
-73.91
-61.72
-44.74
-24.42
-3.31
16.58
35.27
54.80
77.82
105.43
135.98
165.34
188.83
203.25
208.25
205.99
199.61
191.62
182.88
172.48
158.69
139.73
114.23
81.19
40.15
-8.27
-61.47
-114.53
-160.73
-192.83
-205.03
-194.81
-164.04
-118.90
-68.40
-22.00
12.87
32.38
36.85
29.75
15.77
-1.09
-18.55
-35.89
-53.01
-69.61
-85.15
-98.84
-109.98
-117.87
-121.55
-119.62
-110.48
-93.00
-67.40
-36.35
-3.89
26.02
50.87
70.10
84.85
97.50
110.86
127.16
145.80
163.95
177.35
181.79
174.39
154.49
124.11
87.48
49.50
12.68
-22.07
-54.37
-83.32
-107.32
-124.78
-134.56
-136.31
-122.74
-89.92
-39.95
18.94
77.54
130.34
175.74
214.06
246.10
272.67
292.66
304.70
308.68
306.19
299.54
290.51
279.54
265.52
250.11
233.12
214.54
195.32
177.38
162.80
152.81
147.48
145.88
146.49
146.37
142.77
133.88
119.08
98.76
73.74
45.13
14.31
-17.06
-47.91
-77.16
-103.57
-125.96
-143.46
-155.74
-163.14
-166.47
-166.74
-165.37
-163.56
-162.04
-160.99
-160.17
-159.05
-157.09
-153.83
-148.99
-142.59
-134.80
-125.78
-115.69
-104.68
-93.08
-81.47
-70.80
-62.34
-57.41
-57.09
-61.80
-71.21
-84.37
-100.10
-117.54
-136.44
-157.21
-180.51
-206.79
-235.68
-265.94
-295.81
-323.62
-348.53
-370.86
-391.87
-413.15
-435.93
-460.64
-486.85
-513.49
-538.83
-560.74
-576.69
-584.42
-582.22
-569.78
-548.37
-520.44
-488.94
-456.31
-423.69
-390.91
-357.48
-324.09
-293.69
-271.07
-260.61
-263.60
-276.36
-290.94
-298.15
-291.47
-269.88
-237.83
-202.43
-169.81
-142.69
-120.23
-100.12
-80.81
-62.72
-47.58
-36.79
-30.12
-25.52
-20.16
-11.71
0.70
16.09
32.42
47.63
60.49
71.02
80.29
89.68
100.14
111.64
123.22
133.39
140.82
144.80
145.51
143.72
140.44
136.41
131.88
126.59
120.08
111.97
102.21
91.13
79.31
67.38
55.81
44.81
34.40
24.48
14.96
5.85
-2.73
-10.64
-17.78
-24.11
-29.70
-34.73
-39.43
-44.06
-48.88
-54.17
-60.21
-67.23
-75.45
-84.98
-95.84
-107.93
-120.98
-134.61
-148.24
-161.19
-172.64
-181.71
-187.51
-189.19
-185.96
-177.27
-162.73
-142.27
-116.13
-84.84
-49.24
-10.44
30.30
71.60
112.11
150.56
185.85
217.14
243.88
265.78
282.87
295.42
303.86
308.77
310.76
310.44
308.31
304.83
300.27
294.83
288.55
281.44
273.44
264.50
254.61
243.81
232.27
220.17
207.78
195.42
183.37
171.92
161.29
151.66
143.16
135.86
129.79
124.98
121.43
119.14
118.04
118.06
119.04
120.74
122.80
124.75
125.96
125.70
123.15
117.41
107.69
93.28
73.74
48.97
19.35
-14.28
-50.57
-87.75
-123.70
-156.21
-183.11
-202.58
-213.29
-214.58
-206.54
-190.00
-166.39
-137.65
-105.98
-73.62
-42.64
-14.72
8.93
27.64
41.29
50.18
54.99
56.60
56.00
54.11
51.74
49.53
47.90
47.10
47.21
48.21
49.98
52.42
55.46
59.12
63.50
68.81
75.34
83.40
93.27
105.13
119.06
134.89
152.31
170.78
189.63
208.07
225.20
240.12
251.92
259.86
263.34
262.03
255.88
245.12
230.24
211.90
190.79
167.59
142.89
117.16
90.84
64.38
38.30
13.18
-10.40
-31.95
-51.13
-67.78
-81.93
-93.64
-102.91
-109.65
-113.70
-115.02
-113.83
-110.75
-106.76
-102.99
-100.37
-99.33
-99.60
-100.27
-100.04
-97.65
-92.21
-83.34
-71.04
-55.53
-36.92
-15.09
10.36
39.97
74.41
114.16
159.08
207.71
256.84
301.80
337.59
360.34
368.68
363.96
349.71
330.24
309.20
288.86
269.86
251.67
233.16
213.29
191.80
169.53
148.49
131.31
120.31
116.51
119.10
125.67
133.02
138.10
138.57
133.09
121.24
103.51
81.33
57.03
33.37
12.87
-2.95
-13.99
-21.43
-27.13
-32.70
-38.80
-44.63
-48.21
-47.23
-40.13
-27.19
-10.90
4.58
14.73
16.37
9.04
-4.84
-20.83
-34.31
-42.37
-44.70
-43.33
-41.34
-41.38
-44.58
-50.35
-57.02
-62.73
-65.92
-65.16
-58.75
-43.97
-18.82
16.43
57.95
98.88
131.39
149.43
150.83
137.50
114.46
86.55
56.66
26.00
-3.66
-27.99
-40.24
-34.21
-8.43
33.09
79.78
118.07
136.50
130.16
102.40
62.71
22.54
-8.66
-21.10
-10.25
22.56
70.93
125.95
179.42
225.64
261.65
286.53
310.15
341.45
384.89
438.67
497.26
555.45
609.94
658.31
697.74
739.76
793.37
861.26
937.97
1014.07
1082.51
1140.82
1189.38
1228.78
1277.78
1350.44
1449.68
1564.76
1677.55
1772.75
1843.03
1888.23
1792.54
1490.21
983.74
354.59
-281.36
-833.75
-1262.81
-1569.38
-1774.56
-1905.03
-1965.72
-1960.12
-1897.20
-1796.09
-1681.47
-1573.04
-1481.87
-1411.54
-1361.95
-1316.43
-1260.90
-1189.55
-1107.23
-1024.64
-950.74
-889.64
-837.91
-792.51
-742.54
-681.21
-608.31
-530.36
-456.55
-393.38
-342.86
-303.69
-274.13
-248.42
-222.81
-196.71
-172.66
-154.02
-142.17
-135.43
-130.18
-123.31
-111.91
-95.79
-77.31
-60.04
-46.65
-37.52
-31.08
-25.39
-20.00
-16.16
-15.86
-20.13
-27.88
-36.16
-41.16
-40.31
-33.39
-22.60
-11.28
-2.26
3.01
4.33
2.13
-3.03
-10.59
-19.44
-27.71
-32.95
-33.01
-27.19
-16.75
-4.61
5.90
12.50
15.09
15.71
17.61
23.71
35.44
52.07
70.98
88.79
102.59
111.00
114.23
113.29
109.29
102.58
92.35
76.52
52.87
20.00
-21.74
-69.85
-119.87
-166.22
-203.22
-226.69
-235.08
-228.80
-209.55
-179.67
-141.78
-98.89
-54.40
-11.35
27.86
61.53
88.17
105.69
113.21
112.42
107.17
101.29
97.38
98.57
102.54
106.14
106.80
103.18
95.61
86.07
75.21
65.54
59.41
57.57
60.00
66.03
74.37
83.18
89.97
91.16
82.82
61.28
24.54
-25.64
-83.57
-141.33
-190.31
-223.05
-235.26
-226.27
-199.12
-159.38
-113.00
-64.94
-18.11
22.65
52.98
71.15
78.56
78.35
73.94
68.44
66.88
70.06
77.00
85.84
93.92
98.00
94.96
82.63
58.04
21.46
-25.35
-79.27
-136.16
-191.39
-240.31
-278.48
-301.99
-307.97
-295.28
-266.12
-225.58
-180.52
-137.91
-103.37
-80.10
-68.44
-66.25
-69.26
-72.80
-72.44
-64.84
-48.03
-22.78
7.27
36.20
57.87
68.14
66.09
54.43
38.28
24.46
17.84
19.89
29.02
42.22
57.05
72.51
88.72
105.97
126.02
149.23
174.39
199.62
223.78
247.17
271.25
297.68
327.67
364.21
408.14
456.82
503.90
540.96
560.31
557.59
533.13
474.84
382.05
264.55
139.63
24.16
-71.89
-145.96
-199.54
-235.32
-256.30
-263.38
-258.89
-246.77
-231.66
-217.31
-205.46
-195.69
-186.79
-177.71
-166.31
-151.90
-135.36
-118.72
-103.92
-91.91
-82.44
-74.64
-67.79
-60.41
-51.99
-42.87
-34.59
-28.18
-24.17
-22.33
-21.88
-21.93
-21.36
-19.56
-16.37
-12.10
-7.73
-4.08
-1.34
0.93
3.75
7.72
12.94
19.54
27.17
34.24
39.21
41.29
40.91
40.15
39.98
40.57
42.51
45.68
47.62
45.25
35.77
21.57
6.64
-7.40
-20.50
-31.90
-41.85
-53.59
-71.15
-97.72
-134.17
-176.89
-224.06
-275.37
-328.64
-365.68
-373.80
-351.16
-307.76
-276.83
-264.90
-272.13
-298.99
-332.43
-361.22
-375.83
-368.47
-334.63
-274.09
-188.72
-77.75
43.77
156.22
244.35
302.75
334.31
344.73
339.53
325.53
306.78
285.02
263.75
245.86
231.86
220.02
207.33
195.05
182.70
169.75
155.27
140.40
126.61
114.51
103.38
91.80
74.82
54.27
32.77
11.78
-6.94
-22.01
-32.96
-40.45
-45.83
-50.35
-54.25
-57.74
-61.28
-64.85
-68.02
-70.43
-72.09
-73.18
-73.79
-73.53
-72.16
-69.30
-65.32
-60.32
-54.63
-48.74
-43.02
-37.63
-32.29
-26.89
-21.63
-17.18
-14.00
-12.76
-13.89
-17.27
-22.13
-27.16
-31.15
-33.43
-34.10
-33.29
-31.47
-29.02
-25.75
-20.79
-12.75
0.12
20.00
45.43
76.25
111.51
148.68
183.40
210.28
224.58
224.28
211.07
189.99
168.18
151.86
144.50
146.25
154.53
165.36
174.93
180.49
180.99
177.60
172.74
169.69
172.03
183.22
206.07
241.87
289.09
342.55
394.00
433.83
454.25
452.28
430.86
397.49
360.85
327.43
299.68
276.71
256.05
235.72
215.19
195.00
175.76
157.49
139.61
121.52
103.23
85.41
69.26
55.84
45.46
37.54
30.71
23.35
14.18
2.66
-10.89
-25.59
-40.47
-54.87
-68.62
-81.99
-96.02
-111.37
-127.85
-144.36
-159.53
-172.30
-182.04
-188.99
-193.65
-197.19
-200.37
-203.23
-205.13
-205.13
-202.59
-197.11
-188.97
-178.62
-168.09
-158.88
-151.26
-144.29
-136.71
-127.87
-117.58
-106.86
-96.82
-92.58
-97.67
-112.07
-132.19
-153.33
-172.23
-186.55
-197.27
-205.55
-221.08
-250.51
-293.66
-343.62
-391.61
-432.16
-461.78
-483.74
-501.55
-531.66
-585.18
-661.68
-749.80
-834.79
-907.01
-960.11
-998.62
-1027.67
-1069.00
-1137.14
-1231.43
-1336.90
-1434.11
-1510.39
-1557.62
-1582.35
-1476.82
-1186.13
-734.07
-217.44
259.36
639.28
883.38
1035.62
1128.48
1181.16
1186.21
1136.86
1045.02
931.64
820.46
727.12
661.50
617.83
588.46
552.85
495.97
414.83
318.35
221.95
139.63
85.03
61.28
68.28
93.70
124.11
150.42
170.24
186.51
202.98
224.31
248.64
272.90
289.73
293.87
284.29
262.50
232.62
200.02
170.61
145.45
123.49
101.82
78.69
54.66
32.18
13.98
2.26
-1.11
2.65
11.25
22.54
35.08
48.35
62.48
77.47
88.14
92.81
90.93
82.39
67.53
47.06
21.99
-1.78
-25.16
-48.66
-71.83
-94.22
-115.79
-136.51
-156.10
-173.97
-189.19
-201.20
-208.01
-210.75
-209.12
-203.05
-192.73
-178.59
-160.94
-140.41
-118.44
-96.08
-74.01
-52.61
-32.52
-14.39
1.15
13.92
23.79
30.33
33.58
33.92
32.24
29.23
25.47
21.30
17.58
14.81
12.87
11.52
10.58
10.38
11.30
13.58
17.17
23.56
33.53
46.65
61.65
77.25
93.07
109.33
126.27
143.68
164.72
191.05
222.02
255.00
287.25
317.46
345.72
372.42
397.31
425.71
460.52
500.83
542.21
579.76
611.03
636.82
660.36
685.62
723.64
779.92
850.59
922.49
979.52
1009.79
1009.52
982.87
887.74
709.27
462.56
188.86
-68.01
-280.77
-441.37
-553.51
-625.60
-667.85
-682.26
-672.00
-643.16
-605.37
-567.30
-533.92
-506.82
-485.50
-469.85
-453.84
-434.24
-410.21
-385.53
-364.21
-348.47
-338.63
-333.55
-332.92
-332.79
-329.84
-319.26
-303.71
-286.43
-269.37
-256.35
-245.63
-236.51
-227.76
-218.91
-211.50
-208.83
-211.15
-214.46
-211.78
-195.30
-161.65
-112.18
-51.18
15.93
79.40
132.19
172.26
201.97
226.98
252.25
281.68
320.08
369.23
425.92
483.27
532.05
563.03
571.26
556.18
509.55
436.65
352.74
275.02
214.34
174.19
147.22
128.02
113.22
100.17
90.45
83.77
77.87
70.31
59.89
46.86
32.85
19.05
5.97
-4.77
-13.19
-20.67
-28.92
-38.72
-49.70
-60.69
-70.76
-79.36
-85.29
-88.44
-89.70
-90.23
-90.68
-90.89
-91.00
-90.96
-90.33
-87.81
-82.66
-75.05
-65.76
-55.69
-45.38
-38.20
-36.56
-40.60
-48.12
-56.54
-64.36
-71.30
-77.74
-83.77
-96.09
-119.31
-152.98
-191.92
-229.84
-262.56
-288.58
-308.29
-321.99
-341.38
-374.80
-422.53
-477.06
-529.11
-572.71
-606.28
-631.45
-649.72
-677.97
-728.53
-802.87
-891.82
-983.32
-1069.30
-1146.93
-1217.11
-1200.96
-1061.50
-817.36
-533.26
-273.34
-70.15
73.31
170.11
225.73
266.24
295.57
312.81
319.24
320.32
321.58
325.66
333.90
344.79
359.57
367.28
360.07
337.52
306.63
276.37
253.00
238.83
232.97
234.80
234.68
225.24
205.05
178.54
152.03
130.14
114.74
105.36
101.55
97.95
90.45
78.02
62.72
48.19
37.18
30.74
28.29
29.07
30.44
30.46
28.63
25.78
23.59
23.39
25.47
29.18
33.63
37.75
40.85
42.70
43.46
44.52
47.06
51.28
56.28
60.74
63.78
65.32
65.95
66.55
70.95
81.99
99.71
121.17
142.28
160.15
173.99
184.67
193.81
209.15
236.42
275.81
321.43
365.21
401.50
428.83
449.02
465.36
490.69
534.73
598.18
672.14
744.06
805.05
852.51
888.63
917.90
957.88
1023.55
1119.23
1236.24
1358.68
1470.98
1561.40
1622.34
1567.42
1349.85
985.16
549.92
134.59
-203.75
-450.88
-619.02
-728.40
-793.52
-819.31
-805.37
-757.10
-689.68
-621.84
-567.08
-530.63
-511.82
-504.07
-492.52
-465.44
-420.87
-367.11
-316.38
-277.52
-253.24
-241.59
-238.48
-234.32
-221.11
-197.04
-166.84
-137.84
-115.44
-101.38
-94.61
-92.79
-91.03
-85.04
-73.65
-58.97
-44.50
-32.91
-25.21
-21.03
-19.28
-17.91
-14.89
-9.36
-1.90
6.09
13.10
17.98
20.08
19.33
16.12
11.41
6.23
1.26
-3.65
-9.51
-17.87
-30.14
-46.84
-67.16
-89.04
-109.87
-127.60
-141.67
-153.26
-164.88
-179.13
-197.34
-218.79
-240.88
-260.06
-273.48
-280.35
-282.48
-283.97
-290.04
-305.41
-332.36
-369.25
-409.74
-443.62
-459.07
-446.13
-400.47
-325.67
-233.09
-138.93
-59.59
-6.69
16.29
14.45
-1.14
-17.92
-26.59
-23.80
-12.08
2.52
13.66
17.04
11.10
-3.70
-26.05
-53.97
-84.36
-112.40
-131.63
-135.53
-118.99
-80.32
-22.62
46.11
114.48
170.68
205.83
216.74
205.94
180.67
149.66
119.80
93.80
70.12
44.95
14.94
-20.86
-61.22
-101.96
-137.25
-161.73
-173.07
-173.36
-168.59
-166.08
-171.65
-191.43
-227.48
-277.60
-336.10
-395.82
-449.60
-490.57
-513.19
-515.01
-504.85
-493.54
-488.67
-490.33
-492.97
-489.57
-474.37
-444.47
-399.72
-352.25
-311.84
-281.76
-258.73
-239.96
-228.18
-229.55
-249.01
-286.29
-349.08
-437.99
-545.22
-655.51
-754.71
-836.50
-900.81
-951.20
-904.93
-718.21
-407.50
-46.70
286.82
551.20
738.92
860.88
931.10
962.97
953.12
904.57
825.40
732.21
641.44
561.54
494.32
435.55
380.07
313.19
230.64
135.14
40.02
-38.30
-87.56
-88.95
-38.44
49.99
143.03
210.87
238.36
229.75
206.42
180.52
157.80
137.83
119.26
100.09
83.85
67.70
55.28
49.46
48.80
51.17
52.72
51.06
45.38
38.42
33.23
33.26
39.24
48.15
57.56
64.62
67.59
66.68
66.03
68.82
76.67
88.16
98.95
107.92
114.64
119.19
122.57
130.94
148.07
173.64
203.13
228.47
248.18
262.62
272.41
278.92
291.30
315.03
348.88
385.88
414.55
433.97
446.20
453.14
457.15
469.76
497.36
537.31
579.75
609.28
624.25
627.01
619.98
541.26
366.86
121.54
-137.23
-325.68
-452.00
-533.14
-580.77
-611.26
-629.75
-627.22
-598.73
-548.88
-489.93
-439.41
-400.32
-370.88
-348.85
-331.01
-304.13
-260.44
-201.93
-138.44
-84.34
-42.16
-10.10
14.33
34.35
62.57
106.55
164.77
228.31
285.06
331.59
368.59
397.83
421.67
451.28
493.24
545.84
600.60
647.29
681.98
704.89
717.94
676.44
562.28
389.93
198.36
23.82
-116.58
-220.79
-294.13
-343.79
-376.38
-390.03
-384.85
-365.66
-340.99
-318.49
-301.75
-290.64
-283.31
-278.04
-268.30
-250.99
-227.81
-203.90
-183.89
-169.35
-159.16
-151.00
-142.43
-127.78
-103.68
-71.80
-38.15
-10.76
3.40
0.72
-17.72
-47.02
-75.79
-94.40
-98.80
-91.17
-77.29
-62.87
-50.94
-41.56
-33.23
-24.12
-14.20
-5.13
1.20
4.00
4.07
3.13
2.78
3.94
6.34
8.70
9.48
7.80
3.88
-1.05
-5.28
-7.12
-5.86
-1.72
4.36
10.97
16.81
21.26
24.58
27.59
31.82
37.71
44.99
53.14
60.90
66.61
69.28
68.98
66.77
65.51
66.49
70.28
77.34
86.79
96.59
105.11
111.66
116.58
122.67
129.87
136.60
144.54
152.06
155.53
151.75
139.04
117.68
91.89
63.23
32.45
0.56
-19.36
-17.39
9.06
53.97
90.45
114.94
128.13
129.95
129.36
128.74
127.10
123.02
115.83
106.11
97.76
91.48
86.75
83.02
78.20
69.50
54.96
34.04
7.79
-19.71
-46.47
-71.25
-92.75
-110.90
-126.20
-138.98
-149.18
-156.24
-158.24
-155.07
-147.37
-135.95
-122.38
-108.32
-95.14
-83.78
-74.62
-67.09
-61.12
-56.69
-53.57
-51.70
-50.99
-51.40
-52.97
-55.79
-59.77
-64.96
-71.16
-77.78
-84.00
-88.80
-91.41
-91.53
-89.35
-85.44
-80.28
-73.89
-65.79
-55.15
-41.41
-24.80
-6.77
10.10
22.59
27.78
23.80
10.33
-11.76
-40.81
-75.28
-114.21
-157.29
-204.77
-257.33
-315.98
-381.70
-454.37
-531.47
-607.23
-673.21
-720.49
-742.81
-738.98
-713.37
-674.03
-629.33
-585.19
-543.95
-505.21
-467.73
-430.98
-395.45
-361.95
-330.62
-300.57
-270.43
-239.27
-207.36
-176.08
-147.55
-123.50
-104.65
-90.47
-79.49
-70.02
-60.83
-51.59
-42.84
-35.61
-30.74
-28.52
-28.47
-29.56
-30.69
-31.03
-30.32
-28.84
-27.18
-25.85
-25.09
-24.78
-24.50
-23.20
-20.13
-15.22
-9.00
-2.31
4.24
10.33
15.88
20.95
26.13
31.75
37.70
43.43
48.31
52.01
54.55
56.25
57.56
60.48
66.50
76.12
88.72
103.28
119.08
135.82
153.42
171.83
194.72
224.34
260.10
298.58
335.64
368.40
395.74
417.77
435.17
456.73
488.46
530.78
578.19
623.54
662.06
692.19
714.45
730.22
753.77
794.72
853.69
921.78
987.32
1042.28
1083.74
1112.14
1129.40
1154.63
1200.79
1269.21
1348.47
1423.08
1481.94
1520.36
1538.15
1436.25
1169.85
763.21
301.95
-124.66
-466.97
-716.15
-885.90
-996.41
-1066.37
-1088.41
-1063.24
-997.40
-906.44
-807.80
-713.07
-626.66
-548.84
-488.20
-438.61
-397.75
-367.72
-353.92
-358.28
-375.43
-395.70
-411.31
-419.62
-413.55
-391.25
-355.16
-311.76
-268.00
-228.53
-196.60
-174.00
-161.17
-151.99
-140.57
-123.05
-99.28
-71.80
-43.71
-17.60
3.05
16.12
23.67
28.93
34.75
41.86
48.88
52.86
54.46
50.33
38.04
18.17
-6.14
-30.77
-52.59
-69.93
-82.36
-89.96
-97.71
-109.31
-125.06
-141.92
-156.16
-165.64
-170.39
-171.97
-172.58
-180.32
-201.56
-238.05
-286.72
-342.67
-402.08
-462.76
-523.72
-549.96
-520.69
-438.61
-328.28
-217.08
-121.04
-44.53
14.64
60.52
97.14
122.17
133.75
133.21
125.46
116.14
109.02
105.79
106.38
110.15
112.19
108.68
99.01
85.74
72.42
61.40
53.82
49.47
47.99
46.52
42.99
37.27
31.04
26.39
22.71
21.46
22.84
26.72
31.70
36.62
41.01
44.73
47.61
49.07
48.68
45.98
41.24
34.93
27.78
20.53
13.15
5.03
-4.81
-16.96
-31.60
-47.89
-64.43
-79.69
-92.76
-104.29
-115.74
-129.17
-146.85
-171.24
-204.20
-246.15
-295.59
-344.67
-384.85
-407.92
-408.79
-387.43
-349.11
-302.19
-254.92
-212.72
-177.29
-148.18
-124.01
-103.99
-88.20
-76.81
-69.26
-63.91
-58.70
-52.00
-43.69
-34.63
-26.26
-19.76
-15.38
-12.46
-9.68
-5.71
0.24
7.94
16.50
24.86
32.25
38.48
43.97
49.46
55.65
62.97
71.28
80.22
89.34
98.27
106.80
114.74
121.91
128.02
132.85
136.38
138.89
140.97
143.31
146.36
150.11
154.02
157.32
159.44
160.39
161.04
162.76
167.01
174.70
185.77
199.34
214.15
229.13
243.96
259.18
276.05
296.35
322.31
356.17
399.42
451.45
508.42
563.29
607.37
633.15
637.17
621.36
592.19
557.92
525.42
498.14
476.02
456.94
438.52
419.29
398.76
376.78
352.91
326.33
296.08
261.49
222.44
179.37
133.11
84.68
35.10
-14.84
-64.63
-114.15
-163.59
-213.36
-264.01
-316.47
-372.29
-433.51
-501.67
-576.25
-653.30
-725.39
-783.31
-819.17
-829.37
-815.97
-785.64
-746.81
-706.60
-668.97
-634.74
-602.87
-571.95
-540.99
-509.29
-476.03
-440.19
-400.95
-358.33
-313.36
-267.66
-222.77
-179.37
-137.06
-94.74
-51.33
-6.51
39.27
84.88
129.26
171.95
213.26
254.22
296.43
341.89
392.51
449.04
509.73
569.47
620.19
652.92
660.76
641.37
597.79
537.00
467.11
394.79
323.81
255.51
189.98
127.18
67.17
9.53
-47.43
-106.86
-172.46
-246.60
-328.30
-412.22
-489.16
-548.85
-583.58
-591.11
-575.46
-545.12
-509.51
-475.58
-446.20
-420.80
-397.49
-375.08
-353.89
-335.15
-319.68
-307.04
-295.68
-283.75
-270.11
-254.77
-238.78
-223.44
-209.44
-196.53
-183.56
-169.08
-151.97
-131.95
-109.57
-85.85
-61.76
-37.85
-14.20
9.30
32.53
54.91
75.46
93.19
107.56
118.80
127.86
136.05
144.50
153.69
163.50
173.37
182.81
191.66
200.30
209.49
220.38
234.34
252.62
275.62
301.79
327.01
344.94
349.11
335.69
305.79
265.92
225.90
195.32
180.31
182.20
198.33
224.08
254.62
285.55
312.66
331.78
339.40
333.92
316.63
291.48
263.53
236.94
213.39
192.01
170.60
147.37
122.26
97.20
75.41
60.02
52.92
54.02
61.34
71.60
81.38
87.86
89.44
85.82
77.71
66.55
53.98
41.59
30.56
21.43
14.10
8.02
2.67
-1.95
-5.23
-6.05
-3.32
3.38
13.48
25.47
37.34
47.21
53.85
56.96
57.03
54.97
51.72
48.00
44.26
40.81
38.06
36.53
36.70
38.71
42.09
45.70
48.07
47.96
44.89
39.44
33.08
27.67
24.78
25.25
28.84
34.37
40.04
44.12
45.66
45.09
44.30
46.08
52.91
65.47
81.69
97.00
105.70
103.18
87.90
62.26
32.05
4.76
-12.61
-15.44
-2.64
23.30
57.09
92.11
122.01
142.07
149.95
145.70
131.21
109.34
83.19
55.34
27.59
0.56
-26.38
-54.90
-87.24
-125.65
-172.01
-227.32
-290.98
-360.01
-428.65
-488.78
-531.84
-551.33
-545.07
-515.82
-469.81
-413.89
-352.97
-289.27
-223.90
-159.27
-100.60
-54.97
-28.27
-21.76
-30.39
-44.28
-52.59
-47.84
-28.54
0.92
33.29
62.04
83.77
98.35
107.09
110.47
107.04
94.23
70.59
37.95
2.15
-28.50
-46.21
-47.05
-32.56
-9.32
13.51
27.51
27.72
13.79
-10.27
-37.63
-60.79
-73.45
-71.88
-55.44
-26.30
11.38
52.51
91.69
123.69
143.61
147.61
134.01
104.63
65.38
25.36
-5.61
-20.25
-16.32
2.73
29.41
55.26
73.81
82.28
81.38
73.86
62.67
49.73
35.78
21.08
6.10
-8.01
-19.79
-28.25
-33.51
-37.00
-40.85
-46.91
-55.82
-66.65
-77.21
-84.84
-87.24
-83.04
-71.85
-54.13
-31.06
-4.47
23.24
49.30
71.12
86.81
95.43
96.91
91.72
80.49
64.12
43.95
21.94
0.56
-17.80
-31.47
-39.84
-43.16
-41.95
-36.60
-27.33
-14.68
-0.04
14.43
26.37
34.28
38.15
39.35
39.83
40.96
42.86
44.32
43.37
38.04
27.05
10.20
-11.41
-35.34
-58.01
-75.33
-83.79
-81.66
-69.66
-50.72
-28.77
-7.32
11.63
27.41
39.87
48.28
50.97
46.14
33.17
13.86
-7.44
-25.14
-34.59
-34.02
-25.21
-12.40
-0.19
8.57
13.82
17.63
22.52
29.75
38.44
46.21
50.66
50.74
47.18
41.97
37.16
33.95
32.49
32.34
33.13
35.14
38.95
44.96
53.08
62.50
71.98
80.17
85.99
89.00
90.09
90.93
93.57
99.87
110.90
126.70
146.31
168.08
190.30
212.42
233.93
253.62
269.15
277.24
274.70
259.66
232.41
195.62
155.22
117.45
87.22
67.05
56.97
55.13
58.36
62.75
64.33
61.88
55.40
45.88
34.65
22.98
11.98
2.41
-5.34
-23.35
-57.64
-107.16
-163.60
-216.17
-257.41
-285.39
-302.17
-311.14
-315.14
-313.93
-306.40
-292.12
-272.46
-250.51
-230.08
-214.50
-205.82
-204.47
-208.07
-212.99
-216.51
-217.67
-217.40
-217.57
-219.94
-225.32
-233.72
-243.92
-253.60
-259.91
-259.51
-248.39
-222.49
-179.28
-119.20
-45.37
30.84
97.37
146.38
176.19
190.20
193.77
191.28
185.04
175.81
164.06
151.88
141.82
135.31
131.70
131.20
129.41
122.99
111.09
94.99
77.97
63.23
52.40
45.05
37.55
29.11
19.31
8.96
-0.04
-4.57
-1.63
10.63
32.52
61.50
92.80
118.67
131.79
127.99
108.39
78.81
47.33
21.22
4.44
-2.67
-4.67
-6.11
-9.14
-12.97
-15.93
-17.70
-20.38
-27.92
-41.00
-62.17
-91.83
-128.23
-168.22
-209.59
-252.27
-297.85
-348.15
-389.19
-410.92
-410.52
-393.06
-365.06
-328.97
-283.04
-225.08
-156.11
-81.66
-12.87
40.13
72.55
86.38
88.11
84.63
80.30
76.53
73.05
67.67
59.73
50.55
42.43
37.13
34.64
33.69
33.02
32.49
31.89
31.93
33.49
37.02
42.27
47.88
52.09
54.22
54.81
54.66
54.61
54.82
54.47
52.49
47.54
38.86
27.77
16.96
9.31
6.79
9.58
15.92
23.95
31.80
38.59
46.04
57.24
75.72
104.66
146.54
198.95
259.55
324.02
377.92
405.92
396.11
346.37
266.66
174.96
89.22
22.12
-22.88
-50.12
-66.38
-77.37
-85.63
-91.15
-93.50
-94.88
-97.69
-104.87
-118.54
-138.32
-162.16
-187.49
-212.98
-234.88
-253.45
-267.95
-275.55
-271.78
-252.35
-216.36
-167.99
-115.52
-68.15
-33.06
-12.18
-3.22
-2.10
-5.11
-9.94
-15.62
-21.26
-25.27
-26.21
-22.79
-15.10
-4.77
6.11
16.00
24.60
33.19
44.04
58.94
78.57
101.76
125.67
145.00
157.29
161.98
160.57
155.81
150.55
147.06
146.57
149.25
153.95
158.33
158.35
149.47
128.43
95.21
53.83
11.42
-24.54
-49.18
-61.63
-64.88
-63.33
-60.29
-56.77
-52.12
-45.47
-37.19
-29.10
-23.26
-20.87
-21.36
-22.62
-22.05
-17.92
-10.20
-0.70
7.66
12.22
11.63
6.41
-1.42
-9.01
-14.31
-16.91
-18.01
-19.72
-23.97
-31.37
-41.16
-51.88
-61.45
-69.12
-73.39
-72.06
-63.02
-45.86
-23.48
-2.07
11.20
11.50
-1.12
-21.45
-41.98
-56.95
-64.25
-65.73
-65.07
-64.88
-65.27
-64.90
-61.49
-54.57
-45.45
-36.22
-28.37
-22.27
-17.01
-11.07
-3.52
5.69
15.50
24.32
30.74
34.23
35.20
34.92
34.76
35.72
38.15
41.55
45.27
48.28
50.04
50.51
49.89
48.62
47.19
45.96
45.14
44.89
45.30
46.44
48.05
49.59
50.03
48.69
45.31
40.04
33.49
26.37
19.18
11.82
3.58
-6.83
-20.01
-35.71
-52.85
-69.81
-85.20
-98.22
-109.13
-116.60
-122.93
-129.83
-138.29
-148.95
-161.85
-175.78
-187.65
-192.84
-186.75
-167.43
-136.59
-99.81
-64.94
-38.65
-23.78
-18.73
-19.00
-19.85
-18.68
-14.81
-8.78
-0.82
9.56
23.34
41.01
61.72
83.40
103.22
117.76
126.50
130.22
130.51
129.18
127.53
125.94
123.98
120.59
115.19
107.95
99.59
91.24
84.08
78.91
75.78
74.05
72.48
70.12
66.46
61.44
55.63
49.88
45.01
41.30
39.17
37.04
33.76
28.61
21.56
13.46
5.80
0.12
-2.65
-2.53
-0.60
1.83
3.60
4.23
4.28
4.86
7.09
11.59
18.58
28.09
40.15
53.77
66.57
74.78
74.25
62.49
40.15
11.54
-17.23
-38.98
-50.34
-52.15
-47.94
-42.16
-37.07
-33.41
-31.22
-30.88
-33.43
-40.16
-50.98
-63.24
-72.31
-72.78
-60.73
-35.92
-2.37
32.91
62.31
80.69
87.15
84.49
78.10
73.36
73.54
79.18
88.45
98.32
106.07
110.15
110.06
106.85
102.45
98.85
97.43
98.44
100.90
102.86
105.53
108.34
110.63
111.89
111.80
110.17
106.79
101.46
94.23
85.13
74.31
62.80
52.04
42.89
35.24
28.11
20.06
10.08
-2.32
-17.50
-35.76
-57.82
-84.46
-114.93
-145.57
-169.71
-179.39
-169.38
-138.47
-89.02
-25.22
48.75
129.17
212.25
291.86
359.49
402.87
413.31
390.29
342.35
283.03
224.81
175.89
137.28
106.21
72.65
29.95
-21.90
-77.00
-128.78
-174.24
-212.73
-248.12
-283.35
-329.34
-391.44
-466.82
-545.47
-616.75
-675.51
-720.02
-755.95
-788.77
-835.07
-904.51
-995.98
-1097.65
-1194.26
-1274.94
-1331.16
-1362.91
-1289.84
-1072.56
-731.74
-342.37
18.21
308.32
500.53
624.31
702.35
749.02
759.71
731.42
669.83
586.52
500.22
424.22
367.88
331.92
318.08
307.76
299.43
298.52
312.22
343.19
391.31
446.09
491.08
515.94
513.20
486.90
447.58
408.66
380.86
367.47
366.46
371.64
378.48
381.96
381.37
377.46
372.19
367.61
364.09
360.55
354.81
345.31
329.33
304.78
269.54
223.60
170.69
117.93
73.48
43.82
31.07
31.63
38.02
41.84
37.80
25.87
9.85
-6.24
-20.14
-32.29
-44.93
-60.36
-79.89
-103.69
-131.23
-162.03
-196.83
-235.74
-277.65
-320.04
-359.89
-394.82
-423.62
-446.47
-465.08
-485.25
-512.14
-547.20
-586.25
-620.61
-639.79
-634.76
-601.05
-540.23
-464.55
-386.31
-311.64
-239.07
-164.49
-87.14
-12.12
51.30
93.90
102.17
72.13
12.58
-59.04
-126.61
-182.56
-227.98
-268.40
-309.34
-365.56
-446.17
-550.20
-667.79
-787.00
-898.69
-996.27
-1073.74
-1053.82
-897.36
-624.94
-308.53
-21.55
197.16
343.43
431.61
480.97
507.37
509.63
485.45
439.25
383.66
332.53
294.64
270.50
258.60
255.17
247.37
226.14
190.97
149.41
110.80
81.19
61.89
51.51
47.40
41.82
30.07
13.40
-1.08
-8.19
-4.25
11.12
36.27
68.19
101.01
130.00
153.14
170.95
184.67
195.11
201.91
204.41
201.90
193.19
177.95
157.09
132.46
105.99
79.52
54.24
31.11
10.84
-5.98
-19.05
-28.44
-34.65
-38.56
-40.81
-41.78
-41.40
-39.28
-34.94
-28.30
-19.86
-10.76
-2.42
4.21
8.98
12.86
17.66
25.33
37.36
54.20
75.33
99.86
127.06
156.89
189.90
226.73
267.42
311.48
358.24
407.26
458.03
508.98
556.39
594.15
615.41
615.11
592.42
551.69
500.74
447.49
396.88
349.90
305.36
262.87
224.69
194.88
176.40
167.92
162.94
152.13
127.70
87.24
34.69
-21.60
-72.98
-113.72
-142.10
-159.12
-166.42
-164.83
-154.40
-135.45
-109.54
-79.84
-50.50
-26.00
-10.20
-5.81
-14.18
-35.32
-68.25
-111.37
-162.53
-218.74
-275.52
-326.63
-364.73
-383.34
-379.32
-354.65
-316.37
-274.43
-238.16
-213.23
-200.17
-195.17
-192.55
-187.66
-178.87
-168.08
-159.90
-159.56
-170.80
-194.06
-225.78
-259.32
-286.86
-301.78
-300.67
-283.96
-254.96
-218.05
-176.77
-132.86
-86.61
-37.76
13.59
66.70
120.38
173.02
221.82
261.88
286.29
287.54
260.69
206.32
131.60
48.45
-30.76
-97.67
-149.95
-190.06
-221.94
-247.62
-266.34
-275.99
-275.69
-267.34
-254.95
-242.44
-231.48
-220.99
-208.34
-191.61
-171.24
-150.09
-131.96
-119.74
-114.11
-113.64
-115.77
-118.03
-118.88
-118.13
-116.38
-114.42
-112.65
-110.66
-107.41
-101.67
-92.60
-80.12
-65.05
-48.74
-32.65
-17.92
-5.11
5.69
14.65
21.91
27.50
31.35
33.51
34.39
34.69
35.39
37.36
41.17
46.86
54.07
62.24
70.96
80.27
90.57
102.50
116.50
132.59
150.29
168.82
187.39
205.47
223.06
240.53
258.47
277.65
298.86
322.78
349.48
377.90
405.49
428.50
443.07
446.55
438.64
421.44
398.55
373.60
349.00
325.57
303.00
280.75
258.66
237.03
216.10
195.71
175.17
153.68
130.82
106.92
82.90
60.02
39.29
21.09
5.31
-8.60
-21.21
-32.75
-42.96
-51.07
-56.04
-56.93
-53.37
-45.86
-35.78
-25.02
-15.49
-8.63
-5.10
-4.86
-7.38
-11.89
-17.57
-23.55
-28.83
-32.51
-33.87
-32.70
-29.48
-25.25
-21.25
-18.43
-17.17
-17.15
-17.61
-17.81
-17.34
-16.17
-14.47
-12.29
-9.43
-5.49
-0.23
6.23
13.31
20.25
26.41
31.49
35.42
38.09
39.09
37.61
32.75
24.03
11.88
-2.28
-16.23
-27.65
-34.81
-37.07
-35.04
-30.39
-25.30
-21.95
-22.02
-26.38
-34.95
-46.72
-59.91
-72.36
-81.93
-87.02
-86.92
-81.91
-73.11
-62.12
-50.48
-39.39
-29.56
-21.30
-14.66
-9.62
-6.17
-4.12
-3.12
-2.58
-1.78
-0.05
3.05
7.53
12.88
17.99
21.41
21.67
18.00
10.85
2.23
-4.76
-6.91
-2.27
8.93
24.20
39.67
51.47
57.05
55.70
48.39
36.92
23.14
8.45
-6.19
-20.07
-32.57
-43.02
-50.82
-55.60
-57.23
-55.98
-52.36
-47.12
-41.05
-34.79
-28.68
-22.70
-16.54
-9.72
-1.71
7.97
19.62
33.19
48.06
62.90
75.73
84.38
87.26
84.00
75.85
65.44
55.82
49.38
46.84
47.01
47.33
44.95
37.91
25.90
10.28
-6.52
-21.93
-34.09
-42.24
-46.66
-48.20
-47.92
-46.68
-45.18
-44.06
-44.10
-46.22
-51.26
-59.55
-70.57
-82.87
-94.39
-103.10
-107.64
-107.68
-103.95
-97.80
-90.88
-84.75
-80.56
-78.70
-78.48
-77.81
-73.51
-62.30
-42.23
-13.87
19.28
51.71
77.66
92.78
95.27
85.72
66.22
39.38
7.78
-26.14
-59.71
-90.03
-114.13
-129.51
-134.65
-129.36
-114.77
-93.19
-67.62
-41.28
-17.03
2.99
17.61
26.55
30.23
29.60
25.95
20.73
15.46
11.48
9.82
11.05
15.34
22.41
31.62
41.78
51.33
58.49
61.86
60.97
56.59
50.50
44.82
41.23
40.44
42.14
45.49
49.55
53.66
57.44
60.61
62.88
63.94
63.64
62.20
60.19
58.32
57.17
56.87
57.14
57.38
57.14
56.38
55.58
55.60
57.18
60.55
65.13
69.63
72.50
72.27
68.01
59.46
47.06
31.86
15.43
-0.43
-14.04
-24.29
-30.98
-34.73
-36.61
-37.55
-37.88
-37.31
-35.34
-31.64
-26.50
-20.73
-15.36
-11.20
-8.69
-7.79
-8.21
-9.55
-11.44
-13.50
-15.38
-16.77
-17.44
-17.33
-16.56
-15.42
-14.25
-13.37
-12.92
-12.83
-12.83
-12.56
-11.76
-10.39
-8.68
-6.97
-5.50
-4.35
-3.30
-1.97
-0.01
2.80
6.39
10.40
14.23
17.12
18.42
17.75
15.37
12.03
8.90
7.12
7.46
10.03
14.39
19.71
25.14
29.97
33.79
36.33
37.42
36.93
34.82
31.28
26.86
22.44
19.00
17.29
17.52
19.31
21.80
24.04
25.41
25.71
25.13
23.96
22.36
20.30
17.61
14.18
10.10
5.72
1.44
-2.37
-5.53
-8.07
-10.16
-12.04
-13.85
-15.68
-17.52
-19.33
-21.01
-22.45
-23.46
-23.82
-23.30
-21.78
-19.31
-16.13
-12.58
-9.06
-5.91
-3.35
-1.42
-0.04
1.00
1.91
2.82
