1606972127.00
64.000000
-0.00
-0.00
-0.00
-0.00
-0.00
-0.00
-0.00
-0.00
-0.00
-0.00
0.00
0.01
0.01
-0.00
-0.03
-0.05
-0.05
0.00
0.13
0.36
0.66
1.01
1.37
1.72
2.06
2.40
2.79
3.24
3.80
4.42
5.06
5.66
6.20
6.68
7.15
7.68
8.31
9.14
10.09
11.04
11.88
12.56
13.14
13.76
14.65
15.96
17.91
20.32
22.90
25.38
27.58
29.57
31.68
34.32
37.81
42.54
48.15
54.10
59.83
64.97
69.58
74.14
79.34
85.71
93.76
103.00
112.62
121.73
129.77
136.75
143.30
150.75
157.77
166.64
177.95
191.79
206.97
220.57
228.25
225.36
208.53
176.87
132.76
80.05
23.07
-34.94
-92.44
-149.16
-205.23
-260.37
-313.74
-363.87
-409.83
-450.91
-486.50
-515.74
-537.23
-549.22
-549.96
-538.37
-514.21
-478.67
-433.88
-382.45
-327.02
-269.84
-212.63
-156.66
-102.95
-52.37
-5.90
35.58
71.43
101.35
125.50
144.38
158.69
169.15
176.37
180.75
182.57
182.07
179.51
175.23
169.65
163.18
156.15
148.81
141.30
133.69
126.02
118.33
110.69
103.16
95.80
88.68
81.83
75.25
68.95
62.95
57.25
51.86
46.78
42.03
37.59
33.45
29.61
26.07
22.81
19.83
17.11
14.67
12.48
10.54
8.83
7.35
6.07
4.97
4.05
3.27
2.62
2.09
1.65
1.30
1.01
0.79
0.61
0.47
0.37
0.29
0.23
0.18
0.15
0.14
0.13
0.14
0.15
0.17
0.19
0.22
0.25
0.29
0.33
0.37
0.41
0.46
0.50
0.55
0.60
0.65
0.71
0.77
0.84
0.92
1.00
1.09
1.19
1.31
1.43
1.58
1.73
1.91
2.10
2.31
2.55
2.80
3.09
3.40
3.75
4.12
4.53
4.97
5.45
5.97
6.53
7.13
7.78
8.47
9.20
9.98
10.82
11.68
12.60
13.57
14.60
15.69
16.85
18.06
19.32
20.58
21.80
22.89
23.77
24.31
24.39
23.90
22.77
20.94
18.42
15.28
11.60
7.58
3.38
-0.79
-4.71
-8.23
-11.20
-13.53
-15.18
-16.18
-16.57
-16.48
-16.06
-15.45
-14.78
-14.14
-13.54
-12.98
-12.36
-11.58
-10.64
-9.50
-8.15
-6.60
-4.83
-2.82
-0.51
2.14
5.23
8.60
12.10
15.57
18.84
21.80
24.46
26.90
29.33
31.95
34.59
37.08
39.20
40.78
41.78
42.36
42.92
43.95
45.97
48.73
51.88
54.93
57.36
58.93
59.77
60.38
61.51
63.86
67.07
70.45
72.96
73.44
70.93
64.79
54.61
39.61
23.23
6.39
-10.74
-28.60
-48.17
-70.75
-97.59
-129.15
-164.17
-199.09
-229.09
-248.57
-253.22
-241.70
-216.30
-182.14
-145.52
-112.13
-85.79
-68.74
-61.18
-61.90
-68.65
-78.51
-88.30
-95.13
-96.98
-92.97
-83.76
-70.72
-55.67
-40.35
-26.03
-13.22
-1.70
9.33
20.81
33.20
46.41
59.72
72.07
82.46
90.18
95.06
97.37
97.71
96.70
94.88
92.57
89.83
86.55
82.44
77.19
70.60
62.63
53.56
43.95
34.56
26.09
18.84
12.60
6.70
0.32
-7.08
-15.49
-24.43
-33.11
-40.83
-47.08
-51.51
-53.83
-53.76
-51.07
-45.91
-38.87
-30.82
-22.63
-14.76
-7.13
0.60
8.59
16.49
23.42
28.39
30.81
30.88
29.45
27.62
26.23
25.43
24.83
23.78
21.78
18.70
14.80
10.56
6.47
2.93
0.11
-2.03
-3.78
-5.60
-7.94
-10.96
-14.37
-17.37
-18.88
-17.98
-14.29
-8.18
-0.62
7.10
13.70
18.02
19.02
15.79
7.77
-4.71
-19.99
-35.10
-46.29
-50.38
-45.89
-33.65
-16.49
1.98
18.57
31.47
40.22
45.25
47.10
46.19
42.77
37.27
30.54
23.69
17.87
13.80
11.71
11.35
12.25
13.91
15.95
18.10
20.12
21.79
22.81
22.90
21.90
19.84
16.92
13.53
10.02
6.69
3.60
0.66
-2.33
-5.51
-8.84
-12.09
-14.90
-17.04
-18.58
-20.00
-22.07
-25.43
-30.29
-36.05
-41.47
-45.03
-45.54
-42.62
-36.95
-29.94
-23.20
-17.88
-14.28
-11.92
-9.85
-7.28
-3.92
-0.17
3.23
5.61
6.73
7.00
7.21
8.22
10.45
13.76
17.45
20.62
22.64
23.40
23.44
23.64
24.84
27.46
31.26
35.48
39.05
40.98
40.67
38.04
33.66
28.62
24.46
22.83
25.02
31.15
39.50
46.42
47.13
37.47
15.80
-15.92
-52.47
-87.14
-114.10
-130.11
-134.93
-130.37
-118.83
-102.30
-82.25
-60.27
-38.47
-19.40
-5.22
3.17
6.48
6.65
5.88
5.75
6.74
8.39
9.78
10.18
9.42
7.82
6.02
4.68
4.23
4.78
6.27
8.53
11.48
15.19
19.81
25.48
32.18
39.60
47.15
54.00
59.28
62.27
62.60
60.35
56.03
50.42
44.26
38.09
32.15
26.52
21.17
16.19
11.71
7.83
4.53
1.60
-1.17
-3.87
-6.33
-8.24
-9.30
-9.45
-8.91
-8.06
-7.25
-6.67
-6.41
-6.62
-7.56
-9.57
-12.69
-16.43
-19.72
-21.26
-20.06
-16.02
-9.98
-3.45
1.95
5.10
5.60
3.78
0.40
-3.67
-7.59
-10.70
-12.53
-12.88
-11.88
-10.01
-7.97
-6.41
-5.72
-5.86
-6.46
-7.02
-7.13
-6.65
-5.72
-4.70
-4.01
-4.06
-5.11
-7.10
-9.66
-11.98
-13.17
-12.47
-9.69
-5.23
0.02
5.07
9.27
12.43
14.79
16.77
18.60
20.27
21.53
22.08
21.75
20.58
18.72
16.42
13.88
11.26
8.72
6.50
4.92
4.28
4.72
6.09
7.92
9.53
10.25
9.73
7.98
5.37
2.38
-0.62
-3.52
-6.46
-9.60
-13.05
-16.74
-20.57
-24.43
-28.26
-31.94
-35.19
-37.51
-38.31
-37.20
-34.04
-29.18
-23.22
-16.83
-10.58
-4.81
0.26
4.49
7.63
9.46
9.84
8.84
6.73
3.97
1.01
-1.80
-4.25
-6.36
-8.16
-9.69
-10.93
-11.83
-12.32
-12.36
-11.96
-11.07
-9.57
-7.40
-4.54
-1.20
2.16
4.93
6.51
6.45
4.57
1.04
-3.76
-9.23
-14.66
-19.26
-22.24
-22.94
-20.95
-16.28
-9.36
-0.99
8.04
17.09
25.87
34.18
41.56
47.01
49.13
46.58
38.85
26.77
12.41
-1.57
-12.84
-20.18
-23.63
-24.06
-22.54
-19.76
-16.04
-11.50
-6.39
-1.27
3.22
6.57
8.62
9.49
9.53
8.99
8.03
6.69
5.01
3.02
0.78
-1.73
-4.55
-7.69
-10.98
-13.95
-15.85
-15.86
-13.41
-8.42
-1.50
6.26
13.60
19.59
23.93
26.94
29.32
31.74
34.62
38.16
42.43
47.18
51.51
53.41
50.06
38.75
18.32
-9.74
-41.25
-70.69
-93.29
-106.67
-111.26
-109.25
-102.87
-93.15
-79.93
-63.06
-43.62
-24.52
-9.67
-2.39
-4.00
-13.25
-27.04
-41.78
-54.62
-64.06
-69.64
-71.28
-68.77
-61.68
-49.83
-33.77
-14.99
4.31
21.87
35.96
45.86
51.81
54.71
55.61
55.31
54.21
52.48
50.37
48.29
46.78
46.19
46.35
46.53
45.70
42.95
37.93
30.95
22.79
14.47
6.92
0.95
-2.78
-3.75
-1.79
2.61
8.06
12.32
12.93
7.89
-3.37
-19.77
-38.64
-56.62
-70.58
-78.52
-79.93
-75.64
-67.24
-56.50
-44.86
-33.34
-22.63
-13.20
-5.42
0.51
4.62
7.19
8.70
9.60
10.20
10.55
10.61
10.36
9.86
9.26
8.60
7.82
6.70
5.11
3.15
1.18
-0.26
-0.66
0.21
2.24
4.99
7.84
10.15
11.39
11.25
9.65
6.65
2.39
-3.07
-9.73
-17.52
-26.01
-34.26
-40.72
-43.46
-40.66
-31.21
-15.09
6.45
31.16
56.30
79.17
97.60
110.22
116.47
116.51
111.14
101.63
89.67
77.20
66.12
57.92
53.32
52.18
53.55
56.01
58.01
58.27
55.99
50.98
43.63
34.76
25.35
16.29
8.17
1.22
-4.63
-9.57
-13.84
-17.66
-21.26
-24.90
-28.74
-32.81
-36.93
-40.81
-44.24
-47.09
-49.29
-50.66
-50.77
-49.12
-45.37
-39.65
-32.62
-25.29
-18.59
-12.99
-8.42
-4.46
-0.70
2.96
6.27
8.86
10.47
11.16
11.29
11.30
11.51
11.95
12.49
12.86
12.93
12.74
12.51
12.45
12.63
12.87
12.79
12.00
10.31
7.85
5.06
2.50
0.58
-0.58
-1.19
-1.64
-2.34
-3.52
-5.18
-7.21
-9.48
-11.92
-14.60
-17.66
-21.23
-25.28
-29.59
-33.62
-36.63
-37.85
-36.60
-32.59
-25.96
-17.29
-7.39
2.83
12.65
21.51
29.01
34.86
38.81
40.71
40.62
38.90
36.12
32.94
29.92
27.35
25.27
23.49
21.73
19.78
17.56
15.07
12.45
9.77
7.03
4.01
0.38
-4.11
-9.49
-15.40
-21.15
-25.98
-29.34
-31.18
-31.91
-32.30
-33.14
-34.99
-37.97
-41.84
-45.98
-49.60
-51.84
-51.96
-49.55
-44.58
-37.46
-29.01
-20.17
-11.77
-4.36
1.90
7.14
11.59
15.45
18.78
21.63
24.07
26.27
28.43
30.63
32.72
34.42
35.43
35.64
35.24
34.56
33.91
33.31
32.47
30.89
28.18
24.31
19.73
15.21
11.53
9.09
7.63
6.37
4.30
0.68
-4.48
-10.46
-16.02
-19.85
-20.90
-18.51
-12.59
-3.99
5.30
12.15
13.08
5.63
-10.31
-31.85
-53.95
-71.16
-79.72
-78.65
-69.56
-55.42
-39.07
-22.44
-6.61
7.63
19.38
27.68
32.00
32.71
31.00
28.55
26.83
26.60
27.81
29.74
31.46
32.18
31.52
29.52
26.57
23.15
19.56
15.78
11.47
6.20
-0.32
-8.04
-16.52
-25.11
-33.18
-40.32
-46.31
-51.07
-54.45
-56.14
-55.84
-53.42
-49.08
-43.36
-36.94
-30.41
-24.03
-17.75
-11.37
-4.76
1.97
8.44
14.15
18.67
21.75
23.41
23.78
23.03
21.27
18.56
15.05
11.02
6.98
3.46
0.91
-0.58
-1.35
-2.08
-3.52
-6.17
-10.07
-14.69
-19.13
-22.30
-23.22
-21.04
-15.19
-5.59
7.01
20.76
32.68
39.31
37.79
27.15
8.89
-13.23
-34.52
-50.80
-59.64
-60.40
-53.72
-40.59
-22.15
-0.00
23.19
43.60
57.04
60.61
54.03
40.11
23.81
10.26
2.93
2.60
7.67
15.38
23.18
29.51
33.83
36.23
36.78
35.36
31.81
26.19
19.13
11.75
5.33
0.82
-1.59
-2.52
-3.15
-4.70
-7.83
-12.45
-17.78
-22.73
-26.42
-28.45
-29.01
-28.63
-27.85
-26.90
-25.57
-23.28
-19.37
-13.51
-5.96
2.44
10.55
17.49
23.05
27.79
32.81
39.23
47.79
58.72
71.60
85.39
98.15
107.07
108.81
100.60
81.57
53.63
21.38
-9.29
-33.14
-47.17
-51.19
-47.22
-38.22
-27.11
-16.28
-7.68
-3.00
-3.46
-9.29
-19.36
-31.08
-41.00
-45.71
-42.92
-32.21
-15.48
3.33
19.17
27.22
24.52
10.98
-10.37
-34.35
-55.29
-68.91
-73.36
-69.30
-59.04
-45.37
-30.61
-16.34
-3.53
7.12
14.99
19.71
21.33
20.50
18.37
16.24
15.13
15.46
17.07
19.29
21.36
22.62
22.83
22.16
21.07
20.12
19.67
19.83
20.36
20.86
20.91
20.28
18.95
17.03
14.73
12.22
9.62
7.05
4.71
2.86
1.75
1.39
1.34
0.63
-1.99
-7.60
-16.65
-28.62
-42.06
-54.83
-64.70
-69.77
-68.94
-62.33
-51.44
-39.00
-28.36
-22.42
-22.61
-28.21
-36.73
-44.85
-49.66
-49.41
-43.50
-32.19
-16.41
2.05
20.22
34.16
40.02
35.63
21.80
2.37
-17.15
-31.82
-39.00
-38.70
-32.68
-22.85
-10.39
4.04
19.37
33.31
42.54
43.90
36.00
20.17
0.17
-19.16
-33.74
-41.49
-42.59
-38.74
-32.08
-24.34
-16.59
-9.50
-3.63
0.36
1.98
1.27
-0.95
-3.20
-3.87
-1.84
2.99
9.68
16.72
22.68
26.79
29.12
30.36
31.38
32.79
34.73
36.93
38.93
40.25
40.66
40.20
39.22
38.24
37.73
37.87
38.40
38.72
38.17
36.43
33.77
31.01
29.22
29.43
32.32
38.13
46.68
57.25
68.66
79.23
87.13
90.87
89.68
83.76
74.07
61.86
48.25
34.01
19.61
5.36
-8.39
-21.28
-32.88
-42.72
-50.27
-54.94
-56.26
-54.14
-49.05
-41.96
-34.09
-26.42
-19.52
-13.41
-7.84
-2.56
2.44
6.90
10.52
13.12
14.88
16.26
17.86
20.06
22.89
25.92
28.48
29.92
29.90
28.49
26.08
23.14
20.01
16.77
13.25
9.18
4.37
-1.12
-7.02
-12.92
-18.49
-23.52
-28.10
-32.38
-36.48
-40.37
-43.94
-47.09
-49.80
-52.00
-53.41
-53.42
-51.25
-46.26
-38.38
-28.35
-17.57
-7.66
0.09
5.03
7.26
7.34
6.00
3.84
1.28
-1.43
-3.99
-6.08
-7.35
-7.63
-6.95
-5.59
-3.92
-2.17
-0.33
1.84
4.60
7.91
11.23
13.58
13.88
11.37
6.04
-1.41
-9.84
-18.24
-26.24
-34.31
-43.44
-54.54
-67.74
-82.08
-95.72
-106.59
-113.06
-114.42
-110.93
-103.39
-92.77
-80.05
-66.23
-52.39
-39.68
-29.08
-21.00
-15.16
-10.57
-6.02
-0.52
6.22
13.62
20.45
25.23
26.84
24.95
20.30
14.61
10.03
8.43
10.68
16.20
23.13
29.01
31.75
30.40
25.55
19.01
12.98
9.07
7.68
7.89
8.07
6.70
3.06
-2.47
-8.75
-14.17
-16.92
-15.23
-7.74
5.66
22.84
38.91
47.04
40.81
17.16
-21.55
-67.71
-110.95
-141.99
-155.66
-151.88
-134.32
-107.80
-76.21
-41.96
-6.67
27.68
58.28
82.07
97.00
102.98
102.03
97.38
92.18
88.29
85.91
83.86
80.57
75.07
67.45
58.88
50.96
44.94
41.17
39.10
37.66
35.89
33.39
30.39
27.51
25.31
24.02
23.39
22.84
21.72
19.45
15.71
10.37
3.43
-5.00
-14.74
-25.55
-37.03
-48.49
-58.91
-67.04
-71.59
-71.64
-67.04
-58.44
-47.16
-34.67
-22.15
-10.22
0.93
11.24
20.45
28.06
33.55
36.69
37.79
37.56
36.85
36.24
35.89
35.57
34.94
33.83
32.30
30.70
29.40
28.73
28.80
29.49
30.40
30.94
30.50
28.61
25.20
20.60
15.45
10.28
5.39
0.67
-4.13
-9.14
-14.19
-18.96
-23.28
-27.33
-31.59
-36.47
-41.86
-46.98
-50.65
-51.82
-50.02
-45.59
-39.44
-32.58
-25.78
-19.41
-13.59
-8.28
-3.50
0.72
4.37
7.40
9.78
11.42
12.30
12.58
12.60
12.85
13.79
15.61
18.13
20.82
22.97
23.99
23.61
21.95
19.41
16.49
13.52
10.56
7.50
4.13
0.44
-3.30
-6.51
-8.59
-9.18
-8.31
-6.49
-4.60
-3.65
-4.68
-8.55
-15.75
-26.01
-38.13
-49.97
-59.00
-63.18
-61.82
-55.94
-47.84
-40.07
-34.27
-30.64
-27.97
-24.64
-19.43
-12.14
-3.55
5.13
12.84
19.04
23.64
26.89
29.03
30.26
30.72
30.54
29.96
29.33
29.02
29.36
30.56
32.58
35.19
38.00
40.59
42.67
44.10
44.90
45.09
44.65
43.39
41.17
37.90
33.75
29.08
24.32
19.74
15.31
10.79
5.87
0.45
-5.31
-11.00
-16.23
-20.77
-24.53
-27.45
-29.32
-29.77
-28.42
-25.14
-20.19
-14.19
-7.94
-2.15
2.71
6.42
8.91
10.22
10.44
9.82
8.78
7.87
7.65
8.50
10.52
13.47
16.88
20.15
22.78
24.44
25.09
24.80
23.68
21.71
18.75
14.68
9.45
3.25
-3.57
-10.53
-17.15
-22.95
-27.43
-30.13
-30.71
-29.14
-25.90
-22.00
-18.72
-17.28
-18.37
-21.88
-26.95
-32.26
-36.57
-39.20
-40.27
-40.60
-41.29
-43.06
-45.85
-48.57
-49.46
-46.60
-38.46
-24.31
-4.61
18.64
41.81
59.85
67.55
61.20
40.30
8.38
-27.82
-60.58
-83.79
-94.66
-94.01
-84.93
-71.09
-55.39
-39.65
-25.04
-12.44
-2.64
4.09
8.28
11.22
14.51
19.25
25.54
32.35
37.89
40.38
38.76
33.08
24.45
14.68
5.51
-1.84
-7.00
-10.29
-12.38
-13.90
-15.25
-16.43
-17.24
-17.32
-16.24
-13.65
-9.36
-3.47
3.62
11.19
18.49
24.90
30.15
34.29
37.52
40.03
41.83
42.72
42.50
41.09
38.66
35.60
32.37
29.41
27.00
25.21
23.97
23.07
22.18
20.95
19.08
16.46
13.30
10.04
7.26
5.34
4.32
3.87
3.46
2.66
1.30
-0.50
-2.54
-4.75
-7.39
-10.87
-15.51
-21.21
-27.42
-33.29
-38.08
-41.37
-43.20
-43.78
-43.31
-41.79
-38.97
-34.65
-28.83
-21.87
-14.49
-7.45
-1.43
3.24
6.55
8.78
10.32
11.55
13.01
15.51
20.14
27.85
38.55
50.40
59.83
62.55
55.42
38.05
13.34
-13.59
-37.35
-54.31
-63.35
-65.31
-61.58
-53.12
-40.47
-24.68
-8.19
5.23
11.73
9.00
-2.46
-19.47
-37.50
-52.49
-62.23
-66.72
-67.47
-66.32
-64.54
-62.50
-59.84
-55.95
-50.42
-43.21
-34.64
-25.31
-15.81
-6.60
2.08
10.17
17.63
24.33
29.93
34.00
36.28
36.82
36.09
34.76
33.43
32.41
31.60
30.70
29.35
27.46
25.28
23.26
21.84
21.21
21.18
21.15
20.33
18.04
14.06
8.76
3.08
-1.80
-4.99
-6.36
-6.74
-7.64
-10.70
-16.78
-25.52
-35.34
-44.23
-50.72
-54.81
-58.09
-63.06
-72.02
-85.98
-104.24
-124.43
-143.13
-156.31
-159.84
-150.29
-125.91
-87.88
-40.83
8.04
51.06
82.91
102.55
113.27
120.59
129.14
140.20
151.27
157.83
156.11
145.29
127.84
108.00
89.50
73.88
60.27
46.80
32.39
17.93
6.17
0.32
2.20
11.08
23.90
36.47
45.16
48.16
45.88
40.37
34.29
29.86
28.31
29.78
33.70
39.16
45.23
51.09
55.91
58.78
58.75
55.08
47.55
36.86
24.63
13.15
4.65
0.53
0.82
4.23
8.74
12.40
14.03
13.44
11.21
8.14
4.81
1.45
-1.98
-5.54
-9.21
-12.98
-16.86
-20.85
-24.74
-27.85
-28.96
-26.68
-20.00
-8.89
5.40
20.58
33.96
43.13
46.46
43.27
33.72
18.76
0.14
-19.61
-37.44
-50.47
-56.92
-56.96
-52.77
-47.78
-45.22
-46.80
-52.12
-59.20
-65.62
-69.77
-71.46
-71.54
-71.12
-70.71
-69.93
-67.91
-63.90
-57.79
-50.17
-42.02
-34.23
-27.35
-21.43
-16.18
-11.25
-6.33
-1.28
3.95
9.37
15.02
20.88
26.76
32.15
36.13
37.57
35.50
29.71
21.16
11.85
4.27
0.60
1.72
6.94
14.17
20.59
23.63
21.85
15.49
6.48
-2.24
-7.78
-8.47
-4.50
2.32
9.63
15.78
20.65
25.59
32.45
42.49
55.74
71.15
87.28
103.01
117.67
130.80
141.70
149.34
152.59
150.90
144.52
134.46
122.22
109.23
96.58
85.01
74.86
66.23
59.00
52.96
47.82
43.39
39.42
35.43
30.49
23.16
11.94
-3.97
-23.99
-45.94
-66.54
-82.54
-91.82
-93.95
-89.99
-81.72
-70.66
-57.66
-43.12
-27.85
-13.95
-4.79
-4.13
-14.25
-34.43
-60.47
-85.99
-104.84
-113.53
-112.36
-104.58
-94.39
-84.78
-76.61
-69.09
-61.17
-52.68
-44.63
-38.39
-34.81
-33.63
-33.72
-33.67
-32.57
-30.30
-27.45
-24.85
-23.10
-22.17
-21.34
-19.48
-15.60
-9.40
-1.61
6.14
11.99
14.58
13.72
10.41
6.37
3.26
1.95
2.27
3.32
4.09
3.96
2.96
1.66
0.80
1.01
2.88
6.94
13.50
22.13
31.12
37.40
37.37
28.37
10.12
-14.82
-41.81
-65.84
-83.26
-92.46
-93.49
-86.96
-73.27
-52.82
-26.92
1.46
27.90
47.81
58.06
58.07
49.82
36.70
22.17
8.66
-2.72
-11.80
-18.70
-23.38
-25.38
-24.02
-18.81
-9.95
1.32
12.83
21.98
26.68
26.16
21.26
13.85
5.91
-1.32
-7.51
-12.71
-16.64
-18.40
-16.97
-12.11
-5.06
1.68
5.30
4.18
-1.25
-8.63
-14.67
-16.65
-13.35
-5.25
6.10
18.96
31.94
44.22
55.18
64.24
70.75
74.13
74.07
70.73
64.71
56.96
48.59
40.71
34.19
29.44
26.28
24.02
21.79
18.88
15.05
10.48
5.65
0.97
-3.37
-7.29
-10.73
-13.49
-15.34
-16.17
-16.18
-15.95
-16.20
-17.53
-20.16
-23.76
-27.62
-30.90
-33.00
-33.80
-33.79
-33.93
-35.23
-38.29
-42.98
-48.29
-52.67
-54.57
-52.92
-47.41
-38.56
-27.49
-15.80
-5.34
2.09
5.18
3.59
-1.74
-8.75
-14.96
-18.26
-17.68
-13.48
-6.77
1.06
8.94
16.20
22.53
27.68
31.43
33.58
34.03
32.85
30.20
26.37
21.63
16.27
10.47
4.34
-2.07
-8.75
-15.47
-21.85
-27.42
-31.82
-34.99
-37.12
-38.49
-39.18
-38.93
-37.35
-34.21
-29.75
-24.72
-20.10
-16.67
-14.65
-13.73
-13.27
-12.69
-11.80
-10.75
-9.90
-9.52
-9.61
-9.96
-10.24
-10.18
-9.67
-8.63
-6.90
-4.18
-0.04
5.89
13.65
22.85
32.65
41.93
49.56
54.71
56.98
56.49
53.79
49.66
44.87
39.97
35.18
30.35
25.22
19.52
13.25
6.68
0.26
-5.60
-10.59
-14.67
-18.02
-20.90
-23.60
-26.41
-29.44
-32.64
-35.68
-38.06
-39.14
-38.47
-35.86
-31.57
-26.16
-20.30
-14.58
-9.32
-4.51
0.09
4.76
9.66
14.63
19.23
22.97
25.49
26.93
27.78
28.79
30.50
33.02
35.95
38.75
41.02
42.81
44.46
46.34
48.45
50.39
51.70
52.16
52.04
51.80
51.64
51.03
48.79
43.55
34.46
21.57
5.94
-10.82
-26.96
-40.96
-51.65
-58.25
-60.48
-58.81
-54.58
-49.81
-46.68
-46.82
-50.64
-57.19
-64.45
-70.04
-72.01
-69.55
-63.23
-54.79
-46.44
-39.73
-34.61
-29.00
-19.20
-1.27
27.19
65.52
109.50
152.17
185.79
204.12
204.23
187.19
157.39
121.12
84.75
53.35
29.88
15.10
7.88
5.90
6.36
6.52
4.25
-1.71
-11.59
-24.63
-39.21
-53.24
-64.65
-71.85
-74.19
-72.09
-66.88
-60.30
-54.02
-49.04
-45.61
-43.30
-41.31
-38.90
-35.67
-31.61
-27.08
-22.56
-18.47
-14.98
-12.05
-9.49
-7.17
-5.05
-3.23
-1.81
-0.77
0.04
0.80
1.59
2.21
2.22
1.12
-1.39
-5.24
-10.00
-15.07
-19.90
-24.16
-27.69
-30.52
-32.72
-34.41
-35.80
-37.24
-39.21
-42.10
-46.01
-50.60
-55.04
-58.25
-59.27
-57.62
-53.44
-47.45
-40.59
-33.73
-27.34
-21.50
-16.09
-10.86
-5.68
-0.51
4.56
9.38
13.72
17.30
19.94
21.59
22.46
22.88
23.15
23.33
23.17
22.20
20.09
16.85
13.04
9.56
7.28
6.59
7.18
8.15
8.35
7.06
4.30
0.95
-1.65
-2.18
0.17
5.36
12.56
20.09
25.66
26.83
21.58
9.13
-9.45
-31.25
-52.28
-68.64
-77.87
-79.48
-74.70
-65.59
-53.99
-41.08
-27.47
-13.81
-1.05
9.48
16.66
20.10
20.46
19.16
17.80
17.46
18.33
19.81
20.94
20.97
19.71
17.48
14.93
12.58
10.66
9.06
7.50
5.78
3.92
2.13
0.72
-0.15
-0.48
-0.50
-0.54
-0.93
-1.92
-3.68
-6.20
-9.32
-12.59
-15.31
-16.63
-15.81
-12.51
-7.01
-0.15
7.03
13.66
19.44
24.60
29.70
35.16
40.98
46.66
51.49
54.89
56.62
56.85
55.99
54.52
52.88
51.42
50.47
50.27
50.88
52.10
53.47
54.41
54.37
53.09
50.56
47.01
42.75
38.02
32.94
27.60
22.09
16.56
11.21
6.11
1.18
-3.83
-9.22
-15.22
-21.91
-29.21
-36.94
-44.83
-52.53
-59.49
-64.95
-68.16
-68.59
-66.21
-61.56
-55.53
-49.01
-42.52
-36.07
-29.31
-21.85
-13.70
-5.34
2.32
8.28
11.89
13.09
12.52
11.18
10.01
9.42
9.14
8.44
6.63
3.54
-0.27
-3.71
-5.67
-5.52
-3.35
0.17
4.18
7.76
9.98
9.72
5.83
-2.59
-15.57
-31.99
-49.79
-66.72
-81.20
-92.70
-101.51
-107.97
-111.70
-111.47
-105.84
-94.21
-77.63
-58.86
-41.53
-28.70
-21.77
-19.97
-20.79
-21.12
-18.47
-11.75
-1.34
11.51
25.49
39.88
54.62
69.93
85.75
101.35
115.35
126.24
132.91
135.05
133.13
127.92
120.12
110.08
97.93
83.93
68.75
53.45
39.18
26.67
15.98
6.60
-2.21
-10.88
-19.40
-27.38
-34.35
-40.09
-44.68
-48.50
-52.00
-55.57
-59.48
-63.82
-68.41
-72.74
-75.98
-77.21
-75.78
-71.66
-65.44
-58.18
-50.85
-44.02
-37.66
-31.37
-24.74
-17.59
-10.08
-2.56
4.62
11.25
17.31
22.93
28.41
34.15
40.47
47.40
54.38
60.27
63.61
63.14
58.40
49.96
39.36
28.48
19.00
11.87
7.31
5.03
4.59
5.55
7.47
9.79
11.69
12.26
10.77
6.89
0.91
-6.32
-13.60
-19.76
-23.87
-25.55
-24.97
-22.85
-20.16
-17.95
-17.08
-18.09
-21.19
-26.27
-32.98
-40.66
-48.50
-55.53
-60.87
-63.86
-64.21
-61.94
-57.13
-49.82
-39.88
-27.21
-12.05
4.80
21.87
37.35
49.55
57.37
60.68
60.20
57.20
52.97
48.48
44.26
40.62
37.77
35.96
35.35
35.77
36.61
36.91
35.76
32.65
27.76
21.81
15.65
9.97
5.07
1.05
-1.88
-3.28
-2.66
0.05
4.07
7.60
8.31
4.13
-5.87
-20.98
-38.97
-56.72
-71.14
-79.93
-82.00
-77.49
-67.46
-53.48
-37.29
-20.56
-4.68
9.30
20.80
29.64
35.98
40.15
42.53
43.51
43.43
42.63
41.46
40.22
39.03
37.77
36.16
33.85
30.67
26.84
22.98
19.90
18.42
19.02
21.77
26.24
31.58
36.53
39.62
39.45
35.02
26.11
13.41
-1.58
-16.93
-30.92
-42.43
-51.08
-57.07
-60.71
-61.92
-60.07
-54.27
-43.96
-29.64
-13.17
2.54
14.42
20.39
20.15
15.20
8.11
1.42
-3.12
-4.77
-3.38
1.15
9.00
20.04
33.26
46.53
57.10
62.58
61.99
56.14
47.24
37.87
30.02
24.58
21.47
20.27
20.58
22.16
24.73
27.61
29.74
29.90
27.24
21.54
13.39
3.95
-5.41
-13.56
-19.90
-24.52
-28.11
-31.63
-36.03
-41.94
-49.45
-58.02
-66.50
-73.39
-77.19
-76.93
-72.47
-64.65
-55.00
-45.18
-36.29
-28.56
-21.31
-13.40
-3.84
7.63
20.11
31.79
40.36
43.85
41.35
33.44
22.05
9.79
-0.94
-8.66
-13.03
-14.53
-13.88
-11.58
-7.81
-2.68
3.52
10.08
16.13
20.88
23.93
25.37
25.59
25.05
24.04
22.53
20.22
16.61
11.16
3.50
-6.41
-18.08
-30.43
-41.94
-50.93
-56.14
-57.05
-54.15
-48.59
-41.76
-34.74
-27.90
-21.01
-13.52
-4.95
4.93
15.95
27.56
38.80
48.28
54.35
55.60
51.38
42.37
30.49
18.33
8.29
1.85
-0.69
0.07
3.14
7.54
12.36
16.70
19.66
20.47
18.80
14.99
9.91
4.62
-0.12
-4.17
-7.97
-12.31
-17.83
-24.73
-32.66
-40.85
-48.27
-53.88
-56.79
-56.38
-52.43
-45.22
-35.58
-24.68
-13.62
-3.01
7.24
17.61
28.34
38.78
47.27
51.65
50.26
42.81
30.69
16.60
3.46
-6.32
-11.31
-11.11
-5.99
3.11
14.63
26.38
35.81
40.73
39.98
33.88
24.03
12.71
2.07
-6.47
-12.27
-15.30
-15.79
-14.08
-10.62
-6.11
-1.54
1.97
3.42
2.19
-1.81
-8.16
-16.04
-24.37
-31.91
-37.47
-40.00
-38.85
-33.96
-25.94
-15.96
-5.40
4.51
13.01
19.88
25.31
29.61
33.05
35.82
37.97
39.56
40.65
41.18
41.03
40.04
38.14
35.45
32.34
29.25
26.55
24.32
22.38
20.36
17.95
15.02
11.69
8.16
4.60
0.98
-2.88
-7.29
-12.44
-18.35
-24.76
-31.23
-37.25
-42.43
-46.63
-50.01
-52.98
-55.97
-59.20
-62.38
-64.67
-64.80
-61.47
-53.74
-41.28
-24.56
-4.84
15.81
34.72
49.04
56.50
56.20
49.13
38.01
26.35
17.32
12.73
12.79
16.51
22.44
29.26
35.91
41.49
45.06
45.75
43.14
37.52
29.96
21.88
14.52
8.49
3.62
-0.76
-5.40
-10.69
-16.46
-22.14
-27.05
-30.83
-33.60
-36.03
-38.95
-43.02
-48.40
-54.64
-60.74
-65.39
-67.32
-65.63
-60.10
-51.34
-40.64
-29.60
-19.63
-11.55
-5.38
-0.52
3.90
8.61
13.93
19.73
25.49
30.60
34.44
36.55
36.74
35.12
32.10
28.28
24.36
20.97
18.56
17.33
17.14
17.53
17.73
16.90
14.43
10.21
4.72
-1.16
-6.53
-10.89
-14.28
-17.22
-20.28
-23.81
-27.75
-31.72
-35.33
-38.40
-41.01
-43.30
-45.36
-46.99
-47.79
-47.30
-45.18
-41.33
-35.77
-28.45
-19.12
-7.50
6.27
21.11
35.05
45.71
51.26
51.36
47.31
41.41
35.77
31.42
28.23
25.53
23.27
22.37
24.37
30.26
39.50
49.79
57.96
61.30
58.84
51.49
41.48
31.28
22.60
15.96
10.99
6.95
3.24
-0.35
-3.72
-6.70
-9.25
-11.57
-14.07
-17.24
-21.54
-27.27
-34.48
-42.96
-52.16
-61.23
-69.04
-74.41
-76.38
-74.51
-69.02
-60.75
-50.81
-40.29
-29.84
-19.71
-9.79
0.03
9.72
18.95
27.31
34.40
39.94
43.91
46.38
47.53
47.51
46.47
44.57
42.04
39.17
36.27
33.63
31.37
29.39
27.33
24.71
21.12
16.38
10.71
4.70
-0.91
-5.48
-8.74
-10.89
-12.55
-14.49
-17.37
-21.55
-26.94
-33.01
-38.78
-42.93
-44.24
-42.06
-36.86
-30.35
-25.04
-23.25
-26.12
-32.95
-41.45
-48.70
-52.26
-51.05
-45.40
-36.58
-26.06
-15.04
-4.31
5.53
13.90
20.22
24.09
25.60
25.58
25.34
26.17
28.57
31.73
33.74
32.17
25.16
12.34
-4.98
-24.14
-41.93
-55.46
-62.58
-62.03
-53.45
-37.43
-15.66
9.07
33.18
53.01
65.72
70.08
66.68
57.74
46.36
35.52
27.21
21.94
18.83
16.18
12.37
6.55
-1.03
-9.23
-16.58
-21.90
-24.54
-24.34
-21.36
-15.58
-6.92
4.58
18.45
33.63
48.70
62.28
73.54
82.49
89.98
97.08
104.59
112.31
118.88
121.99
119.19
108.71
90.25
65.09
35.80
5.58
-22.49
-45.95
-63.20
-73.49
-76.80
-73.82
-65.94
-55.23
-44.14
-35.13
-30.01
-29.27
-31.86
-35.27
-36.45
-32.85
-23.55
-9.79
5.40
18.19
25.35
25.38
18.90
8.17
-3.84
-14.51
-22.23
-26.44
-27.40
-25.71
-22.00
-16.85
-10.82
-4.50
1.48
6.61
10.64
13.65
16.03
18.28
20.78
23.60
26.43
28.65
29.61
28.84
26.32
22.48
17.98
13.47
9.29
5.45
1.81
-1.70
-4.93
-7.55
-9.28
-10.15
-10.66
-11.67
-14.18
-19.03
-26.60
-36.67
-48.39
-60.38
-70.98
-78.54
-81.78
-80.07
-73.58
-63.14
-50.09
-35.87
-21.80
-8.88
2.27
11.45
18.79
24.72
29.86
34.96
40.73
47.72
56.11
65.54
75.01
83.02
87.76
87.70
82.03
71.06
56.18
39.52
23.37
9.55
-0.78
-7.08
-9.06
-6.59
0.19
10.41
22.16
32.55
38.53
37.96
30.50
17.81
2.81
-11.40
-22.67
-30.25
-34.67
-37.14
-38.85
-40.61
-42.65
-44.76
-46.39
-46.90
-45.68
-42.41
-37.09
-30.10
-22.07
-13.78
-5.88
1.11
6.95
11.66
15.38
18.31
20.55
22.10
22.83
22.64
21.48
19.45
16.83
13.96
11.25
9.00
7.37
6.29
5.43
4.44
3.04
1.33
-0.23
-0.92
-0.01
3.00
8.28
15.57
24.07
32.33
38.36
39.94
35.41
24.30
7.79
-11.56
-30.68
-46.91
-58.80
-66.07
-69.20
-68.80
-65.28
-58.97
-50.50
-40.99
-31.89
-24.43
-19.07
-15.29
-11.89
-7.60
-1.84
5.05
11.90
17.32
20.39
21.08
20.27
19.41
20.07
23.40
29.92
39.23
49.99
60.00
66.71
67.88
62.43
50.96
35.63
19.47
5.31
-5.10
-11.45
-14.49
-15.39
-15.15
-14.37
-13.43
-12.70
-12.71
-13.98
-16.81
-21.09
-26.35
-32.05
-37.67
-42.84
-47.20
-50.21
-51.21
-49.57
-45.04
-37.93
-29.10
-19.69
-10.80
-3.11
3.16
8.11
12.00
15.07
17.45
19.17
20.29
20.82
20.82
20.35
19.50
18.38
17.11
15.78
14.39
12.92
11.28
9.42
7.33
5.04
2.70
0.63
-0.64
-0.51
1.45
5.06
9.30
12.40
12.42
8.04
-0.89
-13.24
-27.08
-40.45
-51.86
-60.44
-65.72
-67.37
-65.34
-60.07
-52.79
-45.33
-39.53
-36.54
-36.32
-37.77
-39.23
-39.14
-36.40
-30.55
-21.60
-10.08
2.84
15.47
25.80
32.12
33.60
30.66
24.81
18.05
12.21
8.45
7.17
8.16
10.84
14.41
17.99
20.65
21.61
20.46
17.29
12.65
7.41
2.43
-1.69
-4.78
-7.21
-9.67
-12.88
-17.23
-22.43
-27.47
-30.95
-31.49
-28.38
-21.76
-12.64
-2.49
7.19
15.29
21.21
24.92
26.77
27.35
27.29
27.13
27.24
27.74
28.54
29.33
29.67
29.11
27.29
24.22
20.25
16.09
12.56
10.39
10.06
11.59
14.52
17.81
19.88
18.88
13.24
2.30
-13.21
-31.28
-49.15
-64.28
-75.08
-81.24
-83.32
-82.18
-78.40
-72.12
-63.36
-52.36
-39.85
-26.85
-14.33
-2.86
7.59
17.42
27.08
36.71
46.04
54.61
62.02
68.23
73.42
77.74
80.83
81.69
78.86
71.02
57.78
40.19
20.61
2.02
-13.00
-23.10
-28.36
-29.94
-29.33
-27.70
-25.58
-23.05
-20.08
-16.93
-14.22
-12.82
-13.55
-16.90
-22.85
-30.74
-39.40
-47.31
-53.03
-55.57
-54.65
-50.75
-44.78
-37.70
-30.13
-22.28
-14.06
-5.31
3.96
13.52
22.92
31.63
39.12
44.84
48.36
49.47
48.34
45.57
42.09
38.82
36.37
34.82
33.76
32.57
30.71
27.84
23.94
19.14
13.65
7.70
1.56
-4.51
-10.23
-15.40
-20.00
-24.14
-28.07
-32.05
-36.39
-41.23
-46.60
-52.35
-58.14
-63.57
-68.20
-71.62
-73.35
-72.90
-69.64
-63.14
-53.34
-40.81
-26.76
-12.81
-0.42
9.47
16.81
22.30
27.07
32.26
38.66
46.63
56.24
67.15
78.46
88.49
94.72
94.42
85.65
68.40
44.96
19.52
-3.27
-19.85
-28.78
-30.84
-28.09
-22.75
-16.30
-9.43
-2.36
4.64
11.04
16.26
20.02
22.53
24.47
26.66
29.57
33.08
36.43
38.59
38.71
36.43
32.14
26.73
21.25
16.46
12.65
9.55
6.62
3.29
-0.81
-5.82
-11.75
-18.58
-26.19
-34.21
-41.93
-48.29
-52.17
-52.72
-49.73
-43.67
-35.56
-26.52
-17.46
-8.85
-0.77
6.86
14.04
20.54
25.94
29.77
31.73
31.86
30.56
28.50
26.46
25.02
24.49
24.82
25.71
26.75
27.59
27.91
27.57
26.56
24.94
22.85
20.45
17.89
15.27
12.68
10.22
7.96
5.96
4.19
2.47
0.48
-2.07
-5.35
-9.27
-13.49
-17.56
-21.15
-24.12
-26.52
-28.57
-30.48
-32.41
-34.49
-36.83
-39.54
-42.65
-45.95
-48.91
-50.76
-50.67
-48.06
-42.86
-35.62
-27.23
-18.66
-10.55
-3.16
3.55
9.73
15.32
20.08
23.67
25.89
26.82
26.83
26.44
26.09
26.00
26.09
26.14
25.89
25.14
23.92
22.33
20.57
18.79
17.03
15.23
13.28
11.15
8.85
6.48
4.11
1.70
-0.88
-3.78
-7.00
-10.39
-13.69
-16.73
-19.49
-22.19
-25.20
-28.87
-33.40
-38.67
-44.26
-49.39
-53.13
-54.57
-53.15
-48.84
-42.17
-34.04
-25.33
-16.74
-8.61
-1.12
5.62
11.42
16.05
19.32
21.30
22.20
22.42
22.37
22.36
22.59
23.07
23.61
23.92
23.73
22.94
21.74
20.48
19.54
19.05
18.84
18.51
17.69
16.23
14.36
12.47
10.88
9.63
8.40
6.74
4.39
1.38
-1.95
-5.20
-8.13
-10.78
-13.43
-16.38
-19.81
-23.87
-28.71
-34.51
-41.36
-49.02
-56.75
-63.39
-67.72
-68.91
-66.78
-61.78
-54.73
-46.49
-37.67
-28.66
-19.68
-10.90
-2.47
5.40
12.51
18.61
23.50
27.02
29.14
30.00
29.90
29.15
28.06
26.83
25.61
24.54
23.73
23.31
23.29
23.59
23.97
24.11
23.64
22.28
19.91
16.56
12.44
7.79
2.83
-2.21
-7.09
-11.54
-15.28
-18.15
-20.27
-22.05
-24.09
-26.97
-31.01
-36.16
-42.04
-48.06
-53.49
-57.57
-59.54
-58.77
-55.00
-48.48
-39.97
-30.62
-21.49
-13.30
-6.17
0.22
6.35
12.55
18.76
24.61
29.54
33.11
35.17
35.90
35.79
35.38
35.09
35.06
35.17
35.14
34.74
33.83
32.46
30.72
28.67
26.32
23.63
20.66
17.51
14.31
11.06
7.61
3.72
-0.74
-5.67
-10.73
-15.46
-19.45
-22.54
-24.90
-26.95
-29.27
-32.40
-36.64
-41.89
-47.52
-52.47
-55.48
-55.55
-52.23
-45.80
-37.12
-27.29
-17.30
-7.78
1.02
9.13
16.69
23.82
30.55
36.81
42.41
47.13
50.74
53.20
54.62
55.25
55.45
55.55
55.76
56.15
56.66
57.19
57.54
57.50
56.91
55.65
53.74
51.36
48.76
46.17
43.75
41.49
39.33
37.18
35.03
32.94
31.00
29.21
27.39
25.29
22.57
18.93
14.18
8.41
2.01
-4.36
-10.00
-14.60
-18.60
-23.50
-31.45
-44.53
-63.68
-88.02
-114.78
-140.02
-159.56
-169.98
-169.02
-155.72
-130.54
-95.38
-53.72
-10.29
29.63
61.50
82.55
92.39
92.70
86.41
76.66
66.10
56.64
49.41
44.94
43.20
43.68
45.54
47.82
49.75
50.89
51.17
50.76
49.83
48.41
46.21
42.80
37.72
30.74
22.02
12.13
1.92
-7.72
-16.05
-22.62
-27.33
-30.38
-32.22
-33.46
-34.75
-36.65
-39.54
-43.61
-48.86
-55.16
-62.19
-69.32
-75.59
-79.75
-80.59
-77.37
-70.08
-59.62
-47.51
-35.36
-24.41
-15.18
-7.48
-0.74
5.67
12.01
18.14
23.66
28.18
31.65
34.43
37.07
40.02
43.31
46.47
48.77
49.53
48.48
45.77
41.93
37.58
33.25
29.23
25.53
21.96
18.18
13.91
8.96
3.39
-2.53
-8.50
-14.20
-19.51
-24.50
-29.36
-34.34
-39.69
-45.59
-52.09
-59.04
-65.92
-71.79
-75.46
-75.82
-72.23
-64.83
-54.57
-42.87
-31.12
-20.20
-10.33
-1.19
7.64
16.31
24.54
31.80
37.66
42.01
45.21
47.78
50.10
52.18
53.67
54.08
53.09
50.84
47.92
45.14
43.23
42.50
42.71
43.18
43.01
41.42
37.96
32.65
25.84
18.04
9.72
1.14
-7.52
-16.08
-24.29
-31.84
-38.56
-44.39
-49.39
-53.51
-56.37
-57.32
-55.61
-50.81
-43.11
-33.38
-22.86
-12.79
-3.96
3.35
9.28
14.13
18.15
21.43
23.98
25.80
27.02
27.84
28.55
29.42
30.58
31.93
33.15
33.82
33.54
32.15
29.77
26.69
23.24
19.53
15.43
10.66
5.03
-1.36
-8.13
-14.75
-20.85
-26.39
-31.65
-37.08
-43.08
-49.76
-56.98
-64.32
-71.17
-76.77
-80.31
-80.97
-78.19
-71.84
-62.36
-50.63
-37.67
-24.48
-11.73
0.19
11.09
20.79
29.09
35.73
40.50
43.43
44.77
44.99
44.57
43.85
42.88
41.58
39.89
37.93
36.11
34.88
34.45
34.61
34.65
33.72
31.17
26.95
21.59
15.97
10.93
6.87
3.62
0.53
-3.20
-8.25
-14.88
-22.92
-31.82
-40.70
-48.49
-54.08
-56.52
-55.28
-50.38
-42.46
-32.55
-21.75
-10.96
-0.69
8.85
17.56
25.29
31.82
36.84
40.15
41.74
41.81
40.77
39.13
37.39
35.93
34.93
34.39
34.14
33.97
33.67
33.06
31.97
30.22
27.67
24.29
20.18
15.65
11.01
6.52
2.24
-1.99
-6.32
-10.80
-15.30
-19.53
-23.26
-26.52
-29.67
-33.32
-38.06
-44.18
-51.35
-58.68
-64.86
-68.55
-68.78
-65.26
-58.41
-49.18
-38.72
-28.07
-17.92
-8.64
-0.32
7.08
13.60
19.27
24.02
27.74
30.34
31.79
32.22
31.89
31.15
30.25
29.32
28.31
27.10
25.65
24.04
22.41
20.77
18.99
16.69
13.49
9.17
3.88
-1.83
-7.24
-11.73
-15.01
-17.31
-19.26
-21.61
-25.02
-29.80
-35.87
-42.72
-49.50
-55.11
-58.43
-58.60
-55.32
-48.94
-40.37
-30.76
-21.15
-12.11
-3.79
3.94
11.22
18.03
24.16
29.31
33.22
35.75
36.92
36.87
35.86
34.18
32.10
29.84
27.56
25.40
23.45
21.76
20.27
18.70
16.62
13.62
9.47
4.31
-1.41
-7.08
-12.19
-16.59
-20.44
-24.19
-28.32
-33.25
-39.21
-46.22
-53.92
-61.57
-67.98
-71.81
-71.93
-67.84
-59.94
-49.36
-37.58
-25.95
-15.29
-5.89
2.39
9.80
16.48
22.44
27.59
31.80
35.04
37.29
38.60
39.00
38.51
37.18
35.16
32.75
30.37
28.44
27.25
26.74
26.45
25.65
23.60
19.86
14.50
8.10
1.47
-4.67
-10.00
-14.68
-19.24
-24.34
-30.46
-37.65
-45.46
-52.97
-58.89
-61.90
-61.05
-56.06
-47.49
-36.64
-25.04
-13.97
-4.09
4.57
12.34
19.54
26.18
31.96
36.45
39.42
40.97
41.47
41.37
41.01
40.40
39.37
37.71
35.40
32.75
30.25
28.31
26.97
25.81
24.10
21.15
16.67
10.91
4.56
-1.55
-6.78
-10.92
-14.20
-17.16
-20.46
-24.60
-29.73
-35.56
-41.23
-45.55
-47.32
-45.71
-40.62
-32.68
-22.96
-12.62
-2.49
6.97
15.61
23.32
29.95
35.24
39.05
41.36
42.47
42.79
42.75
42.63
42.53
42.32
41.72
40.42
38.16
34.88
30.67
25.82
20.70
15.69
11.17
7.45
4.78
3.24
2.66
2.64
2.51
1.58
-0.73
-4.73
-10.43
-17.66
-26.09
-35.23
-44.37
-52.46
-58.28
-60.82
-59.58
-54.91
-47.83
-39.58
-31.08
-22.61
-13.95
-4.81
4.65
13.72
21.30
26.51
29.11
29.69
29.36
29.21
29.84
31.09
32.28
32.61
31.57
29.20
26.00
22.58
19.36
16.36
13.24
9.62
5.26
0.27
-4.99
-10.07
-14.64
-18.64
-22.20
-25.61
-29.21
-33.28
-37.87
-42.70
-47.09
-50.11
-50.86
-48.85
-44.20
-37.63
-30.12
-22.49
-15.18
-8.19
-1.32
5.60
12.44
18.79
24.19
28.34
31.27
33.35
35.00
36.48
37.74
38.37
37.87
35.88
32.44
28.00
23.21
18.66
14.66
11.19
8.02
4.91
1.81
-1.18
-3.88
-6.14
-8.07
-9.97
-12.26
-15.39
-19.62
-25.01
-31.42
-38.47
-45.54
-51.73
-55.95
-57.21
-54.91
-49.13
-40.70
-30.86
-20.85
-11.45
-2.96
4.79
12.00
18.64
24.38
28.77
31.52
32.66
32.63
32.08
31.67
31.78
32.35
32.98
33.03
32.05
29.93
27.05
24.07
21.70
20.33
19.88
19.84
19.47
18.18
15.65
12.04
7.76
3.33
-0.86
-4.61
-8.01
-11.28
-14.73
-18.62
-23.12
-28.28
-33.88
-39.41
-43.99
-46.56
-46.12
-42.14
-34.83
-25.12
-14.43
-4.13
4.86
12.23
18.18
23.10
27.17
30.32
32.31
32.94
32.34
30.87
29.11
27.50
26.23
25.12
23.81
21.95
19.48
16.73
14.30
12.81
12.49
13.10
13.87
13.90
12.48
9.37
4.92
-0.23
-5.33
-9.86
-13.65
-16.79
-19.47
-21.90
-24.24
-26.70
-29.52
-32.95
-37.00
-41.21
-44.60
-45.94
-44.25
-39.23
-31.52
-22.42
-13.35
-5.31
1.38
6.90
11.59
15.54
18.62
20.61
21.52
21.67
21.54
21.43
21.26
20.63
19.09
16.48
13.08
9.53
6.48
4.31
2.90
1.78
0.37
-1.76
-4.61
-7.90
-11.09
-13.74
-15.62
-16.88
-17.94
-19.45
-22.05
-26.27
-32.29
-39.82
-48.07
-55.76
-61.40
-63.70
-61.99
-56.42
-47.86
-37.56
-26.65
-15.85
-5.49
4.27
13.15
20.63
26.18
29.52
30.83
30.84
30.52
30.73
31.91
33.90
36.08
37.65
37.95
36.74
34.26
31.01
27.58
24.25
21.00
17.61
13.88
9.88
5.91
2.37
-0.55
-2.97
-5.30
-8.05
-11.66
-16.34
-22.05
-28.47
-35.05
-41.00
-45.30
-46.94
-45.18
-39.90
-31.64
-21.48
-10.56
0.27
10.79
21.24
31.96
43.00
53.92
63.90
72.11
78.12
82.08
84.59
86.39
87.98
89.38
90.15
89.58
86.85
81.30
72.48
60.30
45.26
28.52
11.83
-2.82
-13.82
-20.48
-23.26
-23.54
-23.00
-22.96
-24.04
-26.16
-29.02
-32.43
-36.52
-41.56
-47.50
-53.75
-59.17
-62.55
-62.99
-60.39
-55.36
-48.94
-41.95
-34.69
-26.91
-18.08
-7.97
3.08
14.04
23.68
30.98
35.56
37.71
38.21
37.93
37.40
36.74
35.68
33.79
30.76
26.55
21.45
15.91
10.45
5.46
1.08
-2.76
-6.31
-9.84
-13.49
-17.20
-20.72
-23.80
-26.40
-28.75
-31.40
-34.95
-39.76
-45.72
-52.15
-57.93
-61.80
-62.80
-60.58
-55.52
-48.65
-41.21
-34.17
-27.91
-21.97
-15.39
-7.11
3.46
16.12
29.86
43.26
54.87
63.69
69.36
72.15
72.75
71.91
70.18
67.65
63.98
58.58
50.97
41.11
29.64
17.65
6.36
-3.38
-11.37
-17.98
-23.77
-29.16
-34.27
-39.06
-43.53
-47.80
-51.90
-55.48
-57.65
-57.21
-53.33
-46.06
-36.56
-26.71
-18.35
-12.57
-9.37
-7.98
-7.40
-6.82
-5.88
-4.42
-2.32
0.58
4.35
8.70
12.81
15.56
15.86
13.19
7.86
1.01
-5.78
-11.01
-13.72
-13.78
-11.77
-8.81
-6.10
-4.67
-5.20
-7.94
-12.72
-19.05
-26.08
-32.69
-37.60
-39.60
-37.88
-32.46
-24.37
-15.51
-8.15
-4.15
-4.26
-7.85
-13.14
-17.89
-20.22
-19.11
-14.54
-7.22
1.91
11.94
22.14
31.94
40.70
47.79
52.62
54.80
54.36
51.82
48.11
44.23
40.97
38.60
36.73
34.50
30.96
25.45
17.98
9.29
0.67
-6.32
-10.29
-10.26
-5.98
1.83
11.34
19.74
23.72
20.33
7.96
-12.91
-39.57
-67.62
-92.28
-109.73
-118.07
-117.63
-110.34
-98.79
-85.38
-71.82
-59.11
-47.91
-38.73
-32.01
-27.88
-26.01
-25.57
-25.48
-24.78
-22.90
-19.73
-15.51
-10.66
-5.55
-0.43
4.69
10.07
16.09
23.07
30.98
39.33
47.27
53.89
58.63
61.45
62.76
63.02
62.45
60.80
57.68
52.99
47.34
42.10
39.09
39.81
44.88
53.67
64.47
75.08
83.52
88.69
90.52
89.88
88.09
86.41
85.63
85.91
86.79
87.39
86.69
83.79
78.17
69.84
59.27
47.39
35.24
23.84
13.91
5.81
-0.44
-4.96
-7.92
-9.49
-9.98
-9.95
-10.22
-11.74
-15.12
-20.34
-26.62
-32.67
-37.24
-39.67
-40.14
-39.50
-38.87
-39.15
-40.74
-43.52
-47.02
-50.52
-53.21
-54.27
-53.11
-49.47
-43.68
-36.56
-29.11
-22.19
-16.18
-11.00
-6.35
-1.98
2.10
5.66
8.30
9.70
9.68
8.30
5.86
2.90
0.11
-1.86
-2.65
-2.34
-1.43
-0.69
-0.78
-2.10
-4.54
-7.75
-11.23
-14.57
-17.52
-19.99
-22.04
-23.84
-25.67
-27.91
-31.00
-35.28
-40.74
-46.93
-52.89
-57.31
-58.89
-56.72
-50.49
-40.55
-27.68
-12.77
3.56
21.01
39.34
57.91
75.31
89.36
97.51
97.68
89.03
72.48
50.53
26.75
4.82
-12.33
-23.00
-26.95
-25.17
-19.41
-11.68
-3.80
2.93
7.84
10.76
11.86
11.44
9.83
7.38
4.45
1.37
-1.58
-4.22
-6.51
-8.46
-10.14
-11.62
-12.96
-14.25
-15.66
-17.47
-20.04
-23.70
-28.52
-34.20
-39.86
-44.31
-46.33
-45.17
-40.88
-34.34
-26.95
-20.00
-14.25
-9.76
-6.03
-2.53
1.00
4.30
6.79
7.89
7.31
5.34
2.66
0.15
-1.49
-1.93
-1.26
0.17
1.97
3.87
5.84
7.95
10.29
12.85
15.53
18.22
20.84
23.34
25.60
27.37
28.29
27.92
26.01
22.62
18.16
13.21
8.24
3.32
-1.96
-8.28
-16.28
-26.13
-37.36
-49.02
-60.00
-69.36
-76.50
-81.13
-83.04
-82.05
-78.11
-71.47
-62.89
-53.47
-44.33
-36.18
-29.06
-22.50
-15.90
-8.96
-1.94
4.47
9.49
12.76
14.49
15.38
16.23
17.58
19.42
21.32
22.69
23.10
22.51
21.23
19.82
18.77
18.42
18.85
19.91
21.25
22.40
22.91
22.50
21.28
19.80
19.01
19.91
23.15
28.56
34.91
39.96
40.99
35.72
23.21
4.51
-17.45
-38.73
-55.60
-65.58
-67.86
-63.01
-52.38
-37.70
-20.93
-4.50
8.82
16.56
17.35
11.68
1.92
-8.53
-16.54
-20.34
-19.92
-16.59
-12.07
-7.64
-3.76
-0.16
3.68
8.11
13.11
18.35
23.31
27.57
30.88
33.09
34.14
33.97
32.48
29.66
25.64
20.74
15.44
10.21
5.37
0.95
-3.27
-7.69
-12.71
-18.50
-25.01
-31.96
-38.93
-45.40
-50.79
-54.54
-56.11
-55.20
-51.90
-46.70
-40.34
-33.57
-26.87
-20.32
-13.72
-6.88
0.23
7.32
13.96
19.79
24.67
28.64
31.78
34.01
35.08
34.73
32.95
30.11
26.97
24.45
23.34
24.15
27.03
31.73
37.68
44.00
49.59
53.40
54.71
53.47
50.28
46.26
42.51
39.79
38.31
37.80
37.74
37.53
36.44
33.55
27.71
17.83
3.40
-15.01
-35.52
-55.21
-71.01
-80.61
-83.14
-79.28
-70.72
-59.47
-47.16
-34.87
-23.22
-12.81
-4.25
1.82
5.14
6.07
5.67
5.33
6.40
9.67
15.13
22.08
29.45
36.34
42.29
47.45
52.28
57.11
61.80
65.61
67.44
66.23
61.30
52.51
40.24
25.21
8.42
-8.89
-25.27
-39.21
-49.48
-55.45
-57.28
-55.94
-52.91
-49.81
-47.87
-47.67
-48.92
-50.60
-51.37
-50.12
-46.46
-40.94
-34.74
-28.93
-23.92
-19.18
-13.60
-6.21
3.19
13.78
24.09
32.77
39.18
43.66
47.19
50.93
55.70
61.87
69.30
77.29
84.43
88.53
86.85
76.88
57.34
29.09
-4.68
-39.20
-69.42
-91.48
-103.54
-106.00
-100.99
-91.65
-81.30
-72.89
-68.42
-68.63
-72.93
-79.45
-85.33
-87.20
-81.67
-66.08
-39.23
-2.19
41.36
85.57
123.83
150.86
164.29
165.24
157.11
143.53
126.54
106.23
81.85
53.81
24.67
-1.50
-21.00
-32.69
-38.60
-42.74
-48.73
-57.74
-68.06
-76.44
-80.35
-79.56
-76.33
-74.19
-76.03
-82.74
-92.95
-103.99
-113.34
-119.71
-123.55
-126.41
-129.84
-134.41
-139.48
-143.76
-146.30
-147.18
-147.42
-148.09
-149.35
-149.93
-147.57
-140.02
-126.11
-106.16
-81.84
-55.36
-28.66
-2.89
21.81
45.95
70.14
94.47
118.08
139.20
155.72
166.09
170.09
169.02
165.17
160.87
157.54
155.34
153.42
150.50
145.37
137.11
125.05
108.68
87.80
62.73
34.70
5.79
-21.37
-44.21
-60.84
-70.56
-74.08
-73.31
-70.86
-69.34
-70.65
-75.52
-83.38
-92.66
-101.36
-107.60
-110.10
-108.28
-102.11
-91.89
-78.01
-60.83
-40.82
-18.59
5.03
28.97
52.08
73.21
91.38
105.86
116.21
122.40
124.80
124.39
122.56
120.90
120.71
122.43
125.41
128.13
128.78
126.06
119.65
110.34
99.58
88.88
79.34
71.57
65.81
62.14
60.54
60.72
62.01
63.28
63.11
60.21
53.70
43.34
29.60
13.67
-2.67
-17.16
-27.46
-31.84
-29.79
-22.47
-12.56
-3.35
2.33
3.12
-0.63
-7.31
-14.97
-22.19
-28.63
-34.93
-42.30
-51.72
-63.37
-76.27
-88.41
-97.35
-101.08
-98.75
-91.08
-80.28
-69.45
-61.93
-60.81
-68.28
-85.15
-110.06
-139.07
-166.12
-184.32
-187.95
-174.18
-143.95
-101.64
-53.74
-7.22
32.00
60.03
75.60
79.98
76.39
68.86
60.91
54.42
49.33
44.27
37.64
28.73
18.10
7.29
-1.97
-8.39
-11.49
-11.44
-8.80
-4.31
1.36
7.54
13.64
19.31
24.53
29.72
35.61
42.99
52.26
63.23
74.95
85.90
94.39
98.96
98.78
93.93
85.44
75.00
64.53
55.58
48.97
44.62
41.81
39.61
37.22
34.12
29.99
24.55
17.60
9.09
-0.57
-10.44
-19.23
-25.68
-29.11
-29.66
-28.24
-26.16
-24.55
-24.07
-24.70
-25.83
-26.57
-25.92
-23.13
-17.87
-10.37
-1.46
7.73
16.10
23.11
28.92
34.36
40.34
47.24
54.55
60.94
64.87
65.37
62.64
58.14
54.14
52.80
55.25
61.02
68.07
73.53
74.73
70.25
60.32
46.56
31.16
16.02
2.12
-10.42
-21.85
-32.26
-41.22
-47.94
-51.74
-52.49
-50.73
-47.46
-43.69
-40.09
-36.91
-34.13
-31.86
-30.41
-30.28
-31.72
-34.48
-37.52
-39.35
-38.50
-34.14
-26.45
-16.57
-6.09
3.51
11.41
17.66
22.95
28.07
33.43
38.67
42.68
44.03
41.50
34.65
24.14
11.59
-0.77
-10.69
-16.49
-17.45
-13.96
-7.30
0.65
7.99
13.16
15.28
14.26
10.71
5.59
-0.04
-5.43
-10.13
-14.00
-17.08
-19.50
-21.46
-23.23
-25.16
-27.59
-30.54
-33.67
-36.29
-37.62
-37.13
-34.67
-30.46
-24.84
-18.04
-10.08
-0.95
9.17
19.75
29.91
38.64
45.06
48.75
49.82
48.87
46.79
44.31
41.78
38.92
35.04
29.41
21.80
12.64
2.98
-6.08
-13.86
-20.45
-26.59
-33.25
-41.08
-50.06
-59.55
-68.54
-76.10
-81.64
-85.01
-86.39
-86.15
-84.95
-83.73
-83.78
-86.33
-91.88
-99.52
-106.73
-109.95
-105.85
-92.58
-70.39
-41.31
-8.04
27.21
63.26
99.81
136.87
174.14
210.72
245.15
275.51
299.53
314.96
320.02
314.17
298.57
276.01
250.25
224.78
201.89
182.18
164.90
148.61
131.94
113.95
94.30
73.03
50.28
26.26
1.11
-25.10
-52.37
-81.05
-112.28
-148.23
-191.58
-244.08
-304.56
-367.70
-424.51
-464.80
-480.73
-469.79
-435.65
-386.47
-331.69
-278.72
-231.31
-189.74
-152.00
-115.27
-76.67
-33.37
16.99
75.06
138.53
201.34
254.49
288.63
297.36
280.20
243.18
197.09
153.67
121.83
105.15
101.79
106.33
112.60
116.15
115.71
113.26
112.85
118.63
132.59
153.33
176.05
194.16
201.55
194.82
174.08
142.48
104.43
63.72
22.85
-16.70
-53.76
-87.26
-116.61
-142.74
-168.64
-198.86
-237.47
-285.20
-337.39
-384.46
-415.23
-421.21
-399.99
-355.97
-298.52
-238.13
-182.44
-133.97
-90.57
-48.69
-5.48
40.82
91.70
148.37
210.89
276.97
341.50
397.37
436.01
450.68
439.61
407.23
361.87
312.02
263.64
219.62
180.40
143.06
102.90
55.44
-1.75
-69.39
-147.69
-236.85
-336.61
-432.46
-503.19
-532.15
-517.06
-466.89
-394.21
-311.76
-231.75
-163.92
-113.03
-80.02
-62.43
-55.96
-55.88
-58.80
-63.28
-68.77
-73.87
-75.80
-73.10
-66.14
-56.91
-47.61
-40.36
-35.80
-33.64
-32.20
-28.84
-22.08
-11.88
-0.12
10.43
17.01
17.70
12.26
2.71
-7.13
-13.66
-14.34
-9.30
-0.98
7.23
12.43
13.91
14.20
18.79
29.66
49.62
79.67
118.73
163.64
209.25
248.55
273.63
277.40
256.49
214.05
159.16
104.12
59.60
29.92
11.34
-5.57
-30.32
-67.03
-111.55
-154.07
-184.22
-196.17
-190.76
-173.87
-152.51
-131.13
-110.17
-87.41
-61.10
-31.93
-3.02
21.92
41.21
56.42
72.25
94.70
128.89
176.97
236.89
302.21
363.23
409.34
432.02
427.50
397.97
350.73
295.51
241.26
193.92
155.87
126.95
106.07
92.37
85.48
84.78
88.68
94.38
98.45
98.06
92.13
81.71
69.53
58.51
50.37
45.20
42.01
40.18
40.59
45.65
57.96
78.43
104.93
132.30
153.98
164.42
161.21
145.99
123.79
101.18
83.81
74.46
72.37
73.94
74.52
70.44
60.29
44.95
26.56
7.20
-12.03
-31.15
-50.72
-71.10
-92.08
-112.87
-132.69
-151.39
-169.91
-190.18
-214.06
-241.87
-271.64
-299.22
-319.87
-330.20
-329.19
-317.66
-296.45
-265.01
-221.84
-166.59
-102.68
-38.17
16.30
51.59
63.95
56.53
37.42
15.68
-2.35
-14.71
-22.78
-29.13
-35.48
-41.98
-47.76
-51.92
-54.23
-55.06
-55.01
-54.65
-54.19
-53.54
-52.50
-50.91
-48.69
-46.13
-43.83
-42.74
-44.14
-49.46
-60.26
-78.46
-106.49
-146.83
-200.81
-266.79
-339.02
-408.10
-463.40
-496.61
-504.78
-491.04
-462.85
-428.55
-394.16
-362.02
-331.71
-301.90
-272.19
-243.57
-217.49
-194.67
-174.34
-154.56
-133.30
-109.53
-83.73
-57.99
-34.95
-16.87
-4.72
2.18
5.85
8.77
12.87
18.81
25.82
32.34
37.16
40.27
43.30
49.12
60.75
80.34
108.76
145.88
191.03
242.90
298.69
353.24
398.85
426.97
430.70
407.50
360.16
295.41
220.75
141.51
59.83
-23.82
-107.62
-186.33
-251.54
-294.55
-310.08
-298.71
-266.60
-222.79
-175.77
-130.83
-89.54
-51.12
-14.36
21.19
55.39
88.71
123.41
163.42
212.60
272.04
338.02
402.04
453.27
482.70
486.80
468.84
437.21
401.64
369.24
342.41
319.35
296.31
270.14
239.43
204.51
166.05
124.19
78.23
27.17
-29.74
-92.57
-160.54
-232.13
-305.17
-376.84
-443.68
-501.67
-546.60
-574.70
-583.47
-572.43
-543.53
-501.06
-450.79
-398.75
-349.87
-306.99
-270.66
-239.52
-211.34
-183.95
-155.94
-126.69
-96.20
-64.68
-32.39
0.58
34.41
69.70
107.55
149.31
195.72
245.77
295.84
339.97
371.53
385.55
380.78
360.28
330.17
297.37
267.35
243.11
225.42
213.76
207.15
204.28
203.16
201.13
195.35
183.87
166.44
144.64
121.17
98.75
79.15
62.85
49.43
38.23
28.88
21.43
16.14
13.15
12.21
12.65
13.65
14.57
15.17
15.59
16.09
16.82
17.62
18.11
17.95
17.09
15.88
14.92
14.74
15.53
17.08
18.88
20.35
20.98
20.42
18.42
14.83
9.69
3.27
-3.83
-10.89
-17.32
-22.87
-27.72
-32.25
-36.71
-41.05
-44.85
-47.48
-48.45
-47.64
-45.30
-41.97
-38.19
-34.45
-31.06
-28.32
-26.52
-25.91
-26.60
-28.45
-31.03
-33.74
-35.98
-37.20
-37.06
-35.39
-32.19
-27.64
-22.10
-16.06
-10.15
-4.91
-0.67
2.50
4.76
6.39
7.65
8.72
9.62
10.34
10.71
10.53
9.61
7.85
5.58
3.55
2.93
4.84
9.95
17.99
27.76
37.54
45.69
51.28
54.29
55.41
55.52
55.15
54.21
52.10
48.10
41.84
33.48
23.84
14.07
5.42
-1.13
-5.13
-6.77
-6.98
-7.21
-9.17
-14.30
-23.30
-35.85
-50.63
-65.59
-78.62
-88.07
-93.17
-94.08
-91.77
-87.54
-82.73
-78.31
-74.74
-71.95
-69.47
-66.54
-62.29
-55.93
-46.84
-34.85
-20.29
-4.05
12.57
28.17
41.58
52.14
59.82
65.03
68.47
70.84
72.79
74.77
77.05
79.71
82.59
85.28
87.19
87.72
86.40
83.15
78.21
72.17
65.69
59.32
53.26
47.35
41.16
34.16
25.87
15.99
4.34
-9.09
-24.08
-40.12
-56.54
-72.58
-87.73
-101.75
-114.57
-125.89
-134.84
-140.03
-139.95
-133.90
-122.60
-108.41
-94.62
-84.32
-79.23
-79.13
-82.06
-85.12
-85.50
-81.18
-71.27
-55.95
-36.36
-14.37
7.55
26.73
40.81
48.50
49.97
46.92
42.11
38.54
38.65
43.74
53.73
67.22
81.79
94.52
102.75
104.88
101.01
93.01
83.87
76.63
73.14
73.37
75.57
76.93
74.67
66.84
52.97
34.45
14.59
-1.79
-9.58
-5.30
10.95
34.50
57.09
69.61
65.76
44.94
12.75
-21.05
-46.41
-56.83
-51.47
-34.68
-13.63
4.78
16.13
19.10
14.69
4.87
-8.47
-23.65
-38.79
-51.42
-58.70
-58.43
-50.20
-36.07
-20.07
-6.80
0.34
0.40
-4.87
-11.96
-17.07
-17.53
-12.67
-3.79
6.56
15.51
20.90
21.95
19.40
15.26
12.00
11.55
14.29
18.56
20.95
17.59
5.96
-13.54
-36.97
-57.80
-69.01
-65.64
-46.88
-16.48
18.33
49.09
68.62
72.91
62.02
39.88
13.27
-10.02
-23.32
-23.22
-10.82
8.47
26.80
36.76
34.01
18.62
-5.45
-32.33
-56.55
-74.53
-84.85
-87.59
-83.49
-73.64
-59.55
-43.46
-28.32
-17.05
-11.56
-11.83
-15.71
-19.54
-19.41
-12.61
1.35
20.58
41.57
60.43
74.17
81.43
82.61
79.35
73.78
67.85
62.86
59.31
56.94
55.08
52.94
49.97
45.97
41.06
35.38
28.93
21.56
13.18
4.00
-5.47
-14.63
-23.20
-31.33
-39.29
-46.83
-52.88
-55.67
-53.61
-46.29
-35.12
-23.06
-13.52
-9.14
-10.81
-17.78
-28.22
-40.18
-52.08
-62.68
-70.79
-74.90
-73.34
-64.88
-49.43
-28.58
-5.49
15.82
31.65
39.74
39.84
33.63
23.96
13.82
5.40
-0.24
-3.13
-3.89
-3.11
-1.09
2.20
6.85
12.67
19.03
24.95
29.43
31.76
31.79
30.01
27.59
26.13
27.46
33.16
44.00
59.31
76.72
92.34
101.89
102.01
91.59
72.28
47.98
23.50
2.98
-11.27
-19.13
-22.22
-22.99
-23.80
-26.29
-31.20
-38.49
-47.60
-57.59
-67.20
-74.97
-79.38
-79.20
-74.01
-64.41
-52.10
-39.41
-28.65
-21.35
-17.89
-17.59
-19.17
-21.30
-22.92
-23.36
-22.17
-19.05
-13.88
-6.93
1.03
8.75
14.84
18.35
19.09
17.75
15.53
13.63
12.74
13.01
14.22
16.16
18.85
22.36
26.56
30.70
33.49
33.44
29.38
20.95
8.60
-6.58
-23.26
-40.08
-55.73
-68.94
-78.53
-83.57
-83.58
-78.75
-69.88
-58.23
-45.26
-32.35
-20.51
-10.23
-1.41
6.39
13.65
20.41
26.15
29.96
31.09
29.50
26.10
22.50
20.35
20.67
23.48
27.94
32.78
36.86
39.49
40.59
40.55
40.13
40.13
41.17
43.35
46.14
48.47
49.07
47.06
42.41
36.03
29.45
24.15
20.89
19.31
18.01
15.13
9.05
-0.94
-14.43
-30.00
-45.83
-60.19
-71.87
-80.30
-85.36
-87.25
-86.20
-82.69
-77.43
-71.43
-65.70
-60.89
-56.91
-52.88
-47.42
-39.25
-27.77
-13.25
3.26
20.41
36.90
51.72
64.12
73.43
79.08
80.64
78.11
72.03
63.57
54.16
45.22
37.75
32.26
28.77
27.07
26.86
27.85
29.63
31.58
32.86
32.50
29.77
24.45
16.95
8.24
-0.48
-8.18
-14.25
-18.56
-21.36
-23.04
-24.01
-24.61
-25.18
-26.04
-27.48
-29.68
-32.62
-36.06
-39.63
-42.87
-45.41
-47.02
-47.66
-47.37
-46.16
-43.94
-40.54
-35.82
-29.82
-22.90
-15.70
-8.98
-3.27
1.34
5.18
8.80
12.56
16.34
19.46
21.01
20.20
16.83
11.43
5.14
-0.65
-4.83
-6.94
-7.40
-7.38
-8.30
-11.19
-16.20
-22.40
-28.19
-32.11
-33.65
-33.87
-35.38
-41.79
-56.94
-83.82
-123.66
-175.04
-233.55
-292.08
-342.07
-375.57
-387.54
-377.43
-349.40
-310.85
-269.88
-232.72
-202.17
-177.64
-156.44
-135.41
-112.30
-86.08
-56.60
-24.06
11.25
48.66
86.75
123.16
155.01
179.86
196.51
205.51
208.76
208.67
207.22
205.28
202.70
198.66
192.45
184.02
174.18
164.43
156.47
151.60
150.20
151.58
154.12
155.98
155.71
152.84
147.93
142.27
137.13
133.31
130.93
129.61
128.97
128.96
129.89
132.13
135.63
139.49
142.02
141.30
135.98
125.98
112.69
98.49
85.76
75.81
68.35
61.85
54.47
45.17
34.28
23.18
13.47
6.21
1.52
-1.22
-2.92
-4.49
-6.86
-11.05
-17.99
-27.93
-39.75
-50.87
-57.82
-57.67
-49.44
-34.68
-17.03
-0.78
10.68
15.94
15.59
11.47
5.72
0.14
-3.80
-4.73
-1.28
7.66
22.24
41.09
61.31
79.22
91.48
96.16
93.15
83.99
71.10
57.01
43.74
32.62
24.22
18.53
14.97
12.58
10.23
6.95
2.15
-4.18
-11.48
-18.65
-24.35
-27.31
-26.71
-22.52
-15.57
-7.32
0.60
7.00
11.40
13.97
15.23
15.53
14.82
12.64
8.53
2.50
-4.69
-11.56
-16.45
-18.10
-16.11
-11.08
-4.25
3.00
9.65
15.27
19.94
23.93
27.51
30.73
33.39
34.91
34.26
29.95
20.20
3.50
-20.82
-52.17
-88.61
-127.24
-164.78
-198.20
-225.03
-243.58
-252.91
-252.86
-244.05
-227.90
-206.62
-182.96
-159.92
-140.18
-125.68
-117.04
-113.47
-112.91
-112.65
-110.13
-103.57
-92.25
-76.37
-56.81
-34.75
-11.70
10.58
30.12
45.14
54.61
58.67
58.70
56.88
55.50
56.17
59.49
65.04
71.71
78.20
83.36
86.52
87.58
86.96
85.36
83.34
80.98
77.74
72.75
65.48
56.33
46.87
39.36
35.79
36.85
41.38
46.61
49.12
46.12
36.29
20.20
-0.04
-21.43
-40.78
-55.34
-63.19
-63.44
-56.38
-43.32
-26.36
-7.93
9.60
24.31
34.87
40.72
42.11
40.06
36.19
32.31
30.02
30.16
32.67
36.71
41.12
44.98
48.02
50.74
54.11
59.12
66.17
74.79
83.68
91.12
95.59
96.27
93.34
87.67
80.41
72.29
63.17
51.91
36.62
15.27
-13.52
-49.60
-90.79
-132.76
-169.75
-195.90
-207.02
-202.11
-183.83
-157.69
-130.23
-106.69
-89.51
-78.07
-69.79
-61.87
-52.68
-42.32
-31.95
-22.87
-15.84
-10.99
-8.23
-7.55
-8.99
-12.22
-16.15
-19.14
-19.59
-16.82
-11.52
-5.51
-0.93
0.94
0.19
-1.73
-2.93
-2.16
0.32
2.65
2.08
-3.77
-15.69
-32.33
-50.62
-66.82
-77.98
-82.80
-81.80
-76.81
-70.05
-63.51
-58.49
-55.52
-54.46
-54.58
-54.78
-53.91
-51.11
-46.13
-39.37
-31.76
-24.41
-18.27
-13.90
-11.39
-10.39
-10.18
-9.84
-8.51
-5.67
-1.43
3.38
7.46
9.40
8.25
3.83
-3.12
-11.07
-18.10
-22.51
-23.25
-20.31
-14.68
-7.99
-1.89
2.51
4.91
5.74
5.81
5.76
5.81
5.79
5.36
4.33
2.86
1.43
0.58
0.72
1.94
4.00
6.47
8.92
11.11
13.06
14.97
17.16
19.82
22.94
26.32
29.58
32.42
34.58
35.99
36.69
36.78
36.30
35.20
33.35
30.65
27.14
23.08
18.91
15.13
12.05
9.62
7.52
5.26
2.52
-0.69
-4.01
-6.90
-8.92
-9.93
-10.13
-9.95
-9.89
-10.39
-11.69
-13.92
-17.07
-20.98
-25.30
-29.49
-32.84
-34.71
-34.70
-32.84
-29.56
-25.52
-21.38
-17.54
-14.08
-10.79
-7.39
-3.74
0.06
3.63
6.44
8.03
8.18
7.02
4.96
2.60
0.41
-1.42
-3.05
-4.86
-7.20
-10.07
-12.94
-14.79
-14.34
-10.45
-2.56
9.01
22.89
36.74
47.53
52.04
47.56
32.63
7.66
-24.96
-61.29
-96.77
-127.35
-150.46
-165.25
-172.30
-172.73
-167.52
-157.22
-142.30
-123.74
-103.25
-83.05
-65.00
-49.81
-36.70
-23.90
-9.56
7.35
26.54
46.82
66.87
86.07
104.71
123.50
142.78
161.63
177.87
188.80
192.56
189.10
180.66
171.15
164.96
165.44
173.83
189.23
209.18
230.65
250.66
266.37
275.03
274.01
261.48
237.26
203.46
164.14
124.31
88.26
58.50
35.40
17.80
4.07
-6.90
-15.53
-21.89
-26.24
-29.19
-31.45
-33.54
-35.50
-36.90
-37.23
-36.39
-34.86
-33.73
-34.15
-36.99
-42.22
-49.01
-55.92
-61.50
-64.84
-65.79
-64.97
-63.42
-62.08
-61.43
-61.28
-60.92
-59.58
-56.87
-53.13
-49.24
-46.25
-44.82
-44.97
-46.03
-47.07
-47.13
-45.54
-41.89
-36.09
-28.33
-19.31
-10.30
-2.92
1.36
1.86
-0.95
-5.51
-9.85
-12.37
-12.41
-10.39
-7.46
-4.78
-2.96
-1.79
-0.43
2.13
6.46
12.35
18.81
24.35
27.53
27.46
24.12
18.24
11.01
3.52
-3.54
-10.01
-15.95
-21.33
-25.79
-28.70
-29.55
-28.36
-25.80
-23.00
-21.15
-21.13
-23.30
-27.49
-33.14
-39.28
-44.67
-47.90
-47.79
-43.77
-36.14
-26.19
-15.74
-6.68
-0.33
2.88
3.52
2.87
2.55
4.08
8.49
16.11
26.50
38.62
51.09
62.46
71.30
76.32
76.43
70.95
59.94
44.42
26.37
8.35
-7.19
-18.61
-25.46
-28.38
-28.56
-27.04
-24.36
-20.50
-15.45
-9.51
-3.48
1.64
5.02
6.29
5.44
2.51
-2.57
-9.90
-19.34
-30.12
-40.90
-50.10
-56.49
-59.62
-59.94
-58.47
-56.24
-53.88
-51.48
-48.77
-45.45
-41.35
-36.50
-30.88
-24.27
-16.26
-6.53
4.84
17.21
29.55
40.82
50.44
58.44
65.13
70.63
74.46
75.63
72.99
65.96
54.97
41.50
27.66
15.51
6.50
1.17
-0.77
-0.31
1.14
1.78
-0.11
-5.55
-14.01
-23.10
-29.34
-29.55
-22.61
-10.10
4.26
16.33
23.37
24.89
22.36
17.92
13.21
8.89
4.91
1.05
-2.80
-6.78
-11.37
-17.41
-25.63
-36.24
-48.62
-61.51
-73.48
-83.36
-90.50
-94.82
-96.57
-96.18
-94.08
-90.59
-85.88
-80.00
-73.00
-64.98
-56.24
-47.21
-38.38
-30.15
-22.73
-16.13
-10.16
-4.54
0.93
6.32
11.53
16.32
20.36
23.37
25.13
25.54
24.69
22.83
20.39
17.88
15.71
14.05
12.72
11.35
9.53
7.17
4.49
2.04
0.36
-0.29
-0.05
0.62
1.34
2.01
2.96
4.72
7.62
11.45
15.46
18.60
20.01
19.41
17.28
14.62
12.53
11.80
12.62
14.63
17.21
19.63
21.40
22.25
22.20
21.41
20.14
18.66
17.26
16.15
15.56
15.66
16.58
18.24
20.32
22.16
22.86
21.55
17.68
11.29
3.13
-5.79
-14.46
-22.17
-28.84
-34.77
-40.33
-45.79
-51.43
-57.77
-65.64
-75.99
-89.36
-105.52
-123.49
-142.07
-160.31
-177.65
-193.34
-205.73
-212.05
-209.14
-194.97
-170.01
-137.47
-102.31
-69.10
-40.13
-14.70
10.24
38.61
73.77
117.76
170.45
229.15
288.54
341.09
378.71
395.16
388.17
360.14
317.04
265.90
212.04
157.85
103.43
48.74
-4.14
-50.21
-82.68
-95.53
-86.33
-57.61
-16.53
27.22
64.12
87.25
93.52
83.47
60.26
28.50
-6.78
-40.69
-69.10
-89.16
-99.78
-101.69
-97.00
-88.37
-78.16
-67.88
-58.06
-48.53
-38.81
-28.40
-17.16
-5.51
5.35
13.59
17.15
14.47
5.20
-9.39
-26.56
-42.98
-55.70
-62.95
-64.44
-61.09
-54.43
-45.97
-36.86
-27.73
-19.07
-11.27
-4.91
-0.64
1.14
0.44
-2.06
-5.15
-7.44
-7.85
-6.01
-2.45
1.62
4.98
7.09
8.60
11.14
16.69
26.50
40.28
56.02
70.59
80.86
84.78
82.02
73.83
62.35
49.73
37.50
26.29
16.09
6.69
-1.99
-9.76
-16.29
-21.39
-25.14
-27.89
-29.93
-31.21
-31.27
-29.42
-25.15
-18.57
-10.49
-2.29
4.63
9.24
11.12
10.43
7.65
3.43
-1.44
-6.05
-9.41
-10.69
-9.50
-6.20
-1.78
2.40
5.23
6.23
5.72
4.53
3.61
3.49
4.15
5.12
5.81
5.94
5.59
5.20
5.15
5.55
5.99
5.75
4.11
0.76
-4.05
-9.60
-15.09
-20.06
-24.62
-29.42
-35.25
-42.61
-51.32
-60.42
-68.58
-74.58
-77.93
-78.94
-78.51
-77.40
-75.73
-72.95
-68.41
-62.20
-55.72
-51.36
-51.32
-56.29
-64.64
-72.83
-76.86
-74.16
-64.75
-51.14
-37.05
-25.56
-18.03
-14.00
-12.20
-11.57
-11.81
-13.00
-14.68
-15.35
-12.65
-4.60
9.21
26.92
45.06
60.03
69.57
73.61
73.73
72.19
70.80
70.56
71.70
74.03
77.00
79.70
80.73
78.49
71.93
61.08
47.46
33.67
22.50
15.90
14.44
17.51
23.99
32.83
43.12
53.66
62.57
67.34
65.66
56.38
40.42
20.64
1.00
-14.73
-24.06
-26.23
-22.23
-14.40
-6.02
-0.65
-1.29
-9.33
