1588205936.00
64.000000
-0.00
-0.00
-0.00
-0.00
-0.00
-0.00
-0.00
-0.00
-0.00
-0.00
0.00
0.01
0.01
-0.00
-0.03
-0.05
-0.05
0.00
0.13
0.36
0.66
1.01
1.37
1.72
2.06
2.41
2.79
3.24
3.80
4.42
5.09
5.75
6.37
6.96
7.54
8.17
8.88
9.77
10.79
11.85
12.89
13.85
14.77
15.78
17.05
18.71
20.98
23.71
26.68
29.62
32.40
35.06
37.84
41.11
45.14
50.33
56.42
63.02
69.66
76.03
82.11
88.22
94.87
102.47
111.60
121.98
133.11
144.37
155.28
165.71
175.92
186.84
196.94
208.51
222.57
239.75
259.34
278.60
292.91
297.03
286.89
261.19
222.38
174.83
123.62
72.68
23.83
-22.87
-68.13
-112.52
-156.27
-199.24
-241.76
-283.82
-324.40
-360.88
-389.33
-405.80
-407.92
-396.17
-373.62
-345.02
-314.95
-286.58
-261.13
-238.37
-217.57
-198.16
-180.01
-163.07
-147.26
-132.25
-117.65
-103.26
-89.21
-75.91
-63.87
-53.43
-44.55
-36.86
-29.86
-23.09
-16.36
-9.80
-3.78
1.33
5.33
8.34
10.71
12.87
15.14
17.60
20.07
22.23
23.76
24.51
24.57
24.20
23.69
23.28
23.02
22.85
22.64
22.28
21.75
21.12
20.48
19.91
19.44
19.09
18.81
18.58
18.35
18.07
17.69
17.18
16.54
15.83
15.10
14.44
13.88
13.40
12.98
12.60
12.22
11.85
11.46
11.00
10.46
9.83
9.17
8.55
8.00
7.52
7.03
6.46
5.77
5.05
4.45
4.13
4.15
4.40
4.67
4.74
4.50
4.01
3.48
3.11
3.03
3.20
3.45
3.64
3.75
3.93
4.40
5.33
6.69
8.25
9.64
10.53
10.80
10.55
10.05
9.56
9.25
9.13
9.10
9.03
8.84
8.51
8.07
7.54
6.90
6.10
5.11
3.95
2.71
1.52
0.48
-0.31
-0.85
-1.17
-1.31
-1.36
-1.36
-1.38
-1.45
-1.58
-1.77
-1.97
-2.15
-2.30
-2.40
-2.48
-2.57
-2.70
-2.87
-3.07
-3.27
-3.45
-3.58
-3.62
-3.55
-3.36
-3.05
-2.67
-2.29
-1.97
-1.76
-1.69
-1.70
-1.73
-1.74
-1.68
-1.59
-1.46
-1.31
-1.09
-0.75
-0.24
0.41
1.13
1.82
2.35
2.62
2.60
2.31
1.90
1.54
1.40
1.56
1.99
2.52
2.96
3.18
3.17
3.02
2.88
2.85
2.93
3.06
3.16
3.19
3.16
3.07
2.96
2.88
2.84
2.91
3.08
3.32
3.53
3.61
3.49
3.17
2.75
2.39
2.19
2.22
2.43
2.71
2.93
3.01
2.92
2.68
2.37
2.07
1.85
1.77
1.82
1.94
2.05
2.05
1.88
1.54
1.12
0.76
0.60
0.69
0.99
1.38
1.76
2.05
2.25
2.40
2.51
2.55
2.44
2.11
1.58
0.99
0.49
0.23
0.27
0.58
1.02
1.47
1.81
1.98
1.97
1.79
1.50
1.17
0.88
0.69
0.62
0.63
0.66
0.64
0.57
0.48
0.41
0.40
0.43
0.44
0.38
0.26
0.12
0.03
0.09
0.30
0.63
0.98
1.26
1.40
1.38
1.23
1.05
0.92
0.89
0.97
1.09
1.21
1.28
1.31
1.34
1.41
1.54
1.70
1.82
1.85
1.76
1.60
1.42
1.25
1.07
0.81
0.40
-0.11
-0.63
-0.98
-1.05
-0.79
-0.33
0.18
0.55
0.72
0.69
0.54
0.35
0.15
-0.05
-0.25
-0.42
-0.50
-0.47
-0.33
-0.15
-0.03
-0.02
-0.11
-0.23
-0.31
-0.28
-0.16
-0.03
0.04
-0.01
-0.13
-0.25
-0.28
-0.18
0.01
0.23
0.41
0.53
0.58
0.59
0.55
0.46
0.30
0.07
-0.16
-0.33
-0.34
-0.18
0.10
0.41
0.63
0.66
0.54
0.34
0.17
0.11
0.16
0.25
0.33
0.37
0.39
0.41
0.44
0.48
0.48
0.42
0.35
0.28
0.26
0.30
0.35
0.38
0.37
0.33
0.29
0.27
0.26
0.25
0.24
0.22
0.22
0.22
0.24
0.26
0.32
0.44
0.61
0.80
0.95
1.01
0.94
0.75
0.51
0.30
0.15
0.10
0.11
0.18
0.31
0.47
0.62
0.68
0.58
0.31
-0.09
-0.49
-0.79
-0.90
-0.82
-0.63
-0.44
-0.31
-0.28
-0.29
-0.27
-0.15
0.07
0.37
0.65
0.83
0.86
0.74
0.50
0.22
-0.04
-0.24
-0.38
-0.45
-0.48
-0.50
-0.51
-0.53
-0.57
-0.63
-0.73
-0.92
-1.17
-1.45
-1.65
-1.69
-1.54
-1.26
-1.00
-0.90
-1.00
-1.28
-1.60
-1.87
-2.06
-2.20
-2.34
-2.50
-2.61
-2.61
-2.43
-2.09
-1.67
-1.26
-0.89
-0.54
-0.13
0.41
1.09
1.83
2.52
3.03
3.28
3.28
3.10
2.87
2.71
2.67
2.76
2.89
2.98
2.97
2.84
2.65
2.45
2.29
2.20
2.14
2.11
2.09
2.12
2.26
2.53
2.91
3.30
3.60
3.72
3.65
3.43
3.15
2.87
2.57
2.21
1.72
1.10
0.39
-0.33
-0.97
-1.47
-1.80
-1.97
-1.98
-1.87
-1.73
-1.62
-1.62
-1.79
-2.11
-2.52
-2.89
-3.14
-3.23
-3.18
-3.05
-2.90
-2.75
-2.56
-2.27
-1.83
-1.27
-0.71
-0.30
-0.14
-0.21
-0.39
-0.50
-0.36
0.06
0.66
1.25
1.63
1.71
1.50
1.14
0.81
0.63
0.66
0.85
1.09
1.28
1.36
1.33
1.24
1.15
1.10
1.08
1.05
1.01
0.95
0.90
0.89
0.94
1.00
1.03
0.98
0.85
0.68
0.53
0.43
0.39
0.39
0.41
0.41
0.37
0.29
0.16
-0.02
-0.25
-0.51
-0.75
-0.88
-0.83
-0.58
-0.17
0.30
0.67
0.83
0.80
0.66
0.54
0.54
0.63
0.69
0.60
0.31
-0.10
-0.48
-0.68
-0.68
-0.52
-0.33
-0.21
-0.20
-0.26
-0.31
-0.31
-0.24
-0.14
-0.06
-0.04
-0.08
-0.18
-0.33
-0.51
-0.69
-0.84
-0.91
-0.89
-0.78
-0.61
-0.43
-0.29
-0.20
-0.14
-0.10
-0.07
-0.06
-0.08
-0.15
-0.28
-0.44
-0.63
-0.82
-0.98
-1.10
-1.16
-1.14
-1.02
-0.80
-0.50
-0.17
0.12
0.35
0.49
0.56
0.57
0.55
0.52
0.49
0.46
0.48
0.57
0.74
0.92
0.99
0.85
0.50
0.01
-0.45
-0.71
-0.71
-0.48
-0.18
0.04
0.11
0.05
-0.03
-0.04
0.04
0.19
0.35
0.46
0.51
0.54
0.55
0.54
0.44
0.20
-0.21
-0.72
-1.20
-1.52
-1.57
-1.39
-1.12
-0.93
-0.96
-1.18
-1.45
-1.59
-1.49
-1.22
-1.00
-1.02
-1.38
-1.93
-2.41
-2.56
-2.29
-1.72
-1.11
-0.70
-0.60
-0.74
-0.98
-1.18
-1.29
-1.38
-1.51
-1.73
-2.00
-2.22
-2.29
-2.15
-1.86
-1.52
-1.26
-1.19
-1.31
-1.54
-1.73
-1.77
-1.58
-1.21
-0.68
-0.04
0.71
1.56
2.49
3.42
4.24
4.89
5.32
5.56
5.67
5.65
5.49
5.18
4.77
4.36
4.13
4.20
4.61
5.21
5.78
6.06
5.91
5.31
4.42
3.40
2.43
1.57
0.81
0.17
-0.35
-0.67
-0.79
-0.77
-0.73
-0.81
-1.09
-1.55
-2.07
-2.54
-2.93
-3.29
-3.65
-4.00
-4.24
-4.25
-3.96
-3.45
-2.90
-2.53
-2.46
-2.71
-3.14
-3.59
-3.91
-4.03
-3.99
-3.84
-3.62
-3.33
-2.95
-2.47
-1.92
-1.38
-0.91
-0.52
-0.15
0.28
0.81
1.43
2.07
2.63
3.06
3.34
3.49
3.53
3.48
3.35
3.18
2.98
2.73
2.42
1.98
1.43
0.82
0.28
-0.04
-0.04
0.30
0.91
1.67
2.47
3.24
3.94
4.54
5.00
5.27
5.31
5.13
4.79
4.39
4.01
3.70
3.43
3.13
2.74
2.26
1.76
1.33
1.02
0.81
0.63
0.41
0.14
-0.16
-0.39
-0.55
-0.66
-0.77
-0.94
-1.16
-1.39
-1.56
-1.60
-1.52
-1.34
-1.08
-0.77
-0.40
-0.02
0.34
0.58
0.64
0.46
0.07
-0.43
-0.91
-1.24
-1.37
-1.35
-1.30
-1.33
-1.50
-1.80
-2.18
-2.57
-2.93
-3.22
-3.41
-3.45
-3.32
-3.06
-2.75
-2.55
-2.53
-2.69
-2.93
-3.06
-2.97
-2.60
-2.04
-1.46
-1.04
-0.88
-0.98
-1.24
-1.51
-1.63
-1.56
-1.32
-0.99
-0.64
-0.28
0.08
0.45
0.80
1.04
1.09
0.91
0.57
0.20
-0.04
-0.05
0.16
0.51
0.83
1.00
0.98
0.78
0.50
0.23
0.04
-0.05
-0.06
-0.03
0.01
0.05
0.10
0.14
0.17
0.16
0.09
-0.05
-0.23
-0.40
-0.53
-0.55
-0.46
-0.28
-0.05
0.15
0.25
0.23
0.11
-0.09
-0.27
-0.38
-0.38
-0.30
-0.18
-0.10
-0.09
-0.17
-0.31
-0.43
-0.46
-0.34
-0.08
0.29
0.69
1.00
1.16
1.14
0.99
0.79
0.61
0.50
0.46
0.44
0.39
0.27
0.06
-0.18
-0.38
-0.44
-0.35
-0.11
0.18
0.42
0.56
0.56
0.47
0.33
0.18
0.02
-0.16
-0.38
-0.59
-0.75
-0.79
-0.71
-0.52
-0.26
0.02
0.26
0.43
0.50
0.46
0.34
0.18
0.01
-0.14
-0.27
-0.42
-0.60
-0.81
-1.02
-1.16
-1.15
-0.98
-0.70
-0.42
-0.24
-0.19
-0.23
-0.27
-0.20
-0.01
0.23
0.39
0.40
0.26
0.12
0.11
0.33
0.72
1.13
1.39
1.42
1.26
1.02
0.80
0.63
0.46
0.23
-0.07
-0.35
-0.51
-0.49
-0.33
-0.13
0.04
0.17
0.32
0.53
0.75
0.86
0.73
0.32
-0.25
-0.78
-1.04
-0.98
-0.68
-0.32
-0.10
-0.08
-0.23
-0.44
-0.60
-0.68
-0.68
-0.65
-0.62
-0.57
-0.50
-0.40
-0.30
-0.22
-0.17
-0.16
-0.16
-0.15
-0.12
-0.08
-0.06
-0.06
-0.08
-0.09
-0.06
0.01
0.12
0.24
0.33
0.34
0.27
0.14
0.01
-0.05
0.01
0.23
0.57
0.93
1.24
1.42
1.44
1.33
1.16
0.99
0.89
0.86
0.87
0.86
0.75
0.49
0.09
-0.39
-0.83
-1.16
-1.31
-1.27
-1.07
-0.72
-0.28
0.18
0.54
0.69
0.57
0.23
-0.21
-0.58
-0.75
-0.69
-0.44
-0.12
0.19
0.41
0.52
0.52
0.41
0.21
-0.07
-0.38
-0.66
-0.84
-0.90
-0.85
-0.75
-0.64
-0.57
-0.56
-0.59
-0.63
-0.65
-0.62
-0.52
-0.36
-0.15
0.06
0.24
0.37
0.45
0.52
0.57
0.60
0.55
0.40
0.15
-0.13
-0.34
-0.38
-0.23
0.07
0.39
0.64
0.75
0.71
0.56
0.35
0.10
-0.16
-0.40
-0.59
-0.65
-0.57
-0.38
-0.20
-0.15
-0.34
-0.74
-1.27
-1.77
-2.12
-2.31
-2.37
-2.41
-2.46
-2.55
-2.64
-2.69
-2.68
-2.61
-2.47
-2.25
-1.94
-1.52
-0.98
-0.35
0.34
1.03
1.71
2.35
2.92
3.42
3.81
4.07
4.17
4.08
3.80
3.38
2.87
2.31
1.72
1.12
0.50
-0.11
-0.66
-1.11
-1.43
-1.67
-1.92
-2.26
-2.73
-3.27
-3.75
-3.98
-3.89
-3.50
-3.01
-2.65
-2.56
-2.78
-3.18
-3.59
-3.87
-4.02
-4.09
-4.14
-4.16
-4.03
-3.60
-2.82
-1.76
-0.59
0.45
1.24
1.79
2.24
2.75
3.42
4.23
5.02
5.64
5.97
6.06
6.00
5.93
5.94
6.02
6.13
6.23
6.30
6.38
6.54
6.77
7.03
7.20
7.17
6.92
6.45
5.88
5.30
4.77
4.29
3.77
3.16
2.43
1.64
0.88
0.26
-0.16
-0.41
-0.57
-0.73
-0.93
-1.20
-1.53
-1.91
-2.37
-2.96
-3.71
-4.53
-5.29
-5.80
-5.94
-5.73
-5.27
-4.74
-4.23
-3.79
-3.39
-3.05
-2.78
-2.65
-2.68
-2.81
-2.99
-3.12
-3.14
-3.06
-2.88
-2.62
-2.23
-1.69
-1.02
-0.31
0.30
0.71
0.88
0.88
0.82
0.80
0.82
0.76
0.47
-0.18
-1.16
-2.29
-3.30
-3.93
-4.06
-3.75
-3.21
-2.68
-2.33
-2.21
-2.26
-2.33
-2.33
-2.21
-1.99
-1.72
-1.41
-1.05
-0.59
0.02
0.80
1.73
2.71
3.64
4.41
4.95
5.25
5.38
5.42
5.43
5.46
5.46
5.40
5.23
4.98
4.71
4.44
4.16
3.79
3.26
2.55
1.74
0.97
0.36
0.00
-0.11
-0.04
0.11
0.24
0.29
0.19
-0.08
-0.48
-0.95
-1.38
-1.69
-1.83
-1.82
-1.67
-1.46
-1.22
-1.05
-0.97
-1.03
-1.19
-1.40
-1.56
-1.62
-1.59
-1.50
-1.40
-1.30
-1.17
-0.99
-0.75
-0.50
-0.33
-0.30
-0.44
-0.70
-1.00
-1.23
-1.29
-1.15
-0.82
-0.38
0.04
0.34
0.44
0.33
0.06
-0.26
-0.53
-0.70
-0.74
-0.65
-0.45
-0.15
0.24
0.67
1.04
1.26
1.23
0.95
0.51
0.05
-0.30
-0.47
-0.47
-0.38
-0.27
-0.16
-0.05
0.12
0.32
0.53
0.65
0.65
0.52
0.29
0.03
-0.19
-0.33
-0.37
-0.30
-0.12
0.13
0.38
0.56
0.59
0.48
0.27
0.00
-0.24
-0.42
-0.52
-0.51
-0.42
-0.28
-0.16
-0.11
-0.15
-0.24
-0.31
-0.29
-0.19
-0.11
-0.14
-0.36
-0.70
-1.03
-1.16
-1.02
-0.64
-0.17
0.20
0.41
0.43
0.35
0.25
0.16
0.08
0.01
-0.07
-0.13
-0.15
-0.11
-0.03
0.06
0.13
0.16
0.13
0.02
-0.16
-0.35
-0.51
-0.56
-0.46
-0.21
0.13
0.49
0.80
1.00
1.09
1.09
1.02
0.91
0.77
0.58
0.37
0.17
0.03
-0.03
-0.00
0.07
0.14
0.16
0.13
0.07
0.02
0.01
0.03
0.03
-0.03
-0.15
-0.29
-0.39
-0.39
-0.27
-0.08
0.09
0.18
0.16
0.09
-0.01
-0.11
-0.20
-0.28
-0.35
-0.37
-0.36
-0.35
-0.38
-0.50
-0.65
-0.74
-0.65
-0.37
0.03
0.39
0.58
0.55
0.38
0.16
0.02
-0.03
-0.02
0.01
0.03
0.07
0.14
0.25
0.37
0.45
0.43
0.28
0.05
-0.21
-0.42
-0.56
-0.62
-0.64
-0.66
-0.69
-0.69
-0.61
-0.40
-0.08
0.28
0.59
0.77
0.80
0.71
0.58
0.48
0.41
0.39
0.37
0.35
0.35
0.40
0.51
0.65
0.76
0.73
0.53
0.18
-0.20
-0.48
-0.55
-0.42
-0.21
-0.05
-0.02
-0.11
-0.25
-0.35
-0.38
-0.36
-0.33
-0.31
-0.26
-0.14
0.06
0.28
0.42
0.39
0.21
-0.04
-0.25
-0.31
-0.23
-0.04
0.16
0.31
0.35
0.28
0.12
-0.13
-0.43
-0.72
-0.95
-1.07
-1.05
-0.90
-0.64
-0.33
-0.05
0.16
0.25
0.23
0.15
0.12
0.19
0.38
0.64
0.86
0.97
0.92
0.76
0.57
0.42
0.33
0.28
0.24
0.18
0.09
-0.02
-0.15
-0.32
-0.52
-0.71
-0.85
-0.88
-0.77
-0.57
-0.34
-0.15
-0.02
0.04
0.03
-0.03
-0.15
-0.34
-0.54
-0.69
-0.72
-0.62
-0.44
-0.29
-0.26
-0.35
-0.49
-0.58
-0.54
-0.39
-0.24
-0.19
-0.29
-0.49
-0.68
-0.76
-0.66
-0.38
0.02
0.46
0.85
1.13
1.25
1.20
1.01
0.73
0.42
0.13
-0.08
-0.16
-0.10
0.11
0.41
0.70
0.86
0.85
0.67
0.42
0.22
0.14
0.20
0.36
0.58
0.81
1.05
1.23
1.31
1.21
0.92
0.49
0.05
-0.28
-0.41
-0.34
-0.14
0.10
0.27
0.32
0.21
-0.04
-0.36
-0.64
-0.80
-0.78
-0.63
-0.43
-0.27
-0.22
-0.26
-0.36
-0.43
-0.45
-0.43
-0.40
-0.38
-0.33
-0.25
-0.12
0.04
0.16
0.19
0.12
-0.03
-0.19
-0.29
-0.29
-0.17
0.01
0.16
0.20
0.10
-0.07
-0.21
-0.21
-0.01
0.34
0.71
0.95
0.98
0.82
0.58
0.38
0.31
0.35
0.40
0.34
0.12
-0.22
-0.54
-0.69
-0.62
-0.36
-0.10
0.01
-0.12
-0.42
-0.70
-0.78
-0.60
-0.25
0.09
0.23
0.12
-0.14
-0.36
-0.39
-0.18
0.19
0.58
0.87
1.00
0.95
0.79
0.59
0.40
0.24
0.13
0.05
-0.00
-0.02
-0.03
-0.06
-0.14
-0.26
-0.41
-0.55
-0.62
-0.60
-0.49
-0.33
-0.17
-0.06
-0.01
-0.04
-0.13
-0.29
-0.50
-0.71
-0.88
-0.98
-0.99
-0.94
-0.86
-0.79
-0.71
-0.61
-0.45
-0.22
0.08
0.40
0.68
0.88
0.95
0.88
0.66
0.35
-0.02
-0.35
-0.59
-0.67
-0.56
-0.24
0.22
0.75
1.25
1.59
1.70
1.56
1.21
0.74
0.27
-0.09
-0.25
-0.22
-0.08
0.07
0.13
0.07
-0.03
-0.07
0.01
0.18
0.34
0.40
0.35
0.25
0.19
0.19
0.19
0.09
-0.17
-0.50
-0.74
-0.76
-0.54
-0.19
0.08
0.15
0.04
-0.13
-0.20
-0.13
0.02
0.18
0.27
0.31
0.34
0.36
0.36
0.25
0.02
-0.31
-0.63
-0.82
-0.84
-0.71
-0.51
-0.33
-0.22
-0.17
-0.14
-0.08
0.01
0.11
0.19
0.20
0.15
0.03
-0.14
-0.32
-0.51
-0.69
-0.82
-0.84
-0.70
-0.37
0.10
0.57
0.90
0.94
0.67
0.19
-0.35
-0.77
-0.98
-0.95
-0.74
-0.43
-0.08
0.25
0.53
0.72
0.77
0.69
0.49
0.22
-0.05
-0.27
-0.40
-0.44
-0.39
-0.28
-0.16
-0.05
-0.01
-0.03
-0.10
-0.17
-0.23
-0.25
-0.25
-0.27
-0.31
-0.35
-0.37
-0.32
-0.20
-0.03
0.16
0.34
0.47
0.54
0.60
0.65
0.74
0.84
0.95
1.03
1.07
1.04
0.94
0.79
0.60
0.42
0.29
0.22
0.22
0.20
0.10
-0.12
-0.44
-0.76
-0.92
-0.86
-0.60
-0.27
-0.06
-0.10
-0.41
-0.91
-1.42
-1.79
-1.91
-1.76
-1.37
-0.81
-0.18
0.40
0.84
1.07
1.08
0.91
0.61
0.28
-0.01
-0.17
-0.14
0.08
0.43
0.80
1.05
1.09
0.90
0.56
0.21
-0.04
-0.12
-0.05
0.10
0.27
0.42
0.53
0.58
0.54
0.43
0.28
0.14
0.08
0.11
0.18
0.22
0.16
-0.03
-0.33
-0.68
-0.97
-1.13
-1.13
-0.98
-0.72
-0.44
-0.19
-0.04
0.00
-0.07
-0.22
-0.41
-0.58
-0.67
-0.66
-0.54
-0.33
-0.11
0.07
0.15
0.12
-0.02
-0.25
-0.55
-0.87
-1.17
-1.41
-1.58
-1.71
-1.81
-1.86
-1.82
-1.62
-1.27
-0.83
-0.47
-0.33
-0.45
-0.77
-1.11
-1.31
-1.30
-1.14
-0.94
-0.80
-0.72
-0.65
-0.49
-0.20
0.15
0.47
0.68
0.78
0.84
0.98
1.25
1.65
2.07
2.36
2.42
2.25
1.93
1.62
1.45
1.49
1.68
1.92
2.10
2.15
2.07
1.93
1.79
1.67
1.52
1.28
0.92
0.46
-0.02
-0.43
-0.74
-0.96
-1.14
-1.30
-1.41
-1.42
-1.27
-0.98
-0.67
-0.43
-0.37
-0.48
-0.67
-0.82
-0.84
-0.73
-0.56
-0.40
-0.31
-0.24
-0.12
0.11
0.39
0.61
0.65
0.47
0.19
-0.00
0.06
0.41
0.94
1.42
1.68
1.69
1.55
1.44
1.49
1.74
2.09
2.43
2.66
2.74
2.74
2.68
2.59
2.45
2.23
1.94
1.63
1.35
1.12
0.88
0.61
0.28
-0.08
-0.40
-0.63
-0.75
-0.81
-0.85
-0.94
-1.11
-1.34
-1.59
-1.81
-1.97
-2.03
-2.01
-1.92
-1.80
-1.68
-1.61
-1.57
-1.56
-1.55
-1.52
-1.45
-1.35
-1.24
-1.12
-1.02
-0.91
-0.77
-0.57
-0.34
-0.14
-0.06
-0.17
-0.43
-0.74
-0.97
-1.01
-0.84
-0.54
-0.25
-0.08
-0.06
-0.16
-0.29
-0.41
-0.49
-0.53
-0.53
-0.48
-0.39
-0.27
-0.12
-0.00
0.08
0.14
0.24
0.45
0.77
1.16
1.51
1.66
1.53
1.12
0.52
-0.09
-0.57
-0.84
-0.90
-0.83
-0.71
-0.60
-0.48
-0.36
-0.23
-0.12
-0.05
0.02
0.13
0.34
0.65
0.97
1.17
1.17
0.98
0.71
0.49
0.40
0.42
0.48
0.50
0.49
0.50
0.61
0.83
1.12
1.38
1.51
1.48
1.31
1.05
0.77
0.49
0.25
0.06
-0.09
-0.20
-0.31
-0.46
-0.67
-0.88
-1.03
-1.05
-0.90
-0.64
-0.37
-0.19
-0.18
-0.30
-0.47
-0.59
-0.57
-0.43
-0.25
-0.12
-0.12
-0.25
-0.44
-0.61
-0.67
-0.60
-0.44
-0.27
-0.12
-0.03
0.03
0.09
0.15
0.23
0.30
0.33
0.29
0.16
-0.07
-0.36
-0.61
-0.73
-0.64
-0.37
-0.02
0.22
0.25
0.06
-0.20
-0.37
-0.34
-0.15
0.02
-0.01
-0.33
-0.87
-1.45
-1.85
-1.97
-1.78
-1.36
-0.82
-0.20
0.46
1.14
1.77
2.25
2.50
2.49
2.25
1.90
1.55
1.27
1.08
0.93
0.80
0.65
0.52
0.43
0.37
0.32
0.24
0.09
-0.10
-0.30
-0.44
-0.49
-0.46
-0.40
-0.37
-0.39
-0.46
-0.54
-0.59
-0.53
-0.37
-0.13
0.12
0.27
0.26
0.08
-0.17
-0.36
-0.38
-0.18
0.20
0.62
0.96
1.13
1.09
0.87
0.49
0.02
-0.50
-1.00
