1607634439.00
64.000000
-0.00
-0.00
-0.00
-0.00
-0.00
-0.00
-0.00
-0.00
-0.00
-0.00
0.00
0.01
0.01
-0.00
-0.03
-0.05
-0.05
0.00
0.13
0.36
0.66
1.01
1.37
1.72
2.06
2.40
2.79
3.24
3.80
4.42
5.06
5.66
6.20
6.68
7.15
7.68
8.31
9.14
10.09
11.04
11.88
12.56
13.14
13.76
14.65
15.96
17.91
20.32
22.90
25.38
27.58
29.57
31.68
34.32
37.81
42.54
48.15
54.10
59.83
64.97
69.58
74.14
79.34
85.71
93.76
103.00
112.62
121.73
129.77
136.75
143.30
150.75
157.77
166.64
177.95
191.79
206.97
220.57
228.25
225.36
208.53
176.87
132.76
80.05
23.07
-34.94
-92.44
-149.16
-205.23
-260.37
-313.74
-363.87
-409.82
-450.88
-486.45
-515.66
-537.12
-549.08
-549.77
-538.13
-513.91
-478.31
-433.45
-381.95
-326.45
-269.19
-211.90
-155.84
-102.04
-51.36
-4.79
36.82
72.80
102.87
127.17
146.21
160.70
171.33
178.74
183.32
185.37
185.13
182.88
178.92
173.63
167.38
160.53
153.33
146.01
138.69
131.47
124.39
117.48
110.72
104.11
97.68
91.47
85.58
80.13
75.19
70.76
66.76
63.04
59.47
56.02
52.74
49.80
47.43
45.76
44.70
43.93
42.98
41.36
38.76
35.16
30.85
26.23
21.56
16.74
11.26
4.34
-4.61
-15.66
-28.21
-41.07
-52.80
-62.48
-70.00
-76.22
-82.56
-90.42
-100.50
-112.45
-124.98
-136.42
-145.51
-151.89
-156.07
-159.00
-161.61
-164.66
-168.68
-173.75
-178.59
-180.34
-174.47
-156.12
-122.37
-74.45
-18.24
37.32
83.64
115.83
133.67
140.80
142.32
142.25
142.40
142.86
143.29
142.14
140.55
139.83
140.33
141.12
140.52
136.76
129.12
118.16
105.52
93.50
83.67
76.56
71.57
67.38
62.60
56.37
48.66
40.22
32.44
26.42
22.66
20.91
20.28
19.67
18.17
15.36
11.50
7.54
4.49
3.10
3.56
5.35
7.56
9.15
9.50
8.56
6.95
5.56
5.13
6.37
9.18
13.46
18.96
24.83
29.31
29.93
24.32
11.57
-6.81
-27.12
-44.65
-55.65
-58.84
-55.54
-48.60
-40.74
-33.42
-26.70
-20.10
-13.44
-7.40
-3.15
-1.58
-2.59
-5.05
-7.37
-8.18
-7.23
-5.30
-3.84
-4.13
-6.63
-10.64
-14.84
-17.77
-18.59
-17.40
-15.10
-12.81
-11.36
-10.89
-10.91
-10.72
-9.97
-8.94
-8.46
-9.37
-11.94
-15.63
-19.22
-21.47
-21.73
-20.18
-17.66
-15.12
-13.14
-11.73
-10.61
-9.47
-8.29
-7.23
-6.43
-5.86
-5.33
-4.48
-3.11
-1.33
0.58
2.20
3.20
3.54
3.49
3.48
3.90
4.91
6.35
7.87
9.07
9.78
10.05
10.18
10.54
11.33
12.54
13.95
15.31
16.41
17.16
17.57
17.70
17.72
18.04
19.16
21.57
25.46
30.41
35.50
39.53
41.50
40.90
38.19
34.11
29.54
25.14
21.10
17.31
13.58
9.91
6.54
3.80
1.90
0.79
0.22
-0.10
-0.42
-0.74
-0.99
-1.03
-0.82
-0.48
-0.23
-0.29
-0.82
-1.86
-3.35
-5.19
-7.25
-9.44
-11.74
-14.17
-16.81
-19.72
-22.87
-26.09
-29.06
-31.43
-32.90
-33.41
-33.09
-32.27
-31.34
-30.62
-30.29
-30.32
-30.54
-30.71
-30.64
-30.24
-29.53
-28.63
-27.69
-26.81
-26.00
-25.21
-24.34
-23.29
-22.02
-20.53
-18.82
-16.94
-14.94
-12.91
-10.92
-9.10
-7.54
-6.27
-5.29
-4.51
-3.79
-3.04
-2.21
-1.33
-0.49
0.26
0.90
1.49
2.06
2.63
3.09
3.33
3.29
3.02
2.69
2.43
2.32
2.26
2.15
1.93
1.67
1.51
1.61
1.96
2.44
2.82
2.91
2.67
2.19
1.65
1.17
0.82
0.54
0.31
0.12
-0.00
-0.01
0.16
0.54
1.04
1.48
1.64
1.41
0.86
0.24
-0.09
0.14
0.96
2.15
3.30
4.08
4.30
4.05
3.58
3.19
3.05
3.15
3.33
3.44
3.39
3.22
3.06
3.01
3.13
3.32
3.38
3.19
2.72
2.09
1.55
1.29
1.35
1.63
1.92
2.06
1.98
1.69
1.26
0.74
0.14
-0.50
-1.11
-1.61
-1.87
-1.82
-1.44
-0.79
-0.01
0.67
1.07
1.06
0.64
-0.02
-0.67
-1.04
-0.99
-0.54
0.13
0.80
1.30
1.61
1.77
1.85
1.87
1.79
1.58
1.22
0.83
0.50
0.32
0.28
0.29
0.25
0.10
-0.08
-0.19
-0.14
0.06
0.32
0.55
0.66
0.65
0.54
0.30
-0.11
-0.72
-1.50
-2.30
-2.92
-3.21
-3.10
-2.71
-2.19
-1.67
-1.20
-0.79
-0.48
-0.34
-0.48
-0.86
-1.34
-1.65
-1.53
-0.90
0.11
1.18
1.97
2.23
1.93
1.29
0.58
0.05
-0.17
-0.10
0.16
0.48
0.77
0.95
0.94
0.71
0.26
-0.34
-0.93
-1.35
-1.50
-1.40
-1.18
-0.98
-0.87
-0.85
-0.86
-0.85
-0.86
-0.95
-1.18
-1.54
-1.97
-2.40
-2.78
-3.08
-3.29
-3.37
-3.28
-3.01
-2.61
-2.17
-1.80
-1.54
-1.37
-1.18
-0.92
-0.58
-0.20
0.12
0.32
0.38
0.35
0.33
0.39
0.58
0.85
1.08
1.14
0.96
0.53
-0.03
-0.50
-0.67
-0.45
0.12
0.84
1.47
1.82
1.85
1.63
1.28
0.91
0.52
0.06
-0.48
-1.10
-1.70
-2.17
-2.43
-2.50
-2.44
-2.34
-2.33
-2.45
-2.64
-2.81
-2.84
-2.71
-2.52
-2.43
-2.55
-2.83
-3.08
-3.03
-2.51
-1.58
-0.49
0.42
0.91
1.00
0.85
0.74
0.86
1.21
1.65
1.98
2.07
1.92
1.61
1.30
1.12
1.06
1.03
0.94
0.74
0.50
0.33
0.36
0.58
0.91
1.18
1.29
1.25
1.11
0.95
0.83
0.72
0.58
0.38
0.07
-0.31
-0.71
-1.07
-1.32
-1.45
-1.51
-1.59
-1.76
-2.03
-2.26
-2.30
-2.04
-1.49
-0.80
-0.14
0.37
0.72
0.99
1.27
1.57
1.83
1.98
1.97
1.80
1.57
1.33
1.15
1.05
1.06
1.15
1.23
1.19
0.94
0.50
-0.01
-0.39
-0.52
-0.39
-0.17
-0.08
-0.27
-0.74
-1.29
-1.69
-1.77
-1.51
-1.07
-0.65
-0.40
-0.38
-0.56
-0.89
-1.35
-1.91
-2.53
-3.07
-3.33
-3.15
-2.49
-1.48
-0.36
0.59
1.25
1.60
1.76
1.84
1.88
1.90
1.86
1.79
1.71
1.68
1.70
1.71
1.66
1.50
1.32
1.17
1.10
1.08
1.03
0.82
0.43
-0.06
-0.48
-0.65
-0.48
-0.02
0.55
0.97
1.07
0.79
0.22
-0.49
-1.17
-1.71
-2.10
-2.31
-2.33
-2.13
-1.73
-1.24
-0.88
-0.81
-1.07
-1.45
-1.63
-1.33
-0.50
0.61
1.59
2.09
2.00
1.49
0.89
0.49
0.44
0.69
1.10
1.53
1.88
2.11
2.22
2.25
2.26
2.28
2.28
2.21
2.00
1.64
1.22
0.92
0.85
1.05
1.39
1.64
1.60
1.18
0.49
-0.29
-0.88
-1.16
-1.12
-0.94
-0.87
-1.13
-1.78
-2.69
-3.61
-4.27
-4.54
-4.41
-3.98
-3.36
-2.65
-1.89
-1.12
-0.44
0.04
0.25
0.21
0.02
-0.12
-0.07
0.23
0.74
1.32
1.83
2.15
2.22
2.09
1.86
1.72
1.70
1.72
1.59
1.14
0.40
-0.39
-0.84
-0.68
0.11
1.18
2.06
2.36
1.97
1.10
0.17
-0.46
-0.63
-0.41
0.02
0.50
0.90
1.21
1.38
1.40
1.19
0.70
-0.06
-1.02
-1.99
-2.76
-3.12
-2.95
-2.21
-1.05
0.28
1.46
2.26
2.55
2.41
2.02
1.62
1.32
1.14
1.06
1.01
1.02
1.20
1.67
2.40
3.21
3.78
3.87
3.43
2.70
2.06
1.82
2.03
2.46
2.75
2.66
2.24
1.74
1.52
1.70
2.16
2.55
2.54
2.00
1.09
0.13
-0.64
-1.14
-1.52
-2.01
-2.74
-3.58
-4.22
-4.31
-3.68
-2.46
-1.04
0.12
0.72
0.75
0.44
0.09
-0.03
0.14
0.53
0.98
1.40
1.73
1.94
2.03
1.98
1.79
1.51
1.19
0.90
0.72
0.70
0.93
1.43
2.18
3.05
3.83
4.28
4.28
3.86
3.16
2.42
1.80
1.37
1.09
0.91
0.78
0.71
0.71
0.72
0.62
0.22
-0.58
-1.75
-3.08
-4.24
-4.88
-4.84
-4.20
-3.30
-2.52
-2.17
-2.31
-2.76
-3.22
-3.43
-3.30
-2.87
-2.32
-1.79
-1.39
-1.12
-0.94
-0.76
-0.53
-0.22
0.11
0.36
0.46
0.43
0.39
0.48
0.80
1.27
1.70
1.89
1.74
1.29
0.74
0.27
-0.03
-0.24
-0.49
-0.92
-1.58
-2.38
-3.20
-3.88
-4.30
-4.39
-4.19
-3.75
-3.22
-2.70
-2.28
-2.01
-1.92
-1.98
-2.13
-2.26
-2.28
-2.08
-1.67
-1.14
-0.62
-0.20
0.08
0.27
0.45
0.67
0.92
1.21
1.55
1.92
2.25
2.38
2.15
1.52
0.65
-0.09
-0.35
0.05
0.95
1.96
2.65
2.74
2.27
1.49
0.69
0.08
-0.32
-0.60
-0.83
-1.07
-1.31
-1.57
-1.88
-2.22
-2.58
-2.85
-2.92
-2.68
-2.15
-1.38
-0.52
0.30
1.00
1.54
1.91
2.07
2.00
1.69
1.24
0.80
0.55
0.63
1.04
1.65
2.31
2.86
3.27
3.51
3.55
3.30
2.67
1.70
0.59
-0.31
-0.72
-0.56
-0.02
0.53
0.77
0.61
0.15
-0.40
-0.87
-1.27
-1.72
-2.30
-3.02
-3.76
-4.35
-4.69
-4.73
-4.51
-4.10
-3.62
-3.17
-2.85
-2.64
-2.49
-2.25
-1.83
-1.21
-0.48
0.23
0.86
1.39
1.88
2.35
2.80
3.14
3.30
3.28
3.14
3.00
2.97
3.12
3.38
3.63
3.66
3.35
2.68
1.84
1.12
0.80
0.98
1.53
2.10
2.31
1.95
1.08
-0.06
-1.12
-1.88
-2.27
-2.35
-2.28
-2.14
-1.99
-1.82
-1.60
-1.36
-1.18
-1.21
-1.51
-2.00
-2.43
-2.46
-1.84
-0.58
1.03
2.50
3.36
3.38
2.71
1.79
1.11
0.99
1.43
2.13
2.76
3.09
3.09
2.96
2.89
2.92
2.93
2.67
1.98
0.94
-0.14
-0.83
-0.86
-0.27
0.68
1.57
2.03
1.88
1.24
0.42
-0.23
-0.45
-0.20
0.31
0.76
0.78
0.18
-0.85
-1.83
-2.16
-1.53
-0.05
1.69
2.92
2.98
1.70
-0.37
-2.17
-2.77
-1.82
0.34
2.79
4.51
4.57
2.62
-0.66
-3.77
-5.11
-3.94
-0.70
2.98
5.02
3.56
-2.15
-11.06
-20.79
-29.18
-35.26
-38.85
-39.96
-38.15
-33.81
-29.05
-27.48
-32.81
-46.91
-67.80
-88.98
-101.92
-97.49
-72.23
-32.76
7.23
36.04
50.11
53.10
51.46
49.34
47.82
45.53
41.00
34.64
28.71
25.65
26.52
32.63
41.80
51.87
61.17
69.14
76.80
86.34
99.57
112.97
123.76
127.78
121.34
102.68
73.38
38.50
5.00
-21.12
-37.06
-43.29
-43.22
-40.56
-37.77
-35.28
-32.87
-30.45
-28.80
-29.43
-33.33
-40.58
-49.72
-58.28
-63.87
-65.28
-62.82
-58.04
-52.99
-49.19
-47.68
-48.69
-51.85
-56.36
-61.06
-64.35
-64.44
-59.57
-48.82
-33.06
-14.74
2.84
16.88
25.95
30.33
31.39
30.72
29.35
27.58
25.35
22.74
20.20
18.35
17.60
17.81
18.29
18.04
16.36
13.29
9.65
6.75
5.78
7.23
10.68
14.91
18.45
20.23
20.00
18.24
15.89
13.79
12.32
11.40
10.67
9.81
8.69
7.46
6.40
5.75
5.55
5.64
5.74
5.65
5.27
4.71
4.14
3.72
3.51
3.46
3.47
3.40
3.23
2.95
2.63
2.33
2.09
1.88
1.66
1.38
0.98
0.43
-0.29
-1.18
-2.19
-3.19
-4.00
-4.43
-4.36
-3.82
-2.97
-2.00
-1.11
-0.37
0.20
0.63
0.90
0.92
0.61
-0.01
-0.81
-1.57
-2.05
-2.14
-1.86
-1.36
-0.80
-0.31
0.10
0.48
0.85
1.20
1.42
1.46
1.31
1.08
0.92
0.92
1.08
1.29
1.42
1.38
1.17
0.86
0.54
0.27
0.06
-0.09
-0.20
-0.28
-0.32
-0.33
-0.35
-0.39
-0.48
-0.61
-0.78
-0.99
-1.21
-1.45
-1.68
-1.89
-2.08
-2.30
-2.55
-2.80
-2.95
-2.90
-2.56
-1.96
-1.21
-0.48
0.08
0.41
0.56
0.66
0.83
1.12
1.44
1.63
1.55
1.16
0.62
0.15
-0.02
0.17
0.61
1.05
1.31
1.31
1.13
0.91
0.76
0.69
0.62
0.50
0.35
0.27
0.37
0.69
1.12
1.47
1.55
1.26
0.64
-0.17
-0.98
-1.68
-2.23
-2.71
-3.19
-3.65
-4.00
-4.07
-3.75
-3.02
-2.02
-0.93
0.06
0.89
1.57
2.19
2.81
3.36
3.71
3.70
3.27
2.49
1.53
0.61
-0.13
-0.64
-0.95
-1.09
-1.07
-0.88
-0.51
0.02
0.58
1.03
1.27
1.28
1.11
0.86
0.61
0.40
0.23
0.09
-0.03
-0.11
-0.17
-0.23
-0.34
-0.57
-0.92
-1.34
-1.73
-1.94
-1.92
-1.71
-1.45
-1.29
-1.29
-1.40
-1.44
-1.26
-0.80
-0.10
0.69
1.41
1.95
2.30
2.51
2.61
2.63
2.53
2.29
1.90
1.43
0.99
0.70
0.63
0.77
1.03
1.31
1.55
1.76
1.95
2.14
2.25
2.20
1.92
1.44
0.90
0.48
0.28
0.27
0.33
0.31
0.15
-0.09
-0.33
-0.49
-0.61
-0.76
-0.99
-1.28
-1.52
-1.64
-1.64
-1.59
-1.61
-1.75
-1.92
-1.96
-1.71
-1.15
-0.41
0.34
0.91
1.23
1.36
1.39
1.40
1.38
1.28
1.07
0.80
0.54
0.39
0.39
0.48
0.60
0.71
0.86
1.12
1.55
2.07
2.54
2.76
2.63
2.19
1.62
1.14
0.88
0.85
0.92
0.94
0.76
0.33
-0.30
-1.01
-1.65
-2.09
-2.25
-2.17
-1.90
-1.55
-1.22
-0.95
-0.78
-0.71
-0.69
-0.63
-0.48
-0.19
0.25
0.73
1.15
1.42
1.51
1.47
1.35
1.19
0.97
0.68
0.35
0.08
-0.00
0.15
0.45
0.74
0.82
0.63
0.25
-0.13
-0.35
-0.36
-0.26
-0.24
-0.37
-0.63
-0.88
-0.98
-0.94
-0.88
-0.98
-1.40
-2.14
-3.04
-3.90
-4.52
-4.85
-4.93
-4.87
-4.79
-4.76
-4.80
-4.90
-5.02
-5.13
-5.18
-5.16
-5.03
-4.78
-4.38
-3.80
-2.99
-1.96
-0.74
0.53
1.69
2.61
3.24
3.66
4.00
4.34
4.71
5.03
5.21
5.21
5.07
4.88
4.71
4.57
4.43
4.26
4.07
3.92
3.84
3.83
3.86
3.90
3.96
4.05
4.17
4.23
4.08
3.56
2.64
1.38
-0.04
-1.40
-2.53
-3.35
-3.87
-4.15
-4.26
-4.27
-4.21
-4.08
-3.84
-3.48
-2.98
-2.39
-1.77
-1.21
-0.74
-0.35
0.02
0.41
0.85
1.31
1.75
2.16
2.50
2.73
2.81
2.72
2.46
2.11
1.77
1.50
1.34
1.28
1.28
1.34
1.45
1.61
1.78
1.91
1.92
1.77
1.47
1.02
0.46
-0.18
-0.85
-1.44
-1.82
-1.92
-1.74
-1.42
-1.16
-1.15
-1.41
-1.82
-2.17
-2.27
-2.06
-1.61
-1.07
-0.55
-0.08
0.35
0.75
1.05
1.15
0.96
0.51
-0.07
-0.58
-0.86
-0.88
-0.72
-0.48
-0.25
-0.03
0.23
0.56
0.91
1.19
1.30
1.23
1.02
0.79
0.61
0.51
0.45
0.40
0.33
0.25
0.16
0.05
-0.11
-0.34
-0.61
-0.89
-1.12
-1.28
-1.36
-1.36
-1.29
-1.13
-0.89
-0.64
-0.46
-0.45
-0.60
-0.85
-1.06
-1.12
-1.02
-0.78
-0.47
-0.14
0.13
0.28
0.23
-0.05
-0.53
-1.08
-1.50
-1.65
-1.46
-1.07
-0.70
-0.57
-0.77
-1.21
-1.66
-1.93
-1.96
-1.83
-1.77
-1.98
-2.51
-3.23
-3.86
-4.17
-4.10
-3.80
-3.58
-3.75
-4.54
-5.96
-7.79
-9.61
-10.94
-11.41
-11.03
-10.10
-9.31
-9.40
-10.83
-13.42
-16.31
-18.34
-18.56
-16.70
-13.12
-8.85
-5.32
-3.98
-5.91
-11.37
-19.44
-27.91
-33.68
-33.32
-24.86
-8.92
11.24
30.93
45.96
54.20
56.03
53.45
49.31
45.49
42.53
40.12
38.16
37.50
39.89
47.46
58.23
70.21
81.74
91.76
99.04
101.57
96.98
83.76
62.35
35.18
6.42
-19.84
-40.94
-56.05
-65.75
-71.06
-73.04
-72.19
-68.92
-63.65
-57.31
-51.07
-45.97
-42.39
-39.91
-37.75
-34.97
-31.13
-26.13
-20.77
-16.05
-12.80
-11.37
-11.12
-11.47
-11.82
-11.81
-11.26
-10.25
-8.91
-7.61
-6.46
-5.42
-4.51
-3.71
-2.99
-2.28
-1.42
-0.19
1.60
3.99
6.70
9.15
10.81
11.43
11.15
10.49
10.11
10.72
12.56
15.18
17.44
18.16
16.79
13.75
10.30
8.07
8.45
11.75
16.85
21.50
23.56
22.20
18.24
13.77
11.09
11.89
16.40
23.28
30.35
35.79
38.64
38.22
33.38
21.23
0.60
-24.99
-47.10
-57.06
-51.42
-33.84
-12.96
2.08
5.90
-0.66
-12.42
-23.58
-31.32
-36.69
-42.70
-51.48
-62.30
-72.27
-77.90
-77.60
-72.90
-67.88
-67.37
-74.12
-86.68
-99.27
-105.10
-96.74
-71.32
-32.08
12.76
53.18
81.58
94.64
95.49
90.64
86.31
85.46
87.77
91.29
94.69
96.24
95.26
91.13
82.62
68.71
49.35
25.29
0.76
-20.58
-36.33
-45.23
-47.14
-42.91
-34.19
-23.54
-13.85
-7.48
-6.03
-9.07
-13.93
-17.05
-15.34
-6.96
8.04
27.65
48.14
64.14
70.33
63.23
42.41
10.98
-25.33
-60.20
-88.77
-107.05
-114.84
-113.27
-103.09
-84.71
-59.40
-30.45
-2.94
17.93
29.14
30.81
26.17
19.53
14.30
11.89
11.95
13.35
15.15
16.88
18.22
19.04
19.27
18.92
18.04
16.96
16.11
15.93
16.63
17.98
19.41
20.09
19.16
16.09
11.02
4.81
-1.22
-5.80
-8.26
-8.59
-7.33
-5.37
-3.49
-2.20
-1.65
-1.72
-2.23
-2.99
-3.86
-4.69
-5.31
-5.55
-5.30
-4.53
-3.35
-2.01
-0.80
-0.05
0.02
-0.65
-1.91
-3.38
-4.57
-5.06
-4.64
-3.45
-1.90
-0.52
0.27
0.33
-0.18
-0.87
-1.32
-1.22
-0.54
0.53
1.62
2.36
2.52
2.11
1.38
0.77
0.72
1.44
2.87
4.63
6.28
7.51
8.29
8.71
8.95
9.12
9.17
9.01
8.68
8.37
8.30
8.45
8.45
7.71
5.80
2.79
-0.68
-3.71
-5.70
-6.82
-7.95
-10.19
-14.13
-19.38
-24.63
-28.23
-28.94
-26.53
-21.85
-16.49
-12.06
-9.54
-8.97
-9.53
-9.86
-8.71
-5.42
-0.09
6.60
13.84
21.07
28.06
34.64
40.37
44.29
45.18
42.11
35.05
24.94
13.49
2.49
-6.69
-13.35
-17.30
-18.64
-17.60
-14.55
-10.18
-5.47
-1.54
0.65
0.58
-1.82
-6.25
-12.17
-18.86
-25.53
-31.31
-35.41
-37.33
-36.90
-34.38
-30.32
-25.41
-20.33
-15.57
-11.42
-7.97
-5.22
-3.14
-1.82
-1.47
-2.35
-4.55
-7.77
-11.16
-13.41
-13.03
-8.88
-0.55
11.27
24.86
37.81
47.62
52.43
51.54
45.62
36.33
25.78
15.90
8.03
2.90
0.77
1.55
4.75
9.42
14.16
17.44
18.17
16.04
11.64
6.10
0.56
-4.27
-8.11
-11.03
-13.12
-14.41
-14.86
-14.43
-13.14
-11.07
-8.40
-5.43
-2.58
-0.30
1.09
1.57
1.43
1.16
1.23
1.87
3.07
4.61
6.23
7.66
8.61
8.79
8.04
6.39
4.16
1.79
-0.28
-1.82
-2.84
-3.55
-4.19
-5.01
-6.14
-7.65
-9.47
-11.38
-13.05
-14.13
-14.37
-13.72
-12.27
-10.21
-7.67
-4.79
-1.70
1.35
4.01
5.95
7.00
7.22
6.84
6.17
5.43
4.72
4.00
3.20
2.32
1.45
0.76
0.43
0.58
1.16
1.94
2.60
2.83
2.45
1.50
0.16
-1.31
-2.68
-3.77
-4.53
-4.89
-4.89
-4.57
-4.06
-3.57
-3.27
-3.27
-3.51
-3.81
-3.97
-3.85
-3.46
-2.87
-2.17
-1.36
-0.44
0.64
1.79
2.85
3.60
3.91
3.76
3.32
2.80
2.38
2.10
1.88
1.58
1.14
0.59
0.06
-0.30
-0.43
-0.33
-0.09
0.22
0.57
0.95
1.39
1.82
2.15
2.29
2.17
1.83
1.41
1.02
0.77
0.65
0.63
0.63
0.59
0.48
0.31
0.07
-0.20
-0.47
-0.73
-0.92
-1.03
-1.09
-1.11
-1.14
-1.19
-1.26
-1.34
-1.44
-1.60
-1.82
-2.09
-2.35
-2.50
-2.50
-2.31
-1.99
-1.63
-1.30
-1.03
-0.74
-0.34
0.23
0.91
1.56
2.00
2.12
1.96
1.64
1.32
1.11
1.04
1.09
1.25
1.51
1.83
2.12
2.22
1.97
1.34
0.43
-0.51
-1.24
-1.63
-1.70
-1.55
-1.33
-1.10
-0.86
-0.57
-0.24
0.07
0.24
0.22
0.02
-0.27
-0.52
-0.64
-0.63
-0.56
-0.50
-0.48
-0.46
-0.37
-0.17
0.11
0.40
0.63
0.75
0.80
0.81
0.81
0.76
0.63
0.40
0.18
0.05
0.11
0.31
0.54
0.63
0.47
0.08
-0.43
-0.90
-1.19
-1.25
-1.15
-0.98
-0.84
-0.77
-0.73
-0.65
-0.49
-0.24
0.02
0.18
0.18
0.06
-0.06
-0.06
0.15
0.50
0.83
0.97
0.89
0.65
0.45
0.44
0.63
0.94
1.19
1.27
1.17
0.97
0.78
0.64
0.51
0.31
-0.02
-0.49
-1.03
-1.56
-1.98
-2.24
-2.32
-2.24
-1.99
-1.58
-1.02
-0.34
0.42
1.18
1.86
2.37
2.67
2.72
2.50
2.06
1.47
0.87
0.39
0.14
0.11
0.21
0.27
0.13
-0.23
-0.68
-1.02
-1.07
-0.81
-0.35
0.08
0.29
0.21
-0.05
-0.27
-0.28
-0.03
0.41
0.82
1.02
0.92
0.58
0.12
-0.33
-0.66
-0.84
-0.88
-0.78
-0.57
-0.28
0.02
0.28
0.42
0.44
0.34
0.18
-0.03
-0.24
-0.42
-0.55
-0.56
-0.48
-0.34
-0.25
-0.29
-0.45
-0.63
-0.68
-0.47
-0.00
0.61
1.14
1.43
1.37
1.01
0.49
-0.05
-0.48
-0.77
-0.90
-0.91
-0.83
-0.71
-0.59
-0.48
-0.39
-0.36
-0.42
-0.56
-0.78
-0.97
-1.04
-0.89
-0.51
0.02
0.54
0.87
0.94
0.76
0.48
0.27
0.27
0.49
0.81
1.06
1.11
0.98
0.80
0.74
0.92
1.24
1.50
1.44
0.95
0.16
-0.62
-1.08
-1.08
-0.70
-0.22
0.06
-0.03
-0.43
-0.94
-1.37
-1.58
-1.61
-1.54
-1.47
-1.43
-1.37
-1.19
-0.85
-0.34
0.24
0.78
1.15
1.30
1.26
1.11
0.95
0.85
0.82
0.81
0.79
0.72
0.59
0.39
0.16
-0.06
-0.25
-0.35
-0.36
-0.28
-0.12
0.12
0.45
0.85
1.26
1.53
1.52
1.16
0.55
-0.09
-0.49
-0.51
-0.24
0.06
0.12
-0.18
-0.73
-1.27
-1.56
-1.51
-1.21
-0.85
-0.57
-0.43
-0.38
-0.35
-0.35
-0.44
-0.71
-1.23
-1.96
-2.80
-3.64
-4.32
-4.78
-4.96
-4.88
-4.59
-4.16
-3.63
-3.02
-2.29
-1.39
-0.30
0.91
2.07
2.95
3.36
3.22
2.62
1.74
0.80
-0.04
-0.69
-1.15
-1.40
-1.42
-1.18
-0.70
-0.11
0.39
0.61
0.51
0.19
-0.08
-0.00
0.63
1.86
3.48
5.13
6.35
6.80
6.33
5.08
3.40
1.75
0.51
-0.11
-0.10
0.44
1.34
2.37
3.25
3.63
3.17
1.77
-0.40
-2.84
-4.98
-6.40
-7.06
-7.26
-7.44
-7.91
-8.66
-9.34
-9.52
-8.88
-7.38
-5.30
-3.08
-1.16
0.17
0.87
1.08
1.01
0.83
0.63
0.40
0.15
-0.05
-0.06
0.31
1.20
2.63
4.42
6.23
7.69
8.48
8.47
7.72
6.46
5.02
3.75
2.90
2.56
2.68
3.07
3.46
3.58
3.27
2.53
1.61
0.94
1.02
2.17
4.37
7.18
9.88
11.70
12.17
11.31
9.58
7.64
6.01
4.88
4.13
3.45
2.61
1.47
-0.01
-1.99
-4.71
-8.42
-13.22
-18.82
-24.56
-29.63
-33.21
-34.74
-33.92
-30.67
-25.14
-17.71
-9.04
-0.11
7.95
14.14
17.81
18.84
17.57
14.64
10.74
6.47
2.34
-1.16
-3.57
-4.53
-3.93
-2.07
0.38
2.58
3.73
3.45
1.83
-0.52
-2.78
-4.14
-4.03
-2.30
0.89
5.10
9.75
14.17
17.65
19.55
19.44
17.22
13.20
8.08
2.68
-2.27
-6.35
-9.49
-11.86
-13.74
-15.30
-16.65
-17.78
-18.62
-19.07
-19.01
-18.29
-16.85
-14.74
-12.07
-8.93
-5.30
-0.98
4.21
10.25
16.71
22.78
27.54
30.34
31.07
30.22
28.54
26.69
24.94
23.17
21.07
18.45
15.38
12.13
8.97
5.94
2.89
-0.44
-4.18
-8.16
-11.97
-15.15
-17.45
-18.97
-20.07
-21.10
-22.10
-22.69
-22.18
-19.95
-15.76
-9.89
-3.05
3.85
9.90
14.29
16.31
15.49
11.78
5.76
-1.27
-7.71
-12.22
-14.19
-13.94
-12.35
-10.28
-8.11
-5.70
-2.76
0.76
4.39
7.38
8.98
8.88
7.32
4.94
2.46
0.43
-0.94
-1.69
-2.02
-2.25
-2.70
-3.59
-4.89
-6.31
-7.37
-7.59
-6.70
-4.68
-1.88
1.21
4.27
7.29
10.33
13.31
15.82
17.22
17.09
15.16
11.54
6.94
2.48
-0.82
-2.49
-2.76
-2.40
-2.16
-2.96
-5.40
-9.12
-12.81
-14.80
-13.78
-9.17
-1.20
9.61
21.73
32.97
41.20
44.92
43.45
37.28
28.07
15.88
4.26
-2.74
-4.24
-2.68
-0.95
-0.41
-0.79
-1.13
-0.80
0.57
1.90
1.99
0.43
-2.23
-5.01
-7.04
-7.88
-7.59
-6.27
-4.23
-1.96
0.29
2.50
4.59
6.35
7.38
7.39
6.51
4.87
2.86
1.13
0.15
-0.09
0.07
0.21
0.35
0.86
2.22
5.16
10.10
16.64
23.72
30.31
35.54
38.86
38.91
34.17
23.96
9.95
-4.08
-14.00
-17.07
-13.16
-6.94
-1.79
0.51
0.70
0.81
2.00
3.44
4.46
2.03
-7.47
-28.29
-60.68
-99.37
-136.17
-163.75
-178.04
-178.87
-169.78
-142.19
-100.43
-58.13
-25.77
-4.39
9.77
19.99
27.59
32.44
34.52
32.53
27.41
22.13
19.35
19.57
21.63
24.05
25.93
27.37
27.42
26.60
26.23
26.87
27.55
26.88
24.27
20.43
16.91
14.14
12.55
12.47
13.63
15.06
15.81
15.46
13.98
11.61
8.22
4.08
0.68
0.41
4.85
13.44
23.60
31.84
35.22
32.36
24.08
13.03
2.33
-5.69
-10.20
-11.84
-12.11
-12.52
-14.06
-17.61
-23.63
-32.25
-42.63
-52.80
-59.69
-59.74
-50.14
-30.14
-1.72
30.55
59.28
79.11
88.95
91.62
91.53
92.01
93.61
94.14
90.25
79.42
61.75
39.85
17.65
-1.12
-14.27
-21.87
-25.58
-27.46
-28.82
-29.55
-28.83
-26.15
-21.99
-17.72
-14.82
-14.13
-15.42
-17.59
-19.16
-19.09
-17.29
-14.49
-11.70
-9.74
-8.82
-8.60
-8.35
-7.35
-5.24
-2.17
1.24
4.21
6.33
7.57
8.41
9.73
12.43
16.86
22.21
26.37
26.46
20.12
6.79
-11.65
-31.33
-47.86
-58.23
-61.78
-60.30
-56.74
-53.67
-52.34
-52.72
-54.20
-56.14
-57.96
-58.64
-56.58
-49.97
-37.87
-21.18
-2.65
14.13
26.40
33.51
36.94
39.14
41.72
44.61
46.16
44.36
38.25
28.67
17.88
8.49
2.27
-0.29
0.14
2.30
5.06
7.74
10.09
12.10
13.73
14.87
15.40
15.27
14.51
13.28
11.84
10.63
10.18
10.97
13.15
16.39
19.89
22.69
24.11
24.03
22.90
21.39
20.05
18.95
17.78
16.08
13.56
10.34
6.91
4.01
2.37
2.46
4.19
6.77
8.80
8.83
6.07
0.99
-4.71
-8.70
-9.10
-5.42
1.20
8.39
13.53
14.72
11.38
4.22
-5.11
-14.62
-22.65
-28.37
-31.92
-34.16
-36.09
-38.14
-39.93
-40.40
-38.53
-34.34
-28.96
-24.40
-22.28
-23.28
-26.77
-31.39
-36.15
-40.32
-43.02
-42.42
-36.44
-24.01
-6.45
12.37
27.67
36.29
38.50
38.13
40.16
47.98
61.62
77.73
91.42
98.28
95.67
83.20
62.48
36.10
7.33
-20.32
-43.76
-60.80
-69.53
-68.11
-54.73
-29.35
4.52
39.53
65.91
75.43
65.23
39.61
7.85
-20.00
-37.47
-43.64
-42.00
-37.45
-33.36
-30.61
-27.96
-24.19
-19.31
-14.73
-12.29
-13.01
-16.67
-21.80
-26.82
-29.99
-30.70
-29.46
-27.61
-27.05
-29.75
-37.13
-48.06
-61.31
-72.64
-76.38
-67.62
-44.51
-9.46
31.61
71.34
103.22
122.71
128.84
121.60
102.41
74.22
41.56
10.09
-14.76
-28.80
-32.13
-27.63
-19.61
-11.55
-5.20
-0.90
1.71
3.00
3.14
2.27
1.13
0.56
1.16
3.12
5.98
8.89
11.08
12.21
12.27
11.88
11.78
12.56
14.35
16.88
19.54
21.66
22.80
22.77
21.82
20.35
18.73
16.91
14.97
12.62
9.61
5.78
1.23
-3.68
-8.49
-12.37
-15.34
-17.34
-18.56
-19.24
-19.64
-19.93
-20.07
-19.92
-19.36
-18.43
-17.22
-16.21
-15.56
-15.48
-15.94
-16.69
-17.30
-17.37
-16.81
-15.82
-14.95
-14.77
-15.72
-17.75
-20.31
-22.58
-23.82
-23.81
-22.92
-22.08
-22.33
-24.37
-28.12
-32.73
-36.90
-39.67
-40.62
-40.18
-39.42
-39.42
-41.04
-44.83
-51.08
-59.52
-68.77
-75.95
-77.09
-68.65
-49.35
-21.52
9.37
36.72
55.53
64.28
64.95
61.37
56.96
53.29
50.05
46.33
41.80
37.20
33.80
32.40
32.78
33.73
33.89
32.16
28.58
24.01
19.75
16.88
15.81
16.14
16.91
17.09
16.02
13.72
10.76
7.97
6.04
5.23
5.31
5.71
5.85
5.35
4.19
2.67
1.23
0.18
-0.32
-0.41
-0.33
-0.35
-0.64
-1.21
-1.96
-2.71
-3.35
-3.82
-4.17
-4.47
-4.80
-5.20
-5.68
-6.23
-6.83
-7.49
-8.19
-8.94
-9.73
-10.56
-11.40
-12.25
-13.13
-14.07
-15.11
-16.26
-17.51
-18.85
-20.23
-21.60
-22.94
-24.27
-25.62
-27.05
-28.53
-30.03
-31.40
-32.39
-32.71
-32.05
-30.23
-27.14
-22.76
-17.18
-10.57
-3.04
5.29
14.28
23.65
32.94
41.54
48.17
52.62
54.93
55.49
54.96
54.07
53.38
53.00
52.59
51.88
50.13
47.10
43.21
39.36
36.66
35.81
36.84
38.94
40.85
41.39
39.94
36.72
32.77
29.50
28.25
29.89
34.51
41.06
47.14
49.47
44.82
31.57
10.97
-12.77
-33.62
-46.26
-48.21
-41.18
-30.41
-22.37
-22.12
-31.56
-49.44
-72.10
-94.61
-111.73
-118.67
-112.14
-91.53
-59.58
-21.99
14.24
42.91
60.35
66.25
63.11
54.53
44.18
34.93
30.13
31.73
39.59
50.72
58.64
56.33
39.18
7.49
-33.48
-74.96
-107.79
-125.14
-124.07
-105.30
-72.47
-31.62
9.55
42.93
62.20
64.88
53.48
34.72
15.99
2.83
-3.32
-4.33
-3.54
-3.29
-4.04
-4.94
-5.25
-5.14
-5.19
-5.63
-5.22
-1.82
6.12
17.80
29.75
37.24
36.80
28.19
14.73
1.55
-7.08
-9.57
-7.44
-4.10
-2.66
-4.73
-10.06
-17.45
-25.69
-33.90
-41.10
-45.78
-46.00
-40.32
-29.18
-15.56
-4.29
0.06
-3.83
-13.12
-22.12
-25.05
-19.01
-5.12
12.68
30.13
44.78
56.40
65.78
72.74
75.06
69.24
52.45
24.92
-9.07
-42.47
-67.46
-78.54
-74.59
-59.27
-39.27
-21.55
-10.37
-5.97
-5.23
-3.78
1.27
9.81
19.00
25.13
25.71
21.15
14.30
8.75
6.90
8.71
12.17
14.66
14.72
12.68
10.23
9.17
10.20
12.35
13.45
11.32
5.09
-4.31
-14.36
-22.22
-26.01
-25.74
-23.07
-20.30
-19.24
-20.38
-22.84
-24.94
-25.11
-22.53
-17.47
-11.22
-5.66
-2.66
-3.27
-6.98
-11.42
-13.09
-8.88
2.37
19.11
37.61
53.56
63.67
66.65
63.13
54.76
43.21
29.85
15.82
2.35
-9.14
-17.41
-21.87
-22.87
-21.49
-19.12
-16.91
-15.58
-15.31
-15.88
-16.84
-17.58
-17.40
-15.84
-12.87
-8.96
-4.99
-1.84
-0.06
0.38
-0.00
-0.44
-0.34
0.41
1.51
2.42
2.74
2.35
1.62
1.11
1.32
2.38
4.04
5.74
6.95
7.39
7.10
6.46
5.72
5.07
4.48
3.91
3.32
2.82
2.59
2.71
3.10
3.44
3.40
2.79
1.71
0.55
-0.12
0.18
1.53
3.49
5.22
5.93
5.32
3.81
2.45
2.44
4.43
8.01
11.70
13.70
12.85
9.29
4.56
0.85
0.09
3.12
9.45
17.58
25.59
31.48
33.19
28.80
17.14
-1.11
-22.51
-40.78
-49.45
-44.73
-27.46
-2.89
21.33
38.19
43.65
37.46
22.11
1.40
-20.83
-41.26
-57.19
-66.98
-70.32
-68.09
-62.15
-55.02
-48.93
-45.48
-45.48
-48.91
-55.27
-62.82
-68.98
-68.95
-58.76
-36.68
-4.62
32.14
67.23
95.47
115.30
128.58
138.28
145.09
146.19
136.55
110.97
71.75
26.21
-15.60
-45.43
-60.35
-63.39
-60.80
-58.49
-58.96
-60.95
-61.98
-60.27
-56.11
-51.43
-48.44
-48.28
-50.80
-55.12
-59.79
-63.65
-65.14
-61.99
-51.80
-33.24
-7.13
23.33
53.50
79.50
98.85
110.78
115.07
110.84
96.24
69.76
32.38
-10.67
-50.31
-76.63
-82.13
-65.28
-31.28
10.14
48.54
76.60
91.34
93.52
85.47
69.19
45.83
16.82
-14.90
-44.35
-65.68
-75.54
-74.77
-68.18
-61.68
-58.87
-58.91
-56.82
-46.86
-26.63
0.34
26.50
43.56
47.17
39.46
28.04
21.45
24.44
35.30
47.33
52.69
46.98
31.38
11.92
-4.17
-12.09
-11.43
-5.81
-0.52
0.60
-3.02
-8.90
-13.21
-13.30
-9.22
-3.56
0.33
0.38
-3.17
-8.27
-12.60
-14.88
-15.22
-14.39
-12.83
-10.29
-6.32
-1.32
3.38
5.91
5.17
1.64
-2.91
-6.53
-8.48
-9.56
-11.09
-13.27
-14.72
-13.39
-8.27
-0.87
5.53
7.94
6.20
3.54
5.20
15.09
32.80
52.96
67.25
68.46
54.06
27.89
-1.44
-24.31
-34.25
-30.46
-17.46
-2.72
7.41
10.26
7.45
2.88
-0.20
-1.22
-2.07
-5.18
-11.37
-18.73
-23.74
-23.22
-16.30
-5.10
6.19
13.33
13.98
8.38
-0.67
-9.18
-13.44
-11.54
-3.91
6.96
17.56
24.52
25.52
19.84
8.30
-7.23
-24.49
-41.15
-55.00
-64.02
-66.62
-62.26
-51.92
-37.87
-22.74
-8.24
5.69
20.71
38.41
58.36
77.23
89.30
89.03
73.70
44.90
8.24
-28.61
-58.28
-75.47
-77.45
-65.70
-44.88
-21.46
-1.84
9.62
12.13
8.29
2.04
-3.00
-4.96
-3.71
-0.15
4.72
10.27
16.06
21.32
24.79
25.25
21.95
15.32
6.61
-2.41
-9.83
-14.03
-13.95
-9.53
-1.86
6.82
14.00
17.74
17.59
14.34
9.35
3.82
-1.48
-5.94
-9.03
-10.00
-8.29
-4.04
1.56
6.67
9.53
9.27
6.17
1.45
-3.49
-7.67
-10.57
-11.99
-11.80
-9.99
-6.94
-3.64
-1.39
-1.29
-3.93
-8.76
-14.29
-18.69
-20.72
-20.15
-17.55
-13.57
-8.58
-2.72
3.73
10.02
15.33
18.87
20.58
21.03
21.38
22.53
24.74
27.69
30.92
34.62
38.75
42.86
43.89
38.60
25.75
7.82
-10.11
-23.10
-28.29
-26.12
-18.29
-7.53
3.45
12.14
16.25
13.60
2.28
-18.23
-48.52
-86.46
-125.62
-156.49
-171.01
-165.51
-141.44
-108.86
-70.96
-30.36
11.24
52.71
94.49
135.39
173.29
205.55
229.69
245.42
252.77
252.49
243.80
225.54
196.05
154.97
104.04
46.95
-10.39
-62.01
-98.70
-116.08
-116.31
-106.57
-93.68
-81.92
-73.18
-66.79
-62.14
-57.78
-56.27
-56.44
-58.23
-62.58
-70.85
-84.08
-101.41
-121.86
-135.70
-140.54
-137.53
-130.14
-121.30
-111.88
-106.06
-101.20
-96.83
-93.00
-89.80
-84.82
-74.68
-56.76
-32.07
-4.15
16.89
17.66
-9.03
-59.45
-119.37
-170.85
-199.52
-199.82
-175.74
-130.94
-79.40
-37.12
-11.11
1.83
7.92
10.36
8.31
-0.08
-15.19
-33.24
-50.50
-61.52
-63.24
-56.80
-46.51
-37.11
-30.73
-26.58
-21.66
-15.59
-4.61
13.53
37.96
65.17
90.91
113.24
131.40
145.45
157.09
170.73
190.19
217.03
249.73
284.08
316.22
340.64
351.74
346.66
327.98
301.96
276.38
258.06
251.11
258.61
277.86
300.79
316.80
317.22
297.56
259.03
208.28
138.89
59.10
-15.62
-72.58
-109.41
-131.55
-145.86
-156.72
-166.09
-175.08
-182.20
-187.38
-191.04
-192.62
-190.14
-181.85
-168.21
-152.35
-138.67
-128.63
-122.57
-119.41
-116.85
-112.12
-103.48
-91.41
-78.55
-68.27
-61.64
-58.54
-57.62
-56.92
-54.64
-50.01
-43.76
-37.53
-32.94
-29.80
-27.43
-25.20
-22.91
-20.62
-18.47
-16.52
-14.55
-12.33
-9.86
-7.96
-8.04
-11.14
-16.90
-23.26
-27.06
-25.33
-16.66
-1.66
17.25
36.55
52.40
61.65
62.40
54.51
39.75
21.49
4.00
-8.63
-13.80
-11.27
-2.52
9.61
21.95
31.39
34.72
28.93
13.53
-8.03
-29.35
-42.86
-44.12
-33.49
-15.91
1.71
14.05
19.75
21.37
23.20
29.28
40.23
53.69
65.37
70.93
67.98
56.82
40.36
22.18
6.83
-3.71
-9.53
-13.51
-20.55
-35.87
-63.37
-99.07
-145.30
-193.59
-234.04
-256.60
-253.97
-224.04
-170.87
-104.52
-37.91
16.58
52.64
69.45
71.90
68.22
65.39
69.83
82.67
99.21
112.45
118.63
116.53
107.00
91.46
71.22
48.15
24.77
4.66
-9.16
-15.38
-15.99
-15.57
-19.29
-30.06
-46.59
-63.98
-75.67
-76.79
-65.43
-43.52
-15.69
12.59
36.93
53.99
61.66
60.69
54.13
46.85
43.36
45.36
50.77
54.74
52.24
40.57
20.68
-4.02
-28.85
-49.83
-64.96
-73.87
-76.26
-70.77
-55.40
-27.30
9.18
43.54
65.67
71.46
63.45
47.97
31.84
19.73
12.92
9.63
7.63
5.89
4.50
3.87
3.97
4.06
2.99
-0.27
-6.51
-14.91
-23.05
-28.23
-28.76
-24.68
-17.41
-9.11
-1.72
3.45
6.35
7.77
8.56
8.97
8.75
7.57
5.35
2.13
-1.63
-5.24
-8.10
-9.89
-10.62
-10.47
-9.57
-7.98
-5.80
-3.23
-0.69
1.39
2.61
2.74
1.90
0.45
-1.11
-2.32
-2.89
-2.78
-2.14
-1.17
-0.08
0.99
1.92
2.64
3.12
3.39
3.43
3.23
2.66
1.52
-0.39
-3.15
-6.57
-10.22
-13.48
-15.71
-16.43
-15.37
-12.60
-8.54
-3.78
1.09
5.55
9.15
11.57
12.70
12.65
11.74
10.41
9.06
7.95
6.95
5.42
2.58
-1.95
-7.81
-13.96
-19.18
-22.56
-23.62
-22.40
-19.34
-14.90
-9.25
-2.57
4.59
11.08
14.94
15.32
13.41
11.36
10.57
11.09
11.93
11.92
10.78
8.65
6.26
4.36
3.24
2.80
3.15
4.71
8.01
13.14
19.36
25.63
30.90
34.32
35.54
35.08
33.97
33.28
33.67
35.42
38.47
42.31
45.42
44.32
35.60
17.90
-6.43
-32.42
-54.87
-70.63
-79.17
-82.45
-83.16
-83.00
-82.09
-79.67
-75.11
-68.65
-61.70
-55.80
-52.46
-52.56
-56.22
-62.66
-69.80
-74.24
-71.50
-59.15
-35.36
-2.34
34.26
67.54
91.92
105.30
107.47
103.12
96.90
91.63
87.70
84.43
81.87
80.97
82.87
87.03
90.80
89.69
80.13
61.40
36.67
11.96
-7.90
-20.47
-26.94
-30.87
-36.10
-44.20
-53.19
-60.30
-62.99
-60.84
-55.57
-50.06
-46.54
-45.87
-47.38
-49.43
-50.55
-50.08
-48.24
-46.00
-44.54
-44.70
-47.32
-52.28
-59.51
-68.88
-79.32
-88.30
-91.89
-86.07
-68.74
-40.55
-7.50
23.28
45.96
58.25
61.63
59.76
56.25
52.95
49.87
46.22
41.96
38.01
35.75
35.96
38.15
40.82
42.26
41.22
37.72
33.09
29.13
27.30
28.07
30.73
33.82
35.81
35.80
33.80
30.83
28.24
27.14
28.25
31.40
35.88
40.47
43.48
43.14
38.17
28.30
14.61
-0.67
-14.96
-26.10
-33.12
-36.27
-36.60
-35.28
-33.09
-30.41
-27.41
-24.39
-21.83
-20.32
-20.20
-21.34
-23.05
-24.40
-24.45
-22.67
-19.24
-14.90
-10.70
-7.54
-5.73
-4.94
-4.45
-3.57
-2.04
-0.17
1.40
2.04
1.58
0.35
-0.92
-1.56
-1.26
-0.24
0.93
1.68
1.75
1.24
0.50
-0.13
-0.48
-0.55
-0.47
-0.33
-0.18
-0.04
0.10
0.26
0.44
0.63
0.81
0.88
0.76
0.42
-0.05
-0.43
-0.48
-0.10
0.54
1.08
1.14
0.57
-0.47
-1.64
-2.54
-3.02
-3.20
-3.42
-3.95
-4.86
-5.90
-6.66
-6.76
-5.99
-4.40
-2.32
-0.21
1.55
2.57
2.70
1.97
0.54
-1.20
-2.76
-3.72
-3.97
-3.67
-3.22
-3.01
-3.29
-3.97
-4.51
-4.09
-2.15
1.38
6.15
11.54
16.78
20.93
23.07
22.79
20.53
17.44
15.05
14.74
17.21
22.19
28.45
33.37
34.60
31.36
24.36
14.83
3.50
-9.10
-21.88
-32.85
-39.70
-41.51
-37.92
-29.88
-19.40
-8.79
0.25
6.88
10.94
12.49
11.76
8.76
3.65
-3.13
-10.71
-17.78
-22.88
-24.91
-23.50
-19.12
-12.94
-6.60
-1.82
0.29
-0.49
-3.46
-7.37
-10.88
-12.95
-12.94
-10.75
-6.73
-1.45
4.43
10.25
15.31
18.91
20.52
19.98
17.65
14.26
10.68
7.57
5.18
3.27
1.45
-0.58
-2.82
-5.02
-6.92
-8.29
-8.99
-8.82
-7.60
-5.25
-2.04
1.35
3.96
4.98
4.13
1.82
-1.01
-3.31
-4.34
-3.93
-2.41
-0.41
1.44
2.65
2.98
2.45
1.27
-0.21
-1.62
-2.65
-3.14
-3.08
-2.56
-1.73
-0.77
0.15
0.89
1.29
1.25
0.74
-0.10
-1.05
-1.81
-2.16
-2.07
-1.65
-1.13
-0.74
-0.59
-0.63
-0.72
-0.64
-0.33
0.12
0.55
0.79
0.78
0.66
0.67
1.06
1.91
3.11
4.37
5.44
6.20
6.66
6.96
7.27
7.63
7.96
7.96
7.34
6.09
4.55
3.39
3.27
4.57
7.08
10.07
12.58
13.88
14.02
13.70
13.95
15.58
18.64
22.31
25.28
26.38
24.69
20.50
14.96
9.03
2.53
-6.02
-18.30
-34.76
-53.96
-73.05
-89.03
-99.96
-105.27
-104.95
-98.83
-86.62
-68.67
-46.92
-25.11
-7.21
4.42
10.47
14.56
21.47
34.31
53.21
74.89
93.78
104.43
103.63
91.74
72.47
51.04
32.11
18.30
9.41
3.48
-1.62
-7.14
-13.41
-20.33
-27.88
-36.09
-44.42
-51.45
-55.04
-53.35
-46.20
-36.06
-24.68
-13.77
-4.03
4.54
11.82
16.81
18.18
15.14
8.23
-0.84
-10.35
-19.26
-27.65
-35.56
-42.12
-43.97
-36.21
-15.00
19.02
59.07
94.00
112.65
108.58
82.93
44.81
6.70
-21.29
-35.20
-37.00
-30.50
-18.09
0.57
23.66
46.92
64.46
71.44
66.08
50.18
28.79
7.01
-12.17
-30.15
-47.34
-62.02
-70.71
-69.88
-58.17
-36.82
-9.99
17.21
35.99
40.91
33.51
20.86
11.70
7.76
7.28
7.36
5.97
2.65
-0.70
-1.60
0.96
5.67
9.45
10.07
6.86
0.99
-5.03
-8.17
-6.58
-0.89
6.01
10.34
10.00
5.15
-2.09
-8.46
-11.42
-10.10
-5.95
-2.00
-1.53
-6.55
-17.21
-33.01
-52.74
-74.61
-94.68
-107.20
-106.55
-90.46
-62.02
-29.22
-2.37
14.79
22.67
25.41
28.17
34.13
42.82
50.89
54.87
50.56
38.66
23.61
11.22
4.82
3.70
4.63
3.73
-0.44
-6.95
-12.93
-16.23
-16.07
-13.38
-9.49
-5.39
-1.42
2.68
7.12
12.17
17.38
21.96
25.12
26.36
25.50
22.60
18.06
12.50
7.14
3.08
1.05
1.05
2.41
4.07
5.06
4.91
3.73
2.17
0.90
0.32
0.44
0.98
1.55
1.79
1.52
0.76
-0.19
-0.94
-1.10
-0.50
0.76
2.36
3.84
4.81
5.05
4.56
3.54
2.32
1.24
0.58
0.52
1.07
2.10
3.38
4.63
5.60
6.10
6.07
5.58
4.81
4.03
3.53
3.51
3.96
4.60
5.00
4.70
3.51
1.65
-0.33
-1.77
-2.27
-1.88
-1.10
-0.55
-0.66
-1.45
-2.60
-3.69
-4.48
-5.05
-5.65
-6.49
-7.50
-8.36
-8.65
-8.14
-6.95
-5.49
-4.24
-3.52
-3.32
-3.38
-3.37
-3.06
-2.40
-1.52
-0.65
0.03
0.43
0.56
0.53
0.48
0.56
0.86
1.38
2.06
2.76
3.41
3.96
4.47
5.05
5.79
6.74
7.91
9.27
10.72
12.16
13.55
14.92
16.42
18.25
20.62
23.59
27.03
30.67
34.15
37.21
39.71
41.66
43.18
44.43
45.51
46.34
46.68
46.17
44.48
41.50
37.39
32.45
27.03
21.25
15.03
8.20
0.73
-7.17
-15.00
-22.15
-28.03
-32.23
-34.62
-35.50
-35.53
-35.75
-37.39
-41.50
-48.53
-58.15
-69.12
-79.69
-88.10
-93.09
-94.30
-92.27
-88.10
-83.00
-77.85
-73.02
-68.40
-63.65
-58.53
-53.16
-47.98
-43.55
-40.16
-37.59
-35.07
-31.62
-26.48
-19.52
-11.34
-3.11
3.90
8.85
11.76
13.53
15.38
18.30
22.70
28.30
34.36
40.05
44.78
48.44
51.21
53.15
53.99
53.25
50.60
46.19
40.78
35.56
31.90
30.69
31.86
34.32
36.49
37.12
35.71
32.72
29.34
27.16
27.54
30.97
36.94
44.28
51.48
56.73
57.88
51.82
36.34
12.42
-15.45
-41.60
-61.89
-74.62
-80.37
-81.03
-78.77
-74.95
-70.13
-64.60
-59.01
-54.26
-51.12
-49.77
-49.70
-50.05
-49.89
-48.70
-46.63
-44.27
-41.99
-39.49
-35.75
-29.26
-18.51
-2.31
19.66
46.36
75.12
101.95
122.42
132.90
131.81
120.32
102.17
82.23
64.59
50.95
40.39
30.28
18.06
2.59
-15.01
-31.96
-45.06
-52.10
-52.33
-46.39
-35.80
-22.68
-9.59
0.72
6.00
4.89
-2.32
-13.90
-27.46
-40.71
-52.42
-62.71
-72.57
-82.53
-91.74
-97.50
-96.17
-84.88
-63.29
-34.45
-3.66
22.52
40.05
48.40
50.01
48.44
46.41
44.78
42.93
40.10
36.36
32.98
31.38
32.18
34.69
37.41
38.85
38.18
35.81
33.01
31.11
30.93
32.48
34.92
37.04
37.87
37.06
35.13
33.38
33.48
36.54
42.16
47.99
50.32
45.57
32.10
11.30
-12.77
-35.00
-51.27
-59.87
-61.36
-57.53
-50.07
-40.08
-28.36
-16.11
-5.25
2.29
5.45
4.63
1.38
-2.60
-6.46
-10.27
-14.60
-19.57
-24.30
-27.29
-27.42
-24.75
-20.61
-16.89
-14.88
-14.68
-15.21
-14.96
-13.19
-9.96
-6.14
-2.74
-0.30
1.29
2.43
3.43
4.25
4.57
4.16
3.11
1.77
0.72
0.52
1.47
3.40
5.71
7.59
8.42
8.11
6.96
5.55
4.39
3.60
3.01
2.42
1.77
1.23
0.88
0.53
-0.28
-1.96
-4.52
-7.39
-9.61
-10.39
-9.43
-7.25
-4.88
-3.38
-3.46
-5.24
-8.27
-11.78
-14.80
-16.27
-15.50
-12.28
-7.12
-1.08
4.57
8.83
11.22
11.30
9.41
6.33
3.02
0.41
-0.85
-0.46
1.43
4.20
6.94
8.88
9.51
8.92
7.72
6.80
6.77
7.74
9.29
10.71
11.56
11.65
11.21
10.65
10.26
10.04
9.74
9.16
8.31
7.54
6.98
6.39
5.17
2.78
-0.79
-4.59
-6.92
-6.73
-3.66
0.65
3.24
1.73
-4.19
-12.80
-21.55
-28.25
-32.58
-34.82
-35.55
-34.37
-30.68
-24.21
-15.59
-6.51
0.75
4.10
3.34
-1.26
-8.28
-15.51
-20.82
-22.90
-21.68
-18.06
-13.33
-8.59
-4.41
-0.76
3.23
8.58
15.78
24.36
33.08
40.47
45.24
46.86
46.22
45.35
46.47
51.01
58.58
66.86
72.51
72.49
65.27
51.60
34.14
15.98
-0.45
-13.56
-22.63
-24.77
-17.75
-4.07
8.31
10.51
-1.50
-23.49
-44.28
-51.49
-39.52
-12.15
19.88
43.69
50.83
41.31
22.70
5.71
-1.47
3.38
17.06
34.05
49.06
59.92
67.52
73.71
78.38
78.28
68.22
42.85
3.84
-40.24
-77.95
-101.16
-108.11
-102.49
-90.46
-77.64
-67.63
-60.68
-55.88
-52.16
-48.87
-45.71
-42.55
-39.30
-36.41
-36.19
-38.07
-41.74
-46.90
-53.27
-60.74
-69.72
-80.78
-91.21
-99.98
-103.09
-95.30
-72.88
-36.32
9.28
56.21
97.86
131.06
155.40
171.58
178.76
174.19
154.89
120.66
74.45
27.20
-10.31
-32.36
-39.25
-36.34
-30.40
-26.30
-25.19
-25.49
-24.65
-21.83
-18.12
-15.05
-13.69
-14.13
-15.62
-16.86
-16.83
-14.97
-11.87
-8.72
-6.50
-5.58
-5.77
-6.49
-7.03
-6.92
-5.89
-4.25
-2.54
-1.13
-0.09
0.55
0.83
0.76
0.32
-0.34
-1.03
-1.45
-1.32
-0.45
0.81
1.77
1.65
-0.15
-3.61
-8.17
-12.96
-17.57
-21.53
-25.26
-29.48
-34.79
-41.53
-49.81
-59.77
-70.87
-82.37
-91.61
-94.79
-88.13
-69.91
-41.98
-9.61
20.35
42.24
53.61
55.96
52.77
47.88
43.80
41.38
40.51
40.90
42.60
45.65
50.21
55.45
60.58
65.07
68.72
72.09
76.32
82.77
91.69
102.41
111.58
114.20
105.64
84.09
52.17
16.35
-15.48
-37.48
-47.67
-48.40
-44.27
-39.60
-36.57
-35.02
-33.69
-31.62
-28.84
-26.09
-24.23
-23.48
-23.40
-23.35
-22.64
-21.11
-19.07
-16.88
-14.90
-13.38
-12.50
-12.39
-13.21
-15.09
-18.04
-21.98
-26.40
-30.97
-35.43
-39.85
-44.50
-49.65
-55.50
-62.00
-69.94
-79.39
-89.29
-96.91
-98.28
-89.78
-70.11
-41.81
-10.23
17.87
37.43
46.92
48.34
45.56
41.98
39.15
36.75
33.86
30.05
26.05
23.13
22.12
22.80
24.01
24.35
22.77
19.33
14.87
10.73
8.11
7.55
8.83
11.09
13.34
14.86
15.56
15.94
16.63
18.26
21.07
24.80
28.68
31.76
33.24
32.75
30.40
26.76
22.68
18.65
15.58
13.63
12.51
11.65
10.54
8.97
7.14
5.66
5.23
6.37
8.93
12.30
15.36
17.17
17.53
16.93
16.37
16.84
18.77
21.86
25.69
30.26
35.98
42.66
49.10
52.26
48.43
35.08
12.28
-17.11
-48.41
-77.13
-99.81
-113.71
-116.40
-105.66
-80.49
-42.39
3.46
48.71
83.86
101.02
96.60
71.85
32.38
-13.22
-54.77
-83.00
-91.45
-77.58
-46.02
-5.11
36.05
70.81
96.08
111.18
115.98
109.63
91.02
60.56
22.18
-17.28
-50.21
-71.66
-81.28
-82.86
-81.59
-81.23
-83.00
-85.20
-85.72
-83.69
-80.09
-77.12
-77.30
-81.71
-90.07
-100.30
-108.30
-109.19
-98.86
-75.89
-42.67
-4.96
30.24
57.27
73.75
80.94
82.11
80.55
78.21
75.66
73.08
71.11
70.83
73.03
77.40
82.42
85.93
86.47
83.87
79.58
76.02
75.63
80.06
89.29
101.03
110.68
112.46
101.45
75.90
38.58
-3.91
-43.52
-74.03
-93.26
-103.18
-107.91
-111.05
-114.02
-116.02
-115.64
-112.56
-108.21
-105.17
-105.96
-111.94
-122.79
-136.38
-148.71
-154.75
-149.65
-130.54
-98.18
-57.32
-15.35
20.35
45.08
58.28
62.81
63.02
62.38
62.26
62.12
60.79
57.62
53.08
48.47
45.16
44.12
45.60
48.94
52.86
55.81
56.35
53.79
48.80
42.99
38.78
38.25
42.12
49.45
58.08
65.42
69.30
68.54
62.88
53.05
40.77
28.54
19.16
15.49
19.25
30.00
44.43
56.70
60.64
52.62
34.34
12.54
-4.01
-9.41
-4.62
2.16
-0.63
-21.28
-59.69
-106.57
-147.70
-171.42
-174.13
-161.30
-143.25
-128.72
-120.18
-113.71
-102.70
-83.05
-55.96
-27.27
-3.76
10.70
16.83
19.25
23.35
32.41
45.82
60.02
70.36
73.39
68.81
59.28
49.26
42.96
42.44
46.69
52.26
54.74
50.70
39.66
24.06
8.37
-3.07
-8.12
-8.14
-7.29
-9.97
-18.40
-31.36
-44.86
-54.81
-58.97
-56.95
-49.64
-37.42
-20.48
0.57
23.24
42.85
53.90
52.73
39.43
18.00
-5.16
-24.06
-35.65
-40.91
-43.80
-48.85
-58.21
-70.09
-78.46
-75.90
-58.28
-28.03
6.02
32.48
43.53
39.64
29.02
22.35
26.25
39.42
53.77
60.99
58.17
50.49
47.79
58.46
82.92
112.64
133.26
132.58
106.87
63.61
17.97
-14.10
-23.32
-11.24
11.43
30.58
35.93
25.42
4.75
-17.00
-33.42
-44.10
-53.86
-68.81
-91.95
-120.50
-146.93
-162.52
-162.21
-146.66
-121.59
-94.33
-70.23
-50.87
-34.56
-18.25
-0.20
19.24
37.60
52.13
60.82
63.74
62.67
60.28
58.93
59.73
62.23
64.99
66.52
66.00
63.67
60.58
58.04
57.04
57.79
59.75
62.06
64.02
65.32
66.18
67.08
68.54
70.87
74.02
77.53
80.95
83.88
85.96
86.89
86.35
84.03
79.59
72.79
63.30
51.12
36.68
20.49
3.16
-14.71
-32.49
-49.69
-64.73
-77.38
-87.56
-95.09
-100.12
-102.98
-104.16
-104.18
-103.50
-102.52
-101.58
-100.62
-99.23
-97.16
-94.28
-90.61
-86.12
-80.68
-73.91
-65.25
-55.00
-41.77
-24.73
-3.92
19.57
44.17
68.12
89.94
108.65
124.01
136.35
145.69
151.54
152.67
147.82
136.11
117.63
93.64
66.47
38.74
12.47
-10.03
-28.97
-45.39
-60.64
-75.99
-92.56
-110.90
-130.09
-147.21
-157.27
-154.78
-135.87
-100.73
-54.42
-5.47
37.34
68.28
86.10
93.44
94.43
92.40
88.78
83.54
76.45
68.15
60.08
53.63
48.71
44.33
38.81
30.38
18.16
2.49
-15.38
-33.83
-51.84
-69.31
-87.12
-106.71
-129.41
-155.87
-185.83
-218.23
-251.64
-284.65
-316.25
-345.65
-372.19
-394.89
-412.30
-422.55
-424.07
-415.21
-395.02
-363.57
-322.00
-272.42
-217.54
-160.26
-103.33
-49.10
0.67
44.68
82.16
112.83
136.79
154.57
166.93
174.71
178.78
179.90
178.71
175.65
171.06
165.23
158.37
150.69
142.38
133.61
124.55
115.28
105.88
96.35
86.73
77.04
67.32
57.63
48.03
38.62
29.47
20.65
12.21
4.17
-3.44
-10.63
-17.40
-23.80
-29.86
-35.59
-41.00
-46.10
-50.88
-55.37
-59.58
-63.54
-67.30
-70.85
-74.16
-77.16
-79.76
-81.90
-83.49
-84.50
-84.92
-84.72
-84.05
-82.96
-81.45
-79.50
-77.07
-74.22
-71.04
-67.73
-64.48
-61.41
-58.53
-55.70
-52.71
-49.37
-45.63
-41.61
-37.55
-33.74
-30.34
-27.22
-23.99
-20.14
-15.22
-9.06
-1.86
5.86
13.47
20.59
27.28
34.03
41.60
50.66
61.47
73.71
86.72
99.66
112.01
123.73
135.28
147.47
161.34
178.05
198.58
223.26
251.09
279.36
303.93
320.31
325.27
318.06
300.75
277.26
251.85
227.57
205.70
186.08
168.11
151.49
136.41
123.20
111.84
101.74
92.04
82.03
71.53
60.93
50.99
42.38
35.38
29.78
25.00
20.40
15.51
10.28
5.00
0.21
-3.61
-6.24
-7.84
-8.85
-9.83
-11.17
-12.99
-15.09
-17.09
-18.61
-19.44
-19.62
-19.33
-18.86
-18.43
-18.16
-18.05
-18.03
-18.00
-17.93
-17.82
-17.71
-17.63
-17.57
-17.48
-17.32
-17.06
-16.71
-16.35
-15.99
-15.67
-15.39
-15.15
-14.91
-14.67
-14.39
-14.05
-13.65
-13.17
-12.65
-12.14
-11.69
-11.36
-11.16
-11.08
-11.07
-11.08
-11.07
-11.00
-10.87
-10.70
-10.52
-10.35
-10.17
-9.98
-9.76
-9.51
-9.24
-8.98
-8.77
-8.65
-8.64
-8.72
-8.79
-8.77
-8.58
-8.20
-7.71
-7.25
-6.98
-6.93
-7.10
-7.34
-7.52
-7.57
-7.47
-7.29
-7.10
-6.95
-6.84
-6.76
-6.66
-6.54
-6.41
-6.29
-6.21
-6.16
-6.12
-6.05
-5.90
-5.65
-5.33
-5.00
-4.75
-4.63
-4.67
-4.82
-5.00
-5.12
-5.16
-5.10
-4.98
-4.82
-4.66
-4.50
-4.37
-4.27
-4.21
-4.18
-4.16
-4.13
-4.07
-3.97
-3.86
-3.77
-3.75
-3.83
-4.00
-4.22
-4.41
-4.48
-4.38
-4.12
-3.77
-3.41
-3.11
-2.90
-2.78
-2.74
-2.76
-2.81
-2.86
-2.87
-2.83
-2.73
-2.63
-2.56
-2.54
-2.54
-2.53
-2.47
-2.34
-2.21
-2.15
-2.20
-2.38
-2.61
-2.81
-2.92
-2.91
-2.85
-2.82
-2.89
-3.07
-3.28
-3.41
-3.37
-3.18
-2.91
-2.70
-2.65
-2.76
-2.96
-3.12
-3.13
-2.97
-2.70
-2.43
-2.27
-2.28
-2.39
-2.49
-2.45
-2.19
-1.77
-1.28
-0.86
-0.59
-0.49
-0.53
-0.66
-0.85
-1.06
-1.24
-1.32
-1.29
-1.15
-0.96
-0.80
-0.71
-0.71
-0.83
-1.08
-1.47
-1.98
-2.51
-2.91
-3.05
-2.88
-2.46
-1.93
-1.44
-1.08
-0.87
-0.80
-0.84
-1.00
-1.27
-1.60
-1.94
-2.21
-2.38
-2.44
-2.40
-2.28
-2.09
-1.84
-1.59
-1.38
-1.27
-1.25
-1.26
-1.26
-1.22
-1.13
-1.05
-1.01
-0.99
-0.96
-0.88
-0.76
-0.66
-0.63
-0.73
-0.94
-1.20
-1.40
-1.46
-1.33
-1.04
-0.70
-0.40
-0.24
-0.28
-0.49
-0.80
-1.11
-1.35
-1.46
-1.44
-1.34
-1.18
-1.04
-0.93
-0.87
-0.89
-0.95
-1.04
-1.10
-1.12
-1.06
-0.94
-0.77
-0.62
-0.51
-0.49
-0.52
-0.57
-0.58
-0.52
-0.39
-0.25
-0.17
-0.21
-0.36
-0.58
-0.77
-0.87
-0.83
-0.71
-0.56
-0.47
-0.47
-0.57
-0.76
-1.00
-1.25
-1.50
-1.70
-1.86
-1.94
-1.91
-1.73
-1.41
-0.99
-0.54
-0.20
-0.05
-0.12
-0.37
-0.72
-1.04
-1.25
-1.30
-1.21
-1.05
-0.89
-0.80
-0.83
-0.97
-1.16
-1.32
-1.38
-1.32
-1.16
-0.94
-0.75
-0.63
-0.61
-0.69
-0.81
-0.92
-0.95
-0.87
-0.69
-0.46
-0.26
-0.14
-0.09
-0.11
-0.14
-0.18
-0.21
-0.26
-0.31
-0.30
-0.16
0.12
0.53
0.96
1.30
1.46
1.44
1.33
1.27
1.33
1.52
1.76
1.93
1.92
1.73
1.44
1.13
0.89
0.77
0.72
0.67
0.57
0.36
0.03
-0.41
-0.89
-1.34
-1.68
-1.86
-1.84
-1.68
-1.44
-1.20
-1.03
-0.98
-1.05
-1.21
-1.39
-1.50
-1.47
-1.28
-1.00
-0.75
-0.65
-0.73
-0.95
-1.18
-1.29
-1.23
-1.00
-0.69
-0.42
-0.27
-0.30
-0.51
-0.84
-1.20
-1.45
-1.52
-1.37
-1.04
-0.63
-0.22
0.11
0.38
0.59
0.74
0.81
0.76
0.59
0.32
0.04
-0.16
-0.24
-0.17
0.02
0.26
0.47
0.60
0.62
0.53
0.36
0.16
-0.01
-0.14
-0.23
-0.29
-0.32
-0.33
-0.29
-0.19
-0.02
0.17
0.33
0.39
0.29
0.04
-0.33
-0.71
-0.99
-1.13
-1.13
-1.04
-0.93
-0.84
-0.74
-0.60
-0.36
-0.04
0.28
0.53
0.62
0.56
0.42
0.28
0.18
0.09
-0.01
-0.20
-0.45
-0.72
-0.93
-1.01
-0.93
-0.74
-0.52
-0.37
-0.37
-0.50
-0.70
-0.85
-0.85
-0.66
-0.34
0.01
0.29
0.43
0.46
0.42
0.34
0.21
-0.02
-0.39
-0.84
-1.23
-1.42
-1.31
-0.91
-0.35
0.20
0.59
0.80
0.85
0.84
0.85
0.87
0.86
0.73
0.44
0.01
-0.47
-0.89
-1.17
-1.28
-1.24
-1.07
-0.79
-0.41
0.04
0.47
0.74
0.73
0.43
-0.04
-0.49
-0.71
-0.65
-0.37
-0.03
0.27
0.46
0.60
0.73
0.86
0.93
0.90
0.74
0.52
0.33
0.22
0.19
0.18
0.14
0.03
-0.12
-0.28
-0.40
-0.48
-0.52
-0.51
-0.47
-0.42
-0.37
-0.35
-0.37
-0.43
-0.53
-0.64
-0.70
-0.71
-0.66
-0.57
-0.48
-0.43
-0.42
-0.43
-0.40
-0.26
0.02
0.40
0.81
1.17
1.40
1.48
1.42
1.23
0.93
0.56
0.17
-0.20
-0.57
-0.95
-1.34
-1.73
-2.05
-2.21
-2.16
-1.94
-1.63
-1.35
-1.15
-1.00
-0.84
-0.60
-0.29
0.04
0.30
0.45
0.50
0.51
0.53
0.59
0.68
0.78
0.86
0.94
1.04
1.18
1.32
1.34
1.16
0.74
0.15
-0.43
-0.79
-0.80
-0.46
0.06
0.52
0.73
0.63
0.32
-0.05
-0.32
-0.43
-0.41
-0.28
-0.08
0.20
0.52
0.83
0.98
0.87
0.47
-0.10
-0.64
-0.93
-0.87
-0.52
-0.07
0.25
0.34
0.17
-0.15
-0.49
-0.74
-0.84
-0.77
-0.56
-0.28
-0.01
0.15
0.14
-0.00
-0.18
-0.26
-0.16
0.10
0.41
0.63
0.66
0.52
0.31
0.11
-0.03
-0.10
-0.14
-0.19
-0.24
-0.31
-0.39
-0.48
-0.60
-0.73
-0.86
-0.94
-0.92
-0.76
-0.45
-0.05
0.36
0.68
0.82
0.76
0.52
0.20
-0.12
-0.35
-0.45
-0.44
-0.36
-0.30
-0.30
-0.38
-0.52
-0.65
-0.72
-0.69
-0.57
-0.37
-0.16
0.06
0.25
0.41
0.50
0.50
0.41
0.28
0.19
0.25
0.48
0.81
1.09
1.23
1.20
1.07
0.97
0.94
0.95
0.89
0.65
0.24
-0.25
-0.65
-0.86
-0.89
-0.85
-0.84
-0.91
-0.99
-0.98
-0.82
-0.55
-0.31
-0.25
-0.42
-0.78
-1.19
-1.48
-1.52
-1.30
-0.91
-0.47
-0.06
0.25
0.48
0.59
0.61
0.54
0.41
0.28
0.23
0.33
0.58
0.92
1.24
1.44
1.44
1.25
0.92
0.50
0.03
-0.44
-0.86
-1.17
-1.33
-1.33
-1.21
-1.03
-0.85
-0.70
-0.54
-0.33
-0.07
0.23
0.51
0.71
0.83
0.91
1.00
1.15
1.35
1.50
1.51
1.33
1.01
0.62
0.28
0.03
-0.14
-0.28
-0.41
-0.51
-0.51
-0.38
-0.15
0.08
0.18
0.13
-0.07
-0.31
-0.51
-0.62
-0.67
-0.72
-0.81
-0.94
-1.06
-1.14
-1.17
-1.16
-1.13
-1.13
-1.16
-1.20
-1.21
-1.11
-0.85
-0.41
0.14
0.66
1.02
1.10
0.90
0.52
0.10
-0.22
-0.34
-0.25
0.03
0.44
0.90
1.35
1.70
1.89
1.90
1.74
1.44
1.07
0.69
0.34
0.11
0.02
0.07
0.20
0.33
0.38
0.32
0.18
0.01
-0.16
-0.32
-0.47
-0.59
-0.63
-0.55
-0.37
-0.16
-0.02
-0.07
-0.36
-0.84
-1.39
-1.82
-2.01
-1.90
-1.55
-1.06
-0.58
-0.22
-0.02
0.03
-0.01
-0.07
-0.14
-0.23
-0.33
-0.44
-0.53
-0.53
-0.42
-0.22
0.02
0.21
0.30
0.26
0.12
-0.05
-0.19
-0.21
-0.09
0.14
0.39
0.57
0.59
0.50
0.39
0.36
0.46
0.61
0.73
0.71
0.61
0.52
0.59
0.84
1.18
1.41
1.40
1.11
0.65
0.18
-0.16
-0.31
-0.32
-0.27
-0.24
-0.27
-0.36
-0.49
-0.63
-0.71
-0.70
-0.59
-0.42
-0.26
-0.17
-0.19
-0.27
-0.37
-0.41
-0.35
-0.18
0.08
0.39
0.68
0.90
0.99
0.95
0.78
0.57
0.39
0.26
0.18
0.05
-0.15
-0.42
-0.64
-0.68
-0.48
-0.11
0.23
0.35
0.12
-0.37
-0.94
-1.38
-1.54
-1.42
-1.11
-0.72
-0.33
0.03
0.34
0.54
0.56
0.40
0.11
-0.19
-0.38
-0.41
-0.32
-0.18
-0.05
0.07
0.19
0.31
0.40
0.40
0.28
0.08
-0.12
-0.19
-0.09
0.13
0.37
0.55
0.62
0.63
0.66
0.74
0.86
0.95
0.96
0.85
0.65
0.43
0.23
0.08
-0.06
-0.24
-0.50
-0.83
-1.17
-1.42
-1.50
-1.37
-1.10
-0.76
-0.46
-0.25
-0.14
-0.09
-0.04
0.04
0.13
0.24
0.32
0.43
0.60
0.86
1.17
1.41
1.41
1.09
0.47
-0.30
-1.00
-1.45
-1.56
-1.39
-1.10
-0.80
-0.58
-0.43
-0.34
-0.26
-0.20
-0.16
-0.14
-0.14
-0.17
-0.23
-0.33
-0.41
-0.41
-0.23
0.10
0.52
0.85
0.98
0.86
0.58
0.32
0.21
0.28
0.46
0.62
0.69
0.67
0.60
0.54
0.48
0.40
0.29
0.16
0.05
0.03
0.09
0.20
0.30
0.34
0.31
0.24
0.20
0.21
0.27
0.31
0.25
0.01
-0.42
-0.96
-1.45
-1.71
-1.63
-1.25
-0.73
-0.27
-0.03
-0.06
-0.26
-0.49
-0.63
-0.63
-0.51
-0.35
-0.21
-0.08
0.10
0.38
0.77
1.18
1.50
1.62
1.54
1.32
1.07
0.85
0.65
0.41
0.07
-0.36
-0.79
-1.07
-1.13
-0.98
-0.73
-0.53
-0.47
-0.56
-0.71
-0.83
-0.86
-0.78
-0.64
-0.45
-0.25
-0.05
0.12
0.24
0.25
0.16
0.02
-0.06
-0.00
0.22
0.54
0.83
0.99
0.98
0.80
0.55
0.29
0.10
-0.00
0.01
0.12
0.30
0.46
0.49
0.30
-0.11
-0.69
-1.27
-1.70
-1.86
-1.75
-1.42
-0.95
-0.46
-0.01
0.36
0.59
0.67
0.61
0.44
0.26
0.15
0.15
0.23
0.33
0.36
0.28
0.12
-0.07
-0.18
-0.17
-0.00
0.27
0.58
0.82
0.94
0.90
0.73
0.50
0.29
0.13
0.02
-0.05
-0.11
-0.14
-0.11
-0.00
0.17
0.36
0.49
0.53
0.49
0.45
0.48
0.57
0.66
0.62
0.36
-0.07
-0.56
-0.93
-1.09
-1.04
-0.89
-0.75
-0.70
-0.72
-0.76
-0.79
-0.82
-0.86
-0.94
-1.06
-1.15
-1.15
-1.00
-0.69
-0.23
0.30
0.80
1.15
1.26
1.13
0.84
0.57
0.43
0.47
0.62
0.75
0.74
0.59
0.35
0.16
0.08
0.08
0.08
-0.01
-0.20
-0.45
-0.65
-0.74
-0.73
-0.71
-0.73
-0.82
-0.89
-0.86
-0.68
-0.37
-0.05
0.16
0.18
0.05
-0.14
-0.30
-0.38
-0.38
-0.34
-0.31
-0.29
-0.24
-0.16
-0.06
0.05
0.11
0.13
0.12
0.11
0.16
0.28
0.49
0.73
0.94
1.03
0.97
0.75
0.45
0.18
0.04
0.06
0.18
0.32
0.42
0.48
0.54
0.65
0.79
0.89
0.84
0.61
0.25
-0.11
-0.35
-0.39
-0.30
-0.17
-0.12
-0.21
-0.40
-0.60
-0.75
-0.79
-0.71
-0.54
-0.31
-0.06
0.19
0.40
0.53
0.57
0.52
0.42
0.27
0.10
-0.07
-0.25
-0.41
-0.50
-0.49
-0.35
-0.12
0.13
0.31
0.36
0.27
0.07
-0.15
-0.34
-0.47
-0.51
-0.45
-0.31
-0.13
-0.00
-0.01
-0.17
-0.42
-0.64
-0.69
-0.56
-0.30
-0.04
0.11
0.16
0.18
0.28
0.48
0.68
0.76
0.61
0.26
-0.14
-0.41
-0.45
-0.28
-0.03
0.15
0.15
-0.04
-0.32
-0.59
-0.72
-0.66
-0.43
-0.10
0.26
0.53
0.64
0.60
0.45
0.27
0.10
-0.03
-0.15
-0.29
-0.42
-0.47
-0.40
-0.19
0.12
0.47
0.77
0.98
1.08
1.07
0.97
0.76
0.43
0.00
-0.45
-0.84
-1.09
-1.13
-0.97
-0.64
-0.25
0.08
0.29
0.32
0.18
-0.05
-0.33
-0.59
-0.82
-0.99
-1.06
-1.01
-0.82
-0.52
-0.19
0.05
0.11
0.00
-0.16
-0.21
-0.03
0.39
0.91
1.33
1.48
1.32
0.99
0.67
0.51
0.52
0.59
0.56
0.35
-0.03
-0.48
-0.84
-1.04
-1.05
-0.90
-0.65
-0.36
-0.10
0.08
0.15
0.06
-0.14
-0.39
-0.60
-0.67
-0.57
-0.31
0.02
0.37
0.66
0.88
1.02
1.08
1.05
0.89
0.59
0.18
-0.29
-0.70
-0.98
-1.09
-1.05
-0.91
-0.73
-0.52
-0.28
0.00
0.28
0.51
0.64
0.64
0.54
0.41
0.29
0.23
0.21
0.19
0.15
0.08
-0.02
-0.14
-0.27
-0.42
-0.55
-0.63
-0.59
-0.40
-0.07
0.35
0.73
0.99
1.03
0.84
0.46
0.00
-0.42
-0.69
-0.75
-0.60
-0.29
0.04
0.28
0.30
0.06
-0.41
-1.00
-1.54
-1.88
-1.88
-1.52
-0.89
-0.16
0.50
0.94
1.11
1.07
0.91
0.76
0.67
0.65
0.67
0.66
0.58
0.39
0.08
-0.28
-0.61
-0.79
-0.78
-0.61
-0.36
-0.16
-0.08
-0.10
-0.12
-0.05
0.14
0.39
0.62
0.76
0.80
0.77
0.72
0.65
0.54
0.34
0.05
-0.27
-0.55
-0.72
-0.78
-0.77
-0.73
-0.70
-0.66
-0.56
-0.38
-0.16
0.04
0.14
0.12
0.04
0.01
0.08
0.27
0.49
0.62
0.58
0.40
0.19
0.10
0.21
0.49
0.80
0.95
0.83
0.46
-0.03
-0.45
-0.69
-0.69
-0.50
-0.20
0.12
0.39
0.57
0.64
0.61
0.50
0.37
0.26
0.22
0.23
0.25
0.19
0.03
-0.20
-0.45
-0.63
-0.70
-0.69
-0.65
-0.66
-0.75
-0.87
-0.94
-0.88
-0.66
-0.31
0.08
0.44
0.71
0.87
0.91
0.84
0.66
0.43
0.21
0.06
0.03
0.10
0.24
0.34
0.35
0.24
0.06
-0.14
-0.31
-0.38
-0.36
-0.26
-0.11
0.01
0.05
-0.04
-0.23
-0.48
-0.70
-0.88
-0.99
-1.06
-1.10
-1.09
-1.00
-0.80
-0.51
-0.21
-0.01
0.03
-0.09
-0.29
-0.46
-0.50
-0.39
-0.16
0.12
0.40
0.63
0.83
1.00
1.14
1.25
1.30
1.28
1.21
1.11
1.00
0.89
0.75
0.57
0.33
0.03
-0.31
-0.63
-0.90
-1.09
-1.20
-1.27
-1.30
-1.32
-1.31
-1.23
-1.05
-0.76
-0.39
0.00
0.34
0.57
0.71
0.77
0.78
0.73
0.58
0.33
0.01
-0.27
-0.42
-0.37
-0.15
0.14
0.38
0.48
0.45
0.32
0.13
-0.10
-0.34
-0.56
-0.66
-0.57
-0.28
0.11
0.44
0.56
0.45
0.23
0.09
0.13
0.35
0.56
0.57
0.28
-0.20
-0.63
-0.78
-0.58
-0.17
0.19
0.32
0.14
-0.17
-0.38
-0.33
-0.02
0.40
0.73
0.83
0.68
0.38
0.07
-0.16
-0.27
-0.27
-0.21
-0.14
-0.08
-0.08
-0.13
-0.18
-0.19
-0.12
0.05
0.29
0.55
0.74
0.79
0.68
0.42
0.08
-0.24
-0.46
-0.52
-0.46
-0.33
-0.22
-0.14
-0.11
-0.10
-0.12
-0.20
-0.36
-0.58
-0.79
-0.90
-0.85
-0.64
-0.33
0.01
0.31
0.52
0.61
0.53
0.26
-0.13
-0.49
-0.67
-0.54
-0.10
0.48
1.00
1.31
1.35
1.20
1.00
0.83
0.73
0.65
0.55
0.39
0.17
-0.07
-0.33
-0.58
-0.79
-0.93
-0.98
-0.90
-0.71
-0.45
-0.20
-0.05
-0.05
-0.23
-0.51
-0.78
-0.91
-0.84
-0.60
-0.30
-0.07
0.03
0.05
0.09
0.28
0.62
1.05
1.40
1.57
1.50
1.22
0.82
0.39
0.02
-0.23
-0.34
-0.32
-0.24
-0.22
-0.34
-0.60
-0.92
-1.13
-1.11
-0.81
-0.31
0.23
0.64
0.84
0.85
0.75
0.60
0.43
0.20
-0.11
-0.48
-0.82
-1.00
-0.96
-0.73
-0.39
-0.06
0.15
0.21
0.17
0.09
0.03
0.03
0.12
0.25
0.37
0.40
0.29
0.06
-0.21
-0.43
-0.53
-0.51
-0.44
-0.39
-0.41
-0.46
-0.47
-0.40
-0.26
-0.13
-0.06
-0.07
-0.08
-0.03
0.10
0.25
0.28
0.13
-0.21
-0.60
-0.86
-0.87
-0.61
-0.22
0.14
0.35
0.37
0.28
0.20
0.21
0.30
0.41
0.45
0.36
0.20
0.05
0.02
0.15
0.40
0.64
0.74
0.64
0.33
-0.06
-0.39
-0.56
-0.55
-0.43
-0.27
-0.15
-0.06
0.02
0.12
0.21
0.26
0.21
0.07
-0.10
-0.17
-0.08
0.17
0.49
0.76
0.89
0.86
0.73
0.61
0.57
0.60
0.63
0.55
0.30
-0.12
-0.61
-1.05
-1.31
-1.35
-1.19
-0.90
-0.59
-0.32
-0.13
-0.04
-0.05
-0.15
-0.34
-0.55
-0.73
-0.81
-0.75
-0.58
-0.37
-0.19
-0.12
-0.15
-0.23
-0.27
-0.24
-0.10
0.10
0.32
0.50
0.62
0.66
0.63
0.57
0.50
0.47
0.52
0.66
0.86
1.05
1.13
1.03
0.78
0.46
0.19
0.08
0.13
0.27
0.40
0.47
0.47
0.43
0.40
0.36
0.26
0.06
-0.20
-0.43
-0.51
-0.40
-0.14
0.09
0.16
-0.01
-0.36
-0.77
-1.10
-1.24
-1.20
-1.02
-0.78
-0.57
-0.45
-0.45
-0.56
-0.72
-0.84
-0.82
-0.59
-0.17
0.34
0.78
1.03
1.05
0.88
0.64
0.41
0.23
0.08
-0.07
-0.23
-0.32
-0.28
-0.07
0.25
0.56
0.72
0.63
0.33
-0.02
-0.28
-0.35
-0.27
-0.15
-0.09
-0.14
-0.26
-0.33
-0.27
-0.05
0.28
0.60
0.79
0.79
0.59
0.26
-0.11
-0.42
-0.58
-0.59
-0.49
-0.37
-0.32
-0.40
-0.57
-0.76
-0.86
-0.81
-0.65
-0.47
-0.37
-0.42
-0.57
-0.73
-0.81
-0.76
-0.60
-0.40
-0.20
-0.01
0.20
0.46
0.71
0.88
0.87
0.65
0.29
-0.04
-0.21
-0.17
0.05
0.30
0.47
0.53
0.49
0.45
0.45
0.50
0.55
0.53
0.43
0.29
0.17
0.12
0.15
0.21
0.25
0.24
0.16
0.02
-0.14
-0.26
-0.33
-0.34
-0.29
-0.23
-0.14
-0.04
0.09
0.25
0.40
0.51
0.52
0.42
0.23
0.01
-0.19
-0.33
-0.42
-0.45
-0.43
-0.37
-0.28
-0.18
-0.09
-0.04
-0.07
-0.15
-0.30
-0.46
-0.60
-0.65
-0.58
-0.37
-0.05
0.28
0.50
0.55
0.42
0.20
0.00
-0.10
-0.07
0.03
0.14
0.22
0.29
0.37
0.50
0.66
0.80
0.87
0.87
0.80
0.71
0.61
0.47
0.27
0.01
-0.23
-0.36
-0.32
-0.13
0.11
0.23
0.15
-0.15
-0.54
-0.84
-0.96
-0.93
-0.86
-0.89
-1.03
-1.20
-1.25
-1.08
-0.76
-0.47
-0.37
-0.55
-0.91
-1.24
-1.36
-1.19
-0.82
-0.43
-0.18
-0.14
-0.24
-0.38
-0.43
-0.36
-0.17
0.04
0.20
0.23
0.13
-0.06
-0.24
-0.34
-0.36
-0.33
-0.31
-0.35
-0.43
-0.50
-0.50
-0.40
-0.21
0.02
0.24
0.43
0.58
0.71
0.84
0.99
1.18
1.41
1.69
1.98
2.24
2.41
2.42
2.27
1.94
1.51
1.04
0.64
0.38
0.27
0.26
0.30
0.29
0.19
0.02
-0.17
-0.36
-0.51
-0.62
-0.67
-0.65
-0.55
-0.38
-0.21
-0.12
-0.16
-0.30
-0.47
-0.56
-0.50
-0.30
-0.01
0.25
0.43
0.46
0.37
0.18
-0.03
-0.23
-0.36
-0.43
-0.47
-0.51
-0.58
-0.68
-0.76
-0.80
-0.78
-0.70
-0.62
-0.52
-0.39
-0.20
0.05
0.30
0.47
0.51
0.45
0.40
0.48
0.74
1.12
1.40
1.39
0.98
0.29
-0.43
-0.89
-0.93
-0.58
-0.07
0.33
0.45
0.30
0.04
-0.15
-0.19
-0.12
-0.09
-0.18
-0.41
-0.66
-0.77
-0.66
-0.35
0.02
0.29
0.36
0.25
0.05
-0.12
-0.19
-0.16
-0.07
0.02
0.10
0.20
0.31
0.41
0.45
0.34
0.05
-0.37
-0.78
-1.04
-1.06
-0.88
-0.63
-0.44
-0.42
-0.52
-0.63
-0.61
-0.43
-0.15
0.10
0.22
0.20
0.08
-0.07
-0.22
-0.36
-0.54
-0.71
-0.79
-0.68
-0.35
0.11
0.55
0.81
0.82
0.62
0.37
0.20
0.18
0.28
0.38
0.39
0.27
0.09
-0.01
0.09
0.40
0.84
1.23
1.39
1.24
0.83
0.31
-0.14
-0.39
-0.40
-0.23
0.02
0.24
0.34
0.32
0.22
0.12
0.09
0.15
0.29
0.48
0.64
0.73
0.73
0.65
0.52
0.38
0.24
0.09
-0.06
-0.24
-0.46
-0.69
-0.91
-1.04
-1.05
-0.90
-0.64
-0.41
-0.30
-0.41
-0.67
-0.96
-1.12
-1.09
-0.91
-0.72
-0.65
-0.74
-0.89
-0.98
-0.87
-0.55
-0.11
0.32
0.61
0.71
0.63
0.43
0.19
-0.02
-0.15
-0.17
-0.07
0.12
0.34
0.49
0.49
0.30
-0.06
-0.48
-0.84
-1.02
-0.95
-0.65
-0.20
0.27
0.66
0.88
0.95
0.92
0.84
0.80
0.81
0.87
0.95
1.01
1.05
1.05
0.99
0.86
0.63
0.34
0.04
-0.19
-0.27
-0.22
-0.09
-0.02
-0.11
-0.41
-0.84
-1.25
-1.46
-1.34
-0.92
-0.35
0.16
0.42
0.38
0.11
-0.19
-0.37
-0.34
-0.17
0.04
0.18
0.22
0.18
0.11
0.03
-0.09
-0.28
-0.52
-0.76
-0.88
-0.82
-0.56
-0.17
0.23
0.52
0.61
0.48
0.13
-0.40
-1.02
