1589200218.00
64.000000
-0.00
-0.00
-0.00
-0.00
-0.00
-0.00
-0.00
-0.00
-0.00
-0.00
0.00
0.01
0.01
-0.00
-0.03
-0.05
-0.05
0.00
0.13
0.36
0.66
1.01
1.37
1.72
2.06
2.40
2.79
3.24
3.80
4.42
5.06
5.66
6.20
6.68
7.15
7.68
8.31
9.14
10.09
11.04
11.88
12.56
13.14
13.76
14.65
15.96
17.91
20.32
22.90
25.38
27.58
29.57
31.68
34.32
37.81
42.54
48.15
54.10
59.83
64.97
69.58
74.14
79.34
85.71
93.76
103.00
112.62
121.73
129.77
136.75
143.30
150.75
157.77
166.64
177.95
191.79
206.97
220.57
228.25
225.36
208.53
176.87
132.76
80.05
23.07
-34.94
-92.44
-149.16
-205.23
-260.37
-313.74
-363.87
-409.83
-450.91
-486.50
-515.74
-537.23
-549.22
-549.96
-538.37
-514.21
-478.67
-433.88
-382.45
-327.02
-269.84
-212.63
-156.66
-102.95
-52.37
-5.90
35.58
71.43
101.35
125.50
144.38
158.69
169.15
176.37
180.75
182.57
182.07
179.51
175.23
169.65
163.18
156.15
148.81
141.30
133.69
126.02
118.33
110.69
103.16
95.80
88.68
81.83
75.25
68.95
62.95
57.25
51.86
46.78
42.03
37.59
33.45
29.61
26.07
22.81
19.83
17.11
14.67
12.48
10.54
8.83
7.35
6.07
4.97
4.05
3.27
2.62
2.09
1.65
1.30
1.01
0.79
0.61
0.47
0.37
0.29
0.23
0.19
0.17
0.15
0.15
0.16
0.18
0.20
0.23
0.26
0.30
0.34
0.39
0.43
0.48
0.52
0.57
0.62
0.68
0.74
0.80
0.87
0.94
1.02
1.11
1.21
1.33
1.45
1.59
1.75
1.93
2.12
2.34
2.58
2.85
3.15
3.51
3.89
4.29
4.68
5.05
5.41
5.77
6.20
6.72
7.34
8.06
8.84
9.63
10.40
11.17
11.93
12.77
13.73
14.83
16.05
17.30
18.50
19.57
20.46
21.17
21.73
22.13
22.27
21.95
20.90
18.85
15.67
11.43
6.40
1.06
-4.11
-8.82
-13.02
-16.90
-20.75
-24.73
-28.75
-32.38
-35.07
-36.37
-36.22
-35.02
-33.56
-32.71
-32.99
-34.40
-36.35
-37.94
-38.50
-37.78
-36.14
-34.32
-33.13
-33.15
-34.84
-38.36
-43.51
-49.23
-53.37
-52.94
-45.22
-29.10
-6.10
19.84
43.71
61.39
71.03
73.43
71.01
66.33
60.97
55.47
49.91
44.77
41.05
39.77
41.30
44.80
48.44
50.14
48.39
43.16
35.85
28.72
23.91
22.67
24.92
29.47
34.55
38.65
40.93
41.36
41.35
42.04
44.22
48.11
53.32
59.16
65.03
70.89
77.35
85.40
95.84
108.84
123.67
138.71
151.94
161.52
166.23
165.64
160.00
150.12
137.43
124.05
112.46
104.92
102.66
105.10
109.80
113.13
111.61
103.21
88.12
68.39
46.91
26.15
7.24
-10.04
-26.75
-43.93
-62.09
-80.98
-99.78
-117.41
-132.67
-144.36
-151.22
-152.14
-146.40
-134.30
-117.36
-98.21
-79.99
-65.46
-56.32
-52.92
-54.55
-60.01
-68.22
-78.42
-90.20
-103.26
-117.02
-130.51
-142.25
-150.50
-153.58
-150.42
-140.96
-126.36
-108.66
-90.14
-72.49
-56.33
-41.27
-26.62
-12.11
1.61
13.10
20.60
22.85
19.48
11.02
-1.55
-17.20
-34.87
-53.48
-71.55
-87.15
-98.28
-103.52
-102.43
-95.93
-85.80
-74.08
-62.37
-51.51
-41.68
-32.75
-24.69
-17.77
-12.51
-9.55
-9.50
-12.73
-19.33
-28.92
-40.57
-52.87
-64.22
-73.17
-78.87
-81.26
-81.05
-79.37
-77.43
-76.12
-75.85
-76.52
-77.65
-78.66
-79.04
-78.51
-76.95
-74.40
-70.94
-66.61
-61.54
-55.93
-50.08
-44.25
-38.63
-33.18
-27.78
-22.41
-17.30
-12.95
-9.94
-8.60
-8.86
-10.12
-11.51
-12.26
-12.07
-11.32
-10.98
-12.29
-16.23
-23.07
-31.96
-41.06
-47.89
-50.06
-45.99
-35.34
-18.89
1.85
25.45
51.01
78.01
105.95
133.46
158.24
177.51
189.15
192.85
190.33
184.55
178.14
172.17
165.83
157.23
144.81
128.32
108.93
88.44
68.27
48.89
30.02
11.16
-7.75
-26.22
-43.53
-59.22
-73.23
-85.92
-97.80
-109.19
-120.33
-131.28
-142.12
-153.02
-164.11
-175.37
-186.35
-195.78
-201.51
-200.90
-191.67
-173.03
-146.19
-114.22
-80.88
-49.42
-21.64
2.18
22.59
40.05
54.43
65.25
72.26
75.94
77.47
78.25
79.24
80.52
81.51
81.45
79.91
77.07
73.54
70.08
67.13
64.57
61.78
57.92
52.40
45.15
36.59
27.50
18.62
10.38
2.76
-4.64
-12.47
-21.40
-31.92
-44.11
-57.33
-69.95
-79.55
-83.42
-79.48
-67.14
-47.64
-23.64
1.58
25.28
45.76
62.48
75.54
85.20
91.58
94.84
95.42
94.13
92.10
90.26
89.13
88.62
88.18
87.15
85.08
81.85
77.71
73.05
68.25
63.45
58.49
53.05
46.68
39.12
30.40
20.95
11.42
2.47
-5.57
-12.80
-19.76
-27.21
-35.83
-45.95
-57.31
-68.88
-79.06
-85.92
-87.80
-83.76
-73.97
-59.59
-42.34
-23.90
-5.52
12.08
28.34
42.58
53.92
61.49
64.98
64.97
62.84
60.39
59.11
59.76
62.19
65.55
68.74
70.86
71.43
70.41
68.09
64.73
60.46
55.19
48.80
41.32
33.11
24.80
17.09
10.43
4.65
-1.02
-7.67
-16.38
-27.68
-41.31
-56.22
-70.72
-82.81
-90.55
-92.41
-87.64
-76.40
-59.85
-39.87
-18.64
1.84
20.08
35.25
47.14
55.84
61.67
65.03
66.38
66.25
65.11
63.28
60.90
58.05
54.73
51.09
47.29
43.53
40.00
36.74
33.67
30.53
26.87
22.17
15.91
7.76
-2.19
-13.38
-24.89
-35.74
-45.31
-53.62
-61.37
-69.66
-79.57
-91.57
-105.13
-118.58
-129.47
-135.25
-134.09
-125.41
-110.07
-89.95
-67.42
-44.64
-23.29
-4.40
11.44
23.91
32.97
38.73
41.62
42.36
41.81
40.75
39.78
39.13
38.72
38.29
37.51
36.18
34.26
31.84
28.96
25.57
21.38
16.12
9.63
2.03
-6.23
-14.64
-22.80
-30.67
-38.60
-47.24
-57.31
-69.25
-82.97
-97.58
-111.48
-122.55
-128.71
-128.39
-121.13
-107.59
-89.39
-68.57
-46.96
-25.91
-6.25
11.50
26.82
39.23
48.30
54.02
56.86
57.73
57.66
57.50
57.68
58.19
58.71
58.90
58.57
57.68
56.25
54.23
51.26
46.86
40.51
32.10
22.05
11.37
1.29
-7.10
-13.28
-17.37
-20.04
-22.07
-24.13
-26.55
-29.38
-32.36
-34.88
-35.87
-33.98
-27.91
-16.93
-1.42
17.10
36.40
54.35
69.66
82.17
92.62
101.95
110.75
118.92
125.91
131.13
134.36
135.80
135.96
135.37
134.41
133.30
132.24
131.59
131.83
133.42
136.51
140.76
145.32
149.09
151.22
151.43
150.23
148.69
148.13
149.73
154.13
161.17
169.80
178.06
183.36
183.03
175.13
159.05
135.72
107.16
75.45
41.71
5.71
-33.60
-76.85
-123.18
-169.97
-213.54
-250.62
-279.40
-299.91
-313.32
-320.91
-323.29
-320.31
-311.62
-297.25
-278.02
-255.34
-230.89
-206.15
-182.24
-159.94
-139.70
-121.58
-105.03
-89.04
-72.55
-54.98
-36.73
-19.13
-3.97
7.18
13.62
15.74
14.73
12.05
8.85
5.62
2.25
-1.69
-6.69
-13.07
-20.87
-29.67
-38.47
-45.54
-48.78
-46.29
-37.03
-21.38
-1.01
21.55
43.74
63.68
80.38
93.60
103.52
110.50
114.89
117.13
117.64
116.88
115.27
113.14
110.79
108.43
106.15
103.82
101.13
97.68
93.15
87.62
81.39
75.02
69.06
63.77
59.01
54.39
49.38
43.58
36.95
29.75
22.54
15.87
10.09
5.10
0.38
-4.85
-11.36
-19.63
-29.62
-40.68
-51.55
-60.45
-65.34
-64.51
-57.13
-43.90
-26.97
-9.45
5.80
17.36
25.71
32.89
41.15
51.50
62.90
72.47
76.72
73.04
60.74
41.01
16.26
-10.98
-38.78
-65.95
-91.78
-115.69
-137.02
-155.09
-169.25
-178.94
-183.84
-183.94
-179.65
-171.81
-161.60
-150.29
-138.93
-128.07
-117.79
-107.88
-98.20
-88.87
-80.33
-73.19
-67.96
-64.84
-63.49
-63.18
-62.80
-61.13
-56.96
-49.39
-37.82
-22.09
-2.62
19.59
42.87
65.19
84.45
99.04
108.22
112.28
112.39
110.14
107.08
104.30
102.27
100.90
99.71
98.22
96.11
93.34
90.13
86.72
83.31
79.96
76.61
73.13
69.36
65.16
60.35
54.75
48.36
41.47
34.64
28.60
23.90
20.69
18.54
16.58
13.84
9.55
3.47
-4.12
-12.55
-20.83
-27.89
-32.63
-34.13
-31.84
-25.86
-16.95
-6.35
4.58
14.77
23.61
30.90
36.57
40.45
42.32
42.05
39.91
36.57
32.99
29.95
27.89
26.62
25.61
24.25
22.13
19.22
15.83
12.48
9.68
7.79
6.81
6.40
5.92
4.73
2.48
-0.74
-4.44
-8.00
-11.07
-13.68
-16.27
-19.41
-23.58
-28.93
-35.29
-42.16
-48.72
-53.94
-56.65
-55.83
-50.85
-41.84
-29.67
-15.83
-2.03
10.27
20.10
27.07
31.36
33.49
34.16
34.12
33.99
34.12
34.54
34.96
35.05
34.64
33.83
32.91
32.19
31.64
30.82
29.07
25.79
20.79
14.43
7.43
0.54
-5.69
-11.15
-16.09
-20.98
-26.30
-32.44
-39.56
-47.52
-55.73
-63.20
-68.61
-70.60
-68.13
-60.84
-49.13
-34.17
-17.55
-0.97
14.19
27.12
37.57
45.77
52.08
56.85
60.24
62.31
63.16
63.09
62.67
62.63
63.74
66.51
71.27
78.09
87.04
98.17
111.46
126.57
142.76
158.90
173.80
186.74
197.65
207.10
215.72
223.72
230.53
235.11
236.48
234.32
229.18
222.21
214.46
206.41
197.72
187.58
175.21
160.05
142.21
122.64
102.09
80.89
59.03
36.28
12.29
-13.28
-40.72
-69.64
-98.36
-124.60
-145.99
-160.48
-167.00
-165.85
-158.71
-148.75
-139.21
-131.94
-128.55
-130.40
-137.79
-150.08
-165.74
-182.80
-200.94
-219.69
-236.39
-250.24
-262.56
-274.66
-287.46
-301.22
-315.40
-332.00
-351.41
-367.77
-378.10
-383.20
-383.95
-381.00
-374.54
-364.41
-355.59
-351.34
-345.36
-335.51
-325.01
-316.53
-311.93
-312.17
-317.04
-331.76
-357.54
-381.85
-397.16
-403.79
-403.20
-397.85
-390.65
-342.41
-238.24
-143.10
-77.17
-23.73
23.05
66.79
109.03
149.58
187.02
212.92
222.20
224.09
224.22
222.32
218.96
214.86
210.74
207.25
199.89
186.24
173.89
166.58
162.87
161.81
162.91
166.12
171.61
176.33
178.41
182.16
189.27
198.16
207.99
218.68
230.66
244.03
256.02
263.04
263.86
256.82
240.93
217.98
191.61
165.47
141.61
119.29
96.74
73.36
49.46
26.12
5.03
-12.66
-26.88
-38.37
-47.92
-55.73
-61.48
-64.80
-65.79
-65.26
-64.28
-63.36
-61.96
-58.42
-50.76
-37.59
-18.80
4.52
30.60
57.91
85.55
113.28
140.99
168.03
192.90
213.22
225.87
227.60
215.89
190.28
153.38
111.13
71.39
41.30
24.34
18.44
16.70
10.17
-8.41
-41.56
-85.96
-133.55
-174.45
-200.25
-207.03
-196.73
-176.53
-156.56
-146.87
-154.64
-182.47
-228.14
-285.49
-345.84
-399.58
-437.95
-454.71
-447.65
-419.44
-376.91
-328.93
-283.40
-244.74
-213.05
-185.12
-156.42
-122.86
-82.19
-34.34
18.74
73.77
126.85
174.44
213.95
243.88
263.93
274.78
277.85
275.08
268.55
259.93
250.00
238.48
224.39
206.87
185.91
162.75
139.55
118.43
100.59
85.85
72.98
60.55
47.73
34.74
22.67
12.88
6.39
3.66
4.60
8.87
16.00
25.46
36.43
47.87
58.67
67.82
74.73
79.38
82.12
83.42
83.61
82.76
80.75
77.42
72.71
66.74
59.69
51.75
42.99
33.46
23.19
12.27
0.88
-10.79
-22.58
-34.38
-46.07
-57.45
-68.11
-77.52
-85.14
-90.70
-94.32
-96.43
-97.49
-97.64
-96.42
-92.85
-85.78
-74.29
-58.07
-37.54
-13.74
11.94
37.97
62.83
85.17
103.86
118.21
128.07
133.82
136.22
136.11
134.17
130.75
125.90
119.49
111.52
102.18
91.94
81.49
71.55
62.68
55.06
48.48
42.37
35.97
28.60
19.94
10.12
-0.26
-10.36
-19.39
-27.03
-33.67
-40.42
-48.77
-59.92
-74.08
-90.10
-105.55
-117.39
-123.02
-121.07
-111.83
-97.00
-78.99
-60.00
-41.47
-23.91
-7.23
8.72
23.80
37.45
48.99
57.96
64.37
68.73
71.63
73.40
73.92
72.63
69.03
63.00
54.99
45.87
36.52
27.49
18.86
10.37
1.66
-7.49
-17.08
-26.92
-36.79
-46.64
-56.55
-66.78
-77.63
-89.19
-101.20
-112.82
-122.63
-128.84
-129.73
-124.18
-112.12
-94.54
-73.31
-50.58
-28.26
-7.63
10.67
26.47
39.69
50.24
58.04
63.15
65.90
66.86
66.69
65.93
64.95
64.02
63.41
63.52
64.83
67.56
71.53
76.09
80.20
82.72
82.83
80.27
75.50
69.49
63.47
58.45
54.81
52.15
49.41
45.30
38.82
29.63
18.23
5.86
-5.87
-15.30
-21.10
-22.40
-18.86
-10.64
1.61
16.89
33.93
51.31
67.62
81.63
92.43
99.53
102.95
103.14
100.83
96.82
91.79
86.29
80.79
75.72
71.45
68.25
66.16
64.83
63.71
62.09
59.39
55.25
49.65
42.75
34.87
26.34
17.44
8.36
-0.80
-9.98
-19.14
-28.28
-37.43
-46.63
-55.89
-64.88
-72.86
-78.63
-80.93
-78.94
-72.70
-63.14
-51.71
-39.80
-28.17
-16.96
-6.00
4.65
14.43
22.36
27.49
29.44
28.60
26.01
23.01
20.65
19.44
19.27
19.62
19.87
19.60
18.67
17.19
15.31
13.08
10.44
7.23
3.34
-1.20
-6.23
-11.52
-16.89
-22.23
-27.49
-32.70
-37.96
-43.49
-49.55
-56.42
-64.03
-71.89
-78.99
-84.01
-85.71
-83.21
-76.31
-65.47
-51.77
-36.53
-21.13
-6.64
6.23
17.13
26.02
32.92
37.98
41.37
43.40
44.52
45.21
45.90
46.75
47.62
48.21
48.31
47.85
46.83
45.21
42.93
39.97
36.41
32.46
28.29
24.05
19.65
14.88
9.54
3.71
-2.11
-7.46
-12.13
-16.30
-20.45
-25.05
-30.47
-36.72
-43.37
-49.17
-53.04
-54.37
-53.03
-49.13
-42.88
-34.68
-25.12
-14.86
-3.74
7.64
17.90
25.38
29.20
29.67
28.01
25.80
24.56
26.46
31.58
37.73
41.91
42.26
39.19
35.13
33.52
37.79
51.58
74.31
100.74
123.08
134.41
131.16
113.78
86.14
42.69
-12.11
-66.66
-108.75
-133.46
-143.81
-146.23
-147.01
-150.45
-157.49
-163.67
-164.04
-154.65
-133.56
-101.48
-62.05
-21.60
8.26
18.51
9.15
-14.36
-44.69
-75.88
-104.51
-128.71
-147.22
-158.86
-164.80
-162.64
-152.86
-138.72
-124.22
-112.57
-104.55
-99.14
-94.52
-88.65
-79.38
-66.76
-52.18
-36.02
-19.72
-4.30
9.76
22.52
34.69
47.41
59.51
68.61
72.88
72.12
68.27
64.16
62.30
64.18
69.97
79.53
90.98
102.31
111.68
117.98
120.84
120.65
118.48
115.89
111.76
106.40
100.31
93.68
86.65
79.32
71.84
64.34
56.80
48.91
40.67
32.26
24.00
16.32
9.47
3.37
-2.41
-8.39
-14.96
-21.84
-28.60
-34.81
-40.31
-45.16
-49.51
-53.32
-56.43
-58.63
-59.70
-59.69
-58.80
-57.23
-55.01
-51.91
-47.58
-41.62
-33.78
-23.93
-12.31
0.34
12.89
23.96
32.31
37.22
38.59
36.77
32.38
25.86
17.59
8.01
-2.36
-12.92
-23.21
-33.10
-42.65
-51.88
-60.74
-69.02
-76.64
-83.81
-90.88
-98.05
-104.98
-110.83
-114.56
-115.34
-112.80
-106.96
-98.18
