1605285176.00
64.000000
-0.00
-0.00
-0.00
-0.00
-0.00
-0.00
-0.00
-0.00
-0.00
-0.00
0.00
0.01
0.01
-0.00
-0.03
-0.05
-0.05
0.00
0.13
0.36
0.66
1.01
1.37
1.72
2.06
2.40
2.79
3.24
3.80
4.42
5.06
5.66
6.20
6.68
7.15
7.68
8.31
9.14
10.09
11.04
11.88
12.56
13.14
13.76
14.65
15.96
17.91
20.32
22.90
25.38
27.58
29.57
31.68
34.32
37.81
42.54
48.15
54.10
59.83
64.97
69.58
74.14
79.34
85.71
93.76
103.00
112.62
121.73
129.77
136.75
143.31
150.75
157.77
166.63
177.94
191.80
207.01
220.63
228.30
225.35
208.40
176.60
132.38
79.63
22.70
-35.19
-92.54
-149.15
-205.20
-260.40
-313.89
-364.15
-410.20
-451.35
-487.01
-516.36
-538.05
-550.34
-551.42
-540.12
-516.10
-480.51
-435.48
-383.77
-328.22
-271.24
-214.63
-159.55
-106.78
-56.85
-10.52
31.36
67.88
98.31
122.35
140.33
153.12
161.92
167.93
171.93
174.14
174.29
171.92
166.80
159.25
150.17
140.74
131.98
124.27
117.09
109.54
100.82
90.79
80.21
70.18
61.17
52.55
43.15
32.67
22.85
17.13
18.79
28.38
42.55
54.93
59.15
51.75
33.55
8.59
-18.32
-43.50
-64.48
-78.62
-82.03
-70.24
-40.68
4.60
57.64
106.30
138.49
146.99
132.17
102.16
69.29
45.09
36.29
43.02
60.06
79.99
96.30
105.36
106.56
101.00
89.96
74.01
53.64
30.15
6.31
-14.07
-27.44
-31.97
-28.47
-20.28
-11.99
-7.69
-9.30
-16.00
-24.74
-31.73
-34.08
-30.84
-23.13
-13.52
-4.95
0.25
0.92
-2.65
-8.89
-15.66
-21.09
-24.05
-24.42
-22.79
-19.88
-16.20
-12.01
-7.57
-3.44
-0.55
0.18
-1.70
-5.76
-10.73
-15.02
-17.30
-16.92
-14.07
-9.51
-4.28
0.65
4.58
7.18
8.51
8.88
8.84
8.84
9.26
10.24
11.72
13.49
15.27
16.73
17.54
17.42
16.20
13.83
10.61
6.89
3.17
-0.07
-2.63
-4.59
-6.23
-7.86
-9.56
-11.14
-12.25
-12.59
-12.17
-11.33
-10.60
-10.36
-10.57
-10.75
-10.20
-8.48
-5.63
-2.23
0.83
2.77
3.16
2.12
0.08
-2.32
-4.59
-6.61
-8.82
-12.23
-17.98
-26.58
-37.07
-46.82
-52.20
-50.14
-39.61
-22.53
-3.54
11.66
17.90
12.08
-6.30
-35.13
-69.86
-103.75
-128.75
-137.46
-125.77
-95.11
-52.79
-9.70
23.57
40.48
40.36
27.53
8.58
-10.49
-25.90
-36.04
-40.36
-38.25
-29.22
-13.23
8.59
33.80
59.13
81.28
97.79
107.63
111.25
110.27
106.92
103.18
100.22
98.19
96.48
94.40
91.72
88.82
86.55
85.83
87.06
89.86
93.15
95.65
96.35
94.89
91.39
86.03
78.71
68.81
55.35
37.59
15.77
-8.58
-32.90
-54.50
-71.49
-83.41
-91.25
-96.71
-101.03
-104.14
-104.56
-100.42
-90.84
-76.83
-60.96
-46.37
-35.53
-29.24
-26.58
-25.82
-24.50
-22.00
-19.48
-18.70
-20.72
-25.63
-32.56
-40.02
-46.37
-51.84
-55.41
-56.32
-54.23
-49.66
-44.58
-41.64
-42.79
-48.26
-53.84
-54.29
-43.67
-17.58
23.72
73.19
118.75
147.78
151.89
129.77
86.36
30.20
-30.22
-83.19
-118.05
-128.53
-113.14
-74.59
-20.76
34.74
76.34
92.28
78.99
41.87
-6.96
-53.88
-87.96
-101.13
-89.67
-54.54
-2.35
54.41
100.20
122.01
114.18
79.88
28.43
-29.25
-82.51
-117.26
-124.28
-103.45
-62.27
-11.24
39.67
82.71
113.16
130.01
135.41
132.34
123.20
109.43
91.82
71.10
48.81
27.55
10.56
0.08
-4.34
-4.82
-3.96
-3.57
-4.14
-4.99
-4.94
-3.17
0.24
3.96
6.26
6.47
5.22
3.92
3.90
5.82
9.35
13.17
17.34
20.84
22.90
23.27
22.01
19.38
15.71
11.32
6.54
1.59
-3.38
-7.79
-10.85
-11.99
-11.17
-8.92
-6.29
-4.58
-5.28
-9.30
-16.40
-25.55
-35.47
-45.01
-53.23
-59.43
-63.30
-65.70
-67.45
-68.75
-69.63
-70.34
-71.30
-72.85
-75.19
-78.55
-84.45
-93.32
-103.67
-112.85
-118.41
-119.04
-114.94
-107.85
-100.41
-96.79
-98.69
-104.35
-110.00
-111.97
-107.89
-96.62
-78.04
-42.89
7.26
60.87
105.26
135.13
152.26
160.78
164.13
163.92
160.09
150.34
134.18
113.78
92.46
73.02
56.57
43.28
32.83
24.65
16.68
7.63
-2.40
-12.93
-22.25
-28.82
-31.34
-29.09
-22.38
-13.31
-3.94
5.02
12.24
17.20
19.74
20.17
19.13
17.44
15.48
13.67
12.58
12.72
14.71
18.77
24.69
31.64
38.26
42.90
44.46
42.73
38.18
31.88
24.72
17.42
10.64
4.67
-0.05
-3.10
-4.35
-4.18
-3.18
-2.10
-1.44
-1.15
-0.65
0.75
3.52
7.58
12.23
16.63
20.11
22.45
23.90
24.97
25.75
26.22
26.32
26.34
26.94
28.81
32.19
36.59
40.93
43.51
42.98
38.50
30.22
19.06
6.29
-7.13
-21.13
-33.65
-44.15
-52.83
-60.68
-68.38
-75.74
-81.83
-85.45
-85.70
-82.25
-75.83
-67.73
-60.22
-55.18
-53.54
-55.34
-60.12
-66.92
-74.16
-80.22
-83.47
-83.95
-82.19
-78.88
-74.69
-70.34
-66.29
-62.44
-58.32
-47.05
-26.35
0.86
29.04
54.15
74.56
90.08
101.07
108.11
112.03
112.73
110.33
105.24
97.85
88.35
77.07
65.10
54.00
45.12
37.95
31.01
22.74
12.42
0.81
-9.96
-17.11
-18.96
-16.17
-12.19
-11.31
-16.17
-26.35
-38.47
-48.13
-50.85
-44.53
-29.97
-10.76
8.48
23.31
30.49
28.43
17.71
1.60
-14.12
-21.45
-14.12
9.16
42.82
75.85
96.04
95.45
74.02
39.29
2.76
-25.50
-40.38
-42.42
-35.83
-25.60
-15.26
-6.57
-0.26
3.15
3.03
-0.92
-8.08
-16.97
-25.70
-32.54
-36.16
-36.07
-32.53
-26.71
-20.50
-15.92
-14.55
-16.88
-21.95
-27.89
-32.68
-34.98
-34.29
-30.78
-24.36
-14.43
-0.57
16.43
33.53
46.25
50.75
46.31
36.19
26.32
22.27
26.20
35.86
46.02
51.54
49.91
42.03
30.83
19.13
8.26
-1.93
-11.89
-21.30
-28.76
-32.52
-31.62
-26.36
-18.41
-10.11
-3.64
-0.15
0.37
-1.14
-3.39
-5.18
-5.91
-5.68
-5.12
-5.05
-6.04
-8.17
-10.87
-13.13
-13.94
-12.67
-9.49
-5.14
-0.69
2.97
5.40
6.66
7.20
7.56
8.12
8.97
9.90
10.60
10.80
10.36
9.25
7.63
5.75
3.92
2.31
0.98
-0.18
-1.37
-2.80
-4.63
-6.77
-8.83
-10.33
-10.78
-9.98
-8.09
-5.56
-2.48
0.62
3.33
5.51
7.23
8.61
9.67
10.29
10.39
9.94
8.91
7.33
5.14
2.08
-2.11
-7.50
-13.82
-20.40
-26.33
-30.80
-33.25
-33.50
-31.91
-29.15
-26.14
-23.71
-22.38
-22.24
-22.94
-23.89
-24.48
-24.32
-23.32
-21.60
-19.37
-16.75
-13.84
-10.75
-7.67
-4.87
-2.67
-1.27
-0.66
-0.63
-0.82
-0.93
-0.86
-0.74
-0.85
-1.46
-2.62
-4.11
-5.49
-6.32
-6.41
-5.86
-5.04
-4.40
-4.20
-4.46
-5.00
-5.63
-6.28
-7.11
-8.43
-10.48
-13.27
-16.48
-19.63
-22.10
-23.38
-23.08
-20.97
-17.00
-11.39
-4.66
2.36
8.72
13.66
16.85
18.54
19.43
20.29
21.64
23.51
25.52
27.09
27.78
27.40
26.11
24.28
22.35
20.63
19.31
18.44
17.95
17.76
17.76
17.83
17.88
17.80
17.55
17.07
16.36
15.45
14.42
13.34
12.28
11.25
10.21
9.04
7.63
5.86
3.67
1.06
-1.86
-4.96
-8.10
-11.16
-14.10
-16.89
-19.48
-21.70
-23.24
-23.72
-22.84
-20.55
-17.12
-13.05
-8.96
-5.27
-2.16
0.47
2.88
5.27
7.65
9.80
11.38
12.13
12.02
11.28
10.32
9.52
9.03
8.76
8.43
7.82
6.91
5.91
5.12
4.69
4.50
4.20
3.40
1.86
-0.33
-2.82
-5.18
-7.11
-8.55
-9.70
-10.86
-12.30
-14.14
-16.27
-18.48
-20.44
-21.86
-22.52
-22.28
-21.15
-19.26
-16.83
-14.10
-11.24
-8.32
-5.32
-2.10
1.49
5.55
10.11
15.07
20.22
25.25
29.83
33.78
37.06
39.76
42.00
43.80
45.02
45.44
44.92
43.51
41.49
39.26
37.09
35.07
33.07
30.87
28.33
25.46
22.37
19.18
15.93
12.55
8.95
5.13
1.22
-2.58
-6.09
-9.28
-12.23
-15.17
-18.26
-21.63
-25.24
-29.02
-32.84
-36.68
-40.54
-44.43
-48.33
-52.11
-55.57
-58.52
-60.82
-62.38
-63.11
-62.77
-60.96
-57.21
-51.10
-42.39
-31.05
-17.15
-0.80
17.81
37.99
58.29
76.36
89.58
95.92
95.00
88.43
79.30
71.02
65.98
64.80
66.40
68.94
70.77
71.18
70.37
68.98
67.49
65.83
63.46
59.72
54.31
47.45
39.87
32.36
25.51
19.65
15.09
12.19
11.36
12.73
15.84
19.49
22.14
22.43
19.90
15.18
9.50
4.03
-0.59
-4.34
-7.45
-10.10
-12.13
-13.21
-12.92
-11.32
-9.06
-6.99
-5.66
-5.12
-4.98
-4.73
-4.05
-2.48
-0.10
2.38
4.17
4.86
4.54
3.63
2.61
1.87
2.45
4.81
8.56
12.74
16.60
19.66
21.84
23.18
23.85
25.07
27.32
30.04
31.91
32.06
30.18
26.48
21.05
8.10
-12.77
-36.38
-56.25
-69.31
-75.40
-77.09
-76.32
-74.52
-73.10
-72.39
-73.27
-75.46
-79.50
-85.14
-91.57
-97.72
-103.02
-107.10
-108.57
-105.80
-97.35
-82.47
-61.12
-34.75
-6.22
20.83
43.28
60.27
72.67
82.21
90.26
97.30
102.54
104.26
100.63
90.70
75.03
55.11
32.75
9.66
-12.28
-30.97
-44.14
-50.03
-47.97
-38.77
-24.71
-8.73
6.61
20.06
31.82
42.95
54.51
66.88
79.48
91.08
100.23
105.68
106.72
103.29
96.00
85.90
74.27
62.28
50.80
40.32
30.95
22.52
14.56
6.38
-2.77
-13.35
-25.17
-37.10
-47.24
-53.51
-54.39
-49.66
-40.56
-29.33
-18.45
-9.74
-3.83
-0.26
2.10
4.45
7.53
11.53
16.15
20.89
25.26
28.95
31.80
33.74
34.65
34.28
32.36
28.64
23.14
16.23
8.66
1.31
-4.98
-9.77
-13.04
-15.10
-16.29
-16.69
-16.04
-13.88
-9.78
-3.70
3.94
12.36
20.66
28.14
34.39
39.30
42.86
44.98
45.45
44.01
40.41
34.61
26.79
17.37
6.96
-3.73
-13.93
-22.96
-30.27
-35.43
-38.22
-38.59
-36.76
-33.31
-29.07
-25.04
-22.04
-20.47
-20.23
-20.82
-21.72
-22.64
-23.75
-25.54
-28.47
-32.47
-36.65
-39.40
-38.87
-33.75
-23.94
-10.80
3.25
15.50
23.76
26.82
24.50
17.31
6.07
-8.06
-23.51
-38.18
-49.69
-56.03
-56.32
-51.37
-43.45
-35.62
-30.75
-30.75
-36.26
-46.89
-61.55
-78.71
-96.66
-113.64
-128.31
-140.38
-151.07
-163.02
-179.16
-201.10
-227.79
-255.39
-278.49
-292.26
-294.20
-284.77
-266.57
-242.88
-216.39
-188.85
-161.42
-135.09
-110.80
-88.97
-69.26
-50.91
-33.77
-19.35
-10.84
-11.73
-23.56
-44.57
-69.68
-92.56
-108.27
-115.24
-115.25
-111.97
-108.62
-106.48
-104.70
-101.29
-94.19
-81.91
-63.61
-39.05
-8.90
24.81
58.61
88.22
110.09
122.75
127.41
127.39
126.65
128.20
133.10
140.49
148.34
154.47
157.22
155.79
150.20
141.08
129.48
116.72
104.21
93.15
84.33
77.90
73.30
69.45
65.17
59.53
52.22
43.64
34.69
26.44
19.68
14.61
10.87
7.65
4.15
-0.12
-5.01
-9.79
-13.40
-14.83
-13.56
-9.79
-4.37
1.50
6.69
10.50
12.79
13.93
14.57
15.36
16.80
19.08
22.11
25.61
29.23
32.62
35.52
37.75
39.16
39.63
39.03
37.33
34.62
31.16
27.33
23.49
19.93
16.77
14.00
11.55
9.35
7.35
5.52
3.79
2.03
0.06
-2.36
-5.44
-9.34
-14.01
-19.16
-24.22
-28.41
-30.95
-31.31
-29.37
-25.42
-20.09
-14.10
-8.02
-2.14
3.55
9.17
14.82
20.40
25.59
29.93
32.98
34.42
34.18
32.42
29.53
26.00
22.31
18.86
15.85
13.33
11.18
9.31
7.67
6.30
5.27
4.62
4.30
4.24
4.36
4.66
5.14
5.78
6.44
6.85
6.70
5.70
3.71
1.00
-2.14
-5.67
-9.08
-11.52
-12.20
-10.59
-6.60
-0.62
6.83
14.96
22.64
29.29
34.84
39.38
42.98
45.73
47.79
49.87
52.29
54.20
55.39
56.07
56.31
56.00
55.15
53.90
54.17
56.74
59.16
60.61
61.69
62.78
64.02
65.64
67.85
73.95
84.73
94.31
100.74
105.47
109.80
114.56
120.43
128.05
142.52
164.82
185.30
200.38
211.74
220.77
228.25
235.44
244.26
262.26
291.01
317.50
335.77
345.94
347.43
338.95
320.74
250.82
123.52
15.19
-60.61
-122.47
-176.35
-226.20
-274.93
-321.82
-361.77
-383.55
-382.52
-370.18
-352.87
-332.34
-302.70
-265.40
-233.86
-208.60
-181.31
-151.06
-128.36
-117.10
-115.01
-118.63
-125.10
-131.28
-133.57
-128.42
-116.32
-104.57
-93.20
-80.87
-68.27
-57.71
-50.14
-44.38
-39.29
-34.13
-31.41
-31.71
-34.39
-38.53
-42.76
-45.36
-44.09
-37.66
-25.45
-8.95
10.14
29.69
47.85
63.19
75.04
83.71
89.26
92.88
95.46
97.32
98.11
97.72
96.24
93.96
91.31
82.10
64.19
40.29
15.25
-7.90
-28.02
-44.28
-56.26
-63.24
-64.05
-56.67
-40.19
-15.09
17.03
53.67
89.86
119.63
137.56
140.56
129.58
108.01
80.02
49.56
20.18
-4.84
-22.36
-30.55
-29.03
-19.03
-4.19
10.19
19.10
19.69
11.88
-2.04
-19.52
-36.84
-49.44
-53.84
-49.28
-38.01
-24.27
-12.83
-7.43
-11.54
-25.22
-45.23
-67.52
-89.40
-109.52
-126.99
-140.99
-150.96
-159.35
-167.69
-175.40
-180.83
-182.52
-179.31
-169.99
-153.79
-116.26
-57.77
7.17
62.39
100.85
123.05
131.80
130.04
120.47
105.92
87.07
65.97
46.10
30.49
20.00
13.83
10.84
9.99
10.24
8.69
3.77
-3.93
-12.50
-20.10
-26.10
-28.96
-27.85
-22.81
-15.75
-8.14
-0.31
8.04
16.97
26.30
35.11
42.70
48.63
52.28
53.75
53.76
52.90
50.79
46.14
37.65
25.04
9.76
-5.20
-16.07
-19.87
-15.91
-6.26
5.22
14.76
20.27
21.56
19.80
16.48
12.57
8.24
3.29
-2.30
-8.01
-12.83
-15.96
-17.03
-16.33
-14.48
-12.15
-9.73
-7.31
-4.87
-2.43
-0.27
1.20
1.71
1.26
0.16
-1.10
-1.94
-1.94
-0.85
1.13
3.45
5.34
6.16
5.62
3.99
2.04
0.38
-0.08
1.22
4.15
7.94
11.49
13.71
13.95
12.25
9.21
5.88
3.19
1.69
1.39
1.84
2.40
2.43
1.44
-0.81
-4.12
-7.92
-11.22
-12.86
-12.01
-8.59
-3.52
1.64
5.33
6.77
6.32
5.23
5.08
6.95
10.96
16.20
21.13
24.04
23.65
19.42
11.72
1.78
-8.39
-16.35
-19.77
-17.21
-8.82
3.45
16.33
26.42
31.44
30.93
26.11
18.97
11.22
3.71
-3.36
-9.94
-15.58
-19.38
-20.44
-18.33
-13.32
-6.23
1.86
9.85
16.65
21.15
22.41
19.85
13.60
4.60
-5.55
-14.92
-21.69
-24.59
-23.23
-18.17
-10.83
-2.93
3.92
8.71
10.97
10.78
8.45
4.48
-0.44
-5.55
-10.03
-13.03
-13.72
-11.43
-5.76
3.03
13.76
24.29
32.09
35.21
33.12
26.92
18.68
10.34
2.83
-4.03
-10.73
-17.25
-22.51
-24.70
-22.07
-13.94
-1.31
13.16
25.88
33.50
33.92
26.99
14.37
-1.24
-17.05
-30.72
-40.50
-45.00
-43.19
-34.96
-21.66
-6.20
7.85
17.55
21.71
20.97
16.86
10.85
3.77
-3.81
-10.97
-16.22
-18.03
-15.83
-10.52
-4.34
0.31
2.09
1.05
-1.80
-5.34
-8.87
-12.00
-14.22
-14.73
-12.32
-6.08
3.73
15.06
24.65
29.33
27.33
18.80
5.07
-11.61
-28.72
-44.03
-55.83
-62.66
-63.37
-57.63
-46.73
-34.47
-25.05
-21.28
-23.54
-30.11
-38.06
-44.51
-47.74
-47.69
-46.41
-45.63
-45.67
-45.65
-44.61
-41.97
-37.39
-30.37
-14.61
10.83
40.23
65.26
80.83
86.13
83.09
74.86
64.66
54.85
45.62
36.72
28.36
21.26
16.00
12.60
10.70
9.73
8.96
7.05
3.38
-1.49
-6.34
-10.12
-12.48
-13.59
-13.94
-14.13
-15.10
-17.18
-19.80
-22.32
-23.42
-22.49
-19.59
-15.27
-10.39
-6.03
-2.78
-0.61
1.01
2.69
4.74
7.21
9.88
12.34
14.08
14.85
14.62
13.62
12.18
10.46
8.54
6.37
3.87
0.96
-2.10
-4.97
-7.33
-9.01
-10.06
-10.65
-10.94
-11.16
-11.59
-12.19
-12.86
-13.53
-14.12
-14.56
-14.66
-14.35
-13.77
-13.23
-12.49
-11.22
-9.18
-6.47
-3.44
-0.42
2.28
4.49
6.25
8.51
12.32
18.21
25.98
35.02
44.78
54.92
65.39
72.01
72.02
65.63
56.09
46.97
40.12
35.61
32.51
29.73
26.36
22.66
19.16
16.21
13.74
11.57
9.67
8.08
6.71
5.16
3.47
1.74
0.10
-1.22
-1.75
-0.97
1.29
4.76
8.02
10.06
10.36
9.00
6.57
4.01
2.09
1.14
0.84
0.50
-0.35
-1.98
-4.42
-7.54
-11.06
-14.57
-17.46
-19.19
-19.39
-17.84
-14.76
-10.69
-6.26
-1.99
1.76
5.57
9.61
13.93
18.49
23.05
27.29
30.91
33.80
36.07
37.98
39.62
40.89
41.52
41.07
39.25
36.19
32.36
28.40
24.70
20.99
16.48
10.29
1.87
-8.69
-20.58
-32.67
-43.85
-53.37
-60.93
-66.53
-70.31
-72.53
-73.48
-73.55
-73.17
-72.72
-72.49
-72.62
-73.00
-73.35
-73.28
-72.39
-70.46
-67.43
-63.43
-58.63
-53.14
-46.88
-39.72
-31.57
-22.50
-12.79
-2.83
6.97
16.27
24.78
32.18
38.09
42.12
43.97
43.68
41.64
38.62
35.51
33.19
32.27
33.04
35.50
39.43
44.63
50.90
58.15
66.26
75.01
83.80
91.67
97.34
99.52
97.47
91.33
82.34
72.42
63.51
56.70
51.75
47.21
41.00
31.29
17.04
-1.65
-23.61
-46.54
-67.11
-81.30
-85.28
-76.70
-56.08
-27.10
4.29
32.09
52.46
64.79
71.08
74.04
75.26
74.57
70.92
63.90
54.82
46.39
41.21
40.12
41.55
42.26
39.18
30.96
18.66
4.87
-7.72
-17.67
-25.17
-31.54
-38.38
-46.60
-56.16
-66.26
-75.77
-83.76
-89.77
-93.83
-96.35
-97.88
-98.96
-99.89
-100.72
-101.41
-101.95
-102.54
-103.60
-105.51
-108.31
-111.60
-114.59
-116.40
-116.44
-114.58
-111.09
-106.38
-100.68
-93.98
-86.08
-76.98
-66.96
-56.63
-46.67
-37.47
-28.94
-20.45
-11.11
-0.15
12.78
27.44
43.07
58.68
73.27
86.07
96.50
104.08
108.33
108.82
105.39
98.49
89.21
79.15
69.82
62.17
56.38
52.03
48.48
45.20
41.83
38.01
33.26
27.10
19.33
10.34
1.16
-6.99
-13.13
-17.07
-19.42
-21.24
-23.54
-26.85
-30.99
-35.26
-38.70
-40.47
-40.08
-37.60
-33.61
-29.04
-24.93
-22.02
-20.63
-20.56
-21.25
-21.98
-22.06
-20.96
-18.39
-14.28
-8.72
-2.01
5.38
12.82
19.62
25.10
28.77
30.45
30.36
29.01
27.07
25.09
23.38
21.97
20.72
19.47
18.19
16.90
15.68
14.51
13.36
12.18
10.98
9.79
8.65
7.54
6.40
5.18
3.86
2.45
0.95
-0.67
-2.45
-4.40
-6.46
-8.55
-10.60
-12.62
-14.70
-16.86
-18.99
-20.80
-21.93
-22.06
-21.11
-19.22
-16.60
-13.48
-9.99
-6.24
-2.39
1.27
4.39
6.65
7.89
8.21
7.92
7.50
7.42
7.99
9.30
11.23
13.52
15.87
18.17
20.45
22.93
25.81
29.10
32.54
35.56
37.44
37.53
35.43
31.08
24.79
17.10
8.66
0.06
-8.25
-15.89
-22.53
-27.83
-31.50
-33.41
-33.70
-32.86
-31.57
-30.56
-30.39
-31.27
-33.03
-35.17
-37.06
-38.03
-37.57
-35.45
-31.72
-26.68
-20.74
-14.29
-7.62
-0.95
5.58
11.80
17.59
22.87
27.66
32.02
35.95
39.38
42.15
44.13
45.26
45.65
45.51
45.05
44.35
43.37
41.94
39.93
37.31
34.20
30.79
27.26
23.72
20.25
16.92
13.86
11.21
9.04
7.29
5.75
4.10
2.06
-0.46
-3.40
-6.51
-9.57
-12.42
-15.00
-17.30
-19.29
-20.96
-22.32
-23.37
-24.09
-24.41
-24.12
-22.95
-20.75
-17.50
-13.43
-8.91
-4.30
0.12
4.18
7.76
10.79
13.17
14.81
15.66
15.73
15.07
13.77
11.93
9.70
7.28
4.92
2.85
1.24
0.13
-0.54
-0.93
-1.21
-1.49
-1.86
-2.33
-2.89
-3.50
-4.18
-5.02
-6.07
-7.40
-8.99
-10.78
-12.67
-14.58
-16.43
-18.15
-19.69
-20.99
-22.03
-22.80
-23.38
-23.94
-24.63
-25.57
-26.71
-27.87
-28.69
-28.72
-27.58
-25.10
-21.40
-16.89
-12.15
-7.74
-4.06
-1.21
0.95
2.64
4.01
5.02
5.51
5.30
4.38
2.93
1.31
-0.11
-1.12
-1.67
-1.88
-1.93
-1.94
-1.98
-2.05
-2.18
-2.38
-2.71
-3.18
-3.78
-4.50
-5.38
-6.47
-7.87
-9.60
-11.60
-13.66
-15.51
-16.91
-17.74
-18.08
-18.15
-18.21
-18.48
-19.10
-20.01
-21.01
-21.69
-21.55
-20.11
-17.13
-12.71
-7.32
-1.63
3.66
8.15
11.75
14.62
17.02
19.10
20.87
22.22
23.06
23.36
23.18
22.62
21.78
20.74
19.56
18.26
16.93
15.62
14.41
13.31
12.33
11.39
10.42
9.40
8.33
7.27
6.30
5.41
4.60
3.81
3.00
2.13
1.16
0.02
-1.30
-2.83
-4.48
-6.11
-7.59
-8.93
-10.29
-11.90
-13.88
-16.06
-17.93
-18.85
-18.28
-16.06
-12.48
-8.11
-3.60
0.56
4.14
7.15
9.68
11.83
13.67
15.22
16.47
17.42
18.03
18.29
18.19
17.81
17.29
16.78
16.46
16.40
16.59
16.90
17.20
17.34
17.25
16.90
16.31
15.47
14.33
12.86
11.01
8.80
6.30
3.62
0.88
-1.78
-4.28
-6.54
-8.60
-10.54
-12.53
-14.68
-16.99
-19.31
-21.34
-22.70
-23.13
-22.47
-20.75
-18.14
-14.92
-11.36
-7.76
-4.34
-1.21
1.57
4.00
6.03
7.58
8.50
8.70
8.17
7.10
5.81
4.66
3.92
3.65
3.77
4.12
4.50
4.83
5.10
5.35
5.61
5.85
5.94
5.74
5.17
4.28
3.25
2.27
1.49
0.88
0.35
-0.25
-0.99
-1.84
-2.76
-3.73
-4.74
-5.81
-6.87
-7.66
-7.86
-7.18
-5.49
-2.94
0.18
3.44
6.54
9.28
11.58
13.47
14.98
16.16
17.00
17.47
17.45
16.88
15.76
14.24
12.56
11.00
9.78
8.98
8.62
8.61
8.85
9.23
9.61
9.82
9.61
8.87
7.49
5.60
3.41
1.18
-0.89
-2.66
-4.15
-5.43
-6.59
-7.66
-8.69
-9.76
-10.93
-12.35
-14.14
-16.27
-18.62
-20.89
-22.78
-23.97
-24.26
-23.52
-21.76
-19.08
-15.66
-11.84
-7.95
-4.31
-1.10
1.62
3.90
5.80
7.31
8.36
8.89
8.95
8.62
8.10
7.50
6.94
6.45
6.08
5.87
5.87
6.06
6.35
6.62
6.71
6.56
6.12
5.40
4.43
3.19
1.73
0.10
-1.58
-3.18
-4.61
-5.85
-6.91
-7.88
-8.81
-9.74
-10.71
-11.74
-12.78
-13.73
-14.40
-14.51
-13.82
-12.23
-9.79
-6.78
-3.50
-0.25
2.77
5.43
7.66
9.44
10.74
11.60
12.13
12.46
12.64
12.65
12.36
11.68
10.65
9.53
8.67
8.38
8.74
9.56
10.45
11.05
11.16
10.80
10.14
9.35
8.50
7.51
6.26
4.66
2.77
0.70
-1.36
-3.31
-5.09
-6.75
-8.26
-9.56
-10.57
-11.21
-11.54
-11.70
-11.91
-12.27
-12.69
-12.92
-12.59
-11.40
-9.30
-6.45
-3.22
-0.05
2.74
4.98
6.68
7.95
8.88
9.51
9.81
9.70
9.13
8.17
7.00
5.88
5.07
4.72
4.83
5.22
5.69
6.04
6.19
6.13
5.93
5.58
5.04
4.24
3.16
1.89
0.58
-0.54
-1.35
-1.85
-2.19
-2.58
-3.18
-4.05
-5.10
-6.20
-7.25
-8.30
-9.46
-10.90
-12.56
-14.12
-15.04
-14.77
-13.05
-10.04
-6.30
-2.51
0.83
3.58
5.93
8.19
10.51
12.74
14.47
15.27
14.85
13.32
11.07
8.66
6.56
5.08
4.25
3.91
3.85
3.87
3.89
3.86
3.80
3.65
3.36
2.85
2.10
1.06
-0.21
-1.64
-3.17
-4.71
-6.17
-7.49
-8.66
-9.67
-10.57
-11.39
-12.24
-13.21
-14.33
-15.57
-16.71
-17.49
-17.56
-16.70
-14.85
-12.13
-8.80
-5.16
-1.55
1.80
4.67
6.96
8.67
9.82
10.47
10.61
10.18
9.14
7.61
5.86
4.28
3.21
2.79
2.87
3.11
3.19
2.94
2.43
1.82
1.27
0.73
0.08
-0.86
-2.14
-3.65
-5.16
-6.47
-7.48
-8.26
-8.95
-9.74
-10.79
-12.16
-13.80
-15.57
-17.25
-18.65
-19.59
-19.98
-19.75
-18.82
-17.05
-14.32
-10.64
-6.18
-1.37
3.21
7.04
9.80
11.46
12.28
12.64
12.87
13.09
13.19
12.96
12.23
11.06
9.75
8.65
8.01
7.79
7.75
7.55
6.96
5.98
4.79
3.63
2.63
1.72
0.67
-0.70
-2.43
-4.34
-6.15
-7.58
-8.53
-9.07
-9.44
-9.92
-10.69
-11.87
-13.47
-15.41
-17.53
-19.53
-20.96
-21.35
-20.34
-17.85
-14.19
-9.92
-5.72
-2.12
0.62
2.56
3.88
4.79
5.38
5.63
5.44
4.76
3.61
2.16
0.65
-0.72
-1.82
-2.69
-3.47
-4.34
-5.40
-6.63
-7.92
-9.19
-10.45
-11.86
-13.63
-15.94
-18.80
-22.06
-25.50
-28.89
-32.09
-35.03
-37.68
-40.04
-42.18
-44.24
-46.40
-48.72
-51.02
-52.84
-53.54
-52.63
-49.97
-45.87
-40.97
-35.95
-31.24
-26.93
-22.87
-18.82
-14.68
-10.47
-6.32
-2.30
1.65
5.73
10.09
14.76
19.51
23.91
27.49
29.98
31.42
32.13
32.65
33.40
34.59
36.15
37.78
39.13
39.93
40.05
39.51
38.44
36.97
35.22
33.21
30.87
28.08
24.71
20.74
16.22
11.32
6.23
1.22
-3.43
-7.38
-10.34
-12.10
-12.69
-12.37
-11.51
-10.43
-9.31
-8.06
-6.52
-4.52
-2.09
0.58
3.20
5.53
7.45
9.02
10.40
11.79
13.29
14.86
16.33
17.50
18.23
18.56
18.67
18.74
18.83
18.81
18.38
17.28
15.37
12.72
9.56
6.15
2.70
-0.72
-4.12
-7.56
-10.99
-14.28
-17.13
-19.19
-20.15
-19.89
-18.58
-16.54
-14.11
-11.45
-8.52
-5.16
-1.32
2.83
6.90
10.44
13.11
14.79
15.60
15.79
15.62
15.29
14.95
14.67
14.46
14.26
13.98
13.59
13.14
12.75
12.49
12.35
12.21
11.92
11.39
10.60
9.61
8.51
7.34
6.11
4.81
3.42
1.95
0.38
-1.27
-2.98
-4.62
-6.01
-6.88
-7.00
-6.23
-4.60
-2.27
0.50
3.42
6.26
8.89
11.36
13.74
16.11
18.42
20.48
21.97
22.69
22.57
21.80
20.77
19.89
19.44
19.48
19.88
20.43
21.03
21.68
22.43
23.33
24.27
25.08
25.55
25.55
25.12
24.38
23.48
22.47
21.31
19.85
17.99
15.72
13.10
10.21
7.15
4.00
0.84
-2.21
-5.03
-7.59
-9.89
-11.96
-13.75
-15.08
-15.73
-15.53
-14.55
-13.04
-11.38
-9.89
-8.64
-7.55
-6.52
-5.62
-5.11
-5.35
-6.56
-8.61
-11.08
-13.34
-14.91
-15.62
-15.62
-15.24
-14.78
-14.40
-14.03
-13.52
-12.80
-11.90
-10.98
-10.24
-9.76
-9.53
-9.45
-9.45
-9.51
-9.63
-9.75
-9.76
-9.48
-8.74
-7.52
-5.97
-4.33
-2.74
-1.22
0.46
2.64
5.56
9.28
13.59
18.15
22.54
26.47
29.80
32.61
35.11
37.56
40.17
42.91
45.58
47.87
49.52
50.46
50.89
51.19
51.70
52.61
53.82
54.96
55.57
55.13
53.27
49.79
44.78
38.55
31.65
24.68
18.20
12.61
8.05
4.55
1.96
0.08
-1.39
-2.77
-4.42
-6.60
-9.42
-12.80
-16.47
-20.09
-23.26
-25.67
-27.12
-27.59
-27.20
-26.13
-24.60
-22.73
-20.61
-18.34
-16.06
-13.93
-12.07
-10.49
-9.15
-7.98
-7.02
-6.41
-6.30
-6.76
-7.68
-8.75
-9.67
-10.19
-10.21
-9.73
-8.80
-7.50
-5.98
-4.43
-3.14
-2.37
-2.28
-2.90
-4.10
-5.66
-7.37
-9.06
-10.63
-12.08
-13.44
-14.73
-15.97
-17.13
-18.18
-19.07
-19.83
-20.49
-21.08
-21.66
-22.20
-22.69
-23.03
-23.06
-22.57
-21.38
-19.38
-16.63
-13.36
-9.90
-6.54
-3.42
-0.54
2.12
4.56
6.64
8.12
8.81
8.59
7.54
5.87
3.88
1.92
0.21
-1.10
-2.07
-2.86
-3.73
-4.89
-6.39
-8.15
-9.99
-11.73
-13.32
-14.85
-16.47
-18.23
-20.13
-22.01
-23.69
-25.06
-26.18
-27.21
-28.40
-29.91
-31.75
-33.77
-35.74
-37.40
-38.56
-39.03
-38.63
-37.12
-34.31
-30.17
-24.91
-18.98
-12.91
-7.18
-2.03
2.47
6.42
9.89
12.88
15.31
17.09
18.14
18.45
18.10
17.21
15.97
14.57
13.17
11.89
10.81
9.96
9.40
9.19
9.34
9.72
10.09
10.13
9.62
8.50
6.97
5.30
3.74
2.41
1.27
0.23
-0.74
-1.57
-2.16
-2.46
-2.55
-2.61
-2.89
-3.50
-4.35
-5.15
-5.45
-4.89
-3.32
-0.92
1.90
4.62
6.86
8.52
9.80
11.02
12.44
14.07
15.62
16.64
16.77
15.89
14.26
12.35
10.67
9.57
9.13
9.13
9.31
9.37
9.19
8.75
8.15
7.50
6.86
6.23
5.52
4.63
3.50
2.14
0.75
-0.44
-1.24
-1.58
-1.62
-1.62
-1.83
-2.39
-3.24
-4.25
-5.25
-6.10
-6.69
-6.87
-6.49
-5.40
-3.59
-1.20
1.49
4.16
6.64
8.86
10.89
12.79
14.53
15.92
16.73
16.78
16.05
14.69
12.95
11.13
9.48
8.13
7.10
6.29
5.63
5.01
4.37
3.63
2.73
1.53
-0.07
-2.14
-4.59
-7.22
-9.69
-11.66
-12.89
-13.35
-13.27
-12.99
-12.92
-13.27
-14.02
-14.94
-15.67
-15.95
-15.66
-14.87
-13.67
-12.13
-10.20
-7.81
-4.97
-1.84
1.26
3.96
5.99
7.22
7.72
7.66
7.29
6.84
6.46
6.23
6.11
6.00
5.78
5.36
4.72
3.93
3.08
2.27
1.54
0.89
0.28
-0.33
-0.98
-1.70
-2.51
-3.47
-4.56
-5.71
-6.79
-7.69
-8.32
-8.72
-9.04
-9.46
-10.15
-11.06
-11.96
-12.42
-12.05
-10.62
-8.24
-5.27
-2.21
0.52
2.75
4.54
6.09
7.55
8.87
9.82
10.16
9.77
8.83
7.73
6.91
6.62
6.85
7.33
7.70
7.72
7.35
6.79
6.28
6.00
5.93
5.86
5.56
4.85
3.73
2.39
1.07
-0.08
-1.03
-1.89
-2.83
-3.91
-5.08
-6.16
-6.99
-7.47
-7.64
-7.60
-7.42
-7.06
-6.32
-5.00
-2.92
-0.12
3.14
6.44
9.30
11.29
12.12
11.61
9.73
6.51
2.15
-3.01
-8.35
-13.13
-16.60
-18.29
-18.16
-16.63
-14.42
-12.21
-10.48
-9.32
-8.62
-8.14
-7.77
-7.52
-7.44
-7.57
-7.84
-8.16
-8.47
-8.84
-9.39
-10.23
-11.41
-12.83
-14.38
-15.95
-17.52
-19.07
-20.53
-21.68
-22.22
-21.86
-20.46
-18.17
-15.32
-12.31
-9.44
-6.86
-4.60
-2.70
-1.30
-0.63
-0.87
-2.02
-3.81
-5.79
-7.55
-8.83
-9.66
-10.27
-10.90
-11.77
-13.00
-14.74
-17.16
-20.46
-24.72
-29.75
-35.03
-39.78
-43.22
-44.75
-44.17
-41.64
-37.60
-32.64
-27.36
-22.31
-17.91
-14.38
-11.68
-9.48
-7.21
-4.28
-0.28
4.80
10.63
16.67
22.43
27.66
32.39
36.72
40.72
44.30
47.18
49.12
49.95
49.58
47.95
45.00
40.79
35.59
30.11
25.34
22.39
22.06
24.53
29.28
35.23
41.12
45.88
48.91
50.10
49.65
47.92
45.25
41.95
38.30
34.59
31.05
27.80
24.74
21.60
18.09
14.02
9.57
5.21
1.64
-0.55
-0.99
0.22
2.68
5.79
8.96
11.77
14.04
15.78
17.11
18.12
18.84
19.20
19.02
18.18
16.61
14.45
12.02
9.77
8.23
7.80
8.64
10.58
13.19
15.86
18.07
19.61
20.65
21.68
23.16
25.29
27.75
29.82
30.77
30.25
28.47
26.11
23.94
22.43
21.58
21.10
20.73
20.45
20.50
21.05
21.89
22.33
21.41
18.37
12.99
5.71
-2.70
-11.42
-19.88
-27.73
-34.69
-40.41
-44.45
-46.68
-47.56
-48.35
-50.71
-55.97
-64.47
-75.19
-86.08
-94.91
-100.22
-101.96
-101.28
-99.94
-99.27
-99.57
-99.92
-98.73
-94.52
-86.62
-75.50
-62.62
-50.00
-39.52
-32.41
-28.90
-28.19
-28.65
-28.41
-26.00
-20.79
-13.24
-4.62
3.52
9.94
13.96
15.51
14.78
12.09
7.77
2.33
-3.42
-8.37
-11.43
-11.96
-10.04
-6.52
-2.71
0.13
1.15
0.19
-2.26
-5.27
-7.81
-9.13
-8.96
-7.69
-6.10
-5.16
-5.53
-7.39
-10.38
-13.85
-17.28
-20.42
-23.37
-26.25
-28.97
-31.13
-32.16
-31.69
-29.78
-26.91
-23.68
-20.47
-17.26
-13.76
-9.73
-5.32
-1.12
2.11
3.80
3.97
3.23
2.48
2.50
3.66
5.74
8.14
10.21
11.39
11.47
10.49
8.74
6.74
5.15
4.70
5.93
8.99
13.36
18.07
21.96
24.07
24.06
22.26
19.51
16.74
14.68
13.62
13.39
13.56
13.61
13.14
12.06
10.50
8.83
7.47
6.70
6.67
7.34
8.61
10.33
12.39
14.68
17.07
19.43
21.61
23.48
25.00
26.18
27.08
27.75
28.28
28.74
29.20
29.70
30.22
30.67
30.99
31.17
31.28
31.45
31.76
32.18
32.59
32.89
33.11
33.41
33.97
34.85
35.90
36.81
37.30
37.28
36.88
36.40
36.13
36.28
36.90
37.93
39.13
40.08
40.06
38.29
34.28
28.24
21.21
14.81
10.50
8.89
9.35
10.29
9.82
6.59
0.34
-8.08
-17.23
-25.62
-32.05
-35.78
-36.29
-33.28
-26.78
-17.40
-6.37
4.59
13.74
19.84
22.45
21.95
19.19
15.10
10.38
5.49
0.75
-3.52
-6.96
-9.34
-10.60
-10.93
-10.61
-9.84
-8.59
-6.56
-3.34
1.30
7.20
13.76
20.17
25.75
30.31
34.21
38.24
43.04
48.70
54.58
59.44
61.96
61.23
57.09
50.07
41.25
31.95
23.43
16.70
12.33
10.27
10.03
10.82
11.80
12.35
12.07
10.78
8.54
5.71
3.10
1.79
2.80
6.45
11.95
17.50
20.94
20.61
15.95
7.51
-3.48
-15.79
-28.48
-40.77
-51.65
-59.75
-63.62
-62.35
-56.20
-46.74
-36.35
-27.38
-21.33
-18.53
-18.42
-20.04
-22.63
-25.76
-29.23
-32.76
-35.90
-38.02
-38.60
-37.50
-35.02
-31.79
-28.51
-25.70
-23.51
-21.74
-20.00
-17.95
-15.60
-13.37
-12.00
-12.22
-14.31
-17.92
-22.08
-25.69
-27.92
-28.56
-27.98
-26.74
-25.20
-23.31
-20.77
-17.47
-13.83
-10.86
-9.79
-11.52
-16.18
-23.00
-30.58
-37.34
-41.93
-43.57
-42.20
-38.39
-33.05
-27.13
-21.37
-16.27
-12.23
-9.62
-8.60
-8.93
-9.84
-10.22
-9.11
-6.18
-2.04
2.06
4.88
5.77
4.94
3.15
1.29
-0.14
-1.08
-1.77
-2.46
-3.19
-3.80
-4.02
-3.40
-1.55
1.77
6.51
12.16
17.90
22.74
25.89
26.87
25.72
22.91
19.22
15.46
12.21
9.73
7.97
6.75
5.93
5.48
5.38
5.61
6.08
6.59
7.05
7.57
8.43
9.90
11.89
13.94
15.52
16.20
15.70
14.18
12.21
10.49
9.54
9.36
9.48
9.58
9.52
9.06
7.99
6.10
3.16
-0.96
-6.27
-12.50
-18.61
-23.71
-27.94
-32.46
-38.61
-47.21
-57.94
-69.37
-79.50
-85.41
-84.60
-76.05
-60.08
-37.73
-10.46
20.21
52.41
78.96
94.17
97.99
93.99
85.56
74.99
63.90
53.91
46.56
41.49
37.91
33.57
25.44
11.05
-9.40
-34.46
-60.45
-82.37
-97.32
-103.01
-99.15
-87.14
-69.66
-49.77
-30.50
-14.16
-1.30
7.34
13.82
20.27
29.87
45.35
67.45
94.21
116.03
135.12
146.20
146.70
136.20
116.44
90.24
60.83
31.58
5.86
-14.39
-26.84
-30.36
-27.79
-23.73
-21.96
-23.79
-28.29
-33.20
-35.59
-34.42
-29.49
-21.53
-11.37
-0.28
10.15
18.28
22.95
24.38
23.22
21.51
20.90
23.43
30.25
41.17
54.48
67.52
77.96
84.24
86.39
85.49
83.19
80.21
76.38
71.04
64.26
57.51
53.03
52.60
56.35
64.58
75.43
86.33
95.09
101.06
105.25
109.34
114.54
120.87
127.45
132.52
134.49
132.01
124.75
113.30
98.58
81.34
62.16
41.59
19.94
-2.39
-25.84
-49.84
-72.87
-93.77
-112.58
-130.44
-148.81
-169.14
-192.39
-220.98
-255.29
-293.35
-332.73
-371.47
-407.30
-437.06
-457.14
-464.45
-460.46
-445.52
-418.31
-378.59
-329.31
-275.56
-223.12
-177.44
-142.77
-125.40
-125.15
-134.63
-144.16
-146.29
-136.77
-114.25
-80.18
-12.30
81.62
171.37
233.09
264.36
274.60
274.05
269.41
263.48
256.03
242.56
220.40
191.77
160.53
129.10
98.99
71.60
48.32
29.99
13.28
-0.38
-8.34
-9.17
-4.82
0.66
3.23
0.56
-7.02
-18.67
-30.46
-37.06
-35.11
-25.77
-13.65
-4.06
-0.12
-0.88
-2.42
2.00
18.91
51.14
95.67
144.63
188.32
218.51
231.22
226.49
207.75
179.52
145.38
107.27
66.47
25.15
-13.04
-43.25
-62.17
-69.53
-68.22
-62.74
-57.35
-54.77
-55.78
-59.85
-64.80
-69.22
-72.28
-73.17
-70.82
-64.52
-54.67
-42.85
-31.27
-19.98
-9.00
2.31
15.98
35.52
64.35
103.95
152.30
203.28
250.00
283.27
295.04
282.30
249.21
205.16
161.27
126.39
89.72
48.68
5.25
-37.19
-75.91
-107.46
-128.72
-138.49
-138.78
-134.00
-126.32
-117.34
-107.36
-95.49
-80.12
-62.07
-44.13
-29.47
-19.86
-12.84
-5.36
4.96
15.07
23.78
29.33
30.39
26.71
19.27
10.79
3.17
-2.83
-6.97
-8.64
-7.85
-4.97
-0.66
4.29
9.59
14.10
15.89
12.90
4.39
-9.06
-25.00
-40.02
-51.17
-57.00
-58.49
-57.97
-57.61
-57.92
-58.22
-57.29
-54.42
-50.32
-45.80
-41.88
-38.87
-36.19
-32.74
-27.81
-21.26
-13.61
-5.67
1.90
8.55
14.01
18.37
21.58
23.26
22.91
20.32
15.85
10.62
6.10
3.64
4.31
7.97
13.24
18.09
20.66
19.88
16.02
10.42
5.10
2.61
4.51
10.79
20.10
30.75
40.06
46.11
48.20
44.19
35.39
25.49
17.63
12.19
7.64
2.54
-2.96
-7.28
-8.64
-5.71
1.00
9.35
16.92
22.19
24.77
25.29
24.71
23.64
22.61
21.41
19.37
15.93
11.13
5.74
0.97
-1.04
1.49
9.82
23.85
42.07
62.03
81.46
98.92
113.98
126.70
136.51
141.92
140.60
130.44
110.78
82.98
49.99
15.23
-18.64
-50.16
-78.62
-103.37
-123.47
-137.96
-146.56
-150.16
-150.66
-150.01
-149.41
-148.72
-146.93
-142.98
-136.60
-128.56
-120.16
-112.44
-105.56
-98.74
-90.86
-81.21
-69.92
-57.94
-46.46
-36.30
-27.65
-20.12
-13.21
-6.65
-0.51
5.01
9.86
14.25
18.60
23.18
27.92
32.34
35.88
38.14
39.19
39.44
39.41
39.45
39.48
39.14
37.94
35.56
31.96
27.40
22.36
17.37
12.95
9.44
7.00
5.56
4.90
4.74
4.83
5.04
5.31
5.60
5.83
5.85
5.48
4.64
3.45
2.21
1.30
0.98
1.33
2.23
3.57
5.32
7.67
10.94
15.30
20.67
26.58
32.33
37.12
40.41
41.92
41.78
40.36
38.22
36.00
34.29
33.47
33.68
34.69
36.02
37.11
37.51
36.98
35.62
33.72
31.65
29.72
28.02
26.38
24.43
21.73
17.94
12.96
6.89
0.03
-7.28
-14.71
-21.98
-28.83
-34.98
-40.17
-44.23
-47.15
-49.11
-50.37
-51.08
-51.22
-50.55
-48.83
-45.96
-42.04
-37.37
-32.33
-27.32
-22.70
-18.79
-15.84
-13.94
-13.02
-12.76
-12.81
-12.91
-13.16
-13.90
-15.57
-18.38
-22.18
-26.47
-30.50
-33.60
-35.40
-35.96
-35.57
-34.67
-33.54
-32.33
-31.07
-29.62
-27.79
-25.51
-22.96
-20.31
-17.67
-15.06
-12.50
-10.23
-8.36
-6.91
-5.86
-5.17
-4.67
-4.08
-3.13
-1.61
0.34
2.84
6.16
10.54
15.96
22.43
30.06
39.10
50.53
62.84
73.45
80.47
83.24
81.63
75.86
66.59
54.90
42.17
29.27
16.96
5.71
-4.33
-13.22
-20.87
-26.85
-31.37
-33.75
-34.02
-32.51
-29.81
-26.58
-23.38
-20.44
-17.42
-13.64
-8.39
-1.66
6.17
14.28
21.61
27.13
29.50
28.10
23.72
18.62
15.17
14.93
17.85
22.46
26.54
28.21
26.79
22.81
17.47
11.66
5.65
-0.95
-8.63
-17.69
-27.82
-37.76
-45.44
-48.51
-45.09
-34.43
-17.38
3.63
24.73
41.34
49.37
46.50
33.41
14.19
-4.51
-16.79
-18.80
-10.82
2.79
15.83
23.30
23.84
19.49
13.71
8.68
4.06
-2.47
-13.10
-27.76
-43.67
-56.24
-61.64
-58.67
-49.10
-36.43
-24.42
-15.75
-11.31
-10.31
-10.28
-8.24
-1.78
10.03
26.35
44.93
63.30
80.32
93.52
102.10
106.31
106.64
103.18
95.54
83.34
66.92
47.78
28.19
10.87
-2.38
-11.18
-16.35
-19.27
-21.04
-22.10
-22.39
-21.71
-19.86
-17.11
-14.24
-12.12
-11.33
-11.87
-13.19
-14.55
-15.31
-15.10
-14.00
-12.52
-11.34
-11.09
-12.05
-14.03
-16.44
-18.51
-19.43
-18.81
-16.73
-13.67
-10.25
-6.90
-3.76
-0.70
2.47
5.88
9.39
12.66
15.23
16.63
16.53
14.86
11.84
7.97
4.00
0.72
-1.15
-1.26
0.40
3.43
7.20
11.01
14.21
16.31
16.98
16.10
13.77
10.35
6.38
2.49
-0.74
-2.96
-4.13
-4.57
-4.88
-5.81
-8.05
-12.02
-17.63
-24.23
-30.68
-35.67
-38.07
-37.38
-33.84
-28.39
-22.25
-16.50
-11.69
-7.82
-4.54
-1.43
1.69
4.73
7.40
9.45
10.80
11.56
11.89
11.83
11.27
10.04
8.04
5.45
2.72
0.33
-1.36
-2.34
-2.88
-3.46
-4.39
-5.76
-7.36
-8.81
-9.81
-10.22
-10.17
-9.97
-10.02
-10.68
-12.19
-14.60
-17.74
-21.23
-24.51
-26.94
-27.93
-27.09
-24.38
-20.20
-15.21
-10.21
-5.86
-2.47
-0.02
1.74
3.09
4.11
4.64
4.47
3.40
1.44
-1.16
-4.07
-7.00
-9.80
-12.49
-15.18
-17.96
-20.86
-23.78
-26.57
-29.14
-31.49
-33.69
-35.84
-38.02
-40.32
-42.90
-45.96
-49.63
-53.74
-57.61
-60.07
-59.80
-55.79
-47.80
-36.42
-22.70
-7.72
7.80
23.36
38.51
52.49
64.37
73.36
79.26
82.45
83.65
83.40
81.70
78.16
72.33
64.21
54.33
43.44
32.17
20.88
9.73
-0.95
-10.59
-18.47
-24.08
-27.34
-28.67
-28.77
-28.32
-27.73
-27.24
-26.87
-26.58
-26.16
-25.31
-23.75
-21.39
-18.57
-15.91
-14.04
-13.26
-13.38
-13.83
-13.97
-13.37
-11.91
-9.68
-6.78
-3.23
1.02
5.98
11.48
17.18
22.75
27.92
32.66
37.12
41.51
45.71
49.10
50.53
48.62
42.42
31.92
18.34
3.76
-9.51
-19.67
-25.81
-27.85
-26.28
-21.83
-15.38
-8.05
-1.14
4.06
6.66
6.49
4.06
0.26
-4.10
-8.57
-12.97
-17.12
-20.65
-22.93
-23.39
-21.84
-18.66
-14.67
-10.78
-7.67
-5.59
-4.36
-3.65
-3.03
-2.18
-0.74
1.68
5.41
10.50
16.53
22.53
27.20
29.44
28.79
25.59
20.87
15.86
11.51
8.28
6.21
5.18
5.14
6.15
8.18
10.84
13.41
14.94
14.70
12.43
8.44
3.44
-1.72
-6.36
-10.01
-12.44
-13.51
-13.17
-11.50
-8.92
-6.15
-4.14
-3.72
-5.21
-8.27
-11.93
-14.95
-16.26
-15.31
-12.22
-7.63
-2.43
2.70
7.41
11.70
15.71
19.41
22.45
24.20
24.05
21.76
17.64
12.58
7.65
3.83
1.62
1.04
1.76
3.35
5.42
7.68
9.83
11.59
12.54
12.33
10.78
7.93
4.15
0.07
-3.62
-6.33
-7.75
-7.92
-7.18
-5.98
-4.68
-3.44
-2.25
-1.08
-0.03
0.53
0.19
-1.43
-4.34
-8.14
-11.98
-14.89
-15.99
-14.84
-11.54
-6.68
-1.12
4.33
9.07
12.96
16.17
19.00
21.71
24.31
26.62
28.33
29.25
29.40
29.02
28.44
27.92
27.57
27.37
27.28
27.25
27.34
27.52
27.67
27.56
26.99
25.78
23.83
20.97
16.83
11.01
3.26
-6.21
-16.67
-26.99
-36.05
-42.99
-47.35
-49.05
-48.10
-44.60
-38.67
-30.70
-21.38
-11.57
-2.22
5.99
12.64
17.59
20.93
22.93
23.95
24.49
25.13
26.39
28.71
32.24
36.84
42.13
47.67
53.16
58.48
63.69
68.66
72.95
75.70
75.96
73.05
66.98
58.62
49.39
40.70
33.45
27.74
22.94
18.07
12.29
5.21
-2.96
-11.58
-19.92
-27.49
-34.18
-40.30
-46.30
-52.59
-59.24
-65.94
-72.03
-76.66
-79.06
-78.77
-75.83
-70.76
-64.46
-58.01
-52.34
-48.10
-45.50
-44.41
-44.41
-44.92
-45.30
-44.92
-43.30
-40.19
-35.70
-30.24
-24.47
-19.11
-14.73
-11.58
-9.59
-8.41
-7.60
-6.76
-5.72
-4.60
-3.66
-3.19
-3.31
-3.89
-4.62
-5.12
-5.15
-4.70
-3.96
-3.24
-2.84
-2.93
-3.51
-4.44
-5.55
-6.64
-7.58
-8.35
-8.98
-9.56
-10.12
-10.69
-11.20
-11.62
-12.00
-12.39
-12.91
-13.61
-14.50
-15.42
-16.17
-16.49
-16.17
-15.08
-13.24
-10.80
-7.95
-4.93
-1.87
1.14
4.10
6.95
9.56
11.75
13.32
14.18
14.33
13.96
13.31
12.60
12.01
11.54
11.13
10.61
9.90
9.03
8.15
7.47
7.12
7.07
7.10
6.94
6.36
5.37
4.14
2.96
2.02
1.29
0.60
-0.31
-1.60
-3.27
-5.09
-6.83
-8.26
-9.30
-10.05
-10.66
-11.34
-12.16
-13.18
-14.45
-15.94
-17.59
-19.17
-20.28
-20.43
-19.23
-16.55
-12.67
-8.17
-3.74
0.10
3.11
5.38
7.16
8.72
10.19
11.52
12.57
13.18
13.27
12.85
12.11
11.31
10.72
10.45
10.46
10.60
10.65
10.48
10.11
9.73
9.51
9.52
9.64
9.62
9.18
8.20
6.74
5.10
3.56
2.32
1.36
0.50
-0.52
-1.82
-3.34
-4.84
-6.10
-7.02
-7.70
-8.38
-9.27
-10.45
-11.86
-13.38
-14.93
-16.50
-18.12
-19.72
-21.03
-21.62
-21.09
-19.17
-15.93
-11.75
-7.16
-2.74
1.12
4.23
6.60
8.37
9.68
10.57
11.00
10.87
10.15
8.97
7.62
6.45
5.72
5.49
5.60
5.82
5.98
6.00
5.94
5.88
5.79
5.55
5.03
4.15
3.03
1.87
0.90
0.26
-0.17
-0.61
-1.40
-2.70
-4.46
-6.38
-8.14
-9.61
-10.83
-12.13
-13.83
-16.04
-18.66
-21.33
-23.63
-25.24
-25.95
-25.61
-24.21
-21.75
-18.39
-14.42
-10.31
-6.53
-3.44
-1.24
0.06
0.50
0.18
-0.70
-1.82
-2.81
-3.36
-3.34
-2.83
-2.11
-1.58
-1.54
-2.10
-3.09
-4.29
-5.52
-6.70
-7.87
-9.17
-10.88
-13.25
-16.25
-19.58
-22.92
-26.21
-29.41
-32.45
-35.15
-37.38
-39.12
-40.29
-40.89
-41.53
-43.21
-46.67
-51.80
-57.58
-62.55
-65.18
-63.83
-57.39
-46.32
-32.64
-18.91
-7.05
2.17
8.98
14.23
19.64
27.05
37.31
50.38
66.19
85.27
108.22
134.89
159.01
171.36
167.65
152.10
131.82
111.94
94.86
80.91
69.20
58.59
49.26
42.68
38.33
34.38
28.18
17.18
-0.20
-24.08
-52.79
-79.96
-98.55
-104.02
-95.83
-76.94
-52.29
-27.30
-6.48
7.43
15.70
19.87
21.46
21.56
20.91
20.43
21.44
25.61
34.40
48.72
66.22
83.01
94.78
98.56
93.80
82.14
66.24
48.50
30.39
12.19
-5.74
-22.63
-37.29
-48.78
-56.73
-61.60
-64.12
-64.75
-63.60
-60.12
-53.91
-45.34
-35.84
-27.43
-21.94
-20.12
-21.37
-24.30
-27.20
-29.09
-29.90
-30.29
-30.91
-31.98
-33.08
-33.44
-32.56
-30.44
-27.68
-25.09
-23.19
-21.96
-20.87
-19.24
-16.60
-13.04
-9.05
-5.30
-2.34
-0.36
0.79
1.52
2.29
3.56
5.74
9.15
14.03
20.42
28.19
37.10
46.82
56.97
66.97
75.83
82.11
84.18
80.78
71.62
57.74
41.25
24.60
9.72
-2.50
-12.21
-20.09
-26.85
-32.93
-38.60
-44.22
-50.28
-57.22
-65.15
-73.58
-82.06
-90.37
-98.89
-108.35
-119.13
-130.69
-141.39
-149.15
-152.00
-149.13
-140.51
-126.80
-108.87
-87.69
-64.45
-40.62
-17.79
2.96
20.67
35.38
47.55
57.58
65.52
71.24
74.66
76.16
77.16
77.86
79.06
81.00
83.31
85.11
85.43
83.62
79.69
75.63
70.99
66.80
63.60
61.30
59.49
57.99
57.19
57.95
63.16
70.46
78.93
86.79
92.15
93.89
92.10
88.04
83.49
82.70
83.18
84.66
85.96
85.30
80.73
70.60
54.25
15.63
-19.38
-50.26
-72.40
-82.22
-78.46
-62.64
-38.58
-10.91
16.41
43.81
67.68
88.80
108.07
125.68
140.72
151.26
154.83
149.17
135.06
110.40
77.59
40.65
4.41
-26.82
-50.27
-65.18
-72.38
-72.06
-67.15
-58.52
-46.95
-33.59
-20.29
-9.23
-2.17
0.25
-0.54
-3.57
-7.00
-9.81
-12.12
-14.90
-19.15
-25.12
-32.05
-38.21
-42.51
-44.46
-44.94
-45.98
-50.07
-59.20
-74.31
-95.17
-120.74
-149.66
-180.33
-210.71
-237.93
-258.16
-267.26
-261.92
-241.04
-206.54
-163.26
-117.66
-75.99
-42.59
-18.97
-4.12
4.49
9.60
13.21
16.31
19.17
21.82
24.43
27.22
30.27
33.24
35.37
35.90
34.48
31.37
27.39
23.48
20.30
17.99
16.32
15.01
14.04
13.70
14.46
16.58
19.88
23.63
26.74
28.08
26.85
22.82
16.41
8.67
1.00
-5.18
-8.76
-9.25
-6.85
-2.35
3.16
8.65
13.38
17.14
20.14
22.93
26.11
30.09
34.87
40.01
44.76
48.37
50.44
51.06
50.85
50.68
51.35
53.23
56.19
59.71
63.15
66.13
68.59
70.89
73.55
77.21
82.70
90.89
102.37
116.74
132.10
145.27
152.85
152.73
145.26
133.30
120.95
111.71
106.96
105.60
104.92
102.10
95.31
84.08
68.90
50.61
30.13
8.48
-13.09
-33.14
-50.31
-63.65
-72.79
-77.94
-79.86
-79.52
-77.99
-76.30
-75.34
-75.89
-78.56
-83.91
-92.35
-104.02
-118.40
-134.17
-149.18
-160.81
-166.62
-165.05
-155.88
-140.24
-120.23
-98.31
-76.87
-57.95
-43.06
-33.07
-28.11
-27.41
-29.56
-32.84
-35.69
-37.15
-36.93
-35.27
-32.64
-29.50
-26.21
-23.13
-20.63
-19.11
-18.77
-19.56
-21.11
-22.82
-24.13
-24.62
-24.03
-22.26
-19.27
-15.13
-10.13
-4.73
0.53
5.29
9.60
13.92
18.97
25.21
32.50
40.03
46.50
50.83
52.54
52.05
50.37
48.51
46.96
45.50
43.49
40.36
36.10
31.36
27.18
24.39
23.19
23.01
22.83
21.75
19.34
15.90
12.15
8.86
6.48
4.99
3.97
2.85
1.16
-1.26
-4.27
-7.55
-10.69
-13.40
-15.55
-17.20
-18.50
-19.66
-20.81
-21.99
-23.17
-24.22
-25.00
-25.29
-24.80
-23.23
-20.36
-16.22
-11.12
-5.68
-0.56
3.70
6.91
9.19
10.92
12.43
13.95
15.47
16.80
17.72
18.05
17.72
16.86
15.69
14.48
13.44
12.66
12.14
11.82
11.66
11.67
11.83
12.05
12.13
11.82
10.96
9.58
7.95
6.43
5.34
4.72
4.30
3.62
2.30
0.22
-2.42
-5.17
-7.63
-9.61
-11.17
-12.56
-14.06
-15.85
-17.95
-20.21
-22.38
-24.09
-24.86
-24.16
-21.59
-17.01
-10.71
-3.42
3.86
10.20
14.94
17.94
19.49
20.19
20.73
21.69
23.37
25.75
28.48
30.96
32.60
32.97
31.90
29.55
26.21
22.22
17.78
13.00
7.94
2.73
-2.43
-7.31
-11.66
-15.20
-17.54
-18.22
-16.74
-12.86
-6.80
0.68
8.32
14.84
19.21
21.01
20.52
18.45
15.65
12.73
9.93
7.19
4.41
1.79
-0.18
-0.82
0.20
2.59
5.38
7.28
7.28
5.14
1.49
-2.56
-5.95
-8.03
-8.69
-8.06
-6.26
-3.43
0.19
4.11
7.67
10.30
11.82
12.34
12.08
11.05
8.92
5.25
-0.15
-7.01
-14.61
-22.12
-28.85
-34.37
-38.37
-40.53
-40.59
-38.51
-34.72
-30.08
-25.49
-21.64
-18.48
-15.37
-11.48
-6.31
0.08
7.32
15.08
23.21
31.57
40.02
48.32
56.03
62.81
68.59
73.88
79.45
85.81
92.44
98.22
101.86
102.38
99.43
93.04
83.53
70.85
54.33
32.28
4.24
-27.72
-59.42
-85.77
-102.85
-108.73
-104.27
-92.92
-80.84
-72.53
-68.94
-68.68
-70.13
-73.46
-79.43
-88.53
-100.33
-115.15
-130.28
-140.46
-141.54
-133.33
-120.53
-108.24
-99.64
-95.74
-98.74
-108.05
-120.12
-131.29
-139.38
-144.55
-145.41
-139.55
-105.75
-42.23
30.32
87.48
116.41
127.43
129.22
127.27
124.15
119.20
107.94
89.13
66.82
47.18
35.00
30.61
32.82
43.18
59.42
74.05
81.59
82.13
78.93
75.30
72.13
70.50
70.22
69.09
63.93
54.09
41.59
28.90
17.37
6.76
-3.13
-12.34
-22.48
-35.30
-50.67
-66.80
-81.37
-91.95
-96.23
-91.86
-70.63
-33.30
9.80
46.47
70.05
79.67
77.79
68.09
54.58
41.07
29.12
19.92
14.49
12.86
14.09
16.57
18.56
18.86
17.33
13.50
7.83
1.64
-3.81
-7.95
-11.19
-13.81
-16.94
-20.78
-25.28
-29.67
-33.40
-36.55
-39.38
-41.85
-43.31
-43.49
-40.59
-34.25
-25.22
-15.24
-6.23
0.86
6.15
10.37
15.13
22.70
33.98
49.48
68.83
87.21
99.70
103.57
98.96
88.58
75.76
63.20
52.71
45.18
40.84
39.78
40.99
41.05
36.77
24.43
2.37
-27.96
-62.37
-95.15
-120.97
-132.17
-129.01
-115.93
-97.80
-77.35
-55.27
-31.82
-8.22
13.19
29.65
38.60
40.01
35.94
29.40
23.14
17.36
11.27
3.89
-5.12
-15.70
-26.18
-34.23
-37.66
-35.40
-27.92
-16.88
-4.50
6.95
15.42
20.12
21.27
19.77
16.57
12.37
7.12
1.29
-4.52
-9.83
-14.08
-16.85
-18.08
-18.10
-17.58
-17.23
-17.54
-18.82
-21.20
-24.50
-28.37
-32.33
-35.87
-38.46
-39.55
-38.67
-35.63
-30.65
-24.25
-17.18
-10.29
-4.28
0.28
3.23
4.67
4.95
4.51
3.69
2.79
1.88
0.92
-0.29
-2.04
-4.66
-8.40
-13.34
-19.19
-25.34
-31.08
-35.83
-39.42
-42.11
-44.42
-46.98
-50.18
-54.20
-58.91
-64.01
-68.98
-73.19
-75.97
-76.83
-75.62
-72.64
-68.43
-63.56
-58.36
-52.88
-46.95
-40.42
-33.23
-25.37
-16.70
-6.92
4.33
17.07
30.76
44.29
56.34
65.86
72.57
76.87
79.61
81.57
83.17
84.49
85.41
85.94
86.12
85.99
85.45
84.16
81.80
78.28
73.84
68.93
64.08
59.59
55.54
51.76
47.95
43.84
39.32
34.42
29.31
24.27
19.63
15.70
12.76
11.07
10.84
12.25
15.36
19.92
25.53
31.68
38.06
44.55
51.26
58.30
65.77
73.50
81.09
88.11
94.23
99.24
102.94
104.99
105.03
103.04
99.28
94.14
88.11
81.74
75.46
69.36
63.15
56.34
49.14
42.05
35.61
30.27
26.49
24.36
23.41
22.51
20.30
16.54
11.11
3.41
-7.64
-22.82
-42.06
-63.97
-85.95
-104.88
-116.83
-119.55
-113.55
-101.40
-85.86
-68.70
-50.20
-29.64
-14.17
-8.64
-12.50
-21.10
-30.29
-38.10
-44.29
-49.22
-53.54
-58.10
-62.23
-64.91
-65.82
-64.85
-61.94
-57.73
-52.98
-48.71
-46.71
-48.16
-53.31
-62.61
-74.24
-84.28
-89.65
-88.16
-80.05
-68.79
-58.48
-52.04
-49.91
-48.80
-44.15
-34.71
-21.03
-5.09
10.07
22.79
33.66
45.13
57.49
71.34
83.73
92.54
97.47
99.06
98.87
98.51
90.22
70.56
52.19
36.86
19.72
0.39
-19.87
-39.23
-56.16
-70.02
-79.61
-84.48
-87.20
-89.10
-90.08
-90.20
-89.50
-87.96
-85.53
-81.24
-74.48
-67.07
-59.93
-52.97
-46.19
-39.51
-32.77
-25.81
-17.91
-8.74
0.45
8.79
15.98
21.71
25.91
28.73
30.55
32.07
33.72
35.06
35.64
35.19
33.40
30.05
25.20
19.24
12.95
7.23
2.65
-0.34
-1.46
-0.74
1.61
5.21
9.59
14.09
17.96
20.45
21.04
19.61
16.45
12.15
7.40
2.82
-1.19
-4.41
-6.88
-8.89
-10.87
-13.32
-16.57
-20.57
-24.87
-28.66
-31.07
-31.46
-29.58
-25.64
-20.15
-13.77
-7.08
-0.50
5.72
11.46
16.60
21.06
24.80
27.82
30.17
31.91
33.05
33.56
33.36
32.49
31.07
29.40
27.79
26.50
25.58
24.93
24.24
23.14
21.35
18.71
15.28
11.32
7.20
3.29
-0.17
-3.13
-5.70
-8.06
-10.34
-12.56
-14.66
-16.54
-18.18
-19.54
-20.64
-21.45
-21.90
-21.85
-21.18
-19.71
-17.24
-13.58
-8.54
-2.05
5.75
14.49
23.52
32.13
39.69
45.88
50.74
54.58
57.80
60.64
63.07
64.81
65.48
64.80
62.71
59.44
55.34
50.79
46.04
41.21
36.35
31.49
26.69
22.03
17.52
13.08
8.61
4.01
-0.68
-5.28
-9.53
-13.20
-16.17
-18.46
-20.18
-21.49
-22.52
-23.36
-24.09
-24.76
-25.39
-25.96
-26.44
-26.82
-27.11
-27.38
-27.74
-28.27
-29.04
-30.04
-31.25
-32.59
-33.93
-35.08
-35.76
-35.69
-34.57
-32.22
-28.64
-24.02
-18.71
-13.09
-7.51
-2.19
2.78
7.40
11.69
15.65
19.21
22.20
24.45
25.85
26.41
26.29
25.77
25.13
24.53
23.98
23.33
22.48
21.43
20.36
19.49
18.94
18.67
18.41
17.84
16.75
15.09
12.98
10.65
8.32
6.16
4.34
2.97
2.10
1.69
1.57
1.50
1.32
0.93
0.37
-0.29
-1.02
-1.88
-2.96
-4.33
-5.98
-7.80
-9.64
-11.34
-12.79
-13.99
-15.05
-16.19
-17.61
-19.45
-21.64
-23.85
-25.57
-26.19
-25.28
-22.72
-18.77
-13.99
-9.00
-4.34
-0.28
3.14
6.04
8.56
10.80
12.81
14.57
16.06
17.27
18.14
18.61
18.60
18.10
17.24
16.24
15.33
14.70
14.37
14.28
14.29
14.27
14.12
13.79
13.27
12.55
11.65
10.60
9.46
8.31
7.20
6.17
5.22
4.31
3.37
2.34
1.18
-0.05
-1.28
-2.38
-3.29
-4.03
-4.73
-5.51
-6.45
-7.50
-8.55
-9.47
-10.18
-10.70
-11.13
-11.63
-12.32
-13.31
-14.60
-16.07
-17.52
-18.64
-19.16
-18.90
-17.84
-16.05
-13.71
-10.98
-8.02
-4.99
-2.01
0.80
3.37
5.67
7.72
9.45
10.80
11.68
12.04
11.94
11.53
11.00
10.49
10.06
9.68
9.34
9.01
8.71
8.42
8.12
7.73
7.17
6.39
5.43
4.34
3.23
2.18
1.21
0.32
-0.56
-1.49
-2.49
-3.51
-4.49
-5.32
-5.93
-6.30
-6.46
-6.49
-6.52
-6.64
-6.93
-7.41
-8.06
-8.85
-9.67
-10.47
-11.19
-11.84
-12.46
-13.10
-13.76
-14.41
-14.93
-15.14
-14.89
-14.02
-12.46
-10.23
-7.43
-4.25
-0.87
2.45
5.53
8.18
10.31
11.93
13.12
14.02
14.74
15.31
15.70
15.82
15.58
15.00
14.17
13.27
12.46
11.80
11.28
10.84
10.40
9.90
9.36
8.80
8.23
7.62
6.84
5.82
4.51
3.01
1.47
0.12
-0.94
-1.73
-2.42
-3.19
-4.15
-5.24
-6.27
-7.05
-7.52
-7.76
-7.99
-8.43
-9.21
-10.32
-11.63
-12.94
-14.07
-14.82
-15.02
-14.53
-13.27
-11.38
-9.11
-6.80
-4.74
-3.06
-1.69
-0.41
0.97
2.53
4.16
5.62
6.66
7.15
7.11
6.71
6.16
5.59
5.07
4.58
4.09
3.64
3.27
3.02
2.90
2.75
2.42
1.73
0.64
-0.77
-2.33
-3.82
-5.09
-6.10
-6.91
-7.61
-8.26
-8.91
-9.54
-10.12
-10.57
-10.81
-10.76
-10.41
-9.79
-9.02
-8.28
-7.74
-7.43
-7.18
-6.66
-5.52
-3.52
-0.53
3.41
8.11
13.39
19.23
25.78
33.13
41.15
49.40
57.40
64.56
70.27
74.10
75.82
75.48
73.25
69.30
63.79
57.28
50.37
43.58
37.31
31.80
27.19
23.37
19.84
15.90
11.27
5.95
0.26
-5.15
-9.27
-10.91
-9.21
-4.12
0.28
0.43
-5.46
-16.87
-32.06
-49.12
-66.07
-80.84
-91.27
-95.33
-91.33
-78.79
-59.08
-35.40
-11.72
8.56
23.58
33.17
38.74
41.00
40.11
35.86
28.38
19.15
11.07
7.42
10.16
18.86
30.63
41.59
48.55
50.18
47.30
41.94
35.91
29.65
24.04
19.20
15.36
13.03
12.81
14.95
18.93
23.30
26.10
25.46
20.09
10.01
-3.49
-18.23
-31.76
-42.09
-48.06
-49.46
-46.70
-40.68
-32.42
-23.01
-13.77
-6.14
-1.49
-0.76
-4.16
-11.02
-20.00
-29.11
-36.09
-38.82
-35.90
-27.01
-13.19
3.45
20.23
34.40
43.75
46.94
43.47
33.57
18.03
-1.92
-24.72
-48.47
-70.93
-89.44
-101.05
-103.00
-93.65
-73.40
-45.33
-14.85
11.66
28.68
33.36
26.25
10.80
-8.08
-25.84
-39.60
-48.68
-54.43
-59.44
-66.52
-77.72
-93.31
-111.26
-127.49
-137.09
-136.31
-124.26
-103.71
-80.13
-59.60
-46.48
-41.99
-44.41
-50.39
-56.60
-60.72
-61.53
-58.26
-50.15
-36.47
-17.10
6.93
33.22
58.48
79.55
94.36
102.52
105.30
104.89
103.38
101.80
99.88
96.45
90.44
81.65
71.07
60.27
50.35
41.16
31.16
18.37
1.69
-17.90
-37.06
-50.89
-54.25
-43.43
-17.71
19.85
62.71
102.42
131.05
143.59
139.27
121.50
96.13
69.02
44.14
23.06
5.94
-7.27
-16.23
-20.96
-22.45
-23.05
-26.04
-34.14
-47.87
-64.40
-78.23
-83.30
-76.38
-57.87
-31.68
-4.28
17.27
27.16
22.99
5.97
-20.08
-51.82
-85.05
-114.75
-136.13
-145.95
-144.06
-132.19
-113.59
-92.45
-75.61
-67.60
-68.64
-75.60
-84.14
-91.76
-96.47
-97.40
-94.90
-93.69
-96.92
-103.89
-111.28
-115.49
-115.62
-110.76
-99.64
-61.63
7.07
90.16
164.12
211.71
236.85
242.78
231.99
205.80
168.40
122.97
75.10
32.31
1.23
-15.05
-18.92
-14.10
-4.26
7.44
15.44
16.02
8.96
-2.87
-14.97
-23.60
-24.62
-15.16
4.73
29.78
53.11
69.22
75.36
71.63
59.41
41.73
21.62
0.99
-20.10
-41.14
-60.12
-73.93
-79.84
-77.05
-66.13
-48.99
-28.43
-7.42
12.45
31.35
50.55
70.64
88.04
98.39
99.74
93.10
81.09
67.01
53.80
43.02
34.43
26.84
18.96
10.78
3.21
-2.65
-6.10
-7.42
-7.77
-8.69
-11.49
-15.80
-20.94
-26.15
-30.88
-34.82
-37.84
-39.98
-41.42
-42.33
-42.63
-42.14
-40.80
-38.69
-35.96
-32.81
-29.45
-26.09
-22.76
-19.29
-15.46
-11.11
-6.28
-1.15
3.97
8.77
13.01
16.63
19.73
22.51
25.06
27.34
29.11
30.06
29.96
28.84
26.99
24.85
22.81
21.12
19.76
18.58
17.38
16.02
14.47
12.73
10.87
8.96
7.07
5.31
3.78
2.54
1.68
1.23
1.16
1.40
1.82
2.22
2.40
2.18
1.44
0.20
-1.46
-3.38
-5.34
-7.13
-8.54
-9.42
-9.66
-9.24
-8.27
-6.92
-5.44
-4.03
-2.78
-1.65
-0.44
1.07
3.06
5.54
8.37
11.33
14.19
16.72
18.75
20.11
20.64
20.26
18.98
17.02
14.74
12.55
10.84
9.80
9.41
9.49
9.79
10.08
10.25
10.28
10.16
9.92
9.53
8.95
8.25
7.54
7.04
6.97
7.45
8.37
9.43
10.21
10.35
9.72
8.46
6.91
5.40
4.13
3.08
2.09
0.99
-0.34
-1.86
-3.51
-5.19
-6.86
-8.46
-9.86
-10.84
-11.16
-10.68
-9.41
-7.54
-5.35
-3.08
-0.88
1.21
3.11
4.77
6.04
6.83
7.12
7.02
6.77
6.63
6.81
7.28
7.85
8.19
7.99
7.11
5.69
4.11
2.82
2.20
2.33
3.09
4.12
5.15
6.01
6.70
7.30
7.82
8.18
8.24
7.87
7.10
6.11
5.16
4.46
4.02
3.68
3.17
2.27
0.88
-0.92
-2.97
-5.05
-6.97
-8.63
-9.97
-10.99
-11.73
-12.24
-12.52
-12.55
-12.21
-11.39
-10.05
-8.28
-6.23
-4.12
-2.08
-0.09
1.92
4.03
6.23
8.33
10.11
11.34
11.86
11.68
10.95
9.88
8.73
7.71
6.94
6.44
6.16
6.00
5.96
6.03
6.22
6.51
6.83
7.03
7.04
6.83
6.45
6.02
5.61
5.24
4.88
4.47
3.91
3.09
1.96
0.50
-1.21
-3.00
-4.63
-5.88
-6.60
-6.79
-6.58
-6.17
-5.82
-5.73
-6.08
-6.97
-8.42
-10.41
-12.81
-15.44
-18.09
-20.52
-22.45
-23.60
-23.70
-22.57
-20.17
-16.65
-12.39
-7.85
-3.51
0.35
3.60
6.27
8.49
10.36
12.00
13.62
15.52
18.07
21.53
25.82
30.56
35.12
38.92
41.62
43.22
43.88
43.63
42.29
39.38
34.46
27.44
18.68
8.94
-0.91
-10.23
-18.69
-26.15
-32.59
-38.01
-42.56
-46.65
-50.80
-55.35
-60.07
-64.09
-66.26
-65.81
-62.93
-58.69
-54.54
-51.49
-49.64
-48.30
-46.56
-43.89
-40.43
-36.70
-33.15
-29.85
-26.50
-22.82
-18.79
-14.75
-11.14
-8.22
-5.93
-3.90
-1.70
0.98
4.18
7.68
11.11
14.05
16.12
17.09
16.93
15.79
13.99
11.93
9.98
8.36
7.16
6.25
5.49
4.77
4.06
3.45
2.97
2.63
2.26
1.68
0.70
-0.75
-2.64
-4.86
-7.30
-9.89
-12.53
-15.10
-17.45
-19.46
-21.07
-22.34
-23.45
-24.50
-25.57
-26.48
-26.96
-26.73
-25.61
-23.64
-21.06
-18.20
-15.35
-12.69
-10.22
-7.82
-5.31
-2.55
0.53
3.87
7.26
10.49
13.32
15.65
17.47
18.85
19.88
20.59
20.97
21.00
20.70
20.17
19.59
19.07
18.66
18.32
17.95
17.50
16.96
16.38
15.79
15.20
14.56
13.80
12.88
11.81
10.64
9.43
8.20
6.92
5.56
4.09
2.61
1.25
0.12
-0.72
-1.36
-1.93
-2.67
-3.74
-5.16
-6.84
-8.54
-9.97
-10.85
-10.98
-10.29
-8.87
-6.92
-4.69
-2.42
-0.27
1.66
3.35
4.80
6.01
6.98
7.74
8.32
8.79
9.20
9.54
9.80
9.89
9.74
9.35
8.75
8.08
7.45
6.94
6.50
6.05
5.52
4.88
4.21
3.62
3.15
2.80
2.42
1.86
0.99
-0.24
-1.77
-3.46
-5.18
-6.80
-8.25
-9.50
-10.60
-11.60
-12.59
-13.64
-14.84
-16.23
-17.79
-19.36
-20.64
-21.25
-20.89
-19.41
-16.95
-13.82
-10.44
-7.16
-4.14
-1.37
1.30
4.03
6.94
10.05
13.29
16.57
19.74
22.65
25.14
27.09
28.43
29.15
29.31
29.03
28.48
27.83
27.19
26.69
26.34
26.09
25.84
25.47
24.92
24.21
23.46
22.83
22.42
22.23
22.13
21.95
21.62
21.19
20.85
20.86
21.39
22.43
23.78
25.17
26.33
27.16
27.73
28.24
28.95
30.14
31.96
34.38
37.29
40.52
43.94
47.53
51.41
55.78
60.79
66.53
72.97
79.96
87.10
93.63
98.38
99.87
96.78
88.47
75.39
59.10
41.83
25.80
12.54
2.55
-4.52
-9.51
-13.28
-16.42
-19.29
-22.05
-24.95
-27.99
-30.82
-32.71
-32.83
-30.77
-26.76
-21.84
-17.44
-15.02
-15.35
-18.13
-22.22
-26.19
-28.90
-29.70
-28.43
-25.23
-20.77
-15.75
-10.86
-6.70
-3.96
-3.23
-4.71
-8.14
-12.78
-18.68
-25.61
-32.69
-38.60
-42.33
-43.54
-42.32
-39.02
-33.88
-29.08
-26.25
-25.39
-25.20
-24.63
-23.32
-21.18
-18.19
-13.85
-10.83
-11.01
-13.76
-16.61
-17.74
-17.13
-15.96
-16.23
-19.40
-30.46
-52.26
-83.08
-117.91
-152.24
-184.01
-213.06
-240.70
-244.67
-213.40
-155.51
-92.25
-38.40
2.50
32.69
55.60
70.59
81.20
84.83
78.75
63.30
41.62
16.67
-10.39
-34.80
-53.74
-64.74
-70.37
-73.85
-76.67
-78.24
-77.45
-73.30
-64.55
-50.68
-31.18
-8.65
14.12
35.67
55.88
74.63
91.42
105.76
117.03
125.30
129.79
130.19
127.12
121.87
115.69
109.40
103.64
98.47
93.96
89.49
84.49
78.80
72.75
66.95
62.00
58.36
55.98
54.55
53.41
51.99
49.91
47.16
44.08
41.22
39.18
38.34
38.86
40.51
42.82
45.12
46.84
47.75
47.99
48.03
48.44
49.62
51.67
54.46
57.57
60.36
61.84
60.71
55.68
45.94
31.63
13.98
-5.11
-23.84
-41.22
-57.31
-72.97
-89.03
-105.81
-122.80
-138.89
-152.90
-164.02
-171.97
-176.99
-179.64
-180.54
-180.22
-178.94
-176.62
-172.79
-166.74
-157.63
-144.83
-128.17
-108.08
-85.65
-62.34
-39.81
-19.56
-2.68
10.34
19.58
25.68
29.61
32.40
34.91
37.59
40.47
43.15
45.10
45.78
44.96
42.75
39.64
36.41
33.98
33.14
34.28
37.21
41.17
45.13
48.23
50.16
51.23
52.09
53.34
55.15
57.34
59.62
61.95
64.61
68.07
72.56
77.79
82.80
86.06
85.82
80.46
68.78
50.34
25.62
-3.95
-36.10
-68.14
-97.39
-121.57
-139.02
-148.67
-150.07
-143.47
-130.03
-111.76
-91.41
-71.83
-55.40
-43.50
-36.39
-33.39
-33.29
-34.81
-36.76
-38.15
-38.37
-37.20
-34.80
-31.54
-27.71
-23.32
-18.04
-11.27
-2.38
8.96
22.55
37.58
52.68
66.16
76.37
82.11
83.33
81.24
77.76
74.75
73.23
72.95
72.61
70.55
65.30
56.92
46.97
37.49
29.98
24.76
20.91
16.68
10.16
-0.43
-14.98
-31.50
-47.60
-61.65
-73.18
-82.49
-90.10
-96.43
-102.59
-108.37
-112.82
-115.57
-117.37
-119.19
-121.31
-122.94
-123.16
-122.32
-119.69
-113.51
-102.39
-86.13
-65.43
-41.37
-14.95
21.77
65.61
105.90
134.41
150.18
156.16
155.75
151.73
147.99
144.85
140.62
134.55
126.96
118.15
107.82
95.66
80.71
63.82
46.00
27.46
9.28
-6.63
-18.57
-25.94
-29.05
-28.89
-26.56
-23.65
-21.96
-21.86
-22.42
-22.17
-20.22
-16.36
-10.96
-4.54
1.96
7.44
11.41
14.06
15.91
17.38
18.71
19.86
20.82
21.22
20.45
18.14
14.28
9.27
3.50
-2.74
-9.34
-15.88
-22.25
-28.78
-36.06
-44.42
-53.68
-63.23
-72.13
-79.37
-83.19
-82.66
-78.40
-72.27
-66.26
-61.77
-59.59
-59.84
-62.00
-63.54
-62.01
-56.40
-47.14
-35.05
-20.89
-5.50
10.27
25.92
43.37
64.29
88.43
113.64
137.55
158.65
176.27
190.65
191.09
173.25
143.75
114.25
91.13
74.31
61.20
49.38
37.51
25.15
14.19
5.99
0.08
-5.11
-11.64
-19.89
-29.60
-40.52
-52.72
-65.01
-76.61
-85.60
-91.88
-95.25
-95.01
-90.75
-82.69
-71.70
-58.07
-42.50
-26.29
-11.51
0.18
7.82
10.64
8.25
1.13
-8.51
-17.53
-22.77
-22.89
-18.48
-11.22
-3.50
2.86
7.52
11.62
16.62
23.10
29.71
34.31
35.20
32.10
26.56
21.36
19.27
20.93
26.50
33.91
40.51
44.37
44.86
42.68
39.09
35.19
31.52
28.28
25.25
22.60
21.02
21.27
23.63
27.23
29.91
29.00
22.68
10.64
-5.18
-21.40
-34.81
-43.38
-46.82
-46.36
-43.94
-41.28
-39.53
-39.07
-39.23
-39.69
-39.55
-37.87
-34.15
-28.77
-22.85
-17.90
-14.99
-14.28
-15.06
-15.99
-15.94
-14.49
-11.78
-8.16
-3.95
0.62
5.31
9.58
12.93
14.85
15.04
13.58
10.97
7.91
5.09
2.96
1.60
0.86
0.35
-0.40
-1.59
-3.13
-4.65
-5.75
-6.20
-6.09
-5.67
-5.31
-5.30
-5.65
-6.15
-6.63
-6.98
-7.20
-7.27
-6.83
-5.47
-2.78
1.35
6.68
12.60
18.41
23.53
26.77
28.27
28.29
26.89
23.90
19.21
13.02
6.14
-0.19
-4.58
-5.78
-3.32
2.25
9.56
16.66
21.54
22.82
20.11
14.15
6.45
-1.54
-8.86
-15.14
-20.34
-24.52
-27.54
-29.09
-28.98
-27.33
-24.66
-21.61
-18.77
-16.33
-14.27
-12.47
-10.84
-9.44
-8.37
-7.80
-7.88
-8.67
-10.02
-11.68
-13.35
-14.79
-15.89
-16.69
-17.36
-18.10
-19.13
-20.42
-21.96
-23.66
-25.41
-27.01
-28.25
-28.85
-28.46
-27.67
-26.69
-25.78
-25.14
-24.90
-25.05
-25.38
-25.61
-25.45
-24.67
-22.87
-19.84
-15.54
-10.25
-4.43
1.48
7.10
12.17
16.55
20.35
23.66
26.59
29.17
31.44
33.62
35.78
37.71
39.05
39.57
39.27
38.38
37.24
36.14
35.82
36.49
37.60
38.22
37.78
36.26
34.04
31.60
29.26
28.21
28.67
29.45
28.71
25.42
19.82
13.07
6.69
1.96
1.50
6.18
14.46
23.59
31.91
39.47
47.40
56.88
68.55
84.86
106.45
131.25
155.57
176.24
191.10
198.60
197.78
173.23
122.04
57.13
-2.52
-46.13
-73.63
-89.83
-99.23
-103.93
-103.94
-96.47
-81.16
-62.02
-45.44
-36.38
-36.39
-43.74
-54.71
-65.27
-70.67
-68.98
-62.08
-53.91
-47.58
-44.47
-44.14
-45.14
-45.96
-44.98
-41.43
-36.69
-33.09
-32.23
-34.74
-40.03
-46.74
-53.53
-59.01
-62.25
-62.88
-60.36
-54.09
-44.71
-33.64
-22.64
-13.15
-5.66
0.54
6.50
12.84
18.78
21.35
17.58
6.38
-11.12
-32.61
-53.39
-68.56
-73.79
-61.68
-32.23
5.80
40.74
64.93
76.41
77.70
73.04
66.70
61.08
56.13
51.43
47.60
46.55
48.30
51.47
53.03
50.18
41.08
25.51
5.54
-15.25
-33.94
-50.16
-65.73
-83.62
-102.25
-119.15
-131.46
-136.72
-133.76
-123.18
-107.30
-88.77
-69.41
-48.59
-25.25
0.65
27.82
54.60
79.96
103.62
126.04
141.06
144.01
135.63
121.40
106.29
92.44
80.04
68.49
57.04
45.11
33.33
22.22
11.82
1.73
-8.25
-18.03
-27.52
-36.88
-46.45
-55.08
-61.36
-64.19
-63.20
-58.49
-50.57
-40.32
-28.81
-16.74
-4.40
7.88
19.45
29.50
37.43
42.99
46.49
45.78
40.93
33.04
23.28
12.43
1.00
-10.36
-21.04
-30.79
-39.12
-45.21
-48.73
-49.92
-49.45
-48.21
-45.78
-42.57
-39.07
-35.70
-32.52
-29.71
-27.32
-25.19
-22.83
-19.66
-15.37
-9.82
-3.08
4.68
13.04
21.48
29.53
36.81
42.93
47.34
49.58
49.43
47.07
42.92
37.60
31.76
25.93
20.44
15.31
10.46
5.73
1.00
-3.88
-8.95
-14.14
-19.21
-23.88
-27.97
-31.37
-34.06
-36.01
-37.17
-37.44
-36.77
-35.29
-33.30
-31.19
-29.25
-27.53
-25.87
-24.04
-21.93
-19.55
-17.07
-14.72
-12.67
-11.01
-9.70
-8.68
-7.97
-7.63
-7.73
-8.23
-8.98
-9.79
-10.44
-10.68
-10.38
-9.54
-8.28
-6.78
-5.13
-3.41
-1.60
0.38
2.99
6.61
11.27
16.59
21.94
26.70
30.44
32.87
33.93
34.33
34.78
35.56
36.47
37.15
37.38
37.14
36.45
35.42
35.20
36.71
39.97
43.99
47.50
49.54
49.76
48.35
45.94
44.63
46.21
51.08
58.25
66.26
74.18
81.87
89.93
91.10
81.36
62.28
40.12
20.48
5.15
-6.70
-16.54
-25.26
-32.88
-37.54
-37.74
-33.51
-26.70
-20.09
-16.39
-17.56
-24.52
-36.95
-52.23
-66.74
-76.82
-79.67
-73.93
-60.18
-41.27
-21.82
-6.68
1.76
3.28
-0.48
-6.97
-13.84
-19.61
-23.95
-27.08
-29.01
-29.00
-26.25
-20.63
-13.24
-6.07
-1.15
0.38
-1.21
-4.39
-7.03
-7.60
-5.79
-2.51
0.77
2.82
3.26
2.66
2.10
2.61
4.45
7.18
9.78
11.14
10.58
8.06
4.24
0.13
-3.44
-6.03
-7.74
-8.99
-10.27
-11.87
-13.77
-15.74
-17.48
-18.89
-20.06
-21.10
-22.04
-22.72
-22.89
-22.26
-20.73
-18.37
-15.45
-12.33
-9.15
-5.89
-2.34
1.61
5.87
10.06
13.72
16.29
17.44
17.18
15.93
14.18
12.34
10.49
8.41
5.91
2.61
-1.83
-7.35
-13.43
-19.32
-24.29
-27.75
-29.35
-28.65
-26.04
-22.58
-19.33
-16.84
-15.09
-13.57
-11.39
-7.62
-1.00
8.34
19.27
30.78
42.66
55.16
68.41
82.21
95.76
108.83
119.93
126.96
128.20
122.72
110.11
90.38
64.59
30.69
-5.36
-34.45
-51.84
-59.65
-62.39
-62.69
-60.16
-52.61
-40.49
-23.60
-4.94
10.92
20.50
22.91
19.28
11.20
1.28
-8.36
-16.00
-21.35
-24.53
-25.27
-23.03
-17.70
-11.60
-5.24
-0.34
0.93
-3.45
-13.80
-27.84
-41.22
-49.24
-48.93
-40.09
-21.60
2.63
26.34
44.25
53.75
54.89
49.35
39.37
27.36
14.98
2.63
-10.59
-25.60
-43.22
-64.16
-88.53
-115.07
-140.66
-161.34
-174.05
-177.93
-173.08
-160.26
-141.12
-117.88
-92.92
-67.85
-43.57
-14.36
18.81
50.66
76.26
93.75
103.43
106.48
104.97
101.37
97.63
93.50
87.77
78.78
64.92
46.29
23.31
-1.46
-24.36
-42.21
-54.06
-60.45
-62.61
-62.01
-59.79
-56.45
-51.60
-44.82
-36.11
-25.06
-12.27
1.82
16.95
32.75
48.51
63.20
75.41
83.71
87.30
86.10
81.25
74.72
68.67
64.77
63.83
65.58
68.83
72.28
74.25
73.43
69.27
62.21
53.34
44.05
35.56
25.79
15.00
4.89
-2.99
-8.47
-12.49
-16.16
-20.30
-25.08
-30.48
-35.74
-40.28
-43.91
-46.75
-48.97
-50.80
-52.61
-55.00
-57.16
-58.74
-59.72
-60.30
-60.62
-60.65
-60.25
-59.36
-57.98
-56.12
-53.71
-50.74
-47.31
-43.61
-39.86
-36.25
-32.95
-30.09
-27.67
-25.67
-24.08
-22.96
-22.49
-22.83
-24.11
-26.31
-29.18
-32.30
-35.21
-37.48
-38.92
-39.53
-39.44
-38.78
-37.62
-35.87
-33.40
-30.07
-25.71
-20.24
-13.57
-5.64
3.52
13.79
24.94
36.61
48.38
59.81
70.44
79.92
87.98
94.58
99.73
103.44
105.60
106.06
104.64
101.31
96.26
89.92
82.90
75.78
69.05
62.99
57.98
54.28
51.89
50.60
50.01
49.65
48.97
47.44
44.55
40.44
35.39
29.60
23.17
16.17
8.80
1.30
-6.03
-12.97
-18.65
-22.44
-24.29
-24.76
-24.48
-23.97
-23.54
-23.33
-23.69
-23.91
-23.39
-21.94
-19.79
-17.18
-14.06
-10.25
-5.24
-3.67
-7.74
-16.36
-26.02
-34.08
-40.19
-45.38
-50.66
-54.59
-57.31
-57.54
-54.24
-47.36
-37.97
-27.51
-16.91
-8.68
-3.96
-3.36
-5.82
-9.91
-14.46
-18.78
-22.47
-25.22
-26.83
-27.00
-25.87
-22.95
-17.68
-9.64
1.33
15.10
31.14
48.32
65.11
79.66
91.02
98.88
103.29
104.36
102.18
97.07
89.70
80.93
71.70
63.19
56.29
51.21
47.53
44.63
42.15
40.00
37.66
34.23
28.81
20.78
9.84
-3.78
-19.39
-36.19
-50.56
-59.22
-62.17
-61.86
-60.46
-58.65
-55.70
-50.93
-43.91
-35.12
-26.19
-18.88
-13.98
-11.02
-8.76
-5.97
-3.14
-0.26
1.95
2.29
-0.22
-5.55
-12.76
-20.46
-27.29
-33.02
-37.47
-40.82
-43.67
-46.94
-51.75
-59.72
-73.41
-90.87
-111.94
-135.24
-157.93
-176.01
-185.37
-183.07
-168.42
-143.17
-110.69
-75.46
-40.66
-8.04
21.93
49.17
73.39
93.84
109.64
120.43
126.13
127.84
127.13
125.48
123.60
121.33
117.84
112.42
105.00
96.14
87.23
79.76
74.77
72.28
71.31
70.23
67.32
61.35
51.87
39.49
25.65
12.16
0.64
-7.99
-13.72
-17.43
-20.61
-25.17
-32.79
-44.47
-59.78
-76.64
-91.62
-101.09
-102.73
-96.65
-85.43
-72.79
-61.76
-53.19
-45.56
-36.28
-23.42
-7.09
10.77
27.48
41.12
51.21
58.40
63.72
67.92
71.41
74.65
78.36
83.43
90.36
98.68
106.84
112.65
114.15
110.39
101.72
89.48
75.31
60.45
45.45
30.27
14.50
-2.17
-19.62
-37.18
-53.90
-68.90
-81.78
-92.45
-100.93
-107.15
-110.83
-111.76
-110.07
-106.51
-102.53
-99.77
-99.27
-100.99
-104.01
-107.09
-109.41
-111.02
-112.67
-115.81
-121.87
-131.18
-142.72
-154.85
-165.91
-174.51
-179.77
-180.62
-176.91
-168.99
-156.72
-139.07
-115.22
-85.02
-48.85
-7.75
37.65
85.03
130.76
171.29
204.27
227.86
241.16
245.35
243.31
239.87
237.18
233.89
226.74
212.83
189.96
157.50
117.64
67.94
17.48
-21.42
-44.25
-57.94
-67.62
-74.69
-79.82
-80.38
-76.53
-68.80
-59.98
-53.28
-49.63
-46.60
-38.75
-24.59
-6.35
11.80
27.49
38.73
44.09
43.82
40.20
35.61
31.18
27.63
24.97
23.68
23.29
22.90
22.16
21.69
22.15
23.31
24.86
26.10
26.57
25.27
21.13
13.86
4.20
-6.48
-17.10
-26.58
-34.36
-40.17
-44.30
-47.30
-49.49
-51.19
-51.95
-51.66
-50.31
-47.93
-44.61
-40.51
-35.78
-30.52
-24.85
-18.92
-13.17
-8.09
-4.01
-1.04
1.05
2.74
4.53
6.88
9.77
12.66
14.68
15.12
13.71
10.74
6.88
2.84
-0.79
-3.81
-6.35
-8.61
-10.53
-11.76
-11.83
-10.26
-7.80
-4.98
-2.35
-0.25
1.17
2.02
2.50
2.65
2.25
1.00
-1.00
-3.36
-5.49
-6.83
-7.16
-6.27
-4.39
-2.19
-0.48
0.42
0.66
0.73
1.08
1.97
4.05
7.46
11.46
14.90
17.14
18.36
19.31
20.83
23.46
28.40
35.93
44.86
53.28
59.95
64.89
68.92
72.87
76.96
82.32
89.17
96.47
102.81
107.94
112.70
117.81
122.81
116.63
94.18
60.59
27.47
3.45
-9.94
-16.29
-20.66
-26.31
-32.54
-35.21
-30.22
-16.74
1.94
20.53
34.57
42.25
44.76
42.90
39.34
34.89
26.91
10.86
-16.12
-52.65
-93.03
-129.54
-155.97
-169.22
-171.36
-168.49
-167.23
-171.07
-178.79
-185.74
-186.76
-179.11
-163.34
-143.47
-125.30
-113.85
-111.57
-117.87
-130.02
-144.44
-157.54
-165.89
-166.68
-158.14
-139.83
-112.96
-80.27
-45.45
-12.21
16.66
39.85
57.32
69.80
78.21
83.40
86.20
87.56
88.65
90.56
93.97
98.93
104.83
110.82
116.25
120.80
124.50
127.23
128.53
127.37
122.48
112.84
98.35
79.93
59.30
38.52
19.56
3.94
-8.02
-17.34
-26.11
-36.47
-49.38
-63.87
-77.12
-85.76
-87.12
-81.02
-69.82
-57.12
-45.76
-36.70
-29.22
-21.90
-13.95
-4.80
4.95
14.10
21.96
29.04
36.56
45.42
55.63
66.23
77.70
89.80
101.27
110.78
118.05
123.73
128.50
132.43
135.04
138.56
143.76
149.25
152.82
153.59
152.29
150.46
149.53
150.60
157.94
172.79
191.90
209.58
221.25
224.99
221.16
211.50
175.46
109.88
30.49
-40.91
-93.12
-126.98
-148.46
-163.63
-176.17
-188.01
-194.85
-193.71
-185.51
-174.16
-163.40
-155.55
-149.99
-146.04
-142.43
-134.93
-121.65
-104.33
-87.07
-73.31
-64.02
-60.00
-61.97
-69.37
-78.09
-83.73
-83.20
-75.22
-59.72
-38.50
-15.47
4.53
17.94
24.57
26.52
27.61
29.87
34.53
41.55
49.58
56.74
61.55
63.33
61.63
56.01
46.04
32.14
15.56
-1.85
-18.14
-30.47
-36.81
-36.93
-32.36
-25.76
-19.65
-15.70
-14.32
-14.66
-15.26
-14.85
-12.83
-9.20
-4.43
0.96
6.56
11.97
16.79
20.66
23.11
23.81
22.70
20.02
16.12
11.40
6.10
0.55
-4.73
-9.01
-11.59
-12.03
-10.54
-7.94
-5.46
-4.25
-4.94
-7.46
-11.10
-14.74
-17.09
-16.78
-12.69
-4.12
8.56
23.50
37.27
45.45
43.96
30.63
6.28
-25.15
-57.59
-84.69
-101.58
-106.02
-98.66
-82.40
-61.22
-39.07
-19.15
-3.53
6.79
11.63
11.49
7.44
1.00
-5.96
-11.52
-14.15
-13.12
-8.71
-2.20
4.66
10.26
13.59
14.63
14.24
13.84
14.68
17.26
21.06
24.77
26.98
26.68
23.77
19.03
13.78
9.33
6.52
5.43
5.74
6.95
8.47
9.69
10.09
9.29
7.20
4.13
0.46
-2.85
-4.53
-3.85
-1.07
2.61
5.66
6.81
5.60
1.99
-2.60
-5.91
-6.49
-4.85
-3.13
-4.16
-10.22
-22.04
-39.17
-58.27
-74.01
-81.91
-80.43
-71.11
-57.56
-44.15
-34.93
-33.84
-41.68
-55.65
-71.28
-83.84
-88.77
-82.08
-61.50
-20.67
33.55
84.58
119.76
137.49
142.59
139.82
131.02
115.59
92.61
62.05
27.93
-2.58
-23.73
-34.01
-36.17
-34.88
-34.23
-36.09
-40.82
-47.22
-51.84
-52.98
-51.29
-48.65
-46.52
-45.30
-44.45
-43.62
-42.15
-39.25
-35.15
-31.01
-28.22
-27.53
-28.77
-30.99
-33.08
-33.66
-31.21
-25.29
-16.32
-5.59
5.20
14.53
21.55
26.43
30.45
35.41
42.47
51.53
61.15
69.23
73.97
74.54
71.22
64.95
56.84
47.74
38.38
29.50
22.04
16.90
14.59
14.90
16.94
19.47
21.35
21.91
21.05
19.07
16.48
13.74
11.16
8.88
6.94
5.29
3.83
2.43
1.00
-0.43
-1.76
-2.79
-3.37
-3.45
-3.15
-2.60
-2.00
-1.46
-1.06
-0.82
-0.80
-1.01
-1.45
-2.05
-2.76
-3.50
-4.28
-5.09
-5.86
-6.47
-6.79
-6.80
-6.68
-6.64
-6.85
-7.21
-7.38
-6.94
-5.61
-3.44
-0.82
1.73
3.81
5.30
6.32
7.12
7.89
8.69
9.43
10.00
10.32
10.41
10.32
10.17
10.03
9.97
9.98
10.01
9.94
9.62
9.00
8.06
6.94
5.83
4.88
4.12
3.49
2.88
2.23
1.56
1.00
0.65
0.56
0.68
0.89
1.08
1.18
1.14
0.96
0.61
0.03
-0.77
-1.74
-2.71
-3.54
-4.18
-4.71
-5.26
-5.96
-6.77
-7.49
-7.85
-7.67
-6.94
-5.82
-4.56
-3.31
-2.10
-0.85
0.46
1.80
3.03
4.00
4.67
5.10
5.38
5.60
5.74
5.75
5.59
5.28
4.94
4.70
4.60
4.63
4.67
4.65
4.51
4.28
4.02
3.73
3.41
2.97
2.32
1.43
0.31
-0.91
-2.07
-3.05
-3.76
-4.22
-4.51
-4.75
-5.05
-5.48
-6.04
-6.70
-7.39
-8.11
-8.91
-9.83
-10.90
-12.04
-13.09
-13.79
-13.93
-13.36
-12.12
-10.31
-8.17
-5.90
-3.66
-1.57
0.29
1.90
3.24
4.32
5.17
5.83
6.37
6.85
7.29
7.69
8.01
8.26
8.45
8.63
8.82
8.95
8.89
8.55
7.96
7.27
6.73
6.51
6.57
6.65
6.46
5.80
4.76
3.60
2.60
1.90
1.41
0.92
0.24
-0.67
-1.72
-2.74
-3.66
-4.49
-5.30
-6.15
-7.03
-7.93
-8.81
-9.64
-10.46
-11.28
-12.13
-12.99
-13.86
-14.66
-15.23
-15.38
-14.90
-13.67
-11.74
-9.30
-6.64
-4.06
-1.77
0.12
1.62
2.80
3.76
4.56
5.25
5.82
6.22
6.41
6.37
6.09
5.66
5.18
4.80
4.62
4.70
5.02
5.44
5.84
6.05
6.04
5.85
5.58
5.31
5.06
4.78
4.40
3.86
3.15
2.32
1.45
0.63
-0.07
-0.57
-0.87
-1.03
-1.17
-1.45
-2.01
-2.84
-3.82
-4.77
-5.55
-6.09
-6.51
-7.02
-7.75
-8.72
-9.75
-10.54
-10.79
-10.33
-9.14
-7.40
-5.38
-3.36
-1.54
-0.01
1.30
2.51
3.74
5.03
6.26
7.22
7.72
7.67
7.17
6.46
5.79
5.39
5.31
5.51
5.87
6.25
6.53
6.65
6.59
6.34
5.95
5.43
4.78
4.00
3.12
2.19
1.32
0.61
0.06
-0.38
-0.78
-1.24
-1.74
-2.24
-2.68
-3.07
-3.48
-4.01
-4.78
-5.86
-7.22
-8.77
-10.32
-11.65
-12.54
-12.79
-12.27
-10.97
-9.07
-6.86
-4.74
-3.02
-1.86
-1.19
-0.74
-0.22
0.59
1.69
2.89
3.98
4.76
5.19
5.35
5.37
5.37
5.43
5.59
5.80
5.99
6.05
5.93
5.61
5.19
4.80
4.55
4.49
4.53
4.58
4.53
4.37
4.17
4.00
3.90
3.80
3.63
3.28
2.77
2.13
1.40
0.60
-0.30
-1.32
-2.41
-3.45
-4.34
-4.98
-5.43
-5.86
-6.51
-7.56
-9.05
-10.82
-12.55
-13.84
-14.38
-14.02
-12.83
-11.05
-8.97
-6.80
-4.67
-2.62
-0.69
1.04
2.42
3.37
3.90
4.19
4.50
5.09
6.01
7.18
8.35
9.22
9.64
9.56
9.11
8.48
7.89
7.47
7.31
7.39
7.64
7.88
7.95
7.69
7.08
6.23
5.37
4.77
4.56
4.71
5.01
5.23
5.17
4.77
4.07
3.16
2.15
1.09
0.02
-0.97
-1.84
-2.53
-3.11
-3.72
-4.49
-5.52
-6.76
-8.10
-9.41
-10.62
-11.73
-12.74
-13.63
-14.23
-14.29
-13.60
-12.13
-10.02
-7.60
-5.18
-2.98
-1.05
0.66
2.28
3.84
5.31
6.63
7.74
8.61
9.27
9.73
9.98
10.00
9.81
9.47
9.12
8.89
8.87
9.08
9.47
9.92
10.29
10.43
10.18
9.47
8.27
6.72
5.03
3.44
2.12
1.14
0.38
-0.32
-1.08
-1.96
-2.87
-3.70
-4.41
-5.01
-5.63
-6.41
-7.44
-8.73
-10.12
-11.46
-12.60
-13.42
-13.87
-13.89
-13.44
-12.44
-10.89
-8.83
-6.48
-4.12
-2.00
-0.28
1.06
2.18
3.25
4.37
5.49
6.47
7.17
7.55
7.71
7.83
8.03
8.35
8.70
8.93
8.96
8.83
8.67
8.60
8.69
8.84
8.91
8.70
8.18
7.40
6.51
5.69
5.01
4.51
4.12
3.74
3.29
2.76
2.18
1.60
1.11
0.70
0.35
-0.07
-0.67
-1.55
-2.70
-3.98
-5.22
-6.23
-6.98
-7.57
-8.22
-9.13
-10.43
-12.02
-13.65
-14.97
-15.63
-15.50
-14.57
-13.03
-11.12
-9.07
-7.09
-5.27
-3.63
-2.12
-0.69
0.73
2.16
3.56
4.84
5.88
6.62
7.06
7.27
7.34
7.38
7.43
7.47
7.47
7.44
7.41
7.42
7.52
7.68
7.85
7.91
7.79
7.49
7.06
6.59
6.17
5.84
5.56
5.27
4.87
4.33
3.65
2.91
2.21
1.64
1.23
0.92
0.60
0.13
-0.57
-1.47
-2.46
-3.44
-4.28
-4.96
-5.52
-6.03
-6.57
-7.26
-8.16
-9.30
-10.62
-11.94
-13.00
-13.50
-13.21
-12.05
-10.11
-7.62
-4.87
-2.13
0.46
2.81
4.91
6.79
8.46
10.01
11.51
13.06
14.67
16.20
17.41
18.04
18.00
17.44
16.74
16.39
16.74
17.95
19.87
22.23
24.71
27.03
29.04
30.72
32.13
33.44
34.83
36.40
38.08
39.59
40.57
40.62
39.53
37.24
33.87
29.62
24.66
19.09
12.95
6.32
-0.70
-7.94
-15.29
-22.76
-30.49
-38.62
-47.19
-55.93
-64.18
-71.03
-75.51
-76.86
-74.75
-69.33
-61.22
-51.31
-40.66
-30.29
-21.09
-13.67
-8.31
-4.94
-3.16
-2.42
-2.13
-1.90
-1.52
-1.00
-0.41
0.20
0.87
1.67
2.62
3.67
4.71
5.63
6.41
7.07
7.70
8.35
8.95
9.41
9.64
9.55
9.16
8.47
7.52
6.31
4.87
3.29
1.69
0.24
-0.97
-1.88
-2.51
-2.93
-3.24
-3.51
-3.82
-4.26
-4.87
-5.66
-6.59
-7.54
-8.40
-9.09
-9.62
-10.09
-10.61
-11.28
-12.12
-13.09
-14.08
-14.99
-15.66
-15.92
-15.57
-14.45
-12.52
-9.92
-6.94
-3.94
-1.25
0.97
2.69
3.98
4.94
5.69
6.28
6.76
7.13
7.38
7.49
7.48
7.41
7.30
7.20
7.11
7.01
6.92
6.83
6.78
6.79
6.88
7.03
7.15
7.20
7.10
6.81
6.34
5.70
4.96
4.19
3.46
2.83
2.29
1.81
1.37
0.95
0.55
0.17
-0.23
-0.67
-1.20
-1.80
-2.44
-3.06
-3.63
-4.19
-4.82
-5.60
-6.57
-7.72
-8.99
-10.31
-11.53
-12.48
-12.90
-12.58
-11.39
-9.39
-6.82
-4.03
-1.36
0.96
2.82
4.23
5.25
5.93
6.33
6.57
6.76
7.01
7.37
7.76
8.03
8.06
7.83
7.46
7.17
7.15
7.41
7.77
7.97
7.79
7.18
6.30
5.38
4.61
4.02
3.55
3.11
2.62
2.11
1.63
1.18
0.72
0.20
-0.43
-1.18
-2.04
-3.02
-4.11
-5.29
-6.45
-7.46
-8.21
-8.72
-9.16
-9.73
-10.57
-11.68
-12.82
-13.67
-13.90
-13.26
-11.73
-9.47
-6.81
-4.13
-1.78
0.03
1.31
2.25
3.12
4.14
5.34
6.64
7.83
8.75
9.33
9.60
9.61
9.42
9.09
8.69
8.31
8.02
7.86
7.79
7.72
7.59
7.39
7.15
6.89
6.63
6.34
6.00
5.61
5.19
4.76
4.31
3.84
3.34
2.79
2.21
1.59
0.91
0.15
-0.70
-1.63
-2.59
-3.54
-4.49
-5.43
-6.37
-7.32
-8.29
-9.31
-10.44
-11.68
-12.98
-14.21
-15.16
-15.68
-15.60
-14.88
-13.48
-11.44
-8.86
-5.96
-3.06
-0.46
1.62
3.16
4.32
5.35
6.45
7.69
8.94
9.99
10.64
10.80
10.53
10.00
9.42
8.90
8.47
8.07
7.62
7.12
6.61
6.19
5.95
5.90
6.01
6.19
6.38
6.52
6.57
6.44
6.05
5.32
4.31
3.17
2.11
1.29
0.76
0.47
0.28
0.05
-0.29
-0.73
-1.24
-1.75
-2.22
-2.60
-2.95
-3.33
-3.87
-4.65
-5.71
-6.94
-8.26
-9.55
-10.81
-12.04
-13.20
-14.14
-14.62
-14.37
-13.28
-11.43
-9.09
-6.61
-4.36
-2.55
-1.22
-0.24
0.66
1.79
3.37
5.49
7.99
10.55
12.84
14.62
15.82
16.55
16.99
17.32
17.68
18.18
18.88
19.83
20.96
22.10
23.00
23.38
23.08
22.10
20.58
18.69
16.53
14.06
11.16
7.69
3.68
-0.66
-4.94
-8.76
-11.83
-14.02
-15.44
-16.25
-16.69
-16.94
-17.13
-17.40
-17.82
-18.48
-19.35
-20.36
-21.30
-21.93
-21.98
-21.25
-19.69
-17.38
-14.53
-11.45
-8.46
-5.82
-3.69
-2.09
-0.95
-0.11
0.63
1.43
2.36
3.37
4.33
5.13
5.67
5.96
6.09
6.15
6.17
6.12
5.94
5.63
5.26
4.97
4.89
5.03
5.28
5.38
5.15
4.53
3.63
2.70
1.99
1.67
1.72
2.02
2.35
2.56
2.58
2.42
2.16
1.85
1.46
0.87
-0.05
-1.36
-2.91
-4.47
-5.72
-6.46
-6.71
-6.70
-6.70
-6.96
-7.57
-8.48
-9.60
-10.86
-12.16
-13.39
-14.32
-14.66
-14.18
-12.83
-10.80
-8.47
-6.27
-4.46
-3.04
-1.84
-0.63
0.72
2.21
3.71
5.09
6.28
7.26
8.05
8.63
8.97
9.04
8.90
8.66
8.52
8.61
8.96
9.49
10.00
10.32
10.33
10.06
9.63
9.26
9.15
9.41
10.04
10.87
11.69
12.32
12.75
13.13
13.74
14.88
16.64
18.89
21.29
23.48
25.17
26.24
26.73
26.72
26.31
25.56
24.60
23.51
22.19
20.23
16.97
11.81
4.69
-3.61
-11.52
-17.23
-19.35
-17.43
-12.06
-4.47
4.01
12.30
19.70
25.74
30.11
32.56
33.06
31.84
29.44
26.49
23.59
21.09
19.13
17.69
16.62
15.80
15.10
14.48
13.96
13.62
13.50
13.59
13.80
14.06
14.36
14.83
15.61
16.77
18.14
19.37
19.99
19.66
18.28
16.15
13.84
12.00
11.15
11.42
12.52
13.76
14.35
13.74
11.96
9.72
8.18
8.57
11.62
17.22
24.33
31.20
35.75
35.95
30.32
18.40
1.17
-18.81
-37.91
-52.41
-59.68
-58.95
-51.33
-39.09
-24.52
-9.18
6.29
21.78
37.11
51.72
64.73
75.33
83.00
87.52
88.67
86.13
79.51
68.65
53.99
36.71
18.55
1.47
-12.91
-23.69
-30.82
-35.05
-37.58
-39.67
-42.25
-45.77
-50.09
-54.66
-58.82
-61.99
-63.93
-64.73
-64.78
-64.52
-64.31
-64.27
-64.36
-64.46
-64.47
-64.39
-64.34
-64.43
-64.72
-65.19
-65.71
-66.15
-66.32
-66.00
-64.94
-62.87
-59.63
-55.25
-50.01
-44.38
-38.86
-33.84
-29.51
-25.82
-22.58
-19.57
-16.65
-13.81
-11.12
-8.71
-6.68
-5.08
-3.87
-2.94
-2.16
-1.45
-0.75
-0.11
0.48
1.04
1.61
2.22
2.86
3.39
3.69
3.65
3.30
2.76
2.17
1.63
1.14
0.62
0.01
-0.71
-1.49
-2.19
-2.70
-2.97
-3.05
-3.07
-3.18
-3.54
-4.19
-5.06
-6.05
-7.01
-7.90
-8.70
-9.47
-10.25
-11.06
-11.90
-12.85
-13.99
-15.35
-16.84
-18.13
-18.78
-18.39
-16.80
-14.15
-10.83
-7.32
-4.07
-1.36
0.74
2.29
3.47
4.49
5.52
6.63
7.82
8.95
9.87
10.45
10.66
10.50
10.05
9.37
8.52
7.61
6.74
5.99
5.40
4.89
4.41
3.87
3.29
2.65
1.98
1.26
0.42
-0.54
-1.64
-2.76
-3.81
-4.66
-5.23
-5.49
-5.43
-5.10
-4.59
-4.05
-3.65
-3.55
-3.84
-4.53
-5.52
-6.63
-7.69
-8.58
-9.25
-9.72
-10.08
-10.39
-10.74
-11.26
-12.03
-13.08
-14.31
-15.39
-15.89
-15.36
-13.55
-10.53
-6.72
-2.71
0.94
3.91
6.18
7.92
9.40
10.79
12.13
13.37
14.42
15.24
15.84
16.28
16.57
16.67
16.50
16.00
15.16
14.14
13.16
12.47
12.19
12.27
12.47
12.53
12.23
11.50
10.47
9.35
8.33
7.51
6.82
6.15
5.37
4.38
3.21
1.90
0.51
-0.92
-2.36
-3.75
-5.05
-6.18
-7.14
-7.96
-8.74
-9.63
-10.72
-12.06
-13.49
-14.75
-15.47
-15.32
-14.12
-11.94
-9.04
-5.85
-2.80
-0.21
1.80
3.27
4.37
5.30
6.24
7.24
8.27
9.18
9.80
9.96
9.57
8.69
7.51
6.31
5.39
4.99
5.14
5.69
6.35
6.84
7.00
6.80
6.34
5.71
4.93
3.94
2.69
1.25
-0.17
-1.29
-1.95
-2.17
-2.19
-2.37
-2.97
-4.06
-5.45
-6.91
-8.23
-9.38
-10.40
-11.35
-12.21
-12.93
-13.43
-13.78
-14.13
-14.73
-15.76
-17.24
-19.02
-20.78
-22.17
-22.85
-22.64
-21.45
-19.37
-16.60
-13.36
-9.96
-6.64
-3.61
-1.00
1.10
2.78
4.20
5.58
7.06
8.68
10.26
11.50
12.10
11.92
11.09
9.93
8.90
8.32
8.29
8.69
9.26
9.74
9.97
9.92
9.59
9.05
8.33
7.51
6.63
5.79
5.05
4.38
3.73
2.95
1.97
0.77
-0.56
-1.85
-2.95
-3.75
-4.29
-4.66
-5.02
-5.46
-5.96
-6.51
-7.12
-7.92
-9.15
-11.00
-13.49
-16.39
-19.19
-21.38
-22.51
-22.44
-21.24
-19.18
-16.58
-13.69
-10.74
-7.89
-5.34
-3.17
-1.27
0.57
2.45
4.39
6.30
8.06
9.55
10.59
11.17
11.42
11.51
11.53
11.44
11.16
10.58
9.69
8.34
6.58
4.75
3.20
2.05
1.18
0.36
-0.67
-2.05
-4.52
-8.19
-12.31
-15.94
-18.60
-20.43
-21.91
-23.65
-25.99
-30.43
-37.07
-44.36
-50.44
-54.47
-56.88
-58.73
-61.19
-64.86
-72.03
-82.83
-94.67
-104.23
-109.63
-110.92
-109.39
-106.91
-104.91
-107.15
-114.50
-124.02
-131.17
-132.44
-126.16
-112.04
-90.85
-44.41
27.27
105.92
170.80
213.69
237.17
246.48
247.37
241.00
227.20
203.43
170.38
132.54
95.09
62.53
40.51
33.42
41.54
60.84
82.78
101.04
113.81
121.45
127.41
133.47
140.03
146.70
153.24
158.11
160.48
160.31
157.40
150.87
139.29
121.79
98.77
72.22
44.29
17.35
-6.44
-25.78
-40.29
-50.53
-57.37
-61.63
-63.88
-64.70
-64.46
-63.15
-60.63
-56.75
-51.84
-46.68
-42.33
-39.64
-38.95
-39.89
-41.65
-43.22
-43.75
-42.95
-41.01
-38.37
-35.51
-32.78
-30.34
-28.34
-26.92
-26.19
-26.11
-26.38
-26.53
-25.99
-24.42
-21.82
-18.63
-15.48
-13.04
-11.73
-11.64
-12.56
-14.06
-15.70
-17.09
-17.94
-18.14
-17.70
-16.70
-15.30
-13.72
-12.23
-11.22
-11.08
-12.06
-14.16
-17.09
-20.30
-23.20
-25.33
-26.42
-26.37
-25.21
-22.97
-19.76
-15.88
-11.80
-8.07
-5.12
-3.08
-1.72
-0.61
0.64
2.19
3.92
5.48
6.52
6.79
6.29
5.20
3.81
2.44
1.30
0.52
0.05
-0.17
-0.30
-0.42
-0.64
-0.96
-1.39
-1.91
-2.51
-3.14
-3.73
-4.28
-4.81
-5.41
-6.16
-7.09
-8.13
-9.15
-10.03
-10.69
-11.24
-11.81
-12.57
-13.64
-14.99
-16.55
-18.18
-19.71
-20.92
-21.54
-21.28
-19.90
-17.37
-13.87
-9.81
-5.72
-2.03
1.01
3.38
5.23
6.79
8.25
9.72
11.12
12.29
13.01
13.12
12.55
11.38
9.83
8.14
6.56
5.26
4.33
3.76
3.48
3.39
3.40
3.49
3.64
3.86
4.09
4.24
4.15
3.70
2.90
1.89
0.83
-0.16
-1.07
-1.97
-2.94
-4.01
-5.13
-6.22
-7.28
-8.33
-9.42
-10.53
-11.61
-12.57
-13.41
-14.23
-15.19
-16.37
-17.68
-18.81
-19.26
-18.57
-16.49
-13.14
-8.99
-4.74
-1.07
1.64
3.36
4.41
5.24
6.24
7.59
9.20
10.86
12.32
13.43
14.10
14.36
14.26
13.91
13.37
12.75
12.07
11.32
10.42
9.33
8.04
6.58
5.01
3.37
1.64
-0.21
-2.23
-4.35
-6.41
-8.18
-9.48
-10.26
-10.66
-10.94
-11.37
-12.07
-13.01
-14.00
-14.91
-15.67
-16.47
-17.54
-19.14
-21.31
-23.86
-26.33
-28.15
-28.80
-27.99
-25.73
-22.40
-18.63
-15.14
-12.56
-11.30
-11.40
-12.63
-14.53
-16.58
-18.39
-19.78
-20.83
-21.84
-23.22
-25.42
-28.78
-33.43
-39.03
-44.71
-49.11
-50.79
-48.64
-42.45
-32.97
-21.67
-10.14
0.52
9.93
18.28
25.80
32.33
37.23
39.62
38.78
34.57
27.45
18.28
8.05
-2.43
-12.59
-22.12
-30.76
-38.28
-44.39
-48.90
-51.77
-53.32
-54.12
-54.82
-55.83
-57.14
-58.25
-58.30
-56.45
-52.09
-44.99
-35.28
-23.34
-9.77
4.72
19.31
33.18
45.58
55.96
64.08
69.96
73.83
76.03
76.87
76.62
75.41
73.35
70.56
67.27
63.81
60.48
57.53
54.96
52.59
50.19
47.58
44.83
42.14
39.78
37.91
36.47
35.27
34.08
32.73
31.14
29.35
27.42
25.42
23.40
21.38
19.40
17.53
15.80
14.17
12.51
10.70
8.66
6.37
3.76
0.77
-2.65
-6.38
-10.16
-13.71
-16.80
-19.38
-21.69
-24.12
-27.11
-30.68
-34.33
-37.15
-38.23
-37.01
-33.52
-28.39
-22.72
-17.77
-14.13
-11.54
-9.30
-6.88
-4.13
-1.32
0.99
2.26
1.78
-0.22
-2.68
-4.50
-5.31
-5.44
-5.59
-6.54
-8.92
-13.55
-19.93
-26.27
-30.85
-33.08
-33.38
-32.74
-32.32
-33.18
-36.83
-43.42
-51.36
-58.51
-62.88
-62.43
-54.94
-38.83
-9.12
29.58
65.07
87.65
95.85
93.51
85.57
75.77
65.93
56.36
46.04
35.26
26.00
20.17
18.09
18.56
19.68
19.61
17.26
11.95
4.64
-2.30
-6.64
-7.36
-4.59
0.85
7.06
11.96
13.23
9.92
2.93
-5.63
-13.51
-18.96
-21.39
-21.46
-20.54
-20.19
-21.05
-22.72
-24.39
-25.68
-26.65
-27.94
-30.24
-33.76
-38.13
-42.38
-45.25
-45.66
-44.33
-41.90
-39.26
-37.19
-35.99
-35.42
-34.87
-33.73
-31.68
-28.90
-25.74
-22.71
-20.19
-18.23
-16.70
-15.44
-14.40
-13.70
-13.57
-14.06
-15.15
-16.68
-18.41
-20.01
-21.18
-21.58
-20.94
-19.09
-15.91
-11.57
-6.38
-0.79
4.77
9.99
14.70
18.85
22.40
25.34
27.55
28.88
29.24
28.66
27.36
25.71
24.12
22.85
22.05
21.64
21.50
21.51
21.67
21.96
22.37
22.78
23.02
22.91
22.37
21.43
20.26
19.05
17.93
16.93
16.02
15.11
14.15
13.13
12.09
11.06
10.10
9.20
8.30
7.28
6.02
4.46
2.60
0.62
-1.23
-2.61
-3.20
-2.78
-1.31
1.11
4.25
7.84
11.64
15.42
18.98
22.13
24.69
26.51
27.51
27.72
27.24
26.26
25.02
23.72
22.56
21.65
21.04
20.67
20.42
20.11
19.60
18.75
17.50
15.84
13.85
11.70
9.63
7.83
6.36
5.09
3.70
1.90
-0.45
-3.20
-5.95
-8.22
-9.73
-10.49
-10.80
-11.13
-11.93
-13.45
-15.70
-18.39
-21.04
-23.08
-23.95
-23.25
-20.91
-17.19
-12.62
-7.82
-3.33
0.53
3.70
6.30
8.55
10.62
12.67
14.75
16.83
18.79
20.50
21.82
22.68
23.12
23.27
23.28
23.28
23.32
23.35
23.30
23.12
22.80
22.38
21.87
21.20
20.27
18.97
17.31
15.40
13.45
11.66
10.17
8.93
7.82
6.65
5.27
3.63
1.76
-0.32
-2.54
-4.89
-7.38
-9.97
-12.55
-14.86
-16.54
-17.22
-16.65
-14.85
-12.08
-8.82
-5.50
-2.43
0.29
2.66
4.76
6.59
8.13
9.36
10.30
10.97
11.38
11.47
11.14
10.36
9.22
7.95
6.82
6.01
5.57
5.37
5.17
4.75
4.02
3.03
1.94
0.97
0.29
-0.09
-0.19
-0.18
-0.19
-0.31
-0.53
-0.79
-1.02
-1.17
-1.27
-1.38
-1.61
-2.07
-2.81
-3.82
-5.01
-6.19
-7.15
-7.73
-7.79
-7.28
-6.20
-4.58
-2.50
-0.11
2.41
4.87
7.12
9.07
10.72
12.12
13.33
14.35
15.16
15.74
16.06
16.14
16.00
15.71
15.30
14.81
14.24
13.62
12.97
12.27
11.46
10.46
9.19
7.62
5.79
3.80
1.76
-0.22
-2.07
-3.79
-5.37
-6.77
-8.02
-9.16
-10.27
-11.48
-12.87
-14.48
-16.21
-17.97
-19.61
-21.12
-22.47
-23.72
-24.88
-25.96
-26.88
-27.54
-27.85
-27.79
-27.38
-26.65
-25.57
-23.99
-21.65
-18.32
-13.86
-8.41
-2.26
4.15
10.48
16.51
22.24
27.76
33.16
38.45
43.43
47.84
51.31
53.52
54.26
53.46
51.19
47.66
43.18
38.16
33.01
28.06
23.49
19.26
15.10
10.71
5.88
0.68
-4.56
-9.32
-13.12
-15.61
-16.71
-16.55
-15.33
-13.25
-10.41
-6.82
-2.43
2.75
8.62
14.99
21.56
28.05
34.25
40.08
45.56
50.75
55.76
60.64
65.36
69.78
73.61
76.46
77.91
77.55
75.14
70.61
64.00
55.45
45.12
33.29
20.37
7.05
-5.81
-17.45
-27.36
-35.45
-41.95
-47.17
-51.28
-54.29
-56.13
-56.90
-56.96
-56.77
-56.56
-56.08
-54.61
-51.35
-45.95
-38.73
-30.70
-23.06
-16.67
-11.74
-7.91
-4.57
-1.26
2.15
5.47
8.46
11.00
13.14
14.90
16.23
16.88
16.48
14.69
11.36
6.65
1.01
-4.93
-10.57
-15.54
-19.67
-22.95
-25.46
-27.26
-28.39
-28.84
-28.69
-28.05
-27.10
-25.99
-24.89
-23.90
-23.10
-22.54
-22.20
-22.03
-21.92
-21.76
-21.43
-20.91
-20.22
-19.49
-18.86
-18.45
-18.34
-18.53
-18.91
-19.34
-19.61
-19.48
-18.75
-17.32
-15.21
-12.59
-9.76
-7.00
-4.52
-2.37
-0.47
1.31
3.04
4.71
6.21
7.42
8.23
8.63
8.67
8.41
7.93
7.33
6.69
6.12
5.69
5.40
5.20
4.99
4.72
4.36
3.93
3.50
3.09
2.69
2.19
1.49
0.59
-0.44
-1.41
-2.21
-2.80
-3.30
-3.89
-4.71
-5.78
-6.93
-7.91
-8.50
-8.56
-8.09
-7.16
-5.86
-4.28
-2.52
-0.70
1.03
2.57
3.86
4.95
5.88
6.67
7.31
7.70
7.75
7.45
6.89
6.22
5.63
5.20
4.95
4.79
4.60
4.34
3.99
3.61
3.26
2.97
2.73
2.47
2.13
1.63
0.99
0.26
-0.45
-1.05
-1.52
-1.94
-2.49
-3.31
-4.45
-5.83
-7.23
-8.40
-9.19
-9.56
-9.59
-9.40
-9.05
-8.53
-7.80
-6.82
-5.61
-4.24
-2.82
-1.43
-0.14
1.06
2.14
3.09
3.82
4.26
4.38
4.17
3.74
3.24
2.81
2.52
2.36
2.25
2.11
1.90
1.64
1.40
1.21
1.07
0.96
0.81
0.62
0.37
0.10
-0.15
-0.36
-0.53
-0.73
-1.03
-1.53
-2.23
-3.10
-3.99
-4.72
-5.21
-5.52
-5.82
-6.30
-7.02
-7.84
-8.48
-8.59
-8.00
-6.78
-5.20
-3.61
-2.27
-1.24
-0.40
0.38
1.19
2.00
2.72
3.22
3.44
3.39
3.10
2.68
2.25
1.92
1.76
1.78
1.93
2.08
2.12
1.99
1.72
1.42
1.17
1.07
1.09
1.19
1.25
1.14
0.73
-0.00
-1.03
-2.18
-3.23
-3.97
-4.33
-4.36
-4.24
-4.23
-4.49
-5.11
-6.04
-7.12
-8.14
-8.88
-9.19
-9.01
-8.38
-7.40
-6.21
-4.89
-3.50
-2.13
-0.83
0.33
1.31
2.09
2.73
3.24
3.63
3.87
3.94
3.83
3.58
3.21
2.80
2.39
2.05
1.83
1.77
1.86
2.09
2.36
2.61
2.76
2.80
2.71
2.51
2.27
2.05
1.91
1.86
1.84
1.78
1.54
1.07
0.38
-0.41
-1.17
-1.76
-2.14
-2.35
-2.51
-2.77
-3.22
-3.88
-4.69
-5.58
-6.42
-7.16
-7.74
-8.17
-8.37
-8.30
-7.84
-6.95
-5.68
-4.19
-2.72
-1.47
-0.58
0.02
0.49
1.05
1.84
2.87
3.96
4.86
5.35
5.36
4.98
4.38
3.78
3.32
3.08
3.03
3.15
3.35
3.55
3.65
3.57
3.25
2.75
2.18
1.67
1.29
1.04
0.82
0.59
0.29
-0.03
-0.33
-0.60
-0.85
-1.15
-1.50
-1.90
-2.25
-2.49
-2.59
-2.58
-2.59
-2.78
-3.24
-4.00
-4.96
-6.01
-7.04
-7.95
-8.68
-9.18
-9.36
-9.09
-8.30
-6.98
-5.23
-3.28
-1.41
0.15
1.30
2.11
2.72
3.26
3.82
4.34
4.73
4.88
4.78
4.52
4.25
4.08
4.03
4.03
3.98
3.76
3.38
2.89
2.43
2.09
1.89
1.74
1.50
1.04
0.34
-0.45
-1.14
-1.53
-1.60
-1.46
-1.35
-1.48
-1.91
-2.59
-3.33
-3.95
-4.36
-4.57
-4.63
-4.66
-4.72
-4.92
-5.30
-5.85
-6.47
-6.99
-7.19
-6.92
-6.15
-5.01
-3.68
-2.37
-1.18
-0.14
0.83
1.79
2.74
3.62
4.33
4.79
4.98
4.94
4.76
4.52
4.26
3.98
3.69
3.42
3.21
3.09
3.06
3.09
3.13
3.10
2.99
2.79
2.54
2.28
2.05
1.88
1.74
1.54
1.25
0.84
0.37
-0.08
-0.40
-0.55
-0.52
-0.36
-0.16
0.05
0.23
0.31
0.25
-0.00
-0.41
-0.83
-1.05
-0.94
-0.51
0.05
0.50
0.68
0.62
0.64
1.19
2.60
4.85
7.57
10.22
12.36
13.87
14.93
16.01
17.61
19.92
22.65
25.14
26.58
26.38
24.27
20.39
15.29
9.89
5.16
1.83
0.25
0.24
1.03
1.80
1.04
-2.90
-10.55
-20.77
-31.29
-39.81
-44.87
-46.24
-44.78
-41.84
-38.54
-35.27
-31.86
-28.17
-24.31
-20.78
-18.27
-17.24
-17.69
-18.95
-19.94
-19.65
-17.72
-14.52
-10.90
-7.86
-6.18
-6.26
-8.11
-11.74
-16.49
-21.64
-26.18
-28.80
-28.51
-25.09
-19.45
-13.31
-8.45
-5.91
-5.64
-6.61
-7.40
-7.14
-5.90
-4.40
-3.45
-3.29
-3.46
-3.14
-1.72
0.95
4.30
7.36
9.31
10.02
10.25
11.39
15.04
21.18
29.63
39.59
49.88
59.33
66.97
72.13
74.31
73.11
68.29
60.17
49.57
37.71
26.01
15.74
7.74
2.43
-0.18
-0.29
1.77
5.36
9.49
12.88
14.18
12.12
5.83
-4.97
-19.99
-38.29
-58.57
-79.29
-98.69
-114.76
-125.48
-129.18
-125.09
-113.82
-97.24
-78.04
-58.81
-41.24
-25.78
-11.96
0.99
13.55
25.78
37.52
48.79
59.95
71.54
83.87
96.69
109.08
119.55
126.44
128.39
124.74
115.85
103.02
88.21
73.40
60.03
48.80
39.69
32.47
26.93
23.01
20.58
19.20
18.12
16.58
14.28
11.73
10.01
10.22
12.72
16.88
21.23
24.17
24.63
22.38
17.81
11.39
3.32
-6.51
-18.10
-31.00
-44.19
-56.45
-66.86
-75.07
-81.16
-85.38
-87.85
-88.42
-87.01
-83.76
-79.40
-74.85
-70.39
-65.36
-58.51
-48.92
-36.37
-21.89
-7.11
5.74
14.78
19.49
20.88
20.68
20.32
20.83
22.00
23.31
23.33
20.36
13.77
4.46
-5.58
-14.19
-18.60
-16.95
-7.86
7.38
24.55
38.05
42.37
33.71
10.57
-24.72
-68.08
-106.24
-124.37
-117.04
-92.36
-63.64
-39.75
-28.24
-25.09
-26.74
-30.44
-35.43
-42.55
-48.28
-49.76
-44.89
-33.86
-18.21
-1.17
15.17
29.98
43.79
58.28
74.69
92.86
110.26
123.44
128.59
123.92
109.85
88.59
63.19
36.56
11.22
-11.18
-29.42
-42.96
-51.48
-55.05
-54.42
-51.39
-48.27
-46.77
-47.71
-50.82
-54.93
-58.39
-59.41
-56.36
-49.32
-39.52
-28.32
-16.81
-5.73
5.75
15.90
22.22
26.19
29.49
32.73
34.94
35.65
34.33
30.70
24.06
13.86
1.43
-12.44
-27.53
-41.26
-50.66
-54.87
-54.08
-48.49
-38.36
-20.17
7.26
41.82
79.58
117.04
148.16
169.97
182.38
178.47
158.61
129.08
97.86
69.77
45.52
23.88
4.42
-12.79
-27.61
-38.97
-47.23
-53.98
-60.67
-67.98
-75.78
-83.26
-89.77
-94.99
-98.58
-99.50
-97.66
-93.60
-88.08
-81.76
-74.91
-67.70
-60.34
-52.40
-43.89
-35.33
-27.53
-21.20
-16.64
-13.65
-11.77
-10.27
-8.04
-5.39
-2.26
1.37
5.33
9.25
12.68
15.21
17.02
18.66
21.14
26.13
34.93
47.60
63.02
79.22
94.07
106.13
114.21
117.74
117.48
114.30
108.16
98.76
86.15
71.37
56.64
43.51
32.30
23.12
14.79
4.93
-7.87
-22.68
-38.74
-50.91
-54.82
-49.49
-36.02
-14.86
12.20
43.32
76.25
108.15
135.49
153.92
151.21
123.57
79.01
31.90
-6.21
-31.39
-45.80
-54.23
-61.43
-69.95
-78.13
-82.93
-84.14
-81.93
-77.67
-72.85
-68.40
-64.57
-60.82
-55.16
-46.24
-34.75
-22.70
-12.58
-4.91
-0.01
2.48
3.29
3.87
5.11
6.70
7.74
7.25
4.89
0.80
-4.39
-9.98
-15.07
-19.14
-22.23
-24.69
-26.93
-29.10
-31.29
-33.35
-35.08
-36.25
-36.78
-36.82
-36.61
-36.32
-35.97
-35.50
-34.72
-33.45
-31.62
-29.31
-26.58
-23.53
-20.20
-16.64
-12.96
-9.28
-5.81
-2.71
-0.16
1.80
3.26
4.38
5.36
6.29
7.09
7.55
7.45
6.68
5.37
3.84
2.50
1.65
1.39
1.65
2.23
2.98
3.79
4.61
5.41
6.10
6.62
6.91
7.02
7.02
6.99
6.98
6.97
6.94
6.86
6.72
6.49
6.10
5.44
4.36
2.83
0.93
-1.07
-2.80
-3.97
-4.41
-4.14
-3.34
-2.24
-1.02
0.22
1.46
2.77
4.23
5.89
7.72
9.57
11.24
12.45
13.01
12.86
12.07
10.86
9.47
8.07
6.73
5.46
4.24
3.09
2.07
1.26
0.64
0.09
-0.64
-1.80
-3.53
-5.78
-8.29
-10.70
-12.74
-14.33
-15.61
-16.80
-18.08
-19.49
-20.87
-21.96
-22.60
-22.77
-22.61
-22.26
-21.86
-21.46
-21.06
-20.76
-20.73
-21.17
-22.14
-23.49
-24.79
-25.54
-25.34
-24.12
-22.12
-19.78
-17.52
-15.54
-13.83
-12.27
-10.80
-9.47
-8.45
-7.85
-7.68
-7.83
-8.15
-8.57
-9.09
-9.82
-10.83
-12.09
-13.50
-14.91
-16.18
-17.19
-17.84
-17.99
-17.56
-16.51
-14.93
-13.04
-11.09
-9.34
-7.93
-6.90
-6.26
-6.01
-6.20
-6.91
-8.24
-10.22
-12.76
-15.67
-18.63
-21.24
-23.06
-23.70
-22.84
-20.34
-16.18
-10.52
-3.60
4.24
12.66
21.33
29.97
38.36
46.34
53.76
60.45
66.20
70.79
74.01
75.77
76.07
75.08
73.08
70.42
67.49
64.57
61.88
59.51
57.46
55.68
54.10
52.60
51.07
49.45
47.75
46.12
44.77
43.89
43.58
43.76
44.21
44.68
44.99
45.14
45.24
45.44
45.86
46.53
47.43
48.50
49.78
51.33
53.30
55.77
58.74
62.00
65.24
68.07
70.12
71.18
71.14
70.01
67.78
64.44
59.88
54.01
46.79
38.32
28.91
19.08
9.51
0.94
-5.99
-10.89
-13.69
-14.62
-14.10
-12.63
-10.70
-8.71
-7.02
-5.93
-5.73
-6.65
-8.88
-12.55
-17.71
-24.33
-32.20
-40.96
-50.12
-59.15
-67.59
-75.19
-81.85
-87.55
-92.26
-95.90
-98.39
-99.77
-100.26
-100.10
-99.57
-98.78
-97.76
-96.46
-94.87
-92.97
-90.68
-87.73
-83.76
-78.43
-71.61
-63.54
-54.78
-45.95
-37.62
-30.08
-23.37
-17.41
-12.12
-7.40
-3.17
0.78
4.73
9.04
13.95
19.51
25.49
31.45
36.92
41.59
45.33
48.29
50.69
52.75
54.53
55.97
56.95
57.34
57.08
56.14
54.56
52.45
50.00
47.50
45.23
43.33
41.70
40.02
37.92
35.19
31.88
28.25
24.58
21.02
17.49
13.74
9.59
5.03
0.23
-4.60
-9.39
-14.15
-18.95
-23.76
-28.44
-32.73
-36.37
-39.28
-41.60
-43.58
-45.43
-47.20
-48.85
-50.33
-51.58
-52.37
-52.57
-52.24
-51.63
-51.01
-50.64
-50.65
-51.01
-51.36
-50.57
-47.59
-41.84
-33.18
-21.63
-7.12
10.40
30.72
53.08
76.90
100.78
122.64
140.47
153.04
160.18
162.41
160.31
154.24
145.37
134.45
121.76
107.58
92.73
78.72
67.35
60.11
50.91
37.08
19.56
1.48
-15.17
-30.70
-46.38
-62.83
-79.41
-94.49
-105.25
-110.04
-109.22
-104.75
-99.02
-93.68
-89.29
-85.62
-82.22
-78.18
-73.29
-68.15
-63.58
-59.90
-56.88
-54.11
-51.65
-50.02
-49.06
-47.74
-44.24
-36.44
-23.15
-5.17
14.45
31.63
42.94
47.01
44.73
38.19
29.23
18.64
6.47
-6.81
-19.51
-28.93
-32.60
-29.95
-22.84
-14.71
-8.54
-5.17
-2.74
1.98
11.47
25.37
40.44
52.27
57.38
55.03
47.24
37.49
28.82
22.50
18.25
14.38
9.69
3.67
-3.57
-11.87
-21.15
-31.55
-42.98
-53.85
-62.53
-67.30
-67.34
-62.99
-55.72
-47.33
-39.30
-32.12
-25.24
-17.69
-8.06
4.20
18.71
34.22
49.02
61.07
68.52
68.88
62.34
50.06
33.99
16.94
0.63
-13.14
-23.14
-28.77
-30.11
-27.61
-22.48
-16.19
-10.06
-4.75
-0.03
5.02
11.72
21.02
32.98
46.03
57.59
65.07
67.06
63.38
55.24
44.82
33.05
21.79
12.29
4.95
-0.59
-4.73
-8.30
-11.91
-15.79
-19.91
-24.18
-28.39
-32.02
-34.41
-34.72
-33.62
-32.71
-33.67
-34.02
-30.74
-21.38
-5.53
12.32
30.95
48.59
63.51
74.97
82.74
87.38
89.84
90.96
91.16
90.88
89.80
87.77
85.23
83.09
82.18
83.02
85.62
89.58
94.56
99.59
103.82
106.64
107.76
106.91
103.82
98.27
90.25
80.30
69.02
57.11
44.91
32.19
18.15
2.13
-15.50
-32.89
-46.97
-54.99
-55.74
-50.45
-42.29
-35.05
-31.34
-31.48
-33.62
-35.03
-33.97
-30.65
-27.34
-27.29
-33.51
-47.67
-69.59
-97.35
-127.60
-156.27
-179.37
-194.07
-199.45
-196.96
-189.82
-181.86
-176.19
-174.26
-175.75
-179.23
-182.93
-185.31
-185.14
-181.39
-173.07
-159.42
-140.24
-116.13
-88.48
-59.15
-29.90
-2.04
23.69
46.99
67.61
85.08
98.55
107.04
109.88
107.25
100.44
91.55
82.90
76.23
72.16
70.08
68.56
66.01
61.22
53.68
43.61
31.76
19.15
6.89
-4.02
-12.72
-18.61
-21.43
-21.33
-18.96
-15.41
-12.03
-10.17
-10.82
-14.22
-19.73
-25.95
-31.08
-33.41
-31.81
-26.07
-16.84
-5.46
6.37
17.09
25.39
30.50
32.07
30.23
25.53
18.96
11.84
5.59
1.41
-0.10
0.85
3.35
6.11
7.93
8.08
6.39
3.23
-0.82
-5.06
-8.93
-12.02
-14.13
-15.22
-15.35
-14.74
-13.54
-11.91
-9.97
-7.87
-5.78
-3.92
-2.45
-1.39
-0.67
-0.15
0.29
0.63
0.78
0.65
0.28
-0.17
-0.41
-0.25
0.34
1.16
1.84
2.07
1.69
0.80
-0.34
-1.38
-2.10
-2.36
-2.18
-1.59
-0.62
0.75
2.50
4.60
6.91
9.27
11.49
13.35
14.72
15.53
15.82
15.71
15.39
15.11
15.05
15.30
15.83
16.49
17.06
17.34
17.23
16.74
15.99
15.18
14.49
14.00
13.63
13.26
12.70
11.87
10.76
9.42
7.93
6.34
4.64
2.83
0.93
-1.03
-2.93
-4.70
-6.28
-7.53
-8.27
-8.20
-7.02
-4.45
-0.46
4.79
10.88
17.21
23.19
28.31
32.20
34.72
35.93
35.97
35.03
33.15
30.21
26.00
20.32
13.21
5.07
-3.37
-11.22
-17.69
-22.27
-24.95
-26.14
-26.60
-27.18
-28.57
-31.05
-34.40
-37.97
-40.89
-42.42
-42.13
-40.02
-36.45
-31.96
-27.12
-22.43
-18.41
-15.51
-14.11
-14.35
-16.01
-18.47
-20.82
-22.17
-21.71
-19.02
-13.99
-6.84
1.93
11.64
21.48
30.60
38.27
43.94
47.34
48.46
47.51
44.80
40.71
35.67
30.01
24.05
18.06
12.31
7.15
3.00
0.31
-0.62
0.30
2.86
6.58
10.79
14.77
17.85
19.47
19.26
17.07
13.03
7.49
1.00
-5.83
-12.48
-18.59
-23.97
-28.57
-32.37
-35.36
-37.49
-38.74
-39.12
-38.69
-37.55
-35.85
-33.76
-31.53
-29.43
-27.77
-26.70
-26.19
-25.95
-25.51
-24.46
-22.62
-20.15
-17.45
-14.95
-12.89
-11.21
-9.57
-7.55
-4.81
-1.27
2.84
7.10
10.99
14.06
16.02
16.76
16.37
15.14
13.47
11.82
10.53
9.72
9.26
8.81
8.12
7.12
6.05
5.41
5.68
7.06
9.34
11.89
13.82
14.21
12.29
7.64
0.24
-9.40
-20.29
-31.15
-40.71
-48.00
-52.57
-54.53
-54.33
-52.58
-49.81
-46.35
-42.33
-37.75
-32.66
-27.16
-21.55
-16.15
-11.27
-7.01
-3.21
0.53
4.59
9.18
14.19
19.24
23.84
27.61
30.34
32.11
33.34
35.00
38.59
45.77
57.64
73.94
92.60
110.09
122.52
126.98
122.63
110.86
94.55
76.85
60.13
45.40
32.42
20.13
7.31
-6.84
-22.19
-37.38
-49.99
-57.05
-56.04
-45.76
-26.72
-0.96
28.64
59.06
87.68
112.57
132.36
146.40
154.84
158.73
159.77
159.71
159.61
159.26
157.32
151.93
141.73
126.50
107.34
85.95
63.90
42.02
20.45
-0.76
-21.06
-39.15
-53.35
-62.40
-66.19
-65.97
-63.93
-62.42
-63.11
-66.58
-72.32
-79.18
-85.85
-91.29
-94.91
-96.60
-96.65
-95.61
-94.15
-92.90
-92.35
-92.73
-93.89
-95.23
-95.72
-94.16
-89.59
-81.77
-71.49
-60.43
-50.70
-43.98
-40.91
-40.93
-42.49
-43.79
-43.46
-40.82
-35.86
-29.04
-21.19
-13.52
-7.47
-4.13
-3.52
-4.17
-3.37
1.62
12.13
27.01
42.90
55.46
61.24
58.78
49.04
34.64
18.40
2.41
-12.31
-25.41
-36.72
-45.87
-52.39
-55.82
-55.89
-52.87
-47.66
-41.47
-35.43
-30.18
-25.74
-21.94
-18.24
-14.08
-9.37
-4.62
-0.71
1.64
2.06
0.52
-3.72
-10.86
-20.49
-32.15
-45.50
-60.01
-74.67
-88.19
-99.45
-109.62
-119.39
-128.37
-136.03
-142.33
-147.28
-150.32
-150.46
-146.95
-142.52
-138.97
-136.30
-134.10
-132.63
-132.20
-132.24
-131.50
-128.74
-126.56
-125.40
-122.67
-115.27
-102.00
-83.41
-60.60
-34.72
14.29
85.15
158.09
213.46
245.34
257.61
256.79
249.00
238.85
229.08
217.11
201.43
183.11
163.84
144.68
125.33
106.24
88.61
73.79
60.03
46.71
35.24
27.22
22.94
21.73
22.97
26.13
30.68
35.17
38.65
41.85
45.90
51.01
56.28
60.38
61.82
59.49
52.32
40.92
27.67
15.37
5.76
-1.00
-5.83
-10.02
-14.25
-18.47
-21.52
-21.59
-17.42
-8.98
2.54
15.55
28.82
41.81
54.50
66.62
77.43
85.80
90.85
92.69
92.48
91.71
91.09
89.90
86.11
77.58
63.39
44.58
23.74
3.85
-13.05
-26.48
-37.19
-46.39
-54.69
-61.83
-66.94
-69.15
-68.24
-64.97
-60.95
-58.09
-57.97
-61.25
-67.42
-75.11
-82.57
-88.30
-91.50
-92.21
-91.21
-89.68
-88.79
-89.30
-90.99
-92.48
-91.37
-85.09
-72.10
-52.91
-30.26
-8.25
9.22
19.82
23.53
22.00
17.29
10.71
2.08
-9.78
-26.11
-47.13
-71.46
-96.23
-117.71
-132.20
-136.76
-129.90
-111.96
-85.36
-54.35
-24.11
0.91
18.71
30.71
41.11
54.61
73.50
95.84
115.66
125.61
120.46
99.87
68.70
34.82
5.74
-14.23
-24.86
-28.96
-30.15
-31.02
-32.31
-33.43
-33.36
-31.48
-27.68
-21.97
-13.98
-2.94
11.70
29.46
48.19
64.43
74.34
75.19
66.43
50.05
29.92
10.56
-4.21
-12.20
-13.15
-8.42
-0.12
9.61
19.38
28.67
37.58
46.31
54.55
61.31
65.10
64.48
58.72
48.26
34.83
21.19
10.52
5.65
8.38
18.83
35.22
54.16
71.43
83.14
86.88
82.40
71.40
56.84
41.73
28.11
16.71
7.14
-1.55
-10.10
-18.64
-26.60
-32.96
-36.66
-37.10
-34.21
-28.57
-21.19
-13.23
-5.69
0.71
5.64
9.14
11.38
12.77
13.63
14.23
14.69
15.11
15.60
16.40
17.78
19.92
22.78
25.97
28.96
31.35
33.01
34.15
35.16
36.28
37.49
38.53
38.99
38.62
37.42
35.63
33.73
32.27
31.81
32.66
34.78
37.69
40.64
42.79
43.41
42.04
38.47
32.77
25.12
15.94
5.93
-3.89
-12.30
-18.26
-21.12
-20.92
-18.27
-14.14
-9.48
-4.95
-0.86
2.70
5.55
7.32
7.44
5.36
0.81
-6.10
-14.95
-25.27
-36.64
-48.71
-60.97
-72.65
-82.69
-90.11
-94.43
-95.87
-95.28
-93.68
-91.72
-89.38
-86.02
-80.90
-73.66
-64.77
-55.38
-47.04
-41.06
-38.08
-38.00
-40.08
-43.25
-46.40
-48.47
-48.55
-45.86
-39.97
-30.93
-19.44
-6.78
5.59
16.42
25.05
31.48
36.22
39.94
43.16
46.06
48.48
50.07
50.43
49.25
46.41
42.10
36.74
31.01
25.64
21.23
18.02
15.84
14.14
12.14
9.16
4.90
-0.41
-6.03
-10.84
-13.63
-13.45
-9.90
-3.37
5.01
13.59
20.65
24.91
25.86
23.83
19.79
14.91
10.13
5.79
1.75
-2.47
-7.23
-12.44
-17.48
-21.39
-23.26
-22.68
-19.89
-15.66
-10.93
-6.46
-2.59
0.59
3.11
4.91
5.89
6.00
5.38
4.33
3.22
2.32
1.77
1.53
1.51
1.61
1.77
2.09
2.89
4.71
8.21
13.86
21.51
30.26
38.40
43.95
45.28
41.78
34.08
23.86
13.24
4.00
-2.89
-7.43
-10.24
-12.12
-13.61
-14.87
-15.76
-16.10
-15.79
-14.94
-13.77
-12.48
-11.21
-10.12
-9.35
-9.09
-9.58
-10.92
-13.11
-15.91
-18.91
-21.52
-23.11
-23.19
-21.51
-18.10
-13.24
-7.35
-0.90
5.62
11.78
17.19
21.53
24.55
26.07
26.09
24.89
23.07
21.56
21.34
23.19
27.28
33.15
39.79
46.08
51.12
54.52
56.31
56.74
56.14
54.72
52.68
50.29
47.83
45.49
43.19
40.49
36.79
31.62
24.91
17.18
9.42
2.72
-2.18
-5.27
-7.23
-9.30
-12.68
-18.08
-25.44
-33.93
-42.25
-49.12
-53.62
-55.35
-54.49
-51.59
-47.36
-42.49
-37.51
-32.75
-28.35
-24.32
-20.64
-17.36
-14.63
-12.67
-11.65
-11.64
-12.49
-13.81
-15.09
-15.84
-15.63
-14.24
-11.64
-8.00
-3.63
1.07
5.69
9.82
13.08
15.19
16.00
15.58
14.23
12.43
10.75
9.58
9.05
8.94
8.82
8.24
6.99
5.16
3.13
1.38
0.23
-0.28
-0.40
-0.59
-1.32
-2.91
-5.44
-8.74
-12.40
-15.90
-18.61
-20.02
-19.73
-17.67
-14.06
-9.46
-4.59
-0.17
3.33
5.81
7.51
8.86
10.21
11.69
13.09
13.97
13.94
12.82
10.77
8.19
5.52
3.11
1.14
-0.35
-1.37
-1.95
-2.06
-1.72
-1.00
-0.07
0.81
1.39
1.53
1.19
0.47
-0.40
-1.18
-1.63
-1.70
-1.49
-1.24
-1.21
-1.61
-2.47
-3.68
-5.07
-6.47
-7.81
-9.07
-10.32
-11.60
-12.84
-14.00
-15.05
-16.09
-17.30
-18.94
-21.17
-24.00
-27.21
-30.36
-32.90
-34.18
-33.74
-31.35
-27.15
-21.62
-15.46
-9.40
-4.05
0.31
3.62
6.05
7.89
9.43
10.96
12.65
14.50
16.38
18.02
19.18
19.75
19.76
19.44
19.02
18.73
18.66
18.86
19.31
19.96
20.70
21.32
21.61
21.35
20.44
18.82
16.60
13.96
11.14
8.38
5.89
3.77
1.98
0.40
-1.14
-2.76
-4.46
-6.17
-7.80
-9.33
-10.83
-12.42
-14.23
-16.31
-18.66
-21.14
-23.57
-25.65
-27.07
-27.52
-26.72
-24.64
-21.31
-17.01
-11.99
-6.53
-0.83
4.86
10.24
14.99
18.74
21.29
22.56
22.70
21.92
20.48
18.63
16.61
14.66
13.02
11.85
11.17
10.80
10.44
9.82
8.81
7.47
5.95
4.42
2.97
1.57
0.15
-1.30
-2.67
-3.79
-4.43
-4.49
-4.02
-3.22
-2.43
-1.95
-1.96
-2.44
-3.21
-4.03
-4.70
-5.15
-5.46
-5.79
-6.37
-7.40
-8.98
-11.09
-13.48
-15.73
-17.22
-17.33
-15.56
-11.79
-6.28
0.36
7.40
14.26
20.61
26.49
32.06
37.52
42.88
47.97
52.56
56.48
59.73
62.42
64.66
66.38
67.35
67.16
65.53
62.32
57.70
52.05
45.90
39.82
34.31
29.79
26.42
24.12
22.48
20.91
18.88
16.17
13.00
9.86
7.31
5.61
4.67
4.10
3.57
3.00
2.60
2.79
3.85
5.78
8.26
10.83
12.99
14.35
14.62
13.55
11.05
7.21
2.31
-3.20
-8.78
-13.86
-17.78
-19.82
-19.28
-15.69
-9.19
-0.74
7.91
14.63
17.57
15.63
8.85
-1.79
-14.66
-27.96
-40.16
-50.45
-59.13
-67.80
-79.04
-95.50
-118.59
-147.23
-177.23
-202.03
-214.60
-209.69
-185.50
-144.13
-90.77
-32.27
24.23
72.30
106.95
125.17
126.44
112.95
89.19
60.89
33.21
9.32
-9.96
-25.32
-37.77
-47.76
-55.10
-59.44
-60.61
-59.21
-56.65
-54.56
-54.17
-56.03
-60.36
-67.35
-77.11
-89.02
-101.83
-113.85
-123.07
-127.21
-124.25
-113.31
-95.12
-71.90
-46.30
-20.87
2.38
22.80
41.67
61.51
84.66
110.68
133.28
145.33
144.62
133.97
118.13
101.68
87.76
77.36
69.66
63.35
58.16
54.81
53.79
54.42
54.81
52.38
44.91
31.71
14.40
-3.55
-18.59
-28.93
-35.08
-38.88
-42.19
-45.94
-50.40
-54.35
-56.46
-56.04
-53.32
-49.13
-44.19
-38.92
-33.53
-28.28
-23.55
-19.94
-18.18
-18.92
-22.46
-28.44
-35.97
-43.80
-50.79
-55.88
-58.45
-58.28
-55.35
-49.81
-41.79
-31.42
-18.66
-4.74
9.15
21.94
32.95
42.04
49.50
55.78
61.24
66.03
70.01
73.11
75.33
76.70
77.32
77.28
76.58
75.16
72.87
69.50
64.97
59.35
52.82
45.69
38.31
30.98
23.89
17.05
10.29
3.41
-3.74
-11.23
-18.96
-26.66
-33.94
-40.37
-45.59
-49.55
-52.41
-54.52
-56.29
-57.99
-59.67
-61.11
-61.88
-61.49
-59.60
-56.02
-50.88
-44.66
-37.98
-31.43
-25.41
-19.99
-15.01
-10.23
-5.60
-1.28
2.33
4.80
5.85
5.50
3.98
1.71
-0.87
-3.34
-5.38
-6.73
-7.21
-6.73
-5.30
-3.06
-0.23
2.92
6.11
9.11
11.71
13.75
15.10
15.73
15.69
15.05
13.91
12.31
10.26
7.71
4.69
1.33
-2.12
-5.33
-8.02
-10.06
-11.49
-12.54
-13.51
-14.67
-16.18
-17.97
-19.85
-21.42
-22.27
-22.05
-20.52
-17.68
-13.66
-8.77
-3.43
1.98
7.12
11.79
15.94
19.59
22.75
25.34
27.14
27.86
27.24
25.16
21.72
17.26
12.26
7.26
2.72
-1.05
-3.93
-5.93
-7.14
-7.60
-7.32
-6.25
-4.41
-1.96
0.84
3.73
6.62
9.64
13.13
17.49
23.11
30.20
38.73
48.50
59.10
69.99
80.58
90.28
98.65
105.38
110.23
112.93
113.11
110.38
104.48
95.51
83.95
70.62
56.43
42.23
28.64
16.12
4.97
-4.64
-12.62
-19.08
-24.32
-28.75
-32.79
-36.69
-40.45
-43.84
-46.51
-48.15
-48.60
-47.94
-46.42
-44.36
-42.03
-39.64
-37.28
-34.97
-32.71
-30.40
-27.97
-25.31
-22.37
-19.17
-15.88
-12.71
-9.91
-7.69
-6.17
-5.32
-4.94
-4.78
-4.57
-4.18
-3.61
-3.04
-2.66
-2.64
-2.99
-3.59
-4.30
-5.06
-5.94
-7.06
-8.52
-10.32
-12.37
-14.56
-16.84
-19.20
-21.70
-24.38
-27.19
-30.08
-32.98
-35.82
-38.50
-40.86
-42.57
-43.26
-42.56
-40.28
-36.43
-31.16
-24.76
-17.46
-9.49
-1.08
7.53
16.03
24.11
31.45
37.81
43.02
47.02
49.85
51.62
52.54
52.82
52.66
52.19
51.44
50.37
48.91
46.99
44.62
41.87
38.84
35.67
32.45
29.23
26.04
22.89
19.80
16.82
14.03
11.49
9.20
7.12
5.20
3.30
1.32
-0.83
-3.17
-5.61
-7.99
-10.14
-11.97
-13.52
-14.92
-16.32
-17.79
-19.27
-20.58
-21.55
-22.01
-21.92
-21.28
-20.11
-18.43
-16.31
-13.83
-11.09
-8.27
-5.49
-2.86
-0.41
1.84
3.91
5.85
7.64
9.28
10.73
11.94
12.88
13.53
13.89
14.00
13.94
13.86
13.92
14.28
14.98
15.95
16.93
17.55
17.43
16.26
13.93
10.49
6.10
0.98
-4.67
-10.65
-16.72
-22.66
-28.21
-33.21
-37.53
-41.20
-44.26
-46.78
-48.77
-50.20
-51.01
-51.18
-50.75
-49.82
-48.50
-46.87
-44.95
-42.70
-40.11
-37.11
-33.66
-29.69
-25.15
-19.98
-14.26
-8.16
-1.91
4.22
10.00
15.32
20.09
24.28
27.88
30.88
33.33
35.31
36.89
38.09
38.90
39.31
39.34
39.09
38.66
38.14
37.50
36.66
35.52
34.08
32.42
30.69
29.05
27.56
26.24
25.03
23.87
22.70
21.51
20.26
18.97
17.66
16.38
15.17
14.10
13.10
12.09
10.92
9.43
7.55
5.36
3.02
0.71
-1.35
-3.07
-4.41
-5.40
-6.12
-6.71
-7.29
-7.98
-8.92
-10.12
-11.58
-13.19
-14.79
-16.16
-17.10
-17.43
-17.07
-16.10
-14.65
-12.99
-11.33
-9.82
-8.52
-7.39
-6.39
-5.44
-4.49
-3.48
-2.39
-1.26
-0.24
0.46
0.70
0.46
-0.07
-0.60
-0.85
-0.71
-0.25
0.32
0.80
1.14
1.37
1.61
1.98
2.49
3.05
3.57
3.97
4.25
4.53
4.90
5.43
6.12
6.86
7.47
7.83
7.85
7.55
7.03
6.40
5.75
5.10
4.43
3.64
2.69
1.53
0.16
-1.40
-3.14
-5.10
-7.33
-9.81
-12.40
-14.79
-16.57
-17.36
-17.01
-15.65
-13.67
-11.56
-9.67
-8.13
-6.81
-5.50
-4.02
-2.32
-0.50
1.35
3.23
5.27
7.62
10.39
13.50
16.63
19.43
21.58
23.05
24.09
25.16
26.70
28.95
31.76
34.71
37.25
38.96
39.65
39.30
38.07
36.12
33.54
30.33
26.39
21.57
15.68
8.65
0.54
-8.31
-17.36
-25.96
-33.53
-39.63
-44.02
-46.60
-47.40
-46.60
-44.53
-41.74
-38.85
-36.40
-34.59
-33.31
-32.18
-30.83
-29.05
-26.90
-24.62
-22.49
-20.71
-19.29
-18.15
-17.12
-16.10
-15.00
-13.78
-12.42
-10.88
-9.14
-7.19
-5.11
-2.99
-0.97
0.80
2.25
3.38
4.35
5.36
6.54
7.93
9.41
10.81
11.97
12.82
13.41
13.86
14.21
14.47
14.54
14.32
13.72
12.76
11.47
9.92
8.13
6.13
3.96
1.70
-0.55
-2.73
-4.84
-6.93
-9.07
-11.27
-13.50
-15.72
-17.88
-20.03
-22.27
-24.67
-27.26
-29.94
-32.49
-34.62
-36.00
-36.33
-35.34
-32.84
-28.72
-22.98
-15.75
-7.27
2.11
11.98
21.87
31.39
40.14
47.79
54.11
58.93
62.16
63.80
63.89
62.52
59.86
56.10
51.52
46.48
41.29
36.20
31.32
26.61
21.99
17.40
12.90
8.66
4.91
1.80
-0.63
-2.51
-4.06
-5.55
-7.15
-8.96
-10.97
-13.00
-14.88
-16.38
-17.34
-17.70
-17.55
-17.09
-16.62
-16.41
-16.65
-17.42
-18.68
-20.34
-22.26
-24.34
-26.39
-28.21
-29.52
-30.08
-29.74
-28.51
-26.59
-24.28
-21.91
-19.73
-17.88
-16.37
-15.15
-14.13
-13.26
-12.50
-11.81
-11.12
-10.34
-9.35
-8.09
-6.52
-4.67
-2.63
-0.47
1.71
3.87
5.98
8.00
9.82
11.31
12.29
12.64
12.37
11.60
10.54
9.44
8.44
7.60
6.88
6.16
5.37
4.49
3.51
2.46
1.38
0.26
-0.83
-1.84
-2.73
-3.46
-3.99
-4.37
-4.57
-4.61
-4.49
-4.28
-4.08
-4.00
-4.15
-4.56
-5.16
-5.86
-6.55
-7.16
-7.64
-7.99
-8.16
-8.10
-7.72
-6.98
-5.81
-4.30
-2.62
-1.03
0.12
0.55
0.13
-1.13
-3.13
-5.73
-8.90
-12.63
-16.88
-21.51
-26.16
-30.41
-33.84
-36.12
-37.10
-36.75
-35.12
-32.29
-28.45
-23.86
-18.86
-13.81
-9.00
-4.59
-0.60
3.02
6.32
9.30
11.91
14.11
15.92
17.38
18.62
19.76
20.84
21.83
22.56
22.85
22.51
21.46
19.69
17.34
14.63
11.85
9.31
7.27
5.98
5.59
6.14
7.60
9.83
12.67
15.90
19.34
22.75
25.90
28.61
30.71
32.06
32.58
32.23
31.02
29.03
26.38
23.29
19.97
16.62
13.39
10.40
7.71
5.37
3.41
1.79
0.48
-0.61
-1.58
-2.49
-3.37
-4.20
-4.90
-5.42
-5.75
-5.89
-5.94
-6.00
-6.18
-6.49
-6.87
-7.21
-7.38
-7.36
-7.16
-6.92
-6.74
-6.73
-6.89
-7.16
-7.44
-7.64
-7.72
-7.62
-7.34
-6.82
-6.03
-4.99
-3.82
-2.66
-1.74
-1.16
-0.92
-0.87
-0.74
-0.32
0.45
1.45
2.43
3.13
3.47
3.48
3.34
3.22
3.19
3.19
3.16
3.06
2.96
2.99
3.24
3.67
4.10
4.35
4.27
3.87
3.27
2.56
1.81
1.00
0.10
-0.87
-1.82
-2.62
-3.17
-3.49
-3.71
-4.02
-4.57
-5.43
-6.59
-7.97
-9.51
-11.18
-12.96
-14.92
-17.08
-19.49
-22.21
-25.22
-28.43
-31.61
-34.46
-36.63
-37.85
-37.95
-36.90
-34.71
-31.42
-27.11
-21.87
-15.94
-9.63
-3.35
2.58
7.94
12.65
16.76
20.24
23.05
25.12
26.42
27.05
27.18
27.02
26.74
26.41
26.05
25.64
25.12
24.44
23.59
22.56
21.38
20.14
18.92
17.76
16.71
15.69
14.65
13.54
12.33
11.05
9.71
8.33
6.91
5.49
4.12
2.88
1.84
1.01
0.39
-0.08
-0.45
-0.75
-0.97
-1.14
-1.27
-1.43
-1.70
-2.15
-2.78
-3.55
-4.35
-5.07
-5.59
-5.83
-5.73
-5.28
-4.57
-3.70
-2.87
-2.21
-1.82
-1.66
-1.64
-1.60
-1.40
-1.02
-0.53
-0.09
0.10
-0.07
-0.66
-1.58
-2.69
-3.90
-5.15
-6.45
-7.74
-8.91
-9.73
-9.98
-9.56
-8.56
-7.27
-6.03
-5.07
-4.34
-3.61
-2.54
-0.92
1.23
3.68
6.07
8.10
9.62
10.60
11.11
11.21
10.98
10.48
9.79
8.94
7.89
6.49
4.54
1.90
-1.41
-5.12
-8.75
-11.72
-13.58
-14.13
-13.51
-12.10
-10.35
-8.54
-6.73
-4.65
-1.97
1.57
5.91
10.69
15.37
19.45
22.64
24.88
26.28
26.98
27.02
26.35
24.95
22.86
20.30
17.52
14.78
12.16
9.62
7.07
4.40
1.65
-1.08
-3.59
-5.70
-7.30
-8.32
-8.78
-8.77
-8.44
-7.98
-7.55
-7.22
-6.99
-6.76
-6.43
-5.94
-5.29
-4.57
-3.87
-3.33
-3.01
-2.91
-2.99
-3.18
-3.41
-3.64
-3.80
-3.81
-3.59
-3.09
-2.27
-1.22
-0.04
1.13
2.16
2.95
3.46
3.69
3.67
3.50
3.30
3.18
3.21
3.37
3.55
3.63
3.48
3.06
2.40
1.55
0.59
-0.41
-1.41
-2.36
-3.26
-4.09
-4.82
-5.45
-5.95
-6.26
-6.30
-6.07
-5.58
-4.97
-4.44
-4.16
-4.17
-4.41
-4.65
-4.74
-4.62
-4.38
-4.23
-4.30
-4.62
-5.12
-5.66
-6.12
-6.54
-7.01
-7.64
-8.47
-9.42
-10.34
-11.03
-11.37
-11.33
-10.96
-10.33
-9.51
-8.53
-7.37
-6.03
-4.54
-2.99
-1.52
-0.24
0.81
1.67
2.43
3.21
4.03
4.90
5.79
6.64
7.39
8.05
8.63
9.17
9.77
10.51
11.42
12.47
13.56
14.58
15.45
16.11
16.52
16.61
16.30
15.45
13.98
11.83
9.09
5.88
2.38
-1.22
-4.77
-8.12
-11.20
-13.97
-16.43
-18.53
-20.19
-21.32
-21.86
-21.89
-21.58
-21.14
-20.71
-20.34
-19.89
-19.18
-18.06
-16.48
-14.54
-12.40
-10.25
-8.21
-6.38
-4.81
-3.54
-2.60
-1.95
-1.50
-1.11
-0.66
-0.05
0.70
1.56
2.50
3.53
4.83
6.57
8.91
11.87
15.37
19.22
23.22
27.20
30.95
34.24
36.77
38.26
38.54
37.62
35.72
33.16
30.21
27.00
23.48
19.44
14.70
9.19
2.97
-3.68
-10.35
-16.54
-21.80
-25.80
-28.44
-29.83
-30.26
-30.09
-29.62
-29.01
-28.24
-27.21
-25.79
-23.89
-21.56
-18.85
-15.88
-12.75
-9.59
-6.55
-3.81
-1.53
0.18
1.29
1.85
1.93
1.61
1.00
0.22
-0.57
-1.21
-1.66
-1.98
-2.28
-2.66
-3.08
-3.39
-3.43
-3.13
-2.62
-2.15
-1.95
-2.09
-2.43
-2.72
-2.76
-2.55
-2.23
-2.02
-2.05
-2.27
-2.49
-2.55
-2.38
-2.09
-1.88
-1.92
-2.26
-2.79
-3.35
-3.84
-4.22
-4.55
-4.89
-5.26
-5.63
-5.99
-6.37
-6.81
-7.36
-7.97
-8.50
-8.74
-8.52
-7.76
-6.53
-5.01
-3.41
-1.92
-0.65
0.34
1.03
1.42
1.55
1.51
1.40
1.33
1.34
1.42
1.50
1.50
1.41
1.32
1.33
1.49
1.80
2.15
2.46
2.69
2.90
3.14
3.43
3.69
3.78
3.61
3.17
2.62
2.12
1.80
1.65
1.57
1.42
1.07
0.54
-0.14
-0.89
-1.69
-2.50
-3.32
-4.14
-4.94
-5.67
-6.34
-7.00
-7.68
-8.42
-9.16
-9.78
-10.10
-9.95
-9.26
-8.07
-6.55
-4.90
-3.38
-2.12
-1.23
-0.70
-0.44
-0.35
-0.32
-0.30
-0.32
-0.52
-1.02
-1.89
-3.02
-4.19
-5.16
-5.74
-5.91
-5.78
-5.54
-5.30
-5.09
-4.83
-4.42
-3.80
-2.97
-2.03
-1.06
-0.17
0.60
1.27
1.90
2.56
3.33
4.22
5.16
6.04
6.75
7.24
7.51
7.61
7.54
7.32
6.95
6.44
5.81
5.10
4.26
3.24
1.97
0.47
-1.18
-2.78
-4.10
-4.97
-5.35
-5.24
-4.75
-3.95
-2.92
-1.71
-0.31
1.22
2.85
4.48
6.04
7.48
8.84
10.14
11.42
12.66
13.76
14.60
15.07
15.16
14.95
14.58
14.15
13.70
13.18
12.48
11.61
10.63
9.70
8.94
8.38
7.92
7.34
6.49
5.32
3.94
2.55
1.34
0.41
-0.29
-0.88
-1.49
-2.17
-2.91
-3.62
-4.24
-4.77
-5.23
-5.67
-6.11
-6.51
-6.86
-7.17
-7.45
-7.78
-8.19
-8.69
-9.29
-9.98
-10.71
-11.42
-11.99
-12.24
-12.04
-11.32
-10.15
-8.67
-7.09
-5.52
-3.99
-2.48
-0.95
0.61
2.12
3.50
4.66
5.52
6.03
6.19
6.02
5.61
5.10
4.60
4.19
3.89
3.63
3.32
2.86
2.22
1.43
0.55
-0.27
-0.89
-1.22
-1.24
-1.02
-0.75
-0.58
-0.66
-1.01
-1.60
-2.39
-3.38
-4.60
-6.09
-7.78
-9.55
-11.22
-12.67
-13.82
-14.64
-15.08
-15.06
-14.48
-13.24
-11.35
-8.91
-6.16
-3.35
-0.74
1.46
3.08
4.08
4.49
4.47
4.27
4.17
4.40
5.09
6.22
7.62
9.09
10.47
11.68
12.75
13.77
14.80
15.82
16.73
17.43
17.89
18.15
18.33
18.53
18.77
19.07
19.34
19.54
19.58
19.35
18.78
17.74
16.24
14.32
12.13
9.83
7.57
5.45
3.47
1.65
0.00
-1.40
-2.46
-3.13
-3.42
-3.45
-3.41
-3.47
-3.68
-4.02
-4.32
-4.44
-4.28
-3.87
-3.36
-2.97
-2.90
-3.30
-4.15
-5.29
-6.45
-7.33
-7.74
-7.65
-7.24
-6.78
-6.52
-6.55
-6.79
-7.10
-7.33
-7.41
-7.36
-7.30
-7.28
-7.34
-7.47
-7.65
-7.85
-8.06
-8.21
-8.22
-8.02
-7.56
-6.93
-6.28
-5.78
-5.56
-5.61
-5.82
-6.03
-6.06
-5.84
-5.35
-4.65
-3.78
-2.80
-1.69
-0.43
0.97
2.43
3.85
5.09
6.05
6.77
7.38
8.04
8.82
9.71
10.56
11.21
11.57
11.64
11.55
11.46
11.44
11.51
11.58
11.53
11.24
10.63
9.64
8.25
6.47
4.36
2.13
0.00
-1.72
-2.86
-3.34
-3.25
-2.77
-2.14
-1.53
-0.99
-0.54
-0.15
0.20
0.52
0.82
1.07
1.27
1.38
1.40
1.33
1.26
1.21
1.13
0.91
0.41
-0.47
-1.69
-3.02
-4.23
-5.06
-5.45
-5.48
-5.32
-5.16
-5.16
-5.40
-5.86
-6.53
-7.27
-7.98
-8.52
-8.82
-8.91
-8.94
-9.09
-9.51
-10.24
-11.18
-12.13
-12.83
-13.08
-12.79
-12.00
-10.84
-9.46
-7.99
-6.48
-4.94
-3.31
-1.56
0.31
2.32
4.46
6.70
8.92
10.97
12.62
13.66
13.96
13.55
12.57
11.26
9.90
8.70
7.78
7.19
6.86
6.67
6.43
5.96
5.15
4.00
2.60
1.16
-0.16
-1.25
-2.12
-2.86
-3.57
-4.35
-5.23
-6.17
-7.16
-8.17
-9.21
-10.28
-11.41
-12.56
-13.65
-14.55
-15.12
-15.19
-14.64
-13.44
-11.64
-9.43
-7.09
-4.93
-3.18
-1.97
-1.25
-0.88
-0.71
-0.60
-0.47
-0.25
0.19
1.00
2.26
3.93
5.86
7.77
9.44
10.75
11.73
12.46
13.00
13.30
13.28
12.86
12.08
11.08
10.05
9.11
8.26
7.46
6.61
5.68
4.66
3.64
2.69
1.82
1.04
0.28
-0.46
-1.19
-1.89
-2.55
-3.18
-3.82
-4.50
-5.19
-5.81
-6.23
-6.29
-5.92
-5.10
-3.91
-2.51
-1.06
0.33
1.64
2.93
4.32
5.91
7.75
9.75
11.70
13.30
14.25
14.37
13.67
12.35
10.69
8.95
7.25
5.64
4.07
2.52
1.00
-0.45
-1.76
-2.91
-3.89
-4.68
-5.24
-5.52
-5.52
-5.28
-4.90
-4.50
-4.19
-4.05
-4.13
-4.42
-4.86
-5.36
-5.82
-6.17
-6.39
-6.53
-6.67
-6.87
-7.18
-7.54
-7.82
-7.86
-7.50
-6.67
-5.42
-3.95
-2.51
-1.34
-0.52
-0.01
0.33
0.61
0.89
1.19
1.50
1.83
2.24
2.75
3.28
3.73
3.95
3.89
3.57
3.09
2.53
1.94
1.33
0.70
0.13
-0.25
-0.34
-0.18
0.11
0.31
0.28
0.01
-0.36
-0.67
-0.82
-0.82
-0.82
-0.95
-1.25
-1.68
-2.12
-2.45
-2.66
-2.79
-2.93
-3.14
-3.42
-3.74
-4.01
-4.19
-4.29
-4.39
-4.63
-5.09
-5.81
-6.66
-7.45
-7.91
-7.83
-7.13
-5.92
-4.42
-2.92
-1.62
-0.55
0.36
1.25
2.17
3.08
3.84
4.32
4.48
4.39
4.20
4.04
3.99
4.05
4.20
4.40
4.66
4.91
5.08
5.05
4.75
4.20
3.55
2.98
2.66
2.64
2.85
3.12
3.28
3.23
2.95
2.51
2.03
1.62
1.30
1.06
0.85
0.64
0.40
0.07
-0.37
-0.99
-1.77
-2.64
-3.43
-4.04
-4.42
-4.65
-4.91
-5.34
-6.01
-6.89
-7.82
-8.69
-9.37
-9.81
-9.95
-9.73
-9.12
-8.14
-6.88
-5.50
-4.19
-3.13
-2.41
-2.02
-1.90
-1.95
-2.06
-2.16
-2.24
-2.32
-2.45
-2.65
-2.93
-3.22
-3.44
-3.44
-3.10
-2.30
-1.02
0.68
2.62
4.62
6.52
8.30
10.05
11.90
13.96
16.21
18.51
20.58
22.10
22.81
22.55
21.35
19.37
16.90
14.25
11.70
9.43
7.52
5.99
4.75
3.62
2.42
0.97
-0.80
-2.82
-4.84
-6.60
-7.88
-8.70
-9.18
-9.51
-9.72
-9.75
-9.42
-8.67
-7.57
-6.39
-5.41
-4.77
-4.44
-4.24
-4.02
-3.72
-3.45
-3.32
-3.41
-3.66
-3.91
-3.97
-3.75
-3.22
-2.46
-1.60
-0.76
-0.05
0.46
0.75
0.86
0.89
0.94
1.07
1.26
1.43
1.45
1.23
0.68
-0.16
-1.27
-2.58
-4.03
-5.58
-7.21
-8.90
-10.67
-12.53
-14.48
-16.50
-18.55
-20.54
-22.32
-23.72
-24.55
-24.70
-24.17
-23.04
-21.46
-19.52
-17.26
-14.62
-11.52
-7.97
-4.10
-0.10
3.83
7.58
11.12
14.49
17.69
20.69
23.41
25.74
27.66
29.20
30.42
31.40
32.18
32.73
33.05
33.12
32.94
32.55
31.90
30.92
29.49
27.54
24.99
21.90
18.38
14.60
10.73
6.90
3.27
-0.01
-2.72
-4.69
-5.82
-6.13
-5.81
-5.20
-4.66
-4.50
-4.85
-5.70
-6.91
-8.27
-9.57
-10.72
-11.72
-12.61
-13.48
-14.33
-15.13
-15.78
-16.20
-16.37
-16.34
-16.20
-16.03
-15.86
-15.60
-15.08
-14.16
-12.82
-11.18
-9.45
-7.83
-6.41
-5.20
-4.09
-2.98
-1.84
-0.69
0.34
1.15
1.69
1.94
1.94
1.75
1.42
1.03
0.64
0.31
0.01
-0.26
-0.51
-0.73
-0.87
-0.91
-0.83
-0.64
-0.38
-0.10
0.21
0.57
1.00
1.50
1.99
2.38
2.58
2.58
2.44
2.31
2.29
2.41
2.60
2.72
2.67
2.40
1.98
1.57
1.27
1.06
0.80
0.30
-0.58
-1.83
-3.29
-4.67
-5.71
-6.32
-6.56
-6.59
-6.59
-6.63
-6.67
-6.58
-6.27
-5.71
-4.94
-4.09
-3.28
-2.58
-2.01
-1.59
-1.35
-1.37
-1.67
-2.25
-3.04
-3.85
-4.53
-4.98
-5.23
-5.38
-5.58
-5.86
-6.17
-6.35
-6.20
-5.54
-4.33
-2.64
-0.67
1.34
3.18
4.73
5.99
7.02
7.90
8.65
9.23
9.64
9.89
10.06
10.18
10.21
10.04
9.56
8.75
7.74
6.73
5.87
5.17
4.49
3.66
2.59
1.29
-0.09
-1.43
-2.63
-3.62
-4.31
-4.60
-4.43
-3.81
-2.95
-2.12
-1.60
-1.49
-1.74
-2.09
-2.31
-2.27
-2.03
-1.73
-1.56
-1.57
-1.70
-1.78
-1.68
-1.35
-0.86
-0.38
-0.03
0.13
0.15
0.11
0.03
-0.10
-0.34
-0.72
-1.20
-1.65
-1.98
-2.10
-2.07
-2.00
-1.98
-2.01
-1.99
-1.78
-1.26
-0.43
0.71
2.08
3.65
5.39
7.21
9.01
10.64
11.98
13.04
13.87
14.57
15.23
15.88
16.50
17.04
17.47
17.71
17.66
17.22
16.35
15.15
13.82
12.57
11.60
10.95
10.52
10.13
9.61
8.79
7.63
6.10
4.23
2.06
-0.36
-2.90
-5.46
-7.88
-10.03
-11.83
-13.26
-14.41
-15.37
-16.21
-16.92
-17.42
-17.63
-17.52
-17.11
-16.48
-15.66
-14.64
-13.35
-11.73
-9.80
-7.73
-5.79
-4.21
-3.15
-2.58
-2.29
-2.04
-1.60
-0.88
0.04
0.99
1.78
2.30
2.61
2.86
3.16
3.49
3.68
3.47
2.72
1.48
0.03
-1.26
-2.10
-2.34
-2.05
-1.39
-0.51
0.46
1.52
2.62
3.76
4.94
6.21
7.70
9.51
11.71
14.23
16.88
19.36
21.41
22.91
23.82
24.16
23.95
23.17
21.76
19.72
17.13
14.20
11.25
8.51
6.16
4.18
2.46
0.87
-0.66
-2.07
-3.25
-4.03
-4.32
-4.08
-3.39
-2.38
-1.15
0.17
1.52
2.80
3.89
4.63
4.88
4.53
3.52
1.88
-0.34
-3.10
-6.35
-10.01
-13.96
-17.93
-21.63
-24.74
-27.03
-28.41
-28.85
-28.41
-27.12
-25.08
-22.40
-19.28
-15.96
-12.66
-9.57
-6.78
-4.32
-2.22
-0.52
0.73
1.52
1.92
2.04
2.05
2.06
2.16
2.34
2.55
2.75
2.91
3.09
3.36
3.82
4.58
5.63
6.88
8.21
9.50
10.67
11.69
12.58
13.30
13.80
13.91
13.50
12.48
10.88
8.81
6.42
3.87
1.25
-1.35
-3.84
-6.09
-8.00
-9.52
-10.66
-11.51
-12.15
-12.63
-12.95
-13.12
-13.23
-13.44
-13.92
-14.74
-15.85
-17.04
-18.04
-18.65
-18.79
-18.49
-17.80
-16.75
-15.31
-13.44
-11.17
-8.62
-6.02
-3.56
-1.32
0.74
2.72
4.68
6.59
8.33
9.75
10.73
11.22
11.24
10.89
10.32
9.75
9.38
9.37
9.75
10.38
11.02
11.42
11.42
11.05
10.47
9.84
9.30
8.88
8.52
8.15
7.67
7.08
6.38
5.59
4.74
3.84
2.92
1.99
1.11
0.26
-0.59
-1.47
-2.43
-3.45
-4.51
-5.55
-6.45
-7.13
-7.50
-7.51
-7.16
-6.51
-5.63
-4.65
-3.66
-2.75
-1.96
-1.30
-0.72
-0.22
0.24
0.67
1.06
1.44
1.76
2.00
2.09
1.96
1.57
0.98
0.30
-0.32
-0.75
-0.94
-0.93
-0.83
-0.74
-0.67
-0.59
-0.45
-0.25
-0.06
0.03
-0.08
-0.41
-0.90
-1.40
-1.78
-1.96
-1.96
-1.86
-1.77
-1.81
-2.07
-2.60
-3.37
-4.30
-5.26
-6.13
-6.79
-7.22
-7.42
-7.45
-7.34
-7.08
-6.65
-5.96
-4.94
-3.58
-1.91
-0.07
1.75
3.36
4.65
5.65
6.49
7.37
8.39
9.51
10.59
11.44
11.97
12.20
12.25
12.21
12.12
11.90
11.49
10.86
10.10
9.33
8.59
7.90
7.20
6.47
5.75
5.16
4.79
4.71
4.83
5.05
5.21
5.24
5.14
4.97
4.88
4.99
5.39
6.14
7.13
8.26
9.41
10.56
11.72
12.97
14.35
15.82
17.36
18.95
20.68
22.68
25.06
27.80
30.72
33.55
35.97
37.80
38.83
38.90
37.75
35.08
30.65
24.39
16.57
7.71
-1.48
-10.32
-18.32
-25.24
-31.07
-35.92
-39.90
-43.11
-45.63
-47.57
-49.09
-50.33
-51.32
-51.93
-51.91
-51.03
-49.20
-46.56
-43.32
-39.76
-35.97
-31.87
-27.34
-22.33
-16.91
-11.33
-5.92
-0.94
3.40
6.98
9.72
11.55
12.48
12.63
12.25
11.66
11.17
10.93
10.94
10.99
10.79
10.06
8.60
6.43
3.71
0.73
-2.22
-4.83
-6.93
-8.45
-9.34
-9.63
-9.35
-8.55
-7.30
-5.72
-3.93
-2.02
-0.07
1.86
3.62
5.02
5.89
6.13
5.82
5.19
4.53
4.11
4.05
4.32
4.74
5.13
5.28
5.03
4.24
2.81
0.73
-1.88
-4.74
-7.51
-9.92
-11.82
-13.17
-14.05
-14.44
-14.27
-13.39
-11.67
-9.12
-5.95
-2.51
0.77
3.43
5.05
5.20
3.55
-0.02
-5.41
-12.25
-19.97
-27.99
-35.79
-42.98
-49.24
-54.22
-57.64
-59.29
-59.18
-57.51
-54.64
-50.89
-46.48
-41.46
-35.85
-29.69
-23.15
-16.49
-9.98
-3.82
1.89
7.12
11.92
16.34
20.49
24.44
28.25
31.91
35.27
38.08
40.03
40.84
40.38
38.75
36.28
33.44
30.72
28.52
27.06
26.32
26.17
26.38
26.76
27.12
27.34
27.36
27.15
26.76
26.30
25.86
25.52
25.26
25.00
24.66
24.23
23.84
23.69
23.96
24.68
25.67
26.62
27.23
27.46
27.48
27.68
28.46
29.94
31.94
34.00
35.60
36.33
36.08
34.98
33.32
31.44
29.54
27.66
25.63
23.15
19.81
15.24
9.30
2.14
-5.64
-13.11
-19.10
-22.53
-22.73
-19.66
-13.93
-6.67
0.91
7.95
14.22
20.14
26.43
33.64
41.79
50.25
57.94
63.81
67.15
67.92
66.55
63.64
59.82
55.67
51.68
48.18
45.36
43.28
41.75
40.33
38.24
34.73
29.52
22.96
15.98
9.80
5.38
3.03
2.14
0.89
-2.80
-10.42
-22.41
-38.15
-56.30
-75.16
-93.00
-108.39
-121.38
-132.12
-140.37
-145.43
-146.89
-144.91
-140.07
-132.94
-123.94
-115.19
-107.96
-101.81
-94.92
-85.95
-74.84
-62.56
-50.33
-39.20
-32.88
-33.42
-39.90
-48.85
-57.09
-63.17
-67.09
-69.39
-70.65
-75.51
-86.97
-104.96
-126.29
-148.09
-169.50
-191.09
-213.80
-211.95
-172.17
-102.33
-25.60
40.79
92.53
132.63
165.21
192.71
215.64
227.90
227.80
216.58
199.40
181.82
167.41
157.53
151.85
148.95
143.33
133.74
119.85
103.78
87.79
73.04
60.00
49.23
41.67
36.33
32.72
30.44
29.83
30.43
30.69
28.90
24.16
16.77
6.94
-4.28
-15.83
-26.23
-34.49
-40.43
-44.41
-47.03
-49.08
-51.78
-56.10
-62.70
-71.25
-80.62
-89.30
-95.71
-98.58
-97.22
-91.66
-82.48
-70.72
-57.48
-43.68
-29.99
-16.94
-4.87
5.97
15.41
23.45
30.06
35.28
39.07
41.33
42.01
41.17
39.06
36.10
32.78
29.48
26.43
23.69
21.19
18.86
16.72
14.86
13.41
12.49
12.20
12.56
13.55
15.14
17.24
19.68
22.18
24.41
26.03
26.83
26.73
25.83
24.30
22.36
20.18
17.91
15.68
13.59
11.74
10.15
8.79
7.59
6.49
5.46
4.48
3.51
2.45
1.15
-0.51
-2.54
-4.84
-7.20
-9.38
-11.24
-12.77
-14.07
-15.24
-16.30
-17.15
-17.68
-17.83
-17.62
-17.23
-16.85
-16.61
-16.53
-16.59
-16.68
-16.81
-17.06
-17.50
-18.18
-19.11
-20.16
-21.19
-22.08
-22.80
-23.33
-23.74
-24.08
-24.34
-24.43
-24.19
-23.37
-21.72
-19.05
-15.28
-10.52
-5.07
0.65
6.20
11.26
15.68
19.57
23.15
26.76
30.76
35.57
41.48
48.63
56.77
65.04
72.23
77.05
78.75
77.46
74.23
70.42
67.09
64.42
61.63
57.45
50.72
40.84
27.96
12.81
-3.66
-20.34
-36.05
-49.46
-59.19
-64.18
-64.20
-60.18
-54.23
-49.29
-48.23
-53.12
-64.59
-81.55
-101.62
-121.87
-139.68
-153.51
-163.09
-169.13
-172.64
-174.36
-174.29
-171.84
-166.12
-156.42
-142.53
-124.99
-105.14
-84.86
-66.21
-50.71
-38.77
-29.33
-20.15
-8.58
7.53
29.15
55.92
86.36
118.30
149.06
175.53
194.36
202.45
197.79
180.34
152.47
118.63
84.26
54.32
32.08
18.59
12.85
12.66
15.58
19.61
23.44
26.38
28.13
28.48
27.36
24.85
21.27
17.24
13.54
10.96
10.14
11.47
14.98
20.32
26.88
33.88
40.65
46.79
52.23
57.13
61.68
65.87
69.39
71.67
72.10
70.21
65.88
59.38
51.35
42.58
34.00
26.44
20.65
17.17
16.25
17.78
21.18
25.44
29.26
31.21
30.04
24.95
15.71
2.81
-12.70
-29.41
-45.82
-60.58
-72.83
-82.26
-89.22
-94.63
-99.71
-105.60
-112.93
-121.62
-130.86
-139.57
-146.83
-152.19
-155.78
-158.07
-159.52
-160.30
-160.14
-158.50
-154.71
-148.18
-138.52
-125.74
-110.27
-92.92
-74.52
-55.65
-36.37
-16.40
4.52
26.07
47.10
65.92
80.91
91.19
96.99
99.50
100.35
100.96
102.14
103.97
106.16
108.33
110.26
112.00
113.93
116.60
120.65
126.57
134.29
142.73
149.59
151.68
145.96
130.82
107.12
78.24
49.11
24.51
7.53
-1.18
-3.05
-0.52
4.07
9.16
13.85
17.63
19.92
20.11
17.78
12.94
6.18
-1.60
-9.34
-16.29
-22.20
-27.37
-32.47
-38.26
-45.26
-53.56
-62.85
-72.56
-82.12
-91.13
-99.42
-106.95
-113.75
-119.80
-125.03
-129.36
-132.67
-134.86
-135.87
-135.73
-134.59
-132.75
-130.52
-128.08
-125.31
-121.84
-117.26
-111.34
-104.32
-96.84
-89.65
-83.28
-77.70
-72.37
-66.45
-59.21
-50.30
-39.89
-28.39
-16.20
-3.48
9.79
23.57
37.46
50.58
61.77
69.96
74.62
76.06
75.24
73.42
71.67
70.56
70.18
70.42
71.14
72.44
74.59
77.89
82.53
88.46
95.33
102.57
109.48
115.41
120.04
123.42
125.89
127.86
129.59
130.99
131.71
131.26
129.02
124.20
115.90
103.28
86.16
65.50
43.40
22.55
5.02
-8.68
-19.84
-30.76
-43.42
-58.29
-74.10
-88.53
-99.35
-105.26
-106.01
-101.93
-93.45
-80.95
-65.12
-47.30
-29.39
-13.32
-0.19
9.94
17.98
24.97
31.42
37.16
41.69
44.80
46.82
48.31
49.47
49.91
48.84
45.85
41.38
36.70
33.22
31.56
31.20
30.75
28.90
25.16
20.10
14.88
10.43
6.85
3.46
-0.69
-6.18
-12.77
-19.56
-25.26
-28.76
-29.49
-27.61
-23.94
-19.69
-16.07
-13.88
-13.46
-14.68
-17.25
-20.84
-25.11
-29.55
-33.41
-35.73
-35.61
-32.54
-26.60
-18.48
-9.31
-0.34
7.32
12.89
15.96
16.64
15.34
12.78
9.63
6.42
3.39
0.55
-2.11
-4.60
-6.81
-8.67
-10.16
-11.22
-11.67
-11.16
-9.31
-5.95
-1.33
3.85
8.61
12.09
13.83
13.84
12.49
10.30
7.68
4.89
2.08
-0.63
-3.14
-5.39
-7.51
-9.77
-12.55
-16.08
-20.27
-24.57
-28.14
-30.08
-29.84
-27.51
-23.77
-19.75
-16.59
-15.05
-15.24
-16.64
-18.27
-19.15
-18.61
-16.53
-13.33
-9.81
-6.69
-4.45
-3.12
-2.32
-1.53
-0.28
1.66
4.27
7.35
10.65
13.93
16.98
19.61
21.60
22.71
22.84
22.08
20.71
19.13
17.62
16.24
14.77
12.87
10.40
7.52
4.75
2.60
1.43
1.17
1.50
2.16
3.06
4.37
6.21
8.43
10.50
11.67
11.32
9.17
5.33
0.15
-5.90
-12.35
-18.60
-23.91
-27.35
-28.09
-25.74
-20.63
-13.88
-7.09
-1.93
0.35
-0.78
-4.99
-11.25
-18.18
-24.41
-28.93
-31.23
-31.27
-29.47
-26.50
-23.08
-19.87
-17.27
-15.38
-13.98
-12.59
-10.66
-7.67
-3.36
2.22
8.60
15.09
20.87
25.27
27.92
28.82
28.36
27.13
25.71
24.45
23.44
22.55
21.53
20.18
18.40
16.26
13.95
11.70
9.72
8.18
7.18
6.80
7.06
7.98
9.50
11.61
14.26
17.39
20.85
24.25
27.07
28.60
28.21
25.47
20.35
13.25
4.95
-3.54
-11.23
-17.39
-21.69
-24.23
-25.41
-25.64
-25.23
-24.17
-22.34
-19.66
-16.26
-12.55
-9.14
-6.57
-5.23
-5.19
-6.22
-7.83
-9.40
-10.40
-10.52
-9.69
-8.00
-5.62
-2.65
0.81
4.55
8.20
11.29
13.36
14.18
13.78
12.35
10.16
7.45
4.48
1.59
-0.78
-2.29
-2.79
-2.50
-1.96
-1.70
-1.98
-2.68
-3.39
-3.65
-3.27
-2.40
-1.45
-0.86
-0.87
-1.46
-2.38
-3.35
-4.24
-5.15
-6.34
-8.07
-10.50
-13.58
-17.14
-20.89
-24.52
-27.74
-30.21
-31.65
-31.76
-30.46
-27.79
-24.03
-19.66
-15.21
-11.05
-7.25
-3.59
0.41
5.10
10.41
15.77
20.23
22.83
23.17
21.51
18.75
15.91
13.66
12.03
10.54
8.69
6.36
3.91
1.95
0.97
0.99
1.54
1.95
1.74
0.83
-0.44
-1.60
-2.34
-2.64
-2.74
-2.94
-3.45
-4.33
-5.54
-7.07
-8.91
-11.06
-13.43
-15.79
-17.83
-19.33
-20.26
-20.79
-21.26
-21.97
-23.04
-24.41
-25.83
-27.07
-28.02
-28.81
-29.74
-31.08
-32.86
-34.80
-36.24
-36.40
-34.66
-30.81
-25.24
-18.75
-12.34
-6.80
-2.48
0.75
3.37
5.89
8.65
11.69
14.79
17.63
20.04
22.02
23.80
25.71
28.05
30.97
34.52
38.51
42.66
46.66
50.26
53.39
56.18
58.93
61.95
65.47
69.62
74.39
79.78
85.74
92.23
99.03
105.69
111.57
116.10
118.96
120.34
120.79
120.98
121.34
121.85
121.99
120.94
117.90
112.40
104.35
94.10
82.22
69.39
56.29
43.56
31.72
21.16
12.07
4.37
-2.22
-8.21
-14.08
-20.13
-26.31
-32.21
-37.32
-41.22
-43.86
-45.62
-47.13
-49.07
-51.95
-55.98
-61.16
-67.31
-74.11
-81.05
-87.41
-92.39
-95.33
-95.94
-94.47
-91.63
-88.27
-85.07
-82.34
-79.98
-77.67
-75.14
-72.27
-69.18
-66.04
-62.95
-59.83
-56.50
-52.79
-48.67
-44.34
-40.17
-36.47
-33.46
-31.13
-29.31
-27.86
-26.78
-26.12
-25.99
-26.35
-26.98
-27.51
-27.63
-27.14
-26.14
-24.95
-24.01
-23.69
-24.16
-25.33
-26.83
-28.12
-28.60
-27.74
-25.25
-21.14
-15.79
-9.88
-4.17
0.65
4.17
6.43
7.77
8.73
9.75
11.07
12.63
14.21
15.52
16.36
16.71
16.71
16.55
16.40
16.36
16.36
16.30
16.12
15.82
15.49
15.19
14.90
14.45
13.62
12.28
10.44
8.26
6.00
3.85
1.84
-0.15
-2.27
-4.57
-6.93
-9.11
-10.91
-12.27
-13.30
-14.27
-15.38
-16.66
-17.95
-18.96
-19.44
-19.34
-18.80
-18.10
-17.58
-17.45
-17.88
-18.99
-20.89
-23.63
-27.12
-30.97
-34.59
-37.22
-38.19
-37.16
-34.18
-29.70
-24.36
-18.79
-13.48
-8.73
-4.69
-1.39
1.20
3.24
4.97
6.63
8.40
10.32
12.20
13.77
14.78
15.11
14.84
14.15
13.29
12.43
11.75
11.29
11.09
11.11
11.23
11.27
11.00
10.37
9.50
8.75
8.55
9.15
10.48
12.09
13.44
14.07
13.92
13.19
12.28
11.51
11.02
10.72
10.45
10.06
9.43
8.51
7.32
5.96
4.52
3.10
1.75
0.41
-0.99
-2.49
-4.10
-5.84
-7.68
-9.66
-11.73
-13.60
-14.86
-14.99
-13.66
-10.87
-7.02
-2.65
1.73
5.88
9.86
13.82
17.85
21.85
25.50
28.46
30.40
31.19
30.90
29.77
28.13
26.30
24.52
22.94
21.65
20.73
20.36
20.69
21.69
23.15
24.74
26.08
26.82
26.75
25.86
24.47
23.04
21.91
21.17
20.77
20.53
20.24
19.76
19.02
18.27
17.73
17.42
17.21
17.10
17.26
