1607147439.00
64.000000
-0.00
-0.00
-0.00
-0.00
-0.00
-0.00
-0.00
-0.00
-0.00
-0.00
0.00
0.01
0.01
-0.00
-0.03
-0.05
-0.05
0.00
0.13
0.36
0.66
1.01
1.37
1.72
2.06
2.40
2.79
3.24
3.80
4.42
5.06
5.66
6.20
6.68
7.15
7.68
8.31
9.14
10.09
11.04
11.88
12.56
13.14
13.76
14.65
15.96
17.91
20.32
22.90
25.38
27.58
29.57
31.68
34.32
37.81
42.54
48.15
54.10
59.83
64.97
69.58
74.14
79.34
85.71
93.76
103.00
112.62
121.73
129.77
136.75
143.30
150.75
157.77
166.64
177.95
191.79
206.97
220.57
228.25
225.36
208.53
176.87
132.76
80.05
23.07
-34.94
-92.44
-149.16
-205.23
-260.37
-313.74
-363.87
-409.83
-450.91
-486.50
-515.74
-537.23
-549.22
-549.96
-538.37
-514.21
-478.67
-433.88
-382.45
-327.02
-269.84
-212.63
-156.66
-102.95
-52.37
-5.90
35.58
71.43
101.35
125.50
144.38
158.69
169.15
176.37
180.75
182.57
182.07
179.51
175.23
169.65
163.18
156.15
148.81
141.30
133.69
126.02
118.33
110.69
103.16
95.80
88.68
81.83
75.25
68.95
62.95
57.25
51.86
46.78
42.03
37.59
33.45
29.61
26.07
22.81
19.83
17.11
14.67
12.48
10.54
8.83
7.35
6.07
4.97
4.05
3.27
2.62
2.09
1.65
1.30
1.01
0.79
0.61
0.48
0.37
0.28
0.23
0.19
0.19
0.20
0.20
0.19
0.14
0.07
-0.02
-0.10
-0.13
-0.12
-0.06
0.01
0.05
0.05
-0.00
-0.08
-0.13
-0.13
-0.07
0.05
0.16
0.21
0.16
0.00
-0.20
-0.34
-0.33
-0.14
0.17
0.46
0.59
0.43
0.00
-0.54
-0.95
-1.02
-0.65
0.02
0.70
1.02
0.77
-0.03
-1.10
-1.96
-2.19
-1.62
-0.47
0.73
1.37
1.07
-0.13
-1.77
-3.10
-3.57
-2.90
-1.41
0.32
1.56
1.76
0.49
-2.56
-7.36
-13.26
-18.72
-21.50
-19.55
-12.05
-0.12
13.38
24.83
31.47
32.44
28.90
23.11
17.18
12.22
8.19
4.63
1.27
-1.57
-3.27
-3.45
-2.32
-0.65
0.64
0.81
-0.22
-2.02
-3.85
-5.08
-5.43
-5.07
-4.45
-4.09
-4.27
-4.94
-5.81
-6.46
-6.65
-6.38
-5.99
-5.87
-6.39
-7.56
-9.05
-10.23
-10.48
-9.43
-7.09
-3.89
-0.43
2.76
5.38
7.46
9.22
10.92
12.67
14.42
15.94
16.98
17.32
16.95
16.01
14.78
13.60
12.70
12.16
11.88
11.69
11.40
10.92
10.28
9.57
8.87
8.17
7.36
6.29
4.85
2.98
0.72
-1.85
-4.58
-7.36
-10.07
-12.63
-15.05
-17.44
-19.96
-22.79
-26.07
-29.83
-33.92
-37.98
-41.46
-43.74
-44.34
-43.04
-39.98
-35.59
-30.39
-24.78
-18.98
-13.02
-6.91
-0.78
5.07
10.26
14.46
17.56
19.66
21.02
21.90
22.47
22.76
22.73
22.36
21.73
21.01
20.40
19.97
19.55
18.79
17.29
14.82
11.46
7.62
3.82
0.50
-2.21
-4.59
-7.10
-10.25
-14.27
-19.16
-24.60
-30.12
-35.18
-39.28
-42.01
-43.08
-42.40
-40.04
-36.27
-31.44
-25.89
-19.94
-13.77
-7.52
-1.29
4.75
10.45
15.57
19.89
23.27
25.68
27.21
28.08
28.53
28.77
28.95
29.12
29.24
29.26
29.07
28.54
27.53
25.98
23.89
21.38
18.62
15.77
12.85
9.79
6.42
2.61
-1.74
-6.62
-11.94
-17.54
-23.10
-28.19
-32.29
-34.93
-35.87
-35.07
-32.78
-29.32
-24.99
-19.95
-14.33
-8.26
-1.96
4.24
9.99
15.01
19.15
22.44
25.05
27.16
28.99
30.61
32.00
33.14
33.99
34.60
35.15
35.79
36.61
37.61
38.61
39.42
39.80
39.57
38.55
36.64
33.82
30.21
26.04
21.64
17.25
13.01
8.85
4.60
0.17
-4.39
-8.75
-12.37
-14.66
-15.18
-13.72
-10.50
-6.02
-0.92
4.16
8.81
12.91
16.57
19.99
23.35
26.67
29.80
32.56
34.81
36.54
37.84
38.88
39.77
40.55
41.25
41.88
42.45
42.92
43.10
42.67
41.21
38.35
33.89
27.91
20.81
13.20
5.76
-0.94
-6.55
-11.03
-14.60
-17.65
-20.58
-23.63
-26.85
-30.03
-32.82
-34.81
-35.62
-34.99
-32.81
-29.19
-24.44
-19.04
-13.55
-8.53
-4.39
-1.40
0.35
0.91
0.41
-0.90
-2.72
-4.67
-6.41
-7.76
-8.74
-9.61
-10.64
-12.00
-13.58
-15.07
-16.03
-16.06
-14.97
-12.76
-9.62
-5.76
-1.44
3.06
7.26
10.52
12.12
11.40
8.09
2.41
-4.96
-13.08
-21.05
-28.21
-34.18
-38.83
-42.08
-43.86
-44.07
-42.65
-39.70
-35.43
-30.21
-24.42
-18.36
-12.18
-5.82
0.81
7.82
15.08
22.23
28.70
33.94
37.68
40.06
41.58
42.93
44.67
47.01
49.72
52.19
53.55
52.80
48.95
41.26
29.58
14.72
-1.27
-15.28
-23.93
-24.76
-17.28
-3.31
13.78
30.56
44.97
57.11
68.67
81.70
97.29
114.96
133.11
149.97
164.65
177.46
189.76
203.47
220.42
241.65
266.65
292.80
315.37
328.51
326.96
308.01
272.57
224.80
170.58
115.28
62.23
12.37
-35.06
-81.25
-126.91
-171.93
-215.59
-257.24
-296.45
-333.23
-367.89
-400.95
-433.11
-465.55
-500.18
-539.19
-583.85
-632.76
-680.77
-719.43
-739.45
-734.09
-702.01
-647.75
-579.77
-506.86
-435.09
-366.69
-301.11
-237.17
-174.77
-115.12
-59.69
-8.90
38.48
84.82
132.48
182.92
236.45
292.25
348.70
403.35
452.96
493.76
522.28
536.57
537.07
526.68
509.86
491.10
473.65
458.96
447.14
437.92
431.24
427.23
425.52
424.56
421.58
413.29
397.13
372.33
340.20
303.66
266.00
229.67
195.62
163.42
131.96
100.36
68.60
37.50
8.32
-17.97
-41.21
-62.21
-82.51
-103.90
-127.80
-155.05
-186.05
-220.87
-259.16
-299.79
-340.47
-377.89
-408.56
-430.08
-442.16
-446.61
-446.29
-443.56
-439.00
-431.42
-418.82
-399.93
-375.27
-347.03
-318.20
-291.19
-267.17
-246.00
-226.94
-209.25
-192.49
-176.28
-159.85
-141.98
-121.29
-97.07
-69.99
-42.20
-16.71
3.79
17.93
26.22
30.52
33.20
36.21
40.55
46.29
52.94
59.86
66.45
72.23
76.77
79.82
81.33
81.51
80.90
80.17
79.87
80.22
80.99
81.65
81.60
80.42
78.06
74.81
71.15
67.59
64.42
61.68
59.04
55.87
51.46
45.25
37.19
27.94
18.75
11.08
6.09
4.28
5.50
9.23
14.99
22.48
31.56
41.98
53.18
64.41
75.01
84.60
93.10
100.47
106.41
110.36
111.67
109.98
105.47
98.84
90.96
82.48
73.52
63.76
52.78
40.39
27.00
13.47
0.84
-10.06
-18.85
-25.61
-30.82
-35.07
-38.94
-42.89
-47.26
-52.33
-58.29
-65.15
-72.81
-81.00
-89.36
-97.40
-104.58
-110.25
-113.76
-114.56
-112.40
-107.46
-100.26
-91.54
-81.95
-71.99
-61.92
-51.95
-42.33
-33.42
-25.60
-19.17
-14.25
-10.82
-8.71
-7.65
-7.34
-7.48
-7.84
-8.35
-9.04
-10.05
-11.43
-13.08
-14.74
-16.09
-16.88
-17.10
-16.89
-16.56
-16.53
-17.14
-18.61
-20.79
-22.93
-23.71
-21.59
-15.49
-5.49
7.00
19.64
30.21
37.51
41.86
44.74
47.88
52.34
58.13
64.56
70.86
76.76
82.53
88.53
94.63
100.02
103.46
103.90
101.07
95.63
88.82
81.94
75.72
70.21
64.94
59.46
53.70
48.17
43.67
40.97
40.37
41.63
43.99
46.56
48.52
49.34
48.92
47.59
46.05
45.28
46.22
49.50
55.25
63.10
72.35
82.22
91.89
100.50
107.17
110.93
110.91
106.35
96.69
81.36
59.76
31.36
-3.90
-45.23
-90.79
-138.14
-184.81
-228.98
-269.78
-306.93
-340.36
-369.81
-394.80
-414.89
-429.77
-439.12
-442.30
-438.13
-425.13
-402.12
-368.97
-327.03
-278.99
-228.14
-177.45
-128.95
-83.51
-41.03
-0.90
37.75
75.91
114.70
155.10
197.52
241.16
283.61
321.17
349.74
366.24
369.72
361.76
345.89
326.23
306.19
287.55
270.60
254.72
239.28
224.13
209.69
196.52
184.93
174.73
165.29
155.84
145.86
135.33
124.67
114.48
105.10
96.37
87.68
78.28
67.73
56.15
44.26
33.09
23.54
16.10
10.78
7.24
5.08
4.09
4.41
6.40
10.45
16.76
25.12
34.90
45.27
55.39
64.67
72.71
79.18
83.56
85.16
83.33
77.77
68.84
57.55
45.27
33.31
22.39
12.55
3.16
-6.74
-18.05
-31.32
-46.63
-63.64
-81.76
-100.30
-118.57
-135.93
-151.77
-165.56
-176.90
-185.57
-191.64
-195.39
-197.25
-197.52
-196.31
-193.45
-188.60
-181.49
-172.05
-160.56
-147.56
-133.72
-119.64
-105.73
-92.13
-78.82
-65.73
-52.87
-40.41
-28.57
-17.62
-7.84
0.56
7.39
12.57
16.17
18.43
19.74
20.49
20.95
21.18
21.08
20.45
19.18
17.36
15.16
12.78
10.37
7.88
5.30
2.62
-0.01
-2.37
-4.21
-5.38
-5.84
-5.69
-5.09
-4.21
-3.16
-1.90
-0.29
1.91
4.91
8.76
13.30
18.07
22.56
26.30
29.16
31.24
32.84
34.23
35.43
36.30
36.66
36.55
36.26
36.17
36.39
36.68
36.42
35.07
32.46
29.06
25.75
23.34
22.21
22.10
22.30
22.09
21.11
19.43
17.47
15.61
14.00
12.46
10.61
8.11
4.80
0.75
-3.79
-8.56
-13.34
-17.89
-21.96
-25.25
-27.42
-28.27
-27.76
-26.10
-23.64
-20.72
-17.57
-14.33
-11.14
-8.24
-6.11
-5.20
-5.74
-7.44
-9.50
-10.82
-10.35
-7.51
-2.33
4.57
12.32
20.04
27.10
33.13
38.04
41.88
44.75
46.75
47.91
48.28
47.93
47.04
45.88
44.73
43.77
42.95
42.01
40.63
38.65
36.12
33.38
30.89
29.11
28.27
28.44
29.48
31.18
33.35
35.87
38.70
41.82
45.21
48.77
52.36
55.88
59.23
62.35
65.12
67.28
68.46
68.22
66.20
62.31
56.78
50.11
42.90
35.67
28.74
22.23
16.06
10.18
4.53
-0.83
-5.83
-10.38
-14.51
-18.34
-22.05
-25.89
-30.08
-34.79
-40.07
-45.84
-51.89
-57.78
-63.01
-67.08
-69.64
-70.60
-70.08
-68.32
-65.52
-61.83
-57.28
-51.89
-45.80
-39.29
-32.76
-26.58
-21.02
-16.11
-11.73
-7.70
-3.88
-0.24
3.16
6.19
8.75
10.81
12.45
13.77
14.83
15.62
16.03
16.00
15.50
14.59
13.38
11.97
10.40
8.67
6.75
4.60
2.23
-0.35
-3.16
-6.19
-9.38
-12.58
-15.53
-17.90
-19.39
-19.80
-19.06
-17.18
-14.19
-10.11
-5.01
1.02
7.75
14.84
21.83
28.25
33.72
38.02
41.15
43.30
44.71
45.61
46.09
46.07
45.35
43.76
41.23
37.83
33.75
29.23
24.47
19.59
14.61
9.54
4.33
-1.01
-6.46
-11.87
-17.04
-21.79
-26.03
-29.82
-33.35
-36.90
-40.67
-44.73
-48.96
-53.13
-56.85
-59.70
-61.25
-61.18
-59.38
-56.00
-51.45
-46.19
-40.60
-34.82
-28.75
-22.32
-15.60
-8.91
-2.73
2.55
6.80
10.21
13.19
16.10
19.08
21.97
24.51
26.51
28.05
29.41
30.95
32.86
35.00
36.97
38.24
38.45
37.50
35.54
32.95
30.06
27.14
24.25
21.34
18.20
14.58
10.26
5.13
-0.70
-6.85
-12.78
-17.89
-21.71
-24.00
-24.72
-24.00
-22.05
-19.08
-15.27
-10.80
-5.87
-0.67
4.56
9.57
14.12
18.03
21.20
23.66
25.54
27.01
28.26
29.43
30.53
31.53
32.35
32.95
33.33
33.59
33.86
34.24
34.80
35.48
36.21
36.90
37.47
37.94
38.29
38.55
38.66
38.55
38.13
37.36
36.26
34.91
33.42
31.90
30.34
28.64
26.62
24.08
20.93
17.20
13.09
8.89
4.91
1.37
-1.64
-4.16
-6.30
-8.23
-10.04
-11.77
-13.41
-14.97
-16.46
-17.99
-19.67
-21.63
-23.95
-26.57
-29.28
-31.82
-33.95
-35.63
-37.06
-38.64
-40.74
-43.59
-47.10
-50.94
-54.63
-57.79
-60.18
-61.85
-63.08
-64.23
-65.66
-67.50
-69.66
-71.75
-73.29
-73.77
-72.82
-70.32
-66.35
-61.13
-54.95
-48.14
-41.05
-33.99
-27.22
-20.93
-15.23
-10.23
-6.04
-2.72
-0.23
1.65
3.22
4.72
6.18
7.40
8.10
8.11
7.54
6.70
5.93
5.31
4.52
2.93
-0.14
-5.08
-11.90
-20.29
-29.84
-40.23
-51.30
-62.92
-74.83
-86.52
-97.27
-106.24
-112.78
-116.43
-116.99
-114.35
-108.42
-99.13
-86.55
-71.11
-53.66
-35.40
-17.56
-1.17
13.25
25.61
36.11
44.93
52.05
57.23
60.15
60.72
59.25
56.44
53.20
50.41
48.57
47.72
47.59
47.85
48.34
49.18
50.55
52.52
54.80
56.77
57.74
57.23
55.10
51.53
46.82
41.25
34.92
27.89
20.23
12.09
3.67
-4.84
-13.35
-21.88
-30.49
-39.18
-47.77
-55.84
-62.79
-67.88
-70.50
-70.32
-67.40
-62.22
-55.45
-47.79
-39.75
-31.66
-23.71
-16.11
-9.09
-2.89
2.32
6.53
9.81
12.29
14.10
15.28
15.86
15.87
15.44
14.81
14.32
14.30
15.03
16.63
19.05
22.10
25.55
29.19
32.92
36.75
40.80
45.23
50.21
55.77
61.76
67.71
72.93
76.64
78.21
77.44
74.71
71.00
67.63
65.94
66.82
70.43
76.10
82.55
88.25
91.97
93.08
91.68
88.35
83.77
78.34
72.03
64.52
55.51
44.96
33.28
21.27
10.00
0.66
-5.72
-8.42
-7.42
-3.51
1.67
6.11
7.97
6.25
1.14
-6.15
-13.91
-20.72
-25.86
-29.39
-31.89
-33.91
-35.67
-36.97
-37.42
-36.66
-34.59
-31.42
-27.53
-23.47
-19.74
-16.89
-15.32
-15.29
-16.80
-19.56
-23.03
-26.63
-29.93
-32.81
-35.47
-38.34
-41.92
-46.60
-52.52
-59.57
-67.33
-75.27
-82.84
-89.71
-95.81
-101.29
-106.47
-111.64
-116.84
-121.85
-126.17
-129.09
-129.97
-128.38
-124.24
-117.80
-109.53
-99.96
-89.56
-78.75
-68.04
-58.01
-49.29
-42.37
-37.35
-33.91
-31.37
-28.87
-25.66
-21.26
-15.41
-8.11
0.48
10.11
20.41
31.02
41.60
51.92
61.77
70.89
78.95
85.60
90.60
93.97
95.91
96.77
96.87
96.47
95.76
94.92
94.19
93.79
93.85
94.34
95.07
95.78
96.28
96.48
96.39
96.07
95.56
94.90
94.09
93.01
91.41
88.85
84.77
78.66
70.24
59.52
46.84
32.85
18.31
4.08
-9.07
-20.52
-29.78
-36.60
-40.94
-42.96
-43.05
-41.77
-39.75
-37.56
-35.60
-33.98
-32.53
-30.98
-29.12
-27.01
-24.91
-23.14
-21.87
-21.10
-20.59
-20.17
-19.79
-19.61
-19.84
-20.59
-21.75
-23.00
-23.94
-24.34
-24.19
-23.70
-23.22
-23.05
-23.33
-24.12
-25.34
-26.94
-28.88
-31.16
-33.83
-36.93
-40.54
-44.77
-49.82
-55.96
-63.47
-72.58
-83.24
-95.20
-107.98
-121.04
-133.84
-145.78
-155.94
-162.95
-165.15
-161.09
-150.16
-132.87
-110.75
-85.76
-59.71
-34.00
-9.56
12.81
32.43
48.81
61.84
71.89
79.69
85.98
91.24
95.66
99.28
102.20
104.62
106.67
108.28
109.20
109.01
107.33
103.93
98.79
92.11
84.31
75.98
67.72
59.92
52.63
45.55
38.27
30.52
22.38
14.34
7.17
1.78
-0.83
0.20
5.55
15.43
29.47
46.75
65.98
85.89
105.57
124.59
142.95
160.77
178.06
194.65
210.35
225.06
238.84
251.64
262.87
271.17
274.64
271.40
260.65
243.26
221.80
199.73
180.37
165.83
156.59
151.71
149.36
147.40
143.89
137.30
126.76
112.12
93.88
72.95
50.31
26.73
2.78
-21.06
-44.22
-66.10
-86.41
-105.39
-123.98
-143.58
-165.68
-191.54
-221.77
-256.02
-292.45
-327.60
-356.83
-375.48
-380.37
-371.00
-349.72
-320.79
-288.80
-257.21
-227.89
-201.37
-177.76
-157.31
-140.51
-127.61
-118.15
-110.88
-104.08
-96.35
-87.29
-78.03
-71.28
-70.70
-79.88
-101.11
-134.38
-177.20
-225.17
-273.06
-315.86
-349.36
-370.47
-377.16
-368.73
-346.03
-311.64
-269.58
-224.40
-180.14
-139.30
-102.57
-69.10
-37.19
-4.88
29.69
67.86
109.91
154.44
198.14
236.38
264.75
280.72
284.65
279.55
269.58
258.19
246.88
235.25
221.99
206.08
187.47
166.97
145.62
124.17
103.11
82.94
64.47
48.91
37.35
30.50
28.27
29.83
33.80
38.59
42.80
45.45
46.17
45.20
43.16
40.65
37.95
34.87
30.90
25.59
18.91
11.31
3.66
-3.14
-8.45
-12.03
-13.99
-14.58
-14.14
-12.98
-11.43
-9.74
-8.02
-6.11
-3.66
-0.33
3.94
8.82
13.65
17.72
20.58
22.22
23.02
23.57
24.35
25.57
27.17
28.88
30.37
31.38
31.79
31.56
30.76
29.46
27.66
25.34
22.47
19.08
15.35
11.58
8.07
5.11
2.75
0.90
-0.74
-2.53
-4.75
-7.51
-10.74
-14.20
-17.59
-20.60
-23.00
-24.63
-25.38
-25.17
-23.95
-21.73
-18.61
-14.79
-10.55
-6.21
-2.08
1.59
4.58
6.75
7.98
8.29
7.76
6.62
5.19
3.85
2.90
2.45
2.43
2.63
2.80
2.77
2.48
1.86
0.88
-0.59
-2.62
-5.19
-8.12
-11.04
-13.56
-15.36
-16.42
-16.89
-17.10
-17.40
-18.07
-19.29
-21.13
-23.59
-26.57
-29.86
-33.07
-35.73
-37.36
-37.66
-36.51
-34.07
-30.63
-26.54
-22.08
-17.41
-12.66
-7.96
-3.49
0.53
3.90
6.46
8.17
9.18
9.75
10.14
10.60
11.21
11.90
12.51
12.84
12.78
12.35
11.67
10.91
10.18
9.49
8.72
7.73
6.36
4.63
2.65
0.64
-1.21
-2.81
-4.15
-5.35
-6.51
-7.71
-9.01
-10.41
-11.86
-13.23
-14.23
-14.49
-13.60
-11.32
-7.63
-2.81
2.66
8.23
13.41
17.87
21.46
24.18
26.10
27.35
28.09
28.43
28.42
28.10
27.45
26.48
25.21
23.72
22.10
20.47
18.93
17.50
16.10
14.56
12.65
10.27
7.43
4.29
1.07
-2.04
-4.95
-7.64
-10.12
-12.44
-14.63
-16.83
-19.17
-21.76
-24.50
-27.08
-28.97
-29.66
-28.83
-26.49
-22.96
-18.70
-14.17
-9.68
-5.38
-1.23
2.91
7.12
11.40
15.56
19.30
22.37
24.63
26.13
27.10
27.77
28.26
28.60
28.70
28.50
27.99
27.21
26.18
24.76
22.76
20.02
16.60
12.79
9.14
6.15
4.21
3.42
3.55
4.20
4.88
5.22
5.06
4.56
4.10
4.14
5.07
7.00
9.75
12.97
16.32
19.65
22.94
26.34
29.91
33.58
37.17
40.45
43.26
45.61
47.55
49.15
50.34
51.02
50.97
50.11
48.45
46.10
43.19
39.75
35.64
30.70
24.80
18.03
10.68
3.20
-4.06
-10.97
-17.63
-24.28
-31.14
-38.27
-45.61
-52.96
-60.08
-66.64
-72.29
-76.61
-79.22
-79.86
-78.47
-75.14
-70.09
-63.60
-56.02
-47.78
-39.32
-31.12
-23.54
-16.75
-10.80
-5.57
-0.95
3.19
6.99
10.53
13.88
17.02
19.82
22.07
23.60
24.40
24.58
24.39
24.07
23.80
23.60
23.40
23.04
22.32
21.03
19.01
16.19
12.59
8.33
3.54
-1.72
-7.43
-13.52
-19.86
-26.08
-31.77
-36.52
-40.07
-42.37
-43.44
-43.24
-41.57
-38.18
-32.98
-26.24
-18.66
-11.20
-4.76
0.16
3.55
5.85
7.59
9.16
10.66
11.94
12.77
13.01
12.67
11.90
10.83
9.54
7.99
6.08
3.66
0.66
-2.93
-7.00
-11.43
-16.11
-20.96
-25.93
-30.86
-35.54
-39.68
-43.09
-45.79
-48.06
-50.28
-52.76
-55.45
-57.91
-59.47
-59.45
-57.43
-53.44
-47.87
-41.32
-34.34
-27.28
-20.33
-13.57
-7.12
-1.27
3.65
7.34
9.70
10.88
11.27
11.32
11.36
11.46
11.49
11.19
10.33
8.85
6.90
4.80
2.87
1.40
0.48
-0.04
-0.40
-0.92
-1.80
-3.08
-4.70
-6.49
-8.36
-10.29
-12.30
-14.39
-16.50
-18.56
-20.52
-22.39
-24.19
-25.90
-27.33
-28.17
-28.03
-26.65
-23.96
-20.07
-15.20
-9.54
-3.21
3.71
11.18
19.09
27.28
35.51
43.54
51.07
57.86
63.67
68.36
71.83
73.99
74.79
74.21
72.30
69.25
65.39
61.09
56.68
52.34
48.06
43.74
39.26
34.55
29.64
24.56
19.26
13.70
7.80
1.58
-4.86
-11.39
-17.88
-24.27
-30.57
-36.75
-42.70
-48.18
-52.89
-56.49
-58.72
-59.38
-58.33
-55.44
-50.64
-43.99
-35.77
-26.53
-16.96
-7.72
0.73
8.26
14.93
20.96
26.52
31.64
36.26
40.30
43.71
46.51
48.77
50.51
51.77
52.51
52.75
52.52
51.90
50.91
49.50
47.51
44.73
40.97
36.24
30.73
24.77
18.66
12.54
6.30
-0.32
-7.58
-15.52
-23.88
-32.13
-39.65
-45.86
-50.40
-53.06
-53.80
-52.64
-49.75
-45.41
-40.03
-34.04
-27.83
-21.67
-15.74
-10.15
-5.08
-0.79
2.49
4.58
5.48
5.40
4.66
3.57
2.42
1.40
0.61
0.12
-0.12
-0.23
-0.38
-0.74
-1.37
-2.18
-2.92
-3.25
-2.96
-2.03
-0.74
0.42
0.91
0.38
-1.24
-3.64
-6.25
-8.44
-9.75
-9.98
-9.24
-7.92
-6.44
-5.11
-4.07
-3.27
-2.53
-1.70
-0.69
0.49
1.76
3.02
4.28
5.60
7.15
9.07
11.45
14.23
17.10
19.66
21.47
22.29
22.19
21.66
21.40
22.10
24.14
27.45
31.46
35.36
38.36
39.97
40.10
38.94
36.87
34.24
31.27
28.02
24.51
20.68
16.49
11.91
6.95
1.65
-3.83
-9.20
-14.09
-18.06
-20.73
-21.87
-21.45
-19.68
-16.90
-13.50
-9.83
-6.11
-2.46
1.01
4.17
6.79
8.64
9.58
9.59
8.87
7.72
6.52
5.57
5.13
5.30
6.04
7.18
8.41
9.41
9.96
10.06
9.86
9.57
9.36
9.22
9.04
8.65
7.91
6.76
5.15
3.03
0.33
-3.02
-7.02
-11.59
-16.56
-21.77
-27.04
-32.17
-36.89
-40.92
-43.96
-45.85
-46.62
-46.48
-45.71
-44.54
-43.09
-41.35
-39.26
-36.82
-34.08
-31.15
-28.10
-24.96
-21.60
-17.82
-13.35
-7.99
-1.64
5.61
13.42
21.27
28.56
34.83
39.78
43.41
45.87
47.33
47.90
47.53
46.21
44.00
41.06
37.60
33.80
29.70
25.28
20.56
15.63
10.68
5.86
1.19
-3.43
-8.11
-12.88
-17.56
-21.85
-25.40
-28.00
-29.56
-30.08
-29.57
-28.08
-25.65
-22.42
-18.59
-14.43
-10.19
-6.13
-2.55
0.26
1.97
2.37
1.47
-0.41
-2.69
-4.69
-5.88
-6.01
-5.21
-3.88
-2.51
-1.48
-0.93
-0.74
-0.65
-0.35
0.39
1.63
3.31
5.24
7.18
8.85
9.98
10.27
9.56
7.78
5.00
1.44
-2.71
-7.26
-12.12
-17.21
-22.34
-27.17
-31.20
-33.88
-34.82
-33.97
-31.63
-28.36
-24.69
-20.99
-17.32
-13.59
-9.70
-5.75
-1.99
1.27
3.86
5.81
7.40
8.87
10.38
11.89
13.22
14.23
14.93
15.47
15.98
16.50
16.80
16.56
15.43
13.28
10.27
6.86
3.63
1.09
-0.50
-1.20
-1.29
-1.14
-1.05
-1.14
-1.38
-1.69
-2.03
-2.46
-3.07
-3.80
-4.36
-4.24
-2.87
0.18
5.04
11.55
19.37
28.03
36.96
45.39
52.40
57.08
58.81
57.61
54.15
49.59
45.12
41.56
39.12
37.50
36.19
34.76
33.10
31.28
29.43
27.55
25.47
22.92
19.74
15.95
11.83
7.81
4.26
1.31
-1.21
-3.64
-6.32
-9.41
-12.86
-16.50
-20.18
-23.88
-27.66
-31.54
-35.35
-38.74
-41.29
-42.68
-42.77
-41.55
-39.00
-35.01
-29.39
-22.06
-13.22
-3.47
6.28
15.05
22.14
27.27
30.58
32.48
33.40
33.71
33.61
33.19
32.51
31.56
30.34
28.79
26.86
24.50
21.75
18.71
15.55
12.41
9.35
6.34
3.31
0.22
-2.91
-5.98
-8.88
-11.62
-14.30
-17.19
-20.48
-24.17
-27.99
-31.43
-33.91
-34.99
-34.54
-32.66
-29.67
-25.84
-21.37
-16.44
-11.22
-6.03
-1.24
2.81
5.97
8.34
10.19
11.77
13.13
14.06
14.16
13.09
10.75
7.42
3.60
-0.15
-3.46
-6.31
-8.91
-11.61
-14.59
-17.88
-21.26
-24.44
-27.21
-29.53
-31.52
-33.39
-35.37
-37.59
-40.11
-42.97
-46.10
-49.42
-52.67
-55.42
-57.12
-57.22
-55.31
-51.29
-45.39
-38.04
-29.75
-20.90
-11.65
-2.07
7.74
17.48
26.59
34.38
40.28
44.08
46.06
46.87
47.31
47.98
49.12
50.53
51.74
52.24
51.69
49.96
47.16
43.50
39.17
34.29
28.93
23.19
17.20
11.15
5.23
-0.47
-5.92
-11.17
-16.20
-20.93
-25.22
-28.97
-32.23
-35.26
-38.47
-42.16
-46.44
-51.09
-55.60
-59.32
-61.71
-62.43
-61.44
-58.90
-55.04
-50.11
-44.33
-37.94
-31.24
-24.61
-18.43
-12.97
-8.32
-4.42
-1.14
1.67
4.05
5.97
7.42
8.40
9.00
9.39
9.74
10.14
10.65
11.16
11.51
11.51
11.03
10.08
8.88
7.70
6.78
6.19
5.78
5.28
4.51
3.36
1.90
0.22
-1.70
-3.94
-6.55
-9.42
-12.12
-14.09
-14.77
-13.90
-11.56
-8.14
-4.10
0.26
4.83
9.71
14.99
20.60
26.33
31.79
36.65
40.71
43.92
46.40
48.27
49.65
50.57
51.06
51.14
50.88
50.36
49.69
48.93
48.08
47.03
45.63
43.66
40.98
37.55
33.48
29.03
24.48
20.11
16.02
12.24
8.68
5.23
1.74
-1.91
-5.82
-9.99
-14.26
-18.30
-21.66
-23.88
-24.63
-23.74
-21.24
-17.29
-12.19
-6.28
-0.03
6.14
11.84
16.91
21.44
25.70
29.97
34.26
38.39
42.01
44.75
46.36
46.75
45.87
43.74
40.39
36.02
30.98
25.75
20.75
16.13
11.81
7.54
3.15
-1.36
-5.80
-9.92
-13.62
-16.95
-20.14
-23.45
-27.15
-31.31
-35.85
-40.44
-44.60
-47.89
-49.97
-50.80
-50.52
-49.41
-47.66
-45.31
-42.24
-38.37
-33.77
-28.77
-23.83
-19.42
-15.83
-13.11
-11.15
-9.70
-8.54
-7.49
-6.39
-5.14
-3.69
-2.00
-0.12
1.87
3.90
5.96
8.15
10.58
13.30
16.27
19.27
22.03
24.25
25.67
26.08
25.32
23.31
20.01
15.57
10.22
4.33
-1.74
-7.68
-13.33
-18.52
-23.13
-26.88
-29.45
-30.54
-29.98
-27.80
-24.26
-19.76
-14.71
-9.53
-4.52
0.07
4.03
7.20
9.58
11.29
12.60
13.80
15.05
16.32
17.38
17.91
17.69
16.68
15.08
13.17
11.18
9.22
7.26
5.22
3.01
0.63
-1.94
-4.76
-7.86
-11.26
-14.83
-18.33
-21.52
-24.25
-26.55
-28.64
-30.83
-33.34
-36.27
-39.58
-43.12
-46.62
-49.83
-52.40
-53.98
-54.33
-53.32
-51.04
-47.68
-43.49
-38.67
-33.37
-27.67
-21.73
-15.78
-10.11
-5.02
-0.67
2.90
5.82
8.27
10.46
12.50
14.39
16.01
17.20
17.85
17.90
17.45
16.64
15.62
14.46
13.17
11.72
10.10
8.40
6.75
5.26
3.92
2.56
0.96
-1.05
-3.50
-6.21
-8.91
-11.38
-13.49
-15.20
-16.50
-17.30
-17.47
-16.81
-15.20
-12.62
-9.16
-4.97
-0.21
4.95
10.32
15.62
20.59
24.98
28.61
31.48
33.67
35.31
36.55
37.50
38.23
38.76
39.07
39.06
38.63
37.71
36.30
34.52
32.54
30.52
28.47
26.34
23.93
21.11
17.85
14.29
10.67
7.24
4.17
1.42
-1.17
-3.88
-6.88
-10.16
-13.47
-16.41
-18.58
-19.71
-19.69
-18.57
-16.51
-13.62
-10.02
-5.79
-1.07
3.99
9.16
14.22
18.97
23.24
26.95
30.08
32.74
35.12
37.47
39.99
42.78
45.77
48.72
51.27
53.10
53.96
53.70
52.35
49.96
46.62
42.46
37.60
32.26
26.65
21.01
15.49
10.10
4.75
-0.72
-6.42
-12.41
-18.58
-24.72
-30.55
-35.80
-40.24
-43.72
-46.11
-47.34
-47.43
-46.46
-44.55
-41.85
-38.49
-34.59
-30.29
-25.75
-21.15
-16.68
-12.39
-8.28
-4.25
-0.17
3.95
7.98
11.71
14.86
17.20
18.58
18.99
18.56
17.49
16.04
14.41
12.69
10.86
8.80
6.41
3.66
0.62
-2.63
-6.02
-9.52
-13.17
-17.04
-21.19
-25.67
-30.46
-35.49
-40.52
-45.22
-49.18
-51.99
-53.34
-53.05
-51.11
-47.72
-43.16
-37.78
-31.95
-25.98
-20.16
-14.71
-9.85
-5.72
-2.38
0.26
2.40
4.24
5.96
7.58
9.00
10.00
10.38
10.04
8.98
7.33
5.26
2.96
0.54
-1.94
-4.56
-7.47
-10.77
-14.41
-18.18
-21.83
-25.18
-28.24
-31.17
-34.17
-37.35
-40.64
-43.89
-46.96
-49.71
-52.03
-53.72
-54.49
-54.03
-52.08
-48.61
-43.80
-38.00
-31.56
-24.79
-17.87
-10.93
-4.14
2.37
8.44
14.00
19.05
23.66
27.92
31.85
35.42
38.45
40.73
42.10
42.47
41.91
40.57
38.66
36.36
33.84
31.22
28.51
25.65
22.51
18.96
14.97
10.59
6.02
1.47
-2.92
-7.07
-11.00
-14.73
-18.28
-21.65
-24.83
-27.71
-30.08
-31.56
-31.65
-29.87
-25.97
-20.07
-12.61
-4.29
4.25
12.51
20.21
27.29
33.76
39.66
45.01
49.79
53.96
57.41
60.05
61.82
62.80
63.10
62.92
62.37
61.50
60.28
58.69
56.76
54.59
52.30
49.92
47.41
44.64
41.45
37.81
33.79
29.62
25.55
21.72
18.10
14.47
10.53
5.95
0.60
-5.52
-12.25
-19.40
-26.78
-34.19
-41.31
-47.74
-52.99
-56.66
-58.56
-58.71
-57.32
-54.72
-51.17
-46.91
-42.09
-36.88
-31.46
-26.03
-20.75
-15.67
-10.67
-5.50
0.13
6.46
13.51
21.06
28.62
35.62
41.58
46.15
49.15
50.55
50.31
48.44
45.03
40.34
34.76
28.78
22.82
17.12
11.76
6.71
1.90
-2.76
-7.37
-12.06
-17.08
-22.61
-28.67
-34.99
-41.01
-46.02
-49.45
-50.97
-50.67
-48.91
-46.18
-42.87
-39.25
-35.41
-31.40
-27.35
-23.45
-19.92
-16.94
-14.50
-12.45
-10.57
-8.69
-6.75
-4.79
-2.86
-0.92
1.15
3.57
6.47
9.89
13.69
17.57
21.09
23.81
25.38
25.62
24.58
22.51
19.73
16.49
12.88
8.86
4.28
-0.90
-6.63
-12.73
-19.06
-25.55
-32.17
-38.89
-45.46
-51.51
-56.58
-60.30
-62.52
-63.24
-62.59
-60.67
-57.52
-53.12
-47.45
-40.57
-32.65
-23.92
-14.72
-5.44
3.46
11.51
18.35
23.80
27.88
30.76
32.64
33.65
33.79
33.09
31.65
29.71
27.61
25.66
23.95
22.35
20.52
18.13
15.00
11.28
7.31
3.53
0.29
-2.34
-4.48
-6.38
-8.31
-10.48
-12.99
-15.90
-19.18
-22.73
-26.27
-29.36
-31.50
-32.22
-31.26
-28.65
-24.61
-19.49
-13.62
-7.27
-0.63
6.03
12.41
18.13
22.83
26.36
28.77
30.37
31.51
32.49
33.42
34.20
34.69
34.81
34.71
34.67
34.98
35.80
36.97
38.17
39.01
39.22
38.76
37.76
36.40
34.79
32.89
30.55
27.61
23.99
19.72
14.87
9.50
3.65
-2.58
-8.90
-14.89
-19.95
-23.57
-25.44
-25.51
-23.93
-21.00
-16.99
-12.07
-6.43
-0.26
6.15
12.45
18.29
23.40
27.61
30.91
33.44
35.40
36.98
38.29
39.25
39.72
39.59
38.85
37.71
36.48
35.40
34.48
33.45
31.79
28.95
24.58
18.63
11.30
3.00
-5.87
-14.94
-23.85
-32.26
-39.96
-46.78
-52.75
-57.96
-62.52
-66.39
-69.36
-71.07
-71.14
-69.34
-65.65
-60.26
-53.44
-45.45
-36.56
-26.96
-16.86
-6.58
3.51
13.02
21.57
28.91
34.96
39.81
43.62
46.55
48.66
49.89
50.18
49.55
48.12
46.09
43.67
40.98
38.01
34.69
31.00
26.97
22.70
18.31
13.77
8.94
3.54
-2.68
-9.87
-17.94
-26.68
-35.73
-44.68
-53.11
-60.59
-66.66
-70.94
-73.18
-73.28
-71.33
-67.56
-62.17
-55.24
-46.79
-36.82
-25.56
-13.52
-1.49
9.67
19.28
27.00
32.92
37.40
40.90
43.79
46.23
48.09
49.07
48.72
46.61
42.43
36.10
27.85
18.28
8.17
-1.57
-10.19
-17.12
-22.14
-25.25
-26.64
-26.66
-25.62
-23.90
-21.82
-19.68
-17.65
-15.84
-14.26
-12.92
-11.79
-10.82
-9.90
-8.88
-7.59
-5.94
-4.02
-2.12
-0.78
-0.65
-2.35
-6.23
-12.21
-19.76
-27.92
-35.59
-41.70
-45.44
-46.35
-44.34
-39.63
-32.72
-24.37
-15.43
-6.75
1.04
7.61
12.99
17.40
21.09
24.16
26.56
28.11
28.58
27.75
25.42
21.46
15.77
8.35
-0.65
-10.84
-21.60
-32.13
-41.59
-49.25
-54.71
-57.93
-59.20
-59.05
-58.13
-56.94
-55.78
-54.65
-53.31
-51.40
-48.53
-44.38
-38.79
-31.80
-23.79
-15.56
-8.21
-2.74
0.35
1.46
1.88
3.24
6.87
13.18
21.58
30.81
39.62
47.25
53.59
58.90
63.47
67.29
70.13
71.65
71.76
70.66
68.82
66.72
64.63
62.49
59.96
56.65
52.29
46.95
40.96
34.73
28.45
22.10
15.45
8.37
1.09
-5.81
-11.50
-15.29
-16.89
-16.52
-14.76
-12.28
-9.52
-6.62
-3.44
0.22
4.44
9.06
13.71
17.95
21.42
23.94
25.53
26.31
26.40
25.86
24.66
22.85
20.53
17.91
15.27
12.85
10.75
8.94
7.31
5.65
3.75
1.46
-1.30
-4.49
-7.99
-11.65
-15.28
-18.82
-22.27
-25.75
-29.39
-33.35
-37.72
-42.47
-47.45
-52.29
-56.47
-59.40
-60.62
-59.89
-57.31
-53.27
-48.24
-42.65
-36.68
-30.37
-23.68
-16.68
-9.67
-3.06
2.70
7.33
10.79
13.27
15.09
16.52
17.73
18.66
19.21
19.22
18.64
17.48
15.86
13.92
11.76
9.44
6.98
4.38
1.68
-1.03
-3.67
-6.19
-8.67
-11.17
-13.79
-16.53
-19.33
-22.09
-24.80
-27.53
-30.39
-33.43
-36.53
-39.37
-41.53
-42.60
-42.34
-40.73
-37.88
-33.94
-29.02
-23.17
-16.50
-9.22
-1.74
5.43
11.82
17.19
21.59
25.28
28.56
31.58
34.33
36.64
38.33
39.30
39.61
39.40
38.84
38.11
37.36
36.69
36.11
35.54
34.81
33.76
32.32
30.56
28.66
26.83
25.13
23.48
21.66
19.44
16.66
13.21
9.02
4.10
-1.47
-7.35
-13.01
-17.74
-20.93
-22.16
-21.36
-18.77
-14.79
-9.83
-4.25
1.65
7.63
13.46
18.93
23.89
28.26
32.02
35.22
37.91
40.13
41.91
43.21
43.95
44.08
43.59
42.56
41.15
39.56
37.90
36.21
34.37
32.24
29.64
26.47
22.71
18.34
13.41
7.99
2.26
-3.51
-9.01
-13.97
-18.30
-22.12
-25.69
-29.30
-33.10
-36.93
-40.45
-43.16
-44.59
-44.41
-42.45
-38.74
-33.45
-26.96
-19.74
-12.38
-5.44
0.62
5.56
9.34
12.11
14.13
15.70
17.05
18.33
19.54
20.56
21.14
21.09
20.31
18.90
17.08
15.12
13.23
11.44
9.68
7.77
5.58
3.10
0.39
-2.42
-5.22
-8.04
-10.95
-14.06
-17.43
-20.99
-24.56
-27.96
-31.15
-34.22
-37.38
-40.80
-44.41
-47.85
-50.62
-52.22
-52.37
-51.02
-48.33
-44.52
-39.80
-34.33
-28.35
-22.24
-16.47
-11.51
-7.62
-4.79
-2.76
-1.15
0.36
1.89
3.35
4.51
5.07
4.90
3.99
2.48
0.60
-1.45
-3.57
-5.66
-7.66
-9.52
-11.17
-12.65
-14.04
-15.54
-17.30
-19.43
-21.81
-24.19
-26.23
-27.67
-28.49
-28.93
-29.46
-30.59
-32.61
-35.52
-38.95
-42.33
-45.00
-46.48
-46.56
-45.23
-42.64
-38.97
-34.36
-28.98
-22.96
-16.47
-9.70
-2.84
3.92
10.33
16.14
21.04
24.89
27.74
29.87
31.73
33.73
36.10
38.73
41.25
43.23
44.36
44.62
44.23
43.53
42.75
41.96
41.01
39.65
37.67
34.97
31.59
27.70
23.55
19.41
15.54
12.12
9.23
6.82
4.73
2.78
0.91
-0.76
-1.88
-2.04
-0.87
1.79
5.89
11.15
17.15
23.37
29.20
34.03
37.37
38.98
39.00
37.89
36.30
34.79
33.71
33.06
32.58
31.91
30.77
29.01
26.70
24.03
21.31
18.80
16.67
14.86
13.18
11.27
8.87
5.89
2.49
-0.99
-4.21
-6.93
-9.18
-11.19
-13.30
-15.84
-19.02
-22.94
-27.55
-32.70
-38.02
-42.98
-46.93
-49.25
-49.50
-47.59
-43.72
-38.30
-31.72
-24.25
-16.04
-7.22
2.05
11.46
20.66
29.36
37.36
44.59
51.05
56.74
61.67
65.80
69.11
71.64
73.48
74.77
75.68
76.30
76.55
76.19
74.79
71.91
67.29
60.90
53.02
44.14
34.74
25.23
15.88
6.80
-1.95
-10.32
-18.28
-25.87
-33.21
-40.49
-47.90
-55.44
-62.89
-69.80
-75.63
-79.90
-82.34
-82.95
-81.90
-79.51
-76.05
-71.75
-66.75
-61.19
-55.27
-49.30
-43.67
-38.74
-34.75
-31.64
-29.13
-26.76
-24.22
-21.48
-18.81
-16.68
-15.42
-15.10
-15.44
-16.03
-16.56
-16.99
-17.52
-18.44
-19.91
-21.86
-24.06
-26.21
-28.13
-29.80
-31.31
-32.78
-34.30
-35.90
-37.59
-39.40
-41.43
-43.82
-46.58
-49.61
-52.54
-54.84
-55.92
-55.31
-52.81
-48.54
-42.86
-36.22
-29.00
-21.46
-13.75
-6.07
1.32
8.05
13.77
18.29
21.70
24.25
26.35
28.32
30.38
32.57
34.85
37.17
39.52
41.91
44.36
46.80
49.07
50.90
52.04
52.39
52.02
51.17
50.10
48.94
47.61
45.82
43.19
39.43
34.43
28.26
21.11
13.18
4.74
-3.89
-12.28
-19.90
-26.21
-30.81
-33.53
-34.43
-33.78
-31.94
-29.30
-26.20
-22.92
-19.65
-16.53
-13.54
-10.57
-7.43
-3.88
0.25
4.96
10.08
15.30
20.34
25.01
29.32
33.33
37.11
40.54
43.41
45.45
46.48
46.47
45.52
43.76
41.31
38.27
34.75
30.93
27.00
23.08
19.14
14.95
10.25
4.88
-0.97
-6.79
-11.83
-15.37
-16.93
-16.41
-14.03
-10.22
-5.45
-0.17
5.20
10.27
14.75
18.39
21.15
23.12
24.50
25.46
26.06
26.21
25.68
24.18
21.49
17.53
12.56
7.14
2.08
-1.83
-4.05
-4.55
-3.81
-2.60
-1.70
-1.56
-2.17
-3.12
-3.90
-4.04
-3.29
-1.55
1.12
4.46
7.98
10.92
12.43
11.78
8.83
4.01
-1.68
-7.06
-11.15
-13.44
-13.96
-13.02
-11.02
-8.30
-5.08
-1.56
2.05
5.45
8.34
10.48
11.80
12.41
12.56
12.49
12.38
12.16
11.65
10.62
8.95
6.72
4.22
1.80
-0.21
-1.63
-2.53
-3.13
-3.73
-4.62
-5.98
-7.87
-10.19
-12.77
-15.46
-18.17
-20.91
-23.71
-26.57
-29.49
-32.46
-35.58
-39.04
-42.99
-47.39
-51.91
-55.90
-58.62
-59.44
-58.06
-54.57
-49.29
-42.68
-35.14
-26.99
-18.48
-9.94
-1.73
5.70
11.98
16.88
20.38
22.72
24.30
25.57
26.82
28.15
29.42
30.39
30.91
31.00
30.90
30.90
31.20
31.81
32.54
33.13
33.43
33.46
33.45
33.66
34.31
35.37
36.68
37.91
38.71
38.83
38.11
36.50
33.96
30.51
26.16
21.06
15.56
10.18
5.54
2.15
0.30
-0.02
0.94
2.88
5.53
8.77
12.57
16.95
21.91
27.33
32.96
38.41
43.18
46.79
48.90
49.37
48.29
45.91
42.52
38.45
33.99
29.50
25.24
21.35
17.76
14.22
10.52
6.61
2.65
-1.03
-4.19
-6.69
-8.66
-10.32
-11.98
-13.95
-16.57
-20.16
-24.93
-30.72
-37.01
-42.96
-47.69
-50.60
-51.45
-50.36
-47.54
-43.09
-37.07
-29.59
-20.87
-11.36
-1.54
8.16
17.37
25.72
32.73
37.80
40.33
39.95
36.70
31.05
23.79
15.80
7.81
0.27
-6.66
-13.02
-19.00
-24.76
-30.42
-35.95
-41.32
-46.46
-51.24
-55.52
-59.14
-61.99
-64.07
-65.67
-67.30
-69.59
-73.07
-77.86
-83.69
-89.89
-95.63
-100.16
-103.00
-103.95
-102.95
-99.98
-94.97
-87.77
-78.40
-67.20
-54.91
-42.56
-31.27
-21.86
-14.72
-9.73
-6.37
-3.91
-1.62
1.07
4.45
8.49
12.84
17.02
20.59
23.43
25.66
27.61
29.51
31.32
32.75
33.41
33.03
31.66
29.58
27.22
25.03
23.35
22.38
22.16
22.47
22.78
22.43
20.67
17.06
11.59
4.75
-2.71
-9.94
-16.28
-21.37
-25.11
-27.61
-29.06
-29.65
-29.51
-28.70
-27.15
-24.74
-21.34
-16.85
-11.30
-4.87
2.11
9.20
15.85
21.58
26.06
29.26
31.50
33.25
35.03
37.14
39.55
41.96
43.98
45.34
45.98
46.03
45.73
45.27
44.78
44.34
44.02
44.01
44.58
45.96
48.30
51.49
55.17
58.71
61.34
62.35
61.30
58.12
53.16
47.11
40.79
34.95
30.12
26.52
24.15
22.83
22.34
22.40
22.70
22.81
22.26
20.67
17.86
13.94
9.30
4.32
-0.76
-5.92
-11.31
-17.01
-22.86
-28.43
-33.07
-36.11
-37.05
-35.69
-32.21
-27.14
-21.35
-15.86
-11.67
-9.50
-9.57
-11.60
-14.85
-18.39
-21.28
-22.90
-22.97
-21.64
-19.36
-16.77
-14.48
-12.91
-12.21
-12.27
-12.84
-13.57
-14.06
-13.94
-12.84
-10.50
-6.88
-2.14
3.28
8.90
14.23
18.95
22.87
25.96
28.26
29.86
30.85
31.32
31.36
31.03
30.37
29.43
28.26
26.88
25.32
23.50
21.31
18.61
15.29
11.37
7.00
2.50
-1.77
-5.49
-8.51
-10.97
-13.24
-15.83
-19.18
-23.52
-28.75
-34.48
-40.15
-45.19
-49.19
-51.92
-53.33
-53.61
-53.01
-51.84
-50.37
-48.69
-46.70
-44.09
-40.47
-35.50
-29.05
-21.30
-12.64
-3.62
5.18
13.28
20.23
25.70
29.42
31.27
31.31
29.90
27.51
24.64
21.67
18.71
15.63
12.23
8.33
3.99
-0.61
-5.22
-9.67
-13.99
-18.33
-22.87
-27.67
-32.65
-37.58
-42.14
-46.04
-49.14
-51.37
-52.80
-53.53
-53.63
-53.07
-51.73
-49.46
-46.17
-41.89
-36.76
-31.01
-24.90
-18.67
-12.66
-7.22
-2.77
0.37
2.15
2.85
3.02
3.32
4.24
5.91
8.14
10.48
12.46
13.73
14.17
13.85
12.96
11.69
10.17
8.43
6.48
4.34
2.08
-0.16
-2.30
-4.33
-6.35
-8.51
-10.97
-13.80
-17.05
-20.73
-24.83
-29.28
-33.85
-38.11
-41.51
-43.48
-43.65
-41.92
-38.47
-33.73
-28.20
-22.34
-16.49
-10.84
-5.48
-0.49
4.02
7.86
10.81
12.72
13.57
13.50
12.68
11.34
9.64
7.78
5.92
4.26
2.92
1.88
0.93
-0.22
-1.83
-4.02
-6.67
-9.47
-12.05
-14.00
-15.04
-15.07
-14.21
-12.81
-11.39
-10.50
-10.50
-11.46
-13.09
-14.84
-16.13
-16.46
-15.63
-13.60
-10.46
-6.27
-0.95
5.57
13.27
21.84
30.64
38.86
45.71
50.70
53.76
55.21
55.54
55.22
54.52
53.52
52.24
50.72
49.07
47.43
45.88
44.43
43.02
41.57
40.01
38.31
36.40
34.25
31.79
29.02
26.05
23.14
20.71
19.24
19.13
20.56
23.39
27.15
31.16
34.73
37.26
38.44
38.20
36.69
34.23
31.28
28.36
26.01
24.62
24.40
25.27
26.93
28.93
30.77
32.03
32.46
32.05
30.98
29.59
28.17
26.89
25.68
24.34
22.66
20.56
18.16
15.68
13.34
11.20
9.10
6.85
4.28
1.37
-1.75
-4.91
-8.01
-11.03
-14.07
-17.30
-20.82
-24.68
-28.83
-33.15
-37.45
-41.53
-45.12
-47.94
-49.70
-50.11
-48.95
-46.16
-41.84
-36.23
-29.66
-22.43
-14.80
-6.96
0.83
8.25
14.95
20.58
24.94
27.97
29.78
30.59
30.64
30.20
29.51
28.78
28.16
27.67
27.24
26.67
25.75
24.24
21.89
18.56
14.19
8.88
2.90
-3.38
-9.58
-15.48
-21.05
-26.46
-31.97
-37.89
-44.39
-51.45
-58.75
-65.74
-71.69
-75.87
-77.76
-77.20
-74.39
-69.74
-63.78
-56.95
-49.59
-41.91
-34.05
-26.08
-18.03
-9.97
-2.04
5.53
12.46
18.48
23.48
27.48
30.59
33.03
35.07
36.95
38.92
41.20
43.91
47.01
50.33
53.57
56.46
58.75
60.26
60.92
60.73
59.82
58.41
56.78
55.16
53.62
52.00
49.97
47.17
43.29
38.27
32.25
25.57
18.71
12.20
6.66
2.68
0.83
1.46
4.65
10.11
17.18
24.92
32.33
38.57
43.07
45.67
46.51
45.82
43.85
40.73
36.47
31.13
24.86
17.95
10.81
3.91
-2.36
-7.70
-12.05
-15.50
-18.32
-20.83
-23.23
-25.66
-28.18
-30.90
-33.94
-37.46
-41.50
-45.94
-50.51
-54.89
-58.88
-62.33
-65.10
-66.99
-67.74
-67.11
-65.00
-61.58
-57.14
-52.03
-46.50
-40.71
-34.73
-28.71
-22.84
-17.41
-12.65
-8.74
-5.73
-3.63
-2.34
-1.77
-1.83
-2.43
-3.52
-5.07
-7.06
-9.39
-11.95
-14.65
-17.40
-20.24
-23.23
-26.47
-30.01
-33.84
-37.89
-42.11
-46.48
-50.98
-55.57
-60.16
-64.52
-68.39
-71.50
-73.59
-74.49
-74.03
-72.05
-68.43
-63.10
-56.15
-47.82
-38.42
-28.28
-17.67
-6.77
4.32
15.43
26.31
36.60
45.84
53.63
59.74
64.16
67.14
69.05
70.28
71.13
71.76
72.11
71.93
70.87
68.56
64.75
59.46
52.92
45.58
37.89
30.22
22.76
15.56
8.59
1.87
-4.56
-10.68
-16.57
-22.45
-28.57
-35.12
-42.07
-49.12
-55.73
-61.32
-65.36
-67.59
-67.99
-66.76
-64.19
-60.54
-55.94
-50.45
-44.13
-37.15
-29.90
-22.91
-16.74
-11.84
-8.34
-6.10
-4.72
-3.80
-3.04
-2.38
-1.93
-1.83
-2.17
-2.84
-3.64
-4.33
-4.80
-5.05
-5.20
-5.39
-5.71
-6.14
-6.60
-7.00
-7.28
-7.43
-7.47
-7.45
-7.43
-7.47
-7.67
-8.09
-8.73
-9.49
-10.13
-10.26
-9.45
-7.35
-3.77
1.21
7.36
14.32
21.76
29.41
37.08
44.62
51.84
58.58
64.63
69.81
73.98
77.05
78.97
79.77
79.52
78.35
76.35
73.64
70.33
66.57
62.55
58.49
54.60
51.01
47.71
44.62
41.63
38.67
35.72
32.76
29.75
26.56
23.03
19.09
14.85
10.65
6.92
3.93
1.62
-0.45
-2.88
-6.12
-10.20
-14.71
-18.96
-22.34
-24.50
-25.44
-25.31
-24.21
-22.11
-18.91
-14.62
-9.55
-4.30
0.43
4.02
6.18
6.97
6.70
5.76
4.43
2.90
1.19
-0.69
-2.71
-4.82
-6.92
-8.93
-10.85
-12.68
-14.52
-16.48
-18.75
-21.49
-24.78
-28.55
-32.60
-36.65
-40.42
-43.79
-46.78
-49.53
-52.27
-55.17
-58.35
-61.79
-65.32
-68.61
-71.17
-72.51
-72.15
-69.90
-65.77
-59.99
-52.95
-45.02
-36.52
-27.70
-18.80
-10.06
-1.79
5.66
11.98
16.98
20.62
23.11
24.78
25.96
26.87
27.51
27.76
27.43
26.42
24.75
22.56
20.01
17.18
14.10
10.71
6.98
2.92
-1.38
-5.79
-10.19
-14.44
-18.44
-22.12
-25.49
-28.69
-31.95
-35.54
-39.56
-43.91
-48.23
-52.00
-54.72
-56.07
-55.94
-54.41
-51.64
-47.76
-42.89
-37.19
-30.82
-24.04
-17.16
-10.48
-4.31
1.10
5.63
9.32
12.34
14.98
17.53
20.14
22.82
25.43
27.84
29.99
31.99
34.06
36.34
38.82
41.28
43.40
44.88
45.62
45.73
45.46
45.05
44.66
44.29
43.84
43.18
42.19
40.79
38.91
36.48
33.45
29.87
25.98
22.13
18.79
16.36
15.04
14.84
15.54
16.88
18.61
20.58
22.71
24.97
27.24
29.34
31.12
32.42
33.18
33.37
33.02
32.14
30.74
28.88
26.67
24.29
21.96
19.87
18.07
16.55
15.20
13.92
12.66
11.44
10.31
9.34
8.53
7.86
7.23
6.51
5.46
3.80
1.20
-2.57
-7.54
-13.46
-19.80
-25.84
-30.90
-34.45
-36.25
-36.29
-34.75
-31.91
-28.04
-23.35
-18.00
-12.18
-6.11
-0.09
5.51
10.36
14.27
17.22
19.41
21.05
22.35
23.40
24.17
24.59
24.65
24.35
23.78
22.95
21.82
20.33
18.40
16.03
13.30
10.41
7.55
4.85
2.41
0.19
-1.88
-3.96
-6.22
-8.84
-11.97
-15.63
-19.71
-23.89
-27.75
-30.89
-32.94
-33.67
-32.99
-30.85
-27.31
-22.50
-16.67
-10.26
-3.76
2.27
7.41
11.43
14.32
16.27
17.55
18.45
19.16
19.78
20.26
20.46
20.18
19.28
17.71
15.62
13.30
11.17
9.62
8.84
8.76
9.03
9.11
8.46
6.75
3.88
-0.01
-4.56
-9.42
-14.29
-19.07
-23.82
-28.71
-33.90
-39.44
-45.18
-50.82
-55.97
-60.31
-63.59
-65.62
-66.28
-65.42
-63.00
-59.07
-53.89
-47.82
-41.26
-34.50
-27.79
-21.33
-15.39
-10.25
-6.13
-3.07
-0.91
0.64
1.86
2.92
3.85
4.53
4.88
4.85
4.52
3.91
3.02
1.73
-0.09
-2.47
-5.28
-8.22
-10.92
-13.13
-14.85
-16.27
-17.66
-19.24
-20.99
-22.76
-24.39
-25.83
-27.20
-28.69
-30.43
-32.28
-33.85
-34.63
-34.14
-32.07
-28.34
-23.04
-16.41
-8.67
-0.11
8.98
18.24
27.31
35.78
43.35
49.84
55.20
59.49
62.86
65.47
67.44
68.90
69.94
70.72
71.42
72.17
73.02
73.87
74.46
74.50
73.78
72.21
69.85
66.80
63.13
58.84
53.93
48.41
42.36
35.92
29.29
22.64
16.16
9.98
4.15
-1.33
-6.49
-11.35
-15.83
-19.78
-23.04
-25.50
-27.11
-27.93
-28.02
-27.51
-26.60
-25.59
-24.89
-24.89
-25.82
-27.64
-30.12
-32.87
-35.65
-38.42
-41.36
-44.74
-48.80
-53.49
-58.55
-63.51
-67.80
-70.93
-72.65
-72.86
-71.71
-69.40
-66.13
-62.13
-57.64
-53.00
-48.64
-45.01
-42.51
-41.42
-41.82
-43.53
-46.20
-49.25
-52.04
-53.98
-54.60
-53.63
-51.01
-46.74
-40.86
-33.47
-24.74
-15.03
-4.86
5.17
14.52
22.81
29.89
35.82
40.82
45.09
48.79
51.99
54.67
56.88
58.76
60.62
62.81
65.57
68.92
72.60
76.15
79.12
81.26
82.65
83.64
84.66
85.99
87.57
88.89
89.11
87.32
82.86
75.48
65.45
53.47
40.57
27.91
16.71
8.15
3.19
2.40
5.70
12.34
21.07
30.44
39.12
46.15
50.93
53.11
52.51
49.07
42.91
34.40
24.12
12.81
1.18
-10.28
-21.32
-31.89
-42.08
-51.88
-61.19
-69.70
-76.92
-82.32
-85.47
-86.16
-84.51
-81.00
-76.32
-71.21
-66.23
-61.68
-57.53
-53.57
-49.57
-45.40
-41.02
-36.53
-32.02
-27.64
-23.56
-19.95
-16.98
-14.66
-12.78
-10.85
-8.21
-4.24
1.44
8.91
18.02
28.53
40.26
53.08
66.78
80.92
94.69
107.09
117.05
123.74
126.72
126.09
122.31
116.13
108.34
99.66
90.63
81.55
72.52
63.48
54.32
44.94
35.26
25.31
15.13
4.80
-5.49
-15.48
-24.85
-33.20
-40.19
-45.63
-49.50
-51.92
-53.14
-53.43
-52.98
-51.83
-49.93
-47.15
-43.43
-38.89
-33.82
-28.66
-23.81
-19.49
-15.66
-12.04
-8.29
-4.20
0.23
4.74
8.95
12.47
15.09
16.70
17.32
16.99
15.75
13.70
11.03
8.00
4.91
1.97
-0.74
-3.26
-5.73
-8.25
-10.91
-13.71
-16.69
-19.85
-23.19
-26.64
-30.07
-33.36
-36.39
-39.13
-41.66
-44.19
-46.95
-50.20
-54.05
-58.37
-62.75
-66.52
-68.92
-69.35
-67.56
-63.62
-57.90
-50.81
-42.63
-33.58
-23.84
-13.72
-3.69
5.74
14.11
21.23
27.18
32.33
37.07
41.76
46.54
51.33
55.84
59.74
62.66
64.32
64.57
63.35
60.71
56.73
51.54
45.31
38.25
30.66
22.83
15.00
7.28
-0.36
-8.03
-15.78
-23.55
-31.13
-38.27
-44.70
-50.26
-54.75
-57.97
-59.66
-59.59
-57.67
-54.04
-49.07
-43.22
-36.92
-30.45
-23.93
-17.46
-11.24
-5.58
-0.88
2.53
4.55
5.36
5.36
5.01
4.70
4.58
4.61
4.57
4.25
3.51
2.36
0.93
-0.60
-2.10
-3.54
-5.02
-6.69
-8.68
-11.10
-13.93
-17.15
-20.71
-24.57
-28.68
-32.98
-37.36
-41.70
-45.94
-50.12
-54.34
-58.65
-62.91
-66.77
-69.68
-71.09
-70.65
-68.25
-64.03
-58.21
-51.01
-42.63
-33.26
-23.20
-12.87
-2.74
6.74
15.24
22.61
28.85
34.00
38.11
41.22
43.34
44.48
44.66
44.00
42.64
40.75
38.48
35.86
32.86
29.35
25.26
20.66
15.80
11.10
7.02
3.87
1.70
0.21
-1.18
-3.19
-6.45
-11.30
-17.69
-25.16
-32.96
-40.24
-46.25
-50.47
-52.68
-52.97
-51.61
-48.95
-45.32
-40.90
-35.76
-29.80
-22.89
-14.94
-6.04
3.50
13.16
22.40
30.76
38.06
44.37
49.95
55.18
60.37
65.79
71.57
77.66
83.77
89.45
94.11
97.22
98.44
97.70
95.17
91.12
85.77
79.24
71.61
62.98
53.53
43.50
33.07
22.39
11.54
0.72
-9.70
-19.17
-27.05
-32.79
-36.11
-37.02
-35.75
-32.65
-28.07
-22.28
-15.52
-8.08
-0.31
7.36
14.42
20.46
25.20
28.58
30.73
31.93
32.39
32.22
31.32
29.44
26.41
22.16
16.92
11.02
4.88
-1.25
-7.29
-13.27
-19.33
-25.49
-31.62
-37.49
-42.76
-47.19
-50.63
-53.10
-54.81
-56.05
-57.13
-58.36
-59.91
-61.79
-63.78
-65.42
-66.14
-65.40
-62.84
-58.43
-52.45
-45.37
-37.64
-29.66
-21.70
-13.99
-6.82
-0.46
4.88
9.11
12.31
14.63
16.21
17.18
17.58
17.47
16.91
15.95
14.62
12.94
10.97
8.84
6.78
5.00
3.58
2.47
1.50
0.50
-0.51
-1.37
-1.82
-1.70
-1.04
-0.10
0.72
1.04
0.59
-0.77
-3.07
-6.27
-10.26
-14.82
-19.57
-23.95
-27.36
-29.23
-29.19
-27.13
-23.14
-17.40
-10.11
-1.47
8.34
18.96
29.94
40.70
50.71
59.64
67.48
74.48
81.04
87.49
93.91
100.08
105.60
110.05
113.16
114.89
115.44
115.08
113.97
112.08
109.15
104.76
98.48
90.00
79.20
66.21
51.36
35.25
18.68
2.60
-11.94
-23.99
-32.89
-38.48
-41.18
-41.97
-42.03
-42.45
-43.90
-46.43
-49.55
-52.52
-54.62
-55.42
-54.82
-53.01
-50.21
-46.61
-42.40
-37.79
-33.14
-28.91
-25.48
-23.06
-21.55
-20.60
-19.78
-18.86
-17.82
-16.91
-16.49
-16.83
-18.05
-20.12
-22.88
-26.17
-29.85
-33.75
-37.64
-41.23
-44.19
-46.23
-47.15
-46.97
-45.82
-43.95
-41.67
-39.20
-36.71
-34.23
-31.65
-28.73
-25.12
-20.52
-14.73
-7.81
-0.12
7.81
15.38
22.08
27.58
31.69
34.36
35.65
35.68
34.63
32.83
30.64
28.52
26.98
26.48
27.37
29.78
33.44
37.74
41.75
44.50
45.22
43.58
39.67
34.01
27.28
20.17
13.19
6.64
0.65
-4.79
-9.73
-14.30
-18.60
-22.73
-26.76
-30.71
-34.52
-38.18
-41.73
-45.35
-49.30
-53.77
-58.72
-63.82
-68.43
-71.83
-73.43
-72.86
-70.08
-65.33
-58.98
-51.48
-43.28
-34.79
-26.41
-18.48
-11.35
-5.23
-0.25
3.55
6.25
8.00
8.95
9.26
9.12
8.63
7.95
7.20
6.45
5.66
4.71
3.43
1.73
-0.36
-2.72
-5.19
-7.69
-10.26
-13.03
-16.04
-19.31
-22.78
-26.44
-30.40
-34.84
-39.97
-45.85
-52.34
-59.09
-65.65
-71.48
-76.09
-79.02
-79.91
-78.60
-75.13
-69.76
-62.82
-54.67
-45.54
-35.63
-25.28
-14.97
-5.35
3.05
9.98
15.67
20.76
25.96
31.78
38.19
44.64
50.29
54.37
56.50
56.69
55.27
52.63
49.11
44.97
40.56
36.33
32.86
30.61
29.84
30.50
32.24
34.61
37.12
39.31
40.76
41.05
39.86
37.08
32.88
27.76
22.45
17.65
13.93
11.57
10.61
10.91
12.34
14.79
18.20
22.50
27.47
32.82
38.17
43.20
47.70
51.55
54.62
56.77
57.81
57.62
56.21
53.81
50.77
47.52
44.44
41.82
39.80
38.35
37.29
36.29
34.93
32.87
29.94
26.17
21.76
17.00
12.11
7.23
2.42
-2.42
-7.48
-12.99
-19.11
-25.78
-32.57
-38.81
-43.74
-46.76
-47.65
-46.52
-43.68
-39.37
-33.75
-26.86
-18.89
-10.20
-1.34
7.14
14.75
21.20
26.38
30.32
33.13
35.01
36.18
36.83
37.12
37.11
36.82
36.29
35.54
34.58
33.35
31.65
29.26
25.97
21.75
16.77
11.36
5.91
0.69
-4.10
-8.48
-12.57
-16.55
-20.65
-25.10
-30.05
-35.54
-41.40
-47.25
-52.55
-56.68
-59.15
-59.72
-58.41
-55.42
-51.06
-45.58
-39.17
-32.02
-24.37
-16.60
-9.17
-2.54
2.91
7.04
9.93
11.88
13.29
14.49
15.65
16.72
17.51
17.87
17.72
17.15
16.31
15.31
14.11
12.53
10.41
7.67
4.45
0.97
-2.49
-5.79
-8.89
-11.90
-14.95
-18.22
-21.80
-25.70
-29.83
-33.94
-37.67
-40.61
-42.39
-42.81
-41.87
-39.75
-36.76
-33.22
-29.37
-25.32
-21.01
-16.29
-10.99
-5.13
1.00
6.91
12.00
15.79
18.07
18.98
18.88
18.22
17.43
16.76
16.32
16.10
16.04
16.02
15.94
15.76
15.48
15.10
14.64
14.05
13.29
12.37
11.37
10.44
9.67
9.02
8.30
7.20
5.42
2.80
-0.64
-4.74
-9.18
-13.55
-17.37
-20.15
-21.46
-21.01
-18.79
-14.93
-9.73
-3.49
3.51
11.02
18.75
26.32
33.28
39.19
43.75
46.81
48.52
49.18
49.21
48.98
48.74
48.55
48.29
47.77
46.82
45.38
43.47
41.09
38.17
34.56
30.14
24.93
19.12
13.07
7.18
1.71
-3.30
-8.03
-12.80
-17.95
-23.67
-29.95
-36.53
-42.91
-48.48
-52.61
-54.82
-54.90
-52.90
-49.08
-43.81
-37.46
-30.32
-22.68
-14.86
-7.17
0.02
6.46
12.02
16.70
20.58
23.71
25.98
27.27
27.47
26.70
25.21
23.38
21.55
19.85
18.20
16.42
14.32
11.85
9.08
6.09
2.94
-0.44
-4.15
-8.23
-12.69
-17.44
-22.43
-27.69
-33.31
-39.32
-45.53
-51.44
-56.33
-59.44
-60.24
-58.60
-54.74
-49.12
-42.17
-34.25
-25.67
-16.75
-7.92
0.32
7.52
13.43
18.00
21.41
23.85
25.51
26.45
26.67
26.21
25.13
23.56
21.66
19.60
17.51
15.49
13.53
11.57
9.48
7.14
4.48
1.53
-1.65
-4.97
-8.40
-11.99
-15.83
-20.10
-24.94
-30.39
-36.30
-42.29
-47.70
-51.73
-53.63
-52.89
-49.41
-43.54
-35.92
-27.30
-18.33
-9.48
-1.08
6.53
12.98
17.89
21.03
22.46
22.49
21.66
20.47
19.21
17.93
16.51
14.83
12.95
11.10
9.64
8.89
8.96
9.69
10.64
11.21
10.75
8.75
5.04
-0.23
-6.60
-13.49
-20.41
-27.10
-33.54
-39.88
-46.33
-52.90
-59.39
-65.36
-70.28
-73.60
-75.01
-74.49
-72.26
-68.68
-64.12
-58.76
-52.61
-45.56
-37.64
-29.13
-20.51
-12.45
-5.48
0.16
4.49
7.77
10.21
11.88
12.75
12.75
12.03
10.97
10.10
9.83
10.27
11.12
11.81
11.75
10.70
8.79
6.49
4.35
2.71
1.62
0.89
0.26
-0.52
-1.68
-3.42
-5.88
-9.04
-12.51
-15.57
-17.30
-16.97
-14.26
-9.42
-3.09
4.15
11.99
20.55
30.14
40.87
52.36
63.79
74.15
82.66
89.07
93.64
96.90
99.31
100.97
101.73
101.36
99.82
97.39
94.49
91.38
88.01
83.97
78.74
71.98
63.75
54.45
44.64
34.80
25.12
15.46
5.45
-5.35
-17.24
-30.16
-43.62
-56.74
-68.39
-77.49
-83.34
-85.74
-85.00
-81.79
-76.88
-70.91
-64.26
-57.04
-49.17
-40.55
-31.17
-21.29
-11.50
-2.48
5.05
10.68
14.36
16.46
17.54
18.15
18.66
19.19
19.68
20.02
20.10
19.85
19.16
17.94
16.04
13.37
9.94
5.84
1.25
-3.66
-8.82
-14.24
-20.01
-26.19
-32.70
-39.28
-45.50
-50.90
-55.10
-57.79
-58.82
-58.04
-55.27
-50.31
-43.05
-33.57
-22.30
-9.99
2.50
14.33
25.00
34.35
42.46
49.54
55.71
60.96
65.25
68.63
71.25
73.38
75.24
76.98
78.54
79.90
81.01
81.85
82.29
81.96
80.34
76.97
71.71
64.79
56.72
47.95
38.54
28.27
16.81
4.22
-8.90
-21.50
-32.40
-40.77
-46.27
-49.05
-49.46
-47.90
-44.67
-40.06
-34.41
-28.16
-21.83
-15.97
-10.98
-7.07
-4.28
-2.45
-1.36
-0.76
-0.47
-0.38
-0.47
-0.74
-1.14
-1.58
-1.90
-1.96
-1.75
-1.41
-1.26
-1.62
-2.68
-4.45
-6.71
-9.18
-11.71
-14.44
-17.74
-22.08
-27.65
-34.19
-40.88
-46.64
-50.35
-51.30
-49.29
-44.60
-37.83
-29.70
-20.84
-11.73
-2.74
5.90
14.05
21.71
28.89
35.62
41.75
46.97
50.82
52.89
52.96
51.17
47.98
43.99
39.79
35.75
31.97
28.32
24.58
20.50
15.93
10.80
5.09
-1.13
-7.77
-14.68
-21.73
-28.79
-35.75
-42.55
-49.14
-55.39
-61.00
-65.45
-68.13
-68.47
-66.11
-61.03
-53.47
-43.91
-32.89
-20.96
-8.61
3.62
15.28
25.97
35.44
43.59
50.42
55.90
60.01
62.67
63.86
63.71
62.49
60.58
58.31
55.90
53.39
50.66
47.51
43.71
39.16
33.88
28.02
21.82
15.54
9.39
3.45
-2.34
-8.14
-14.20
-20.71
-27.72
-35.00
-42.02
-48.09
-52.47
-54.62
-54.29
-51.54
-46.71
-40.30
-32.83
-24.79
-16.62
-8.64
-1.08
5.97
12.51
18.62
24.38
29.75
34.59
38.55
41.23
42.23
41.36
38.66
34.44
29.20
23.42
17.44
11.41
5.34
-0.88
-7.27
-13.70
-19.97
-25.82
-31.07
-35.69
-39.82
-43.70
-47.62
-51.86
-56.64
-62.08
-68.09
-74.30
-80.08
-84.65
-87.29
-87.58
-85.43
-81.10
-74.99
-67.50
-58.98
-49.81
-40.39
-31.24
-22.82
-15.44
-9.18
-3.92
0.53
4.33
7.55
10.24
12.44
14.17
15.51
16.49
17.13
17.44
17.45
17.21
16.76
16.15
15.43
14.66
13.87
13.07
12.26
11.40
10.50
9.58
8.71
7.87
6.91
5.58
3.61
0.81
-2.70
-6.49
-9.90
-12.15
-12.54
-10.70
-6.59
-0.58
6.77
14.80
23.01
31.01
38.51
45.19
50.73
54.87
57.53
58.93
59.48
59.65
59.73
59.73
59.43
58.51
56.83
54.41
51.53
48.45
45.37
42.27
39.00
35.35
31.23
26.73
22.05
17.42
12.95
8.58
4.11
-0.71
-6.12
-12.25
-19.05
-26.33
-33.70
-40.57
-46.31
-50.34
-52.27
-52.03
-49.76
-45.65
-39.84
-32.41
-23.44
-13.26
-2.43
8.24
17.97
26.18
32.65
37.46
40.82
42.93
43.96
44.01
43.26
41.95
40.37
38.78
37.28
35.86
34.30
32.29
29.53
25.83
21.21
15.91
10.32
4.85
-0.17
-4.62
-8.61
-12.55
-17.15
-23.39
-32.31
-44.63
-60.39
-78.77
-98.23
-117.06
-133.90
-148.16
-160.04
-170.13
-178.99
-186.88
-193.68
-199.07
-202.75
-204.45
-204.00
-201.28
-196.19
-188.70
-178.90
-167.05
-153.46
-138.49
-122.38
-105.17
-86.64
-66.33
-43.68
-18.38
9.37
38.66
67.95
95.41
119.34
138.59
152.74
161.98
166.91
168.27
166.75
162.96
157.47
150.80
143.39
135.62
127.70
119.80
112.20
105.30
99.63
95.67
93.65
93.39
94.40
96.10
98.12
100.44
103.46
107.69
113.43
120.48
128.03
134.79
139.37
140.57
137.84
131.23
121.39
109.25
95.74
81.55
67.10
52.55
37.98
23.37
8.73
-5.98
-20.77
-35.60
-50.29
-64.58
-78.14
-90.66
-101.95
-111.91
-120.54
-127.97
-134.30
-139.72
-144.41
-148.52
-152.15
-155.28
-157.84
-159.66
-160.54
-160.21
-158.29
-154.41
-148.25
-139.71
-128.90
-116.06
-101.45
-85.24
-67.55
-48.61
-28.99
-9.54
8.72
24.93
38.63
49.84
58.94
66.40
72.58
77.63
81.55
84.29
85.90
86.48
86.22
85.36
84.03
82.26
79.90
76.69
72.38
66.91
60.45
53.45
46.42
39.82
33.93
28.84
24.56
21.06
18.38
16.61
15.87
16.23
17.76
20.46
24.35
29.39
35.52
42.54
50.17
57.96
65.37
71.85
76.99
80.54
82.46
82.79
81.56
78.75
74.36
68.47
61.43
53.76
46.04
38.67
31.82
25.35
19.06
12.85
6.84
1.37
-3.12
-6.28
-7.97
-8.30
-7.58
-6.21
-4.51
-2.75
-1.07
0.33
1.09
0.58
-1.95
-7.21
-15.44
-26.17
-38.26
-50.12
-60.22
-67.47
-71.47
-72.38
-70.71
-66.92
-61.29
-53.93
-44.85
-34.23
-22.49
-10.37
1.24
11.46
19.57
25.13
28.00
28.26
26.14
21.95
16.17
9.43
2.57
-3.55
-8.17
-10.91
-11.77
-11.06
-9.28
-6.93
-4.41
-2.00
0.15
1.95
3.29
3.98
3.73
2.20
-0.94
-5.77
-12.09
-19.33
-26.71
-33.32
-38.35
-41.14
-41.28
-38.62
-33.31
-25.77
-16.63
-6.57
3.78
13.96
23.55
32.22
39.54
45.09
48.57
49.89
49.33
47.36
44.54
41.27
37.66
33.50
28.43
22.15
14.65
6.31
-2.20
-10.07
-16.66
-21.68
-25.16
-27.41
-28.78
-29.58
-29.98
-30.12
-30.15
-30.27
-30.69
-31.55
-32.99
-35.07
-37.92
-41.73
-46.63
-52.59
-59.23
-65.89
-71.75
-76.08
-78.45
-78.76
-77.21
-74.16
-70.02
-65.17
-59.99
-54.78
-49.75
-45.03
-40.63
-36.51
-32.59
-28.87
-25.39
-22.18
-19.21
-16.30
-13.15
-9.44
-4.88
0.58
6.79
13.38
19.85
25.73
30.68
34.54
37.33
39.23
40.48
41.28
41.77
41.88
41.47
40.30
38.18
35.00
30.82
25.75
20.03
13.93
7.77
1.90
-3.40
-8.01
-11.96
-15.33
-18.11
-20.04
-20.64
-19.45
-16.29
-11.52
-5.99
-0.81
3.04
4.95
4.78
2.84
-0.30
-3.96
-7.50
-10.40
-12.37
-13.31
-13.37
-12.79
-11.93
-11.12
-10.61
-10.51
-10.76
-11.11
-11.23
-10.83
-9.76
-8.11
-6.20
-4.49
-3.50
-3.64
-5.20
-8.27
-12.71
-18.07
-23.71
-28.89
-32.92
-35.36
-36.02
-34.90
-32.14
-27.88
-22.21
-15.24
-7.15
1.75
10.93
19.73
27.49
33.70
38.15
40.95
42.49
43.20
43.49
43.57
43.54
43.35
42.93
42.18
40.97
39.21
36.89
34.09
30.95
27.67
24.35
21.02
17.63
14.12
10.45
6.68
2.87
-0.95
-4.80
-8.85
-13.35
-18.63
-24.97
-32.49
-40.98
-49.90
-58.41
-65.58
-70.61
-72.99
-72.62
-69.79
-65.07
-59.22
-53.03
-47.13
-41.94
-37.64
-34.14
-31.23
-28.62
-26.09
-23.48
-20.70
-17.76
-14.79
-12.00
-9.58
-7.67
-6.23
-5.03
-3.82
-2.39
-0.71
1.03
2.56
3.59
3.94
3.57
2.60
1.24
-0.19
-1.39
-2.14
-2.35
-2.19
-2.00
-2.16
-2.96
-4.50
-6.57
-8.81
-10.75
-11.93
-12.02
-10.87
-8.49
-5.07
-0.91
3.70
8.48
13.25
17.93
22.52
27.02
31.49
35.88
40.09
43.93
47.22
49.85
51.84
53.35
54.58
55.71
56.86
58.07
59.35
60.63
61.71
62.24
61.77
59.91
56.52
51.78
46.19
40.26
34.34
28.49
22.56
16.36
9.88
3.24
-3.39
-9.94
-16.50
-23.17
-29.86
-36.21
-41.58
-45.21
-46.53
-45.27
-41.54
-35.75
-28.41
-20.06
-11.14
-2.01
6.98
15.50
23.24
29.93
35.47
39.89
43.32
45.91
47.71
48.63
48.49
47.14
44.63
41.27
37.50
33.72
30.13
26.69
23.17
19.36
15.18
10.71
6.17
1.76
-2.36
-6.16
-9.67
-12.98
-16.23
-19.59
-23.26
-27.36
-31.84
-36.40
-40.51
-43.56
-44.97
-44.37
-41.67
-37.05
-30.82
-23.41
-15.21
-6.56
2.18
10.72
18.72
25.85
31.84
36.54
39.96
42.26
43.63
44.24
44.18
43.49
42.19
40.41
38.32
36.06
33.71
31.16
28.28
24.97
21.28
17.36
13.42
9.59
5.89
2.20
-1.64
-5.75
-10.24
-15.18
-20.62
-26.46
-32.51
-38.33
-43.36
-47.00
-48.77
-48.41
-45.94
-41.59
-35.72
-28.76
-21.07
-12.87
-4.32
4.47
13.26
21.62
29.01
34.91
39.06
41.49
42.59
42.84
42.68
42.36
41.96
41.44
40.82
40.11
39.40
38.72
38.08
37.43
36.66
35.73
34.57
33.22
31.72
30.19
28.66
27.17
25.66
24.04
22.10
19.55
16.04
11.22
4.94
-2.60
-10.79
-18.73
-25.46
-30.19
-32.48
-32.20
-29.43
-24.34
-17.24
-8.58
1.02
10.86
20.23
28.52
35.27
40.17
43.02
43.92
43.22
41.52
39.48
37.62
36.06
34.64
33.02
30.95
28.36
25.38
22.19
18.87
15.39
11.52
7.10
1.95
-4.05
-10.91
-18.57
-26.89
-35.65
-44.55
-53.29
-61.69
-69.75
-77.70
-85.93
-94.89
-104.77
-115.44
-126.24
-136.24
-144.36
-149.76
-152.02
-151.16
-147.57
-141.80
-134.33
-125.54
-115.66
-104.84
-93.22
-81.09
-68.90
-57.26
-46.82
-38.11
-31.34
-26.31
-22.56
-19.51
-16.72
-13.97
-11.27
-8.75
-6.57
-4.82
-3.53
-2.70
-2.34
-2.39
-2.83
-3.56
-4.48
-5.44
-6.32
-7.07
-7.76
-8.56
-9.72
-11.45
-13.83
-16.82
-20.27
-24.06
-28.04
-32.00
-35.56
-38.18
-39.22
-38.21
-34.96
-29.62
-22.58
-14.34
-5.28
4.31
14.18
24.04
33.46
42.00
49.28
55.14
59.68
63.24
66.17
68.71
70.92
72.62
73.53
73.42
72.21
69.98
66.97
63.49
59.83
56.26
52.98
50.09
47.58
45.29
42.96
40.34
37.16
33.17
28.21
22.12
14.82
6.33
-3.22
-13.50
-24.04
-34.23
-43.42
-51.02
-56.59
-59.86
-60.72
-59.17
-55.36
-49.56
-42.11
-33.44
-23.97
-14.09
-4.19
5.38
14.23
22.00
28.37
33.13
36.20
37.58
37.27
35.34
31.89
27.22
21.73
15.94
10.28
5.02
0.18
-4.30
-8.47
-12.26
-15.46
-17.88
-19.40
-20.15
-20.38
-20.45
-20.71
-21.44
-22.87
-25.07
-27.99
-31.24
-34.25
-36.31
-36.84
-35.58
-32.66
-28.48
-23.50
-17.99
-11.95
-5.25
2.18
10.21
18.47
26.46
33.77
40.17
45.56
49.95
53.31
55.56
56.65
56.63
55.70
54.18
52.36
50.40
48.29
45.89
43.08
39.85
36.30
32.56
28.77
24.98
21.20
17.46
13.78
10.14
6.49
2.67
-1.53
-6.33
-11.92
-18.40
-25.71
-33.59
-41.56
-48.92
-54.94
-59.02
-60.81
-60.29
-57.64
-53.10
-46.91
-39.32
-30.68
-21.47
-12.24
-3.55
4.25
11.03
16.85
21.85
26.15
29.83
32.84
35.10
36.42
36.60
35.54
33.26
30.01
26.19
22.25
18.52
15.11
11.91
8.67
5.14
1.18
-3.18
-7.77
-12.38
-16.78
-20.85
-24.57
-28.02
-31.40
-35.01
-39.13
-43.97
-49.49
-55.38
-61.01
-65.60
-68.35
-68.70
-66.40
-61.57
-54.58
-45.99
-36.32
-25.98
-15.25
-4.34
6.55
17.16
27.14
36.09
43.73
49.98
54.94
58.87
62.01
64.53
66.53
68.02
69.09
69.83
70.29
70.41
70.05
69.00
67.11
64.33
60.76
56.62
52.23
47.88
43.77
39.94
36.21
32.24
27.68
22.22
15.71
8.22
-0.02
-8.59
-16.90
-24.29
-30.16
-34.07
-35.85
-35.54
-33.34
-29.46
-24.07
-17.39
-9.74
-1.57
6.59
14.18
20.82
26.32
30.68
34.02
36.56
38.45
39.77
40.46
40.38
39.40
37.56
35.03
32.18
29.33
26.70
24.28
21.88
19.24
16.11
12.26
7.59
2.18
-3.63
-9.23
-13.89
-17.07
-18.75
-19.60
-20.82
-23.72
-29.16
-37.19
-46.92
-56.85
-65.35
-71.08
-73.27
-71.75
-66.77
-58.87
-48.66
-36.87
-24.25
-11.59
0.36
11.04
20.14
27.62
33.61
38.35
42.00
44.64
46.23
46.66
45.84
43.76
40.60
36.69
32.50
28.50
24.99
21.98
19.20
16.24
12.74
8.56
3.81
-1.24
-6.32
-11.30
-16.17
-21.02
-26.01
-31.28
-36.98
-43.17
-49.80
-56.57
-62.99
-68.41
-72.22
-73.95
-73.36
-70.43
-65.29
-58.17
-49.41
-39.45
-28.87
-18.32
-8.42
0.30
7.49
13.00
16.88
19.31
20.56
20.86
20.43
19.42
17.95
16.13
14.06
11.76
9.21
6.35
3.18
-0.21
-3.65
-6.95
-10.01
-12.79
-15.33
-17.71
-19.99
-22.25
-24.63
-27.24
-30.14
-33.27
-36.48
-39.62
-42.69
-45.81
-49.08
-52.48
-55.64
-58.02
-58.99
-58.08
-55.08
-50.05
-43.19
-34.76
-25.06
-14.45
-3.37
7.63
18.01
27.27
35.18
41.78
47.37
52.33
56.98
61.40
65.44
68.82
71.32
72.97
73.96
74.48
74.57
74.05
72.57
69.87
65.88
60.79
54.95
48.69
42.23
35.62
28.87
21.89
14.69
7.27
-0.32
-8.09
-16.04
-24.09
-32.07
-39.57
-46.03
-50.83
-53.40
-53.43
-50.85
-45.79
-38.47
-29.16
-18.11
-5.64
7.83
21.73
35.41
48.24
59.66
69.23
76.64
81.70
84.40
84.84
83.32
80.25
76.08
71.25
66.05
60.64
55.01
49.03
42.53
35.50
28.05
20.47
13.09
6.13
-0.37
-6.62
-12.93
-19.62
-26.89
-34.83
-43.33
-52.19
-61.02
-69.19
-75.90
-80.24
-81.42
-79.02
-73.06
-63.98
-52.42
-39.11
-24.69
-9.77
5.02
18.96
31.32
41.46
48.99
53.84
56.23
56.61
55.49
53.32
50.46
47.18
43.71
40.25
36.99
34.03
31.34
28.73
25.91
22.63
18.73
14.19
9.07
3.52
-2.30
-8.19
-13.97
-19.45
-24.55
-29.32
-33.91
-38.59
-43.65
-49.30
-55.60
-62.38
-69.15
-75.24
-79.86
-82.34
-82.30
-79.71
-74.85
-68.13
-60.06
-51.16
-41.95
-32.97
-24.62
-17.18
-10.67
-5.03
-0.16
3.98
7.37
9.99
11.89
13.15
13.82
13.92
13.42
12.34
10.81
9.03
7.25
5.61
4.12
2.66
1.09
-0.68
-2.71
-4.98
-7.47
-10.15
-12.98
-15.90
-18.81
-21.65
-24.37
-27.00
-29.65
-32.54
-35.95
-40.14
-45.18
-50.78
-56.28
-60.75
-63.26
-63.19
-60.40
-55.21
-48.24
-40.15
-31.43
-22.40
-13.21
-4.02
4.93
13.31
20.78
27.12
32.29
36.44
39.77
42.49
44.66
46.28
47.32
47.82
47.91
47.85
47.80
47.84
47.87
47.66
46.96
45.53
43.28
40.32
36.92
33.43
30.16
27.27
24.76
22.50
20.38
18.38
16.52
14.78
13.11
11.38
9.59
7.89
6.65
6.26
7.02
8.97
11.94
15.62
19.73
24.00
28.28
32.43
36.30
39.78
42.77
45.22
47.11
48.42
49.13
49.19
48.56
47.12
44.72
41.31
36.96
31.96
26.77
21.78
17.26
13.18
9.33
5.46
1.47
-2.67
-6.83
-10.97
-15.06
-19.14
-23.17
-27.10
-30.85
-34.42
-37.96
-41.75
-45.98
-50.69
-55.54
-59.98
-63.28
-64.80
-64.10
-61.04
-55.70
-48.34
-39.32
-29.08
-18.11
-7.03
3.54
13.05
21.19
27.86
33.26
37.66
41.24
44.05
46.01
47.04
47.11
46.31
44.78
42.67
40.16
37.35
34.41
31.46
28.57
25.68
22.63
19.22
15.35
11.02
6.37
1.58
-3.14
-7.67
-11.94
-15.96
-19.82
-23.71
-27.89
-32.61
-38.01
-43.95
-49.93
-55.21
-58.93
-60.35
-59.10
-55.23
-49.15
-41.48
-32.80
-23.67
-14.49
-5.64
2.48
9.56
15.38
19.97
23.48
26.14
28.11
29.40
29.92
29.62
28.57
26.93
24.89
22.61
20.12
17.41
14.49
11.47
8.52
5.78
3.35
1.16
-0.98
-3.34
-6.17
-9.61
-13.63
-18.03
-22.49
-26.70
-30.49
-33.92
-37.27
-40.96
-45.35
-50.60
-56.52
-62.61
-68.08
-72.15
-74.13
-73.66
-70.66
-65.36
-58.12
-49.41
-39.67
-29.39
-19.08
-9.22
-0.23
7.58
14.10
19.32
23.34
26.31
28.38
29.68
30.32
30.38
29.93
29.12
28.20
27.51
27.40
28.08
29.55
31.48
33.21
33.92
32.71
28.86
22.05
12.53
1.14
-10.88
-22.21
-31.85
-39.38
-44.92
-48.94
-51.91
-54.05
-55.27
-55.30
-53.85
-50.76
-46.02
-39.72
-32.02
-23.13
-13.31
-2.91
7.66
18.03
27.90
37.11
45.56
53.10
59.41
64.06
66.56
66.53
63.95
59.15
52.78
45.62
38.36
31.52
25.47
20.50
16.92
14.99
14.76
15.97
18.05
20.27
22.01
22.90
22.91
22.29
21.39
20.51
19.79
19.20
18.53
17.47
15.63
12.68
8.50
3.29
-2.33
-7.54
-11.51
-13.66
-13.82
-12.20
-9.25
-5.52
-1.46
2.55
6.22
9.34
11.76
13.48
14.63
15.46
16.27
17.34
18.81
20.68
22.72
24.59
25.86
26.23
25.63
24.29
22.66
21.20
20.18
19.56
18.98
17.99
16.17
13.37
9.68
5.38
0.75
-4.01
-8.85
-13.82
-19.00
-24.46
-30.27
-36.52
-43.24
-50.35
-57.56
-64.35
-70.06
-74.09
-76.07
-75.93
-73.87
-70.18
-65.24
-59.38
-53.07
-46.84
-41.29
-37.03
-34.49
-33.85
-34.97
-37.43
-40.60
-43.75
-46.15
-47.15
-46.24
-43.10
-37.63
-30.02
-20.74
-10.49
-0.01
9.97
18.91
26.49
32.53
37.02
39.99
41.57
41.91
41.14
39.30
36.23
31.69
25.38
17.20
7.35
-3.61
-14.89
-25.55
-34.81
-42.14
-47.36
-50.57
-52.02
-51.92
-50.37
-47.38
-42.97
-37.26
-30.59
-23.41
-16.22
-9.43
-3.26
2.17
6.89
10.95
14.43
17.43
20.09
22.53
24.78
26.72
28.13
28.72
28.29
26.83
24.57
21.84
18.99
16.20
13.48
10.68
7.65
4.32
0.76
-2.95
-6.72
-10.56
-14.57
-18.86
-23.56
-28.77
-34.58
-41.00
-47.91
-54.91
-61.36
-66.47
-69.51
-69.94
-67.61
-62.71
-55.64
-46.94
-37.06
-26.45
-15.55
-4.84
5.23
14.25
21.97
28.37
33.59
37.90
41.57
44.80
47.78
50.60
53.32
55.92
58.33
60.42
62.06
63.12
63.59
63.47
62.79
61.53
59.65
57.08
53.87
50.13
46.01
41.63
37.01
32.11
26.81
21.01
14.65
7.77
0.55
-6.65
-13.26
-18.62
-22.09
-23.19
-21.73
-17.84
-11.91
-4.41
4.18
13.35
22.60
31.38
39.19
45.63
50.48
53.75
55.62
56.34
56.18
55.32
53.89
51.94
49.54
46.76
43.77
40.72
37.76
34.92
32.13
29.22
26.03
22.47
18.55
14.36
10.04
5.73
1.52
-2.54
-6.52
-10.68
-15.32
-20.72
-26.89
-33.43
-39.61
-44.59
-47.65
-48.40
-46.83
-43.16
-37.68
-30.67
-22.41
-13.26
-3.69
5.76
14.53
22.22
28.58
33.57
37.27
39.81
41.32
41.85
41.43
40.05
37.76
34.69
31.03
26.99
22.72
18.30
13.71
8.89
3.78
-1.63
-7.29
-13.12
-19.04
-24.92
-30.67
-36.22
-41.59
-46.88
-52.33
-58.21
-64.70
-71.71
-78.80
-85.17
-89.93
-92.32
-91.85
-88.46
-82.34
-73.84
-63.34
-51.28
-38.18
-24.75
-11.74
0.19
10.59
19.30
26.40
32.00
36.23
39.16
40.87
41.48
41.14
40.06
38.38
36.20
33.54
30.42
26.90
23.08
19.07
14.94
10.73
6.37
1.77
-3.15
-8.43
-14.01
-19.86
-25.90
-32.11
-38.54
-45.25
-52.30
-59.75
-67.50
-75.33
-82.77
-89.22
-93.96
-96.40
-96.14
-93.06
-87.33
-79.34
-69.59
-58.65
-47.07
-35.39
-24.08
-13.56
-4.13
4.01
10.85
16.48
21.11
24.92
28.00
30.30
31.71
32.16
31.76
30.82
29.75
28.91
28.46
28.25
27.94
27.15
25.63
23.36
20.53
17.42
14.30
11.33
8.49
5.66
2.67
-0.63
-4.37
-8.63
-13.40
-18.59
-23.90
-28.79
-32.51
-34.30
-33.48
-29.76
-23.23
-14.39
-3.92
7.51
19.39
31.40
43.30
54.74
65.23
74.14
80.91
85.27
87.33
87.51
86.42
84.56
82.19
79.31
75.84
71.72
67.03
61.97
56.73
51.40
45.95
40.32
34.47
28.49
22.54
16.76
11.18
5.68
0.02
-6.02
-12.62
-19.82
-27.56
-35.63
-43.65
-51.03
-57.04
-60.94
-62.18
-60.60
-56.50
-50.45
-43.07
-34.83
-25.98
-16.63
-6.94
2.74
11.91
20.03
26.66
31.59
34.81
36.46
36.70
35.76
33.89
31.35
28.45
25.46
22.62
20.05
17.79
15.75
13.80
11.81
9.68
7.40
4.98
2.44
-0.23
-3.06
-6.10
-9.37
-12.97
-17.05
-21.81
-27.47
-33.97
-40.96
-47.72
-53.38
-57.16
-58.58
-57.60
-54.43
-49.40
-42.76
-34.65
-25.15
-14.37
-2.51
10.09
22.92
35.48
47.23
57.78
66.88
74.48
80.59
85.20
88.23
89.52
88.95
86.60
82.77
77.87
72.33
66.35
59.92
52.91
45.21
36.91
28.28
19.70
11.49
3.85
-3.17
-9.64
-15.64
-21.22
-26.52
-31.76
-37.25
-43.32
-50.17
-57.67
-65.39
-72.69
-78.87
-83.38
-85.86
-86.16
-84.26
-80.22
-74.17
-66.39
-57.28
-47.44
-37.52
-28.20
-20.02
-13.35
-8.34
-4.86
-2.58
-1.09
-0.01
0.86
1.53
1.84
1.66
0.96
-0.12
-1.35
-2.54
-3.64
-4.74
-6.01
-7.58
-9.44
-11.52
-13.69
-15.88
-18.08
-20.35
-22.70
-25.10
-27.53
-29.97
-32.50
-35.29
-38.52
-42.28
-46.51
-50.83
-54.60
-56.99
-57.16
-54.54
-48.88
-40.36
-29.48
-16.93
-3.41
10.42
23.96
36.69
48.12
57.94
65.95
72.19
76.79
80.01
82.03
83.05
83.18
82.51
81.11
79.12
76.68
73.95
71.08
68.18
65.28
62.34
59.24
55.81
51.91
47.53
42.77
37.88
33.14
28.69
24.50
20.32
15.79
10.57
4.51
-2.33
-9.64
-16.94
-23.64
-29.09
-32.75
-34.21
-33.33
-30.26
-25.41
-19.26
-12.26
-4.68
3.33
11.72
20.35
28.96
37.18
44.61
50.86
55.64
58.80
60.38
60.62
59.92
58.75
57.50
56.32
55.15
53.71
51.74
49.07
45.70
41.80
37.70
33.75
30.38
27.91
26.54
26.18
26.33
26.13
24.56
20.71
14.07
4.74
-6.51
-18.45
-29.65
-38.80
-45.04
-48.00
-47.78
-44.81
-39.68
-33.14
-25.96
-18.94
-12.74
-7.79
-4.22
-1.94
-0.83
-0.86
-2.09
-4.57
-8.15
-12.42
-16.76
-20.59
-23.57
-25.67
-27.06
-28.01
-28.62
-28.93
-28.97
-28.85
-28.81
-29.09
-29.83
-30.94
-32.14
-33.13
-33.75
-34.04
-34.29
-34.93
-36.43
-39.22
-43.62
-49.67
-56.98
-64.78
-71.99
-77.55
-80.71
-81.14
-78.98
-74.53
-68.18
-60.22
-50.96
-40.82
-30.36
-20.27
-11.15
-3.41
2.83
7.70
11.47
14.43
16.84
18.88
20.58
21.83
22.42
22.12
20.69
17.99
14.04
9.00
3.25
-2.72
-8.37
-13.30
-17.33
-20.51
-23.10
-25.32
-27.35
-29.19
-30.79
-32.19
-33.63
-35.49
-38.23
-42.18
-47.33
-53.25
-59.06
-63.71
-66.20
-65.89
-62.62
-56.70
-48.73
-39.31
-28.95
-18.04
-6.95
3.91
14.02
22.93
30.40
36.48
41.50
45.87
49.89
53.66
57.06
59.93
62.13
63.72
64.92
65.97
67.02
68.03
68.72
68.71
67.70
65.57
62.51
58.84
54.96
51.11
47.37
43.69
39.92
35.89
31.37
26.14
20.00
12.92
5.12
-2.83
-10.21
-16.32
-20.69
-23.18
-23.91
-23.10
-20.96
-17.69
-13.49
-8.77
-4.07
-0.04
2.77
4.08
3.91
2.57
0.40
-2.25
-5.19
-8.28
-11.42
-14.55
-17.60
-20.62
-23.72
-27.07
-30.79
-34.84
-39.06
-43.18
-46.96
-50.27
-53.14
-55.69
-58.09
-60.44
-62.79
-65.10
-67.37
-69.56
-71.62
-73.35
-74.42
-74.35
-72.66
-69.01
-63.36
-55.95
-47.23
-37.70
-27.77
-17.75
-7.92
1.41
9.88
17.15
23.01
27.40
30.44
32.32
33.22
33.30
32.70
31.56
30.01
28.14
26.01
23.59
20.84
17.68
14.04
9.81
4.85
-0.94
-7.54
-14.74
-22.15
-29.27
-35.65
-40.99
-45.22
-48.48
-51.04
-53.24
-55.32
-57.35
-59.17
-60.34
-60.27
-58.45
-54.59
-48.77
-41.37
-32.97
-24.07
-15.01
-5.91
3.32
12.75
22.34
31.82
40.71
48.42
54.38
58.33
60.30
60.70
60.08
59.02
58.01
57.38
57.40
58.25
60.07
62.92
66.69
71.17
76.01
80.85
85.36
89.34
92.65
95.23
96.92
97.45
96.42
93.36
87.96
80.15
70.13
58.33
45.23
31.29
16.96
2.71
-10.90
-23.29
-33.91
-42.36
-48.36
-51.80
-52.66
-51.06
-47.29
-41.83
-35.31
-28.41
-21.76
-15.82
-10.88
-7.00
-4.09
-1.95
-0.38
0.73
1.37
1.42
0.80
-0.40
-1.97
-3.60
-5.04
-6.22
-7.19
-8.07
-8.95
-9.81
-10.60
-11.29
-11.84
-12.25
-12.47
-12.46
-12.24
-11.96
-11.86
-12.17
-12.93
-13.87
-14.41
-13.80
-11.29
-6.33
1.26
11.25
23.04
35.73
48.29
59.69
69.12
76.05
80.28
81.85
80.99
78.02
73.30
67.23
60.29
53.02
45.91
39.33
33.42
28.05
22.93
17.84
12.75
7.87
3.64
0.44
-1.56
-2.48
-2.74
-2.85
-3.27
-4.31
-6.09
-8.66
-12.06
-16.41
-21.84
-28.38
-35.96
-44.28
-52.88
-61.22
-68.79
-75.12
-79.89
-82.85
-83.86
-82.88
-80.00
-75.41
-69.40
-62.27
-54.27
-45.60
-36.44
-27.08
-17.88
-9.30
-1.74
4.59
9.70
13.80
17.15
19.84
21.80
22.90
23.06
22.43
21.35
20.21
19.23
18.33
17.14
15.26
12.38
8.49
3.83
-1.14
-6.03
-10.50
-14.47
-17.96
-21.15
-24.26
-27.52
-31.15
-35.23
-39.70
-44.23
-48.34
-51.41
-52.93
-52.53
-50.17
-46.03
-40.39
-33.55
-25.74
-17.16
-8.05
1.16
9.98
17.88
24.51
29.77
33.78
36.83
39.24
41.24
42.95
44.46
45.80
47.04
48.21
49.29
50.20
50.68
50.42
49.02
46.20
41.78
35.84
28.63
20.53
11.95
3.29
-5.13
-13.08
-20.42
-27.12
-33.34
-39.40
-45.64
-52.32
-59.40
-66.46
-72.74
-77.41
-79.75
-79.39
-76.32
-70.85
-63.45
-54.61
-44.79
-34.51
-24.31
-14.76
-6.42
0.30
5.25
8.50
10.37
11.26
11.54
11.50
11.24
10.71
9.76
8.27
6.20
3.64
0.77
-2.27
-5.41
-8.64
-11.95
-15.28
-18.46
-21.33
-23.84
-26.04
-28.14
-30.28
-32.56
-34.91
-37.25
-39.58
-42.00
-44.56
-47.17
-49.42
-50.63
-50.05
-47.09
-41.54
-33.59
-23.73
-12.53
-0.50
12.02
24.75
37.32
49.23
59.78
68.34
74.50
78.28
80.07
80.45
79.95
78.92
77.45
75.51
73.09
70.24
67.08
63.66
60.04
56.15
51.95
47.41
42.55
37.44
32.21
27.03
22.04
17.35
12.98
8.83
4.72
0.46
-4.09
-9.00
-14.24
-19.69
-25.14
-30.29
-34.80
-38.37
-40.70
-41.57
-40.78
-38.18
-33.68
-27.38
-19.58
-10.75
-1.47
7.78
16.62
24.87
32.46
39.34
45.38
50.39
54.18
56.55
57.39
56.71
54.61
51.32
47.16
42.45
37.43
32.28
27.02
21.68
16.29
10.93
5.69
0.66
-4.10
-8.59
-12.83
-16.83
-20.58
-24.15
-27.64
-31.33
-35.49
-40.34
-45.87
-51.74
-57.29
-61.64
-64.00
-63.79
-60.89
-55.54
-48.27
-39.66
-30.26
-20.51
-10.76
-1.38
7.27
14.87
21.26
26.46
30.65
34.04
36.78
38.84
40.18
40.76
40.67
40.19
39.67
39.40
39.48
39.76
39.87
39.40
38.03
35.68
32.51
28.78
24.76
20.55
16.15
11.51
6.66
1.85
-2.58
-6.30
-9.11
-11.08
-12.35
-13.09
-13.30
-12.88
-11.72
-9.85
-7.48
-4.89
-2.33
0.17
2.75
5.70
9.27
13.51
18.29
23.32
28.16
32.44
35.83
38.16
39.41
39.73
39.35
38.51
37.37
36.00
34.34
32.29
29.75
26.69
23.07
18.89
14.13
8.84
3.14
-2.71
-8.41
-13.69
-18.41
-22.66
-26.71
-30.93
-35.58
-40.79
-46.54
-52.69
-59.03
-65.24
-70.87
-75.33
-77.99
-78.30
-75.94
-70.89
-63.39
-53.94
-43.15
-31.64
-20.01
-8.72
1.84
11.37
19.72
26.79
32.58
37.10
40.41
42.58
43.69
43.81
43.07
41.63
39.67
37.40
34.95
32.37
29.63
26.62
23.28
19.57
15.51
11.18
6.66
2.04
-2.65
-7.36
-12.09
-16.84
-21.68
-26.75
-32.24
-38.25
-44.70
-51.22
-57.20
-61.93
-64.79
-65.39
-63.61
-59.52
-53.28
-45.12
-35.34
-24.45
-13.03
-1.73
8.89
18.50
26.95
34.21
40.34
45.39
49.42
52.54
54.83
56.34
57.04
56.85
55.75
53.87
51.53
49.07
46.77
44.64
42.52
40.13
37.26
33.87
30.13
26.33
22.76
19.57
16.71
13.99
11.07
7.67
3.56
-1.32
-6.93
-13.14
-19.70
-26.23
-32.23
-37.15
-40.56
-42.29
-42.47
-41.51
-39.84
-37.76
-35.34
-32.62
-29.76
-27.13
-25.28
-24.71
-25.63
-27.88
-31.04
-34.51
-37.77
-40.50
-42.52
-43.84
-44.52
-44.61
-44.19
-43.33
-42.11
-40.69
-39.21
-37.80
-36.50
-35.22
-33.87
-32.40
-30.92
-29.65
-28.86
-28.71
-29.15
-29.95
-30.84
-31.65
-32.43
-33.44
-35.01
-37.36
-40.37
-43.58
-46.24
-47.61
-47.10
-44.47
-39.81
-33.40
-25.55
-16.49
-6.40
4.50
15.77
26.84
37.05
45.83
52.91
58.30
62.32
65.43
68.08
70.67
73.41
76.35
79.42
82.40
84.94
86.60
86.92
85.55
82.30
77.24
70.69
63.13
55.14
47.26
39.86
33.15
27.13
21.63
16.45
11.25
5.72
-0.41
-7.33
-14.95
-22.87
-30.44
-36.88
-41.50
-43.91
-44.04
-42.07
-38.36
-33.26
-27.15
-20.40
-13.39
-6.46
0.14
6.27
11.88
16.92
21.36
25.07
27.95
29.95
30.99
31.05
30.12
28.26
25.62
22.52
19.29
16.21
13.42
10.84
8.30
5.62
2.72
-0.44
-3.83
-7.41
-11.14
-14.97
-18.87
-22.88
-27.12
-31.78
-37.05
-42.99
-49.38
-55.66
-61.07
-64.85
-66.43
-65.60
-62.50
-57.49
-51.03
-43.58
-35.52
-27.25
-19.12
-11.45
-4.50
1.58
6.68
10.69
13.42
14.66
14.26
12.29
9.04
5.03
0.88
-2.87
-5.93
-8.23
-9.93
-11.30
-12.60
-14.00
-15.59
-17.33
-19.15
-20.97
-22.76
-24.53
-26.31
-28.11
-29.98
-31.97
-34.21
-36.87
-40.04
-43.66
-47.42
-50.77
-53.04
-53.60
-52.04
-48.21
-42.26
-34.53
-25.39
-15.20
-4.24
7.26
19.08
30.95
42.55
53.55
63.69
72.70
80.28
86.05
89.56
90.40
88.39
83.70
76.97
69.11
61.10
53.67
47.20
41.69
36.95
32.75
28.95
25.47
22.23
19.12
15.96
12.63
9.06
5.28
1.38
-2.59
-6.67
-10.98
-15.69
-20.87
-26.44
-32.02
-37.04
-40.81
-42.71
-42.41
-39.83
-35.20
-28.88
-21.24
-12.60
-3.24
6.56
16.43
25.95
34.74
42.47
48.93
54.01
57.61
59.74
60.48
60.03
58.73
56.94
54.98
53.06
51.28
49.63
48.00
46.19
43.98
41.14
37.58
33.41
28.88
24.33
19.98
15.82
11.67
7.21
2.16
-3.61
-10.09
-17.12
-24.35
-31.35
-37.54
-42.32
-45.12
-45.57
-43.55
-39.18
-32.79
-24.89
-16.01
-6.67
2.70
11.80
20.48
28.65
36.25
43.14
49.12
53.98
57.55
59.79
60.82
60.82
60.04
58.70
56.93
54.76
52.17
49.11
45.51
41.28
36.32
30.49
23.68
15.89
7.27
-1.88
-11.17
-20.29
-29.16
-37.90
-46.74
-55.73
-64.59
-72.64
-78.98
-82.78
-83.57
-81.37
-76.52
-69.59
-61.08
-51.40
-40.86
-29.81
-18.67
-7.92
1.95
10.63
17.98
24.02
28.89
32.69
35.52
37.47
38.62
39.07
38.95
38.37
37.34
35.84
33.80
31.14
27.85
23.90
19.31
14.11
8.38
2.26
-4.06
-10.33
-16.41
-22.23
-27.91
-33.66
-39.71
-46.21
-53.16
-60.33
-67.27
-73.38
-78.04
-80.69
-80.97
-78.74
-74.17
-67.62
-59.54
-50.44
-40.77
-30.94
-21.40
-12.63
-5.09
0.84
4.99
7.45
8.54
8.72
8.37
7.68
6.65
5.14
3.03
0.37
-2.64
-5.71
-8.54
-10.95
-12.93
-14.59
-16.17
-17.93
-20.09
-22.79
-25.97
-29.44
-32.89
-36.03
-38.73
-41.05
-43.26
-45.71
-48.70
-52.40
-56.71
-61.32
-65.71
-69.28
-71.42
-71.69
-69.88
-66.00
-60.23
-52.83
-44.05
-34.10
-23.26
-11.93
-0.63
10.05
19.57
27.62
34.09
39.14
43.07
46.21
48.79
50.94
52.68
54.01
54.98
55.69
56.23
56.61
56.72
56.35
55.29
53.45
50.88
47.81
44.53
41.25
38.00
34.70
31.18
27.30
23.01
18.30
13.21
7.72
1.82
-4.45
-10.86
-16.98
-22.22
-25.96
-27.77
-27.40
-24.82
-20.18
-13.69
-5.72
3.28
12.65
21.68
29.73
36.36
41.42
45.04
47.48
48.93
49.49
49.13
47.87
45.74
42.91
39.56
35.90
32.06
28.08
23.93
19.57
15.04
10.33
5.47
0.41
-4.94
-10.67
-16.82
-23.28
-29.89
-36.51
-43.14
-49.98
-57.30
-65.24
-73.59
-81.70
-88.58
-93.24
-94.95
-93.40
-88.72
-81.27
-71.46
-59.67
-46.28
-31.74
-16.62
-1.61
12.59
25.29
35.93
44.15
49.87
53.31
55.01
55.67
56.00
56.59
57.91
60.32
64.20
69.86
77.51
87.08
98.20
110.23
122.39
133.88
143.89
151.63
156.31
157.29
154.12
146.63
134.97
119.55
100.97
80.03
57.69
35.05
13.32
-6.34
-23.02
-36.17
-45.66
-51.75
-54.93
-55.74
-54.70
-52.22
-48.65
-44.31
-39.53
-34.61
-29.84
-25.46
-21.78
-19.10
-17.74
-17.90
-19.52
-22.26
-25.57
-28.91
-31.91
-34.45
-36.60
-38.47
-40.08
-41.40
-42.41
-43.25
-44.21
-45.60
-47.62
-50.22
-53.09
-55.80
-57.96
-59.28
-59.68
-59.21
-58.02
-56.41
-54.79
-53.69
-53.58
-54.68
-56.79
-59.23
-61.02
-61.16
-58.93
-54.04
-46.61
-37.05
-25.91
-13.78
-1.23
11.12
22.68
32.90
41.38
47.93
52.54
55.26
56.22
55.52
53.35
49.98
45.89
41.67
37.92
35.05
33.23
32.37
32.16
32.20
32.06
31.35
29.73
26.99
23.07
18.12
12.41
6.24
-0.19
-6.87
-13.96
-21.68
-30.17
-39.41
-49.23
-59.28
-69.09
-78.03
-85.25
-89.77
-90.70
-87.50
-80.21
-69.55
-56.62
-42.63
-28.52
-14.82
-1.75
10.58
22.00
32.25
41.05
48.27
53.91
58.07
60.76
61.85
61.13
58.47
54.02
48.25
41.80
35.33
29.23
23.63
18.49
13.80
9.68
6.35
3.98
2.44
1.29
-0.19
-2.67
-6.50
-11.61
-17.58
-23.89
-30.23
-36.57
-43.03
-49.67
-56.23
-62.15
-66.65
-69.09
-69.09
-66.60
-61.84
-55.11
-46.77
-37.20
-26.95
-16.68
-7.07
1.39
8.50
14.34
19.21
23.38
26.99
29.97
32.19
33.52
33.96
33.59
32.60
31.21
29.62
27.99
26.40
24.85
23.21
21.29
18.95
16.07
12.66
8.83
4.76
0.68
-3.25
-6.91
-10.36
-13.83
-17.70
-22.39
-28.10
-34.66
-41.41
-47.40
-51.60
-53.35
-52.44
-49.21
-44.20
-37.96
-30.84
-22.98
-14.52
-5.70
2.99
10.99
17.79
23.14
27.07
29.75
31.42
32.20
32.10
31.09
29.22
26.64
23.60
20.36
17.09
13.86
10.58
7.12
3.38
-0.62
-4.76
-8.84
-12.72
-16.35
-19.84
-23.37
-27.11
-31.16
-35.56
-40.27
-45.28
-50.58
-56.11
-61.69
-66.98
-71.51
-74.81
-76.48
-76.26
-74.05
-69.84
-63.71
-55.74
-46.16
-35.26
-23.51
-11.51
0.14
10.92
20.52
28.81
35.91
42.00
47.35
52.17
56.67
60.96
65.06
68.84
72.11
74.66
76.36
77.21
77.34
76.89
75.96
74.53
72.57
70.15
67.45
64.78
62.48
60.74
59.65
59.04
58.60
57.91
56.42
53.57
48.84
41.93
32.90
22.24
10.82
-0.40
-10.58
-19.25
-26.26
-31.75
-35.83
-38.60
-40.06
-40.25
-39.38
-37.76
-35.77
-33.64
-31.35
-28.67
-25.25
-20.84
-15.41
-9.21
-2.67
3.71
9.44
14.20
17.85
20.41
22.08
23.11
23.68
23.83
23.45
22.40
20.68
18.55
16.53
15.28
15.27
16.60
18.99
21.79
24.28
25.95
26.60
26.34
25.55
24.58
23.72
23.15
23.03
23.57
25.14
28.14
32.80
39.06
46.43
54.07
60.95
66.09
68.82
68.81
66.11
61.07
54.20
46.03
37.02
27.57
17.92
8.30
-1.08
-10.01
-18.32
-25.89
-32.73
-38.92
-44.59
-49.86
-54.74
-59.14
-62.94
-66.02
-68.39
-70.20
-71.76
-73.40
-75.46
-78.23
-81.85
-86.33
-91.48
-96.83
-101.63
-105.02
-106.18
-104.63
-100.33
-93.62
-85.10
-75.38
-64.99
-54.37
-43.95
-34.21
-25.61
-18.43
-12.76
-8.44
-5.17
-2.70
-0.89
0.26
0.70
0.41
-0.61
-2.28
-4.49
-7.05
-9.75
-12.42
-14.97
-17.46
-20.02
-22.79
-25.72
-28.59
-31.03
-32.69
-33.35
-33.00
-31.80
-29.97
-27.72
-25.20
-22.58
-20.02
-17.72
-15.84
-14.45
-13.44
-12.51
-11.25
-9.18
-5.95
-1.36
4.57
11.68
19.74
28.54
37.82
47.26
56.36
64.54
71.27
76.20
79.27
80.74
80.91
80.00
78.03
74.86
70.41
64.88
58.79
52.89
47.85
43.99
41.24
39.20
37.45
35.75
34.14
32.83
32.04
31.91
32.49
33.76
35.67
38.09
40.71
43.04
44.47
44.41
42.45
38.47
32.61
25.19
16.67
7.59
-1.39
-9.54
-16.11
-20.51
-22.31
-21.46
-18.23
-13.15
-6.92
-0.21
6.40
12.52
17.87
22.29
25.67
27.89
28.87
28.57
27.03
24.33
20.63
16.13
11.04
5.60
0.04
-5.43
-10.64
-15.50
-20.00
-24.15
-27.94
-31.30
-34.07
-36.01
-36.89
-36.59
-35.16
-32.86
-30.13
-27.50
-25.57
-24.81
-25.51
-27.63
-30.74
-34.08
-36.72
-37.75
-36.50
-32.68
-26.36
-17.93
-7.95
2.94
14.15
25.13
35.44
44.76
52.96
60.00
65.89
70.51
73.50
74.23
71.98
66.13
56.49
43.50
28.23
12.14
-3.26
-16.84
-28.00
-36.68
-43.12
-47.58
-50.18
-50.92
-49.75
-46.85
-42.61
-37.55
-32.20
-26.92
-21.85
-17.09
-12.73
-8.95
-5.98
-3.93
-2.81
-2.50
-2.92
-4.04
-5.79
-8.00
-10.24
-11.97
-12.65
-12.03
-10.26
-7.73
-4.93
-2.20
0.33
2.69
4.94
7.01
8.75
9.96
10.44
10.08
8.76
6.49
3.38
-0.28
-4.04
-7.37
-9.80
-11.08
-11.19
-10.39
-9.07
-7.71
-6.83
-6.86
-8.17
-10.85
-14.75
-19.44
-24.40
-29.09
-33.20
-36.65
-39.55
-42.02
-44.12
-45.77
-46.77
-46.87
-45.86
-43.54
-39.78
-34.51
-27.74
-19.65
-10.56
-1.00
8.47
17.29
25.12
31.81
37.44
42.21
46.32
49.89
52.93
55.30
56.86
57.52
57.26
56.21
54.54
52.38
49.78
46.71
43.09
38.91
34.24
29.22
24.02
18.77
13.54
8.31
3.02
-2.42
-8.18
-14.41
-21.24
-28.59
-36.10
-43.07
-48.68
-52.15
-53.04
-51.32
-47.29
-41.42
-34.13
-25.80
-16.76
-7.43
1.70
10.15
17.51
23.64
28.61
32.60
35.81
38.35
40.22
41.33
41.64
41.11
39.81
37.83
35.26
32.11
28.35
23.90
18.76
13.05
6.99
0.86
-5.12
-10.82
-16.20
-21.24
-25.93
-30.26
-34.26
-38.05
-41.83
-45.76
-49.78
-53.62
-56.76
-58.61
-58.67
-56.61
-52.45
-46.41
-38.87
-30.28
-21.03
-11.53
-2.15
6.66
14.48
20.94
25.81
29.12
31.07
31.95
32.03
31.44
30.27
28.56
26.43
24.10
21.79
19.69
17.84
16.14
14.47
12.74
11.02
9.54
8.62
8.53
9.36
10.90
12.70
14.08
14.30
12.84
9.50
4.51
-1.52
-7.81
-13.66
-18.60
-22.44
-25.22
-26.93
-27.56
-26.99
-25.18
-22.33
-18.86
-15.35
-12.36
-10.23
-9.02
-8.57
-8.61
-8.89
-9.24
-9.45
-9.31
-8.47
-6.57
-3.36
1.17
6.77
12.85
18.70
23.56
26.89
28.49
28.57
27.68
26.55
25.82
25.83
26.61
27.88
29.34
30.81
32.33
34.16
36.67
40.20
45.07
51.48
59.48
68.87
79.12
89.44
98.87
106.55
111.96
114.98
115.80
114.72
111.90
107.25
100.59
91.77
80.96
68.66
55.61
42.55
30.03
18.33
7.49
-2.45
-11.45
-19.40
-26.26
-32.14
-37.39
-42.47
-47.79
-53.55
-59.64
-65.76
-71.46
-76.38
-80.31
-83.28
-85.49
-87.26
-88.94
-90.82
-93.14
-95.99
-99.26
-102.64
-105.64
-107.68
-108.20
-106.79
-103.23
-97.51
-89.83
-80.46
-69.76
-58.18
-46.21
-34.39
-23.25
-13.26
-4.66
2.51
8.42
13.29
17.34
20.63
23.16
24.87
25.79
26.04
25.81
25.26
24.47
23.40
21.89
19.76
16.89
13.24
8.94
4.28
-0.40
-4.77
-8.72
-12.37
-16.08
-20.33
-25.57
-32.01
-39.53
-47.66
-55.64
-62.55
-67.54
-70.04
-69.83
-67.18
-62.68
-57.20
-51.64
-46.76
-43.10
-40.90
-40.10
-40.41
-41.39
-42.56
-43.38
-43.35
-41.95
-38.84
-33.99
-27.74
-20.87
-14.25
-8.59
-4.21
-0.95
1.63
4.03
6.58
9.50
12.89
16.78
21.14
25.78
30.35
34.40
37.47
39.23
39.40
37.78
34.25
28.83
21.89
14.16
6.63
0.33
-3.93
-5.75
-5.05
-1.98
3.19
10.14
18.44
27.50
36.56
44.86
51.75
56.88
60.25
62.20
63.23
63.83
64.30
64.78
65.22
65.65
66.18
67.11
68.79
71.37
74.78
78.63
82.36
85.42
87.47
88.49
88.75
88.78
89.08
89.98
91.41
92.85
93.43
92.15
88.18
81.19
71.51
60.08
48.29
37.55
29.00
23.32
20.67
20.76
23.01
26.65
30.79
34.55
37.28
38.66
38.80
38.09
37.02
35.94
34.94
33.89
32.59
30.79
28.22
24.53
19.24
11.92
2.38
-9.16
-22.02
-35.28
-47.99
-59.50
-69.50
-77.96
-84.92
-90.41
-94.33
-96.58
-97.19
-96.47
-94.97
-93.38
-92.25
-91.77
-91.60
-91.04
-89.23
-85.51
-79.68
-71.98
-62.95
-53.07
-42.61
-31.44
-19.34
-6.19
7.75
21.79
35.01
46.41
55.22
61.00
63.61
63.21
60.11
54.76
47.72
39.64
31.22
23.16
16.04
10.22
5.79
2.53
0.01
-2.29
-4.79
-7.74
-11.20
-15.09
-19.37
-24.05
-29.23
-34.99
-41.28
-47.79
-54.00
-59.22
-62.79
-64.26
-63.51
-60.74
-56.42
-51.11
-45.31
-39.40
-33.55
-27.91
-22.58
-17.70
-13.41
-9.84
-7.04
-5.03
-3.75
-3.13
-3.08
-3.42
-3.97
-4.54
-5.05
-5.50
-5.97
-6.57
-7.36
-8.32
-9.40
-10.52
-11.59
-12.50
-13.11
-13.28
-12.99
-12.35
-11.61
-11.00
-10.74
-10.89
-11.43
-12.28
-13.30
-14.28
-14.94
-14.96
-14.07
-12.20
-9.42
-6.00
-2.24
1.54
5.02
7.90
9.91
10.88
10.78
9.79
8.24
6.48
4.80
3.38
2.26
1.42
0.74
0.06
-0.82
-2.06
-3.78
-5.94
-8.42
-11.09
-13.81
-16.55
-19.32
-22.24
-25.41
-28.93
-32.77
-36.82
-40.95
-45.02
-49.06
-53.15
-57.35
-61.59
-65.59
-68.86
-70.84
-71.05
-69.21
-65.26
-59.22
-51.16
-41.13
-29.22
-15.70
-1.08
13.92
28.49
41.92
53.67
63.46
71.13
76.64
80.00
81.29
80.74
78.76
75.89
72.64
69.39
66.31
63.44
60.80
58.42
56.38
54.71
53.30
51.91
50.23
47.98
45.06
41.54
37.63
33.60
29.61
25.72
21.85
17.86
13.64
9.27
5.03
1.35
-1.29
-2.63
-2.66
-1.65
0.04
2.14
4.58
7.44
10.76
14.34
17.73
20.30
21.46
20.93
18.76
15.36
11.26
6.97
2.83
-0.99
-4.47
-7.68
-10.69
-13.52
-16.21
-18.78
-21.35
-24.03
-26.95
-30.14
-33.48
-36.72
-39.52
-41.61
-42.91
-43.56
-43.90
-44.38
-45.43
-47.30
-50.02
-53.38
-56.94
-60.13
-62.37
-63.22
-62.45
-60.09
-56.41
-51.75
-46.40
-40.56
-34.30
-27.68
-20.82
-13.95
-7.40
-1.46
3.63
7.81
11.04
13.36
14.75
15.24
14.99
14.29
13.50
12.97
12.82
12.99
13.26
13.44
13.38
13.10
12.60
11.89
10.94
9.74
8.37
6.97
5.64
4.34
2.91
1.04
-1.53
-4.89
-8.92
-13.34
-17.76
-21.79
-25.08
-27.40
-28.58
-28.59
-27.47
-25.31
-22.16
-18.01
-12.84
-6.67
0.34
7.87
15.40
22.40
28.43
33.23
36.80
39.33
41.06
42.21
42.93
43.27
43.28
43.00
42.42
41.54
40.31
38.69
36.69
34.41
31.96
29.43
26.79
23.91
20.55
16.57
11.92
6.77
1.36
-4.00
-9.17
-14.16
-19.20
-24.56
-30.42
-36.67
-42.91
-48.50
-52.79
-55.30
-55.86
-54.60
-51.82
-47.95
-43.42
-38.65
-34.02
-29.83
-26.25
-23.22
-20.54
-17.90
-15.03
-11.76
-8.12
-4.35
-0.79
2.20
4.43
5.91
6.95
7.95
9.25
10.93
12.77
14.37
15.32
15.40
14.62
13.16
11.17
8.80
6.07
3.02
-0.26
-3.67
-7.10
-10.56
-14.17
-18.14
-22.58
-27.50
-32.60
-37.39
-41.27
-43.64
-44.12
-42.61
-39.33
-34.63
-28.96
-22.65
-15.89
-8.80
-1.45
5.98
13.25
19.99
25.89
30.69
34.27
36.69
38.16
38.99
39.47
39.84
40.17
40.44
40.53
40.38
39.95
39.25
38.32
37.09
35.47
33.35
30.70
27.61
24.29
20.95
17.69
14.51
11.31
8.01
4.64
1.34
-1.72
-4.47
-7.06
-9.83
-13.12
-17.05
-21.35
-25.36
-28.19
-29.05
-27.49
-23.52
-17.60
-10.37
-2.52
5.43
13.07
20.14
26.38
31.59
35.65
38.62
40.70
42.18
43.33
44.27
44.92
45.11
44.65
43.46
41.66
39.49
37.19
34.85
32.40
29.62
26.30
22.29
17.64
12.51
7.12
1.64
-3.81
-9.18
-14.39
-19.44
-24.36
-29.31
-34.42
-39.72
-44.98
-49.70
-53.24
-54.98
-54.51
-51.77
-47.01
-40.65
-33.18
-25.00
-16.47
-7.89
0.50
8.41
15.60
21.86
27.08
31.33
34.82
37.81
40.53
43.03
45.20
46.88
47.97
48.53
48.81
49.05
49.39
49.70
49.65
48.92
47.32
44.98
42.20
39.31
36.40
33.29
29.61
25.01
19.28
12.45
4.63
-4.09
-13.72
-24.24
-35.50
-47.03
-58.09
-67.83
-75.52
-80.78
-83.54
-84.02
-82.52
-79.33
-74.67
-68.76
-61.89
-54.51
-47.14
-40.27
-34.28
-29.27
-25.10
-21.45
-17.94
-14.32
-10.48
-6.46
-2.40
1.58
5.41
9.06
12.53
15.81
18.77
21.28
23.16
24.29
24.57
24.05
22.90
21.37
19.71
18.05
16.32
14.25
11.52
7.84
3.14
-2.51
-8.77
-15.23
-21.36
-26.59
-30.32
-32.04
-31.39
-28.30
-23.01
-15.98
-7.84
0.79
9.30
17.16
23.93
29.29
33.10
35.48
36.68
37.05
36.88
36.32
35.42
34.16
32.55
30.70
28.76
26.88
25.18
23.69
22.37
21.16
19.98
18.76
17.41
15.83
13.93
11.67
9.09
6.30
3.44
0.61
-2.19
-5.06
-8.17
-11.72
-15.80
-20.45
-25.61
-31.11
-36.66
-41.86
-46.16
-48.96
-49.73
-48.15
-44.17
-38.05
-30.27
-21.41
-12.07
-2.74
6.14
14.27
21.44
27.53
32.47
36.27
39.01
40.80
41.82
42.23
42.14
41.60
40.58
38.99
36.82
34.20
31.37
28.58
25.99
23.53
20.87
17.67
13.69
8.98
3.87
-1.15
-5.70
-9.64
-13.11
-16.45
-20.05
-24.25
-29.22
-34.97
-41.24
-47.56
-53.24
-57.49
-59.59
-59.12
-56.05
-50.75
-43.90
-36.21
-28.29
-20.43
-12.75
-5.19
2.29
9.56
16.36
22.34
27.20
30.78
33.15
34.45
34.87
34.58
33.72
32.47
31.05
29.66
28.41
27.25
25.99
24.39
22.20
19.35
15.89
12.01
7.95
3.91
0.04
-3.65
-7.23
-10.87
-14.81
-19.27
-24.38
-30.16
-36.40
-42.70
-48.50
-53.16
-56.12
-56.98
-55.63
-52.16
-46.83
-39.98
-31.94
-23.02
-13.53
-3.83
5.65
14.45
22.18
28.57
33.58
37.39
40.29
42.57
44.39
45.75
46.53
46.59
45.88
44.44
42.41
39.98
37.31
34.54
31.74
28.92
26.01
22.87
19.38
15.43
11.03
6.33
1.52
-3.16
-7.61
-11.81
-15.85
-19.94
-24.33
-29.16
-34.44
-39.90
-45.10
-49.43
-52.30
-53.29
-52.15
-48.95
-43.92
-37.43
-29.93
-21.85
-13.64
-5.66
1.76
8.43
14.19
19.03
22.95
26.00
28.25
29.84
30.91
31.61
32.07
32.33
32.34
32.05
31.37
30.27
28.78
26.94
24.83
22.47
19.95
17.29
14.54
11.67
8.61
5.24
1.53
-2.44
-6.45
-10.25
-13.71
-16.85
-19.86
-23.05
-26.64
-30.69
-35.05
-39.35
-43.06
-45.61
-46.51
-45.52
-42.66
-38.23
-32.64
-26.28
-19.40
-12.17
-4.75
2.66
9.76
16.26
21.98
26.83
30.83
34.03
36.50
38.31
39.49
40.08
40.06
39.39
38.07
36.21
33.98
31.63
29.33
27.12
24.84
22.24
19.02
15.05
10.39
5.29
0.12
-4.73
-9.05
-12.78
-16.12
-19.39
-22.98
-27.13
-31.83
-36.77
-41.37
-44.95
-46.92
-46.99
-45.12
-41.54
-36.55
-30.47
-23.52
-15.91
-7.90
0.19
8.01
15.24
21.67
27.17
31.69
35.22
37.79
39.46
40.38
40.72
40.66
40.30
39.66
38.65
37.16
35.06
32.34
29.07
25.45
21.74
18.14
14.79
11.68
8.72
5.78
2.84
-0.08
-2.83
-5.28
-7.32
-8.93
-10.19
-11.26
-12.34
-13.60
-15.16
-17.02
-19.12
-21.22
-22.97
-23.96
-23.78
-22.08
-18.68
-13.56
-6.88
1.06
9.92
19.38
29.18
39.16
49.19
59.10
68.48
76.71
82.96
86.37
86.34
82.65
75.61
65.85
54.16
41.18
27.39
13.14
-1.15
-14.93
-27.54
-38.37
-47.09
-53.70
-58.48
-61.79
-63.94
-65.08
-65.30
-64.75
-63.76
-62.81
-62.35
-62.69
-63.87
-65.69
-67.83
-70.02
-72.10
-73.95
-75.44
-76.25
-75.98
-74.17
-70.49
-64.82
-57.33
-48.36
-38.35
-27.78
-17.06
-6.57
3.39
12.55
20.71
27.69
33.41
37.84
41.08
43.23
44.44
44.77
44.22
42.82
40.67
38.06
35.36
32.97
31.11
29.81
28.84
27.84
26.41
24.23
21.17
17.29
12.82
8.09
3.41
-0.99
-5.02
-8.69
-12.10
-15.41
-18.83
-22.55
-26.71
-31.27
-35.99
-40.40
-43.90
-45.96
-46.20
-44.55
-41.16
-36.37
-30.56
-24.09
-17.24
-10.26
-3.36
3.21
9.17
14.27
18.39
21.53
23.85
25.56
26.80
27.62
27.96
27.71
26.83
25.44
23.71
21.88
20.08
18.27
16.31
14.00
11.20
7.97
4.44
0.86
-2.62
-5.98
-9.34
-12.88
-16.75
-20.98
-25.54
-30.39
-35.51
-40.84
-46.19
-51.10
-54.98
-57.17
-57.26
-55.20
-51.34
-46.17
-40.15
-33.54
-26.41
-18.77
-10.73
-2.56
5.31
12.42
18.41
23.13
26.58
28.97
30.52
31.49
32.05
32.25
32.06
31.45
30.45
29.15
27.68
26.12
24.48
22.64
20.46
17.84
14.81
11.45
7.91
4.29
0.58
-3.32
-7.57
-12.33
-17.70
-23.70
-30.17
-36.79
-43.03
-48.32
-52.07
-53.86
-53.50
-51.04
-46.74
-40.98
-34.15
-26.59
-18.58
-10.33
-2.05
6.00
13.50
20.15
25.76
30.30
33.93
36.86
39.26
41.12
42.29
42.55
41.81
40.16
37.92
35.45
33.05
30.78
28.49
25.95
22.99
19.64
16.13
12.75
9.72
7.02
4.49
1.86
-1.08
-4.37
-8.00
-12.00
-16.48
-21.60
-27.36
-33.48
-39.36
-44.28
-47.60
-48.96
-48.26
-45.68
-41.42
-35.73
-28.83
-21.00
-12.63
-4.21
3.78
10.88
16.83
21.54
25.09
27.66
29.46
30.70
31.56
32.16
32.59
32.83
32.80
32.43
31.64
30.50
29.12
27.69
26.36
25.18
24.10
23.02
21.81
20.33
18.49
16.20
13.35
9.91
5.88
1.37
-3.50
-8.64
-13.96
-19.37
-24.67
-29.52
-33.41
-35.78
-36.12
-34.16
-29.96
-23.86
-16.43
-8.26
0.11
8.34
16.15
23.36
29.80
35.31
39.83
43.40
46.14
48.15
49.50
50.14
50.01
49.09
47.45
45.21
42.58
39.71
36.73
33.74
30.72
27.61
24.22
20.36
15.88
10.81
5.38
-0.07
-5.23
-9.99
-14.49
-19.02
-23.92
-29.41
-35.50
-42.00
-48.56
-54.68
-59.80
-63.35
-64.85
-64.01
-60.87
-55.70
-48.96
-41.15
-32.69
-23.88
-14.91
-5.98
2.66
10.74
17.94
24.03
28.85
32.39
34.75
36.03
36.40
36.01
35.00
33.58
31.94
30.26
28.62
26.99
25.27
23.30
20.94
18.17
15.05
11.73
8.33
4.93
1.52
-2.00
-5.75
-9.82
-14.29
-19.19
-24.57
-30.41
-36.62
-42.89
-48.76
-53.59
-56.73
-57.70
-56.27
-52.56
-46.89
-39.75
-31.61
-22.77
-13.44
-3.73
6.19
15.95
25.01
32.75
38.71
42.74
45.08
46.17
46.44
46.15
45.30
43.77
41.50
38.57
35.26
31.93
28.86
26.16
23.74
21.33
18.64
15.50
11.93
8.16
4.53
1.30
-1.39
-3.60
-5.54
-7.44
-9.56
-12.16
-15.50
-19.82
-25.21
-31.50
-38.17
-44.43
-49.43
-52.45
-53.18
-51.67
-48.21
-43.18
-36.90
-29.54
-21.27
-12.30
-2.96
6.29
14.95
22.59
28.94
33.87
37.40
39.62
40.72
40.95
40.60
39.97
39.26
38.53
37.69
36.57
34.95
32.73
29.89
26.57
22.93
19.15
15.38
11.63
7.88
4.04
0.04
-4.13
-8.43
-12.77
-17.03
-21.15
-25.14
-29.09
-33.14
-37.44
-42.05
-46.82
-51.40
-55.20
-57.58
-58.02
-56.26
-52.34
-46.57
-39.35
-31.15
-22.39
-13.45
-4.68
3.59
11.12
17.73
23.36
28.03
31.81
34.78
36.98
38.48
39.28
39.36
38.72
37.39
35.48
33.17
30.68
28.13
25.55
22.80
19.75
16.28
12.40
8.20
3.81
-0.71
-5.35
-10.12
-14.99
-19.86
-24.60
-29.17
-33.58
-37.82
-41.79
-45.20
-47.58
-48.43
-47.37
-44.31
-39.46
-33.26
-26.21
-18.77
-11.24
-3.79
3.48
10.44
16.93
22.72
27.61
31.49
34.30
36.04
36.67
36.15
34.55
32.07
29.15
26.27
23.78
21.74
19.92
17.93
15.43
12.24
8.32
3.72
-1.47
-7.13
-12.97
-18.60
-23.66
-28.03
-31.93
-35.86
-40.31
-45.45
-51.01
-56.35
-60.72
-63.54
-64.48
-63.48
-60.59
-55.94
-49.70
-42.17
-33.75
-24.88
-16.02
-7.42
0.78
8.56
15.87
22.63
28.62
33.65
37.60
40.48
42.42
43.61
44.21
44.35
44.10
43.50
42.58
41.35
39.79
37.82
35.35
32.31
28.72
24.71
20.51
16.34
12.38
8.68
5.18
1.73
-1.87
-5.83
-10.33
-15.50
-21.35
-27.64
-33.93
-39.55
-43.74
-45.86
-45.52
-42.72
-37.78
-31.23
-23.60
-15.36
-6.87
1.57
9.69
17.18
23.76
29.26
33.64
36.99
39.51
41.38
42.74
43.63
44.02
43.89
43.23
42.12
40.64
38.83
36.70
34.15
31.07
27.41
23.23
18.68
14.00
9.37
4.88
0.50
-3.84
-8.16
-12.47
-16.75
-21.06
-25.48
-30.11
-34.97
-39.81
-44.23
-47.66
-49.58
-49.66
-47.86
-44.36
-39.46
-33.45
-26.55
-18.92
-10.78
-2.41
5.78
13.32
19.87
25.22
29.44
32.71
35.29
37.34
38.90
39.87
40.14
39.66
38.46
36.70
34.53
32.12
29.56
26.88
24.12
21.30
18.44
15.56
12.67
9.78
6.92
4.10
1.30
-1.50
-4.34
-7.29
-10.35
-13.59
-17.07
-20.87
-25.01
-29.44
-33.89
-37.92
-41.06
-42.87
-43.03
-41.39
-37.97
-32.92
-26.54
-19.25
-11.53
-3.81
3.56
10.29
16.19
21.12
24.98
27.79
29.66
30.77
31.30
31.33
30.85
29.84
28.35
26.56
24.73
22.99
21.30
19.43
17.10
14.17
10.70
6.96
3.23
-0.29
-3.63
-6.96
-10.51
-14.43
-18.74
-23.44
-28.46
-33.81
-39.39
-45.03
-50.31
-54.67
-57.48
-58.31
-57.00
-53.67
-48.68
-42.41
-35.14
-27.09
-18.41
-9.34
-0.23
8.40
16.06
22.36
27.13
30.42
32.45
33.49
33.79
33.54
32.87
31.89
30.68
29.26
27.62
25.72
23.51
21.00
18.22
15.21
12.02
8.66
5.14
1.53
-2.13
-5.74
-9.21
-12.51
-15.65
-18.72
-21.89
-25.38
-29.44
-34.19
-39.56
-45.20
-50.53
-54.91
-57.79
-58.84
-58.01
-55.41
-51.18
-45.44
-38.30
-29.90
-20.52
-10.56
-0.51
9.10
17.78
25.13
30.87
34.93
37.45
38.74
39.22
39.22
38.93
38.34
37.38
35.96
34.07
31.74
29.03
25.95
22.55
18.91
15.23
11.75
8.66
6.01
3.64
1.24
-1.46
-4.67
-8.41
-12.50
-16.71
-20.83
-24.79
-28.69
-32.77
-37.21
-42.03
-46.93
-51.38
-54.78
-56.58
-56.45
-54.24
-49.98
-43.79
-35.95
-26.89
-17.26
-7.76
0.99
8.59
14.94
20.14
24.42
28.03
31.12
33.79
36.05
37.79
38.88
39.16
38.64
37.47
35.97
34.43
32.98
31.55
29.87
27.71
24.99
21.84
18.49
15.18
11.98
8.86
5.62
2.09
-1.85
-6.31
-11.33
-17.00
-23.33
-30.30
-37.69
-45.21
-52.42
-58.91
-64.34
-68.45
-71.11
-72.22
-71.65
-69.20
-64.66
-57.85
-48.79
-37.78
-25.40
-12.48
0.12
11.59
21.39
29.26
35.24
39.53
42.46
44.44
45.94
47.53
49.71
52.81
56.82
61.34
65.65
68.92
70.48
69.97
67.47
63.34
58.07
52.17
45.99
39.70
33.29
26.62
19.55
11.97
3.91
-4.40
-12.62
-20.34
-27.14
-32.66
-36.68
-39.05
-39.78
-38.93
-36.62
-32.98
-28.11
-22.09
-15.07
-7.34
0.67
8.39
15.28
20.95
25.21
28.11
29.87
30.76
31.08
31.05
30.80
30.41
29.83
29.02
27.86
26.25
24.10
21.36
18.02
14.21
10.07
5.85
1.74
-2.13
-5.81
-9.43
-13.24
-17.40
-22.09
-27.33
-33.14
-39.45
-46.20
-53.26
-60.36
-67.11
-72.97
-77.27
-79.31
-78.48
-74.39
-67.04
-56.78
-44.31
-30.48
-16.16
-2.13
10.93
22.48
32.07
39.48
44.70
48.00
49.88
50.83
51.24
51.28
51.01
50.41
49.53
48.45
47.25
45.87
44.14
41.82
38.74
34.89
30.42
25.60
20.70
15.89
11.23
6.62
1.90
-3.13
-8.63
-14.71
-21.42
-28.75
-36.64
-44.96
-53.50
-61.95
-69.89
-76.86
-82.38
-86.05
-87.58
-86.83
-83.80
-78.67
-71.73
-63.34
-53.86
-43.58
-32.80
-21.83
-11.09
-1.03
7.91
15.45
21.51
26.18
29.67
32.16
33.82
34.73
35.03
34.86
34.44
33.96
33.54
33.18
32.76
32.12
31.09
29.61
27.71
25.51
23.13
20.61
17.96
15.06
11.84
8.21
4.10
-0.49
-5.57
-11.08
-16.81
-22.41
-27.36
-31.08
-33.07
-32.99
-30.80
-26.71
-21.13
-14.57
-7.47
-0.20
6.95
13.76
19.98
25.42
29.96
33.63
36.54
38.88
40.72
41.99
42.53
42.17
40.88
38.86
36.44
33.99
31.70
29.58
27.46
25.08
22.25
18.89
15.05
10.86
6.48
2.06
-2.27
-6.46
-10.54
-14.60
-18.82
-23.39
-28.47
-33.99
-39.67
-44.95
-49.14
-51.61
-51.91
-49.92
-45.84
-40.06
-33.03
-25.17
-16.82
-8.23
0.32
8.53
16.08
22.68
28.14
32.42
35.63
37.96
39.54
40.43
40.59
40.00
38.72
36.95
34.99
33.08
31.30
29.55
27.60
25.22
22.26
18.70
14.62
10.17
5.54
0.94
-3.46
-7.57
-11.41
-15.21
-19.29
-24.00
-29.55
-35.89
-42.63
-49.09
-54.50
-58.17
-59.66
-58.80
-55.67
-50.52
-43.71
-35.67
-26.86
-17.76
-8.80
-0.34
7.38
14.19
19.98
24.67
28.24
30.74
32.36
33.34
33.91
34.19
34.16
33.73
32.75
31.19
29.13
26.71
24.12
21.50
18.85
16.12
13.22
10.11
6.85
3.54
0.30
-2.85
-6.03
-9.41
-13.15
-17.33
-21.89
-26.67
-31.55
-36.43
-41.27
-45.97
-50.34
-53.99
-56.42
-57.14
-55.82
-52.38
-46.99
-40.06
-32.10
-23.60
-14.96
-6.47
1.64
9.15
15.89
21.69
26.46
30.20
33.00
35.04
36.43
37.29
37.68
37.63
37.22
36.54
35.70
34.73
33.57
32.08
30.08
27.48
24.30
20.69
16.91
13.22
9.82
6.78
4.00
1.29
-1.57
-4.77
-8.44
-12.64
-17.35
-22.51
-27.89
-33.10
-37.61
-40.80
-42.10
-41.17
-37.97
-32.79
-26.17
-18.71
-10.98
-3.37
3.89
10.70
17.00
22.69
27.63
31.66
34.68
36.70
37.84
38.29
38.19
37.65
36.73
35.50
34.10
32.63
31.23
29.85
28.32
26.37
23.79
20.47
16.55
12.26
7.89
3.63
-0.47
-4.52
-8.71
-13.23
-18.25
-23.85
-29.96
-36.33
-42.52
-47.97
-52.09
-54.43
-54.70
-52.83
-48.91
-43.12
-35.77
-27.25
-18.06
-8.69
0.35
8.66
15.99
22.17
27.17
31.01
33.78
35.65
36.81
37.45
37.71
37.65
37.23
36.43
35.15
33.36
31.05
28.30
25.25
22.09
19.01
16.06
13.17
10.13
6.70
2.77
-1.61
-6.22
-10.84
-15.33
-19.77
-24.34
-29.27
-34.65
-40.37
-46.08
-51.30
-55.58
-58.48
-59.72
-59.11
-56.57
-52.15
-46.00
-38.42
-29.84
-20.72
-11.52
-2.69
5.42
12.49
18.30
22.77
25.94
28.05
29.42
30.37
31.02
31.35
31.21
30.52
29.34
27.83
26.18
24.48
22.73
20.78
18.56
16.03
13.22
10.19
6.90
3.35
-0.50
-4.61
-8.91
-13.34
-17.91
-22.68
-27.74
-33.13
-38.79
-44.49
-49.86
-54.48
-57.90
-59.83
-60.07
-58.56
-55.33
-50.39
-43.82
-35.81
-26.67
-16.92
-7.19
1.92
9.91
16.55
21.83
25.96
29.20
31.81
33.96
35.71
37.05
37.96
38.41
38.42
38.02
37.26
36.22
34.89
33.29
31.44
29.37
27.13
24.74
22.20
19.48
16.57
13.44
10.12
6.58
2.79
-1.37
-6.05
-11.37
-17.29
-23.52
-29.52
-34.62
-38.20
-39.82
-39.36
-36.94
-32.87
-27.45
-20.97
-13.68
-5.87
2.08
9.67
16.44
22.03
26.31
29.43
31.67
33.39
34.77
35.82
36.39
36.30
35.48
33.99
32.07
29.98
27.90
25.83
23.59
20.98
17.81
14.12
10.07
5.90
1.81
-2.13
-5.94
-9.68
-13.39
-17.13
-20.99
-25.13
-29.75
-34.93
-40.54
-46.12
-50.96
-54.32
-55.61
-54.52
-51.07
-45.52
-38.27
-29.81
-20.67
-11.37
-2.40
5.90
13.27
19.63
24.97
29.30
32.63
34.97
36.35
36.84
36.57
35.77
34.64
33.33
31.96
30.52
28.94
27.12
24.94
22.26
19.00
15.12
10.72
6.00
1.23
-3.30
-7.41
-11.09
-14.51
-17.95
-21.70
-26.00
-30.96
-36.47
-42.23
-47.71
-52.32
-55.54
-57.03
-56.70
-54.59
-50.82
-45.48
-38.67
-30.54
-21.47
-12.00
-2.71
5.84
13.35
19.68
24.84
28.89
31.86
33.76
34.67
34.75
34.23
33.42
32.56
31.78
31.07
30.32
29.35
28.01
26.22
23.99
21.38
18.44
15.23
11.76
8.07
4.23
0.38
-3.32
-6.72
-9.77
-12.55
-15.26
-18.17
-21.49
-25.28
-29.35
-33.32
-36.66
-38.90
-39.72
-38.96
-36.61
-32.74
-27.46
-20.99
-13.69
-6.04
1.48
8.49
14.76
20.31
25.21
29.52
33.20
36.11
38.12
39.15
39.28
38.67
37.60
36.26
34.80
33.23
31.47
29.41
26.98
24.13
20.86
17.09
12.70
7.57
1.73
-4.53
-10.74
-16.41
-21.20
-25.10
-28.43
-31.64
-35.14
-39.16
-43.65
-48.39
-52.96
-56.85
-59.55
-60.54
-59.48
-56.21
-50.78
-43.46
-34.61
-24.67
-14.11
-3.42
6.99
16.74
25.54
33.17
39.44
44.14
47.12
48.34
47.91
46.17
43.55
40.56
37.65
35.18
33.32
32.07
31.30
30.73
30.05
28.87
26.88
23.88
19.86
15.02
9.71
4.36
-0.70
-5.38
-9.87
-14.53
-19.71
-25.55
-31.87
-38.26
-44.16
-49.08
-52.60
-54.44
-54.39
-52.37
-48.41
-42.74
-35.74
-27.86
-19.61
-11.34
-3.34
4.23
11.25
17.60
23.17
27.79
31.31
33.60
34.60
34.34
33.03
30.97
28.56
26.12
23.84
21.69
19.50
17.02
14.06
10.58
6.66
2.52
-1.66
-5.78
-9.82
-13.88
-18.03
-22.34
-26.88
-31.75
-37.10
-43.06
-49.61
-56.52
-63.27
-69.15
-73.47
-75.77
-75.87
-73.88
-70.02
-64.54
-57.64
-49.57
-40.68
-31.54
-22.80
-15.09
-8.87
-4.31
-1.28
0.57
1.63
2.22
2.55
2.73
2.77
2.67
2.52
2.46
2.62
3.11
3.95
5.10
6.45
7.91
9.35
10.68
11.75
12.41
12.56
12.19
11.43
10.50
9.63
8.92
8.29
7.44
5.93
3.35
-0.45
-5.27
-10.50
-15.31
-18.84
-20.51
-20.08
-17.61
-13.41
-7.78
-1.03
6.55
14.64
22.80
30.58
37.56
43.45
48.12
51.62
54.05
55.52
56.15
56.02
55.26
54.01
52.43
50.71
49.01
47.47
46.20
45.20
44.35
43.44
42.18
40.33
37.82
34.75
31.41
28.12
25.11
22.45
19.97
17.42
14.53
11.10
6.99
2.22
-3.02
-8.34
-13.18
-16.89
-18.91
-18.90
-16.80
-12.78
-7.12
-0.15
7.79
16.34
25.03
33.35
40.82
47.12
52.08
55.70
58.06
59.29
59.54
58.94
57.57
55.48
52.63
49.00
44.60
39.56
34.04
28.23
22.20
15.87
9.14
1.95
-5.62
-13.38
-21.10
-28.63
-35.96
-43.23
-50.58
-58.11
-65.77
-73.37
-80.55
-86.93
-92.10
-95.74
-97.65
-97.69
-95.79
-91.95
-86.19
-78.65
-69.61
-59.53
-48.95
-38.44
-28.53
-19.63
-12.04
-5.95
-1.43
1.56
3.22
3.83
3.69
2.99
1.85
0.31
-1.60
-3.71
-5.79
-7.58
-8.93
-9.92
-10.84
-12.10
-14.07
-16.90
-20.49
-24.52
-28.60
-32.44
-35.90
-39.10
-42.29
-45.78
-49.70
-53.98
-58.19
-61.71
-63.80
-63.88
-61.67
-57.24
-50.92
-43.11
-34.16
-24.28
-13.68
-2.62
8.45
18.98
28.42
36.42
42.89
47.97
51.99
55.21
57.72
59.41
60.07
59.59
58.09
55.97
53.81
52.13
51.21
50.89
50.70
50.08
48.53
45.87
42.18
37.76
32.90
27.91
23.03
18.41
14.14
10.15
6.23
2.04
-2.81
-8.54
-15.08
-22.11
-29.05
-35.28
-40.24
-43.51
-44.90
-44.32
-41.86
-37.65
-31.97
-25.13
-17.54
-9.63
-1.82
5.53
12.13
17.87
22.76
26.86
30.34
33.29
35.77
37.74
39.12
39.83
39.77
38.99
37.59
35.83
33.96
32.16
30.46
28.73
26.73
24.27
21.29
17.87
14.24
10.65
7.33
4.38
1.72
-0.85
-3.64
-6.95
-10.98
-15.70
-20.85
-25.95
-30.39
-33.50
-34.72
-33.62
-30.00
-23.94
-15.84
-6.37
3.68
13.56
22.72
30.87
37.97
44.06
49.18
53.27
56.18
57.75
57.91
56.74
54.47
51.43
47.98
44.41
40.94
37.67
34.59
31.58
28.47
25.04
21.12
16.65
11.75
6.65
1.67
-2.96
-7.16
-11.00
-14.73
-18.66
-23.08
-28.13
-33.73
-39.51
-44.83
-48.97
-51.22
-51.19
-48.83
-44.44
-38.52
-31.62
-24.18
-16.52
-8.84
-1.35
5.79
12.36
18.18
23.11
27.03
29.89
31.67
32.39
32.16
31.10
29.40
27.30
25.02
22.71
20.41
18.03
15.36
12.24
8.55
4.36
-0.13
-4.67
-8.99
-12.88
-16.23
-19.00
-21.32
-23.41
-25.64
-28.41
-32.03
-36.54
-41.68
-46.80
-51.06
-53.62
-53.91
-51.78
-47.46
-41.51
-34.51
-26.91
-18.98
-10.79
-2.42
5.95
13.99
21.26
27.39
32.16
35.52
37.62
38.65
38.86
38.45
37.65
36.64
35.56
34.44
33.21
31.70
29.80
27.41
24.55
21.30
17.74
13.94
9.97
5.89
1.74
-2.44
-6.59
-10.70
-14.75
-18.72
-22.58
-26.37
-30.18
-34.12
-38.28
-42.67
-47.15
-51.37
-54.87
-57.17
-57.84
-56.66
-53.58
-48.76
-42.51
-35.16
-27.08
-18.62
-10.19
-2.13
5.21
11.64
17.07
21.57
25.23
28.13
30.29
31.68
32.24
31.92
30.79
28.95
26.60
23.95
21.21
18.57
16.13
13.97
12.04
10.28
8.58
6.84
4.99
3.02
0.99
-1.02
-2.90
-4.62
-6.20
-7.73
-9.40
-11.36
-13.69
-16.38
-19.29
-22.18
-24.69
-26.45
-27.13
-26.44
-24.27
-20.62
-15.64
-9.61
-2.88
4.17
11.14
17.73
23.73
29.00
33.48
37.14
39.91
41.74
42.61
42.57
41.75
40.31
38.40
36.17
33.71
31.15
28.62
26.21
23.92
21.67
19.26
16.52
13.38
9.88
6.15
2.30
-1.57
-5.48
-9.42
-13.36
-17.24
-20.97
-24.57
-28.14
-31.87
-35.87
-40.13
-44.38
-48.24
-51.32
-53.28
-53.98
-53.36
-51.42
-48.18
-43.72
-38.20
-31.96
-25.46
-19.22
-13.70
-9.17
-5.74
-3.36
-1.89
-1.17
-1.06
-1.42
-2.19
-3.35
-4.93
-6.98
-9.53
-12.53
-15.80
-19.11
-22.12
-24.55
-26.17
-26.91
-26.85
-26.32
-25.73
-25.49
-25.87
-26.93
-28.52
-30.36
-32.17
-33.77
-35.10
-36.25
-37.38
-38.75
-40.53
-42.77
-45.20
-47.31
-48.38
-47.74
-45.01
-40.22
-33.77
-26.18
-18.00
-9.59
-1.16
7.16
15.23
22.92
30.07
36.64
42.61
48.03
52.89
57.25
61.06
64.31
67.00
69.13
70.76
72.01
73.04
74.01
75.11
76.46
78.11
80.01
81.98
83.73
84.88
85.07
84.06
81.79
78.41
74.19
69.49
64.59
59.72
55.01
50.51
46.24
42.19
38.27
34.30
30.10
25.43
20.14
14.18
7.69
1.02
-5.36
-10.94
-15.32
-18.34
-20.05
-20.63
-20.24
-18.94
-16.69
-13.50
-9.54
-5.18
-0.97
2.58
5.13
6.63
7.26
7.33
7.20
7.11
7.16
7.25
7.15
6.59
5.38
3.49
1.13
-1.34
-3.59
-5.43
-6.96
-8.46
-10.27
-12.62
-15.58
-19.01
-22.72
-26.53
-30.32
-34.05
-37.71
-41.31
-44.87
-48.50
-52.32
-56.45
-60.86
-65.26
-69.16
-71.95
-73.08
-72.25
-69.47
-64.97
-59.10
-52.24
-44.73
-36.90
-29.08
-21.60
-14.73
-8.64
-3.34
1.20
5.08
8.34
11.01
13.11
14.69
15.83
16.67
17.36
18.15
19.30
21.02
23.36
26.18
29.08
31.55
33.10
33.44
32.54
30.58
27.80
24.45
20.72
16.74
12.59
8.28
3.73
-1.21
-6.63
-12.51
-18.57
-24.37
-29.39
-33.18
-35.48
-36.27
-35.61
-33.66
-30.55
-26.42
-21.43
-15.77
-9.64
-3.29
2.96
8.73
13.65
17.49
20.18
21.94
23.07
23.89
24.53
24.89
24.75
23.91
22.32
20.10
17.51
14.80
12.08
9.36
6.52
3.46
0.13
-3.41
-7.04
-10.61
-14.02
-17.25
-20.34
-23.44
-26.67
-30.22
-34.29
-39.02
-44.48
-50.52
-56.76
-62.58
-67.31
-70.33
-71.28
-70.04
-66.71
-61.50
-54.70
-46.65
-37.75
-28.45
-19.17
-10.24
-1.88
5.80
12.75
18.95
24.35
28.94
32.73
35.76
38.02
39.47
40.09
39.89
39.02
37.75
36.32
34.92
33.54
32.05
30.27
28.07
25.46
22.58
19.59
16.65
13.76
10.87
7.85
4.51
0.67
-3.85
-9.09
-14.92
-20.96
-26.65
-31.37
-34.56
-35.91
-35.43
-33.33
-29.95
-25.59
-20.44
-14.57
-8.05
-1.00
6.29
13.43
19.95
25.49
29.84
32.98
35.05
36.20
36.55
36.18
35.16
33.62
31.76
29.82
27.91
26.05
24.04
21.62
18.56
14.82
10.54
6.04
1.65
-2.39
-6.04
-9.39
-12.64
-16.02
-19.72
-23.88
-28.58
-33.69
-38.93
-43.78
-47.61
-49.90
-50.31
-48.79
-45.50
-40.70
-34.64
-27.61
-19.87
-11.80
-3.78
3.80
10.65
16.59
21.56
25.53
28.53
30.60
31.84
32.38
32.40
31.99
31.22
30.08
28.59
26.74
24.57
22.08
19.28
16.14
12.69
8.96
5.05
1.01
-3.09
-7.28
-11.58
-16.06
-20.78
-25.77
-31.03
-36.52
-42.09
-47.43
-52.13
-55.66
-57.56
-57.50
-55.40
-51.37
-45.68
-38.65
-30.55
-21.69
-12.41
-3.11
5.71
13.55
20.08
25.17
28.92
31.56
33.32
34.38
34.79
34.54
33.64
32.16
30.24
28.04
25.74
23.42
21.04
18.49
15.58
12.21
8.37
4.19
-0.12
-4.31
-8.29
-12.06
-15.73
-19.53
-23.61
-28.18
-33.38
-39.19
-45.43
-51.66
-57.28
-61.71
-64.48
-65.30
-64.04
-60.61
-54.89
-46.76
-36.23
-23.62
-9.61
4.78
18.46
30.44
40.03
46.80
50.46
50.79
47.66
41.18
31.83
20.66
8.99
-1.74
-10.46
-16.60
-20.10
-21.27
-20.58
-18.57
-15.78
-12.81
-10.18
-8.27
-7.26
-7.15
-7.86
-9.34
-11.59
-14.58
-18.15
-22.07
-26.08
-30.08
-34.17
-38.55
-43.26
-48.06
-52.33
-55.30
-56.29
-55.02
-51.67
-46.80
-41.09
-35.03
-28.71
-21.84
-13.88
-4.23
7.62
22.04
39.26
59.21
81.28
104.09
125.52
143.10
154.79
159.71
158.48
152.97
145.50
137.93
131.16
125.02
118.73
111.39
102.34
91.22
77.95
62.54
45.22
26.42
6.90
-12.29
-30.04
-45.35
-57.65
-66.90
-73.59
-78.46
-82.21
-85.13
-87.04
-87.42
-85.73
-81.76
-75.71
-68.16
-59.72
-50.83
-41.65
-32.15
-22.36
-12.45
-2.81
6.05
13.73
20.00
24.95
28.86
32.13
35.08
37.89
40.52
42.85
44.70
45.90
46.25
45.46
43.30
39.57
34.41
28.27
21.89
16.06
11.40
8.14
6.14
4.99
4.19
3.33
2.06
0.10
-2.77
-6.69
-11.59
-17.15
-22.75
-27.58
-30.85
-31.98
-30.70
-27.12
-21.60
-14.62
-6.66
1.92
10.80
19.70
28.29
36.16
42.93
48.32
52.34
55.21
57.33
59.04
60.47
61.53
62.01
61.79
60.93
59.65
58.20
56.67
54.95
52.75
49.80
45.98
41.36
36.15
30.60
24.83
18.83
12.45
5.51
-2.14
-10.48
-19.34
-28.43
-37.42
-46.04
-54.16
-61.80
-69.00
-75.78
-81.97
-87.25
-91.16
-93.28
-93.34
-91.24
-87.08
-81.07
-73.44
-64.46
-54.40
-43.66
-32.71
-22.12
-12.45
-4.12
2.65
7.89
11.84
14.85
17.19
19.05
20.39
21.07
20.93
19.96
18.37
16.46
14.56
12.85
11.33
9.81
8.10
6.07
3.72
1.19
-1.33
-3.68
-5.77
-7.58
-9.18
-10.68
-12.25
-14.12
-16.56
-19.79
-23.90
-28.72
-33.78
-38.35
-41.68
-43.17
-42.58
-40.08
-36.08
-31.11
-25.57
-19.69
-13.55
-7.24
-0.90
5.23
10.83
15.59
19.31
21.91
23.42
23.99
23.84
23.17
22.16
20.89
19.42
17.78
16.00
14.13
12.22
10.27
8.19
5.84
3.05
-0.31
-4.24
-8.63
-13.23
-17.83
-22.22
-26.40
-30.46
-34.69
-39.38
-44.77
-50.95
-57.84
-65.21
-72.70
-79.85
-86.17
-91.11
-94.17
-94.89
-92.89
-87.87
-79.68
-68.47
-54.69
-39.06
-22.49
-5.82
10.28
25.37
39.15
51.37
61.75
70.04
76.08
79.90
81.78
82.10
81.26
79.57
77.23
74.36
71.01
67.24
63.10
58.64
53.85
48.71
43.16
37.19
30.87
24.35
17.87
11.59
5.57
-0.27
-6.13
-12.17
-18.51
-25.15
-32.02
-39.06
-46.23
-53.47
-60.61
-67.32
-73.07
-77.27
-79.37
-79.00
-76.02
-70.49
-62.56
-52.45
-40.44
-26.89
-12.27
2.81
17.63
31.43
43.50
53.31
60.57
65.24
67.60
68.06
67.08
65.04
62.22
58.76
54.84
50.72
46.75
43.24
40.35
37.97
35.76
33.32
30.31
26.63
22.39
17.77
12.93
7.87
2.50
-3.33
-9.67
-16.49
-23.70
-31.24
-38.99
-46.77
-54.22
-60.75
-65.64
-68.22
-67.98
-64.72
-58.44
-49.36
-37.74
-23.95
-8.46
8.10
24.91
40.97
55.25
66.83
75.07
79.79
81.22
79.99
76.89
72.67
67.88
62.82
57.61
52.36
47.18
42.20
37.46
32.92
28.43
23.83
19.01
13.99
8.90
3.88
-0.90
-5.38
-9.63
-13.83
-18.25
-23.17
-28.74
-34.98
-41.73
-48.67
-55.40
-61.46
-66.37
-69.66
-70.93
-69.85
-66.19
-59.79
-50.55
-38.50
-23.87
-7.23
10.38
27.59
42.96
55.26
63.80
68.55
69.99
68.95
66.30
62.72
58.63
54.24
49.67
45.02
40.45
36.06
31.85
27.69
23.34
18.62
13.49
8.08
2.62
-2.63
-7.50
-12.04
-16.35
-20.69
-25.27
-30.29
-35.89
-42.10
-48.78
-55.61
-62.07
-67.56
-71.52
-73.47
-73.06
-70.06
-64.31
-55.82
-44.76
-31.55
-16.86
-1.51
13.60
27.65
39.89
49.79
57.03
61.57
63.61
63.56
61.86
58.93
55.10
50.61
45.71
40.68
35.79
31.22
27.06
23.21
19.51
15.77
11.82
7.52
2.80
-2.39
-8.03
-14.04
-20.31
-26.72
-33.18
-39.62
-46.00
-52.24
-58.21
-63.71
-68.45
-72.11
-74.35
-74.84
-73.33
-69.65
-63.78
-55.82
-46.03
-34.71
-22.21
-8.96
4.56
17.73
29.89
40.37
48.65
54.46
57.82
59.00
58.33
56.19
52.91
48.79
44.20
39.48
34.97
30.84
27.10
23.58
20.04
16.32
12.34
8.17
3.95
-0.25
-4.42
-8.68
-13.21
-18.16
-23.71
-29.95
-36.89
-44.34
-51.91
-59.02
-64.95
-69.06
-70.88
-70.22
-67.07
-61.49
-53.55
-43.32
-30.95
-16.77
-1.37
14.43
29.70
43.52
55.13
64.03
70.03
73.26
74.14
73.29
71.38
68.99
66.48
64.05
61.71
59.45
57.28
55.25
53.41
51.74
50.13
48.42
46.48
44.30
41.93
39.47
36.97
34.36
31.49
28.10
23.88
18.55
11.89
3.84
-5.39
-15.33
-25.37
-34.91
-43.45
-50.65
-56.28
-60.19
-62.29
-62.60
-61.31
-58.78
-55.41
-51.63
-47.79
-44.24
-41.31
-39.24
-38.04
-37.40
-36.73
-35.36
-32.83
-29.10
-24.50
-19.58
-14.82
-10.47
-6.49
-2.73
0.91
4.36
7.43
9.80
11.25
11.70
11.31
10.49
9.77
9.54
9.85
10.28
10.01
8.14
4.03
-2.36
-10.46
-19.25
-27.55
-34.31
-38.80
-40.63
-39.70
-36.21
-30.70
-24.00
-17.14
-11.10
-6.44
-3.12
-0.57
2.04
5.37
9.48
13.85
17.42
19.10
18.14
14.31
7.91
-0.35
-9.59
-18.92
-27.56
-35.05
-41.29
-46.62
-51.54
-56.37
-60.94
-64.43
-65.72
-63.98
-59.11
-51.95
-43.84
-35.92
-28.60
-21.44
-13.58
-4.45
5.84
16.45
26.25
34.39
40.64
45.33
48.98
51.96
54.27
55.72
56.21
55.95
55.52
55.62
56.79
59.12
62.20
65.27
67.52
68.31
67.44
65.09
61.76
58.04
54.37
50.94
47.56
43.80
39.23
33.65
27.25
20.54
14.09
8.20
2.73
-2.87
-9.28
-16.81
-25.20
-33.58
-40.71
-45.37
-46.72
-44.52
-39.12
-31.36
-22.24
-12.68
-3.29
5.75
14.64
23.71
33.22
43.04
52.74
61.61
69.02
74.57
78.24
80.24
80.87
80.34
78.72
75.98
72.07
67.07
61.16
54.63
47.81
41.12
35.06
30.12
26.75
25.09
24.91
25.55
26.09
25.55
23.26
19.03
13.24
6.63
-0.00
-6.04
-11.28
-15.85
-20.01
-23.85
-27.23
-29.73
-30.94
-30.62
-28.80
-25.79
-21.92
-17.45
-12.56
-7.42
-2.34
2.25
5.86
8.19
9.25
9.39
9.15
9.06
9.46
10.42
11.71
12.93
13.62
13.32
11.69
8.58
4.07
-1.57
-7.98
-14.75
-21.58
-28.19
-34.37
-39.87
-44.49
-48.04
-50.53
-52.08
-52.98
-53.59
-54.24
-55.11
-56.16
-57.13
-57.60
-57.13
-55.39
-52.23
-47.78
-42.32
-36.20
-29.84
-23.66
-18.10
-13.56
-10.36
-8.59
-8.10
-8.48
-9.29
-10.18
-11.01
-11.90
-13.02
-14.49
-16.09
-17.29
-17.30
-15.40
-11.24
-5.11
2.07
9.02
14.47
17.62
18.29
16.86
14.05
10.55
6.85
3.10
-0.81
-5.15
-10.31
-16.70
-24.59
-33.92
-44.15
-54.32
-63.26
-69.93
-73.86
-75.16
-74.41
-72.31
-69.32
-65.58
-61.00
-55.58
-49.53
-43.34
-37.55
-32.56
-28.47
-25.11
-22.19
-19.42
-16.63
-13.63
-10.29
-6.46
-2.08
2.74
7.69
12.31
16.12
18.75
20.11
20.31
19.69
18.71
17.77
17.14
16.89
16.86
16.73
16.17
14.92
12.92
10.32
7.47
4.84
2.91
2.11
2.69
4.70
7.93
12.02
16.52
21.01
25.16
28.74
31.56
33.55
34.73
35.26
35.41
35.46
35.53
35.60
35.42
34.71
33.27
31.07
28.23
24.95
21.39
17.67
13.86
10.04
6.30
2.71
-0.77
-4.18
-7.61
-11.05
-14.37
-17.37
-19.86
-21.74
-23.14
-24.25
-25.28
-26.32
-27.29
-27.93
-27.94
-27.08
-25.15
-22.08
-17.89
-12.64
-6.51
0.19
7.02
13.46
19.00
23.31
26.31
28.09
28.89
28.93
28.34
27.27
25.81
24.15
22.45
20.80
19.16
17.36
15.20
12.57
9.46
6.04
2.49
-1.05
-4.52
-7.91
-11.19
-14.37
-17.49
-20.72
-24.29
-28.40
-33.01
-37.80
-42.18
-45.50
-47.23
-47.13
-45.20
-41.66
-36.76
-30.72
-23.75
-16.11
-8.19
-0.48
6.50
12.38
16.98
20.36
22.72
24.32
25.35
25.89
25.92
25.40
24.33
22.80
21.01
19.18
17.47
15.91
14.34
12.54
10.26
7.36
3.85
-0.15
-4.48
-8.99
-13.63
-18.39
-23.32
-28.44
-33.62
-38.62
-43.03
-46.39
-48.28
-48.37
-46.57
-42.89
-37.52
-30.69
-22.77
-14.20
-5.57
2.57
9.77
15.82
20.76
24.81
28.18
30.96
33.10
34.51
35.12
35.00
34.24
32.91
31.05
28.64
25.67
22.21
18.42
14.46
10.49
6.60
2.85
-0.78
-4.33
-7.86
-11.48
-15.31
-19.49
-24.09
-29.12
-34.41
-39.61
-44.18
-47.54
-49.17
-48.85
-46.66
-42.90
-37.99
-32.26
-25.92
-19.10
-11.96
-4.81
2.00
8.08
13.23
17.44
20.86
23.72
26.19
28.31
30.06
31.35
32.18
32.61
32.74
32.63
32.25
31.47
30.16
28.30
25.92
23.16
20.16
17.01
13.72
10.24
6.53
2.57
-1.63
-6.05
-10.61
-15.14
-19.36
-22.89
-25.32
-26.32
-25.76
-23.71
-20.40
-16.04
-10.83
-4.85
1.75
8.76
15.82
22.48
28.35
33.15
36.79
39.35
40.95
41.72
41.78
41.21
40.05
38.40
36.36
34.09
31.71
29.34
27.01
24.63
22.02
18.96
15.28
10.97
6.23
1.41
-3.17
-7.29
-11.03
-14.65
-18.45
-22.55
-26.72
-30.40
-32.87
-33.54
-32.12
-28.77
-23.93
-18.13
-11.82
-5.26
1.40
8.05
14.49
20.48
25.70
29.99
33.25
35.53
36.96
37.64
37.58
36.72
35.03
32.47
29.16
25.27
21.04
16.66
12.27
7.97
3.80
-0.19
-4.00
-7.57
-10.92
-14.06
-17.08
-20.12
-23.36
-26.95
-30.93
-35.11
-39.09
-42.37
-44.44
-44.91
-43.62
-40.59
-36.00
-30.08
-23.15
-15.50
-7.54
0.36
7.86
14.64
20.51
25.37
29.19
31.96
33.69
34.41
34.17
33.14
31.51
29.57
27.61
25.83
24.33
22.99
21.59
19.88
17.61
14.68
11.18
7.36
3.53
-0.09
-3.53
-7.10
-11.24
-16.30
-22.22
-28.49
-34.24
-38.61
-41.00
-41.25
-39.57
-36.31
-31.77
-26.15
-19.62
-12.41
-4.95
2.24
8.66
13.94
17.99
20.95
23.13
24.79
26.02
26.75
26.76
25.92
24.32
22.27
20.13
18.11
16.10
13.76
10.79
7.17
3.23
-0.57
-3.89
-6.72
-9.32
-12.04
-15.13
-18.57
-22.25
-26.07
-30.06
-34.29
-38.70
-43.02
-46.72
-49.19
-49.93
-48.73
-45.64
-40.93
-34.93
-28.03
-20.68
-13.33
-6.49
-0.54
4.36
8.25
11.34
13.84
15.77
17.06
17.62
17.49
16.90
16.25
15.88
15.89
16.08
16.01
15.26
13.59
10.97
7.62
3.84
-0.07
-3.89
-7.50
-10.91
-14.15
-17.27
-20.34
-23.46
-26.76
-30.39
-34.42
-38.67
-42.69
-45.71
-46.94
-45.78
-42.09
-36.29
-29.07
-21.19
-13.18
-5.32
2.26
9.39
15.82
21.24
25.53
28.77
31.25
33.26
34.99
36.36
37.16
37.15
36.23
34.51
32.25
29.75
27.27
24.93
22.78
20.76
18.76
16.64
14.30
11.64
8.66
5.47
2.22
-0.93
-3.89
-6.75
-9.72
-13.05
-16.92
-21.20
-25.50
-29.21
-31.67
-32.40
-31.18
-28.03
-23.18
-16.94
-9.68
-1.78
6.30
14.02
20.91
26.54
30.75
33.57
35.29
36.26
36.83
37.21
37.48
37.60
37.52
37.17
36.56
35.64
34.28
32.32
29.65
26.32
22.56
18.68
14.94
11.44
8.08
4.69
1.11
-2.72
-6.85
-11.31
-16.17
-21.47
-27.08
-32.62
-37.51
-41.12
-42.96
-42.81
-40.72
-37.00
-32.02
-26.12
-19.56
-12.54
-5.31
1.83
8.52
14.42
19.27
23.08
25.97
28.10
29.56
30.27
30.13
29.09
27.32
25.15
23.00
21.11
19.50
17.96
16.21
14.02
11.30
8.14
4.64
0.97
-2.76
-6.44
-10.00
-13.42
-16.78
-20.29
-24.23
-28.83
-34.09
-39.73
-45.14
-49.52
-52.15
-52.56
-50.65
-46.66
-41.08
-34.43
-27.18
-19.70
-12.24
-5.04
1.66
7.63
12.66
16.68
19.76
22.09
23.91
25.36
26.41
26.91
26.67
25.64
23.96
21.94
19.88
17.96
16.13
14.19
11.91
9.21
6.13
2.78
-0.74
-4.39
-8.21
-12.23
-16.42
-20.79
-25.37
-30.25
-35.44
-40.80
-45.94
-50.28
-53.22
-54.34
-53.49
-50.77
-46.43
-40.77
-34.08
-26.70
-19.04
-11.60
-4.84
0.93
5.64
9.43
12.54
15.16
17.29
18.77
19.46
19.28
18.38
17.01
15.48
13.97
12.51
11.01
9.32
7.35
5.08
2.60
-0.01
-2.65
-5.27
-7.82
-10.27
-12.66
-15.04
-17.58
-20.47
-23.95
-28.09
-32.73
-37.38
-41.29
-43.70
-44.04
-42.24
-38.62
-33.77
-28.18
-22.08
-15.45
-8.19
-0.43
7.45
14.81
21.09
25.99
29.56
32.05
33.80
35.00
35.74
36.00
35.86
35.44
34.97
34.67
34.62
34.72
34.67
34.06
32.53
29.95
26.54
22.78
19.26
16.39
14.22
12.41
10.42
7.69
3.89
-1.05
-6.90
-13.17
-19.19
-24.20
-27.45
-28.43
-26.97
-23.32
-18.00
-11.62
-4.63
2.64
9.99
17.22
24.07
30.22
35.43
39.57
42.65
44.78
46.08
46.61
46.44
45.57
44.09
42.15
39.94
37.61
35.23
32.72
29.92
26.67
22.89
18.65
14.13
9.54
5.01
0.61
-3.75
-8.22
-12.98
-18.20
-23.95
-30.07
-36.15
-41.59
-45.70
-47.94
-48.04
-46.04
-42.10
-36.52
-29.58
-21.62
-13.08
-4.49
3.59
10.77
16.84
21.78
25.64
28.51
30.45
31.57
32.06
32.13
31.98
31.68
31.17
30.36
29.15
27.48
25.32
22.66
19.51
15.92
12.06
8.13
4.32
0.73
-2.67
-6.08
-9.74
-13.96
-18.97
-24.80
-31.20
-37.58
-43.16
-47.16
-49.05
-48.64
-46.10
-41.76
-35.98
-29.09
-21.41
-13.30
-5.17
2.56
9.55
15.61
20.69
24.80
28.02
30.39
31.94
32.71
32.76
32.22
31.26
30.07
28.85
27.65
26.40
24.92
22.98
20.43
17.29
13.66
9.72
5.67
1.64
-2.27
-6.04
-9.70
-13.32
-17.03
-21.03
-25.48
-30.44
-35.77
-41.13
-45.95
-49.60
-51.58
-51.62
-49.78
-46.32
-41.57
-35.82
-29.31
-22.30
-15.24
-8.70
-3.18
1.01
4.00
6.20
8.09
10.01
11.94
13.63
14.70
14.94
14.31
13.00
11.29
9.49
7.80
6.36
5.12
3.92
2.52
0.65
-1.82
-4.88
-8.41
-12.24
-16.25
-20.33
-24.38
-28.31
-32.05
-35.64
-39.18
-42.77
-46.34
-49.57
-51.95
-52.87
-51.91
-48.89
-43.96
-37.41
-29.65
-21.04
-12.01
-3.03
5.39
12.82
18.94
23.72
27.32
30.07
32.31
34.32
36.19
37.88
39.27
40.22
40.66
40.70
40.49
40.16
39.76
39.16
38.15
36.52
34.20
31.31
28.07
24.77
21.59
18.58
15.59
12.34
8.50
3.83
-1.76
-8.10
-14.76
-21.15
-26.61
-30.57
-32.61
-32.51
-30.26
-26.04
-20.21
-13.27
-5.85
1.52
8.38
14.46
19.71
24.19
27.99
31.19
33.77
35.66
36.81
37.21
36.96
36.22
35.19
34.01
32.75
31.34
29.68
27.68
25.29
22.50
19.33
15.80
11.95
7.87
3.72
-0.31
-4.08
-7.57
-10.97
-14.52
-18.44
-22.73
-27.09
-31.02
-33.90
-35.25
-34.78
-32.50
-28.60
-23.40
-17.30
-10.74
-4.16
2.03
7.49
12.03
15.64
18.38
20.45
21.99
23.14
23.97
24.47
24.62
24.35
23.65
22.53
21.08
19.43
17.69
15.89
13.89
11.49
8.51
4.94
0.96
-3.08
-6.89
-10.30
-13.37
-16.33
-19.45
-22.95
-26.93
-31.39
-36.13
-40.82
-44.94
-47.86
-49.05
-48.18
-45.29
-40.74
-35.02
-28.60
-21.90
-15.24
-8.95
-3.34
1.29
4.85
7.42
9.33
10.91
12.36
13.64
14.48
14.56
13.69
12.01
9.85
7.67
5.76
4.13
2.50
0.49
-2.21
-5.63
-9.56
-13.64
-17.53
-21.03
-24.10
-26.88
-29.51
-32.16
-34.96
-38.05
-41.57
-45.53
-49.79
-53.92
-57.20
-58.87
-58.35
-55.44
-50.45
-44.06
-37.06
-30.07
-23.42
-17.19
-11.35
-5.91
-0.99
3.29
6.85
9.77
12.21
14.38
16.37
18.14
19.54
20.46
20.87
20.92
20.83
20.84
21.01
21.24
21.33
21.05
20.34
19.26
18.03
16.87
15.94
15.23
14.58
13.74
12.41
10.35
7.37
3.48
-1.10
-5.91
-10.31
-13.63
-15.30
-15.00
-12.76
-8.81
-3.60
2.40
8.75
15.07
21.08
26.50
31.15
34.90
37.79
39.99
41.74
43.18
44.33
45.04
45.07
44.23
42.49
39.99
36.98
33.71
30.31
26.82
23.23
19.53
15.79
12.05
8.38
4.75
1.12
-2.59
-6.47
-10.56
-14.95
-19.69
-24.74
-29.93
-34.89
-39.13
-42.11
-43.46
-43.04
-40.92
-37.33
-32.53
-26.77
-20.29
-13.37
-6.37
0.27
6.16
11.06
14.95
18.03
20.59
22.79
24.67
26.14
27.06
27.42
27.34
27.02
26.65
26.24
25.65
24.65
23.07
20.84
18.08
14.96
11.61
8.05
4.21
0.04
-4.46
-9.21
-14.13
-19.10
-24.04
-28.80
-33.14
-36.75
-39.32
-40.62
-40.57
-39.25
-36.78
-33.28
-28.79
-23.36
-17.09
-10.23
-3.19
3.55
9.52
14.36
17.95
20.36
21.85
22.71
23.17
23.30
23.05
22.29
20.93
19.00
16.55
13.73
10.66
7.42
4.02
0.41
-3.47
-7.74
-12.43
-17.46
-22.71
-27.95
-33.00
-37.75
-42.19
-46.40
-50.49
-54.55
-58.56
-62.34
-65.53
-67.71
-68.45
-67.49
-64.75
-60.38
-54.63
-47.81
-40.21
-32.11
-23.85
-15.83
-8.47
-2.12
3.08
7.18
10.39
12.98
15.17
17.07
18.69
20.01
20.98
21.61
21.93
22.03
22.04
22.05
22.08
22.05
21.86
21.33
20.35
18.90
17.05
14.95
12.76
10.62
8.64
6.84
5.15
3.40
1.40
-0.91
-3.40
-5.69
-7.22
-7.48
-6.08
-2.89
1.97
8.15
15.13
22.25
28.88
34.52
38.92
42.11
44.37
45.99
47.26
48.28
49.10
49.66
49.90
49.76
49.15
48.01
46.33
44.25
41.98
39.78
37.81
36.07
34.36
32.29
29.42
25.31
19.76
12.77
4.64
-4.17
-13.09
-21.58
-29.28
-35.87
-41.15
-44.96
-47.18
-47.75
-46.71
-44.09
-39.91
-34.11
-26.60
-17.41
-6.85
4.43
15.50
25.39
33.39
39.25
43.20
45.86
47.84
49.68
51.53
53.33
54.81
55.68
55.76
54.93
53.21
50.60
47.11
42.71
37.39
31.25
24.54
17.55
10.47
3.34
-4.08
-12.13
-21.07
-30.85
-40.96
-50.62
-58.87
-64.96
-68.54
-69.70
-68.80
-66.35
-62.83
-58.56
-53.76
-48.52
-42.87
-36.79
-30.30
-23.54
-16.85
-10.83
-6.16
-3.41
-2.73
-3.73
-5.60
-7.37
-8.21
-7.70
-5.94
-3.31
-0.37
2.36
4.59
6.23
7.40
8.25
8.92
9.41
9.56
9.13
7.86
5.59
2.25
-2.06
-7.15
-12.70
-18.28
-23.31
-27.15
-29.14
-28.79
-25.84
-20.35
-12.68
-3.44
6.66
16.80
26.17
33.94
39.43
42.09
41.74
38.58
33.20
26.56
19.72
13.70
9.26
6.77
6.20
7.16
9.02
11.10
12.74
13.49
13.12
11.68
9.39
6.60
3.65
0.80
-1.88
-4.50
-7.39
-10.93
-15.42
-20.91
-27.02
-33.01
-37.88
-40.69
-40.81
-38.12
-32.97
-26.08
-18.28
-10.30
-2.69
4.23
10.26
15.32
19.34
22.32
24.29
25.38
25.75
25.54
24.83
23.63
21.94
19.80
17.37
14.83
12.36
9.93
7.40
4.51
1.07
-2.92
-7.24
-11.50
-15.30
-18.37
-20.68
-22.47
-24.15
-26.17
-28.78
-31.91
-35.16
-37.83
-39.26
-38.98
-36.83
-32.97
-27.76
-21.60
-14.90
-8.07
-1.55
4.21
8.81
12.05
14.02
15.02
15.45
15.62
15.62
15.32
14.46
12.87
10.55
7.75
4.81
2.04
-0.41
-2.60
-4.73
-6.93
-9.18
-11.39
-13.41
-15.23
-16.99
-18.98
-21.49
-24.72
-28.69
-33.20
-37.81
-41.94
-44.91
-46.12
-45.11
-41.77
-36.29
-29.15
-20.94
-12.28
-3.66
4.51
11.93
18.43
23.89
28.33
31.80
34.41
36.25
37.46
38.08
38.19
37.81
36.91
35.44
33.29
30.44
26.92
22.87
18.51
14.09
9.87
6.04
2.72
-0.11
-2.52
-4.61
-6.53
-8.44
-10.57
-13.21
-16.67
-21.12
-26.39
-31.92
-36.84
-40.22
-41.42
-40.19
-36.67
-31.23
-24.24
-16.02
-6.89
2.77
12.40
21.40
29.24
35.61
40.50
44.10
46.68
48.44
49.50
49.82
49.32
47.92
45.63
42.58
39.04
35.34
31.83
28.72
26.06
23.74
21.49
19.04
16.20
12.95
9.33
5.49
1.50
-2.66
-7.15
-12.18
-17.82
-23.90
-29.87
-34.94
-38.26
-39.19
-37.53
-33.49
-27.66
-20.71
-13.23
-5.72
1.46
8.02
13.71
18.32
21.80
24.21
25.78
26.75
27.29
27.41
27.03
26.01
24.29
21.96
19.23
16.41
13.68
11.14
8.68
6.12
3.26
0.01
-3.61
-7.54
-11.70
-16.11
-20.85
-26.03
-31.76
-38.08
-44.87
-51.77
-58.26
-63.67
-67.40
-69.09
-68.67
-66.35
-62.43
-57.20
-50.78
-43.29
-34.86
-25.79
-16.50
-7.47
0.91
8.36
14.70
19.87
23.83
26.65
28.50
29.63
30.27
30.63
30.81
30.86
30.76
30.49
29.98
29.15
27.89
26.13
23.89
21.26
18.42
15.58
12.90
10.45
8.20
5.98
3.54
0.66
-2.84
-6.93
-11.37
-15.78
-19.68
-22.65
-24.35
-24.58
-23.32
-20.62
-16.65
-11.61
-5.78
0.48
6.78
12.66
17.76
21.79
24.68
26.50
27.47
27.80
27.69
27.28
26.66
25.88
24.98
23.96
22.81
21.53
20.20
18.91
17.77
16.79
15.87
14.80
13.35
11.39
8.94
6.16
3.22
0.24
-2.79
-6.04
-9.79
-14.32
-19.78
-26.08
-32.71
-38.93
-43.86
-46.81
-47.49
-46.02
-42.86
-38.53
-33.50
-28.09
-22.59
-17.27
-12.50
-8.56
-5.59
-3.52
-2.14
-1.11
-0.12
0.99
2.26
3.52
4.56
5.12
5.11
4.67
4.14
3.97
4.45
5.58
7.01
8.20
8.62
7.98
6.26
3.69
0.65
-2.51
-5.46
-7.98
-9.97
-11.50
-12.81
-14.37
-16.70
-20.22
-25.01
-30.70
-36.53
-41.56
-45.00
-46.38
-45.65
-43.02
-38.88
-33.61
-27.57
-21.13
-14.70
-8.72
-3.60
0.39
3.17
4.88
5.79
6.21
6.46
6.72
7.11
7.62
8.21
8.81
9.46
10.24
11.29
12.70
14.41
16.22
17.83
18.92
19.25
18.74
17.48
15.64
13.40
10.91
8.21
5.26
1.96
-1.74
-5.85
-10.24
-14.65
-18.67
-21.83
-23.63
-23.70
-21.88
-18.25
-13.12
-6.91
-0.03
7.24
14.65
22.02
29.08
35.50
40.98
45.35
48.64
51.02
52.67
53.69
54.07
53.76
52.79
51.31
49.56
47.77
46.04
44.29
42.33
39.91
36.89
33.23
29.03
24.53
19.97
15.52
11.27
7.13
2.94
-1.57
-6.56
-12.13
-18.17
-24.40
-30.39
-35.61
-39.57
-41.82
-42.12
-40.42
-36.88
-31.79
-25.58
-18.66
-11.44
-4.27
2.58
8.91
14.63
19.71
24.16
27.95
31.04
33.29
34.55
34.69
33.72
31.86
29.46
26.96
24.68
22.79
21.19
19.61
17.70
15.18
11.91
7.95
3.49
-1.19
-5.80
-10.18
-14.28
-18.31
-22.61
-27.54
-33.33
-39.83
-46.52
-52.54
-56.97
-59.10
-58.60
-55.56
-50.42
-43.75
-36.13
-28.09
-20.08
-12.46
-5.52
0.61
5.89
10.46
14.47
18.04
21.16
23.70
25.43
26.19
25.95
24.87
23.30
21.61
20.12
18.89
17.80
16.50
14.64
11.92
8.22
3.71
-1.30
-6.35
-11.08
-15.27
-18.99
-22.45
-26.01
-29.90
-34.31
-39.21
-44.42
-49.60
-54.26
-57.85
-59.86
-59.99
-58.23
-54.81
-50.08
-44.34
-37.81
-30.64
-23.03
-15.35
-8.09
-1.72
3.49
7.55
10.66
13.14
15.20
16.93
18.30
19.26
19.82
20.10
20.16
20.04
19.69
19.01
17.91
16.40
14.55
12.45
10.23
7.98
5.82
3.82
1.93
0.02
-2.16
-4.86
-8.21
-12.20
-16.68
-21.45
-26.27
-30.93
-35.09
-38.33
-40.18
-40.29
-38.50
-34.96
-29.97
-23.88
-16.98
-9.43
-1.42
6.71
14.50
21.42
27.04
31.19
34.04
35.97
37.40
38.68
39.94
41.17
42.28
43.15
43.67
43.71
43.16
41.96
40.16
37.94
35.54
33.12
30.72
28.21
25.44
22.27
18.72
14.90
10.91
6.78
2.39
-2.44
-7.83
-13.76
-19.88
-25.66
-30.44
-33.69
-35.05
-34.47
-32.07
-28.04
-22.64
-16.14
-8.84
-1.16
6.44
13.52
19.80
25.16
29.65
33.40
36.50
38.98
40.80
41.87
42.13
41.63
40.51
38.98
37.24
35.42
33.51
31.42
29.02
26.18
22.88
19.13
14.97
10.47
5.71
0.80
-4.17
-9.14
-14.15
-19.35
-24.90
-30.82
-36.89
-42.57
-47.19
-50.14
-51.02
-49.77
-46.59
-41.83
-35.88
-29.07
-21.69
-14.04
-6.42
0.85
7.54
13.48
18.63
23.01
26.71
29.78
32.19
33.85
34.64
34.49
33.46
31.76
29.71
27.63
25.69
23.91
22.12
20.07
17.56
14.57
11.17
7.58
3.98
0.45
-3.02
-6.56
-10.40
-14.78
-19.90
-25.83
-32.44
-39.31
-45.76
-51.02
-54.42
-55.58
-54.47
-51.36
-46.69
-40.86
-34.24
-27.09
-19.68
-12.27
-5.14
1.46
7.35
12.42
16.61
19.93
22.43
24.20
25.38
26.12
26.48
26.49
26.08
25.12
23.49
21.15
18.18
14.76
11.14
7.55
4.13
0.96
-2.00
-4.83
-7.64
-10.48
-13.37
-16.32
-19.33
-22.48
-25.98
-30.07
-34.93
-40.53
-46.51
-52.22
-56.91
-59.90
-60.77
-59.41
-55.98
-50.78
-44.15
-36.49
-28.19
-19.72
-11.53
-4.00
2.60
8.21
12.91
16.83
20.12
22.86
25.06
26.71
27.82
28.40
28.54
28.33
27.88
27.27
26.56
25.76
24.85
23.72
22.22
20.18
17.55
14.36
10.78
7.04
3.34
-0.19
-3.52
-6.74
-9.98
-13.43
-17.27
-21.61
-26.42
-31.44
-36.23
-40.18
-42.69
-43.25
-41.57
-37.52
-31.24
-23.05
-13.53
-3.41
6.52
15.55
23.24
29.47
34.39
38.33
41.64
44.54
47.09
49.21
50.69
51.30
50.88
49.43
47.08
44.09
40.74
37.29
33.87
30.58
27.44
24.45
21.57
18.72
15.78
12.64
9.21
5.48
1.49
-2.74
-7.23
-12.05
-17.28
-22.89
-28.55
-33.68
-37.58
-39.62
-39.52
-37.41
-33.67
-28.72
-22.84
-16.12
-8.62
-0.55
7.63
15.38
22.18
27.76
32.10
35.37
37.74
39.31
40.15
40.30
39.81
38.77
37.31
35.54
33.63
31.71
29.84
28.00
26.07
23.85
21.17
17.94
14.15
9.91
5.36
0.66
-4.05
-8.77
-13.63
-18.83
-24.67
-31.37
-39.02
-47.45
-56.26
-64.78
-72.20
-77.63
-80.34
-79.91
-76.32
-70.00
-61.58
-51.79
-41.17
-30.10
-18.85
-7.66
3.14
13.30
22.60
31.01
38.51
45.05
50.42
54.26
56.25
56.23
54.34
51.00
46.71
42.00
37.23
32.60
28.20
24.00
19.91
15.85
11.73
7.53
3.28
-0.95
-5.14
-9.37
-13.76
-18.46
-23.51
-28.83
-34.27
-39.69
-45.02
-50.19
-55.06
-59.31
-62.50
-64.10
-63.74
-61.29
-56.89
-50.87
-43.65
-35.63
-27.21
-18.76
-10.64
-3.23
3.20
8.53
12.78
16.10
18.61
20.45
21.71
22.49
22.93
23.18
23.32
23.37
23.24
22.80
21.95
20.69
19.12
17.34
15.46
13.46
11.32
8.96
6.35
3.51
0.57
-2.28
-4.81
-6.85
-8.42
-9.72
-11.13
-13.08
-15.85
-19.54
-23.95
-28.63
-32.96
-36.22
-37.82
-37.33
-34.69
-30.11
-24.05
-17.01
-9.41
-1.50
6.60
14.74
22.69
30.10
36.61
41.97
46.08
49.04
51.03
52.28
52.95
53.11
52.78
51.94
50.59
48.74
46.39
43.53
40.09
36.05
31.43
26.33
20.95
15.46
10.02
4.66
-0.73
-6.23
-11.82
-17.33
-22.45
-26.95
-30.79
-34.20
-37.58
-41.33
-45.53
-49.87
-53.75
-56.52
-57.69
-57.04
-54.65
-50.69
-45.32
-38.63
-30.79
-22.07
-13.00
-4.22
3.63
10.13
15.11
18.69
21.18
22.88
24.07
24.85
25.16
24.83
23.64
21.50
18.46
14.77
10.81
6.98
3.61
0.98
-0.75
-1.50
-1.25
-0.15
1.53
3.41
5.10
6.32
6.89
6.70
5.57
3.17
-0.86
-6.70
-14.12
-22.38
-30.32
-36.73
-40.69
-41.77
-40.08
-36.05
-30.18
-22.88
-14.53
-5.51
3.68
12.44
20.28
26.93
32.43
36.98
40.82
43.98
46.32
47.60
47.67
46.60
44.74
42.51
40.32
38.33
36.51
34.65
32.50
29.89
26.74
23.11
19.12
14.96
10.81
6.82
3.08
-0.46
-3.93
-7.53
-11.43
-15.68
-20.21
-24.79
-29.15
-32.95
-35.86
-37.61
-38.00
-37.02
-34.80
-31.65
-27.87
-23.74
-19.38
-14.82
-10.05
-5.15
-0.36
3.99
7.60
10.33
12.24
13.52
14.35
14.83
14.89
14.41
13.23
11.31
8.66
5.34
1.42
-3.01
-7.79
-12.63
-17.26
-21.47
-25.21
-28.54
-31.49
-33.92
-35.50
-35.90
-34.99
-32.97
-30.34
-27.73
-25.64
-24.37
-24.07
-24.81
-26.58
-29.25
-32.40
-35.34
-37.26
-37.53
-35.92
-32.68
-28.29
-23.20
-17.61
-11.46
-4.68
2.57
9.81
16.32
21.45
24.91
26.83
27.63
27.74
27.35
26.35
24.50
21.66
18.06
14.27
11.08
9.25
9.35
11.65
16.13
22.57
30.51
39.26
47.86
55.19
60.14
61.93
60.28
55.57
48.64
40.52
32.11
