1587294299.00
64.000000
-0.00
-0.00
-0.00
-0.00
-0.00
-0.00
-0.00
-0.00
-0.00
-0.00
0.00
0.01
0.01
-0.00
-0.03
-0.05
-0.05
0.00
0.13
0.36
0.66
1.01
1.37
1.72
2.06
2.40
2.79
3.24
3.80
4.42
5.06
5.66
6.20
6.68
7.15
7.68
8.31
9.14
10.09
11.04
11.88
12.56
13.14
13.76
14.65
15.96
17.91
20.32
22.90
25.38
27.58
29.57
31.68
34.32
37.81
42.54
48.15
54.10
59.83
64.97
69.58
74.14
79.34
85.71
93.76
103.00
112.62
121.73
129.77
136.75
143.30
150.75
157.77
166.64
177.95
191.79
206.97
220.57
228.25
225.36
208.53
176.87
132.76
80.05
23.07
-34.94
-92.44
-149.16
-205.23
-260.37
-313.74
-363.87
-409.83
-450.91
-486.50
-515.74
-537.23
-549.22
-549.96
-538.37
-514.21
-478.67
-433.88
-382.45
-327.02
-269.84
-212.63
-156.66
-102.95
-52.37
-5.90
35.58
71.43
101.35
125.50
144.38
158.69
169.15
176.37
180.75
182.57
182.07
179.51
175.23
169.65
163.18
156.14
148.81
141.30
133.70
126.04
118.37
110.74
103.23
95.91
88.83
82.01
75.47
69.22
63.27
57.61
52.28
47.25
42.55
38.17
34.09
30.31
26.84
23.64
20.73
18.10
15.74
13.66
11.82
10.24
8.89
7.76
6.83
6.10
5.53
5.12
4.85
4.70
4.66
4.73
4.89
5.14
5.46
5.85
6.31
6.83
7.41
8.05
8.74
9.49
10.30
11.16
12.07
13.03
14.05
15.12
16.26
17.46
18.74
20.10
21.50
22.94
24.37
25.70
26.84
27.66
28.02
27.79
26.85
25.13
22.58
19.26
15.22
10.63
5.68
0.61
-4.33
-8.89
-12.89
-16.17
-18.63
-20.23
-21.01
-21.04
-20.45
-19.36
-17.88
-16.15
-14.24
-12.21
-10.10
-7.90
-5.66
-3.38
-1.09
1.23
3.56
5.92
8.31
10.75
13.28
15.85
18.43
21.02
23.64
26.31
29.08
32.00
35.13
38.59
42.27
46.11
50.09
54.22
58.50
62.97
67.68
72.72
78.24
84.01
89.93
95.91
101.93
107.95
113.99
120.10
126.38
132.96
139.50
145.73
151.36
156.09
159.51
161.13
160.22
155.70
149.59
142.47
134.66
126.34
117.62
108.60
99.40
90.24
81.38
73.19
65.50
58.15
50.98
43.79
36.42
28.83
21.15
13.65
6.70
0.19
-6.05
-12.36
-19.13
-26.70
-35.18
-44.37
-53.85
-63.12
-72.06
-80.86
-89.98
-100.02
-111.48
-124.49
-138.75
-153.66
-168.62
-183.34
-197.94
-212.82
-228.55
-245.72
-264.98
-286.92
-311.90
-339.39
-367.62
-393.44
-413.14
-423.55
-423.27
-412.97
-394.83
-371.36
-344.35
-314.54
-282.18
-247.82
-212.72
-178.72
-147.39
-119.38
-94.26
-70.88
-48.21
-25.85
-4.22
15.76
33.09
47.19
58.07
66.31
72.85
78.59
84.08
89.32
93.87
97.10
98.61
98.38
96.87
94.70
92.39
90.06
87.42
83.94
79.14
72.88
65.36
57.07
48.56
40.26
32.37
24.86
17.59
10.32
2.81
-5.27
-14.24
-24.23
-34.93
-45.36
-53.90
-58.71
-58.30
-52.09
-40.72
-25.82
-9.45
6.58
21.13
33.84
44.86
54.46
62.82
69.90
75.61
79.94
83.00
84.95
85.94
85.98
85.05
83.19
80.60
77.68
74.92
72.74
71.18
69.92
68.35
65.79
61.85
56.50
50.10
43.14
36.03
28.99
22.02
15.02
7.99
0.98
-5.86
-12.48
-18.90
-25.27
-31.82
-38.84
-46.53
-54.96
-63.89
-72.66
-80.11
-84.86
-85.61
-81.55
-72.64
-59.68
-44.02
-27.22
-10.67
4.65
18.17
29.68
39.18
46.72
52.43
56.45
59.01
60.35
60.71
60.36
59.57
58.58
57.66
56.97
56.55
56.27
55.86
54.97
53.34
50.84
47.57
43.72
39.53
35.13
30.52
25.58
20.17
14.24
7.88
1.32
-5.13
-11.19
-16.74
-21.83
-26.75
-31.90
-37.76
-44.65
-52.63
-61.35
-69.89
-76.87
-80.72
-80.08
-74.31
-63.71
-49.47
-33.33
-17.03
-1.87
11.50
22.98
32.75
40.96
47.64
52.70
56.11
57.98
58.60
58.32
57.48
56.29
54.90
53.43
51.99
50.66
49.46
48.26
46.84
44.92
42.36
39.09
35.20
30.81
26.05
21.05
15.93
10.74
5.52
0.23
-5.18
-10.76
-16.45
-22.16
-27.77
-33.31
-39.04
-45.35
-52.59
-60.70
-69.00
-76.11
-80.34
-80.21
-74.98
-65.01
-51.58
-36.46
-21.32
-7.26
5.29
16.30
25.86
33.93
40.34
44.94
47.73
48.97
49.06
48.44
47.48
46.48
45.58
44.76
43.79
42.35
40.08
36.86
32.85
28.39
23.89
19.55
15.32
10.85
5.72
-0.42
-7.69
-15.89
-24.54
-32.90
-40.29
-46.38
-51.38
-56.10
-61.71
-69.37
-79.81
-93.04
-108.15
-123.16
-135.15
-140.65
-136.56
-121.36
-96.08
-64.50
-32.19
-4.70
14.33
24.25
27.16
26.62
25.99
27.29
30.97
36.38
42.51
48.50
53.77
57.79
60.07
60.25
58.40
55.18
51.76
49.31
48.52
49.17
50.17
50.01
47.42
41.86
33.68
23.93
13.79
4.13
-4.81
-13.37
-22.04
-31.10
-40.36
-49.14
-56.64
-62.22
-65.83
-68.01
-69.76
-72.17
-76.01
-81.22
-86.74
-90.64
-90.63
-84.88
-72.74
-55.08
-34.04
-12.26
8.07
25.81
40.93
53.99
65.58
75.84
84.56
91.47
96.59
100.23
102.86
104.71
105.61
105.00
102.47
98.19
92.93
87.79
83.65
80.91
79.50
79.02
78.87
78.33
76.55
72.64
65.91
56.11
44.06
31.31
19.55
9.84
2.34
-3.07
-6.73
-8.97
-10.69
-12.64
-15.65
-20.42
-27.43
-36.47
-45.70
-52.70
-55.33
-53.54
-47.65
-38.51
-27.01
-14.42
-1.77
11.62
27.01
45.41
65.19
84.67
101.66
113.79
118.08
112.27
97.76
78.77
61.39
49.56
46.91
54.61
70.90
90.78
98.71
83.74
42.91
-3.96
-44.67
-71.36
-83.77
-80.68
-62.75
-33.32
2.80
38.61
66.30
77.37
68.73
42.98
7.27
-30.55
-64.38
-90.17
-107.43
-118.46
-128.50
-140.74
-155.44
-169.88
-180.58
-184.86
-181.21
-170.33
-154.62
-137.89
-122.33
-108.13
-94.05
-79.14
-63.43
-47.56
-32.53
-18.99
-7.40
2.83
12.71
22.89
32.99
41.63
47.33
49.24
47.57
43.43
38.64
34.85
32.92
32.73
33.46
34.12
34.12
33.42
32.45
31.58
30.70
29.21
26.28
21.42
14.71
6.70
-2.13
-11.72
-22.41
-34.24
-46.32
-56.40
-61.50
-58.94
-47.53
-28.03
-3.04
23.74
48.31
67.08
77.36
77.65
67.93
49.76
26.15
1.02
-21.56
-38.46
-48.23
-51.32
-49.73
-46.02
-42.37
-39.74
-37.81
-35.66
-32.65
-29.15
-26.45
-26.04
-28.69
-33.88
-39.94
-44.85
-47.13
-46.38
-43.51
-40.25
-38.55
-39.88
-44.77
-52.62
-61.92
-70.79
-77.79
-82.55
-85.87
-89.16
-93.35
-98.01
-101.26
-100.49
-93.73
-80.77
-63.44
-44.72
-27.29
-12.30
0.99
14.46
29.66
46.79
64.33
79.73
90.62
95.96
96.34
93.71
90.43
88.32
88.04
89.04
89.97
89.46
86.81
82.33
77.33
73.48
72.06
73.39
76.65
80.21
82.19
81.14
76.56
68.79
58.80
47.76
36.84
26.90
18.44
11.49
5.69
0.50
-4.58
-9.80
-15.14
-20.28
-24.79
-28.26
-30.35
-30.77
-28.98
-24.47
-16.83
-5.84
8.67
27.22
50.74
80.10
115.17
154.34
193.33
225.91
245.98
250.21
239.80
220.13
198.27
179.81
168.17
162.79
160.71
158.69
155.09
150.36
145.94
142.67
139.90
138.08
137.31
138.02
140.74
146.01
154.08
164.71
177.04
189.91
205.23
224.78
249.43
277.89
306.96
332.87
352.77
365.60
354.11
309.50
232.58
135.19
34.51
-54.87
-125.23
-175.17
-207.24
-225.87
-231.65
-228.13
-218.48
-205.79
-192.86
-181.52
-172.60
-166.60
-164.27
-165.03
-168.05
-174.02
-184.86
-202.18
-225.06
-248.98
-266.80
-271.23
-256.51
-222.12
-173.08
-118.24
-67.01
-26.07
1.93
17.76
24.11
24.96
24.27
25.84
32.75
46.58
66.67
89.90
111.56
127.12
134.06
132.54
124.94
114.51
104.01
94.93
87.66
81.94
77.41
73.83
70.92
68.27
65.39
61.90
57.69
53.02
48.33
44.09
40.12
36.07
31.47
25.97
19.47
12.10
4.23
-3.65
-11.04
-17.96
-24.56
-31.05
-37.58
-44.23
-50.98
-57.72
-64.30
-70.54
-77.07
-84.41
-92.81
-102.10
-112.04
-122.42
-133.09
-143.73
-153.84
-164.80
-177.48
-191.82
-206.92
-221.82
-235.80
-248.15
-257.79
-263.21
-267.30
-272.58
-280.37
-290.51
-302.60
-316.87
-333.94
-354.16
-376.97
-407.45
-447.59
-494.58
-541.13
-579.61
-605.72
-619.97
-626.75
-632.07
-649.51
-686.74
-741.86
-803.98
-859.83
-899.96
-921.45
-927.22
-869.13
-726.71
-510.90
-261.00
-21.31
178.97
330.00
434.99
502.80
543.78
559.08
550.91
523.09
486.01
449.32
418.71
396.29
381.69
373.79
365.12
350.66
330.53
309.98
295.59
290.54
296.43
312.99
338.93
368.32
395.66
418.91
439.94
462.59
490.91
528.36
575.01
626.24
671.01
695.76
690.60
652.20
583.71
493.41
393.25
295.07
208.70
140.49
92.27
64.03
53.10
53.87
52.77
39.34
9.34
-32.34
-67.64
-88.03
-90.51
-76.51
-52.63
-26.54
-4.81
8.13
8.36
-2.14
-17.65
-29.97
-34.00
-30.39
-23.55
-16.38
-10.45
-5.17
0.95
7.54
13.70
17.93
18.93
16.82
13.16
9.82
8.27
9.10
10.79
11.24
7.80
-1.91
-19.30
-44.74
-78.43
-120.77
-172.08
-232.04
-297.75
-363.02
-419.11
-456.99
-470.50
-458.61
-425.75
-379.63
-328.59
-278.88
-233.84
-194.24
-159.58
-129.38
-103.47
-81.80
-63.90
-48.67
-34.70
-20.60
-5.13
12.76
33.50
57.09
82.80
109.07
133.95
155.08
170.21
177.90
178.24
172.86
164.76
157.17
151.19
146.99
143.62
139.06
130.75
117.86
99.97
78.47
56.82
39.65
31.39
34.61
47.49
63.05
70.84
60.88
28.55
-22.82
-83.20
-140.11
-184.02
-211.75
-225.84
-231.03
-230.53
-224.15
-209.47
-184.92
-152.37
-117.64
-88.75
-72.39
-71.15
-83.02
-102.75
-124.35
-143.19
-156.55
-163.19
-162.74
-154.87
-139.06
-115.12
-83.53
-45.65
-3.67
39.47
80.44
115.68
142.25
158.78
166.03
166.97
165.48
164.74
165.86
167.85
168.58
166.43
161.49
155.45
150.59
148.34
148.41
149.01
147.85
143.19
134.44
122.06
107.10
90.86
75.17
62.61
56.15
58.24
69.01
85.15
100.06
105.87
96.61
70.92
32.55
-11.37
-53.72
-90.06
-119.28
-142.06
-158.93
-168.86
-169.84
-160.60
-142.52
-119.96
-98.77
-83.65
-75.92
-73.27
-70.94
-63.68
-47.11
-18.43
23.24
76.56
137.75
201.01
258.90
304.43
333.34
345.74
345.78
339.12
330.51
322.36
315.70
309.84
303.89
297.29
290.22
282.65
272.66
257.30
234.17
204.90
172.37
140.10
110.78
86.45
67.75
52.38
36.63
17.33
-3.61
-24.07
-42.48
-59.10
-74.46
-89.58
-107.94
-134.04
-172.13
-221.41
-282.30
-355.39
-440.78
-533.75
-612.78
-652.80
-636.02
-584.63
-514.93
-439.10
-356.96
-273.02
-192.36
-120.28
-63.88
-28.91
-16.80
-16.67
-16.09
-4.32
21.86
59.09
99.82
135.38
160.40
174.13
182.13
188.55
194.34
196.42
191.65
179.95
161.00
136.51
109.05
83.18
61.10
42.02
22.07
-2.96
-36.19
-79.72
-134.08
-198.77
-271.55
-345.01
-404.44
-436.40
-433.72
-399.63
-346.89
-291.09
-243.92
-209.36
-185.14
-169.08
-157.16
-148.38
-143.25
-141.73
-141.88
-140.42
-134.13
-120.94
-101.80
-79.45
-57.53
-38.36
-22.24
-7.44
8.48
27.51
50.34
75.95
102.27
126.67
147.20
163.24
175.31
184.50
191.74
197.48
201.44
203.14
201.95
197.76
191.12
183.11
174.92
167.57
161.71
157.58
155.39
155.32
157.83
163.66
173.56
188.02
206.78
228.41
250.24
268.76
280.31
282.15
273.22
254.34
227.84
196.74
164.05
132.14
102.64
76.14
52.14
28.99
4.61
-22.38
-51.19
-78.37
-98.58
-106.95
-101.73
-85.77
-66.17
-51.89
-50.54
-65.59
-95.21
-132.96
-169.82
-196.65
-206.35
-195.60
-166.17
-125.40
-84.96
-57.79
-53.69
-75.38
-116.98
-166.05
-208.28
-232.84
-235.86
-220.62
-194.86
-166.71
-141.55
-120.96
-103.76
-88.07
-72.78
-58.15
-45.10
-34.14
-24.53
-13.81
1.72
25.74
60.09
103.27
150.01
192.28
221.62
232.00
221.71
193.73
154.52
111.79
72.32
40.79
19.42
8.32
6.05
9.96
16.59
22.10
23.18
17.91
6.41
-9.24
-25.81
-39.79
-48.41
-50.26
-45.42
-35.16
-21.44
-6.26
8.69
21.71
30.63
32.85
26.26
10.71
-11.13
-34.30
-53.35
-64.48
-66.75
-61.67
-51.40
-37.08
-18.44
5.11
32.71
61.04
85.17
100.45
104.77
99.28
87.59
73.99
61.83
52.82
47.15
43.93
41.72
38.94
34.05
25.88
14.04
-0.61
-15.87
-28.56
-35.30
-33.48
-21.98
-1.42
26.21
58.04
90.67
120.27
143.05
155.93
157.72
150.10
137.61
126.19
120.81
123.19
130.91
138.73
141.13
134.78
119.69
98.35
73.95
48.99
24.92
2.64
-16.59
-31.16
-39.80
-42.51
-41.18
-39.34
-40.94
-48.97
-64.69
-87.44
-114.88
-143.45
-168.86
-186.82
-193.98
-189.10
-173.79
-152.24
-130.00
-112.16
-101.79
-99.24
-102.50
-108.24
-113.06
-114.50
-111.34
-103.45
-91.38
-76.05
-58.58
-40.39
-23.00
-7.97
3.47
10.89
14.98
17.38
20.24
25.48
34.08
45.80
59.25
72.41
83.14
89.62
90.85
86.91
79.12
69.51
60.06
51.81
44.36
36.09
24.98
9.79
-9.26
-30.30
-50.48
-66.90
-77.46
-81.29
-78.72
-70.88
-59.24
-45.39
-30.84
-17.07
-5.32
3.54
9.21
12.01
12.78
12.53
12.13
11.96
11.90
11.37
9.81
7.00
3.31
-0.41
-3.12
-4.10
-3.25
-1.13
1.29
3.15
4.05
4.24
4.47
5.59
8.06
11.78
16.17
20.42
23.95
26.69
29.00
31.56
35.25
41.05
49.76
61.86
77.02
93.39
107.89
116.98
118.29
111.86
100.15
86.51
73.18
59.74
43.26
20.40
-9.56
-42.95
-71.95
-87.76
-84.57
-61.55
-22.89
23.85
70.30
109.39
136.37
149.51
149.31
137.57
118.65
99.12
85.66
82.65
90.41
104.94
120.57
131.70
133.81
126.91
115.08
102.78
92.56
84.55
77.89
74.27
77.04
87.32
105.57
130.53
157.32
179.34
191.57
192.82
187.92
183.07
179.56
177.24
176.02
175.01
173.47
172.08
159.40
129.85
103.77
90.03
82.89
78.55
73.40
63.91
48.12
26.20
1.99
-20.87
-43.76
-68.88
-97.57
-131.84
-174.99
-228.57
-291.41
-358.07
-421.79
-478.62
-524.35
-554.10
-564.98
-559.51
-543.09
-522.16
-500.76
-480.27
-461.23
-442.09
-420.36
-384.94
-333.69
-271.90
-209.38
-154.11
-108.79
-72.30
-41.37
-14.47
12.85
41.90
72.85
104.76
135.73
162.75
182.00
188.02
178.90
158.29
132.08
106.66
85.52
68.17
52.61
36.22
18.07
-0.89
-18.99
-36.47
-54.07
-71.48
-86.64
-96.36
-98.07
-91.22
-77.65
-61.00
-45.96
-35.74
-30.77
-28.73
-25.71
-17.63
-1.31
24.65
58.77
95.56
126.22
141.55
135.95
110.29
72.19
33.26
4.26
-8.74
-5.58
10.07
33.72
62.12
92.73
121.67
142.39
146.69
128.24
86.49
28.50
-32.85
-83.82
-115.62
-127.74
-127.15
-123.82
-125.01
-131.76
-139.09
-139.55
-127.80
-103.52
-70.94
-35.87
-1.91
31.53
68.09
111.08
160.03
209.23
249.49
272.42
274.51
258.39
230.86
198.80
165.66
130.92
92.70
51.48
11.99
-18.43
-34.23
-35.47
-28.50
-22.48
-24.25
-34.77
-49.34
-61.27
-66.03
-63.55
-57.02
-50.16
-44.98
-41.55
-39.89
-41.39
-48.57
-62.83
-81.99
-99.87
-108.80
-103.77
-85.49
-60.49
-37.65
-23.44
-17.98
-15.87
-9.87
4.49
26.15
49.18
65.99
71.51
65.70
54.55
46.22
47.50
60.90
84.03
111.24
135.75
151.94
156.38
149.93
135.39
116.58
97.68
82.97
76.41
81.11
98.80
129.68
174.81
232.96
300.04
368.33
427.77
469.00
486.73
481.96
446.98
383.43
299.37
207.42
119.53
42.68
-21.49
-74.29
-117.69
-153.38
-178.57
-194.56
-203.38
-207.54
-209.84
-212.66
-217.68
-226.11
-238.95
-255.57
-274.96
-296.89
-321.90
-350.05
-379.21
-404.40
-418.85
-416.49
-393.33
-350.51
-293.60
-230.48
-168.10
-110.12
-57.13
-8.98
32.52
63.39
78.62
75.83
57.89
32.68
9.85
-3.81
-7.70
-6.88
-8.09
-15.16
-26.41
-36.03
-37.91
-29.74
-14.40
1.86
13.39
18.19
18.52
19.12
24.16
35.02
49.84
64.99
77.20
85.42
91.20
97.53
106.70
118.51
129.59
134.75
129.56
113.10
89.21
65.30
49.26
46.23
56.79
77.12
100.87
121.67
134.74
137.43
128.97
109.72
81.00
45.28
6.09
-32.59
-67.14
-95.06
-115.29
-127.21
-131.24
-129.16
-123.39
-116.25
-109.14
-102.39
-95.75
-89.20
-83.80
-81.28
-83.82
-92.42
-105.90
-120.54
-130.83
-131.05
-117.14
-87.97
-45.36
4.92
55.30
98.56
129.68
146.69
150.49
144.09
131.65
117.56
105.60
98.54
97.53
101.62
108.08
113.14
113.74
108.72
99.25
88.10
78.50
72.64
70.99
72.30
74.36
75.11
73.29
68.85
62.65
56.19
50.90
47.46
45.39
42.94
37.56
26.65
8.73
-15.83
-44.46
-72.86
-96.19
-110.71
-115.24
-112.03
-106.50
-105.69
-116.07
-141.00
-178.74
-222.48
-262.34
-288.83
-296.03
-283.33
-254.85
-217.53
-178.24
-141.39
-108.13
-77.06
-45.44
-10.47
29.66
75.03
122.73
167.05
201.26
220.15
222.02
209.46
188.30
163.66
141.15
124.30
113.30
106.15
101.09
97.62
96.33
97.41
99.60
100.63
97.70
88.71
73.71
55.31
36.75
20.67
8.32
-1.02
-9.56
-20.41
-37.06
-61.49
-93.86
-134.16
-181.65
-233.87
-286.01
-331.11
-361.77
-373.32
-364.11
-335.59
-292.82
-241.46
-184.88
-123.21
-54.36
27.22
118.52
207.11
285.10
346.31
386.86
407.08
410.96
403.97
390.85
373.12
351.34
326.78
300.87
275.87
254.20
236.96
222.85
208.81
190.41
165.60
135.96
104.68
75.58
51.40
33.16
19.43
7.74
-6.13
-24.41
-46.47
-70.11
-92.61
-112.30
-128.74
-144.16
-161.46
-185.79
-219.86
-262.71
-310.02
-355.49
-393.25
-418.79
-432.31
-436.56
-438.96
-445.63
-459.27
-478.69
-500.06
-519.40
-532.70
-539.39
-517.53
-455.06
-352.97
-226.40
-96.31
21.27
110.73
177.84
228.87
267.10
289.50
292.57
276.30
244.69
205.92
169.72
145.18
135.57
140.45
154.77
174.11
196.04
220.28
246.39
271.33
289.45
292.69
276.12
239.26
187.95
131.50
79.97
40.64
16.35
5.19
1.13
-2.70
-12.94
-34.01
-67.75
-111.40
-157.70
-196.61
-219.88
-224.42
-212.84
-192.58
-167.35
-142.52
-121.60
-109.00
-99.93
-88.28
-68.86
-40.70
-6.57
27.92
55.20
69.38
68.71
57.23
42.36
32.68
35.21
52.03
79.18
108.24
131.08
143.31
146.16
144.30
143.89
151.07
168.76
195.35
225.09
250.56
265.60
267.77
258.27
235.75
203.76
168.76
137.10
112.31
94.75
83.50
77.99
77.50
79.90
82.56
83.40
79.48
69.88
56.19
41.78
30.17
22.97
18.65
14.70
8.12
-3.06
-18.40
-36.58
-55.90
-74.80
-92.63
-110.89
-131.28
-155.71
-185.31
-221.16
-262.96
-307.51
-347.69
-374.52
-381.79
-367.60
-335.69
-292.96
-248.23
-208.27
-175.94
-149.75
-119.57
-81.20
-36.35
2.04
31.75
56.75
85.58
122.71
167.88
215.31
254.95
278.06
281.25
267.68
245.04
223.56
207.43
195.99
186.78
176.58
164.36
150.38
134.79
114.15
82.69
35.84
-24.92
-91.31
-151.96
-196.47
-219.65
-222.52
-211.58
-195.20
-180.51
-171.59
-170.00
-176.75
-192.34
-216.23
-246.01
-278.40
-310.22
-339.64
-365.26
-384.68
-393.33
-384.69
-352.45
-293.86
-211.84
-115.33
-16.22
75.22
153.63
218.64
272.44
316.61
350.51
372.38
381.73
380.85
374.72
368.67
365.85
366.35
368.37
370.04
370.85
371.38
371.10
368.37
360.65
345.99
324.33
297.65
268.94
240.77
214.14
187.09
157.40
124.06
87.89
50.95
15.10
-18.65
-50.21
-80.19
-111.72
-147.05
-186.99
-231.24
-279.18
-330.68
-385.27
-440.76
-492.61
-537.67
-572.18
-593.11
-599.28
-591.99
-575.09
-553.40
-531.09
-492.34
-430.31
-348.26
-259.08
-177.54
-112.55
-65.95
-34.92
-15.16
-2.58
2.80
0.99
-6.70
-18.44
-29.40
-35.60
-34.82
-26.86
-12.58
3.91
19.10
31.44
41.79
52.83
67.19
86.97
110.15
134.80
157.40
175.43
188.16
196.77
203.80
211.83
222.94
238.25
258.00
279.78
299.54
312.45
314.44
303.61
280.82
249.53
214.51
180.49
149.95
123.14
98.88
75.89
53.83
33.44
16.08
2.97
-5.10
-8.27
-7.28
-3.17
2.89
9.85
16.68
22.57
27.17
31.14
36.01
43.75
55.92
72.87
93.28
114.48
133.36
147.12
154.17
153.85
146.17
131.81
112.32
90.33
69.43
53.16
43.54
39.96
38.91
35.27
24.31
3.67
-25.94
-61.30
-98.03
-131.96
-159.57
-177.79
-183.66
-174.63
-149.61
-110.00
-60.05
-5.86
46.50
92.79
131.23
162.05
185.87
202.40
210.54
209.20
198.52
180.55
158.75
136.59
116.29
98.24
81.44
64.52
46.66
28.00
9.27
-8.87
-26.50
-44.58
-64.89
-89.53
-120.37
-158.34
-202.81
-251.07
-298.23
-338.04
-364.21
-372.24
-360.73
-331.70
-289.60
-239.59
-185.92
-131.00
-75.73
-20.54
33.60
84.81
130.34
167.48
194.06
208.48
209.74
197.36
171.77
135.19
92.25
49.81
15.77
-3.05
-2.85
15.90
48.82
89.05
129.35
163.80
188.84
203.42
208.46
206.20
199.34
190.44
181.57
173.91
167.74
162.59
157.49
151.33
143.10
132.41
119.31
104.41
88.67
72.96
57.86
43.48
29.53
15.62
1.45
-13.07
-27.92
-43.14
-58.93
-75.22
-91.47
-106.65
-119.85
-130.93
-140.75
-150.63
-161.51
-173.40
-184.87
-193.75
-198.30
-198.13
-194.31
-188.47
-181.67
-173.98
-165.24
-155.27
-144.52
-133.97
-124.70
-117.24
-111.12
-105.03
-97.82
-90.42
-84.48
-81.51
-82.13
-85.90
-91.75
-98.29
-103.93
-108.08
-113.60
-123.05
-137.16
-154.20
-170.94
-184.38
-192.35
-193.26
-187.50
-180.79
-178.08
-181.70
-190.76
-202.90
-216.60
-231.22
-245.83
-261.24
-284.04
-318.63
-364.74
-416.89
-467.07
-508.86
-538.65
-554.82
-524.03
-431.79
-286.92
-118.93
40.36
172.55
273.32
339.27
382.82
411.97
424.92
419.44
396.47
360.89
320.35
279.06
238.96
202.28
169.74
138.54
107.61
77.92
51.60
33.77
24.06
18.57
13.93
7.49
-3.40
-19.06
-37.88
-58.67
-77.75
-92.71
-102.12
-104.74
-100.98
-93.13
-83.07
-71.97
-60.01
-46.46
-31.46
-15.50
1.06
17.26
31.62
43.08
51.31
56.99
61.63
66.19
71.29
77.29
84.11
91.42
98.90
106.40
114.09
122.76
133.37
147.19
165.26
187.55
212.02
234.60
250.05
253.73
243.41
219.99
187.13
149.85
112.63
78.43
48.55
23.30
2.73
-13.13
-24.75
-33.44
-41.30
-50.46
-62.13
-75.94
-90.07
-102.04
-109.71
-112.06
-109.28
-102.33
-92.33
-80.17
-66.41
-51.56
-36.25
-21.30
-7.54
4.34
14.07
21.82
28.21
34.16
40.68
48.58
58.04
68.32
77.97
85.30
89.13
89.24
86.28
81.24
74.74
66.76
56.84
44.92
31.80
19.19
9.03
2.45
-0.86
-2.55
-4.56
-8.18
-13.37
-19.05
-24.02
-27.69
-30.34
-32.61
-34.65
-35.54
-33.60
-27.25
-16.16
-1.74
13.16
25.36
32.64
34.67
32.95
29.97
28.12
28.59
31.22
34.70
37.50
38.72
38.51
38.06
38.93
42.40
48.90
57.91
68.14
77.87
85.06
87.70
84.21
74.26
59.41
43.17
30.23
24.77
28.76
40.83
56.64
70.53
77.62
75.63
65.27
49.52
32.05
15.83
2.37
-8.29
-16.94
-24.59
-31.84
-38.71
-44.74
-49.43
-52.61
-54.60
-55.82
-56.43
-55.88
-52.91
-45.95
-33.99
-17.42
1.69
20.24
35.41
45.63
51.15
53.69
55.35
57.73
61.25
65.21
68.40
70.31
71.02
71.12
71.18
71.39
71.49
70.89
69.00
65.49
61.59
58.46
56.68
55.89
55.22
54.08
52.58
51.36
50.92
53.79
61.49
74.14
90.09
106.75
121.69
133.45
141.57
146.28
152.54
164.73
185.63
214.62
248.36
282.79
314.91
343.62
369.59
400.18
441.91
497.99
565.43
635.74
698.50
745.25
772.19
747.64
656.70
503.65
314.15
122.38
-45.40
-178.78
-279.77
-355.48
-413.31
-449.82
-465.84
-462.75
-445.43
-421.96
-401.49
-391.40
-396.01
-418.07
-454.24
-497.77
-540.60
-575.36
-595.28
-595.60
-574.55
-535.58
-489.33
-446.85
-417.23
-403.16
-400.79
-401.52
-397.27
-383.69
-354.35
-311.24
-261.00
-211.51
-166.71
-129.31
-94.80
-60.87
-28.56
-0.49
20.57
33.61
40.19
43.81
48.38
57.35
71.46
89.69
109.70
127.73
140.94
148.59
151.97
153.14
153.88
154.13
152.87
149.13
142.12
131.97
119.76
106.74
93.51
80.05
65.34
48.55
29.56
9.24
-10.84
-28.70
-42.63
-51.90
-56.91
-59.38
-61.49
-64.90
-69.72
-74.81
-78.27
-78.28
-73.86
-65.01
-52.58
-37.74
-21.47
-3.67
15.68
36.06
56.38
75.34
91.96
106.17
118.80
131.29
146.03
164.11
184.55
204.33
219.53
227.09
226.34
219.26
202.91
177.38
144.26
106.21
66.40
27.91
-6.37
-34.01
-53.72
-66.08
-72.17
-74.06
-73.70
-72.00
-69.02
-64.62
-59.11
-53.47
-48.79
-44.62
-40.22
-34.57
-26.83
-17.01
-6.06
4.40
12.61
17.27
19.00
18.37
16.03
12.54
7.50
-0.15
-11.69
-28.21
-50.05
-76.03
-102.94
-128.06
-147.76
-158.34
-156.90
-142.55
-117.61
-89.51
-62.92
-42.54
-30.71
-25.91
-24.15
-20.60
-11.71
3.11
22.24
45.11
68.19
88.15
105.02
118.62
128.18
132.53
130.03
120.53
106.16
89.88
74.67
62.66
53.73
46.16
37.49
24.25
4.34
-22.63
-53.32
-85.05
-115.67
-144.46
-171.13
-195.38
-218.75
-242.18
-265.38
-286.81
-303.70
-312.51
-311.48
-300.70
-272.54
-228.44
-177.05
-130.14
-96.05
-75.96
-65.32
-59.91
-56.82
-54.45
-54.52
-58.10
-64.59
-71.62
-76.76
-76.11
-69.87
-59.94
-47.86
-36.99
-29.09
-24.00
-19.53
-11.34
5.10
30.09
63.46
107.36
160.27
220.87
286.37
343.65
377.40
393.00
394.86
380.09
353.53
321.80
290.13
259.24
225.52
185.22
137.24
81.55
21.61
-36.48
-89.12
-135.22
-174.87
-207.00
-227.53
-231.51
-218.50
-192.25
-159.01
-126.75
-101.43
-84.89
-74.84
-66.39
-55.33
-41.57
-27.58
-15.85
-8.38
-5.76
-7.24
-11.55
-17.49
-24.28
-32.22
-41.49
-51.29
-60.47
-67.63
-71.58
-71.64
-67.50
-59.22
-47.34
-32.62
-15.82
2.08
19.98
36.73
51.33
62.91
70.90
75.17
76.14
74.92
73.09
72.46
74.43
79.59
87.60
97.61
108.61
119.97
131.65
144.16
158.46
175.74
197.07
222.87
252.27
282.78
310.70
332.02
343.74
344.77
336.23
320.69
301.13
279.91
258.43
237.32
216.94
197.62
179.57
162.46
145.23
126.13
103.16
74.87
41.14
3.56
-34.48
-68.62
-94.77
-110.31
-114.87
-110.29
-99.72
-86.37
-72.66
-59.80
-48.35
-39.08
-33.59
-34.08
-42.28
-58.15
-79.01
-100.05
-115.85
-122.75
-120.57
-112.81
-105.19
-103.12
-109.49
-123.88
-142.75
-160.44
-170.21
-165.83
-143.52
-103.85
-53.08
-2.47
34.77
47.96
33.00
-6.08
-58.53
-110.79
-151.38
-174.27
-180.04
-174.46
-165.43
-159.83
-161.66
-172.05
-190.54
-216.64
-249.48
-286.95
-324.48
-354.74
-369.89
-364.87
-340.06
-301.63
-258.83
-219.29
-185.86
-156.27
-125.16
-86.90
-38.32
19.91
83.04
142.98
191.34
221.68
231.68
224.12
206.07
186.63
174.44
173.32
177.51
178.16
167.97
143.70
106.57
60.69
12.05
-33.12
-66.34
-81.71
-78.74
-63.85
-46.66
-34.65
-30.24
-31.68
-36.16
-42.26
-50.84
-62.88
-77.91
-93.29
-105.26
-110.98
-109.88
-103.93
-96.47
-91.80
-90.62
-91.00
-89.47
-82.48
-68.25
-47.77
-24.48
-2.99
12.45
19.74
19.63
14.76
8.41
2.94
-0.96
-4.05
-7.40
-11.09
-15.65
-18.37
-14.98
-0.82
27.88
72.47
130.76
196.41
259.58
308.93
335.12
333.68
306.91
263.22
214.35
171.44
141.87
127.85
127.05
134.79
145.55
154.53
158.35
155.25
144.96
128.43
107.31
83.58
59.49
37.22
18.72
5.48
-2.14
-5.26
-6.47
-8.84
-14.55
-23.30
-32.79
-39.75
-41.57
-37.64
-29.46
-19.54
-9.83
-0.95
8.54
20.40
35.87
54.85
75.76
95.92
111.90
120.16
117.20
101.88
75.02
40.34
3.47
-30.17
-58.07
-82.07
-107.55
-140.90
-183.95
-233.44
-281.24
-317.76
-336.58
-337.17
-324.40
-302.41
-281.29
-263.94
-252.39
-248.87
-256.26
-276.25
-306.67
-340.06
-365.34
-372.47
-355.42
-315.89
-261.20
-200.58
-141.36
-87.02
-37.87
7.19
48.60
86.71
120.97
150.82
175.97
196.09
211.06
220.70
224.66
222.53
214.71
201.92
185.73
168.47
152.75
140.67
132.75
127.78
123.16
116.43
106.13
92.34
76.52
60.62
46.44
34.78
25.38
17.29
9.63
1.81
-6.14
-13.68
-19.69
-22.22
-19.72
-11.61
1.55
18.25
36.71
55.36
72.89
88.81
104.50
121.06
138.90
157.61
176.29
194.14
210.64
225.07
237.20
249.04
261.85
275.99
291.25
307.35
324.68
344.21
366.15
390.99
421.01
455.89
492.40
525.08
548.25
558.52
556.10
543.71
508.02
444.12
354.48
249.66
144.30
50.79
-24.14
-73.32
-103.64
-122.52
-133.03
-137.49
-138.18
-137.99
-140.15
-146.57
-158.10
-175.78
-198.67
-223.02
-245.44
-263.54
-276.12
-283.12
-285.11
-283.10
-279.11
-274.09
-267.31
-258.15
-246.30
-232.02
-216.24
-200.42
-186.44
-176.74
-172.62
-173.74
-178.92
-186.41
-194.57
-202.41
-209.84
-217.73
-227.63
-240.74
-258.03
-280.58
-309.12
-343.27
-380.58
-416.17
-443.60
-456.74
-451.32
-426.79
-386.14
-334.57
-278.08
-222.63
-173.76
-136.35
-113.24
-103.37
-101.99
-101.63
-93.91
-72.27
-33.99
19.04
80.20
139.74
186.94
211.33
205.78
170.46
114.30
52.80
2.50
-25.77
-30.01
-15.45
8.15
31.50
50.67
67.74
88.31
121.37
169.02
220.82
267.33
301.20
315.80
308.93
283.77
247.77
209.61
175.49
147.47
125.12
105.37
83.30
54.80
17.94
-26.55
-75.50
-123.82
-165.97
-196.00
-204.61
-188.64
-153.12
-109.08
-67.41
-36.95
-15.62
1.50
19.75
43.41
75.10
114.95
160.39
205.85
243.55
266.28
269.69
255.08
228.56
197.18
166.23
137.99
112.33
88.53
66.93
48.21
32.81
19.84
6.47
-9.93
-29.57
-49.82
-67.17
-79.75
-89.65
-101.59
-119.86
-145.58
-175.60
-203.62
-223.36
-231.20
-227.02
-213.22
-192.67
-167.38
-138.82
-108.65
-79.23
-53.15
-32.19
-16.41
-4.06
7.70
21.77
40.19
63.90
92.71
125.74
161.89
200.13
239.79
280.82
323.75
369.00
415.66
460.26
496.45
516.28
512.79
483.16
430.31
362.28
289.38
220.40
160.04
108.47
63.14
21.44
-17.56
-53.09
-84.12
-110.73
-134.38
-156.92
-178.91
-199.10
-215.02
-224.18
-225.68
-220.38
-209.89
-195.39
-176.97
-154.13
-127.08
-97.32
-67.27
-39.08
-13.56
9.85
32.03
53.05
71.56
85.27
92.17
91.42
83.59
70.08
52.39
31.69
8.88
-14.96
-38.48
-60.32
-79.52
-96.25
-112.02
-129.66
-152.59
-183.04
-220.41
-260.28
-294.72
-314.36
-311.20
-281.14
-225.74
-152.27
-72.14
1.63
57.47
87.93
91.34
72.05
39.09
3.48
-24.84
-39.38
-38.26
-23.55
0.42
28.80
57.14
82.04
101.17
112.99
116.81
112.54
100.75
82.64
59.89
34.37
7.92
-17.95
-42.36
-65.17
-87.31
-110.55
-137.27
-169.93
-210.06
-257.02
-306.90
-352.80
-386.29
-400.78
-393.27
-365.57
-323.37
-273.88
-223.26
-174.60
-128.69
-84.70
-43.01
-4.24
31.03
62.70
90.81
114.58
132.54
141.65
139.39
122.82
91.57
47.85
-4.42
-60.77
-116.99
-168.10
-210.28
-239.87
-257.40
-265.40
-268.00
-269.66
-273.65
-281.39
-291.00
-300.85
-290.23
-247.41
-172.25
-77.20
19.78
104.77
164.35
204.01
230.70
249.59
261.19
266.08
268.08
272.59
285.52
310.31
346.64
387.21
421.68
438.62
431.86
402.87
359.77
313.60
273.44
244.31
224.84
210.71
195.95
176.21
149.55
116.33
79.09
42.15
11.80
-6.22
-7.78
7.23
34.72
67.31
96.59
115.78
121.40
113.84
95.86
71.63
45.38
20.91
1.29
-11.39
-16.65
-15.95
-12.45
-10.77
-14.96
-26.92
-45.86
-69.15
-94.13
-120.22
-148.79
-181.45
-218.19
-254.95
-283.81
-295.43
-282.61
-242.93
-180.91
-106.15
-31.00
30.64
66.65
68.96
36.20
-25.04
-100.33
-172.56
-226.07
-251.44
-249.75
-230.23
-206.17
-189.30
-186.09
-196.20
-216.79
-243.72
-263.94
-265.99
-241.85
-190.33
-116.45
-34.15
51.79
135.21
208.40
265.55
300.81
314.14
310.52
297.98
284.12
274.30
268.36
263.00
254.37
239.08
217.07
190.88
166.23
150.67
152.08
173.75
213.43
263.91
314.61
355.89
380.00
383.67
368.28
339.11
301.31
258.63
213.12
165.35
115.64
61.75
0.35
-71.74
-155.73
-251.05
-354.59
-460.33
-560.14
-631.22
-653.42
-619.45
-540.76
-440.39
-340.94
-255.94
-188.77
-136.45
-93.87
-59.07
-32.25
-15.32
-6.02
-0.52
5.27
14.69
29.80
51.29
77.00
103.90
129.54
153.20
174.44
190.78
199.49
199.05
189.93
174.32
156.29
140.83
132.26
131.64
137.16
145.60
154.68
162.51
167.43
168.04
163.71
154.95
142.22
126.91
111.31
98.86
90.64
85.12
78.87
68.54
51.87
27.14
-5.46
-43.47
-81.30
-114.32
-139.25
-154.51
-159.29
-145.84
-110.19
-54.24
4.28
57.19
100.90
136.93
165.05
185.11
197.17
200.06
192.70
174.78
148.67
116.11
78.76
38.21
-3.10
-42.54
-78.86
-111.56
-140.61
-165.03
-185.50
-203.81
-222.21
-241.79
-261.95
-280.86
-295.20
-301.13
-295.04
-276.27
-247.02
-211.52
-174.17
-138.37
-106.56
-79.92
-58.80
-42.66
-30.78
-21.97
-14.48
-6.21
4.76
19.04
36.01
53.94
70.66
83.92
92.06
94.69
92.98
89.63
88.17
92.02
102.86
119.48
137.84
151.69
155.03
143.68
117.36
79.87
37.60
-2.88
-37.03
-63.14
-81.80
-94.41
-101.83
-104.01
-100.43
-91.32
-78.59
-65.70
-56.01
-51.39
-51.04
-52.48
-52.59
-49.24
-42.41
-33.87
-25.99
-20.30
-17.09
-15.06
-13.43
-11.68
-9.46
-6.81
-3.51
0.70
6.35
13.98
23.93
33.66
40.84
44.60
45.64
45.12
43.49
39.63
31.40
17.44
-5.59
-37.70
-74.84
-110.85
-140.73
-163.20
-180.85
-198.43
-220.01
-252.76
-299.75
-358.08
-419.68
-474.75
-515.47
-538.72
-546.50
-518.93
-451.78
-355.35
-249.87
-153.52
-74.81
-13.99
31.94
61.19
79.97
89.61
91.93
90.34
89.07
91.27
97.95
108.71
122.06
137.92
152.92
165.24
175.03
183.72
192.26
200.15
205.62
206.82
203.39
193.26
175.81
152.22
124.93
96.48
68.56
41.94
16.90
-5.87
-27.14
-47.37
-66.52
-84.17
-99.91
-113.70
-125.94
-137.09
-147.31
-157.09
-166.66
-175.78
-183.93
-190.49
-195.04
-197.47
-197.97
-196.84
-194.47
-191.19
-187.07
-181.96
-175.53
-167.49
-157.79
-146.67
-134.62
-122.15
-109.56
-96.68
-82.88
-67.26
-48.99
-27.68
-3.48
22.94
50.70
79.05
107.64
136.50
165.92
196.22
227.64
260.22
293.41
325.82
354.90
377.28
389.60
389.68
377.43
355.00
326.00
294.17
262.28
231.63
202.45
174.65
148.48
124.50
103.26
84.77
68.47
53.62
39.82
27.33
16.89
9.20
4.46
2.20
1.63
1.96
2.71
3.53
3.95
3.41
1.45
-1.73
-5.15
-7.50
-7.68
-5.67
-2.44
0.73
3.13
5.12
7.86
12.37
18.63
25.16
29.64
30.08
25.92
18.75
11.90
9.43
14.51
28.07
48.21
70.78
90.99
105.24
112.27
113.28
110.80
107.38
104.48
102.37
100.78
99.76
100.01
102.51
107.51
113.98
119.63
122.10
119.95
113.40
104.26
94.94
87.38
82.16
78.37
74.17
67.74
57.75
43.73
26.24
6.80
-12.24
-28.27
-39.38
-44.66
-44.11
-38.97
-31.21
-23.09
-16.72
-13.87
-15.77
-22.81
-33.76
-44.23
-49.23
-45.09
-31.00
-9.39
15.48
39.43
59.37
75.29
92.09
114.31
144.05
180.00
218.29
254.47
285.03
306.75
319.59
330.08
344.55
367.48
400.01
440.17
484.47
529.17
569.28
603.58
638.95
681.27
732.81
790.24
845.90
891.52
921.55
932.87
887.00
764.19
564.97
314.42
51.47
-189.58
-391.08
-536.89
-645.42
-733.00
-801.84
-849.04
-871.01
-867.60
-843.77
-805.87
-761.04
-720.04
-689.60
-667.57
-647.72
-621.34
-581.98
-528.67
-465.75
-402.17
-349.62
-314.44
-295.08
-287.96
-287.39
-288.30
-284.22
-269.53
-242.79
-209.60
-176.95
-148.97
-127.30
-112.49
-103.15
-96.16
-87.95
-76.00
-60.05
-40.60
-18.54
4.67
27.56
48.72
66.49
78.52
82.32
76.42
62.14
43.22
24.21
8.89
-1.04
-6.18
-8.76
-11.17
-14.46
-17.93
-19.62
-17.73
-11.61
-2.18
8.27
16.80
20.95
19.72
14.00
6.16
-0.84
-4.35
-2.67
4.51
16.18
30.30
44.53
56.90
66.40
72.92
77.02
79.49
80.87
81.42
81.33
81.03
81.47
84.05
90.21
100.71
114.95
130.61
143.85
150.19
145.84
129.10
101.34
66.81
31.51
1.28
-20.09
-31.93
-36.65
-38.39
-41.25
-47.43
-56.49
-65.57
-70.74
-68.71
-58.26
-40.73
-19.38
1.71
19.02
30.32
34.94
33.72
28.93
23.85
22.03
25.87
35.21
46.82
55.22
55.09
43.72
22.88
-1.76
-23.04
-35.70
-39.16
-37.94
-39.72
-51.85
-77.72
-114.90
-155.91
-190.98
-211.56
-212.99
-195.52
-163.85
-125.55
-89.02
-61.74
-48.43
-50.00
-63.45
-83.12
-102.97
-119.00
-130.31
-138.27
-144.47
-148.59
-147.71
-137.70
-115.83
-82.73
-42.90
-3.08
30.22
52.84
63.92
65.65
61.70
55.69
50.09
45.85
42.89
40.86
39.73
39.96
42.04
45.83
50.20
53.30
53.37
49.74
43.32
36.31
31.33
30.07
32.42
36.33
38.52
35.78
26.23
10.09
-10.42
-31.78
-50.48
-64.09
-71.98
-75.15
-75.41
-74.53
-73.45
-72.27
-70.70
-68.97
-68.33
-70.77
-78.04
-90.30
-105.32
-118.61
-125.02
-120.63
-104.67
-79.93
-52.05
-27.39
-10.84
-4.41
-6.71
-14.05
-21.49
-24.71
-21.26
-11.21
3.44
20.20
37.25
53.99
70.61
87.48
104.54
121.19
136.60
149.96
160.72
168.32
172.14
171.44
165.97
156.43
144.88
134.19
126.99
124.72
127.22
133.53
142.66
154.63
170.10
189.40
211.30
231.77
244.84
244.70
228.57
198.41
160.38
122.24
90.14
66.70
51.11
41.23
35.57
34.20
37.86
46.58
58.52
70.26
78.22
80.25
76.35
68.21
58.37
48.93
41.45
36.93
36.28
39.96
47.59
57.74
68.20
77.07
83.72
89.38
96.60
108.13
125.16
146.36
168.04
185.49
194.89
194.71
186.21
172.69
158.04
145.26
135.52
128.21
121.71
114.39
105.07
93.28
78.92
61.96
42.24
19.55
-6.32
-35.66
-68.63
-105.57
-147.32
-195.49
-252.16
-318.66
-393.62
-471.63
-543.60
-599.01
-629.41
-631.53
-608.09
-566.08
-513.49
-456.41
-398.10
-340.05
-283.82
-232.14
-188.30
-154.52
-130.51
-113.38
-99.01
-84.01
-67.04
-48.92
-31.80
-17.67
-7.26
0.22
6.60
13.70
22.42
32.45
42.38
50.45
55.37
56.72
54.98
51.10
46.00
40.22
33.96
27.16
19.71
11.58
2.97
-5.66
-13.54
-19.81
-23.84
-25.46
-25.13
-23.62
-21.73
-19.94
-18.31
-16.63
-14.61
-11.90
-7.84
-1.55
8.01
21.26
37.68
55.69
73.26
88.79
101.73
112.58
122.27
131.45
140.07
147.57
153.54
158.28
163.00
169.35
178.80
192.13
209.16
228.67
248.41
265.51
277.06
281.35
278.61
271.02
261.79
253.38
245.77
235.96
219.21
191.49
151.89
103.39
51.52
1.92
-41.99
-79.57
-111.86
-140.00
-164.16
-183.57
-197.39
-205.13
-206.23
-198.94
-180.52
-148.75
-104.70
-54.69
-9.37
20.05
27.00
12.97
-13.18
-39.38
-55.93
-59.42
-52.84
-42.48
-34.02
-29.68
-28.12
-26.15
-20.93
-11.35
1.74
16.51
31.16
44.43
56.02
66.17
75.33
83.45
90.24
95.38
98.80
101.24
104.11
109.09
117.47
129.12
141.87
152.21
156.31
151.53
137.13
114.46
86.44
56.55
27.78
1.02
-24.10
-48.41
-72.34
-95.48
-116.78
-134.93
-148.91
-158.22
-165.47
-173.07
-182.05
-191.33
-198.69
-202.47
-202.56
-199.93
-195.67
-195.55
-203.51
-220.48
-243.58
-268.14
-290.33
-308.16
-320.72
-327.52
-336.87
-355.86
-388.16
-431.24
-478.28
-522.51
-560.26
-590.92
-616.17
-650.07
-704.37
-784.93
-888.15
-1004.31
-1124.28
-1243.52
-1359.94
-1401.58
-1319.38
-1101.31
-785.50
-436.18
-109.32
163.37
371.35
519.58
621.95
677.36
693.59
677.19
637.93
589.69
545.60
512.26
492.27
486.55
484.70
476.57
454.91
420.56
382.67
352.92
337.75
341.15
366.33
407.39
456.16
503.56
532.91
530.80
511.62
487.37
458.03
428.86
403.84
386.78
379.06
379.81
387.13
396.79
399.63
387.90
359.16
313.62
254.98
189.30
124.48
69.70
32.63
14.41
12.32
21.84
36.18
48.40
52.95
47.17
32.64
13.74
-6.01
-23.36
-35.74
-42.74
-45.85
-47.36
-49.21
-51.90
-54.83
-57.74
-60.51
-62.87
-65.06
-67.32
-69.69
-71.62
-72.21
-70.54
-66.42
-60.05
-51.58
-41.30
-29.62
-16.90
-3.40
11.16
27.35
45.59
65.82
87.04
107.28
123.71
133.54
134.98
127.74
113.29
94.04
73.50
56.28
47.31
49.87
64.23
86.82
110.86
128.51
132.74
120.40
93.65
58.85
23.25
-6.86
-27.48
-36.59
-33.15
-18.91
2.53
25.71
42.98
44.61
21.78
-29.46
-105.54
-194.78
-282.78
-356.06
-405.94
-424.70
-411.75
-375.33
-329.02
-290.46
-261.41
-238.24
-217.65
-196.87
-175.99
-156.29
-137.50
-116.65
-88.97
-49.64
1.26
58.94
115.34
161.55
190.00
197.15
184.69
158.62
127.56
98.36
75.47
60.96
54.70
54.61
57.51
60.07
59.62
54.98
45.37
31.01
12.92
-7.65
-29.29
-50.25
-67.89
-78.82
-79.58
-68.82
-48.42
-23.53
-1.24
12.03
13.13
3.37
-12.49
-28.54
-40.64
-47.64
-50.81
-52.14
-52.55
-51.25
-46.45
-36.80
-22.41
-5.05
12.62
28.13
39.99
48.04
52.94
55.80
57.47
58.04
57.13
54.14
48.88
41.79
33.86
26.18
19.34
13.28
7.36
0.81
-6.99
-16.18
-26.53
-37.41
-48.07
-57.75
-65.86
-72.04
-75.78
-76.15
-71.64
-60.82
-43.23
-20.42
4.06
25.71
41.04
49.11
51.98
53.53
57.24
64.42
73.62
81.99
87.03
88.01
86.03
82.83
79.40
75.31
69.28
60.31
48.93
37.27
28.12
23.57
23.69
26.55
29.08
28.66
24.17
16.39
7.47
-0.24
-5.12
-7.08
-7.55
-8.64
-12.10
-18.35
-26.24
-33.76
-39.07
-41.45
-41.63
-40.94
-40.33
-39.67
-37.77
-33.25
-25.56
-15.36
-4.16
6.45
15.77
23.94
31.58
38.93
45.46
50.09
51.87
50.74
47.57
43.86
40.97
39.54
39.49
40.37
41.68
43.20
44.68
45.68
45.45
43.15
38.38
31.60
24.07
17.35
12.90
11.67
13.97
19.43
26.96
35.07
42.28
47.73
51.75
55.58
60.67
67.81
76.64
85.98
94.66
102.00
107.78
111.70
112.79
109.42
100.21
85.19
66.39
47.42
32.16
23.20
20.86
23.26
27.08
28.72
25.52
16.26
1.38
-17.27
-37.04
-55.48
-71.09
-83.85
-95.01
-106.58
-120.26
-136.66
-154.98
-173.46
-190.43
-205.24
-218.60
-232.15
-247.28
-264.03
-280.54
-293.44
-298.88
-293.73
-276.33
-246.85
-207.25
-161.07
-112.98
-68.03
-30.59
-3.07
14.96
26.57
36.24
47.93
63.58
82.50
102.03
119.15
131.80
139.65
143.71
145.45
145.79
144.82
142.13
137.41
131.14
124.72
120.00
118.54
121.02
126.96
134.95
143.29
150.64
156.46
160.88
164.44
167.41
169.66
170.70
170.12
168.20
166.02
165.14
166.94
171.96
179.75
189.29
199.54
209.95
220.40
230.63
239.91
246.94
250.30
249.02
243.07
233.09
220.01
204.46
186.31
164.61
137.62
103.23
59.78
7.23
-51.65
-110.99
-162.70
-198.45
-212.25
-202.43
-172.56
-130.98
-88.90
-57.95
-47.50
-62.63
-102.84
-162.03
-229.72
-293.22
-340.73
-364.26
-361.58
-336.39
-296.63
-251.60
-209.04
-173.34
-145.34
-123.60
-106.06
-91.41
-79.23
-69.54
-62.00
-55.75
-49.75
-43.36
-36.63
-30.01
-24.17
-19.54
-16.30
-14.41
-13.37
-12.20
-9.51
-4.21
3.67
12.19
17.57
15.57
3.39
-18.70
-46.79
-74.56
-95.59
-105.51
-103.17
-90.21
-69.65
-44.72
-18.32
6.54
26.48
37.92
38.04
25.92
3.07
-27.32
-61.97
-98.96
-138.04
-179.43
-221.82
-261.20
-291.35
-306.10
-302.15
-280.70
-246.95
-207.79
-168.93
-133.11
-100.06
-68.27
-36.97
-7.01
19.47
40.51
55.56
65.75
73.23
80.12
87.52
95.22
101.96
106.17
106.73
103.40
96.93
88.60
79.67
70.67
61.24
50.31
36.89
20.87
3.64
-12.04
-23.04
-27.05
-23.42
-13.42
0.31
14.82
27.80
38.03
45.36
50.27
53.41
55.19
55.79
55.28
53.71
51.25
48.22
45.00
42.03
39.77
38.56
38.51
39.49
41.04
42.48
43.02
41.97
38.86
33.67
26.71
18.63
10.30
2.58
-3.79
-8.21
-10.32
-10.16
-8.23
-5.72
-4.17
-5.01
-9.01
-15.73
-23.80
-31.35
-36.88
-39.77
-40.36
-39.53
-38.07
-36.38
-34.38
-31.85
-28.63
-24.70
-20.00
-14.47
-8.14
-1.37
4.95
9.68
11.98
11.75
9.79
7.52
6.12
6.03
6.81
7.61
7.79
7.35
6.91
7.30
8.98
11.66
14.40
15.98
15.48
12.71
8.18
2.90
-2.05
-5.95
-8.53
-9.91
-10.40
-10.18
-9.32
-7.94
-6.32
-4.95
-4.34
-4.82
-6.20
-7.88
-9.06
-8.98
-7.18
-3.64
1.26
7.04
13.27
19.64
25.95
31.89
36.98
40.64
42.41
42.28
40.75
38.75
37.23
36.77
37.32
38.40
39.30
39.53
38.90
37.58
35.87
34.03
32.20
30.36
28.51
26.70
25.16
24.19
24.01
24.47
25.07
25.00
23.46
20.08
15.09
9.28
3.72
-0.75
-3.79
-5.61
-6.73
-7.65
-8.66
-9.75
-10.68
-11.16
-10.93
-9.86
-7.98
-5.37
-2.18
1.45
5.37
9.56
13.95
18.51
23.12
27.57
31.59
35.10
38.13
40.87
43.60
46.57
50.04
54.22
59.22
64.93
70.95
76.64
81.41
85.03
87.85
90.69
94.44
99.59
106.00
113.02
119.91
126.34
132.61
139.51
147.90
158.31
170.48
183.23
194.39
201.17
200.80
191.47
173.02
147.25
117.43
87.16
59.19
34.61
12.69
-8.51
-31.12
-56.43
-84.19
-112.40
-137.76
-156.77
-166.77
-166.88
-158.23
-143.44
-125.53
-106.69
-87.54
-67.17
-43.95
-16.75
13.85
44.95
71.65
88.30
90.43
76.39
48.13
10.86
-28.70
-64.35
-91.93
-110.00
-119.47
-122.84
-123.39
-124.52
-129.17
-138.89
-153.02
-168.21
-178.97
-179.47
-166.02
-139.20
-104.49
-70.96
-48.35
-43.68
-59.03
-90.98
-132.18
-173.77
-207.84
-228.83
-234.01
-223.27
-198.58
-163.68
-123.64
-84.41
-51.69
-29.94
-21.15
-24.55
-37.00
-54.02
-71.14
-84.71
-92.47
-93.24
-86.59
-72.58
-51.90
-25.99
3.19
33.47
63.46
92.80
122.04
151.96
182.70
213.08
240.65
262.75
277.19
283.35
281.70
273.24
258.89
239.06
213.81
183.10
147.94
110.14
72.49
37.44
6.32
-20.58
-43.68
-63.28
-79.41
-91.32
-102.12
-114.27
-130.19
-151.08
-176.09
-202.69
-226.19
-244.90
-257.61
-263.62
-261.84
-251.66
-233.24
-207.37
-175.47
-139.34
-101.38
-63.40
-27.01
7.74
40.97
72.67
102.48
129.59
153.15
172.24
187.24
199.00
210.04
222.40
237.10
253.97
271.67
288.29
301.28
309.28
311.65
310.27
307.56
305.63
305.50
306.64
307.31
304.83
297.94
277.16
238.91
185.74
125.85
69.31
23.42
-5.31
-20.52
-27.28
-30.45
-32.99
-37.91
-49.29
-69.90
-100.32
-137.30
-174.34
-201.97
-211.51
-197.46
-160.78
-108.63
-51.67
-0.41
38.08
60.70
68.48
63.97
50.35
30.09
5.68
-19.43
-40.69
-53.24
-54.00
-42.80
-23.57
-2.71
12.78
18.47
14.21
3.62
-7.80
-15.28
-16.62
-12.69
-6.18
-0.54
2.45
3.14
3.21
4.39
7.24
11.14
13.97
13.31
5.84
-9.97
-33.48
-62.46
-94.10
-126.35
-157.86
-189.46
-222.53
-261.20
-308.64
-366.41
-433.84
-507.42
-580.87
-644.47
-689.23
-707.97
-701.34
-674.68
-636.37
-595.01
-556.58
-523.71
-494.85
-469.18
-424.24
-349.84
-248.17
-132.94
-21.68
73.61
140.24
185.84
218.81
245.36
266.44
283.35
300.29
320.55
345.42
372.46
396.95
411.49
410.83
391.52
355.02
306.17
251.09
195.64
144.40
101.89
70.51
51.83
44.55
46.02
52.56
60.31
66.32
68.73
67.44
62.40
54.15
42.85
29.02
13.36
-3.16
-19.28
-33.42
-43.53
-47.95
-45.63
-36.45
-20.91
-0.39
23.27
47.80
70.67
89.61
102.61
108.49
107.12
99.16
85.84
68.53
48.72
27.96
8.04
-9.16
-22.05
-29.68
-31.99
-29.84
-24.55
-17.51
-9.78
-1.97
5.61
12.84
19.62
25.92
31.62
36.72
41.03
44.34
46.48
47.50
47.70
47.50
47.18
46.54
45.23
42.93
40.01
37.26
35.60
35.35
36.03
36.48
35.49
32.55
27.91
22.42
16.90
11.79
7.00
2.30
-2.40
-6.93
-11.11
-15.00
-18.99
-23.55
-29.06
-35.37
-41.76
-47.01
-49.68
-48.60
-43.31
-34.34
-23.01
-11.08
-0.03
9.32
16.97
23.47
29.59
35.85
42.31
48.65
54.21
58.45
60.92
61.59
60.62
58.44
55.56
52.47
49.51
46.82
44.26
41.54
38.30
34.16
28.93
22.65
15.71
8.77
2.51
-2.55
-6.20
-8.64
-10.33
-11.80
-13.46
-15.22
-16.71
-17.48
-17.25
-15.96
-13.83
-11.15
-8.24
-5.28
-1.83
2.70
8.77
16.55
25.96
36.60
47.79
58.72
68.38
76.97
84.88
92.46
99.84
107.00
113.83
120.21
126.04
130.81
135.64
141.30
148.00
155.40
163.02
170.70
178.73
187.58
197.12
208.95
223.46
239.30
253.65
263.21
265.78
261.36
252.25
230.44
193.80
144.84
90.31
38.22
-5.75
-39.70
-64.37
-78.74
-86.62
-89.53
-88.86
-86.78
-86.38
-91.34
-104.99
-128.80
-161.29
-198.81
-234.10
-259.95
-271.39
-266.91
-248.39
-220.16
-187.46
-155.32
-128.21
-108.24
-96.03
-91.00
-91.52
-95.00
-99.04
-101.69
-101.97
-100.28
-97.51
-94.44
-91.37
-88.05
-83.81
-79.20
-75.73
-75.57
-80.93
-93.62
-113.60
-138.83
-166.07
-191.14
-211.35
-225.16
-231.86
-231.85
-227.34
-220.46
-212.64
-204.07
-192.95
-178.37
-160.34
-140.03
-112.19
-76.38
-35.71
4.98
35.72
57.47
73.87
88.21
104.32
123.11
142.56
159.70
171.35
174.96
170.21
157.34
138.14
115.91
94.21
75.26
60.42
50.20
44.49
43.39
45.81
50.23
55.13
59.07
60.21
57.61
51.17
41.84
31.64
21.80
13.00
5.41
-1.23
-7.23
-12.52
-16.59
-18.75
-18.22
-14.97
-9.63
-3.23
3.06
8.10
11.18
12.04
10.93
8.50
5.57
3.14
2.14
3.42
7.10
12.67
18.79
23.69
25.79
23.91
17.93
8.29
-4.42
-19.19
-34.94
-50.01
-62.07
-68.93
-68.95
-61.83
-48.98
-33.06
-17.38
-5.20
1.17
0.70
-6.18
-17.75
-31.56
-44.97
-55.80
-62.96
-66.62
-68.05
-69.13
-71.31
-75.09
-79.59
-83.20
-84.04
-80.79
-73.39
-62.58
-49.60
-35.50
-20.59
-4.71
12.20
29.98
47.98
65.38
81.83
97.18
111.65
125.43
138.33
150.00
160.05
168.13
173.83
176.38
174.62
167.37
154.05
135.45
113.71
91.54
70.98
52.35
34.24
14.55
-7.70
-30.95
-51.35
-64.07
-65.91
-56.90
-40.25
-21.01
-3.62
9.49
18.25
23.83
27.20
28.32
26.41
21.00
12.75
3.47
-4.70
-10.28
-13.22
-14.65
-16.27
-19.41
-24.51
-30.92
-37.32
-42.50
-45.89
-47.56
-48.05
-47.78
-46.94
-45.21
-42.23
-37.65
-31.17
-22.46
-10.56
5.64
26.54
50.94
75.45
95.33
105.99
104.97
92.70
72.56
48.65
23.56
-2.09
-28.82
-56.49
-83.16
-105.60
-120.82
-127.02
-124.71
-115.97
-103.03
-87.03
-68.11
-46.55
-23.45
-0.58
22.00
45.97
73.50
105.79
140.95
174.03
199.01
211.76
207.60
188.15
161.16
136.77
122.18
117.78
118.79
119.88
118.47
115.06
112.25
113.19
116.35
118.36
115.99
107.97
95.34
80.72
66.59
54.84
45.40
35.85
24.17
8.42
-12.24
-37.30
-65.22
-93.93
-120.67
-142.77
-158.40
-166.69
-168.21
-164.56
-157.69
-149.14
-139.68
-129.03
-116.54
-102.03
-85.98
-69.85
-55.40
-44.20
-37.10
-33.99
-33.90
-35.32
-36.72
-36.82
-34.97
-30.99
-25.08
-17.63
-9.08
-0.02
8.88
16.84
23.21
27.73
30.77
33.30
36.35
40.29
44.31
46.41
44.16
35.75
21.09
2.03
-18.30
-36.85
-51.93
-63.65
-73.29
-81.99
-89.75
-95.14
-96.17
-91.51
-81.28
-66.91
-50.36
-32.95
-15.09
3.45
22.56
41.13
57.09
68.17
72.99
71.47
64.72
54.32
41.76
28.39
15.67
5.33
-0.96
-2.33
0.58
5.54
9.40
9.16
2.84
-10.21
-29.42
-53.27
-79.61
-105.70
-128.55
-145.34
-154.29
-155.20
-149.57
-139.92
-128.80
-117.95
-108.07
-99.15
-91.14
-84.36
-79.47
-77.22
-77.46
-78.50
-77.17
-69.92
-54.29
-30.33
-1.13
28.33
52.62
68.89
78.10
84.27
91.96
103.62
118.79
134.30
146.82
153.20
152.77
147.00
138.01
126.83
112.52
93.37
67.21
33.71
-7.27
-53.15
-98.88
-138.32
-166.44
-181.44
-184.48
-180.72
-176.23
-179.49
-196.54
-229.13
-274.18
-324.88
-373.13
-410.71
-433.98
-423.51
-371.60
-285.08
-183.66
-88.55
-11.23
41.21
79.92
114.57
150.14
184.21
212.33
231.83
241.01
240.03
231.17
219.75
211.19
211.36
221.88
240.41
260.66
274.28
274.18
257.42
227.27
190.14
154.21
124.31
101.51
84.05
69.44
55.32
42.63
35.44
36.63
46.64
61.81
75.94
82.81
78.43
62.76
39.72
15.48
-4.50
-16.96
-22.23
-23.37
-24.20
-27.26
-32.59
-37.91
-40.17
-37.66
-30.62
-21.26
-12.52
-6.73
-4.68
-5.48
-7.08
-7.53
-6.08
-3.33
-0.93
-0.63
-3.25
-8.48
-14.74
-19.93
-22.67
-22.49
-20.43
-17.89
-15.86
-14.32
-12.31
-8.99
-4.27
0.51
3.34
2.60
-1.94
-9.09
-16.88
-23.74
-29.23
-33.85
-38.35
-43.00
-47.04
-49.50
-49.72
-48.13
-46.00
-44.62
-44.74
-46.19
-47.81
-48.31
-46.79
-43.38
-39.08
-35.07
-32.20
-30.21
-28.20
-25.10
-20.70
-15.86
-12.03
-10.93
-13.14
-17.89
-23.08
-26.47
-26.65
-23.63
-18.73
-13.56
-9.39
-6.80
-5.61
-5.35
-5.58
-6.04
-6.53
-6.83
-6.83
-6.73
-6.84
-7.27
-7.48
-6.16
-1.63
7.09
19.21
32.40
43.52
50.53
53.09
52.51
50.85
49.37
48.20
46.69
44.43
41.97
40.71
42.05
46.17
51.87
56.83
58.95
57.64
53.92
49.82
46.92
45.86
46.09
46.61
46.52
45.38
43.40
40.91
38.31
35.70
32.95
29.66
25.37
19.73
12.79
4.98
-2.87
-9.76
-15.14
-19.18
-22.89
-27.53
-33.98
-42.24
-51.35
-59.85
-66.23
-69.49
-69.25
-65.84
-60.11
-52.96
-45.49
-38.68
-33.27
-29.65
-27.57
-26.26
-24.61
-21.72
-17.07
-11.01
-4.19
2.73
9.04
14.41
18.65
21.42
22.38
21.26
18.23
13.98
9.67
6.32
4.43
3.93
4.18
4.39
3.84
1.99
-1.57
-7.29
-15.57
-26.46
-39.43
-53.48
-67.10
-78.41
-85.85
-88.10
-84.59
-75.65
-62.29
-46.32
-29.83
-14.81
-2.84
5.23
9.38
10.29
9.28
7.94
7.83
9.89
14.34
20.30
26.19
30.55
32.38
31.45
28.51
24.74
21.55
20.00
20.30
21.64
22.85
22.80
21.23
18.92
16.83
15.34
13.75
10.76
5.61
-1.14
-7.85
-13.07
-16.66
-20.06
-25.48
-33.73
-43.23
-50.15
-50.59
-42.92
-29.04
-13.41
-0.45
7.94
12.86
17.32
24.11
33.53
43.83
52.34
57.09
57.88
56.19
54.19
53.74
55.74
59.95
65.53
71.33
76.00
78.46
78.23
75.73
72.05
68.33
65.24
62.21
58.18
51.81
42.78
31.86
20.46
10.26
2.12
-3.93
-8.44
-12.34
-16.25
-20.29
-24.43
-28.67
-33.03
-37.83
-43.07
-48.20
-52.30
-54.50
-54.42
-52.49
-49.58
-46.46
-43.36
-40.13
-36.31
-31.71
-26.54
-21.23
-16.00
-10.93
-5.99
-1.42
2.16
3.94
2.98
-0.87
-6.99
-14.28
-21.31
-27.08
-31.02
-32.99
-33.22
-32.32
-30.92
-29.94
-30.02
-31.52
-34.51
-38.27
-42.00
-44.95
-46.72
-47.82
-49.07
-51.64
-56.55
-64.32
-74.88
-87.43
-100.19
-110.63
-116.08
-114.38
-104.83
-88.71
-68.81
-48.62
-30.82
-16.72
-5.80
3.45
12.47
22.02
32.02
41.73
50.47
57.76
63.61
68.08
71.06
72.23
71.25
68.22
63.98
59.96
57.81
58.59
62.04
66.69
70.21
70.41
66.37
58.45
48.23
37.42
27.32
18.15
9.63
1.24
-7.38
-16.22
-25.04
-33.26
-40.32
-45.58
-48.32
-47.94
-43.75
-35.55
-23.65
-9.14
6.21
20.51
32.03
39.91
44.12
45.64
45.90
46.27
47.51
49.66
52.29
54.87
57.18
59.29
61.43
63.24
64.03
62.50
57.70
49.47
38.71
27.44
17.56
10.39
5.98
3.83
3.29
3.75
4.97
6.18
5.92
1.90
-8.28
-25.73
-49.36
-75.62
-99.84
-117.76
-126.99
-127.53
-121.10
-109.88
-95.56
-78.83
-60.31
-41.12
-23.15
-8.88
0.13
4.15
5.33
6.69
10.52
17.58
26.99
37.06
46.24
53.80
59.92
65.21
69.94
73.95
76.64
77.28
75.51
71.28
64.84
56.72
47.63
38.22
29.09
20.72
13.21
6.55
0.45
-5.49
-11.82
-19.26
-28.25
-38.94
-51.09
-63.72
-75.72
-85.74
-92.54
-95.32
-93.59
-87.41
-77.26
-64.19
-49.60
-34.72
-20.53
-7.30
4.99
16.57
27.39
36.97
44.50
49.29
51.20
50.86
49.39
48.11
47.84
48.69
50.02
50.64
49.68
46.79
42.70
38.68
35.82
34.71
34.89
35.27
34.74
32.51
28.38
22.77
16.41
10.14
4.62
0.31
-2.83
-5.15
-7.40
-10.51
-15.17
-21.72
-29.95
-39.03
-47.81
-54.90
-58.84
-58.41
-52.97
-42.91
-29.40
-14.11
1.23
15.34
27.47
37.45
45.25
50.98
54.71
56.57
56.96
56.55
56.05
56.12
57.08
58.70
60.40
61.53
61.68
60.77
59.16
57.19
55.07
52.82
50.28
47.37
44.19
40.86
37.48
33.98
30.17
25.77
20.58
14.67
8.23
1.64
-4.72
-10.63
-16.08
-21.22
-26.39
-31.98
-38.28
-45.36
-52.78
-59.78
-65.17
-67.89
-66.95
-61.98
-53.20
-41.32
-27.35
-12.23
3.21
18.19
31.81
43.20
51.61
56.79
59.06
59.29
58.64
58.06
58.21
59.51
62.15
66.18
71.63
78.13
84.97
91.21
95.99
99.03
100.50
100.67
99.30
95.03
85.92
70.17
47.58
20.18
-8.17
-33.01
-51.22
-62.04
-67.08
-69.07
-70.39
-72.02
-73.53
-73.90
-72.54
-69.76
-66.32
-62.88
-59.36
-54.86
-48.26
-38.94
-27.34
-14.94
-3.81
4.33
8.60
9.41
8.21
6.70
6.29
7.51
10.07
13.04
15.50
17.14
18.30
19.90
22.66
26.80
31.68
36.10
38.81
38.94
36.48
31.96
26.33
20.42
14.85
10.08
6.38
4.06
3.17
3.55
4.77
6.27
7.57
8.40
8.42
7.25
4.55
0.12
-5.74
-12.24
-18.36
-23.27
-26.78
-29.44
-32.10
-35.38
-39.31
-43.34
-46.68
-48.66
-48.98
-47.63
-44.76
-40.52
-35.18
-28.96
-22.35
-15.82
-9.85
-4.59
0.06
4.31
8.49
12.69
16.65
19.93
21.95
22.40
21.49
19.59
17.56
16.31
16.13
17.10
18.66
19.95
20.37
19.42
16.97
13.63
10.10
6.85
3.89
1.05
-2.31
-6.07
-9.79
-12.89
-13.93
-11.78
-6.50
0.76
8.22
13.34
15.56
15.67
14.98
16.81
24.10
38.10
58.22
82.15
105.72
127.22
146.26
163.44
182.05
205.08
233.29
264.40
293.81
315.00
325.84
327.89
309.46
264.71
194.14
105.10
9.17
-71.54
-134.89
-182.39
-214.95
-232.50
-235.29
-222.85
-196.58
-160.50
-121.00
-87.59
-67.19
-64.22
-79.78
-108.77
-141.87
-168.33
-179.67
-172.53
-150.57
-119.83
-87.48
-59.98
-40.20
-30.32
-29.95
-36.75
-47.71
-61.38
-75.81
-88.28
-95.42
-94.12
-82.73
-62.49
-38.01
-15.56
-0.92
3.86
0.75
-5.39
-9.13
-6.83
2.14
15.46
29.45
40.60
47.09
48.61
45.32
36.99
23.08
3.64
-19.70
-43.37
-62.49
-72.77
-72.67
-64.79
-55.18
-51.01
-57.44
-75.29
-100.83
-127.67
-149.72
-163.77
-170.71
-174.58
-180.37
-191.74
-209.51
-231.61
-254.02
-272.12
-281.80
-280.40
-267.15
-243.60
-213.46
-181.88
-154.20
-134.17
-122.61
-116.85
-111.61
-100.99
-80.90
-50.85
-14.13
23.56
56.59
81.79
99.42
112.69
125.93
142.55
163.67
188.20
213.96
238.98
262.26
283.43
301.97
316.52
325.10
326.09
319.42
306.89
291.51
275.84
260.68
244.62
224.95
199.35
167.27
130.26
90.99
51.71
13.40
-24.06
-60.80
-95.92
-127.11
-151.26
-165.71
-169.31
-162.62
-147.56
-126.85
-103.35
-79.73
-58.35
-41.02
-28.67
-21.14
-17.17
-14.79
-11.95
-7.15
0.20
9.72
20.31
30.61
39.50
46.48
51.74
55.86
59.39
62.46
64.60
65.06
63.29
59.38
54.15
48.85
44.72
42.49
42.18
43.13
44.05
43.31
39.23
30.57
17.02
-0.60
-20.50
-40.43
-58.34
-72.87
-83.44
-90.02
-92.85
-92.12
-87.95
-80.40
-69.66
-56.33
-41.50
-26.61
-12.87
-0.73
10.43
21.95
35.12
50.19
66.13
80.93
92.60
100.07
103.40
103.48
101.29
97.53
92.42
86.06
78.62
70.51
62.39
55.07
49.51
46.64
47.11
50.81
56.77
63.28
68.20
69.39
65.13
54.50
37.70
15.98
-8.83
-34.79
-60.56
-86.00
-111.87
-139.12
-167.92
-197.14
-224.79
-249.00
-268.26
-281.69
-288.89
-289.72
-284.34
-273.27
-257.63
-239.07
-219.91
-201.85
-185.56
-170.85
-157.13
-144.00
-131.39
-119.58
-108.97
-100.24
-93.19
-86.50
-78.13
-66.38
-50.81
-32.52
-13.86
6.70
28.23
48.50
65.28
77.43
84.73
87.04
84.35
77.21
66.73
55.42
46.61
43.32
47.57
59.68
78.61
102.53
129.15
154.75
174.27
183.09
179.13
164.35
143.76
123.48
108.45
100.64
98.79
99.71
100.98
102.58
106.60
114.30
123.67
129.41
124.90
105.64
72.00
30.04
-12.04
-43.64
-57.32
-52.95
-37.24
-19.36
-5.40
3.65
10.17
16.39
22.22
25.76
22.92
11.04
-9.35
-34.63
-59.67
-79.61
-91.01
-92.26
-84.10
-69.24
-50.58
-32.06
-17.36
-9.06
-8.06
-13.70
-24.24
-37.77
-52.54
-66.92
-78.73
-85.70
-86.77
-82.87
-76.96
-72.48
-72.24
-74.95
-76.54
-71.64
-55.44
-25.11
19.85
76.65
138.15
193.31
230.47
241.76
227.42
195.43
156.88
120.83
91.21
67.47
47.64
32.64
23.75
23.07
31.19
45.47
60.63
70.81
71.98
63.68
49.24
34.25
24.21
23.67
33.85
51.83
71.36
85.01
86.94
75.13
51.54
20.99
-11.42
-42.50
-71.25
-97.67
-121.02
-139.01
-148.48
-147.26
-135.49
-116.01
-93.41
-72.05
-54.39
-40.56
-29.22
-19.17
-10.74
-5.86
-7.02
-15.67
-30.94
-49.43
-66.32
-77.14
-79.54
-73.93
-62.92
-49.98
-38.04
-28.58
-21.54
-16.04
-11.22
-6.82
-3.26
-1.60
-3.06
-8.65
-18.78
-33.03
-50.15
-68.25
-85.03
-98.12
-105.50
-105.81
-98.65
-84.66
-65.31
-42.62
-18.61
5.00
27.08
47.05
64.84
80.58
94.37
106.08
115.42
122.05
125.87
127.11
126.10
123.04
117.71
109.57
98.11
83.45
66.55
49.14
33.11
19.94
10.27
3.94
0.42
-0.74
0.41
4.06
10.30
18.65
27.98
36.60
42.79
45.30
43.86
39.17
32.66
26.01
20.61
17.27
16.10
16.53
17.44
17.38
14.99
9.31
0.24
-11.36
-23.92
-35.67
-45.21
-51.89
-55.80
-57.46
-57.42
-55.91
-52.78
-47.59
-39.85
-29.39
-16.44
-1.81
13.24
27.23
38.83
47.10
51.54
51.97
48.36
40.88
30.01
16.89
3.27
-8.71
-17.21
-21.32
-21.49
-19.46
-17.67
-18.44
-23.19
-32.06
-43.92
-56.85
-68.80
-78.16
-84.17
-86.96
-87.27
-86.10
-84.28
-82.43
-80.89
-79.86
-79.41
-79.39
-79.42
-78.99
-77.55
-74.70
-70.26
-64.26
-56.90
-48.50
-39.49
-30.49
-22.11
-14.62
-7.78
-0.76
7.50
17.65
29.36
41.20
51.06
57.02
58.14
54.84
48.67
41.67
35.54
31.23
28.85
27.88
27.62
27.36
26.57
24.89
22.22
18.57
14.00
8.47
1.72
-6.60
-16.75
-28.61
-41.44
-53.92
-64.42
-71.51
-74.29
-72.64
-67.18
-58.96
-49.23
-39.07
-29.19
-19.84
-10.81
-1.76
7.51
16.80
25.52
32.76
37.71
39.89
39.23
36.06
30.85
24.23
16.96
10.06
4.66
1.84
2.13
5.31
10.41
16.02
20.72
23.54
24.01
22.12
17.99
11.83
3.81
-5.66
-15.84
-25.54
-33.32
-37.78
-38.01
-33.87
-26.02
-15.72
-4.37
6.86
17.16
25.90
32.53
36.52
37.70
36.58
34.62
33.78
35.71
40.83
47.97
54.82
58.95
58.97
55.04
48.61
41.59
35.45
30.82
27.65
25.60
24.36
23.64
22.97
21.64
18.85
14.10
7.62
0.34
-6.35
-11.14
-13.13
-12.03
-8.12
-2.01
5.37
12.82
18.96
22.38
22.04
17.60
9.54
-0.94
-12.25
-22.82
-31.33
-36.92
-39.18
-38.18
-34.36
-28.54
-21.65
-14.57
-8.01
-2.41
2.04
5.32
7.50
8.73
9.14
8.89
8.02
6.58
4.74
2.98
2.14
3.09
6.32
11.43
17.10
21.51
23.06
21.10
16.03
9.10
1.64
-5.36
-11.46
-16.52
-20.36
-22.69
-23.29
-22.35
-20.56
-18.92
-18.37
-19.39
-21.91
-25.48
-29.62
-33.95
-38.16
-41.94
-44.77
-46.06
-45.28
-42.21
-36.97
-30.02
-21.94
-13.32
-4.69
3.50
10.87
17.19
22.35
26.43
29.57
31.93
33.52
34.21
33.73
31.89
28.66
24.29
19.31
14.37
10.13
7.06
5.36
4.93
5.48
6.58
7.69
8.26
7.68
5.51
1.62
-3.66
-9.58
-15.16
-19.62
-22.67
-24.59
-26.00
-27.52
-29.52
-32.05
-34.93
-37.86
-40.50
-42.39
-42.92
-41.50
-37.71
-31.61
-23.78
-15.18
-6.80
0.64
6.82
11.81
15.84
19.12
21.76
23.66
24.61
24.37
22.76
19.79
15.81
11.40
7.34
4.35
2.89
2.98
4.19
5.79
7.01
7.23
6.05
3.36
-0.77
-6.18
-12.61
-19.69
-26.84
-33.41
-38.80
-42.75
-45.35
-47.04
-48.47
-50.22
-52.68
-55.80
-59.05
-61.51
-62.08
-59.83
-54.30
-45.73
-35.07
-23.68
-12.85
-3.30
4.87
12.06
18.96
26.32
34.63
43.92
53.80
63.64
72.93
81.10
87.56
91.92
94.21
94.79
94.14
92.89
91.89
92.31
94.82
99.21
104.51
109.54
113.20
114.72
114.13
112.50
111.86
113.49
116.66
118.52
115.31
103.77
82.44
52.98
17.68
-16.68
-42.36
-54.61
-53.77
-43.43
-27.09
-7.81
11.21
25.66
31.45
25.64
7.67
-19.09
-45.66
-61.14
-58.63
-38.61
-7.58
26.47
56.64
79.04
91.11
91.97
82.34
64.00
39.28
10.60
-19.49
-49.37
-80.25
-115.26
-157.39
-208.56
-268.91
-336.04
-404.50
-466.16
-501.65
-496.66
-449.24
-371.76
-285.05
-208.09
-150.79
-113.00
-88.23
-71.00
-56.78
-44.66
-35.09
-27.61
-20.16
-10.10
4.65
24.99
50.05
77.00
102.77
126.21
148.28
171.05
195.60
220.65
242.71
257.38
261.00
252.28
233.31
208.66
183.46
161.43
143.96
130.53
119.72
110.13
100.61
90.73
80.39
69.70
58.79
47.86
37.36
27.90
20.19
14.55
10.96
8.84
7.29
5.35
2.26
-2.22
-7.88
-14.13
-20.37
-26.05
-30.90
-35.01
-38.56
-41.89
-45.15
-48.37
-51.19
-53.03
-53.31
-51.59
-47.87
-42.44
-35.95
-28.92
-21.80
-14.88
-8.38
-2.64
2.00
5.20
6.80
6.93
6.12
5.16
4.82
5.63
7.54
10.04
12.47
14.22
15.10
15.44
15.77
16.58
17.96
19.59
20.87
21.23
20.46
18.77
16.70
14.98
14.22
14.82
16.76
19.63
22.86
25.86
28.34
30.34
32.27
34.69
38.15
42.86
48.42
53.74
56.97
56.22
50.07
38.36
22.63
5.66
-9.20
-19.17
-22.92
-20.69
-14.12
-5.44
3.30
10.49
15.26
17.09
15.58
10.68
2.60
-7.78
-18.96
-29.15
-36.85
-41.31
-42.94
-43.01
-42.99
-44.09
-46.74
-50.57
-54.89
-58.99
-62.46
-65.12
-66.77
-67.16
-65.83
-62.49
-57.30
-51.03
-45.14
-41.19
-40.32
-42.84
-47.98
-54.36
-60.47
-65.11
-67.75
-68.38
-67.20
-64.34
-59.80
-53.84
-46.82
-39.54
-32.69
-26.82
-21.94
-17.66
-13.59
-9.42
-5.29
-1.58
1.33
3.26
4.37
5.16
6.17
7.76
10.10
13.15
16.81
20.85
25.06
29.10
32.52
34.90
35.82
34.96
32.35
28.17
22.91
17.23
11.74
6.88
2.89
-0.23
-2.57
-4.45
-6.22
-8.34
-11.15
-14.86
-19.45
-24.55
-29.64
-34.05
-37.38
-39.34
-39.91
-39.20
-37.19
-33.89
-29.28
-23.55
-17.03
-10.01
-2.86
4.31
11.64
19.13
26.90
34.49
41.19
46.02
48.13
47.51
44.86
41.62
39.01
37.30
36.12
34.51
32.20
29.63
27.52
26.42
25.97
24.95
22.12
17.12
10.71
4.47
-0.38
-3.84
-6.97
-11.31
-17.45
-24.61
-31.18
-35.74
-38.07
-38.96
-39.76
-41.51
-44.38
-47.70
-50.30
-51.17
-49.83
-46.33
-40.86
-33.78
-25.34
-16.11
-6.90
1.52
8.50
13.90
17.95
20.95
23.12
24.68
25.84
26.79
27.76
28.81
29.99
31.10
31.89
32.07
31.73
31.20
30.88
31.11
31.83
32.78
33.63
34.11
34.22
33.84
32.90
31.30
29.04
26.47
24.22
22.87
22.69
23.37
24.34
25.06
25.39
25.54
25.75
25.89
25.39
23.41
19.49
13.89
7.58
1.96
-2.02
-4.06
-4.53
-4.28
-3.97
-3.93
-4.17
-4.31
-4.05
-3.30
-2.12
-0.89
0.07
0.62
0.78
0.73
0.70
0.90
1.38
2.11
2.96
3.84
4.79
5.92
7.22
8.55
9.61
10.21
10.31
10.15
10.03
10.39
11.55
13.54
16.16
18.97
21.48
23.31
24.17
23.87
22.35
19.64
15.97
11.63
6.96
2.16
-2.68
-7.66
-12.95
-18.48
-23.99
-28.88
-32.48
-34.38
-34.55
-33.36
-31.41
-29.19
-27.02
-24.97
-22.96
-20.87
-18.54
-15.84
-12.71
-9.20
-5.52
-2.01
1.01
3.36
5.27
7.24
9.74
13.15
17.52
22.60
28.06
33.51
38.53
42.76
45.71
46.99
46.45
44.22
40.91
37.24
33.93
31.43
29.74
28.46
27.06
24.96
21.89
17.72
12.67
7.05
1.17
-4.65
-10.09
-14.94
-19.15
-22.93
-26.70
-30.60
-34.32
-37.02
-37.52
-35.24
-30.37
-24.04
-17.76
-12.58
-8.76
-5.71
-2.64
0.90
4.58
7.54
9.01
8.95
8.17
7.85
9.01
11.94
16.07
20.25
23.32
24.64
24.31
22.92
21.26
19.79
18.57
17.30
15.67
13.55
11.06
8.51
6.24
4.36
2.84
1.41
-0.25
-2.34
-4.83
-7.51
-10.18
-12.74
-15.40
-18.47
-22.11
-26.27
-30.39
-33.73
-35.76
-36.14
-35.03
-32.77
-29.73
-26.13
-22.11
-17.63
-12.70
-7.39
-1.86
3.64
8.80
13.30
16.86
19.31
20.66
21.07
20.85
20.42
20.18
20.34
20.95
21.79
22.57
22.91
22.49
21.23
19.09
16.13
12.37
7.94
3.05
-1.89
-6.28
-9.69
-11.92
-13.12
-13.54
-13.45
-13.03
-12.34
-11.60
-11.31
-12.12
-14.87
-19.84
-26.50
-33.19
-37.40
-36.72
-29.54
-15.79
2.75
23.16
42.19
57.27
67.15
71.75
71.84
68.39
62.47
55.17
47.77
41.51
37.17
34.86
33.83
32.94
31.30
28.72
25.80
23.40
22.25
22.49
23.60
24.97
26.00
26.45
26.25
25.25
23.34
20.17
15.52
9.58
2.85
-3.58
-8.40
-10.70
-10.02
-7.03
-3.23
-0.50
-0.46
-3.69
-9.46
-16.02
-21.32
-23.75
-23.09
-20.52
-18.15
-17.94
-20.71
-25.58
-30.37
-32.67
-30.93
-25.13
-16.48
-6.72
2.80
11.40
19.11
26.32
33.62
42.17
53.56
69.54
91.10
117.54
146.32
173.46
195.17
209.49
217.55
223.33
231.96
246.96
267.84
289.69
304.76
305.90
289.75
258.15
217.13
173.95
134.12
99.86
70.65
45.09
22.60
3.78
-10.54
-20.76
-28.98
-38.39
-52.03
-71.34
-95.80
-123.29
-151.31
-178.10
-203.35
-227.97
-253.27
-279.97
-307.36
-333.28
-354.67
-368.52
-372.91
-367.51
-353.49
-332.87
-307.69
-279.32
-248.38
-215.00
-179.52
-142.96
-106.76
-72.00
-38.83
-6.50
25.86
58.15
88.81
115.44
135.94
149.79
158.02
161.93
161.73
156.18
143.94
125.94
106.45
91.29
84.67
86.13
90.37
90.31
81.52
65.01
46.58
32.96
26.66
25.55
25.08
22.28
18.04
16.43
21.73
35.27
53.99
69.56
73.79
62.56
37.59
4.82
-28.67
-57.59
-79.65
-95.46
-110.73
-130.50
-156.55
-186.46
-215.48
-239.85
-258.52
-273.35
-287.70
-309.68
-346.11
-400.35
-470.36
-549.74
-629.74
-700.98
-755.30
-759.50
-694.60
-563.75
-394.44
-223.15
-77.26
32.55
108.78
159.48
193.00
211.53
216.35
209.67
196.96
184.70
176.15
173.85
178.73
191.15
208.56
229.85
255.31
287.82
327.81
371.30
409.59
431.36
427.02
391.12
332.46
262.17
195.57
146.67
122.96
122.84
137.65
156.03
164.72
156.99
133.08
100.19
67.04
41.16
23.18
10.45
-0.53
-12.57
-26.23
-40.84
-54.29
-64.79
-71.80
-75.58
-76.46
-74.68
-70.29
-63.38
-55.64
-49.71
-48.67
-54.30
-65.58
-78.23
-86.57
-86.22
-75.98
-58.68
-39.45
-23.17
-12.39
-6.54
-3.00
1.09
6.88
14.01
21.04
26.57
30.17
32.27
33.49
33.88
32.98
30.17
25.28
19.09
12.81
7.67
4.42
3.11
3.04
3.44
3.28
1.64
-2.05
-8.15
-16.37
-25.81
-34.97
-42.17
-46.04
-45.75
-41.51
-34.15
-25.09
-15.52
-6.51
1.38
7.87
12.97
16.66
19.06
20.56
21.42
22.25
23.34
24.45
25.36
25.68
25.36
24.58
23.71
22.75
21.75
20.50
18.97
17.64
16.99
17.17
17.61
17.46
15.89
12.66
8.57
4.57
1.59
-0.34
-1.83
-3.60
-5.99
-8.83
-11.61
-13.99
-15.96
-17.62
-19.22
-20.54
-21.16
-20.84
-19.47
-17.50
-15.43
-13.84
-12.68
-11.52
-9.60
-6.15
-1.14
4.82
10.53
14.80
16.93
17.07
16.02
14.71
13.94
13.83
14.10
14.34
14.23
13.76
13.02
12.20
11.44
11.04
11.17
11.88
12.84
13.20
11.95
8.08
1.33
-7.99
-18.79
-29.85
-40.14
-48.86
-55.79
-60.58
-63.03
-62.77
-59.64
-53.91
-46.32
-37.85
-29.48
-21.95
-15.57
-10.39
-6.19
-2.61
0.71
3.94
6.98
9.55
11.37
12.46
13.07
13.70
14.84
16.53
18.45
19.81
19.96
18.52
15.64
11.98
8.35
5.47
3.57
2.45
1.34
-0.70
-4.59
-10.77
-19.10
-28.92
-39.19
-48.98
-57.55
-64.70
-70.68
-76.00
-81.29
-86.99
-93.13
-99.27
-104.45
-107.41
-107.05
-102.76
-94.70
-83.77
-71.13
-57.99
-45.03
-32.55
-20.64
-9.32
1.21
10.58
18.53
24.88
29.50
32.27
32.96
31.63
28.85
25.67
23.36
22.77
24.09
26.74
29.83
32.71
35.15
37.27
39.10
40.38
40.52
39.04
36.04
32.12
28.13
24.62
21.48
18.00
13.39
7.35
0.18
-7.27
-14.12
-19.86
-24.46
-28.01
-30.45
-31.20
-29.36
-24.21
-15.56
-3.96
9.42
23.43
37.14
50.00
61.77
72.14
80.65
86.65
89.57
89.16
85.64
79.69
72.50
65.38
59.59
56.10
55.18
56.53
59.27
62.23
64.46
65.43
64.98
63.38
60.83
57.40
53.06
47.71
41.42
34.46
27.26
20.25
13.65
7.51
1.69
-4.08
-9.94
-16.07
-22.56
-29.35
-36.20
-42.33
-46.61
-47.84
-45.08
-38.20
-27.89
-15.47
-2.55
9.52
19.96
28.55
35.51
41.25
46.12
50.34
53.92
56.69
58.27
58.42
57.05
54.46
51.22
48.00
45.38
43.64
42.88
42.82
43.13
43.33
42.91
41.40
38.40
33.65
27.08
18.96
9.93
0.92
-6.97
-12.95
-16.70
-18.65
-19.86
-21.77
-25.70
-32.55
-42.22
-53.73
-65.30
-74.71
-80.03
-80.02
-74.74
-65.34
-53.71
-41.73
-30.57
-20.54
-11.23
-2.10
7.24
16.54
25.09
31.64
34.88
33.91
28.57
20.01
10.32
2.35
-1.58
-0.50
4.68
11.37
16.39
17.34
13.59
6.31
-2.17
-9.63
-14.97
-18.41
-21.10
-24.24
-28.06
-31.76
-33.92
-33.41
-30.27
-25.56
-20.94
-17.76
-16.42
-16.51
-17.35
-18.61
-20.65
-24.08
-29.19
-35.50
-41.79
-46.28
-47.36
-44.07
-36.14
-24.09
-9.22
6.67
21.35
32.67
39.01
39.76
35.37
27.25
17.46
7.71
-0.47
-6.38
-9.84
-11.08
-10.50
-8.38
-4.73
0.50
7.21
14.85
22.41
28.71
32.65
33.67
31.73
27.11
20.19
11.23
0.50
-11.47
-23.43
-33.55
-39.69
-40.27
-35.20
-26.01
-15.36
-6.27
-1.07
-0.86
-5.63
-14.55
-26.08
-38.29
-48.61
-54.30
-53.18
-44.50
-29.31
-10.37
9.17
26.62
40.60
50.78
57.29
60.13
59.48
55.81
50.23
44.43
40.09
38.41
39.67
43.40
48.33
53.24
56.98
58.74
58.37
55.95
52.01
47.35
42.68
38.58
35.31
32.81
30.73
28.59
25.70
21.54
16.02
9.61
3.34
-1.81
-5.37
-7.83
-10.16
-13.52
-18.18
-23.38
-27.55
-29.19
-27.50
-22.89
-16.70
-10.19
-4.17
1.36
6.91
12.72
18.57
23.75
27.54
29.66
30.40
30.44
30.32
30.15
29.61
28.15
25.52
21.93
18.04
14.73
12.59
11.64
11.21
10.44
8.58
5.38
1.12
-3.59
-7.99
-11.49
-13.72
-14.76
-14.95
-15.06
-16.00
-18.77
-23.99
-31.75
-41.44
-51.88
-61.84
-70.28
-76.83
-81.29
-83.57
-83.44
-80.42
-74.36
-65.53
-54.88
-43.73
-33.39
-24.64
-17.43
-11.12
-4.88
1.78
8.67
15.22
20.67
24.52
26.69
27.39
26.94
25.60
23.49
20.83
18.00
15.63
14.33
14.48
16.09
18.65
21.28
22.89
22.45
19.18
12.78
3.85
-6.02
-14.76
-20.50
-22.21
-20.11
-15.49
-10.16
-5.78
-3.39
-3.46
-6.23
-11.61
-19.22
-28.06
-36.48
-42.46
-44.15
-40.53
-31.76
-18.97
-3.70
12.46
28.49
43.60
57.11
68.48
77.12
82.86
85.98
87.22
87.42
87.38
87.42
87.06
85.45
81.71
75.41
66.84
56.78
46.30
37.24
31.09
28.64
29.86
34.03
40.22
47.43
55.04
62.51
70.73
80.27
91.07
102.11
111.78
118.80
122.44
122.79
120.51
118.10
118.25
123.09
133.32
147.82
163.86
177.49
185.13
175.16
142.24
88.81
25.19
-35.24
-82.55
-113.72
-131.90
-142.34
-149.38
-153.58
-153.78
-149.01
-139.51
-127.19
-113.88
-103.23
-98.36
-101.73
-113.94
-134.31
-160.94
-190.09
-216.15
-229.87
-224.59
-199.32
-159.98
-116.59
-79.26
-54.39
-42.58
-39.42
-38.20
-33.59
-23.03
-7.52
8.80
21.61
26.57
20.48
2.72
-23.60
-52.05
-74.08
-81.61
-69.78
-38.79
5.75
54.65
98.29
129.48
144.60
143.73
129.32
104.69
73.33
38.96
5.30
-23.75
-44.63
-55.22
-55.85
-49.61
-41.30
-35.36
-33.98
-36.33
-39.30
-39.71
-36.26
-30.37
-25.08
-23.04
-24.78
-28.25
-29.95
-26.79
-17.89
-5.33
6.29
11.18
4.40
-16.33
-49.09
-87.57
-122.51
-144.72
-147.94
-130.89
-97.24
-54.28
-11.01
23.28
40.06
33.09
1.11
-50.13
-108.00
-156.68
-183.65
-185.79
-171.28
-156.11
-155.92
-177.82
-216.48
-257.03
-282.19
-280.14
-248.67
-194.40
-128.69
-62.77
-4.63
41.50
74.19
93.65
101.33
99.65
92.31
83.76
78.43
79.39
87.53
101.29
117.30
131.10
138.84
138.65
131.27
119.99
109.18
102.62
102.09
106.87
114.15
120.28
122.46
119.70
113.39
106.40
101.83
101.71
106.14
113.51
121.31
127.29
130.14
129.43
125.13
117.11
105.47
91.21
76.74
65.27
59.39
59.80
65.01
72.13
78.41
82.12
82.51
78.76
68.96
50.53
21.53
-17.45
-62.29
-106.08
-141.27
-162.42
-167.82
-159.81
-143.45
-124.74
-108.89
-99.18
-96.62
-100.20
-107.85
-117.30
-126.63
-134.31
-139.02
-139.48
-134.34
-122.59
-104.12
-80.07
-52.72
-24.88
0.97
23.44
42.79
60.49
78.30
97.25
117.07
136.35
153.45
167.43
178.58
188.11
197.36
206.82
215.84
223.12
227.59
229.23
229.07
228.57
228.65
229.10
228.74
226.07
220.21
211.33
200.49
189.07
178.27
168.76
160.83
154.65
150.47
148.51
148.84
151.14
154.64
158.17
160.48
160.36
156.98
149.90
139.11
124.95
107.91
88.66
67.88
46.36
24.94
4.51
-14.08
-30.14
-43.19
-53.05
-59.79
-63.70
-65.12
-64.41
-61.86
-57.95
-53.12
-47.63
-41.68
-35.48
-29.29
-23.41
-18.07
-13.31
-9.37
-6.40
-4.46
-3.61
-3.99
-5.80
-9.24
-14.30
-20.73
-28.81
-38.61
-49.97
-62.51
-75.98
-90.29
-105.50
-121.49
-137.94
-156.34
-177.62
-201.80
-227.97
-254.99
-282.17
-309.48
-337.34
-366.29
-400.62
-442.55
-490.70
-540.02
-584.12
-618.37
-641.44
-655.24
-663.22
-674.59
-694.40
-721.16
-747.92
-766.78
-773.12
-766.56
-749.15
-723.05
-697.42
-677.78
-664.43
-653.47
-640.56
-624.12
-605.59
-587.58
-521.95
-386.48
-189.03
34.77
244.20
413.99
537.52
619.43
668.22
692.37
690.91
664.59
618.88
563.99
510.87
467.15
436.17
416.83
407.98
400.30
384.79
356.00
314.11
264.39
215.08
175.00
151.29
146.50
153.38
161.94
164.44
158.74
148.12
138.33
131.65
128.83
128.58
126.69
120.64
111.26
102.48
98.92
103.42
115.54
132.06
148.01
157.39
155.95
142.29
117.75
85.40
48.94
11.86
-22.65
-52.19
-75.55
-92.82
-104.95
-113.02
-117.32
-116.89
-109.88
-94.52
-70.66
-40.42
-7.66
23.61
50.58
72.21
88.91
101.56
110.75
116.59
118.99
118.15
114.94
110.70
106.76
103.81
101.45
98.25
92.22
81.77
66.42
47.15
25.97
5.13
-13.87
-30.92
-47.10
-63.80
-81.79
-100.48
-117.88
-131.24
-138.02
-136.74
-127.44
-111.65
-91.66
-69.99
-48.75
-29.20
-11.77
3.60
17.17
28.93
38.74
46.58
52.57
57.24
61.33
65.66
70.82
76.85
83.24
89.01
93.39
95.74
95.82
93.91
90.81
87.61
85.30
84.28
84.28
85.15
86.25
86.67
85.65
82.82
78.43
73.42
68.70
65.69
67.32
75.86
92.48
116.82
147.26
181.75
218.29
254.26
287.68
318.65
346.00
366.98
377.93
375.63
359.64
333.06
300.73
269.95
250.30
247.53
262.12
289.46
322.01
352.87
377.55
393.05
378.14
320.23
216.80
79.00
-71.70
-212.92
-329.05
-405.47
-449.95
-473.21
-481.19
-477.68
-464.98
-444.93
-422.72
-401.00
-380.48
-361.73
-342.72
-319.21
-289.11
-253.08
-214.25
-177.05
-144.93
-120.00
-104.03
-96.31
-93.85
-93.78
-93.45
-90.49
-83.06
-69.63
-50.04
-26.78
-3.40
16.42
29.36
34.11
31.86
25.77
19.58
15.59
13.71
12.78
11.99
11.56
12.93
17.40
24.67
32.47
37.25
36.19
29.07
18.23
7.21
-1.10
-6.09
-9.14
-12.06
-15.60
-18.29
-17.64
-12.09
-2.18
10.14
22.51
33.82
44.92
57.67
74.41
96.04
121.20
147.00
171.03
191.54
207.78
219.56
226.38
228.87
227.85
223.66
216.21
206.35
195.13
184.04
174.84
168.15
165.03
165.43
167.56
161.33
140.43
104.30
59.15
20.43
-6.49
-20.80
-24.46
-22.10
-17.78
-14.20
-13.92
-19.28
-32.12
-53.57
-80.45
-105.75
-120.18
-114.99
-85.09
-33.03
30.80
91.34
133.89
151.05
143.90
120.30
90.64
63.94
44.68
32.94
26.38
22.09
18.76
14.76
8.23
-3.04
-20.76
-45.68
-77.10
-113.01
-150.80
-187.65
-223.86
-260.43
-297.75
-334.30
-366.96
-391.90
-405.59
-405.79
-391.77
-368.24
-341.06
-315.50
-295.11
-282.18
-278.27
-283.99
-298.61
-319.84
-349.11
-387.18
-433.21
-484.04
-535.05
-581.03
-616.64
-637.11
-611.70
-525.40
-383.93
-213.53
-46.91
92.11
194.57
263.29
306.46
332.90
345.39
346.38
338.79
329.77
325.80
329.38
337.92
345.31
345.33
331.49
302.54
264.85
230.11
208.93
205.69
217.29
235.84
253.19
262.50
262.93
257.81
252.39
250.77
254.31
261.70
270.03
276.47
278.59
275.44
267.48
255.90
241.72
225.06
207.01
189.18
173.17
159.55
147.74
136.26
123.34
107.55
88.23
65.80
41.41
16.67
-6.72
-27.55
-45.38
-60.65
-74.63
-88.71
-103.75
-119.84
-136.23
-151.97
-166.27
-179.00
-190.73
-202.57
-215.78
-231.30
-249.75
-271.16
-294.98
-319.86
-343.68
-363.90
-378.56
-386.43
-387.18
-381.09
-368.12
-347.91
-319.39
-281.33
-233.44
-177.96
-118.81
-60.80
-8.27
36.46
72.45
100.65
123.55
144.04
162.97
180.41
195.77
208.08
217.15
221.12
218.13
207.51
190.01
165.76
136.69
105.92
76.15
49.74
23.70
-7.62
-49.71
-106.19
-179.82
-267.95
-362.44
-451.67
-521.74
-565.59
-582.85
-578.41
-540.87
-469.62
-373.56
-268.25
-183.98
-123.31
-82.05
-55.74
-36.44
-20.02
-6.12
6.06
18.00
31.34
49.33
70.92
93.81
116.60
138.74
158.84
177.03
194.70
214.04
238.61
268.13
299.94
330.29
354.67
367.96
367.39
353.23
328.74
299.84
270.71
243.79
219.97
198.81
178.93
159.48
140.48
122.57
106.90
93.38
81.19
69.43
57.50
45.24
33.23
22.36
13.31
6.35
0.99
-3.53
-7.54
-10.74
-12.35
-11.72
-8.75
-4.07
1.21
5.98
9.60
11.86
12.94
13.10
12.65
11.88
11.25
11.21
12.08
13.77
15.79
17.51
18.52
18.86
18.95
19.27
19.95
20.70
20.98
20.33
18.75
16.76
15.24
15.03
16.51
19.39
22.82
25.64
26.90
26.25
24.10
21.49
19.72
19.73
21.75
25.08
28.34
29.88
28.56
24.06
17.35
10.43
5.66
4.89
8.48
14.70
19.53
17.71
4.81
-20.38
-54.26
-88.51
-112.39
-116.46
-96.35
-55.17
-3.18
45.32
76.64
82.12
60.60
18.09
-35.15
-88.32
-133.41
-166.73
-188.53
-201.43
-208.96
-214.72
-221.92
-233.15
-249.03
-267.07
-281.40
-284.46
-270.37
-238.03
-192.26
-141.90
-95.89
-59.21
-31.23
-6.83
20.27
54.04
94.23
136.75
175.55
205.02
221.83
225.55
218.35
204.05
186.70
169.86
156.01
146.78
143.10
145.51
153.96
167.31
183.14
198.17
209.40
215.35
216.69
215.91
216.07
219.42
226.54
236.39
247.06
256.69
263.96
268.14
268.78
265.60
258.68
248.81
237.76
227.89
221.38
219.27
220.98
224.49
227.07
226.28
220.62
209.70
193.97
174.42
152.04
127.81
102.54
76.90
51.44
26.54
2.38
-21.08
-43.99
-66.63
-89.40
-112.69
-136.88
-162.32
-189.33
-218.32
-249.54
-282.68
-316.37
-348.02
-374.27
-391.99
-399.56
-397.57
-388.76
-376.92
-365.37
-355.95
-348.74
-342.65
-336.25
-328.13
-316.72
-299.99
-275.43
-240.71
-194.63
-137.81
-72.63
-2.50
68.95
138.46
203.09
260.19
307.41
343.07
366.56
378.43
379.96
372.64
357.81
336.86
311.54
284.21
257.42
233.30
212.85
195.73
180.71
166.35
151.61
136.12
120.06
103.85
87.91
72.49
57.61
43.10
28.62
13.89
-1.31
-16.90
-32.61
-48.03
-62.75
-76.67
-89.96
-103.04
-116.35
-130.09
-143.91
-157.07
-168.62
-177.81
-184.49
-189.30
-193.57
-199.16
-208.04
-221.96
-241.89
-267.45
-296.55
-325.59
-350.25
-366.93
-374.03
-372.43
-364.91
-354.68
-343.77
-332.27
-318.73
-301.49
-280.02
-255.56
-230.57
-207.42
-187.16
-169.13
-151.47
-132.32
-110.92
-88.19
-66.41
-48.54
-37.44
-35.42
-43.82
-62.46
-89.35
-120.62
-151.35
-177.00
-194.90
-204.96
-209.14
-209.98
-209.02
-206.20
-200.43
-190.87
-177.85
-162.85
-147.40
-131.76
-114.26
-91.56
-59.71
-15.39
42.72
112.87
189.74
264.90
328.75
373.21
394.47
394.13
378.41
355.36
331.61
310.31
290.89
270.40
245.47
214.15
177.06
137.74
102.21
77.82
71.44
87.36
125.77
182.71
251.37
323.85
392.65
451.13
493.48
514.86
512.25
485.80
439.49
380.49
317.08
256.07
200.94
151.95
107.40
65.45
25.39
-11.98
-44.90
-71.58
-90.89
-103.00
-109.16
-111.52
-112.68
-115.28
-121.56
-132.76
-148.88
-168.54
-189.95
-210.89
-229.32
-243.74
-253.63
-259.47
-262.62
-264.68
-267.01
-271.83
-280.27
-291.93
-305.00
-317.06
-326.16
-331.54
-333.72
-333.97
-336.88
-345.59
-360.04
-376.36
-388.32
-390.01
-378.32
-353.96
-320.51
-288.32
-266.12
-257.81
-261.81
-273.31
-287.59
-301.84
-315.14
-326.45
-341.62
-364.77
-396.70
-434.63
-474.04
-510.99
-543.19
-569.91
-555.13
-481.39
-351.66
-189.97
-28.13
110.12
215.30
289.18
332.15
357.66
370.39
372.92
368.29
361.59
358.91
365.57
384.59
415.50
456.95
500.81
540.51
573.09
599.33
621.10
638.08
646.74
641.85
620.47
579.54
521.01
450.97
376.64
303.09
231.94
163.01
97.42
39.71
-5.98
-36.62
-52.85
-59.40
-63.42
-71.28
-85.97
-106.30
-127.80
-146.67
-160.67
-169.51
-173.68
-173.24
-167.28
-154.41
-134.12
-107.54
-78.04
-50.37
-29.05
-16.90
-14.00
-17.89
-24.60
-30.02
-31.13
-26.70
-17.15
-3.89
11.46
27.85
44.81
62.23
79.61
95.74
108.73
116.49
117.69
112.16
101.17
87.22
73.39
62.60
56.66
55.48
57.12
58.50
56.81
50.93
41.85
32.18
24.54
20.10
18.03
16.04
11.88
4.56
-5.34
-16.42
-27.55
-38.50
-49.70
-61.42
-73.00
-82.77
-89.18
-91.52
-90.63
-88.54
-87.14
-87.00
-86.90
-84.31
-76.95
-64.10
-46.92
-28.05
-10.08
5.56
18.77
30.13
40.00
47.97
53.18
55.18
54.46
52.64
51.81
53.44
57.70
63.44
68.86
72.51
73.94
73.62
72.46
70.99
69.12
66.25
61.85
55.86
48.77
41.41
34.37
27.84
21.50
14.88
7.66
-0.13
-8.28
-16.67
-25.36
-34.83
-45.38
-56.69
-67.46
-75.54
-78.60
-75.02
-64.51
-48.30
-28.66
-7.77
12.82
32.60
51.63
69.81
86.51
100.58
111.13
118.16
122.84
127.08
132.60
140.14
149.10
157.92
164.90
169.00
170.31
170.03
169.99
171.99
177.30
186.05
196.95
207.25
213.30
211.55
199.97
178.77
150.63
119.66
89.94
64.23
43.28
26.28
11.69
-1.77
-14.69
-26.98
-38.25
-48.15
-56.58
-63.48
-68.75
-72.24
-73.90
-73.89
-72.47
-69.90
-66.03
-60.14
-51.14
-38.31
-21.91
-3.64
13.81
27.74
36.47
39.94
39.29
36.00
31.11
24.81
16.93
7.58
-2.40
-11.59
-18.67
-23.07
-25.17
-25.90
-26.22
-26.52
-26.69
-26.45
-25.84
-25.32
-25.68
-27.65
-31.37
-36.31
-41.48
-45.90
-49.04
-51.11
-52.80
-55.00
-58.07
-61.72
-65.08
-66.95
-66.43
-63.27
-57.90
-51.43
-45.00
-39.41
-34.89
-31.10
-27.49
-23.59
-19.28
-14.56
-9.65
-4.74
0.00
4.31
7.86
10.20
10.97
10.14
8.07
5.60
3.60
2.63
2.87
4.06
5.87
7.90
9.93
11.64
12.50
11.74
8.57
2.62
-5.64
-14.87
-23.29
-29.38
-32.52
-33.41
-33.83
-35.80
-40.79
-48.82
-58.44
-67.21
-72.68
-73.29
-68.77
-60.01
-48.47
-35.59
-22.65
-10.54
-0.09
7.84
12.85
15.11
15.76
16.42
18.42
22.03
26.41
30.03
31.46
30.36
27.58
24.72
23.35
23.94
25.75
27.27
27.13
24.79
20.95
16.76
13.15
10.27
7.54
4.36
0.72
-2.56
-4.40
-4.26
-3.01
-2.65
-5.38
-12.55
-23.58
-36.34
-48.01
-56.30
-60.07
-59.56
-55.69
-49.40
-41.58
-32.81
-23.68
-14.94
-7.20
-0.63
5.08
10.79
17.31
24.83
32.69
39.40
43.33
43.55
40.37
35.36
30.57
27.71
27.25
28.35
29.45
29.11
26.83
23.05
18.79
14.87
11.32
7.41
2.24
-4.59
-12.57
-20.60
-27.59
-33.21
-38.03
-43.30
-50.18
-58.92
-68.67
-77.70
-84.28
-87.45
-87.36
-84.97
-81.24
-76.45
-70.08
-61.26
-49.57
-35.62
-21.02
-7.79
2.59
9.78
14.62
18.44
22.25
26.15
29.42
31.16
30.91
28.91
25.89
22.56
19.26
15.90
12.29
8.55
5.08
2.30
0.25
-1.54
-3.89
-7.59
-12.92
-19.51
-26.23
-31.79
-35.29
-36.79
-37.46
-39.07
-43.19
-50.35
-59.53
-68.02
-72.71
-71.18
-62.78
-48.77
-31.51
-13.56
3.33
18.45
32.98
48.25
64.83
82.06
98.37
112.30
123.42
132.56
141.11
152.21
167.52
186.38
206.14
223.40
235.80
243.12
247.10
250.19
257.57
272.61
295.63
324.22
354.07
381.06
402.34
416.77
424.34
430.38
440.75
459.89
489.75
528.52
571.30
611.59
643.22
634.40
565.30
432.41
252.47
56.40
-125.88
-276.14
-389.51
-469.92
-525.02
-558.59
-571.68
-570.46
-561.86
-552.55
-546.44
-543.17
-538.91
-528.75
-506.08
-467.62
-414.82
-352.34
-287.52
-226.96
-174.50
-131.17
-96.87
-69.89
-49.86
-38.32
-36.92
-46.32
-64.28
-85.55
-103.48
-112.64
-110.21
-97.58
-79.72
-62.47
-50.31
-44.60
-43.77
-44.91
-45.72
-45.17
-43.72
-42.44
-41.78
-41.40
-40.41
-38.08
-34.49
-30.35
-26.53
-23.37
-20.47
-16.81
-11.45
-4.04
4.93
14.26
22.56
28.64
31.90
32.43
30.82
28.00
24.86
22.14
20.21
19.03
18.26
17.45
16.16
14.13
11.38
8.24
5.24
2.99
1.80
1.57
1.89
2.16
2.17
2.12
2.66
4.54
8.01
12.58
17.02
19.89
20.20
17.80
13.40
8.04
2.65
-2.28
-6.55
-9.94
-11.98
-11.89
-8.99
-3.16
4.84
13.34
20.28
23.85
23.16
18.60
11.72
4.70
-0.42
-2.44
-1.26
2.18
6.72
11.36
15.53
19.04
21.67
23.15
23.23
22.03
20.27
19.13
19.81
23.01
28.61
35.67
42.85
48.94
53.17
55.43
56.19
56.13
56.01
56.43
57.73
60.04
63.24
67.08
71.20
75.16
78.47
80.64
81.56
81.77
82.83
87.05
96.58
112.10
131.83
151.59
166.17
171.44
166.08
151.92
132.72
112.16
92.55
75.02
60.73
52.02
52.04
63.04
84.31
111.30
137.09
155.20
162.48
160.09
152.24
143.60
136.97
132.33
127.88
121.63
112.96
102.77
92.96
85.10
79.66
75.74
71.03
62.35
46.05
19.11
-19.56
-67.90
-120.36
-168.83
-204.61
-220.82
-214.30
-186.49
-143.04
-92.49
-44.31
-6.99
13.67
15.44
-0.16
-28.75
-64.50
-101.63
-135.61
-163.46
-183.67
-196.14
-202.11
-204.41
-206.40
-210.97
-219.00
-229.17
-239.15
-246.98
-252.18
-255.02
-255.31
-251.39
-240.98
-223.57
-202.42
-184.94
-180.08
-194.39
-228.92
-278.67
-335.12
-389.86
-437.20
-474.50
-500.66
-514.40
-513.68
-496.73
-463.67
-417.45
-363.56
-308.49
-257.77
-214.41
-178.33
-147.14
-117.39
-86.04
-51.46
-13.40
27.32
69.58
112.74
156.71
201.78
248.17
295.55
343.10
390.00
436.23
482.69
530.46
579.02
624.90
661.53
680.68
676.53
647.24
595.93
529.16
454.36
378.01
305.28
241.03
190.23
158.32
148.37
159.38
185.56
217.69
245.91
262.54
263.75
248.87
221.62
186.39
147.82
109.89
75.17
44.64
17.73
-6.97
-32.85
-58.56
-84.15
-108.81
-131.41
-151.12
-167.72
-181.70
-193.88
-208.90
-222.42
-233.55
-240.98
-243.54
-241.13
-235.11
-228.26
-224.13
-232.82
-250.79
-280.32
-321.75
-372.57
-427.07
-477.23
-514.84
-534.32
-542.95
-535.55
-518.71
-498.77
-479.28
-460.05
-438.29
-411.31
-326.93
-253.54
-187.34
-134.77
-100.28
-84.48
-83.77
-91.56
-100.48
-104.91
-110.35
-107.82
-98.63
-83.97
-64.10
-38.79
-8.47
24.56
56.05
74.76
84.24
84.51
79.37
75.29
78.80
93.99
120.75
154.94
186.22
213.00
231.78
241.40
243.16
239.58
233.43
226.96
221.55
215.57
209.94
201.56
184.37
152.65
103.49
38.99
-33.88
-105.14
-165.52
-206.89
-225.84
-225.21
-210.21
-187.17
-161.90
-139.30
-122.73
-113.22
-109.52
-109.07
-112.93
-123.18
-142.30
-170.48
-204.38
-237.67
-263.15
-275.81
-256.12
-198.20
-110.01
-10.93
79.36
149.76
198.97
231.08
250.97
262.64
264.13
258.91
252.95
253.11
263.82
284.36
308.91
329.35
338.38
330.92
309.83
283.95
263.39
254.22
256.08
263.92
271.66
275.10
272.99
264.54
248.86
225.73
196.75
166.13
140.22
125.44
125.80
140.35
163.95
189.21
208.71
217.09
212.52
196.53
172.85
146.04
120.28
99.10
84.91
78.53
78.85
83.07
87.55
89.21
86.46
79.37
69.04
56.77
43.43
29.02
12.79
-6.85
-32.15
-65.33
-107.19
-155.40
-203.39
-241.22
-258.40
-247.90
-209.29
-149.45
-80.17
-13.97
39.80
76.85
97.41
104.25
100.55
89.11
72.40
53.14
34.38
18.93
8.56
3.35
1.88
1.49
-0.77
-7.30
-19.31
-36.42
-56.73
-77.51
-96.31
-111.72
-124.01
-134.94
-147.17
-163.74
-187.60
-221.25
-265.89
-320.44
-380.68
-439.54
-488.69
-521.25
-534.40
-530.29
-514.77
-494.49
-473.99
-454.21
-433.25
-408.53
-378.76
-344.79
-308.69
-272.12
-235.16
-196.09
-152.66
-103.31
-48.12
11.25
72.14
131.35
185.49
230.97
264.92
286.25
296.62
300.46
303.15
308.13
314.54
316.76
306.77
278.42
229.95
164.61
88.93
10.12
-65.38
-131.70
-182.95
-213.13
-216.62
-191.17
-139.25
-67.50
15.36
101.14
183.74
258.49
320.75
366.45
392.03
396.41
382.71
357.76
329.96
306.74
291.76
277.48
255.73
220.19
170.19
111.18
50.76
-5.02
-52.78
-91.70
-122.28
-144.18
-156.99
-161.75
-158.82
-149.47
-135.88
-119.82
-102.34
-83.01
-59.29
-28.35
11.47
59.16
110.17
155.30
185.58
195.23
183.92
157.29
124.08
92.66
68.64
53.48
45.46
42.44
42.78
45.25
48.54
50.22
47.23
37.10
18.98
-6.13
-35.15
-64.00
-88.61
-105.58
-112.63
-108.71
-94.20
-71.29
-43.91
-17.03
4.48
17.35
20.84
16.53
7.35
-3.94
-15.64
-27.01
-37.46
-45.97
-50.75
-49.99
-43.52
-33.32
-23.03
-16.34
-15.06
-18.42
-23.69
-27.89
-28.98
-26.66
-21.94
-16.36
-11.15
-6.95
-3.87
-1.88
-0.91
-0.83
-1.46
-2.43
-3.31
-3.74
-3.39
-2.04
0.39
3.75
7.68
11.54
14.60
16.29
16.43
15.27
13.22
10.71
7.86
4.74
1.55
-1.05
-2.01
-0.42
3.99
10.43
17.38
23.36
27.54
30.01
31.46
32.58
33.56
34.07
33.48
31.37
27.66
22.66
16.94
11.24
6.44
3.40
2.72
4.51
8.21
12.67
16.64
19.13
19.66
18.52
16.59
15.16
15.54
18.57
24.22
31.53
38.74
43.76
44.89
41.34
33.47
22.46
9.85
-3.00
-15.02
-25.48
-34.07
-40.96
-46.90
-53.09
-60.79
-70.81
-83.19
-97.12
-111.18
-123.58
-132.58
-136.67
-134.78
-126.48
-112.23
-93.46
-72.56
-52.29
-35.04
-22.13
-13.56
-8.23
-4.39
-0.18
5.94
14.53
24.93
35.35
43.63
48.19
48.71
46.21
42.43
38.85
35.91
32.83
28.38
22.00
14.66
8.94
7.84
13.08
24.04
37.68
49.86
57.21
58.40
54.46
47.98
41.58
36.66
33.26
30.79
29.02
28.41
29.74
33.13
37.67
41.45
42.49
39.65
33.30
25.34
18.51
15.47
17.81
25.55
37.35
50.94
63.89
73.95
79.42
79.12
72.50
59.84
42.33
22.07
1.59
-16.98
-32.67
-45.87
-57.72
-69.05
-79.35
-86.67
-88.40
-82.73
-69.64
-51.20
-30.69
-11.42
4.44
16.14
24.06
28.97
31.43
31.62
29.59
25.68
20.63
15.52
11.25
8.20
6.07
4.09
1.47
-2.16
-6.56
-10.91
-14.34
-16.38
-17.18
-17.41
-17.78
-18.72
-20.25
-22.11
-24.05
-25.96
-27.77
-29.22
-29.78
-28.72
-25.53
-20.39
-14.21
-8.30
-3.80
-1.02
0.72
2.71
6.14
11.53
18.49
26.02
33.03
38.72
42.78
45.19
45.96
44.97
42.05
37.18
30.67
23.19
15.59
8.68
3.02
-1.38
-5.00
-8.76
-13.59
-19.88
-27.33
-34.85
-41.02
-44.65
-45.19
-42.81
-38.07
-31.50
-23.40
-13.99
-3.55
7.26
17.42
25.84
31.67
34.58
34.80
33.08
30.57
28.52
27.91
29.04
31.49
34.44
36.94
38.36
38.46
37.04
33.72
27.71
18.20
4.87
-11.56
-29.32
-45.89
-58.85
-66.61
-69.08
-67.63
-64.49
-62.07
-62.01
-64.72
-69.34
-74.46
-78.92
-82.62
-86.20
-90.44
-95.56
-100.96
-105.32
-107.14
-105.36
-99.52
-90.05
-77.90
-64.18
-49.88
-36.12
-23.80
-13.22
-3.79
6.05
17.56
31.08
46.00
60.93
74.10
84.57
92.75
100.17
108.82
118.82
128.37
134.53
134.46
126.12
109.18
85.14
56.84
28.23
2.16
-19.47
-35.32
-41.10
-33.44
-11.82
20.30
53.27
83.05
108.01
127.37
140.98
148.22
148.15
140.28
124.88
103.14
77.81
51.46
26.86
7.09
-5.01
-7.94
-1.84
11.50
29.38
49.28
68.53
84.93
97.11
104.44
106.69
104.06
97.14
86.99
75.08
62.33
49.20
35.84
22.25
8.46
-5.22
-18.08
-28.85
-35.45
-36.02
-29.49
-16.66
-0.77
13.09
19.64
15.40
0.23
-22.69
-48.56
-73.02
-93.87
-111.26
-126.66
-141.35
-155.47
-168.29
-179.00
-187.66
-195.18
-202.72
-210.72
-218.41
-224.12
-226.05
-223.22
-215.85
-205.15
-192.47
-178.61
-163.47
-146.17
-125.79
-101.85
-74.67
-45.63
-17.14
7.73
25.85
34.92
34.42
25.92
12.82
-0.88
-11.95
-19.02
-22.51
-23.96
-24.90
-25.83
-26.26
-25.09
-21.30
-14.59
-5.35
5.53
16.93
27.78
37.26
44.75
50.01
53.05
54.10
53.42
51.07
46.87
40.34
31.00
18.67
3.83
-12.12
-27.05
-38.63
-45.01
-45.55
-40.92
-32.82
-23.28
-13.86
-5.14
3.06
11.37
20.25
29.55
38.50
45.79
50.06
50.16
45.56
36.57
24.45
11.14
-1.07
-10.24
-15.16
-15.50
-11.64
-4.47
4.83
15.02
24.76
32.82
38.48
41.78
43.49
44.65
46.00
47.57
48.66
48.06
44.52
36.96
24.35
5.84
-19.09
-49.92
-84.74
-120.29
-152.61
-178.00
-194.02
-199.89
-196.52
-186.10
-171.62
-156.49
-144.27
-138.03
-139.87
-150.57
-169.49
-194.79
-224.03
-254.65
-284.27
-310.86
-332.79
-349.03
-359.32
-364.06
-363.98
-359.86
-352.13
-340.87
-325.87
-306.97
-284.42
-258.96
-231.81
-204.40
-177.87
-152.71
-128.67
-104.80
-79.68
-52.23
-22.28
9.09
39.73
67.07
88.58
102.42
107.70
104.70
94.86
80.67
65.34
52.03
42.84
38.22
37.26
38.69
42.04
48.15
58.54
74.33
95.17
119.13
143.66
166.81
187.90
207.05
224.44
239.58
251.23
258.03
259.26
255.47
248.24
239.49
230.76
222.96
216.17
209.80
202.86
194.38
183.82
171.27
157.61
144.26
132.84
124.73
120.62
120.33
122.94
127.14
131.56
135.06
136.94
136.88
134.92
131.27
126.22
120.13
113.35
106.20
98.96
91.84
84.88
77.98
70.97
63.67
56.14
48.62
41.49
35.14
29.69
24.93
20.40
15.55
10.05
4.04
-2.01
-7.44
-11.69
-14.66
-16.77
-18.79
-21.54
-25.56
-30.69
-36.12
-40.36
-41.68
-38.53
-30.05
-16.39
1.30
21.12
40.94
58.84
73.54
84.55
92.18
97.29
100.96
104.04
107.03
109.86
112.02
112.87
111.97
109.45
106.01
102.74
100.55
99.81
100.27
101.12
101.35
100.01
96.38
89.85
79.97
66.51
49.57
29.99
9.25
-10.88
-28.92
-44.27
-57.17
-68.22
-77.68
-85.04
-89.16
-88.93
-83.88
-74.50
-61.68
-46.04
-27.26
-4.19
24.19
57.60
93.49
127.36
154.06
169.57
172.73
165.64
152.83
139.30
128.56
121.28
115.56
108.51
98.01
84.20
69.38
56.79
48.85
46.09
46.98
48.74
48.65
44.92
37.16
26.43
14.63
3.84
-4.14
-8.21
-8.00
-3.90
3.14
11.87
20.82
28.43
33.23
34.30
31.50
25.51
17.57
8.94
0.70
-6.44
-11.86
-14.73
-14.15
-9.49
-0.99
9.97
21.22
30.71
37.29
41.23
43.86
46.66
50.26
54.19
57.11
57.83
55.97
52.14
47.76
44.06
41.51
39.83
38.49
37.29
36.58
37.02
38.95
42.06
45.33
47.35
46.99
44.01
39.02
33.27
28.10
24.43
22.73
22.92
24.69
27.62
31.28
35.20
38.96
42.29
45.14
47.75
50.38
53.10
55.66
57.41
57.70
56.00
52.09
46.12
38.54
30.06
21.70
14.43
8.91
5.15
2.41
-0.49
-4.64
-10.42
-17.20
-23.65
-28.30
-30.32
-29.72
-27.29
-24.06
-20.85
-18.09
-15.87
-14.23
-13.29
-13.14
-13.74
-14.79
-15.77
-16.17
-15.78
-14.72
-13.52
-12.75
-12.86
-13.93
-15.64
-17.46
-18.86
-19.48
-19.28
-18.48
-17.61
-17.28
-17.99
-19.93
-22.93
-26.40
-29.77
-32.55
-34.71
-36.64
-38.92
-41.83
-45.21
-48.40
-50.64
-51.55
-51.34
-50.73
-50.61
-51.53
-53.51
-55.99
-58.21
-59.51
-59.72
-59.04
-57.84
-56.42
-54.81
-52.82
-50.40
-47.68
-45.07
-43.20
-42.41
-42.67
-43.57
-44.47
-44.93
-44.73
-43.95
-42.79
-41.58
-40.47
-39.67
-39.15
-38.67
-38.00
-37.09
-36.04
-35.36
-35.58
-36.84
-38.70
-39.95
-39.14
-35.09
-27.47
-17.00
-5.38
5.17
12.49
14.75
10.81
0.36
-15.94
-36.33
-58.03
-77.76
-92.43
-100.02
-100.15
-93.95
-83.48
-70.91
-57.74
-44.78
-32.41
-21.04
-11.32
-4.05
0.56
2.96
4.29
5.72
7.96
11.02
14.35
17.44
20.29
23.60
28.28
35.00
43.43
52.34
59.88
64.22
64.20
59.59
51.15
40.23
28.60
17.95
9.60
4.04
1.05
-0.45
-1.88
-4.47
-9.12
-16.00
-24.67
-34.01
-42.32
-47.79
-48.82
-44.95
-37.04
-27.36
-18.81
-13.88
-13.66
-17.66
-24.02
-30.42
-34.97
-36.50
-34.76
-29.90
-22.54
-13.63
-4.68
2.35
5.44
3.49
-3.44
-13.76
-24.66
-33.13
-36.93
-34.96
-27.95
-17.67
-6.45
3.57
11.09
15.58
16.97
15.47
11.65
6.35
1.07
-2.36
-2.29
1.90
9.41
18.20
25.67
29.94
30.13
26.47
19.93
11.65
2.70
-5.65
-12.34
-16.35
-17.39
-16.08
-13.74
-11.84
-11.42
-12.50
-14.23
-15.31
-14.31
-10.42
-3.54
5.62
15.68
24.85
31.53
34.76
34.38
31.11
25.91
19.75
13.09
6.21
-0.64
-6.90
-11.48
-13.73
-13.43
-11.37
-9.07
-8.03
-9.02
-11.85
-15.47
-18.57
-20.12
-19.82
-18.01
-15.56
-13.59
-12.93
-14.13
-16.91
-20.37
-23.51
-25.39
-25.71
-24.88
-23.49
-22.15
-21.07
-20.29
-19.64
-19.29
-19.58
-20.70
-22.62
-24.62
-25.77
-25.38
-23.30
-20.11
-17.04
-15.17
-15.13
-17.06
-20.58
-25.05
-29.91
-34.51
-38.11
-40.19
-40.19
-38.32
-35.09
-31.35
-28.04
-25.61
-24.25
-23.63
-23.48
-23.49
-23.21
-22.10
-19.43
-14.95
-9.07
-3.00
2.15
5.64
7.57
8.44
8.56
8.05
6.94
5.63
5.17
6.65
10.43
15.64
20.05
21.24
17.97
10.73
1.95
-5.59
-9.76
-9.79
-6.28
-0.30
6.61
13.39
18.76
21.77
21.83
18.87
13.65
6.98
0.11
-6.27
-11.56
-15.85
-20.14
-25.32
-32.18
-40.25
-48.01
-53.49
-55.04
-51.87
-44.98
-36.82
-30.00
-26.10
-25.00
-25.57
-26.93
-28.59
-29.39
-29.04
-28.32
-28.02
-28.61
-30.26
-32.90
-37.47
-44.68
-52.42
-58.69
-63.39
-66.08
-66.57
-65.22
-63.01
-63.66
-70.51
-81.69
-94.61
-108.56
-122.36
-135.07
-146.32
-156.00
-167.01
-182.02
-197.93
-212.82
-228.21
-245.37
-264.61
-285.05
-286.81
-255.23
-214.39
-177.21
-137.67
-93.57
-43.31
13.33
74.45
136.56
192.37
235.59
267.53
290.59
305.07
311.78
311.40
304.39
291.55
272.02
245.81
217.88
192.25
169.72
150.32
133.65
119.25
107.01
95.74
84.43
74.69
67.24
60.96
55.04
49.38
44.52
41.38
39.64
38.35
37.10
35.12
31.32
25.61
18.92
12.62
7.99
5.51
5.05
6.61
9.99
14.52
19.44
23.59
25.70
24.85
20.69
13.79
5.35
-3.23
-10.73
-16.33
-19.70
-20.99
-20.74
-19.85
-19.24
-19.43
-20.42
-21.52
-21.99
-21.19
-19.13
-16.22
-12.98
-9.67
-6.34
-2.98
0.25
2.86
4.49
4.93
4.40
3.28
1.99
0.66
-0.72
-2.18
-3.71
-5.18
-6.54
-7.80
-8.97
-9.97
-10.49
-10.22
-8.99
-6.90
-4.20
-1.23
1.72
4.47
6.89
8.76
9.94
10.25
9.54
7.88
5.40
2.34
-1.16
-4.81
-8.41
-11.67
-14.36
-16.35
-17.39
-17.55
-17.17
-17.17
-18.77
-22.77
-29.02
-36.23
-42.39
-45.69
-45.20
-41.05
-34.32
-26.38
-18.33
-10.70
-3.36
4.07
11.54
18.26
22.84
23.90
20.66
13.37
3.31
-7.69
-17.91
-26.00
-30.90
-31.49
-26.88
-17.13
-3.91
9.34
18.37
20.05
13.63
1.22
-13.76
-28.49
-41.87
-54.22
-65.91
-76.07
-82.37
-82.05
-73.48
-57.45
-37.08
-16.57
0.38
11.95
18.41
21.48
23.04
24.24
25.05
24.82
23.07
19.98
16.57
14.37
14.62
17.57
22.26
26.94
29.86
30.30
28.58
25.92
23.58
22.21
21.73
21.62
21.49
21.32
21.39
21.83
22.46
22.69
21.92
19.91
16.97
13.90
11.42
10.03
9.52
9.39
8.97
7.80
5.76
3.08
0.24
-2.28
-4.07
-4.99
-5.25
-5.35
-5.88
-7.24
-9.46
-12.18
-14.81
-16.80
-18.05
-18.88
-19.86
-21.50
-23.95
-26.91
-29.82
-32.17
-33.67
-34.46
-34.93
-35.26
-35.29
-34.44
-32.16
-28.34
-23.47
-18.39
-13.85
-10.03
-6.51
-2.72
1.61
6.26
10.79
15.02
19.35
24.48
31.01
38.84
47.14
54.86
61.29
66.46
70.75
74.54
77.82
80.31
81.74
82.00
81.22
79.54
76.99
73.67
69.86
66.09
62.54
58.58
52.22
40.70
21.89
-3.84
-32.80
-59.07
-76.82
-83.07
-78.81
-68.37
-56.92
-48.00
-42.01
-37.08
-31.34
-24.80
-19.60
-18.15
-21.08
-25.82
-27.80
-23.15
-11.01
5.97
22.96
35.52
41.51
41.24
36.83
30.87
25.30
21.31
19.27
18.47
16.74
11.11
-0.90
-19.11
-39.95
-57.85
-68.28
-70.21
-66.72
-63.13
-63.07
-67.15
-72.52
-75.20
-72.95
-66.57
-59.07
-54.07
-53.21
-55.43
-59.04
-62.25
-64.25
-65.15
-65.36
-64.91
-64.32
-64.35
-66.11
-72.17
-84.52
-103.07
-125.35
-147.17
-163.90
-173.28
-175.38
-164.17
-137.30
-96.11
-45.78
5.47
45.58
72.23
87.08
94.43
100.20
109.70
125.87
148.61
174.55
198.48
213.94
215.15
200.28
171.91
134.48
92.26
48.71
6.17
-33.30
-67.28
-94.18
-113.35
-125.28
-131.23
-134.27
-134.29
-129.47
-117.21
-94.98
-62.02
-19.77
27.83
74.42
112.78
138.13
149.00
146.41
132.92
111.57
88.94
68.02
51.89
43.39
44.07
53.12
67.03
81.08
90.98
94.07
89.03
76.43
58.17
34.84
9.83
-12.01
-25.38
-26.35
-13.96
8.66
35.99
61.88
81.50
92.75
95.75
92.03
83.54
71.86
57.83
42.50
27.18
13.37
2.50
-4.84
-9.08
-11.22
-12.32
-13.03
-13.21
-12.54
-11.07
-9.29
-8.03
-7.81
-8.54
-9.68
-10.71
-11.13
-10.21
-6.94
-0.03
11.27
26.07
41.18
51.81
53.78
45.78
30.50
13.10
-0.90
-7.69
-5.81
4.24
20.86
41.62
62.98
79.93
85.93
75.05
44.73
-2.32
-58.90
-115.89
-165.22
-202.03
-221.06
-219.33
-197.45
-159.99
-113.99
-66.63
-23.36
12.48
39.50
57.87
69.00
74.22
74.53
71.08
65.09
57.76
50.18
43.54
39.12
38.24
41.92
50.23
62.54
77.34
92.83
107.41
120.16
131.05
140.29
148.62
155.58
160.31
161.72
158.99
151.97
141.28
128.06
113.25
96.81
77.25
53.53
24.16
-12.31
-57.00
-110.03
-169.85
-232.44
-291.13
-337.62
-363.81
-364.82
-341.05
-298.33
-246.04
-193.94
-149.01
-114.22
-88.98
-70.71
-56.88
-45.68
-35.90
-26.27
-15.34
-1.80
14.81
33.56
52.46
69.20
82.08
90.65
95.72
98.71
101.13
103.92
107.26
110.75
113.62
115.04
114.53
112.09
108.26
104.09
100.64
98.50
97.68
97.44
96.98
95.90
94.53
93.74
94.21
95.80
97.25
96.61
92.14
83.09
70.16
55.10
39.92
26.25
14.86
5.86
-0.99
-6.11
-10.01
-13.44
-17.46
-23.18
-31.28
-41.51
-52.57
-62.74
-70.38
-74.57
-75.48
-74.32
-72.76
-72.27
-73.49
-75.94
-78.48
-79.75
-78.82
-75.64
-71.22
-67.16
-65.12
-65.80
-68.60
-72.11
-74.39
-73.93
-70.51
-65.56
-61.55
-60.96
-64.78
-71.77
-79.53
-84.30
-82.26
-71.23
-52.35
-30.39
-12.57
-5.52
-12.22
-32.32
-60.22
-86.85
-102.98
-103.17
-87.77
-62.94
-38.43
-24.77
-33.70
-71.22
-134.08
-208.84
-276.13
-317.57
-323.27
-295.46
-247.62
-203.03
-181.79
-193.14
-233.29
-290.10
-350.02
-403.76
-447.19
-454.31
-411.58
-322.66
-208.44
-94.44
1.38
71.65
115.64
136.68
140.44
129.73
108.98
84.20
62.20
45.76
37.20
35.64
38.90
45.61
52.56
58.77
65.13
73.66
85.67
100.95
117.59
133.93
150.07
162.51
170.28
174.16
176.10
177.99
180.91
184.84
189.36
194.71
201.21
211.08
227.74
254.33
291.17
333.83
373.29
398.85
403.24
385.48
351.92
312.73
276.74
247.40
222.27
196.26
164.95
128.46
90.19
53.92
21.20
-8.78
-36.75
-60.45
-74.18
-73.65
-58.39
-34.83
-13.94
-5.61
-13.12
-31.28
-49.67
-58.29
-55.20
-45.12
-36.52
-35.88
-43.83
-55.34
-63.67
-69.39
-67.26
-62.70
-59.57
-57.82
-52.93
-38.52
-10.58
29.44
74.41
114.70
140.39
147.21
136.78
115.34
90.49
68.05
50.33
36.24
23.62
9.45
-7.28
-26.19
-46.10
-65.37
-82.35
-95.64
-104.21
-107.17
-105.11
-98.00
-87.43
-76.90
-69.98
-68.14
-70.47
-75.00
-79.76
-83.71
-87.20
-89.29
-88.23
-81.92
-68.67
-47.86
-20.34
11.45
43.57
71.06
88.60
92.53
82.68
62.67
38.39
15.67
-1.76
-12.94
-19.02
-21.52
-21.18
-17.84
-11.24
-2.22
7.03
13.87
16.45
14.70
10.24
5.41
2.05
0.68
0.55
0.32
-1.05
-3.74
-7.18
-10.46
-12.98
-14.68
-15.91
-17.09
-18.22
-18.89
-18.54
-16.90
-14.24
-11.35
-9.11
-8.01
-7.91
-8.09
-7.65
-6.05
-3.32
-0.03
3.07
5.42
6.84
7.53
7.89
8.35
9.22
10.67
12.68
15.03
17.31
19.00
19.63
18.99
17.18
14.70
12.24
10.48
9.89
10.57
12.24
14.29
16.19
17.57
18.45
19.14
20.04
21.49
23.65
26.49
29.87
33.59
37.39
40.84
43.47
44.86
44.89
43.95
42.91
42.72
43.98
46.54
49.40
51.11
50.31
46.41
39.94
32.48
26.18
23.07
24.44
30.33
39.44
49.31
56.98
59.77
56.22
46.61
32.89
17.90
4.26
-6.52
-14.28
-19.70
-23.51
-25.85
-26.21
-24.06
-19.66
-14.48
-11.20
-13.04
-23.25
-44.41
-77.79
-122.38
-174.27
-226.72
-271.61
-301.94
-314.28
-310.09
-294.77
-275.02
-255.64
-237.70
-218.97
-196.18
-167.97
-136.26
-105.71
-81.64
-67.87
-65.61
-73.66
-89.03
-107.62
-124.85
-136.26
-138.42
-129.98
-112.26
-88.87
-64.39
-42.66
-25.65
-13.40
-4.47
2.97
10.51
19.25
29.78
42.35
56.78
72.63
89.19
105.67
121.16
134.43
144.18
149.34
149.65
145.91
139.67
132.79
127.08
124.49
127.19
137.22
155.25
179.08
203.11
219.63
221.74
206.40
175.96
137.27
98.71
66.90
44.77
31.99
27.03
29.11
38.89
57.19
83.16
113.18
141.43
161.93
170.69
167.06
153.58
134.56
114.00
94.20
75.52
57.30
38.89
20.16
1.56
-16.28
-32.79
-47.68
-61.61
-75.40
-89.65
-104.29
-119.23
-134.96
-153.11
-176.16
-206.54
-245.60
-290.98
-335.62
-368.85
-380.11
-363.02
-318.02
-252.03
-176.20
-103.54
-44.60
-5.39
12.90
12.36
-3.13
-28.76
-58.76
-79.74
-81.52
-61.95
-28.92
4.98
29.47
40.08
37.47
25.84
10.23
-6.02
-20.90
-33.26
-42.24
-47.57
-49.37
-50.56
-50.70
-48.60
-43.52
-34.51
-20.46
-0.30
26.11
56.68
86.60
109.59
119.30
111.56
86.91
51.16
13.65
-18.31
-39.06
-48.21
-49.97
-50.88
-56.34
-68.40
-86.08
-107.20
-130.49
-155.97
-184.54
-215.83
-247.33
-274.79
-293.64
-301.12
-296.97
-283.20
-262.64
-237.93
-210.68
-181.54
-150.42
-117.56
-84.07
-51.64
-22.25
2.77
23.12
39.74
54.51
69.50
86.04
104.20
123.25
141.67
158.05
171.65
182.75
192.34
201.54
210.70
218.92
225.42
229.11
229.16
225.56
219.38
212.51
207.06
204.43
205.01
210.28
220.64
234.71
249.37
260.84
266.40
265.91
261.99
259.48
266.93
290.84
332.36
386.30
443.18
493.44
531.60
557.94
577.66
601.35
636.55
682.94
732.25
772.64
794.86
796.49
781.88
728.07
624.54
474.87
297.26
117.61
-41.30
-166.98
-257.79
-320.27
-358.51
-381.49
-395.29
-402.70
-404.36
-399.52
-387.39
-369.34
-351.61
-343.00
-351.87
-383.29
-436.37
-503.00
-569.29
-620.10
-644.42
-640.20
-611.60
-567.03
-514.58
-459.70
-404.28
-347.09
-285.35
-211.08
-133.19
-54.48
18.91
80.24
123.93
146.85
148.82
132.28
101.89
63.85
28.88
7.78
9.23
35.30
79.03
125.87
158.96
165.83
142.49
96.00
38.14
-18.94
-66.65
-101.40
-123.89
-137.56
-147.29
-158.48
-173.61
-191.70
-207.32
-212.65
-201.47
-173.33
-134.57
-96.23
-69.64
-61.62
-73.29
-100.98
-138.47
-178.95
-215.90
-243.26
-256.03
-251.90
-232.44
-203.46
-173.68
-151.71
-142.91
-147.64
-161.86
-178.93
-192.10
-196.34
-188.56
-168.17
-136.30
-95.36
-48.62
0.15
46.78
87.71
120.76
146.77
167.67
185.48
200.71
212.30
218.43
217.86
211.08
200.69
192.42
191.05
198.44
212.62
228.92
242.83
252.60
260.73
273.04
297.96
338.95
391.71
444.54
483.04
496.69
483.34
449.75
394.27
322.37
242.21
162.71
90.61
29.37
-19.79
-56.49
-80.81
-94.23
-97.75
-94.55
-88.42
-82.54
-78.44
-75.72
-73.06
-69.48
-65.24
-59.12
-53.46
-51.12
-54.49
-64.62
-81.02
-102.37
-127.84
-156.73
-187.48
-218.99
-248.12
-269.22
-275.62
-262.54
-229.66
-181.77
-129.29
-77.70
-31.64
5.83
32.52
46.47
46.56
33.92
13.06
-8.66
-22.89
-24.69
-13.83
5.56
27.30
46.12
59.27
66.64
69.44
68.95
65.77
60.13
52.81
45.29
39.19
35.56
34.26
34.01
33.34
31.02
26.93
22.12
18.04
15.71
15.30
16.19
17.44
18.32
18.26
16.93
14.36
10.75
6.35
1.44
-3.92
-9.81
-16.45
-24.01
-32.27
-40.44
-47.31
-51.69
-53.00
-51.52
-48.17
-44.04
-39.80
-35.54
-31.08
-26.28
-21.52
-17.50
-14.97
-14.26
-15.04
-16.44
-17.37
-17.06
-15.35
-12.79
-10.28
-8.75
-8.61
-9.67
-11.20
-12.30
-12.40
-11.55
-10.24
-9.15
-8.75
-8.98
-9.47
-9.79
-9.70
-9.30
-8.91
-8.90
-9.55
-10.85
-12.52
-14.12
-15.32
-16.06
-16.56
-17.14
-18.02
-19.16
-20.36
-21.30
-21.76
-21.83
-21.72
-21.66
-21.74
-21.72
-21.18
-19.73
-17.19
-13.80
-10.00
-6.15
-2.41
1.38
5.49
9.93
14.61
19.28
23.85
28.47
33.25
38.18
43.04
47.59
51.90
56.22
60.80
65.17
67.79
66.47
59.36
45.74
26.67
4.32
-19.17
-42.15
-63.44
-81.26
-92.95
-95.72
-88.19
-72.11
-52.26
-34.38
-22.34
-15.84
-11.07
-3.72
7.67
20.36
29.25
30.41
24.00
14.48
7.77
7.40
12.57
19.28
23.83
25.49
26.86
31.40
40.39
51.34
59.44
60.76
54.69
44.28
33.59
24.78
16.69
5.96
-9.47
-27.85
-43.56
-49.97
-43.52
-26.09
-4.09
14.82
25.53
27.27
23.02
16.70
10.60
4.62
-2.84
-12.95
-25.09
-37.00
-45.86
-49.84
-48.84
-44.35
-38.67
-33.93
-31.29
-30.66
-31.06
-31.10
-29.88
-27.42
-24.49
-22.19
-21.19
-21.32
-21.59
-20.79
-18.19
-13.91
-8.92
-4.46
-1.45
-0.16
-0.20
-0.82
-1.43
-1.70
-1.58
-1.07
-0.05
1.63
3.99
6.66
9.05
10.53
10.73
9.78
8.28
6.91
6.16
6.10
6.32
6.33
5.80
4.80
3.76
3.03
2.70
2.58
2.32
1.76
1.06
0.59
0.59
0.96
1.34
1.46
1.35
1.45
2.07
3.11
4.02
4.12
3.22
1.74
0.55
0.30
0.99
2.06
2.87
3.15
3.19
3.42
3.80
3.88
2.98
0.88
-1.64
-3.30
-2.95
-0.18
4.42
9.68
14.35
17.44
18.37
16.63
11.93
4.34
-5.35
-15.47
-24.02
-29.39
-31.13
-29.93
-27.08
-23.76
-20.42
-16.95
-13.11
-9.07
-5.35
-2.43
-0.34
1.49
3.95
7.81
13.09
19.00
24.33
28.02
29.54
29.16
27.45
25.07
22.35
19.31
16.05
12.90
10.60
9.91
11.13
13.96
17.32
19.92
20.68
19.16
15.64
10.69
4.83
-1.63
-8.33
-14.66
-19.64
-22.30
-21.95
-18.64
-13.17
-6.82
-1.11
2.59
3.32
0.86
-4.36
-11.21
-18.24
-24.09
-27.82
-29.02
-27.87
-25.10
-21.78
-19.21
-18.57
-20.50
-24.88
-30.74
-36.60
-41.13
-43.65
-44.20
-43.16
-40.76
-36.82
-30.97
-23.12
-13.90
-4.49
3.70
9.75
13.42
15.11
15.53
15.19
14.21
12.38
9.42
5.27
0.34
-4.59
-8.63
-10.96
-11.16
-9.23
-5.63
-1.21
2.99
6.03
7.21
6.32
3.81
0.51
-2.56
-4.62
-5.38
-4.99
-3.91
-2.70
-1.90
-1.85
-2.73
-4.32
-6.09
-7.25
-7.09
-5.17
-1.57
3.19
8.48
13.63
18.13
21.51
23.25
22.92
20.36
16.06
10.89
6.02
2.12
-0.71
-2.91
-5.00
-7.06
-8.81
-9.82
-10.09
-9.97
-9.83
-9.54
-8.38
-5.67
-1.56
2.57
4.60
2.87
-2.80
-10.84
-18.83
-24.70
-27.73
-28.42
-27.84
-26.52
-23.97
-19.05
-10.83
0.54
13.65
26.16
35.86
41.31
42.32
39.83
35.28
29.88
24.18
18.06
11.09
3.24
-4.84
-11.91
-16.57
-18.09
-16.80
-14.04
-11.72
-11.44
-13.88
-18.47
-23.72
-28.03
-30.27
-30.07
-27.55
-23.02
-16.48
-7.88
2.57
14.30
26.00
36.18
43.59
47.47
47.54
43.92
37.03
27.63
16.99
6.68
-1.68
-6.86
-8.41
-6.78
-3.02
1.59
5.91
9.16
10.81
10.47
7.86
2.97
-3.60
-10.59
-16.37
-19.49
-19.10
-15.47
-9.65
-3.12
2.69
7.05
9.88
11.58
12.71
13.56
14.10
14.15
13.64
12.81
12.18
12.32
13.57
15.79
18.26
20.01
20.06
18.10
14.48
10.22
6.70
5.05
6.20
10.64
18.39
28.63
39.48
47.97
51.00
46.36
33.96
16.32
-2.42
-17.91
-27.47
-30.80
-29.58
-26.17
-22.37
-18.92
-15.75
-13.00
-11.24
-11.57
-14.54
-19.68
-25.52
-29.87
-31.13
-28.74
-23.43
-16.75
-10.19
-4.82
-1.07
1.09
1.86
1.79
1.65
2.42
5.05
9.82
16.19
22.95
28.46
31.69
32.32
30.74
27.37
22.29
15.23
5.85
-5.70
-18.73
-32.03
-44.46
-55.08
-63.26
-68.57
-70.38
-68.23
-62.18
-53.19
-42.78
-32.38
-23.05
-15.67
-10.84
-9.22
-10.74
-15.12
-21.46
-28.04
-32.65
-33.54
-30.99
-26.81
-23.50
-22.12
-23.00
-25.56
-28.61
-30.53
-30.21
-28.66
-27.83
-29.92
-34.81
-42.17
-50.95
-59.62
-65.54
-65.93
-60.44
-50.71
-40.35
-31.98
-29.43
-35.58
-50.76
-71.32
-82.37
-71.26
-32.06
18.61
68.25
106.75
130.25
134.96
120.63
91.35
53.37
14.31
-19.65
-44.40
-62.44
-80.86
-107.63
-146.53
-195.26
-247.61
-295.14
-329.65
-343.76
-334.68
-304.54
-260.20
-210.81
-165.13
-129.22
-103.78
-84.56
-64.81
-40.83
-13.66
12.59
34.84
53.76
73.14
97.17
127.20
160.92
193.17
219.17
237.32
249.85
260.90
273.35
287.24
299.61
306.28
303.75
290.78
268.80
241.64
213.86
189.18
169.44
154.24
141.63
129.45
116.41
102.63
89.40
78.25
70.10
64.88
61.64
59.05
56.15
52.57
48.57
44.74
41.56
39.04
36.82
34.38
31.48
28.44
26.25
26.25
29.51
36.00
43.81
49.20
47.11
32.66
2.58
-43.45
-102.04
-166.54
-228.37
-279.10
-312.51
-325.96
-320.55
-300.08
-269.53
-233.58
-195.94
-159.17
-124.96
-94.44
-68.12
-45.72
-26.00
-7.16
12.52
33.91
56.68
79.47
100.55
118.33
131.83
140.93
146.07
148.15
147.93
145.82
141.79
135.35
125.93
113.22
97.43
79.47
60.82
43.27
28.52
17.75
11.43
9.37
10.99
15.53
22.20
30.01
37.78
44.14
47.89
48.41
45.98
41.72
37.20
33.83
32.34
32.65
34.07
35.57
36.09
34.79
31.04
24.64
15.96
5.93
-4.06
-12.52
-18.48
-21.72
-22.91
-23.20
-23.73
-25.12
-27.33
-29.84
-31.92
-33.05
-33.01
-31.85
-29.71
-26.63
-22.63
-17.77
-12.24
-6.39
-0.70
4.50
8.95
12.59
15.48
17.71
19.25
20.01
19.83
18.63
16.60
14.17
11.99
10.74
10.77
11.99
13.84
15.60
16.74
17.22
17.38
17.69
18.39
19.28
19.74
18.99
16.25
11.04
3.29
-6.69
-18.12
-29.79
-40.18
-47.72
-51.30
-50.87
-47.59
-43.68
-41.65
-43.28
-49.00
-57.63
-66.89
-74.22
-77.75
-76.70
-71.35
-62.58
-51.38
-38.52
-24.65
-10.40
3.36
15.59
25.30
31.87
35.29
36.23
35.81
35.09
34.80
35.02
35.32
35.13
34.03
32.01
29.38
26.52
23.66
20.81
17.81
14.62
11.36
8.40
6.15
4.83
4.23
3.84
3.13
1.75
-0.15
-2.01
-3.26
-3.46
-2.66
-1.26
0.13
0.97
0.81
-0.61
-3.43
-7.72
-13.36
-20.00
-27.05
-33.81
-39.71
-44.44
-47.81
-49.66
-49.59
-46.91
-40.86
-31.08
-17.86
-2.17
14.72
31.84
49.00
66.72
85.83
106.78
129.00
151.08
171.28
188.18
201.28
210.82
217.24
220.71
220.74
216.32
206.69
191.60
171.28
146.16
116.58
82.55
44.11
1.80
-43.29
-89.16
-133.32
-173.87
-209.96
-241.67
-269.18
-291.26
-304.45
-304.08
-286.00
-249.34
-198.54
-142.46
-90.98
-51.40
-25.98
-9.70
2.88
15.97
29.81
40.52
43.59
38.10
27.49
17.87
15.21
22.70
37.83
57.32
76.28
89.15
92.22
85.03
70.83
55.30
43.89
39.89
43.50
54.51
69.78
85.54
98.11
103.70
98.24
77.75
40.53
-10.47
-67.14
-117.95
-150.89
-157.41
-135.25
-88.67
-26.66
39.99
101.33
149.25
178.20
185.90
173.58
145.71
108.80
69.50
32.62
0.36
-26.83
-48.81
-64.28
-71.43
-69.71
-61.56
-52.18
-47.53
-50.95
-61.16
-72.82
-79.26
-76.22
-64.27
-48.37
-35.00
-28.73
-30.04
-35.65
-40.87
-42.48
-40.20
-36.44
-34.70
-37.20
-43.61
-51.27
-56.51
-56.48
-50.21
-38.82
-24.78
-10.68
1.78
12.09
20.97
29.21
37.18
44.32
49.15
50.11
46.38
38.72
29.29
20.84
15.37
13.23
13.20
13.35
12.37
10.49
9.27
10.28
13.85
18.49
21.31
19.51
11.77
-1.26
-17.28
-33.75
-49.02
-62.63
-75.07
-86.89
-98.14
-108.22
-116.17
-121.19
-122.86
-121.40
-117.31
-111.24
-103.77
-95.06
-85.20
-74.45
-63.64
-54.32
-48.43
-47.15
-49.92
-53.90
-54.64
-47.60
-30.24
-3.21
29.59
61.88
87.16
100.26
98.74
83.29
57.36
26.51
-3.01
-26.21
-41.49
-51.63
-63.03
-82.54
-113.72
-154.41
-197.29
-233.35
-256.49
-266.55
-269.08
-272.00
-281.40
-298.62
-320.63
-342.37
-359.70
-370.93
-376.34
-376.56
-371.25
-358.81
-337.06
-304.60
-261.92
-211.63
-158.02
-105.62
-57.77
-15.37
23.27
61.24
101.16
143.27
185.09
223.00
254.24
278.78
299.13
318.48
338.39
357.76
374.01
385.64
393.84
401.89
412.66
425.76
436.90
439.92
430.51
408.97
380.38
351.79
328.52
311.82
299.01
285.70
268.48
246.41
220.57
192.54
162.71
129.92
91.95
46.72
-6.32
-65.25
-126.20
-184.49
-236.10
-279.01
-313.12
-340.12
-362.84
-384.51
-408.22
-436.18
-468.82
-504.00
-536.84
-560.09
-567.10
-554.53
-523.82
-480.67
-432.55
-385.89
-344.35
-308.65
-276.23
-244.85
-214.06
-184.96
-158.94
-135.78
-113.69
-90.27
-63.53
-29.53
13.55
64.75
120.92
178.26
234.21
287.82
338.89
387.23
437.19
491.15
548.25
604.42
654.55
695.34
726.06
747.50
761.43
776.03
797.10
825.87
858.56
888.71
911.11
922.92
922.64
868.87
739.41
537.19
291.99
43.00
-180.74
-365.88
-511.41
-623.08
-707.18
-762.45
-789.20
-790.68
-772.82
-743.01
-706.31
-665.33
-621.78
-574.98
-518.18
-448.96
-371.25
-294.26
-228.88
-182.20
-148.67
-126.48
-113.12
-102.06
-87.36
-64.99
-33.34
-1.11
27.19
49.42
64.62
74.67
84.62
99.77
124.54
161.19
208.59
263.22
317.57
360.71
383.11
380.24
353.95
312.18
266.06
225.99
199.43
188.37
189.81
199.11
211.86
225.03
236.71
245.53
250.02
249.33
242.70
229.52
209.68
183.41
151.19
113.62
71.61
26.50
-19.46
-63.60
-103.38
-136.81
-162.89
-181.00
-191.01
-193.08
-187.63
-175.22
-156.67
-133.25
-106.81
-82.78
-66.49
-61.51
-68.29
-84.33
-106.16
-130.68
-155.29
-177.00
-192.18
-196.92
-188.37
-167.26
-138.83
-111.61
-94.12
-91.56
-104.23
-127.47
-153.55
-174.88
-186.77
-188.06
-180.16
-165.40
-146.08
-124.17
-100.59
-75.27
-47.37
-16.08
18.82
56.33
94.01
128.60
153.33
162.11
152.31
126.08
88.49
45.03
-0.04
-43.38
-81.97
-113.14
-134.61
-146.26
-149.10
-145.24
-136.94
-125.72
-111.96
-94.98
-73.64
-46.39
-12.22
28.78
73.10
114.95
147.80
166.19
167.77
154.23
130.87
104.48
80.61
61.58
46.74
33.86
21.20
8.64
-2.61
-10.94
-15.72
-17.64
-18.35
-19.14
-20.24
-20.82
-19.63
-16.11
-10.69
-4.68
0.34
3.32
4.00
2.91
1.02
-0.76
-1.64
-1.26
0.36
2.80
5.25
6.93
7.21
6.00
3.74
1.05
-1.42
-3.52
-5.47
-7.70
-10.62
-14.35
-18.85
-23.89
-29.14
-34.32
-39.08
-43.17
-46.29
-48.32
-49.24
-49.04
-47.87
-45.70
-42.50
-38.19
-32.63
-25.91
-18.28
-10.27
-2.50
4.51
10.42
15.24
19.12
22.18
24.51
26.06
26.87
26.96
26.54
25.92
25.30
24.80
24.23
23.25
21.54
18.90
15.54
11.82
8.22
5.14
2.59
0.35
-1.97
-4.79
-8.23
-12.27
-16.58
-20.86
-24.82
-28.13
-30.48
-31.43
-30.67
-28.02
-23.55
-17.69
-10.95
-3.94
2.94
9.47
15.46
20.80
25.23
28.54
30.62
31.52
31.59
31.20
30.72
30.31
29.85
29.21
28.13
26.48
24.32
21.77
19.10
16.45
13.91
11.44
8.84
5.98
2.79
-0.68
-4.25
-7.83
-11.27
-14.68
-18.18
-21.81
-25.57
-29.07
-31.88
-33.49
-33.49
-31.64
-27.81
-22.14
-14.96
-6.82
1.49
9.20
15.60
20.32
23.37
25.04
25.90
26.32
26.57
26.71
26.67
26.55
26.38
26.28
26.21
26.01
25.48
24.44
22.85
20.85
18.53
16.05
13.34
10.36
7.07
3.54
0.01
-3.40
-6.56
-9.51
-12.41
-15.41
-18.67
-22.25
-26.09
-29.89
-33.09
-35.06
-35.16
-33.10
-29.03
-23.32
-16.58
-9.30
-1.84
5.52
12.49
18.60
23.38
26.53
28.18
28.95
29.57
30.74
32.70
35.23
37.84
39.87
40.94
41.10
40.67
40.08
39.63
39.52
39.75
40.18
40.45
40.10
39.40
38.65
38.23
38.53
39.63
41.45
43.55
45.03
45.15
44.44
43.75
43.76
44.94
47.61
52.21
59.50
69.61
81.88
95.43
106.98
111.93
106.48
90.11
66.90
44.22
29.26
27.35
42.14
73.11
116.24
165.26
212.82
252.23
278.66
289.27
271.76
222.06
144.82
52.79
-38.77
-119.60
-187.37
-239.85
-284.28
-324.73
-358.01
-377.69
-377.88
-356.33
-316.90
-267.23
-216.47
-173.14
-141.05
-118.39
-101.55
-87.81
-76.53
-68.61
-64.50
-63.42
-64.80
-68.13
-73.31
-81.05
-90.97
-100.42
-104.55
-98.32
-79.17
-49.32
-14.04
20.94
51.51
76.67
97.99
118.00
138.29
158.54
176.51
189.76
196.75
197.16
191.94
182.82
171.44
158.46
143.49
125.40
103.78
79.82
56.54
37.93
27.34
25.94
32.13
42.42
52.85
60.26
62.50
58.19
46.50
27.14
1.08
-28.96
-58.79
-84.11
-102.49
-114.32
-121.99
-127.74
-131.71
-131.56
-124.17
-108.47
-87.09
-66.37
-53.17
-50.81
-56.22
-60.72
-54.11
-30.34
8.70
53.83
92.14
113.05
113.35
98.31
78.46
64.00
60.37
67.38
82.03
100.58
120.27
139.13
154.83
163.85
162.03
146.50
113.69
67.70
18.51
-22.67
-48.54
-57.90
-54.26
-42.57
-28.34
-16.69
-11.36
-15.37
-30.01
-53.99
-82.85
-109.31
-125.37
-125.13
-106.71
-72.81
-30.82
9.56
39.54
54.37
54.59
44.63
30.22
15.90
3.97
-5.69
-14.27
-22.46
-29.61
-34.11
-34.63
-31.41
-26.38
-22.16
-20.93
-23.33
-28.41
-34.20
-38.67
-40.79
-40.80
-39.73
-38.71
-38.15
-37.51
-35.82
-32.34
-27.20
-21.41
-16.42
-13.38
-12.67
-13.74
-15.67
-17.47
-18.60
-19.01
-19.09
-19.41
-20.44
-22.28
-24.66
-26.79
-27.73
-26.82
-23.96
-19.89
-15.89
-13.07
-11.81
-11.63
-11.53
-10.59
-8.36
-5.07
-1.44
1.55
3.12
2.93
1.09
-1.85
-5.19
-8.24
-10.55
-11.89
-12.17
-11.26
-9.01
-5.48
-1.02
3.56
7.25
9.18
8.86
6.62
3.67
1.64
1.95
5.09
9.94
13.98
14.05
7.64
-5.79
-24.20
-43.49
-59.15
-67.91
-68.98
-64.07
-56.47
-49.46
-45.16
-44.11
-45.35
-46.97
-47.05
-44.30
-38.41
-29.98
-20.16
-10.31
-1.55
5.58
11.34
16.56
22.28
29.19
37.37
46.36
55.30
63.07
68.65
71.33
70.93
68.05
64.07
61.00
60.64
63.50
68.39
72.61
72.93
67.17
55.57
40.24
24.60
11.59
2.63
-2.60
-5.38
-6.91
-7.91
-8.17
-7.32
-5.27
-2.36
0.74
3.40
4.98
4.75
2.11
-3.00
-9.92
-17.15
-22.72
-24.87
-22.59
-16.02
-6.47
3.97
13.08
18.98
20.65
18.16
12.33
4.63
-3.65
-11.57
-18.77
-25.18
-30.86
-35.67
-39.12
-41.02
-41.41
-40.63
-39.32
-38.08
-37.30
-37.05
-37.05
-36.81
-36.02
-34.65
-33.08
-31.89
-31.38
-31.36
-31.13
-29.92
-27.22
-23.29
-18.99
-15.37
-13.14
-12.39
-12.64
-13.24
-13.75
-14.06
-14.41
-15.03
-16.00
-17.24
-18.51
-19.60
-20.29
-20.53
-20.33
-19.85
-19.32
-18.89
-18.55
-18.22
-17.62
-16.50
-14.75
-12.47
-9.92
-7.42
-5.44
-4.51
-4.96
-6.76
-9.26
-11.37
-11.80
-9.60
-4.41
3.44
12.88
22.47
30.74
36.33
38.40
36.86
32.35
26.21
19.98
14.96
11.81
10.30
9.43
8.05
5.43
1.40
-3.48
-8.49
-12.98
-16.57
-19.14
-20.79
-21.61
-21.71
-21.42
-21.21
-21.63
-22.93
-24.58
-25.49
-24.59
-21.29
-15.92
-9.66
-3.75
0.69
3.22
4.23
4.36
3.75
2.53
0.99
-0.67
-2.13
-4.01
-7.44
-12.67
-18.61
-24.10
-27.45
-27.29
-23.72
-18.15
-14.41
-16.98
-28.15
-47.01
-71.91
-99.36
-125.08
-145.71
-159.04
-166.76
-173.11
-181.32
-192.54
-208.85
-230.41
-255.16
-279.36
-297.19
-305.10
-302.46
-289.86
-256.58
-201.83
-132.94
-61.32
-4.71
37.19
74.08
106.28
125.62
127.70
109.84
75.73
36.23
4.86
-5.96
7.30
38.37
76.81
113.60
142.66
164.79
185.89
211.95
245.46
281.22
308.75
318.55
306.13
271.64
221.39
166.16
118.45
89.89
86.47
106.77
142.88
182.36
210.49
215.48
191.91
142.20
75.78
5.36
-56.42
-99.17
-116.41
-106.97
-74.41
-26.36
27.13
75.64
110.19
125.26
119.82
97.12
62.90
23.83
-14.43
-47.54
-72.22
-85.73
-85.34
-69.33
-38.27
3.94
50.22
91.78
120.47
130.76
120.83
92.77
51.77
5.26
-38.58
-72.40
-91.35
-94.22
-83.31
-63.72
-41.42
-21.92
-8.74
-3.03
-3.91
-9.29
-16.80
-24.43
-31.02
-35.82
-38.71
-39.81
-39.39
-38.23
-37.22
-37.22
-38.50
-40.47
-41.71
-40.83
-37.36
-32.12
-26.76
-22.74
-20.73
-20.35
-20.67
-20.72
-20.02
-18.58
-16.57
-14.04
-10.83
-6.69
-1.56
4.16
9.81
14.71
18.43
20.93
22.46
23.46
24.40
25.64
27.21
28.81
29.91
29.89
28.51
25.93
22.70
19.54
16.93
15.08
13.87
13.18
12.95
13.01
13.10
12.71
11.40
9.06
6.02
2.84
-0.09
-2.84
-5.77
-9.17
-12.91
-16.36
-18.73
-19.62
-19.27
-18.43
-17.89
-18.04
-18.81
-19.80
-20.60
-21.08
-21.23
-21.05
-20.44
-19.15
-16.95
-13.79
-9.86
-5.64
-1.90
0.47
0.87
-0.72
-3.38
-5.68
-6.31
-4.87
-2.20
0.03
0.21
-2.17
-6.29
-10.41
-12.75
-12.38
-9.58
-5.51
-1.71
0.51
-0.11
-4.67
-13.87
-27.28
-42.71
-55.79
-60.66
-51.86
-27.16
10.17
51.22
84.00
97.99
88.56
58.86
18.03
-22.92
-55.24
-74.37
-79.04
-69.27
-45.36
-8.72
36.20
80.89
114.29
126.95
115.26
83.52
42.25
3.71
-22.71
-33.39
-30.33
-18.92
-4.76
8.33
19.02
27.69
35.24
41.97
47.27
49.97
49.27
45.37
39.52
33.66
29.33
27.01
25.82
23.90
19.45
11.58
0.84
-11.12
-22.30
-31.33
-37.79
-42.20
-45.37
-47.72
-49.06
-48.72
-46.19
-41.43
-35.14
-28.44
-22.41
-17.67
-14.25
-11.72
-9.59
-7.65
-5.91
-4.61
-3.81
-3.30
-2.57
-0.96
2.13
7.16
14.22
22.76
31.45
38.40
41.57
39.63
32.56
21.82
9.90
-0.66
-8.15
-12.26
-13.88
-14.57
-15.87
-18.61
-22.78
-27.60
-31.82
-34.30
-34.44
-32.29
-28.40
-23.42
-17.52
-10.54
-2.15
7.64
18.28
28.83
38.33
46.25
52.76
58.38
63.58
68.48
72.56
74.95
74.77
71.49
65.29
56.79
47.04
37.04
27.66
19.47
12.75
7.56
3.72
0.84
-1.72
-4.65
-8.39
-12.89
-17.57
-21.54
-24.03
-24.73
-23.86
-22.09
-20.19
-18.78
-18.17
-18.30
-18.72
-18.83
-17.99
-15.81
-12.29
-7.87
-3.27
0.77
3.84
5.93
7.46
9.00
10.91
13.31
16.07
18.92
21.58
23.83
25.41
26.12
25.86
24.66
22.79
20.66
18.85
17.89
18.13
19.51
21.55
23.42
24.06
22.64
18.76
12.66
5.22
-2.44
-9.33
-15.01
-19.57
-23.59
-27.69
-32.25
-37.30
-42.44
-47.05
-50.51
-52.35
-52.39
-50.60
-47.07
-41.87
-35.08
-26.87
-17.68
-8.25
0.51
7.71
12.89
16.09
17.89
19.21
20.86
23.32
26.51
29.84
32.37
33.15
31.62
27.83
22.43
16.63
11.76
8.80
8.12
9.29
11.45
13.65
15.20
15.75
15.28
13.85
11.64
8.73
5.29
1.56
-2.02
-5.02
-7.19
-8.67
-10.06
-12.17
-15.70
-20.83
-27.04
-33.23
-38.00
-40.10
-38.80
-34.11
-26.78
-17.94
-8.89
-0.79
5.46
9.21
10.41
9.68
8.39
8.41
11.39
18.01
27.58
38.04
46.90
52.16
53.08
50.15
44.51
37.15
28.56
18.84
8.21
-2.62
-12.59
-20.70
-26.59
-30.63
-33.65
-36.51
-39.67
-43.10
-46.34
-48.76
-49.80
-49.07
-46.62
-43.02
-39.29
-36.59
-35.70
-36.62
-38.53
-40.15
-40.24
-38.14
-33.96
-28.34
-22.15
-16.09
-10.58
-5.87
-2.00
1.03
3.32
4.98
6.19
7.07
7.67
8.04
8.32
8.61
9.03
9.60
10.33
11.21
12.22
13.33
14.37
15.17
15.68
15.95
16.13
16.29
16.24
15.59
14.01
11.47
8.32
5.01
1.81
-1.44
-5.33
-10.50
-17.08
-24.55
-31.67
-37.26
-40.69
-42.17
-42.57
-42.73
-42.92
-42.69
-41.17
-37.64
-31.95
-24.70
-16.79
-8.93
-1.36
6.08
13.51
20.61
26.59
30.60
32.38
32.43
31.90
31.96
33.16
35.30
37.42
38.59
38.32
36.76
34.52
32.22
30.15
28.24
26.28
24.20
22.20
20.46
18.94
17.24
14.70
10.85
5.74
-0.04
-5.55
-9.98
-13.04
-15.14
-17.03
-19.49
-22.71
-26.28
-29.32
-31.04
-31.06
-29.54
-26.93
-23.49
-19.27
-14.09
-7.91
-1.16
5.33
10.55
13.90
15.41
15.72
15.68
15.86
16.36
16.84
16.93
16.67
16.50
17.06
18.67
21.18
23.89
26.09
27.39
27.89
28.02
28.17
28.31
28.08
26.97
24.74
21.57
18.08
14.83
12.14
9.84
7.40
4.32
0.51
-3.72
-7.89
-11.45
-14.21
-16.23
-17.67
-18.50
-18.38
-16.80
-13.48
-8.83
-3.77
0.36
2.66
3.10
2.52
2.28
3.46
6.38
10.45
14.57
17.78
19.71
20.64
21.21
22.03
23.27
24.92
26.80
28.80
31.03
33.57
36.28
38.52
39.42
38.23
34.69
29.49
24.02
19.78
17.63
17.21
16.95
14.76
8.88
-1.16
-14.30
-28.43
-41.29
-51.22
-57.57
-60.61
-60.98
-59.40
-56.40
-52.36
-47.60
-42.55
-37.67
-33.20
-29.25
-25.73
-22.26
-18.57
-14.44
-9.81
-4.85
0.17
4.84
8.73
11.52
13.18
13.93
14.12
14.08
13.89
13.35
12.14
10.04
7.15
3.89
0.71
-1.96
-4.09
-5.84
-7.58
-9.57
-11.91
-14.50
-17.15
-19.82
-22.52
-25.33
-28.20
-30.85
-32.82
-33.69
-33.13
-31.03
-27.50
-22.73
-16.96
-10.49
-3.70
2.87
8.57
12.76
15.11
15.73
15.04
13.53
11.54
9.22
6.55
3.62
0.58
-2.28
-4.90
-7.41
-10.00
-12.99
-16.18
-19.20
-21.54
-22.95
-23.60
-24.01
-24.84
-26.28
-28.13
-29.73
-30.74
-31.30
-31.97
-33.62
-36.84
-41.83
-48.19
-55.26
-62.31
-68.55
-73.16
-75.19
-73.72
-68.31
-59.14
-47.20
-34.27
-22.10
-12.09
-4.60
0.95
5.37
9.48
13.42
16.85
19.20
20.36
20.84
21.45
22.91
25.13
27.58
29.45
30.21
29.92
29.01
27.92
26.68
24.95
22.14
17.91
12.27
5.61
-1.71
-9.39
-17.55
-26.57
-36.87
-48.77
-61.86
-75.17
-87.03
-95.56
-99.29
-97.50
-90.48
-79.31
-65.61
-50.89
-36.44
-22.98
-10.72
0.41
10.65
20.03
28.29
34.97
39.61
42.09
42.84
42.82
43.10
44.37
46.60
49.14
51.12
52.06
52.08
51.85
51.99
52.59
53.17
52.90
51.14
47.72
42.96
37.33
31.20
24.81
18.13
11.13
3.78
-3.93
-12.02
-20.41
-28.63
-35.82
-40.77
-42.41
-40.27
-34.70
-26.63
-17.11
-6.89
3.69
14.47
25.20
35.26
43.87
50.39
54.57
56.70
57.44
57.52
57.43
57.27
57.03
56.61
56.06
55.53
55.12
54.84
54.45
53.45
51.29
47.49
41.97
35.13
27.71
20.51
14.13
8.73
4.09
-0.12
-4.16
-8.08
-11.89
-15.64
-19.60
-24.18
-29.71
-36.03
-42.44
-47.76
-50.73
-50.34
-46.08
-38.20
-27.50
-15.27
-2.94
8.21
17.27
23.90
28.17
30.54
31.60
31.81
31.55
31.05
30.62
30.54
31.06
32.19
33.68
35.08
36.02
36.42
36.44
36.49
36.78
37.16
37.11
36.00
33.41
29.40
24.60
19.95
16.32
14.08
12.92
12.04
10.39
7.10
1.69
-5.72
-14.59
-24.05
-33.03
-40.45
-45.26
-46.61
-44.02
-37.62
-28.18
-16.99
-5.53
4.93
13.64
20.44
25.50
29.23
31.96
33.96
35.42
36.44
37.14
37.66
38.24
39.19
40.82
43.32
46.54
49.92
52.62
53.88
53.39
51.41
48.62
45.67
42.67
39.08
33.90
26.26
16.00
4.08
-7.67
-17.09
-22.66
-24.15
-23.00
-21.74
-23.11
-28.78
-38.53
-50.17
-60.38
-66.05
-65.58
-59.53
-50.12
-40.43
-33.24
-30.36
-32.28
-38.01
-44.82
-48.28
-43.22
-25.73
4.21
41.12
75.05
95.15
94.49
73.52
40.04
5.75
-19.03
-29.41
-26.79
-16.43
-3.78
8.27
19.62
31.18
42.78
52.45
57.25
55.24
46.91
35.21
24.28
17.43
15.79
17.93
20.92
21.88
19.28
13.42
5.92
-1.13
-6.19
-8.81
-9.64
-9.94
-10.95
-13.25
-16.58
-19.99
-22.26
-22.59
-20.98
-18.16
-15.33
-13.55
-13.28
-14.18
-15.39
-15.85
-14.87
-12.24
-8.29
-3.61
1.12
5.20
8.08
9.32
8.92
7.27
5.26
3.95
4.24
6.57
10.70
15.93
21.26
25.81
28.86
29.91
28.70
25.11
19.40
12.09
4.06
-3.75
-10.51
-15.81
-19.64
-22.26
-24.01
-24.97
-24.99
-23.73
-20.89
-16.49
-10.96
-5.04
0.44
4.72
7.42
8.48
8.28
7.43
6.67
6.61
7.52
9.18
10.89
11.84
11.41
9.52
6.67
3.64
1.21
-0.28
-1.03
-1.62
-2.64
-4.43
-6.99
-10.01
-13.21
-16.38
-19.48
-22.51
-25.41
-28.09
-30.46
-32.42
-33.95
-35.05
-35.70
-35.89
-35.56
-34.62
-32.98
-30.55
-27.26
-23.14
-18.31
-13.05
-7.71
-2.65
1.91
5.80
8.94
11.26
12.62
12.94
12.29
10.91
9.19
7.65
6.73
6.72
7.62
9.08
10.59
11.64
11.88
11.24
9.77
7.56
4.59
0.76
-4.05
-9.77
-16.05
-22.39
-28.27
-33.35
-37.58
-41.02
-43.77
-45.71
-46.58
-46.05
-43.85
-39.87
-34.20
-27.11
-19.00
-10.37
-1.81
6.15
12.98
18.35
22.24
24.81
26.28
26.85
26.56
25.39
23.39
20.66
17.47
14.14
11.05
8.49
6.66
5.58
5.07
4.76
4.03
2.38
-0.50
-4.44
-8.79
-12.77
-15.71
-17.54
-18.69
-20.05
-22.60
-27.02
-33.28
-40.45
-46.99
-51.25
-52.05
-49.14
-43.20
-35.55
-27.59
-20.25
-13.89
-8.37
-3.37
1.33
5.80
9.94
13.61
16.54
18.29
18.19
15.60
10.45
3.34
-4.34
-10.84
-14.60
-14.84
-11.73
-6.28
0.15
6.29
11.24
14.54
16.05
15.90
14.37
11.93
9.04
5.97
2.65
-1.33
-6.33
-12.43
-19.11
-25.44
-30.40
-33.34
-34.16
-33.32
-31.47
-29.12
-26.55
-23.78
-20.74
-17.36
-13.57
-9.29
-4.56
0.39
5.17
9.38
12.79
15.40
17.49
19.46
21.57
23.85
25.99
27.57
28.18
27.54
25.57
22.31
17.96
12.80
7.20
1.51
-4.09
-9.61
-15.19
-21.02
-27.17
-33.67
-40.49
-47.47
-54.23
-60.10
-64.22
-65.67
-63.67
-58.02
-49.20
-38.20
-26.31
-14.55
-3.50
6.69
16.06
24.54
31.79
37.33
40.83
42.26
41.99
40.65
38.85
37.02
35.29
33.54
31.56
29.29
26.75
24.08
21.43
18.83
16.16
13.15
9.54
5.19
0.32
-4.69
-9.38
-13.48
-17.05
-20.44
-24.20
-28.77
-34.32
-40.57
-46.85
-52.15
-55.37
-55.60
-52.35
-45.72
-36.38
-25.42
-13.98
-2.92
7.35
16.81
25.63
34.00
41.88
49.05
55.05
59.44
61.92
62.48
61.43
59.25
56.48
53.50
50.52
47.51
44.40
41.07
37.53
33.81
29.90
25.77
21.24
16.25
10.82
5.26
-0.09
-4.88
-8.97
-12.53
-15.89
-19.47
-23.47
-27.97
-32.84
-37.82
-42.65
-46.97
-50.28
-51.97
-51.41
-48.14
-42.07
-33.59
-23.46
-12.58
-1.75
8.47
17.78
25.91
32.70
37.84
41.07
42.37
42.03
40.72
39.24
38.26
38.07
38.40
38.65
38.08
36.18
32.82
28.35
23.29
18.27
13.75
9.94
6.87
4.43
2.47
0.77
-0.86
-2.63
-4.74
-7.32
-10.37
-13.85
-17.61
-21.53
-25.58
-29.75
-34.05
-38.40
-42.46
-45.70
-47.54
-47.46
-45.20
-40.79
-34.46
-26.53
-17.34
-7.30
3.08
13.04
21.77
28.53
32.88
34.86
34.97
33.98
32.71
31.88
31.91
32.90
34.63
36.63
38.32
39.17
38.86
37.39
35.09
32.34
29.54
26.82
24.10
21.10
17.63
13.64
9.29
4.93
0.89
-2.62
-5.64
-8.48
-11.58
-15.49
-20.53
-26.80
-33.95
-41.27
-47.71
-52.09
-53.45
-51.17
-45.27
-36.40
-25.69
-14.47
-3.99
4.86
11.59
16.19
18.94
20.35
20.95
21.32
21.93
23.07
24.84
27.11
29.50
31.51
32.59
32.39
30.87
28.35
25.34
22.39
19.77
17.39
14.89
11.78
7.74
2.82
-2.65
-8.12
-13.09
-17.30
-20.85
-24.09
-27.56
-31.83
-37.34
-44.39
-52.98
-62.72
-72.78
-81.80
-88.24
-90.80
-88.85
-82.80
-74.03
-64.39
-55.71
-49.14
-45.11
-43.31
-43.11
-43.73
-44.41
-44.45
-43.20
-40.16
-35.24
-28.64
-20.81
-12.21
-2.94
7.35
19.20
32.99
48.49
64.74
80.41
94.30
105.70
114.57
121.29
126.41
130.32
133.22
135.29
136.77
138.05
139.42
140.94
142.28
142.80
141.88
139.00
133.97
126.81
117.60
106.28
92.66
76.47
57.71
36.97
15.69
-4.01
-19.80
-29.71
-32.92
-29.93
-22.52
-13.33
-5.03
0.16
1.07
-2.25
-8.58
-16.01
-22.46
-26.31
-26.88
-24.49
-20.30
-15.77
-12.17
-10.23
-10.06
-11.41
-13.84
-17.02
-20.69
-24.65
-28.68
-32.40
-35.34
-37.10
-37.49
-36.64
-35.17
-33.93
-33.83
-35.67
-39.79
-45.97
-53.42
-61.09
-67.72
-72.29
-74.44
-74.71
-74.39
-74.87
-77.03
-80.83
-85.21
-88.25
-87.70
-81.57
-68.82
-49.92
-26.80
-2.66
18.98
35.29
45.05
48.92
48.94
47.50
46.29
46.05
46.74
48.01
49.84
52.32
55.70
60.11
65.58
71.58
77.38
82.14
85.15
86.48
87.26
89.48
95.02
104.51
115.91
125.24
127.85
120.07
100.05
68.02
26.32
-21.06
-68.10
-107.77
-132.16
-134.79
-113.74
-73.87
-26.33
15.35
39.37
40.42
19.54
-16.37
-58.16
-98.21
-132.22
-158.99
-178.30
-191.32
-199.95
-209.07
-223.85
-247.59
-279.76
-315.03
-345.19
-361.90
-362.09
-336.32
-284.56
-213.98
-135.79
-60.91
3.47
48.08
73.84
83.29
80.15
67.53
49.61
33.02
21.99
18.11
20.28
26.73
34.51
41.43
45.18
45.02
41.69
36.57
31.56
28.31
28.57
32.54
39.66
47.94
55.48
61.08
64.21
65.19
64.55
63.07
60.70
57.20
52.17
45.85
39.14
33.07
28.53
25.71
24.35
23.54
22.36
20.17
16.85
12.80
8.68
5.16
2.67
1.25
0.42
-0.68
-2.81
-6.38
-11.23
-16.82
-22.55
-28.16
-33.94
-40.52
-48.41
-57.52
-67.14
-75.95
-82.53
-85.50
-83.64
-75.96
-61.90
-41.65
-16.57
10.83
37.34
60.00
76.91
87.60
92.83
93.75
91.41
86.42
79.25
70.60
61.56
53.49
47.42
43.80
42.18
41.57
40.77
38.95
35.83
31.67
27.04
22.53
18.54
15.24
12.45
9.80
6.92
3.57
-0.30
-4.50
-8.82
-13.14
-17.49
-21.91
-26.35
-30.59
-34.33
-37.34
-39.66
-41.49
-43.04
-44.32
-45.06
-44.79
-43.13
-40.12
-36.19
-32.05
-28.25
-25.00
-22.08
-19.06
-15.50
-11.11
-5.70
1.07
9.49
19.90
32.34
46.54
61.75
77.03
91.53
104.67
116.12
125.26
131.01
131.79
126.13
113.47
94.66
72.09
48.75
27.14
8.29
-8.32
-23.96
-39.66
-55.45
-70.51
-83.88
-95.27
-105.25
-114.78
-124.36
-133.47
-140.63
-144.06
-142.60
-136.26
-126.15
-113.81
-100.54
-87.00
-73.23
-59.23
-45.20
-31.97
-20.80
-12.95
-9.07
-8.96
-11.57
-15.38
-18.96
-21.25
-21.71
-20.18
-16.73
-11.58
-5.13
1.95
8.79
14.44
18.25
19.98
19.79
18.19
15.76
13.02
10.46
8.54
7.58
7.66
8.54
9.60
10.03
9.10
6.36
1.94
-3.70
-9.84
-15.68
-20.43
-23.29
-23.55
-20.89
-15.57
-8.62
-1.49
4.34
8.02
9.50
9.46
8.88
8.54
8.84
9.81
11.34
13.47
16.36
20.14
