1593118700.00
64.000000
-0.00
-0.00
-0.00
-0.00
-0.00
-0.00
-0.00
-0.00
-0.00
-0.00
0.00
0.01
0.01
-0.00
-0.03
-0.05
-0.05
0.00
0.13
0.36
0.66
1.01
1.37
1.72
2.06
2.40
2.79
3.24
3.80
4.42
5.06
5.66
6.20
6.68
7.15
7.68
8.31
9.14
10.09
11.04
11.88
12.56
13.14
13.76
14.65
15.96
17.91
20.32
22.90
25.38
27.58
29.57
31.68
34.32
37.81
42.54
48.15
54.10
59.83
64.97
69.58
74.14
79.34
85.71
93.76
103.00
112.62
121.73
129.77
136.75
143.30
150.75
157.77
166.64
177.95
191.79
206.97
220.57
228.25
225.36
208.53
176.87
132.76
80.05
23.07
-34.94
-92.44
-149.16
-205.23
-260.37
-313.74
-363.87
-409.83
-450.91
-486.50
-515.74
-537.23
-549.22
-549.96
-538.37
-514.21
-478.67
-433.88
-382.45
-327.02
-269.84
-212.63
-156.66
-102.95
-52.37
-5.90
35.58
71.43
101.35
125.50
144.38
158.69
169.15
176.37
180.75
182.57
182.07
179.51
175.23
169.65
163.18
156.15
148.81
141.30
133.69
126.02
118.33
110.69
103.16
95.80
88.68
81.83
75.25
68.95
62.95
57.25
51.86
46.78
42.03
37.59
33.45
29.61
26.07
22.81
19.83
17.11
14.67
12.48
10.54
8.83
7.35
6.07
4.97
4.05
3.27
2.62
2.09
1.65
1.30
1.01
0.79
0.61
0.48
0.39
0.32
0.28
0.27
0.27
0.29
0.33
0.38
0.44
0.51
0.57
0.65
0.74
0.84
0.96
1.05
1.12
1.11
1.05
0.98
0.94
1.00
1.17
1.43
1.72
1.97
2.12
2.17
2.20
2.29
2.52
2.92
3.47
4.04
4.53
4.86
5.02
5.15
5.43
6.04
7.05
8.37
9.74
10.83
11.43
11.56
11.51
11.75
12.74
14.65
17.22
19.82
21.75
22.53
22.20
21.41
21.13
22.20
24.89
28.59
32.00
33.57
32.24
27.87
21.31
14.03
7.34
1.66
-3.55
-9.55
-17.66
-28.36
-41.21
-55.22
-69.21
-81.70
-90.37
-92.04
-83.76
-64.57
-37.22
-8.22
14.51
25.10
22.70
11.79
-0.38
-7.72
-7.73
-2.16
5.17
11.32
15.92
20.80
28.15
39.09
51.78
63.48
71.61
74.68
72.90
67.90
61.75
55.97
51.17
46.47
40.46
31.53
18.66
2.02
-16.92
-35.76
-51.94
-62.57
-67.99
-69.58
-69.55
-70.08
-72.63
-77.82
-85.45
-94.45
-102.72
-107.20
-103.91
-89.65
-63.87
-29.44
7.60
40.39
63.92
76.84
81.47
82.45
84.17
88.63
94.64
98.31
94.85
80.75
55.36
21.55
-15.12
-48.44
-74.33
-91.47
-101.53
-107.48
-111.70
-115.03
-116.84
-116.37
-113.88
-110.82
-108.83
-108.54
-109.41
-108.63
-103.64
-92.68
-75.81
-54.73
-31.99
-9.92
10.07
27.77
44.15
59.59
74.42
88.35
100.48
109.84
115.69
118.01
117.38
114.81
111.21
107.04
102.30
96.78
90.24
82.67
74.42
65.99
57.93
50.38
43.45
37.29
32.26
28.94
27.99
29.98
34.94
42.15
50.17
57.16
61.55
62.37
59.42
53.09
43.83
32.13
18.16
2.05
-15.90
-35.17
-55.40
-75.87
-96.99
-117.93
-135.97
-146.51
-144.60
-127.50
-96.64
-57.90
-19.77
9.90
27.25
33.04
31.31
27.19
24.26
23.93
26.41
31.89
40.84
53.01
65.98
74.86
73.95
59.65
32.59
-1.46
-34.02
-57.54
-68.30
-67.58
-60.13
-51.35
-44.82
-41.38
-40.07
-39.76
-40.39
-42.87
-48.30
-56.67
-66.54
-75.50
-80.94
-81.42
-77.49
-71.17
-65.21
-61.74
-61.40
-63.35
-66.42
-70.35
-76.12
-85.15
-97.13
-108.51
-113.14
-104.43
-78.84
-38.01
11.49
61.06
103.77
136.51
159.06
171.26
170.70
153.90
120.08
74.86
30.46
0.64
-6.22
7.73
29.92
43.46
35.59
3.50
-45.82
-101.00
-153.28
-199.36
-240.10
-276.45
-306.04
-323.21
-322.46
-302.31
-264.79
-218.67
-174.38
-139.25
-115.12
-99.02
-85.39
-69.60
-49.86
-27.21
-4.72
14.87
30.03
40.54
46.89
50.53
52.43
53.03
52.10
48.77
42.35
32.63
19.82
4.30
-11.85
-26.45
-37.50
-43.70
-44.82
-41.34
-34.38
-25.45
-16.23
-5.62
8.20
27.33
53.36
86.44
125.44
168.17
212.02
254.77
298.50
346.81
403.75
472.16
552.59
643.57
742.71
847.50
934.04
980.78
970.54
896.49
764.97
593.12
403.45
217.97
53.80
-79.87
-178.94
-245.50
-285.07
-304.00
-307.93
-301.62
-289.59
-276.55
-267.20
-262.57
-261.17
-259.62
-254.34
-243.01
-225.67
-204.89
-184.60
-168.96
-159.29
-154.46
-151.46
-146.95
-138.79
-126.70
-112.83
-100.77
-93.67
-94.38
-103.94
-122.08
-147.53
-177.90
-209.17
-236.33
-253.26
-256.48
-246.44
-227.32
-205.45
-186.38
-173.04
-163.08
-152.54
-137.63
-116.74
-90.66
-61.29
-30.49
0.83
31.19
60.18
86.63
108.88
125.05
133.83
135.48
131.59
124.58
116.73
109.97
104.81
100.73
96.61
91.49
85.11
77.89
70.66
64.18
59.24
55.79
53.32
51.07
48.41
45.19
41.59
38.09
35.02
32.87
31.66
31.09
30.73
30.15
29.06
27.26
25.50
22.93
19.36
14.69
8.87
1.96
-5.85
-14.18
-22.60
-30.63
-38.01
-44.31
-49.30
-52.87
-55.08
-56.05
-55.93
-54.94
-53.35
-51.55
-49.72
-48.03
-46.61
-45.51
-44.79
-44.29
-43.94
-43.72
-43.75
-44.06
-44.70
-45.71
-47.10
-48.87
-50.69
-52.44
-54.13
-55.93
-58.06
-60.69
-63.88
-67.55
-71.54
-75.19
-78.15
-80.42
-82.34
-84.38
-86.91
-90.03
-93.47
-96.73
-98.65
-98.55
-96.32
-92.34
-87.15
-80.88
-72.75
-60.61
-46.04
-28.55
-7.80
15.83
41.27
67.06
91.95
115.30
137.29
158.65
181.28
207.02
237.37
272.77
311.73
350.26
382.13
400.39
399.60
378.59
340.48
291.78
239.98
191.15
148.50
112.52
82.25
56.64
35.60
19.20
7.18
-1.44
-7.99
-13.36
-17.49
-19.57
-18.69
-14.30
-6.61
3.85
16.56
31.12
46.80
62.11
74.82
82.64
84.20
79.58
70.15
57.61
43.10
26.94
9.18
-9.53
-27.63
-43.11
-54.57
-62.10
-67.24
-72.09
-77.99
-84.95
-91.42
-95.36
-95.25
-90.96
-83.88
-76.24
-70.33
-67.64
-68.57
-72.41
-77.54
-81.93
-83.57
-81.04
-73.93
-63.11
-50.48
-38.26
-28.16
-20.68
-15.24
-10.76
-6.49
-2.59
-0.01
0.11
-2.74
-8.24
-15.44
-23.39
-31.52
-39.71
-48.03
-56.28
-63.95
-70.36
-75.05
-77.93
-79.11
-78.60
-76.02
-70.60
-61.50
-48.13
-30.57
-9.75
12.60
34.35
53.46
68.63
79.66
87.45
93.40
98.49
102.63
104.50
102.26
94.42
80.56
61.27
37.52
10.03
-20.73
-53.91
-87.47
-117.78
-140.43
-151.76
-150.53
-138.51
-119.89
-99.52
-81.04
-65.89
-53.68
-43.23
-33.94
-26.43
-22.25
-22.56
-26.73
-31.77
-33.26
-27.46
-13.40
6.16
25.55
38.71
41.96
35.69
24.10
13.09
7.64
9.73
18.20
29.86
41.22
49.86
54.84
56.26
54.59
50.32
43.69
34.97
24.85
14.84
7.05
3.57
5.67
13.15
24.17
35.86
45.31
50.64
51.56
49.17
45.24
41.26
37.82
34.69
31.22
26.98
22.16
17.42
13.66
11.53
11.25
12.51
14.79
17.63
20.88
24.71
29.48
35.28
41.49
46.49
47.86
42.97
29.88
7.78
-23.04
-61.58
-106.41
-155.27
-204.58
-249.33
-284.04
-304.26
-308.06
-296.36
-272.01
-238.13
-196.85
-149.07
-95.26
-36.44
25.17
86.34
143.21
191.69
227.53
246.63
245.82
223.99
183.13
128.35
66.76
5.58
-49.69
-96.34
-134.45
-166.08
-193.98
-220.36
-246.01
-269.96
-289.74
-302.22
-304.55
-295.05
-273.67
-242.05
-203.42
-162.16
-123.21
-91.01
-68.30
-55.05
-48.06
-41.84
-30.46
-9.61
22.19
63.66
111.83
163.42
215.34
264.62
308.11
342.82
367.14
382.45
393.30
405.81
424.58
449.79
476.31
495.57
499.24
482.69
446.64
396.04
337.65
277.63
220.22
167.84
121.97
83.53
52.65
28.08
6.87
-15.22
-42.64
-78.48
-122.88
-172.12
-219.19
-255.62
-274.66
-274.61
-260.55
-243.01
-233.86
-240.68
-262.67
-290.52
-310.24
-309.06
-280.45
-225.76
-152.67
-72.00
5.38
70.35
116.20
138.94
137.84
115.68
78.39
33.73
-10.72
-49.19
-78.58
-98.06
-108.52
-112.06
-111.32
-108.89
-106.53
-104.43
-101.15
-94.51
-83.01
-66.78
-47.89
-29.39
-14.04
-3.17
3.56
7.68
10.95
14.62
19.03
23.86
28.42
32.12
34.64
35.88
35.89
34.88
33.26
31.42
29.67
27.95
25.84
22.55
17.17
8.85
-2.70
-16.87
-31.89
-45.07
-53.68
-55.88
-51.58
-42.40
-31.25
-21.36
-15.32
-14.36
-18.13
-24.95
-32.37
-37.86
-39.60
-36.94
-30.60
-22.15
-13.33
-5.33
1.49
7.44
13.01
18.45
23.67
28.33
31.97
34.10
34.15
31.48
25.65
16.42
3.90
-11.42
-29.03
-48.73
-70.98
-96.79
-127.70
-164.89
-208.14
-254.80
-299.74
-336.73
-360.71
-369.94
-366.84
-356.61
-344.37
-332.44
-319.31
-300.88
-273.28
-235.47
-190.13
-142.40
-97.25
-57.17
-21.93
9.95
38.97
63.54
80.87
88.88
88.05
81.99
76.09
75.17
81.49
94.38
111.09
128.48
144.58
159.17
173.02
186.72
200.20
213.15
225.65
238.41
252.36
267.83
283.58
296.78
303.75
301.30
287.80
263.43
229.80
189.04
143.25
94.71
46.33
2.23
-32.89
-55.08
-62.85
-57.94
-44.97
-29.93
-18.25
-13.30
-15.55
-23.05
-32.40
-39.97
-42.81
-39.53
-30.38
-16.99
-2.17
10.39
16.12
10.43
-9.85
-44.73
-89.62
-135.38
-170.35
-184.04
-170.99
-133.08
-78.89
-20.57
30.33
66.10
83.83
84.52
71.20
47.65
17.81
-14.05
-43.38
-65.74
-77.38
-75.97
-61.04
-34.38
0.10
36.90
70.21
95.57
111.36
119.08
122.31
124.61
127.62
130.40
130.29
124.78
113.24
97.38
80.42
65.54
54.70
48.06
44.57
42.69
41.15
39.33
37.19
35.02
33.01
31.06
28.72
25.39
20.70
14.77
8.31
2.30
-2.31
-4.93
-5.51
-4.53
-2.74
-0.93
0.39
1.22
2.01
3.56
6.48
10.89
16.16
21.10
24.42
25.13
23.00
18.44
12.29
5.29
-2.03
-9.35
-16.36
-22.63
-27.75
-31.54
-34.26
-36.29
-37.86
-38.46
-36.78
-31.10
-20.20
-4.20
15.16
34.77
51.20
61.80
65.58
63.34
57.21
49.50
41.51
32.91
21.93
6.50
-14.28
-39.17
-64.98
-87.88
-104.99
-115.51
-120.51
-121.78
-120.45
-116.38
-108.68
-97.03
-82.76
-68.82
-58.69
-54.73
-57.13
-63.78
-71.32
-76.53
-77.60
-74.51
-68.72
-62.30
-57.04
-53.90
-52.76
-52.49
-51.39
-47.85
-40.99
-31.17
-20.20
-10.78
-5.66
-6.43
-12.85
-22.75
-32.71
-39.36
-40.54
-36.01
-27.05
-15.35
-1.99
12.80
29.02
45.83
60.98
71.58
75.63
73.40
67.41
60.95
56.22
53.76
53.33
55.52
62.24
75.43
94.68
115.80
131.79
136.43
128.02
110.85
93.20
82.88
83.14
91.26
100.63
104.56
99.63
86.46
68.11
47.70
26.74
5.01
-18.05
-41.71
-63.34
-79.03
-85.37
-81.26
-68.64
-51.80
-35.64
-23.65
-16.75
-13.34
-10.61
-6.23
0.39
7.74
12.93
12.92
5.52
-10.01
-33.13
-62.49
-96.00
-130.49
-161.40
-183.05
-189.97
-178.93
-150.72
-110.69
-67.22
-29.03
-2.35
10.74
12.19
6.34
-2.17
-10.04
-15.92
-20.44
-25.76
-35.00
-51.37
-76.97
-111.48
-151.48
-190.99
-223.14
-242.29
-245.48
-232.96
-207.10
-170.75
-126.19
-75.18
-20.04
35.20
84.74
122.48
144.42
150.44
144.53
133.10
122.41
116.32
115.51
118.29
122.37
126.28
129.85
133.57
137.51
140.68
141.30
137.70
129.27
116.81
102.27
87.84
75.15
64.89
56.89
50.61
45.58
41.60
38.63
36.62
35.29
34.30
33.49
32.95
32.95
33.70
35.02
36.39
37.06
36.36
33.97
29.99
24.90
19.35
14.10
9.95
7.51
7.14
8.74
11.70
15.14
18.07
19.80
20.11
19.10
17.07
14.34
11.22
8.15
5.67
4.34
4.43
5.69
7.23
7.92
6.82
3.64
-1.03
-6.05
-10.12
-12.30
-12.21
-10.14
-6.75
-2.82
0.92
3.99
6.23
7.70
8.63
9.29
9.84
10.26
10.39
9.97
8.92
7.33
5.53
3.96
2.96
2.75
3.32
4.51
6.01
7.46
8.46
8.63
7.78
5.89
3.24
0.29
-2.47
-4.55
-5.70
-5.81
-5.05
-3.81
-2.66
-2.26
-3.06
-5.00
-7.47
-9.41
-9.67
-7.56
-3.14
2.71
8.69
13.53
16.51
17.62
17.47
16.83
16.27
15.96
15.70
15.22
14.48
13.73
13.38
13.68
14.45
15.15
15.11
13.98
11.94
9.64
7.87
7.16
7.56
8.69
9.99
11.01
11.55
11.65
11.45
11.11
10.62
9.92
8.85
7.31
5.28
2.93
0.64
-1.05
-1.55
-0.40
2.57
7.19
12.96
19.18
25.09
29.99
33.23
34.39
33.33
30.46
26.84
24.08
23.80
27.02
33.66
42.49
51.59
59.11
63.86
65.56
64.59
61.61
57.20
51.90
46.36
41.61
38.84
39.09
42.79
49.67
58.87
69.50
81.14
93.74
107.13
120.32
131.10
136.37
133.17
119.87
96.99
67.13
34.08
1.59
-27.76
-53.05
-74.64
-93.43
-110.06
-124.29
-134.94
-140.45
-139.62
-132.53
-121.00
-108.28
-97.95
-92.53
-92.46
-95.89
-99.51
-100.00
-95.40
-85.78
-73.11
-60.52
-51.49
-49.09
-55.35
-70.73
-93.83
-121.64
-150.55
-177.63
-201.73
-223.88
-246.97
-274.64
-309.62
-352.21
-399.30
-444.49
-479.58
-496.94
-492.08
-465.12
-420.72
-366.22
-308.86
-253.73
-202.96
-156.64
-114.19
-75.38
-40.31
-8.76
20.35
48.67
77.47
106.94
135.98
162.70
185.37
203.62
218.81
233.99
252.33
275.04
299.82
320.88
330.93
324.52
301.17
266.24
230.13
203.89
195.20
206.11
233.72
272.84
317.84
363.95
405.86
438.18
455.10
452.08
427.79
385.28
331.35
273.19
216.36
162.04
109.96
59.85
13.77
-23.55
-46.22
-49.59
-33.53
-1.56
27.89
37.48
18.22
-24.30
-74.90
-119.50
-145.96
-158.47
-162.80
-162.84
-157.73
-143.96
-119.37
-83.40
-38.23
12.23
62.90
110.34
151.41
184.50
208.22
221.08
221.50
208.45
182.79
147.36
107.91
70.55
41.02
22.48
14.76
14.35
15.49
12.41
0.94
-19.56
-47.15
-77.61
-106.33
-129.61
-145.60
-154.51
-158.29
-160.09
-163.23
-170.31
-181.17
-192.27
-197.36
-189.75
-165.59
-126.14
-78.61
-33.91
-3.52
5.27
-8.99
-42.80
-90.24
-145.20
-202.43
-257.48
-305.94
-343.89
-367.10
-373.13
-363.45
-343.67
-321.49
-303.36
-291.57
-283.44
-273.59
-254.38
-219.49
-166.57
-98.43
-21.84
54.30
121.26
178.42
220.08
242.66
249.13
247.89
246.77
248.69
251.52
251.93
247.39
238.13
227.34
217.32
208.13
197.74
183.90
165.10
142.52
119.91
99.62
84.00
73.37
66.69
63.00
62.28
63.18
65.57
67.35
66.15
61.84
54.43
43.73
29.57
11.97
-11.69
-41.75
-79.37
-124.40
-161.97
-180.14
-176.26
-157.74
-134.82
-130.40
-144.16
-170.57
-203.35
-238.22
-265.08
-281.98
-290.61
-275.68
-231.24
-159.35
-72.66
15.02
94.98
157.50
203.30
231.89
242.81
234.08
207.58
166.09
114.06
59.22
9.16
-31.05
-60.63
-81.39
-98.21
-113.84
-129.68
-144.13
-152.75
-150.37
-133.02
-100.22
-55.18
-5.98
38.42
70.68
88.35
94.28
93.79
91.65
89.71
87.45
82.94
75.41
65.85
56.95
51.48
50.63
53.47
57.37
59.39
57.74
52.25
44.42
36.73
31.51
29.98
31.82
35.25
37.87
38.05
35.16
29.84
23.65
18.37
15.16
14.40
15.89
19.07
23.44
27.36
27.80
20.76
2.87
-26.70
-64.88
-105.12
-140.57
-164.61
-174.22
-170.16
-155.54
-133.77
-107.15
-76.76
-42.72
-7.48
26.32
55.93
79.55
97.03
109.64
119.28
127.59
135.08
141.17
145.27
146.91
146.19
144.24
142.17
140.84
140.22
139.12
135.25
126.80
112.69
93.20
69.81
44.62
19.68
-3.39
-24.40
-43.98
-62.58
-80.12
-95.77
-108.12
-116.07
-119.66
-119.22
-116.38
-113.14
-111.13
-111.57
-115.20
-121.92
-130.37
-137.40
-138.39
-129.09
-107.49
-75.39
-38.37
-3.88
21.77
35.80
39.52
36.84
31.75
26.52
21.46
15.80
9.13
2.16
-3.70
-7.37
-8.93
-9.74
-11.62
-16.09
-23.47
-32.83
-42.44
-50.60
-56.46
-60.40
-63.89
-68.71
-76.08
-86.14
-97.70
-108.68
-116.79
-120.46
-119.12
-113.19
-103.94
-91.89
-77.01
-58.68
-36.22
-9.36
20.83
52.00
80.94
104.68
121.41
130.98
134.85
135.41
135.48
137.46
143.25
153.97
169.42
187.29
203.04
211.01
205.16
184.58
153.23
118.51
88.31
67.77
57.49
54.09
52.64
49.76
43.90
35.26
24.83
13.57
1.94
-9.62
-20.28
-28.93
-34.79
-37.74
-38.82
-39.73
-42.00
-46.47
-53.12
-61.04
-69.07
-76.34
-82.58
-88.51
-95.64
-106.00
-121.20
-141.25
-163.40
-182.11
-190.96
-185.28
-164.97
-135.05
-104.15
-81.16
-71.80
-76.80
-92.80
-114.21
-135.89
-155.36
-172.93
-189.08
-203.25
-213.45
-217.23
-212.55
-199.06
-177.62
-150.58
-120.61
-89.97
-59.87
-30.44
-1.29
28.37
58.37
88.60
117.96
145.19
169.55
191.53
213.21
233.54
253.24
273.37
296.69
325.67
361.55
402.92
445.03
480.42
501.22
502.59
475.61
420.84
346.63
265.73
190.02
126.28
75.39
34.84
1.76
-26.03
-48.21
-64.64
-76.05
-84.05
-90.15
-95.14
-98.58
-99.63
-98.19
-94.20
-89.17
-85.59
-85.04
-86.09
-83.96
-71.82
-44.28
-2.81
45.93
91.13
121.91
131.53
119.99
90.13
52.21
15.23
-16.39
-42.23
-64.46
-85.23
-104.72
-120.90
-131.07
-132.83
-126.66
-115.79
-104.08
-94.59
-88.19
-84.40
-82.85
-85.60
-95.88
-116.58
-146.25
-177.13
-197.78
-198.50
-178.62
-144.46
-108.60
-82.62
-71.26
-69.72
-67.40
-55.28
-31.92
-4.45
16.63
23.97
18.79
10.13
9.33
22.46
46.21
69.27
79.16
70.15
46.48
20.68
6.32
10.35
28.97
49.92
59.75
51.58
29.16
4.40
-9.54
-5.80
12.52
34.05
45.69
40.28
20.26
-3.40
-17.53
-14.11
5.58
31.45
50.31
52.73
37.43
12.22
-9.94
-18.06
-8.94
11.03
29.87
36.73
27.87
9.01
-8.45
-14.03
-4.52
14.02
29.82
32.26
18.06
-6.50
-29.00
-38.01
-29.52
-9.50
9.44
15.38
3.80
-19.87
-43.31
-54.65
-49.19
-32.21
-15.38
-9.80
-19.19
-37.55
-52.78
-53.90
-37.76
-11.11
13.31
24.10
17.58
0.07
-15.86
-18.76
-4.58
20.75
44.74
55.51
48.12
27.63
6.15
-3.83
3.60
24.27
46.43
57.37
50.86
30.70
8.43
-3.53
0.71
17.18
34.70
41.82
33.74
15.26
-2.25
-7.94
1.95
21.56
38.86
42.67
29.43
5.71
-15.34
-21.51
-8.65
16.64
40.19
48.02
34.15
4.36
-26.85
-44.04
-39.36
-17.14
8.89
23.34
17.88
-4.23
-30.52
-46.95
-46.51
-33.25
-20.04
-20.32
-40.02
-73.29
-105.59
-121.79
-114.44
-87.81
-54.60
-28.96
-18.93
-23.32
-33.89
-41.25
-40.11
-31.31
-19.90
-9.23
0.37
12.22
30.43
56.81
89.00
121.87
150.66
171.61
182.59
182.81
172.95
153.11
124.10
86.56
40.84
-12.01
-69.33
-125.79
-174.18
-207.30
-221.14
-216.40
-198.28
-173.85
-148.82
-125.67
-103.74
-81.45
-58.33
-36.53
-19.70
-11.17
-11.59
-19.78
-33.31
-49.75
-67.94
-87.80
-110.31
-135.89
-163.79
-192.09
-218.30
