1594320348.00
64.000000
-0.00
-0.00
-0.00
-0.00
-0.00
-0.00
-0.00
-0.00
-0.00
-0.00
0.00
0.01
0.01
-0.00
-0.03
-0.05
-0.05
0.00
0.13
0.36
0.66
1.01
1.37
1.72
2.06
2.40
2.79
3.24
3.80
4.42
5.06
5.66
6.20
6.68
7.15
7.68
8.31
9.14
10.09
11.04
11.88
12.56
13.14
13.76
14.65
15.96
17.91
20.32
22.90
25.38
27.58
29.57
31.68
34.32
37.81
42.54
48.15
54.10
59.83
64.97
69.58
74.14
79.34
85.71
93.76
103.00
112.62
121.73
129.77
136.75
143.30
150.75
157.77
166.64
177.95
191.79
206.97
220.57
228.25
225.36
208.53
176.87
132.76
80.05
23.07
-34.94
-92.44
-149.16
-205.23
-260.37
-313.74
-363.87
-409.83
-450.91
-486.50
-515.74
-537.23
-549.22
-549.96
-538.36
-514.20
-478.67
-433.88
-382.46
-327.02
-269.84
-212.61
-156.62
-102.92
-52.37
-5.97
35.42
71.16
101.01
125.11
143.98
158.30
168.74
175.91
180.20
181.91
181.30
178.69
174.43
168.90
162.49
155.46
148.03
140.32
132.45
124.53
116.69
109.03
101.59
94.34
87.21
80.09
72.99
65.99
59.31
53.15
47.64
42.73
38.18
33.68
28.99
24.04
19.05
14.40
10.50
7.55
5.40
3.61
1.60
-1.02
-4.33
-7.92
-11.17
-13.49
-14.66
-14.94
-14.95
-15.36
-16.59
-18.72
-21.58
-24.95
-28.57
-31.78
-33.42
-31.98
-26.12
-15.64
-1.91
12.39
24.47
32.79
37.71
40.92
44.13
47.74
50.53
50.59
46.70
39.36
30.66
23.16
18.45
16.46
15.84
14.89
12.73
9.62
6.60
4.68
4.25
4.86
5.63
5.80
4.95
3.31
1.40
-0.17
-1.02
-1.03
-0.30
0.94
2.38
3.74
4.76
5.34
5.52
5.48
5.45
5.57
5.82
6.04
6.03
5.71
5.22
4.84
4.91
5.59
6.82
8.33
9.81
10.98
11.77
12.21
12.41
12.46
12.38
12.10
11.57
10.72
9.48
7.84
5.62
2.73
-0.76
-4.66
-8.63
-12.32
-15.46
-17.90
-19.58
-20.55
-20.88
-20.69
-20.08
-19.15
-17.96
-16.50
-14.73
-12.66
-10.38
-8.03
-5.77
-3.72
-1.93
-0.38
0.96
2.04
2.73
2.88
2.46
1.52
0.26
-1.05
-2.17
-2.97
-3.45
-3.75
-4.10
-4.66
-5.54
-6.65
-7.82
-8.80
-9.38
-9.56
-9.50
-9.51
-9.90
-10.98
-12.84
-15.34
-18.02
-20.16
-21.00
-19.99
-17.01
-12.49
-7.33
-2.61
0.78
2.39
2.24
0.66
-1.95
-5.52
-9.71
-14.03
-17.79
-20.18
-20.51
-18.35
-13.74
-7.15
0.59
8.58
15.86
21.63
25.33
26.74
25.99
23.59
20.24
16.70
13.59
11.18
9.39
7.98
6.74
5.64
4.76
4.27
4.18
4.35
4.54
4.49
4.17
3.72
3.43
3.51
3.96
4.52
4.79
4.37
3.05
0.86
-1.88
-4.77
-7.43
-9.65
-11.43
-12.90
-14.24
-15.57
-16.92
-18.25
-19.50
-20.59
-21.41
-21.83
-21.66
-20.73
-18.98
-16.45
-13.27
-9.65
-5.73
-1.63
2.49
6.51
10.23
13.48
16.16
18.30
20.01
21.48
22.88
24.25
25.57
26.67
27.35
27.45
26.86
25.58
23.74
21.60
19.46
17.67
16.54
16.22
16.59
17.26
17.61
16.93
14.71
10.69
4.97
-2.09
-10.00
-18.23
-26.28
-33.77
-40.36
-45.81
-49.86
-52.20
-52.44
-50.19
-45.27
-37.79
-28.23
-17.36
-5.93
5.54
16.88
28.16
39.57
51.21
63.10
75.21
87.44
99.58
111.17
121.53
129.84
135.46
138.23
138.62
137.60
136.23
135.17
134.41
133.29
130.72
125.67
117.41
105.78
91.07
73.79
54.40
33.14
10.02
-14.95
-41.64
-69.63
-98.27
-126.78
-154.40
-180.35
-203.88
-224.15
-240.24
-251.30
-256.79
-256.64
-251.42
-242.10
-229.75
-215.27
-199.15
-181.57
-162.67
-142.84
-122.95
-104.19
-87.66
-73.82
-62.11
-51.11
-39.11
-24.88
-8.29
9.70
27.66
44.62
60.63
76.58
93.53
111.78
130.28
146.99
159.65
166.74
167.96
164.12
156.49
146.17
133.84
119.86
104.74
89.37
74.94
62.53
52.67
45.03
38.65
32.37
25.38
17.56
9.52
2.24
-3.35
-6.77
-8.15
-8.00
-7.02
-5.74
-4.40
-2.91
-0.99
1.66
5.07
8.90
12.50
15.02
15.68
14.09
10.30
4.82
-1.56
-8.01
-13.76
-18.32
-21.47
-23.32
-24.32
-25.12
-26.38
-28.50
-31.48
-34.84
-37.87
-39.89
-40.55
-39.97
-38.62
-37.13
-35.97
-35.33
-35.17
-35.33
-35.71
-36.28
-37.02
-37.75
-38.13
-37.68
-36.03
-33.06
-29.02
-24.41
-19.84
-15.77
-12.38
-9.55
-7.00
-4.40
-1.56
1.56
4.81
7.94
10.69
12.85
14.32
15.14
15.43
15.38
15.12
14.73
14.21
13.50
12.56
11.39
10.06
8.71
7.44
6.21
4.80
2.84
-0.04
-4.00
-8.89
-14.22
-19.31
-23.56
-26.69
-28.90
-30.75
-33.00
-36.27
-40.74
-46.11
-51.58
-56.27
-59.49
-61.17
-61.98
-63.12
-65.82
-70.66
-77.14
-83.73
-88.46
-89.84
-87.56
-82.57
-76.58
-71.27
-67.61
-65.51
-63.83
-60.47
-52.57
-36.94
-10.85
26.61
73.51
124.73
173.02
211.05
233.88
240.40
233.30
217.62
198.52
179.57
162.05
145.50
128.91
111.74
94.47
78.18
63.90
51.90
41.59
31.86
21.71
10.81
-0.45
-11.32
-21.25
-30.22
-38.58
-46.64
-54.11
-59.92
-62.48
-60.35
-52.92
-40.81
-25.85
-10.53
2.79
12.55
18.29
20.56
20.39
18.81
16.52
13.85
11.02
8.34
6.33
5.61
6.67
9.68
14.57
20.99
28.50
36.61
44.81
52.58
59.38
64.63
67.70
67.91
64.56
57.09
45.30
29.56
10.86
-9.32
-29.28
-47.44
-62.55
-73.77
-80.62
-83.00
-81.17
-75.82
-68.00
-58.94
-49.77
-41.35
-34.20
-28.51
-24.32
-21.66
-20.46
-20.54
-21.54
-22.85
-23.84
-24.03
-23.19
-21.46
-19.14
-16.54
-13.86
-11.19
-8.59
-6.22
-4.32
-3.12
-2.75
-3.12
-4.01
-5.15
-6.34
-7.50
-8.63
-9.70
-10.60
-11.20
-11.37
-11.10
-10.49
-9.68
-8.83
-8.10
-7.77
-8.16
-9.63
-12.38
-16.27
-20.74
-24.89
-27.77
-28.68
-27.48
-24.54
-20.59
-16.37
-12.40
-8.83
-5.55
-2.36
0.93
4.35
7.87
11.32
14.57
17.38
19.50
20.65
20.72
19.78
18.19
16.48
15.21
14.65
14.70
14.93
14.70
13.52
11.17
7.78
3.74
-0.47
-4.43
-7.84
-10.50
-12.25
-13.06
-13.01
-12.39
-11.69
-11.41
-11.85
-12.92
-14.13
-14.79
-14.28
-12.32
-8.97
-4.63
0.28
5.38
10.43
15.25
19.59
23.14
25.58
26.76
26.77
25.94
24.73
23.53
22.52
21.65
20.68
19.35
17.49
15.14
12.50
9.83
7.36
5.20
3.33
1.71
0.27
-1.02
-2.21
-3.41
-4.74
-6.30
-8.08
-9.92
-11.55
-12.70
-13.27
-13.36
-13.29
-13.40
-13.94
-15.01
-16.46
-18.02
-19.31
-19.94
-19.58
-18.01
-15.24
-11.57
-7.52
-3.81
-1.09
0.28
0.34
-0.52
-1.79
-3.07
-4.24
-5.45
-6.95
-8.92
-11.30
-13.84
-16.29
-18.47
-20.33
-21.96
-23.43
-24.82
-26.18
-27.57
-28.98
-30.29
-31.25
-31.57
-31.11
-30.08
-29.11
-29.14
-31.03
-35.22
-41.54
-49.21
-57.09
-63.98
-68.90
-71.24
-70.85
-67.99
-63.14
-56.79
-49.19
-40.19
-29.36
-16.19
-0.52
17.29
36.25
55.07
72.48
87.65
100.23
110.31
118.07
123.52
126.50
126.77
124.40
119.93
114.49
109.38
105.69
103.91
103.87
105.01
106.72
108.53
110.07
110.85
110.22
107.69
103.18
97.31
91.15
85.64
81.03
76.66
71.29
63.86
54.11
42.91
32.04
23.46
18.67
18.16
21.38
27.04
33.46
39.03
42.39
42.61
39.38
32.93
24.14
14.30
4.89
-2.87
-8.32
-11.50
-13.07
-14.04
-15.52
-18.41
-23.20
-29.78
-37.26
-44.14
-48.74
-49.76
-46.61
-39.30
-28.03
-12.91
5.85
27.38
49.48
68.52
80.23
81.24
70.55
50.16
24.34
-2.11
-25.72
-45.44
-62.40
-78.55
-95.20
-112.18
-128.18
-141.81
-152.76
-162.10
-171.76
-183.22
-196.60
-210.44
-222.56
-231.14
-235.47
-235.92
-233.33
-228.41
-221.58
-213.37
-204.67
-196.60
-189.71
-183.20
-174.89
-161.98
-142.49
-116.33
-85.48
-52.96
-21.45
7.68
34.33
58.85
81.06
99.94
114.13
122.86
126.59
126.97
126.14
125.80
126.60
128.24
129.94
131.04
131.37
131.17
130.82
130.44
129.83
128.58
126.38
123.33
119.93
116.85
114.56
113.09
111.94
110.37
107.82
104.10
99.51
94.70
90.29
86.66
83.76
81.09
77.87
73.24
66.52
57.56
46.85
35.62
25.52
18.22
14.92
16.00
20.99
28.73
37.77
46.69
54.40
60.21
63.95
65.83
66.32
65.91
64.85
63.08
60.08
55.12
47.43
36.57
22.60
6.22
-11.33
-28.52
-43.81
-56.02
-64.47
-69.12
-70.49
-69.40
-66.81
-63.59
-60.43
-57.75
-55.74
-54.39
-53.51
-52.85
-52.17
-51.29
-50.15
-48.85
-47.62
-46.79
-46.69
-47.58
-49.53
-52.38
-55.78
-59.25
-62.33
-64.69
-66.19
-66.86
-66.83
-66.22
-65.12
-63.56
-61.58
-59.32
-57.00
-54.88
-53.18
-51.99
-51.19
-50.61
-50.04
-49.46
-48.96
-48.63
-48.37
-47.70
-45.87
-42.17
-36.22
-28.37
-19.61
-11.31
-4.73
-0.55
1.28
1.44
0.88
0.44
0.65
1.74
3.74
6.71
10.76
15.98
22.21
28.85
34.89
39.13
40.67
39.30
35.72
31.25
27.32
24.91
24.11
24.28
24.41
23.65
21.66
18.60
14.91
10.99
7.16
3.80
1.65
1.67
4.76
11.03
19.38
27.52
32.78
33.21
28.40
19.69
9.54
0.49
-5.78
-8.79
-9.09
-7.68
-5.59
-3.73
-2.77
-3.29
-5.60
-9.68
-15.05
-20.97
-26.51
-30.85
-33.44
-34.02
-32.72
-29.92
-26.21
-22.18
-18.36
-14.97
-12.03
-9.41
-7.02
-4.90
-3.26
-2.33
-2.23
-2.86
-3.85
-4.66
-4.77
-3.83
-1.81
0.98
4.02
6.73
8.72
9.90
10.49
10.96
11.79
13.37
15.77
18.80
22.06
25.10
27.57
29.33
30.39
30.82
30.59
29.55
27.49
24.32
20.22
15.60
11.01
6.84
3.16
-0.21
-3.57
-7.07
-10.58
-13.83
-16.51
-18.60
-20.27
-21.81
-23.42
-25.03
-26.36
-27.08
-27.01
-26.21
-24.98
-23.73
-22.79
-22.38
-22.53
-23.15
-24.12
-25.30
-26.54
-27.66
-28.38
-28.44
-27.60
-25.77
-23.06
-19.72
-16.06
-12.35
-8.79
-5.49
-2.49
0.16
2.40
4.13
5.27
5.74
5.61
5.02
4.26
3.58
3.19
3.08
3.12
3.10
2.83
2.28
1.56
0.82
0.15
-0.45
-1.12
-2.05
-3.38
-5.15
-7.30
-9.66
-12.11
-14.55
-16.98
-19.43
-21.89
-24.25
-26.33
-27.93
-28.98
-29.54
-29.74
-29.68
-29.28
-28.30
-26.37
-23.19
-18.64
-12.91
-6.42
0.27
6.68
12.54
17.79
22.48
26.68
30.32
33.20
35.03
35.66
35.18
33.92
32.33
30.83
29.59
28.53
27.48
26.28
24.89
23.46
22.18
21.18
20.44
19.80
19.02
17.92
16.45
14.66
12.71
10.77
8.95
7.32
5.87
4.55
3.32
2.13
0.91
-0.37
-1.70
-3.03
-4.29
-5.46
-6.56
-7.71
-9.00
-10.45
-11.88
-13.01
-13.48
-13.05
-11.67
-9.48
-6.76
-3.82
-0.87
1.96
4.63
7.10
9.38
11.44
13.29
14.91
16.27
17.27
17.82
17.84
17.36
16.53
15.58
14.75
14.14
13.73
13.36
12.85
12.11
11.17
10.17
9.28
8.60
8.11
7.68
7.09
6.20
4.96
3.50
1.98
0.56
-0.71
-1.91
-3.15
-4.48
-5.81
-6.97
-7.80
-8.28
-8.57
-8.94
-9.61
-10.65
-11.92
-13.14
-13.97
-14.13
-13.50
-12.09
-10.04
-7.59
-4.96
-2.38
0.03
2.17
4.02
5.56
6.78
7.66
8.23
8.55
8.72
8.87
9.06
9.33
9.61
9.81
9.80
9.48
8.83
7.90
6.85
5.85
5.07
4.58
4.34
4.18
3.87
3.26
2.29
1.04
-0.30
-1.56
-2.57
-3.30
-3.74
-3.97
-4.08
-4.22
-4.51
-5.10
-6.04
-7.31
-8.74
-10.10
-11.14
-11.70
-11.72
-11.24
-10.32
-8.97
-7.22
-5.11
-2.73
-0.22
2.25
4.54
6.54
8.23
9.59
10.69
11.56
12.26
12.80
13.23
13.54
13.78
13.99
14.25
14.60
15.00
15.32
15.41
15.15
14.58
13.84
13.14
12.63
12.34
12.14
11.81
11.18
10.17
8.87
7.47
6.18
5.14
4.38
3.85
3.42
2.99
2.47
1.82
0.95
-0.17
-1.53
-3.00
-4.33
-5.22
-5.45
-4.97
-3.95
-2.64
-1.30
-0.06
1.08
2.17
3.29
4.43
5.51
6.40
7.04
7.41
7.55
7.54
7.45
7.34
7.19
6.95
6.54
5.93
5.15
4.29
3.51
2.92
2.56
2.37
2.23
2.01
1.63
1.06
0.32
-0.57
-1.57
-2.63
-3.70
-4.71
-5.62
-6.40
-7.10
-7.79
-8.55
-9.43
-10.42
-11.52
-12.60
-13.55
-14.23
-14.48
-14.20
-13.37
-12.02
-10.29
-8.33
-6.30
-4.32
-2.47
-0.82
0.61
1.77
2.68
3.37
3.91
4.40
4.88
5.34
5.66
5.74
5.50
5.00
4.40
3.92
3.69
3.76
4.02
4.34
4.60
4.73
4.75
4.66
4.47
4.18
3.77
3.26
2.67
2.03
1.40
0.77
0.17
-0.45
-1.09
-1.80
-2.58
-3.47
-4.42
-5.41
-6.32
-7.03
-7.40
-7.30
-6.66
-5.48
-3.88
-2.03
-0.13
1.65
3.21
4.55
5.69
6.66
7.46
8.01
8.29
8.27
8.07
7.80
7.60
7.52
7.56
7.66
7.74
7.70
7.48
7.04
6.38
5.56
4.69
3.88
3.21
2.68
2.23
1.75
1.19
0.50
-0.31
-1.21
-2.16
-3.12
-4.02
-4.86
-5.62
-6.36
-7.15
-8.06
-9.03
-9.95
-10.64
-10.94
-10.76
-10.14
-9.16
-7.92
-6.43
-4.67
-2.63
-0.39
1.82
3.74
5.14
6.00
6.46
6.78
7.15
7.57
7.87
7.83
7.35
6.51
5.57
4.79
4.34
4.21
4.23
4.24
4.10
3.82
3.47
3.12
2.76
2.36
1.82
1.10
0.25
-0.63
-1.42
-2.04
-2.51
-2.92
-3.39
-3.96
-4.65
-5.36
-6.02
-6.55
-6.88
-6.99
-6.81
-6.27
-5.26
-3.71
-1.64
0.80
3.34
5.68
7.60
9.01
9.98
10.65
11.17
11.62
11.95
12.05
11.76
11.00
9.83
8.42
7.00
5.74
4.74
3.94
3.22
2.42
1.49
0.41
-0.71
-1.81
-2.86
-3.87
-4.91
-5.98
-7.11
-8.30
-9.54
-10.82
-12.08
-13.25
-14.26
-15.07
-15.71
-16.29
-16.92
-17.65
-18.45
-19.22
-19.79
-20.04
-19.87
-19.21
-18.05
-16.40
-14.30
-11.83
-9.11
-6.30
-3.56
-1.07
1.05
2.74
3.99
4.84
5.38
5.77
6.18
6.72
7.41
8.18
8.89
9.39
9.58
9.44
9.04
8.51
7.98
7.55
7.27
7.06
6.79
6.29
5.46
4.31
2.99
1.69
0.62
-0.16
-0.73
-1.27
-1.95
-2.87
-4.01
-5.29
-6.58
-7.76
-8.76
-9.54
-10.06
-10.30
-10.22
-9.77
-8.89
-7.55
-5.79
-3.73
-1.55
0.53
2.35
3.87
5.13
6.24
7.25
8.13
8.78
9.16
9.27
9.23
9.16
9.11
9.09
8.99
8.74
8.32
7.79
7.24
6.72
6.24
5.74
5.12
4.35
3.43
2.41
1.38
0.39
-0.57
-1.54
-2.59
-3.72
-4.84
-5.83
-6.58
-7.13
-7.64
-8.35
-9.38
-10.64
-11.84
-12.59
-12.61
-11.86
-10.49
-8.76
-6.92
-5.06
-3.17
-1.22
0.77
2.73
4.54
6.09
7.34
8.28
8.95
9.41
9.73
9.93
10.03
10.00
9.80
9.39
8.77
8.03
7.26
6.53
5.86
5.18
4.42
3.54
2.53
1.43
0.26
-0.97
-2.29
-3.73
-5.29
-6.92
-8.50
-9.88
-10.97
-11.78
-12.44
-13.14
-14.05
-15.21
-16.47
-17.57
-18.23
-18.27
-17.70
-16.63
-15.21
-13.54
-11.66
-9.54
-7.22
-4.81
-2.49
-0.41
1.36
2.86
4.17
5.35
6.38
7.20
7.73
7.98
8.05
8.08
8.18
8.37
8.58
8.73
8.77
8.65
8.35
7.77
6.79
5.37
3.60
1.73
0.02
-1.34
-2.36
-3.18
-3.98
-4.83
-5.71
-6.54
-7.25
-7.87
-8.53
-9.33
-10.32
-11.40
-12.39
-13.04
-13.14
-12.61
-11.48
-9.90
-8.07
-6.17
-4.30
-2.48
-0.66
1.18
3.03
4.79
6.35
7.61
8.48
8.99
9.15
9.11
9.00
8.97
9.10
9.38
9.67
9.82
9.67
9.18
8.42
7.51
6.57
5.68
4.82
3.91
2.88
1.73
0.54
-0.56
-1.49
-2.24
-2.89
-3.62
-4.52
-5.62
-6.84
-8.06
-9.18
-10.18
-11.06
-11.82
-12.36
-12.53
-12.17
-11.22
-9.76
-7.96
-6.04
-4.13
-2.25
-0.34
1.62
3.58
5.37
6.78
7.67
8.06
8.09
8.01
8.00
8.17
8.46
8.77
9.00
9.11
9.09
8.96
8.73
8.39
7.97
7.54
7.16
6.90
6.71
6.51
6.16
5.62
4.90
4.12
3.37
2.71
2.13
1.53
0.82
-0.02
-0.99
-2.03
-3.11
-4.21
-5.34
-6.48
-7.54
-8.37
-8.74
-8.51
-7.66
-6.35
-4.83
-3.32
-1.95
-0.71
0.50
1.81
3.19
4.57
5.78
6.70
7.29
7.60
7.69
7.61
7.39
7.02
6.50
5.88
5.20
4.53
3.89
3.26
2.62
1.92
1.16
0.33
-0.56
-1.48
-2.40
-3.32
-4.21
-5.03
-5.76
-6.40
-6.97
-7.56
-8.25
-9.10
-10.16
-11.39
-12.74
-14.14
-15.45
-16.53
-17.16
-17.18
-16.50
-15.13
-13.22
-10.98
-8.64
-6.31
-4.00
-1.65
0.76
3.18
5.43
7.30
8.65
9.44
9.80
9.88
9.84
9.77
9.71
9.65
9.55
9.40
9.15
8.80
8.34
7.80
7.20
6.56
5.86
5.07
4.17
3.20
2.20
1.25
0.42
-0.25
-0.76
-1.14
-1.46
-1.85
-2.40
-3.17
-4.10
-5.10
-6.05
-6.88
-7.58
-8.18
-8.68
-8.95
-8.81
-8.09
-6.74
-4.90
-2.81
-0.67
1.38
3.31
5.14
6.81
8.23
9.27
9.91
10.19
10.26
10.24
10.16
9.98
9.63
9.10
8.47
7.87
7.44
7.19
7.06
6.86
6.44
5.66
4.56
3.23
1.80
0.40
-0.91
-2.13
-3.30
-4.42
-5.49
-6.53
-7.55
-8.59
-9.72
-10.96
-12.29
-13.67
-14.99
-16.16
-17.04
-17.50
-17.36
-16.52
-14.97
-12.84
-10.38
-7.90
-5.60
-3.61
-1.85
-0.20
1.46
3.19
4.90
6.41
7.50
8.01
7.95
7.50
6.95
6.59
6.55
6.76
6.98
6.93
6.45
5.56
4.48
3.43
2.58
1.91
1.30
0.63
-0.17
-1.05
-1.92
-2.72
-3.42
-4.08
-4.74
-5.42
-6.18
-7.06
-8.11
-9.31
-10.55
-11.65
-12.35
-12.45
-11.88
-10.68
-9.02
-7.08
-5.04
-3.07
-1.29
0.15
1.20
1.82
2.02
1.85
1.38
0.70
-0.03
-0.62
-0.86
-0.69
-0.19
0.38
0.74
0.71
0.32
-0.21
-0.63
-0.80
-0.74
-0.58
-0.47
-0.49
-0.60
-0.72
-0.77
-0.73
-0.63
-0.50
-0.42
-0.44
-0.66
-1.21
-2.14
-3.45
-5.01
-6.58
-7.93
-8.86
-9.29
-9.20
-8.64
-7.73
-6.58
-5.25
-3.81
-2.27
-0.64
1.04
2.70
4.20
5.47
6.43
7.10
7.52
7.73
7.74
7.53
7.11
6.55
5.98
5.52
5.29
5.27
5.35
5.39
5.23
4.82
4.22
3.59
3.05
2.70
2.54
2.48
2.42
2.25
1.94
1.53
1.08
0.67
0.29
-0.08
-0.52
-1.06
-1.72
-2.47
-3.26
-4.03
-4.70
-5.15
-5.23
-4.84
-3.95
-2.63
-1.04
0.68
2.42
4.14
5.81
7.34
8.59
9.42
9.73
9.55
9.02
8.32
7.58
6.86
6.13
5.33
4.44
3.45
2.35
1.18
-0.03
-1.25
-2.42
-3.54
-4.66
-5.87
-7.29
-9.01
-11.04
-13.28
-15.58
-17.77
-19.74
-21.49
-23.10
-24.70
-26.38
-28.15
-29.92
-31.48
-32.60
-33.03
-32.54
-31.03
-28.46
-24.94
-20.61
-15.56
-9.83
-3.42
3.65
11.25
19.06
26.61
33.36
38.80
42.63
44.87
45.85
46.19
46.62
47.78
49.97
53.07
56.44
59.14
60.12
58.53
53.94
46.42
36.57
25.46
14.42
4.78
-2.38
-6.54
-7.83
-6.84
-4.48
-1.58
1.29
3.82
5.96
7.75
9.27
10.67
12.09
13.70
15.63
17.93
20.53
23.30
26.19
29.19
32.39
35.86
39.66
43.71
47.80
51.53
54.32
55.47
54.34
50.59
44.35
36.28
27.47
19.07
12.02
6.79
3.40
1.53
0.77
0.86
1.67
3.24
5.61
8.74
12.46
16.46
20.39
23.91
26.86
29.23
31.24
33.18
35.35
37.94
40.97
44.19
47.12
49.06
49.19
46.70
40.96
31.68
19.10
3.98
-12.37
-28.41
-42.60
-53.83
-61.58
-66.05
-67.96
-68.36
-68.24
-68.31
-68.95
-70.15
-71.67
-73.10
-74.02
-74.08
-73.23
-71.73
-70.17
-69.20
-69.29
-70.44
-72.21
-73.85
-74.59
-73.93
-71.74
-68.22
-63.81
-58.92
-53.95
-49.26
-45.12
-41.75
-39.26
-37.59
-36.60
-36.08
-35.84
-35.75
-35.72
-35.70
-35.62
-35.49
-35.38
-35.41
-35.80
-36.67
-38.02
-39.70
-41.42
-42.87
-43.80
-43.98
-43.32
-41.83
-39.79
-37.83
-36.78
-37.49
-40.32
-44.96
-50.33
-55.00
-57.70
-57.76
-55.27
-50.79
-45.08
-38.66
-31.75
-24.18
-15.55
-5.32
6.94
21.20
36.78
52.32
66.06
76.42
82.45
84.12
82.19
77.86
72.39
66.86
62.05
58.41
56.02
54.57
53.35
51.50
48.31
43.48
37.23
30.16
23.03
16.50
11.01
6.70
3.51
1.34
0.07
-0.37
-0.02
1.00
2.50
4.16
5.64
6.72
7.31
7.44
7.21
6.69
5.88
4.81
3.57
2.37
1.54
1.33
1.85
2.97
4.37
5.63
6.45
6.70
6.45
5.96
5.47
5.15
5.02
4.94
4.70
4.14
3.25
2.11
0.84
-0.47
-1.81
-3.27
-4.94
-6.85
-8.97
-11.15
-13.18
-14.81
-15.86
-16.24
-15.95
-15.09
-13.74
-11.97
-9.82
-7.36
-4.72
-2.09
0.34
2.43
4.10
5.42
6.46
7.33
8.11
8.85
9.57
10.28
10.94
11.46
11.80
11.94
11.89
11.71
11.40
10.99
10.51
10.02
9.60
9.30
9.07
8.80
8.35
7.62
6.67
5.61
4.59
3.67
2.87
2.09
1.27
0.37
-0.63
-1.74
-2.98
-4.31
-5.67
-6.92
-7.92
-8.52
-8.64
-8.25
-7.34
-5.94
-4.11
-2.01
0.14
2.08
3.62
4.69
5.39
5.86
6.26
6.69
7.15
7.62
8.03
8.37
8.63
8.83
8.98
9.07
9.08
8.96
8.68
8.27
7.84
7.50
7.34
7.35
7.42
7.40
7.15
6.67
5.99
5.18
4.27
3.26
2.13
0.99
-0.01
-0.74
-1.16
-1.41
-1.77
-2.53
-3.85
-5.62
-7.54
-9.13
-10.02
-9.98
-9.06
-7.46
-5.44
-3.23
-0.95
1.36
3.65
5.81
7.75
9.39
10.76
11.95
13.09
14.23
15.34
16.29
16.95
17.20
17.00
16.45
15.68
14.89
14.25
13.84
13.63
13.49
13.26
12.84
12.21
11.44
10.57
9.62
8.53
7.25
5.74
4.07
2.38
0.81
-0.52
-1.55
-2.33
-2.95
-3.52
-4.19
-5.08
-6.28
-7.79
-9.54
-11.30
-12.76
-13.60
-13.59
-12.64
-10.82
-8.36
-5.52
-2.54
0.39
3.16
5.73
8.06
10.12
11.85
13.18
14.12
14.68
14.93
14.94
14.79
14.50
14.09
13.61
13.08
12.56
12.08
11.63
11.15
10.54
9.74
8.73
7.56
6.24
4.81
3.23
1.45
-0.51
-2.59
-4.66
-6.58
-8.22
-9.57
-10.69
-11.70
-12.72
-13.87
-15.17
-16.62
-18.14
-19.58
-20.73
-21.39
-21.41
-20.73
-19.38
-17.48
-15.14
-12.44
-9.44
-6.21
-2.88
0.37
3.34
5.86
7.86
9.35
10.41
11.15
11.69
12.11
12.46
12.74
12.93
13.00
12.91
12.65
12.22
11.63
10.87
9.96
8.93
7.88
6.90
6.09
5.47
4.99
4.51
3.91
3.10
2.11
1.01
-0.08
-1.09
-2.06
-3.10
-4.35
-5.90
-7.70
-9.60
-11.36
-12.74
-13.59
-13.84
-13.50
-12.62
-11.24
-9.45
-7.29
-4.85
-2.25
0.41
2.99
5.32
7.23
8.57
9.25
9.34
9.05
8.63
8.31
8.22
8.33
8.51
8.62
8.58
8.39
8.17
8.02
8.00
8.05
8.01
7.70
7.00
5.89
4.49
3.00
1.60
0.38
-0.64
-1.53
-2.38
-3.23
-4.13
-5.11
-6.21
-7.48
-8.89
-10.38
-11.81
-13.04
-13.90
-14.30
-14.15
-13.43
-12.15
-10.34
-8.07
-5.50
-2.79
-0.15
2.22
4.19
5.70
6.78
7.54
8.06
8.41
8.60
8.57
8.31
7.83
7.24
6.66
6.22
5.97
5.83
5.68
5.38
4.84
4.10
3.23
2.37
1.59
0.92
0.34
-0.21
-0.78
-1.39
-2.04
-2.66
-3.21
-3.64
-3.99
-4.38
-4.94
-5.81
-7.00
-8.36
-9.66
-10.64
-11.09
-10.92
-10.13
-8.79
-7.00
-4.88
-2.53
-0.09
2.30
4.55
6.60
8.48
10.24
11.93
13.56
15.05
16.22
16.91
16.99
16.47
15.48
14.25
12.96
11.76
10.71
9.77
8.89
8.03
7.14
6.21
5.23
4.16
2.93
1.53
-0.02
-1.65
-3.21
-4.56
-5.62
-6.41
-7.00
-7.54
-8.13
-8.81
-9.61
-10.52
-11.56
-12.74
-14.00
-15.26
-16.33
-16.99
-17.08
-16.54
-15.41
-13.81
-11.93
-9.89
-7.76
-5.57
-3.31
-0.96
1.42
3.73
5.86
7.70
9.19
10.31
11.07
11.48
11.58
11.44
11.16
10.84
10.57
10.36
10.13
9.78
9.21
8.40
7.46
6.48
5.54
4.63
3.68
2.61
1.39
0.08
-1.24
-2.44
-3.47
-4.31
-5.02
-5.64
-6.27
-6.97
-7.80
-8.84
-10.09
-11.52
-13.02
-14.43
-15.56
-16.24
-16.36
-15.91
-14.97
-13.67
-12.11
-10.30
-8.24
-5.90
-3.33
-0.69
1.79
3.93
5.67
7.07
8.27
9.35
10.25
10.82
10.95
10.66
10.12
9.63
9.38
9.44
9.72
10.00
10.05
9.74
9.03
8.00
6.74
5.39
4.06
2.80
1.64
0.52
-0.62
-1.88
-3.27
-4.74
-6.17
-7.41
-8.40
-9.18
-9.87
-10.62
-11.52
-12.53
-13.49
-14.20
-14.47
-14.19
-13.32
-11.87
-9.88
-7.46
-4.77
-2.02
0.59
2.88
4.83
6.46
7.84
9.02
9.98
10.65
10.96
10.88
10.48
9.87
9.20
8.55
7.97
7.41
6.83
6.17
5.44
4.71
4.04
3.50
3.06
2.63
2.05
1.23
0.16
-1.07
-2.27
-3.30
-4.10
-4.73
-5.31
-5.99
-6.85
-7.91
-9.11
-10.34
-11.48
-12.43
-13.06
-13.25
-12.90
-11.97
-10.50
-8.57
-6.35
-4.00
-1.66
0.58
2.64
4.41
5.81
6.77
7.28
7.42
7.32
7.12
6.90
6.71
6.51
6.25
5.87
5.30
4.51
3.51
2.40
1.39
0.66
0.31
0.29
0.34
0.18
-0.43
-1.48
-2.75
-3.91
-4.68
-4.95
-4.88
-4.74
-4.82
-5.29
-6.10
-7.05
-7.90
-8.50
-8.84
-8.98
-8.99
-8.82
-8.35
-7.38
-5.80
-3.65
-1.16
1.39
3.75
5.84
7.72
9.46
11.09
12.52
13.63
14.33
14.65
14.72
14.71
14.70
14.69
14.66
14.55
14.35
14.05
13.61
12.98
12.07
10.88
9.44
7.88
6.28
4.70
3.13
1.59
0.10
-1.26
-2.42
-3.37
-4.17
-4.95
-5.82
-6.82
-7.93
-9.07
-10.19
-11.23
-12.16
-12.90
-13.31
-13.18
-12.39
-10.94
-9.07
-7.14
-5.50
-4.33
-3.58
-2.96
-2.19
-1.14
0.07
1.14
1.75
1.71
1.03
-0.08
-1.36
-2.60
-3.70
-4.65
-5.47
-6.17
-6.74
-7.16
-7.47
-7.71
-7.96
-8.22
-8.49
-8.68
-8.76
-8.69
-8.50
-8.26
-8.03
-7.84
-7.68
-7.56
-7.52
-7.59
-7.82
-8.21
-8.72
-9.22
-9.60
-9.69
-9.39
-8.64
-7.46
-5.94
-4.20
-2.32
-0.37
1.64
3.73
5.85
7.92
9.78
11.29
12.37
13.02
13.33
13.38
13.24
12.99
12.69
12.43
12.23
12.09
11.90
11.57
11.03
10.30
9.51
8.78
8.20
7.73
7.27
6.72
6.04
5.33
4.67
4.16
3.75
3.33
2.75
1.91
0.79
-0.57
-2.08
-3.69
-5.31
-6.89
-8.35
-9.60
-10.53
-11.03
-10.99
-10.33
-9.03
-7.16
-4.97
-2.85
-1.28
-0.73
-1.52
-3.75
-7.31
-11.90
-17.12
-22.51
-27.62
-32.02
-35.48
-38.13
-40.49
-43.49
-48.12
-55.06
-64.40
-75.59
-87.62
-99.49
-110.54
-120.68
-130.27
-139.89
-150.03
-160.86
-172.08
-183.00
-192.54
-199.52
-202.78
-201.58
-195.67
-185.41
-171.66
-155.49
-137.76
-118.74
-97.93
-74.04
-45.64
-11.93
26.47
67.17
106.42
140.20
165.48
181.13
188.01
188.38
184.81
179.47
173.72
168.39
164.03
161.18
160.17
160.96
162.95
165.20
166.71
166.88
165.69
163.60
161.32
159.47
158.41
158.10
158.23
158.32
157.85
156.55
154.40
151.73
149.06
146.91
145.57
144.99
144.82
144.65
144.27
143.77
143.49
143.91
145.34
147.86
151.16
154.63
157.36
158.28
156.29
150.65
141.29
129.03
115.43
102.29
90.86
81.22
72.17
61.65
47.55
28.42
3.93
-25.22
-57.64
-91.57
-125.10
-156.27
-183.26
-204.61
-219.56
-228.23
-231.54
-230.87
-227.65
-223.01
-217.66
-212.01
-206.23
-200.42
-194.60
-188.80
-183.06
-177.46
-172.11
-167.12
-162.55
-158.43
-154.80
-151.75
-149.35
-147.64
-146.50
-145.68
-144.85
-143.76
-142.39
-140.97
-139.98
-139.93
-141.25
-144.11
-148.35
-153.44
-158.63
-162.97
-165.48
-165.28
-161.68
-154.19
-142.58
-126.88
-107.44
-84.97
-60.50
-35.21
-10.20
13.70
36.14
57.11
76.90
95.85
114.29
132.44
150.41
168.07
184.96
200.30
213.16
222.82
229.08
232.50
234.20
235.39
236.88
238.77
240.51
241.22
240.08
236.62
230.74
222.59
212.41
200.56
187.62
174.45
162.11
151.59
143.35
137.02
131.27
124.13
113.68
98.81
79.52
56.74
31.74
5.49
-21.49
-48.89
-76.15
-102.22
-125.76
-145.73
-161.75
-174.26
-184.07
-191.77
-197.34
-200.22
-199.67
-195.34
-187.47
-176.87
-164.67
-152.01
-139.86
-128.90
-119.52
-111.74
-105.36
-99.88
-94.72
-89.37
-83.49
-77.11
-70.55
-64.36
-59.12
-55.27
-53.12
-52.80
-54.35
-57.62
-62.10
-66.72
-69.94
-70.00
-65.56
-56.11
-42.24
-25.46
-7.70
9.32
24.54
37.67
49.12
59.59
69.79
80.19
90.98
102.09
113.26
124.10
134.17
143.05
150.42
156.08
160.00
162.33
163.37
163.52
163.24
162.93
162.85
163.03
163.19
162.88
161.70
159.55
156.74
153.98
152.09
151.68
152.92
155.45
158.50
161.08
162.12
160.59
155.57
146.41
132.81
114.87
93.03
67.97
40.55
11.75
-17.24
-45.00
-70.03
-90.91
-106.62
-116.77
-121.62
-122.01
-119.10
-114.07
-107.85
-100.97
-93.54
-85.38
-76.23
-66.03
-55.01
-43.77
-33.18
-24.32
-18.31
-16.04
-17.77
-22.87
-29.69
-35.94
-39.32
-38.36
-32.94
-24.38
-14.91
-6.79
-1.51
0.63
0.43
-0.73
-1.63
-1.67
-1.03
-0.47
-0.81
-2.62
-5.99
-10.60
-15.93
-21.43
-26.56
-30.92
-34.45
-37.73
-42.00
-49.01
-60.38
-76.91
-97.96
-121.33
-143.76
-161.68
-172.16
-173.61
-166.09
-151.26
-131.91
-111.35
-92.65
-78.01
-68.31
-63.15
-61.16
-60.55
-59.71
-57.64
-54.02
-49.16
-43.63
-38.08
-33.01
-28.72
-25.35
-22.91
-21.30
-20.34
-19.76
-19.21
-18.42
-17.24
-15.68
-13.82
-11.76
-9.48
-6.88
-3.83
-0.29
3.64
7.68
11.46
14.61
16.82
17.94
18.00
17.17
15.78
14.20
12.76
11.70
11.05
10.76
10.68
10.71
10.81
10.94
11.07
11.08
10.89
10.45
9.79
9.03
8.28
7.62
6.96
6.18
5.08
3.53
1.48
-0.98
-3.63
-6.17
-8.19
-9.38
-9.54
-8.71
-7.13
-5.23
-3.44
-2.05
-1.08
-0.28
0.67
1.99
3.60
5.14
6.11
6.10
4.91
2.62
-0.54
-4.30
-8.39
-12.52
-16.36
-19.51
-21.62
-22.45
-22.00
-20.49
-18.31
-15.88
-13.61
-11.80
-10.61
-10.08
-10.12
-10.56
-11.22
-11.96
-12.69
-13.32
-13.79
-14.01
-13.92
-13.58
-13.13
-12.71
-12.42
-12.21
-11.96
-11.53
-10.87
-10.01
-9.13
-8.33
-7.68
-7.19
-6.85
-6.69
-6.80
-7.25
-7.95
-8.72
-9.25
-9.29
-8.74
-7.67
-6.26
-4.74
-3.31
-2.11
-1.27
-0.86
-0.84
-1.06
-1.18
-0.88
0.12
1.87
4.23
6.96
9.86
12.83
15.82
18.77
21.50
23.83
25.61
26.82
27.62
28.21
28.75
29.24
29.57
29.53
28.95
27.76
26.06
24.01
21.82
19.62
17.40
15.02
12.31
9.17
5.67
2.09
-1.18
-3.79
-5.50
-6.30
-6.30
-5.75
-4.94
-4.14
-3.53
-3.15
-2.84
-2.32
-1.27
0.51
2.96
5.82
8.68
11.23
13.33
15.06
16.59
18.03
19.31
20.18
20.28
19.34
17.34
14.55
11.44
8.59
6.40
4.96
4.05
3.23
2.03
0.16
-2.38
-5.27
-7.97
-9.79
-10.12
-8.59
-5.39
-1.55
1.06
0.11
-6.33
-18.97
-36.66
-56.60
-75.15
-88.99
-96.24
-96.76
-91.83
-83.31
-72.81
-61.29
-49.22
-36.83
-24.54
-13.07
-3.24
4.40
9.93
14.16
18.36
23.79
31.28
40.82
51.48
61.69
69.83
74.92
76.99
77.05
76.27
75.51
74.57
72.10
66.22
55.76
41.36
25.64
12.64
5.91
7.36
16.19
28.93
40.74
47.31
46.62
39.41
28.52
16.88
6.72
-1.33
-8.07
-14.97
-23.37
-34.15
-48.24
-63.69
-78.85
-90.19
-91.29
-75.57
-41.13
6.09
53.32
85.83
93.62
75.87
41.90
6.49
-17.06
-22.47
-11.89
7.02
25.42
37.39
41.08
38.23
32.05
25.41
20.10
16.98
16.79
20.02
26.78
36.10
46.10
54.50
59.12
59.15
53.93
44.30
32.15
19.90
9.87
3.76
2.15
4.02
7.12
8.87
7.93
4.80
1.36
0.04
2.31
7.87
14.61
19.69
20.88
17.81
11.88
5.07
-0.72
-4.46
-6.05
-6.16
-5.59
-5.02
-4.70
-4.70
-5.81
-7.63
-10.24
-13.72
-18.26
-23.93
-30.76
-38.76
-44.51
-45.84
-42.49
-36.00
-28.26
-20.58
-13.36
-6.76
-1.01
3.55
6.21
5.43
2.03
-2.75
-7.87
-12.31
-15.19
-15.88
-14.04
-10.18
-5.34
-0.75
4.35
9.44
14.08
18.18
21.97
25.82
29.66
33.21
36.28
38.80
40.73
42.56
44.98
48.59
53.62
59.76
66.26
72.28
76.91
79.26
79.16
77.41
75.92
77.17
83.14
94.14
108.20
121.26
128.59
126.84
115.08
94.85
69.25
41.74
15.37
-7.40
-24.65
-35.26
-39.25
-38.34
-35.95
-36.13
-41.96
-54.01
-69.96
-85.55
-96.57
-100.37
-96.80
-87.94
-77.06
-67.18
-60.13
-56.17
-54.40
-53.55
-52.50
-50.47
-46.91
-41.57
-34.52
-26.22
-17.55
-9.77
-4.37
-2.40
-4.00
-8.36
-14.11
-19.66
-23.61
-25.11
-24.00
-21.62
-19.54
-18.98
-20.57
-24.48
-30.44
-37.76
-45.47
-52.80
-60.97
-71.31
-84.43
-100.08
-117.47
-135.09
-150.70
-161.78
-166.45
-166.73
-165.38
-164.35
-164.37
-165.46
-166.91
-167.47
-165.92
-161.58
-157.72
-156.64
-157.71
-158.32
-156.32
-151.28
-144.74
-139.79
-120.24
-80.89
-28.28
25.28
70.68
104.48
126.18
136.19
136.32
131.39
125.51
124.09
131.06
148.33
172.55
197.00
215.27
224.16
224.90
218.70
202.64
180.02
154.13
126.49
98.45
73.58
53.84
41.14
34.18
30.27
27.81
25.56
23.19
21.35
21.02
22.39
24.98
26.60
25.14
20.28
12.86
4.78
-1.49
-3.61
-0.53
7.36
17.78
27.68
34.87
38.16
37.85
35.75
34.75
37.37
44.83
56.31
69.06
79.21
82.27
74.33
53.33
20.64
-19.59
-61.48
-99.13
-128.11
-146.28
-154.26
-154.54
-150.08
-142.03
-130.59
-115.88
-98.65
-79.96
-60.56
-40.54
-19.43
3.50
29.86
60.01
92.36
123.86
151.55
173.55
188.91
197.07
189.60
162.06
118.09
68.70
24.98
-7.19
-27.19
-37.62
-42.05
-44.59
-45.42
-44.27
-42.12
-41.60
-45.61
-55.69
-71.36
-90.55
-107.82
-117.49
-116.20
-104.09
-84.35
-61.24
-38.30
-17.73
-0.69
12.18
20.88
25.66
27.21
26.87
26.64
28.51
33.45
40.91
49.14
56.15
60.43
61.40
59.37
55.23
50.04
44.55
39.05
33.59
28.10
22.62
17.30
12.32
7.82
3.71
-0.35
-4.92
-10.51
-17.32
-25.15
-33.45
-41.67
-49.66
-57.64
-65.67
-73.16
-78.43
-79.09
-72.83
-58.54
-36.84
-10.06
18.34
44.59
65.22
77.33
78.98
69.57
50.39
24.82
-2.37
-26.30
-43.70
-53.86
-58.47
-60.24
-61.33
-62.24
-61.97
-58.92
-52.04
-41.42
-28.03
-13.08
2.62
18.76
35.14
51.23
65.93
77.84
85.69
88.69
86.66
79.89
69.00
54.78
38.24
20.56
2.99
-13.32
-27.46
-38.75
-46.73
-51.08
-51.65
-48.67
-42.92
-35.72
-28.74
-23.49
-20.82
-20.68
-22.25
-24.40
-26.25
-27.59
-28.79
-30.60
-33.61
-37.93
-43.17
-48.53
-53.09
-55.87
-55.80
-51.61
-42.07
-26.58
-5.79
18.04
41.44
60.77
73.49
78.99
78.45
74.02
67.76
60.95
54.10
47.44
41.38
36.56
33.48
32.02
31.44
30.65
28.88
25.99
22.47
18.99
16.03
13.59
11.34
9.03
6.70
4.79
3.93
4.68
7.20
11.20
16.01
20.75
24.65
27.16
28.14
27.85
26.89
26.08
26.21
27.82
31.14
35.92
41.50
46.89
50.92
52.55
51.16
46.74
39.91
31.63
22.83
14.14
5.81
-2.11
-9.47
-15.99
-21.41
-25.76
-29.56
-33.66
-38.80
-45.12
-51.95
-57.96
-61.70
-62.11
-58.98
-52.85
-44.80
-36.03
-27.58
-20.15
-14.06
-9.28
-5.46
-2.10
1.33
5.10
9.13
13.01
16.10
17.91
18.26
17.33
15.55
13.36
11.08
8.88
6.82
4.92
3.17
1.55
0.05
-1.27
-2.30
-2.89
-3.00
-2.81
-2.74
-3.22
-4.47
-6.32
-8.28
-9.82
-10.68
-10.99
-11.15
-11.55
-12.47
-14.03
-16.33
-19.43
-23.31
-27.71
-32.02
-35.43
-37.27
-37.17
-35.27
-31.99
-27.79
-22.88
-17.26
-10.99
-4.37
1.95
7.26
11.12
13.63
15.44
17.40
20.11
23.63
27.43
30.75
32.95
33.85
33.71
33.06
32.38
31.88
31.51
31.09
30.52
29.78
28.98
28.16
27.15
25.62
23.12
19.27
14.05
7.83
1.40
-4.39
-8.97
-12.34
-15.09
-18.09
-22.04
-27.21
-33.33
-39.84
-46.14
-51.75
-56.27
-59.34
-60.63
-59.98
-57.58
-53.95
-49.81
-45.72
-41.92
-38.28
-34.41
-29.97
-24.72
-18.60
-11.71
-4.30
3.23
10.29
16.36
21.09
24.42
26.68
28.41
30.23
32.62
35.87
39.90
44.25
48.07
50.25
49.80
46.25
39.91
31.94
23.93
17.32
12.94
10.82
10.35
10.67
11.05
10.93
9.94
7.79
4.26
-0.57
-6.10
-11.32
-15.10
-16.77
-16.43
-14.96
-13.65
-13.52
-14.91
-17.43
-20.31
-22.74
-24.27
-24.80
-24.39
-23.19
-21.27
-18.78
-15.93
-13.05
-10.32
-7.65
-4.71
-1.11
3.36
8.62
14.29
19.94
25.13
29.51
32.73
34.42
34.31
32.39
29.02
24.78
20.27
15.77
11.19
6.33
1.09
-4.25
-9.25
-13.54
-17.21
-20.70
-24.65
-29.48
-35.26
-41.71
-48.35
-54.71
-60.31
-64.66
-67.26
-67.71
-65.89
-62.13
-57.11
-51.60
-46.24
-41.23
-36.46
-31.64
-26.54
-21.10
-15.51
-10.16
-5.45
-1.63
1.42
4.22
7.58
12.26
18.65
26.47
34.87
42.63
48.67
52.42
53.98
54.01
53.34
52.51
51.56
50.02
47.31
43.05
37.40
31.00
24.64
18.92
13.99
9.58
5.17
0.38
-4.88
-10.37
-15.66
-20.36
-24.21
-27.08
-28.85
-29.28
-28.04
-24.84
-19.62
-12.65
-4.57
3.84
11.84
18.93
24.85
29.56
33.17
35.79
37.64
38.93
39.82
40.40
40.57
40.17
39.09
37.37
35.26
33.13
31.38
30.16
29.32
28.43
26.96
24.53
21.13
17.13
13.13
9.70
7.14
5.39
4.14
3.09
2.05
0.99
-0.06
-1.21
-2.64
-4.71
-7.68
-11.68
-16.67
-22.46
-28.77
-35.18
-41.14
-45.96
-48.94
-49.45
-47.15
-42.10
-34.79
-26.18
-17.49
-10.09
-5.09
-3.08
-3.75
-6.03
-8.35
-9.35
-8.44
-6.08
-3.46
-1.85
-1.95
-3.54
-5.66
-7.22
-7.56
-6.71
-5.28
-4.02
-3.38
-3.40
-3.73
-3.92
-3.62
-2.66
-1.06
1.10
3.65
6.37
8.89
10.73
11.36
10.45
8.00
4.42
0.43
-3.37
-6.59
-9.37
-12.16
-15.48
-19.64
-24.52
-29.76
-34.82
-39.24
-42.61
-44.60
-44.81
-42.90
-38.76
-32.69
-25.45
-18.11
-11.76
-7.08
-4.10
-2.23
-0.45
2.21
6.42
12.30
19.38
26.79
33.42
38.25
40.67
40.66
38.83
36.25
34.06
33.05
33.47
34.99
37.04
39.13
41.11
43.03
44.87
46.23
46.32
44.28
39.57
32.33
23.35
13.72
4.43
-3.86
-10.91
-16.81
-21.83
-26.40
-31.02
-36.10
-41.80
-47.89
-53.73
-58.57
-61.82
-63.33
-63.33
-62.22
-60.26
-57.50
-53.83
-49.20
-43.78
-37.97
-32.23
-26.89
-22.03
-17.49
-12.94
-8.14
-2.96
2.44
7.73
12.44
16.08
18.29
18.95
18.29
16.87
15.41
14.56
14.61
15.39
16.40
17.01
16.81
15.74
13.99
11.86
9.46
6.70
3.37
-0.67
-5.25
-9.87
-13.85
-16.59
-17.78
-17.46
-15.88
-13.36
-10.06
-6.04
-1.27
4.23
10.40
17.14
24.43
32.27
40.58
49.16
57.67
65.74
73.20
80.00
86.18
91.59
95.77
97.97
97.49
93.87
87.23
78.16
67.53
56.28
45.12
34.48
24.54
15.42
7.16
-0.06
-6.05
-10.73
-14.24
-17.04
-19.67
-22.61
-25.94
-29.38
-32.41
-34.58
-35.83
-36.44
-36.95
-37.83
-39.40
-41.70
-44.57
-47.75
-50.92
-53.90
-56.55
-58.90
-60.92
-62.52
-63.44
-63.33
-61.95
-59.30
-55.71
-51.65
-47.51
-43.42
-39.27
-34.87
-30.22
-25.53
-21.15
-17.40
-14.41
-12.09
-10.27
-8.77
-7.53
-6.58
-5.96
-5.62
-5.45
-5.25
-4.82
-4.04
-2.82
-1.11
1.17
4.13
7.93
12.70
18.37
24.62
30.88
36.57
41.28
44.95
47.87
50.33
52.36
53.50
52.82
49.35
42.54
32.61
20.53
7.77
-4.26
-14.51
-22.50
-28.18
-31.76
-33.51
-33.65
-32.37
-29.80
-26.20
-21.85
-17.12
-12.36
-7.91
-3.95
-0.52
2.52
5.49
8.82
12.92
18.00
23.99
30.45
36.67
41.95
45.74
47.87
48.48
47.98
46.87
45.60
44.55
43.89
43.63
43.52
43.17
42.16
40.24
37.45
34.07
30.52
27.09
23.79
20.35
16.37
11.49
5.60
-1.16
-8.50
-16.10
-23.71
-31.09
-38.01
-44.11
-49.00
-52.31
-53.82
-53.55
-51.68
-48.55
-44.55
-40.03
-35.32
-30.73
-26.45
-22.62
-19.24
-16.20
-13.34
-10.41
-7.18
-3.40
1.01
5.94
10.98
15.46
18.69
20.18
19.96
18.64
17.19
16.57
17.34
19.41
22.20
24.85
26.65
27.20
26.45
24.53
21.51
17.47
12.55
7.15
2.00
-2.11
-4.64
-5.64
-5.78
-6.16
-7.86
-11.48
-17.02
-23.94
-31.43
-38.72
-45.24
-50.66
-54.76
-57.41
-58.47
-57.88
-55.64
-51.90
-46.93
-41.08
-34.73
-28.21
-21.81
-15.72
-10.14
-5.17
-0.89
2.73
5.86
8.79
11.83
15.25
19.23
23.84
29.07
34.85
41.03
47.35
53.44
58.90
63.36
66.57
68.33
68.51
66.97
63.62
58.57
52.19
45.12
38.01
31.37
25.33
19.75
14.32
8.80
3.05
-2.91
-9.13
-15.71
-22.77
-30.28
-37.87
-44.89
-50.59
-54.44
-56.31
-56.48
-55.53
-53.99
-52.19
-50.18
-47.86
-45.12
-41.97
-38.55
-35.03
-31.58
-28.29
-25.22
-22.45
-20.03
-17.99
-16.29
-14.82
-13.49
-12.25
-11.13
-10.20
-9.40
-8.57
-7.49
-6.02
-4.23
-2.42
-0.99
-0.24
-0.18
-0.54
-0.80
-0.39
1.12
3.99
8.21
13.55
19.60
25.75
31.30
35.50
37.82
38.03
36.30
33.15
29.26
25.29
21.75
18.97
17.19
16.61
17.36
19.44
22.58
26.33
30.14
33.56
36.34
38.51
40.18
41.45
42.28
42.47
41.78
39.99
37.05
33.11
28.53
23.84
19.59
16.17
13.62
11.72
10.01
8.13
5.91
3.45
0.99
-1.31
-3.47
-5.66
-8.14
-11.05
-14.30
-17.63
-20.65
-23.04
-24.63
-25.52
-26.07
-26.71
-27.81
-29.41
-31.20
-32.77
-33.75
-34.05
-33.75
-32.93
-31.54
-29.39
-26.25
-22.14
-17.44
-12.80
-8.96
-6.44
-5.41
-5.71
-6.94
-8.64
-10.39
-11.87
-12.96
-13.70
-14.27
-14.89
-15.62
-16.32
-16.64
-16.25
-14.93
-12.75
-10.08
-7.30
-4.61
-1.83
1.61
6.43
13.26
22.28
33.18
45.08
56.78
66.91
74.16
77.41
75.96
69.76
59.63
47.14
34.16
22.36
12.62
4.88
-1.63
-7.89
-14.48
-21.40
-28.22
-34.45
-39.93
-44.87
-49.53
-53.94
-57.69
-60.06
-60.40
-58.45
-54.53
-49.37
-43.89
-38.86
-34.68
-31.37
-28.68
-26.27
-23.86
-21.34
-18.63
-15.76
-12.67
-9.22
-5.27
-0.70
4.51
10.29
16.44
22.76
29.08
35.31
41.36
47.22
52.76
57.79
61.99
64.96
66.30
65.79
63.51
59.94
55.85
52.12
49.44
48.08
47.80
47.92
47.59
46.14
43.15
38.65
32.86
26.17
18.97
11.62
4.55
-1.84
-7.17
-11.30
-14.33
-16.55
-18.28
-19.68
-20.71
-21.17
-20.89
-19.89
-18.42
-16.88
-15.55
-14.52
-13.61
-12.53
-10.99
-8.84
-6.09
-2.84
0.79
4.68
8.65
12.41
15.58
17.79
18.78
18.54
17.19
14.94
11.94
8.22
3.78
-1.30
-6.77
-12.20
-17.08
-21.02
-23.93
-26.10
-28.09
-30.53
-33.85
-38.09
-42.96
-47.96
-52.63
-56.73
-60.16
-62.95
-65.04
-66.26
-66.43
-65.44
-63.36
-60.40
-56.79
-52.68
-48.04
-42.68
-36.38
-29.09
-20.96
-12.34
-3.71
4.56
12.35
19.84
27.49
35.76
44.85
54.56
64.31
73.27
80.63
85.68
87.97
87.39
84.25
79.32
73.70
68.45
64.17
60.87
57.91
54.45
49.94
44.32
38.08
31.83
25.88
20.14
14.17
7.53
0.01
-8.29
-17.13
-26.32
-35.75
-45.37
-54.98
-64.09
-72.03
-78.05
-81.61
-82.59
-81.32
-78.44
-74.60
-70.23
-65.37
-59.77
-53.15
-45.37
-36.64
-27.36
-18.01
-8.91
-0.16
8.25
16.27
23.77
30.51
36.26
40.91
44.45
46.93
48.36
48.78
48.35
47.32
46.11
45.04
44.19
43.31
41.94
39.60
36.11
31.61
26.57
21.55
16.94
12.91
9.34
5.99
2.61
-1.01
-4.94
-9.16
-13.52
-17.85
-21.92
-25.62
-28.87
-31.74
-34.31
-36.66
-38.82
-40.72
-42.23
-43.20
-43.54
-43.13
-41.84
-39.47
-35.83
-30.87
-24.77
-17.96
-10.99
-4.40
1.51
6.65
11.06
14.78
17.81
20.17
22.03
23.83
26.15
29.58
34.37
40.32
46.69
52.47
56.58
58.05
56.21
50.77
41.97
30.58
17.90
5.48
-5.22
-13.28
-18.52
-21.41
-22.86
-23.79
-24.89
-26.55
-28.88
-31.90
-35.61
-39.85
-44.33
-48.64
-52.33
-55.13
-56.91
-57.70
-57.46
-55.90
-52.50
-46.57
-37.62
-25.67
-11.54
3.17
16.26
25.60
29.76
28.77
24.33
19.46
17.53
21.05
30.73
45.15
61.03
74.21
80.84
78.56
67.27
49.23
28.40
9.32
-4.35
-10.74
-10.19
-4.81
2.36
8.14
9.90
5.91
-4.34
-19.76
-37.58
-53.75
-64.06
-65.59
-58.00
-43.75
-27.34
-13.55
-5.64
-4.24
-7.59
-12.73
-17.08
-19.62
-20.89
-22.16
-24.22
-26.67
-28.02
-26.60
-21.47
-12.93
-2.16
9.43
20.90
31.88
42.24
51.67
59.53
65.03
67.76
67.88
66.16
63.58
60.96
58.73
56.90
55.20
53.20
50.40
46.40
41.00
34.37
27.02
19.69
13.10
7.60
3.05
-1.08
-5.39
-10.18
-15.24
-19.96
-23.62
-25.80
-26.68
-26.88
-27.18
-28.18
-29.99
-32.35
-34.81
-37.09
-39.18
-41.25
-43.37
-45.31
-46.51
-46.26
-44.05
-39.83
-34.13
-27.88
-22.09
-17.47
-14.19
-11.84
-9.54
-6.39
-1.78
4.25
11.01
17.39
22.17
24.48
24.00
21.05
16.44
11.28
6.64
3.32
1.56
1.02
0.98
0.60
-0.66
-2.83
-5.37
-7.48
-8.41
-7.84
-5.93
-3.26
-0.53
1.68
3.06
3.54
3.14
1.94
0.07
-2.16
-4.27
-5.74
-6.27
-6.00
-5.51
-5.52
-6.48
-8.35
-10.63
-12.66
-14.01
-14.60
-14.67
-14.42
-13.79
-12.46
-10.09
-6.56
-2.16
2.51
6.80
10.28
12.79
14.47
15.63
16.50
17.23
17.79
18.03
17.71
16.55
14.32
10.93
6.49
1.27
-4.34
-10.03
-15.68
-21.24
-26.72
-32.00
-36.77
-40.65
-43.34
-44.71
-44.87
-44.05
-42.50
-40.37
-37.76
-34.78
-31.59
-28.44
-25.50
-22.82
-20.26
-17.56
-14.51
-11.09
-7.64
-4.76
-3.08
-3.01
-4.50
-7.03
-9.81
-12.07
-13.32
-13.43
-12.57
-11.09
-9.36
-7.69
-6.28
-5.21
-4.44
-3.79
-3.03
-1.91
-0.30
1.79
4.19
6.67
8.97
10.85
12.15
12.71
12.48
11.49
9.95
8.16
6.47
5.19
4.46
4.22
4.23
4.24
4.09
3.93
4.15
5.24
7.60
11.33
16.15
21.47
26.51
30.54
33.09
34.00
33.45
31.83
29.62
27.22
24.90
22.79
20.96
19.45
18.32
17.61
17.27
17.21
17.27
17.33
17.31
17.19
16.92
16.45
15.71
14.59
13.07
11.16
8.88
6.20
3.00
-0.91
-5.62
-10.99
-16.56
-21.62
-25.45
-27.53
-27.77
-26.48
-24.19
-21.35
-18.18
-14.72
-10.94
-6.90
-2.85
0.96
4.34
7.31
10.01
12.59
15.03
17.16
18.74
19.64
19.96
19.91
19.77
19.62
19.31
18.61
17.27
15.28
12.81
10.18
7.68
5.45
3.46
1.57
-0.38
-2.55
-4.99
-7.72
-10.70
-13.87
-17.11
-20.29
-23.26
-25.85
-27.93
-29.38
-30.13
-30.10
-29.31
-27.84
-25.81
-23.36
-20.50
-17.21
-13.40
-9.05
-4.27
0.68
5.46
9.72
13.26
16.04
18.14
19.70
20.82
21.50
21.71
21.40
20.55
19.20
17.44
15.45
13.44
11.63
10.24
9.40
9.10
9.13
9.14
8.72
7.51
5.38
2.40
-1.17
-4.98
-8.69
-12.03
-14.83
-17.04
-18.80
-20.38
-22.08
-24.07
-26.25
-28.19
-29.29
-28.98
-26.96
-23.25
-18.10
-11.86
-4.86
2.55
9.99
17.03
23.26
28.47
32.80
36.67
40.51
44.55
48.58
52.08
54.51
55.59
55.58
55.09
54.80
55.11
55.91
56.71
56.94
56.34
55.13
54.02
53.75
54.78
56.97
59.65
62.00
63.54
64.59
66.19
69.71
76.12
85.40
96.11
105.69
110.80
108.00
94.32
67.89
28.63
-21.23
-76.95
-131.72
-177.98
-209.29
-222.27
-217.61
-199.65
-174.64
-148.46
-124.97
-105.51
-89.73
-76.83
-66.44
-58.62
-53.09
-48.58
-42.82
-33.39
-18.99
-0.52
18.87
34.90
43.97
44.76
38.82
29.85
22.13
18.68
20.11
24.62
29.06
30.38
26.91
18.72
7.29
-5.40
-17.64
-28.44
-37.41
-44.45
-49.45
-52.23
-52.55
-50.42
-46.25
-41.07
-36.19
-32.83
-31.56
-32.06
-33.24
-33.60
-31.90
-27.53
-20.62
-11.81
-1.92
8.38
18.66
28.64
37.98
46.28
53.15
58.32
61.84
63.98
65.15
65.69
65.77
65.38
64.45
62.91
60.80
58.31
55.70
53.17
50.76
48.30
45.43
41.74
37.06
31.45
25.29
19.03
12.99
7.19
1.39
-4.77
-11.45
-18.45
-25.23
-31.06
-35.36
-37.94
-39.15
-39.71
-40.39
-41.76
-43.89
-46.51
-49.10
-51.19
-52.52
-52.97
-52.46
-50.87
-48.00
-43.73
-38.19
-31.78
-25.12
-18.81
-13.25
-8.58
-4.68
-1.33
1.65
4.37
6.87
9.20
11.45
13.73
16.06
18.35
20.35
21.79
22.50
22.59
22.40
22.40
22.98
24.21
25.74
27.01
27.40
26.53
24.37
21.16
17.36
13.46
9.88
6.94
4.82
3.53
2.88
2.55
2.09
1.12
-0.59
-3.06
-6.13
-9.53
-13.01
-16.35
-19.27
-21.45
-22.55
-22.26
-20.54
-17.67
-14.20
-10.80
-8.04
-6.28
-5.63
-6.03
-7.33
-9.09
-10.46
-10.20
-6.99
-0.00
10.54
23.24
35.94
46.46
53.43
56.57
56.60
54.62
51.58
47.96
43.82
39.05
33.61
27.57
21.13
14.54
8.01
1.75
-4.14
-9.69
-14.95
-19.87
-24.19
-27.39
-28.85
-28.15
-25.29
-20.70
-15.17
-9.56
-4.69
-1.28
-0.06
-1.74
-6.81
-15.08
-25.40
-35.70
-43.52
-46.83
-44.81
-38.19
-28.92
-19.52
-12.09
-7.76
-6.48
-7.36
-9.19
-10.88
-11.72
-11.40
-9.79
-6.90
-2.84
2.03
7.02
11.15
13.49
13.55
11.68
9.00
7.05
7.13
9.71
14.16
19.08
22.86
24.37
23.35
20.43
16.71
13.25
10.71
9.19
8.35
7.70
6.73
5.10
2.50
-1.35
-6.77
-13.98
-22.90
-32.92
-42.84
-51.11
-56.14
-56.91
-53.25
-45.88
-36.05
-25.03
-13.63
-2.10
9.70
21.81
33.66
43.95
50.91
52.90
49.11
39.91
26.85
12.20
-1.71
-13.18
-21.35
-26.19
-28.08
-27.42
-24.44
-19.25
-12.08
-3.51
5.35
13.08
18.29
20.09
18.40
14.00
8.33
3.06
-0.64
-2.65
-4.03
-6.49
-11.62
-20.10
-31.51
-44.49
-57.24
-68.02
-75.74
-79.75
-79.65
-75.52
-68.38
-60.44
-54.49
-52.53
-54.42
-57.95
-59.51
-55.71
-44.95
-28.40
-9.57
7.44
19.95
27.80
32.37
35.53
38.27
40.10
39.13
32.73
19.28
-0.80
-21.67
-36.49
-40.97
-35.63
-23.37
-5.99
16.04
42.00
69.05
92.24
105.66
105.80
93.80
75.27
57.49
45.47
40.83
41.77
45.95
51.06
55.36
57.68
57.16
53.16
44.83
31.91
14.81
-5.37
-27.43
-50.06
-71.78
-91.29
-104.91
-110.36
-106.78
-94.84
-76.26
-53.52
-29.37
-6.40
13.18
27.81
36.33
38.64
35.69
29.23
21.18
13.25
6.64
2.08
-0.12
-0.37
0.63
2.11
3.49
4.47
5.08
5.53
6.08
6.89
7.77
8.45
8.73
8.47
7.70
6.52
5.08
3.51
2.02
0.65
-0.58
-1.75
-2.96
-4.24
-5.49
-6.44
-6.70
-5.93
-4.02
-1.11
2.48
6.40
10.38
14.29
18.06
21.61
24.76
27.30
29.05
29.92
29.97
29.38
28.36
27.11
25.78
24.44
23.12
21.81
20.46
19.04
17.51
15.83
13.96
11.89
9.66
7.37
5.15
3.18
1.53
0.18
-1.01
-2.25
-3.75
-5.63
-7.91
-10.47
-13.17
-15.85
-18.48
-21.06
-23.69
-26.30
-28.68
-30.45
-31.12
-30.34
-28.06
-24.52
-20.20
-15.59
-11.06
-6.72
-2.55
1.53
5.55
9.38
12.81
15.65
17.73
19.05
19.67
19.74
19.37
18.68
17.74
16.65
15.51
14.41
13.42
12.52
11.66
10.78
9.80
8.69
7.35
5.71
3.71
1.40
-1.08
-3.50
-5.64
-7.46
-9.04
-10.58
-12.30
-14.35
-16.74
-19.44
-22.23
-24.81
-26.81
-27.85
-27.66
-26.16
-23.50
-19.95
-15.81
-11.27
-6.47
-1.50
3.46
8.21
12.48
16.07
18.88
20.89
22.15
22.75
22.81
22.48
21.95
21.33
20.66
19.87
18.82
17.46
15.82
14.10
12.56
11.36
10.48
9.72
8.83
7.61
6.08
4.41
2.84
1.54
0.53
-0.31
-1.18
-2.21
-3.44
-4.79
-6.15
-7.40
-8.42
-9.09
-9.16
-8.31
-6.06
-1.92
4.49
13.27
24.20
36.72
50.04
63.25
75.39
85.44
92.41
95.46
94.14
88.67
79.92
69.26
58.17
47.73
38.39
29.83
21.40
12.41
2.68
-7.38
-16.92
-24.99
-31.01
-35.00
-37.55
-39.52
-41.70
-44.45
-47.67
-50.96
-53.86
-56.06
-57.50
-58.25
-58.45
-58.20
-57.57
-56.59
-55.40
-54.21
-53.35
-53.03
-53.24
-53.60
-53.47
-52.11
-49.06
-44.24
-38.08
-31.23
-24.37
-17.96
-12.17
-6.91
-2.04
2.55
6.89
10.82
14.17
16.78
18.56
19.54
19.89
19.84
19.63
19.43
19.29
19.15
18.89
18.44
17.77
16.93
15.98
14.94
13.84
12.63
11.30
9.85
8.27
6.53
4.60
2.49
0.28
-1.88
-3.85
-5.57
-7.14
-8.82
-10.83
-13.29
-16.12
-19.07
-21.81
-24.01
-25.45
-25.91
-25.23
-23.25
-19.94
-15.40
-9.94
-4.00
1.98
7.59
12.55
16.74
20.15
22.82
24.85
26.30
27.26
27.76
27.82
27.44
26.61
25.36
23.77
21.99
20.17
18.48
17.04
15.85
14.82
13.78
12.54
11.00
9.17
7.18
5.21
3.40
1.78
0.28
-1.25
-2.92
-4.80
-6.88
-9.12
-11.45
-13.76
-15.96
-18.01
-19.93
-21.81
-23.71
-25.59
-27.21
-28.18
-28.08
-26.66
-23.92
-20.17
-15.81
-11.29
-6.87
-2.70
1.18
4.76
7.97
10.73
12.92
14.40
15.09
15.01
14.33
13.37
12.47
11.87
11.60
11.50
11.30
10.82
10.00
8.93
7.78
6.68
5.70
4.83
4.01
3.21
2.40
1.55
0.61
-0.53
-1.89
-3.48
-5.14
-6.69
-7.96
-8.91
-9.66
-10.43
-11.37
-12.57
-13.91
-15.24
-16.40
-17.33
-18.01
-18.36
-18.23
-17.38
-15.61
-12.89
-9.33
-5.29
-1.13
2.79
6.24
9.08
11.31
12.97
14.16
14.94
15.32
15.31
14.87
14.07
13.01
11.86
10.71
9.65
8.65
7.67
6.68
5.66
4.61
3.51
2.38
1.21
0.01
-1.22
-2.48
-3.85
-5.42
-7.23
-9.23
-11.31
-13.33
-15.18
-16.84
-18.37
-19.85
-21.41
-23.09
-24.89
-26.72
-28.35
-29.50
-29.82
-29.04
-27.01
-23.78
-19.53
-14.60
-9.30
-3.97
1.12
5.78
9.91
13.51
16.68
19.52
22.08
24.32
26.12
27.33
27.88
27.79
27.14
26.06
24.66
23.09
21.48
20.00
18.78
17.79
16.89
15.82
14.36
12.41
10.04
7.47
4.94
2.60
0.50
-1.41
-3.21
-4.97
-6.75
-8.60
-10.57
-12.70
-15.03
-17.48
-19.93
-22.21
-24.14
-25.67
-26.77
-27.45
-27.64
-27.19
-25.85
-23.50
-20.14
-16.03
-11.57
-7.15
-3.06
0.56
3.70
6.38
8.62
10.43
11.86
13.02
14.03
14.95
15.71
16.19
16.24
15.83
15.12
14.33
13.67
13.18
12.76
12.24
11.54
10.68
9.80
9.05
8.46
7.93
7.24
6.24
4.87
3.23
1.51
-0.10
-1.53
-2.86
-4.24
-5.82
-7.71
-9.89
-12.34
-14.99
-17.76
-20.52
-23.09
-25.13
-26.34
-26.43
-25.28
-22.95
-19.63
-15.60
-11.15
-6.58
-2.17
1.85
5.29
8.09
10.30
11.97
13.20
14.06
14.59
14.86
14.96
14.93
14.83
14.61
14.26
13.79
13.28
12.79
12.38
12.03
11.60
10.96
10.05
8.89
7.65
6.45
5.38
4.38
3.29
1.91
0.13
-2.02
-4.40
-6.78
-9.03
-11.09
-13.07
-15.11
-17.34
-19.81
-22.45
-25.13
-27.65
-29.76
-31.20
-31.69
-31.00
-29.02
-25.86
-21.81
-17.26
-12.61
-8.11
-3.96
-0.22
3.09
5.94
8.36
10.42
12.21
13.78
15.14
16.21
16.85
16.97
16.58
15.76
14.71
13.63
12.69
11.99
11.53
11.21
10.90
10.44
9.72
8.71
7.42
5.92
4.32
2.67
1.03
-0.60
-2.24
-3.92
-5.66
-7.46
-9.35
-11.35
-13.54
-15.96
-18.62
-21.32
-23.77
-25.58
-26.43
-26.16
-24.78
-22.46
-19.36
-15.66
-11.45
-6.91
-2.25
2.23
6.23
9.54
12.15
14.18
15.83
17.28
18.59
19.69
20.43
20.70
20.47
19.83
18.89
17.77
16.56
15.28
13.98
12.71
11.48
10.30
9.07
7.65
5.86
3.65
1.05
-1.74
-4.47
-6.89
-8.88
-10.43
-11.68
-12.85
-14.15
-15.78
-17.84
-20.35
-23.17
-26.04
-28.60
-30.41
-31.17
-30.68
-28.98
-26.28
-22.84
-18.93
-14.74
-10.47
-6.31
-2.50
0.74
3.34
5.31
6.84
8.12
9.26
10.25
10.96
11.27
11.14
10.64
9.90
9.11
8.44
8.03
7.95
8.19
8.60
9.00
9.15
8.89
8.15
7.02
5.71
4.45
3.39
2.57
1.83
0.89
-0.56
-2.70
-5.48
-8.61
-11.64
-14.26
-16.38
-18.20
-20.01
-22.01
-24.07
-25.77
-26.57
-26.02
-23.95
-20.50
-16.04
-11.09
-6.22
-2.09
0.71
1.79
1.19
-0.45
-1.99
-2.21
-0.26
3.95
9.63
15.43
19.92
22.01
21.31
18.04
12.87
6.60
0.08
-5.98
-10.91
-14.21
-15.58
-15.05
-13.03
-10.25
-7.58
-5.72
-5.08
-5.60
-6.89
-8.37
-9.51
-10.00
-9.85
-9.28
-8.67
-8.39
-8.70
-9.71
-11.40
-13.57
-15.95
-18.21
-20.03
-21.10
-21.22
-20.25
-18.20
-15.11
-11.14
-6.48
-1.35
3.98
9.19
13.92
17.90
20.91
22.93
24.15
24.84
25.33
25.80
26.27
26.58
26.56
26.12
25.34
24.41
23.53
22.79
22.17
21.54
20.77
19.84
18.81
17.77
16.77
15.81
14.81
13.67
12.31
10.71
8.94
7.05
5.14
3.25
1.36
-0.60
-2.78
-5.30
-8.28
-11.67
-15.34
-19.00
-22.29
-24.81
-26.23
-26.39
-25.28
-23.04
-19.85
-15.93
-11.46
-6.58
-1.48
3.65
8.56
13.02
16.80
19.79
21.98
23.42
24.27
24.71
24.86
24.86
24.75
24.55
24.26
23.86
23.30
22.56
21.61
20.47
19.18
17.81
16.38
14.91
13.34
11.64
9.83
7.96
6.11
4.33
2.63
0.96
-0.70
-2.38
-4.11
-5.94
-7.91
-10.07
-12.44
-14.96
-17.54
-20.00
-22.11
-23.60
-24.22
-23.75
-22.15
-19.56
-16.25
-12.49
-8.51
-4.39
-0.15
4.13
8.29
12.11
15.40
18.07
20.16
21.79
23.00
23.81
24.16
24.04
23.54
22.82
22.05
21.26
20.37
19.19
17.61
15.66
13.53
11.46
9.62
8.05
6.63
5.19
3.54
1.62
-0.55
-2.81
-5.01
-6.98
-8.65
-10.03
-11.18
-12.28
-13.47
-14.91
-16.68
-18.72
-20.85
-22.79
-24.13
-24.50
-23.65
-21.53
-18.31
-14.36
-10.05
-5.68
-1.46
2.53
6.22
9.53
12.36
14.65
16.43
17.79
18.86
19.76
20.47
20.98
21.20
21.14
20.84
20.36
19.77
19.05
18.16
17.00
15.53
13.76
11.76
9.63
7.48
5.36
3.23
1.02
-1.39
-4.01
-6.79
-9.58
-12.22
-14.61
-16.76
-18.77
-20.76
-22.80
-24.92
-27.06
-29.09
-30.79
-31.85
-31.90
-30.63
-27.85
-23.64
-18.30
-12.32
-6.19
-0.30
5.17
10.22
14.91
19.32
23.44
27.15
30.31
32.73
34.35
35.19
35.37
35.01
34.25
33.11
31.59
29.71
27.53
25.14
22.61
19.98
17.21
14.26
11.17
8.01
4.89
1.82
-1.27
-4.50
-7.96
-11.59
-15.24
-18.70
-21.80
-24.52
-26.94
-29.19
-31.34
-33.43
-35.40
-37.11
-38.36
-38.90
-38.47
-36.87
-34.05
-30.09
-25.20
-19.64
-13.71
-7.71
-1.91
3.45
8.21
12.35
15.94
19.09
21.88
24.30
26.20
27.42
27.81
27.36
26.15
24.33
22.12
19.72
17.35
15.13
13.17
11.43
9.81
8.18
6.42
4.50
2.44
0.30
-1.87
-4.02
-6.13
-8.15
-10.05
-11.77
-13.36
-14.92
-16.65
-18.70
-21.07
-23.59
-25.91
-27.66
-28.53
-28.39
-27.20
-25.08
-22.14
-18.53
-14.42
-10.02
-5.54
-1.20
2.86
6.60
10.04
13.24
16.20
18.88
21.18
22.99
24.25
24.96
25.18
25.02
24.62
24.11
23.57
23.02
22.37
21.49
20.24
18.59
16.62
14.48
12.31
10.07
7.64
4.80
1.51
-2.14
-5.85
-9.28
-12.21
-14.61
-16.68
-18.68
-20.93
-23.54
-26.45
-29.37
-31.88
-33.57
-34.13
-33.47
-31.68
-28.97
-25.51
-21.43
-16.79
-11.72
-6.38
-1.00
4.21
9.14
13.74
18.03
21.97
25.46
28.36
30.54
31.95
32.64
32.75
32.43
31.83
31.02
30.01
28.76
27.21
25.32
23.08
20.51
17.60
14.38
10.88
7.19
3.47
-0.11
-3.41
-6.41
-9.17
-11.84
-14.56
-17.39
-20.35
-23.38
-26.42
-29.42
-32.28
-34.84
-36.90
-38.21
-38.53
-37.72
-35.69
-32.51
-28.29
-23.27
-17.70
-11.91
-6.18
-0.69
4.48
9.30
13.77
17.81
21.28
24.03
26.01
27.27
27.97
28.31
28.43
28.36
28.10
27.55
26.67
25.41
23.80
21.85
19.61
17.16
14.60
12.07
9.64
7.34
5.08
2.75
0.19
-2.66
-5.74
-8.91
-11.97
-14.76
-17.28
-19.64
-22.08
-24.77
-27.70
-30.62
-33.10
-34.69
-35.09
-34.21
-32.20
-29.33
-25.83
-21.84
-17.43
-12.69
-7.76
-2.92
1.56
5.45
8.67
11.21
13.16
14.64
15.76
16.70
17.60
18.54
19.48
20.26
20.65
20.46
19.65
18.31
16.65
14.86
13.06
11.23
9.28
7.12
4.79
2.39
0.08
-2.01
-3.84
-5.51
-7.14
-8.86
-10.70
-12.63
-14.59
-16.56
-18.59
-20.73
-22.96
-25.12
-26.87
-27.83
-27.67
-26.23
-23.53
-19.76
-15.16
-10.01
-4.59
0.84
6.01
10.76
15.01
18.77
22.15
25.17
27.78
29.83
31.17
31.70
31.49
30.70
29.58
28.31
26.97
25.54
23.93
22.05
19.83
17.29
14.48
11.50
8.46
5.47
2.55
-0.29
-3.11
-5.92
-8.71
-11.42
-13.98
-16.35
-18.56
-20.68
-22.79
-24.93
-27.10
-29.24
-31.29
-33.16
-34.72
-35.73
-35.94
-35.09
-33.04
-29.85
-25.74
-21.04
-16.02
-10.83
-5.49
-0.02
5.50
10.83
15.69
19.80
23.02
25.38
27.07
28.26
29.09
29.54
29.52
28.91
27.65
25.80
23.54
21.08
18.61
16.20
13.81
11.34
8.73
6.04
3.45
1.20
-0.59
-1.98
-3.28
-4.78
-6.70
-9.01
-11.42
-13.61
-15.35
-16.60
-17.53
-18.40
-19.43
-20.75
-22.35
-24.11
-25.79
-27.08
-27.58
-27.00
-25.20
-22.26
-18.47
-14.19
-9.77
-5.40
-1.17
2.94
7.01
11.07
15.12
19.08
22.79
26.07
28.76
30.74
31.97
32.51
32.41
31.81
30.81
29.50
27.96
26.24
24.34
22.26
19.97
17.47
14.74
11.77
8.56
5.16
1.65
-1.82
-5.19
-8.43
-11.58
-14.74
-17.92
-21.06
-24.01
-26.69
-29.05
-31.19
-33.19
-35.07
-36.71
-37.91
-38.43
-38.08
-36.81
-34.64
-31.65
-27.99
-23.84
-19.43
-15.03
-10.88
-7.11
-3.77
-0.84
1.71
3.90
5.73
7.19
8.36
9.27
9.99
10.52
10.82
10.90
10.76
10.47
10.10
9.70
9.24
8.63
7.77
6.64
5.30
3.94
2.76
1.89
1.28
0.72
-0.13
-1.53
-3.53
-5.91
-8.31
-10.39
-11.99
-13.20
-14.29
-15.53
-17.08
-18.90
-20.78
-22.39
-23.38
-23.49
-22.56
-20.60
-17.75
-14.30
-10.56
-6.81
-3.22
0.14
3.25
6.10
8.60
10.68
12.21
13.17
13.60
13.66
13.53
13.39
13.37
13.46
13.61
13.73
13.77
13.77
13.79
13.91
14.13
14.36
14.46
14.33
13.95
13.46
13.02
12.75
12.64
12.54
12.21
11.49
10.32
8.78
7.02
5.13
3.13
0.95
-1.51
-4.26
-7.20
-10.11
-12.69
-14.66
-15.76
-15.80
-14.69
-12.43
-9.12
-5.02
-0.44
4.27
8.81
13.00
16.81
20.27
23.42
26.27
28.80
30.94
32.67
33.98
34.88
35.37
35.45
35.08
34.21
32.84
30.99
28.69
25.96
22.77
19.12
15.05
10.70
6.28
2.04
-1.85
-5.34
-8.55
-11.66
-14.83
-18.08
-21.29
-24.27
-26.89
-29.12
-31.07
-32.87
-34.64
-36.40
-38.09
-39.58
-40.64
-41.09
-40.68
-39.29
-36.86
-33.49
-29.32
-24.58
-19.46
-14.11
-8.68
-3.31
1.79
6.45
10.49
13.88
16.66
19.00
21.00
22.74
24.14
25.10
25.51
25.35
24.68
23.61
22.26
20.70
18.94
16.96
14.78
12.44
10.00
7.51
5.03
2.60
0.26
-1.96
-4.05
-6.07
-8.09
-10.21
-12.44
-14.77
-17.07
-19.23
-21.16
-22.83
-24.25
-25.44
-26.38
-26.99
-27.12
-26.57
-25.20
-22.95
-19.85
-16.04
-11.74
-7.15
-2.48
2.07
6.35
10.23
13.62
16.51
18.91
20.86
22.38
23.45
23.99
23.95
23.31
22.13
20.52
18.62
16.50
14.19
11.74
9.21
6.77
4.60
2.88
1.64
0.73
-0.10
-1.15
-2.60
-4.45
-6.53
-8.57
-10.35
-11.78
-12.97
-14.11
-15.46
-17.12
-19.06
-21.10
-23.02
-24.59
-25.68
-26.22
-26.12
-25.34
-23.80
-21.48
-18.44
-14.89
-11.04
-7.13
-3.32
0.34
3.83
7.17
10.36
13.40
16.30
19.07
21.72
24.21
26.49
28.43
29.94
31.00
31.65
31.98
32.08
32.02
31.76
31.25
30.43
29.25
27.73
25.85
23.62
21.04
18.17
15.08
11.92
8.84
5.95
3.27
0.79
-1.58
-3.94
-6.33
-8.76
-11.13
-13.25
-14.90
-15.86
-15.95
-15.05
-13.16
-10.34
-6.70
-2.47
2.01
6.31
10.01
12.73
14.28
14.70
14.22
13.10
11.59
9.86
8.01
6.13
4.32
2.71
1.39
0.37
-0.43
-1.17
-2.06
-3.22
-4.68
-6.38
-8.20
-10.03
-11.85
-13.73
-15.71
-17.85
-20.09
-22.33
-24.44
-26.34
-28.02
-29.54
-30.95
-32.28
-33.55
-34.74
-35.85
-36.89
-37.86
-38.65
-39.07
-38.83
-37.69
-35.54
-32.47
-28.70
-24.48
-20.00
-15.26
-10.23
-4.88
0.63
5.94
10.61
14.28
16.85
18.44
19.36
19.91
20.22
20.22
19.70
18.46
16.46
13.82
10.85
7.83
5.03
2.58
0.55
-1.08
-2.38
-3.49
-4.58
-5.82
-7.30
-9.00
-10.81
-12.56
-14.13
-15.55
-16.95
-18.53
-20.49
-22.95
-25.90
-29.23
-32.68
-35.96
-38.77
-40.90
-42.32
-43.11
-43.46
-43.50
-43.22
-42.43
-40.91
-38.56
-35.72
-33.36
-32.91
-35.81
-42.79
-53.20
-64.86
-74.73
-80.11
-79.69
-73.92
-64.41
-52.87
-40.20
-26.32
-10.56
7.73
28.85
52.86
79.60
108.42
137.65
164.00
182.92
189.83
182.09
160.52
129.68
96.53
67.96
48.40
38.64
36.17
36.76
36.43
32.85
25.65
15.88
5.06
-5.54
-15.07
-22.85
-28.17
-30.37
-29.11
-24.87
-19.00
-13.46
-10.19
-10.40
-14.03
-19.63
-24.76
-26.87
-24.28
-16.85
-6.07
5.61
15.83
23.17
27.49
29.70
31.13
32.99
36.19
41.36
48.90
58.79
70.31
81.99
91.99
98.76
101.75
101.65
99.98
98.18
96.76
95.04
91.57
85.07
75.26
63.12
50.51
39.25
30.46
24.23
19.92
16.67
13.77
10.80
7.52
3.71
-0.84
-6.13
-11.97
-18.12
-24.49
-31.35
-39.09
-47.78
-56.74
-64.44
-68.90
-68.50
-62.63
-52.06
-38.67
-24.94
-13.18
-5.03
-1.20
-1.53
-5.18
-10.99
-17.68
-24.13
-29.41
-32.96
-34.55
-34.50
-33.59
-32.95
-33.60
-36.04
-39.91
-44.09
-47.22
-48.41
-47.84
-46.72
-46.80
-49.53
-55.32
-63.44
-72.50
-81.35
-89.71
-98.07
-107.03
-116.45
-124.98
-130.38
-130.33
-123.14
-108.12
-85.45
-55.99
-21.49
14.81
47.87
71.49
80.38
72.71
51.68
24.86
1.26
-12.55
-15.16
-10.31
-4.30
-2.46
-6.54
-14.57
-22.77
-28.13
-29.92
-29.47
-28.66
-28.38
-28.06
-26.36
-22.47
-16.80
-10.95
-6.68
-4.91
-5.16
-5.93
-5.51
-2.84
2.02
8.14
14.22
19.30
23.16
26.29
29.71
34.41
40.99
49.32
58.51
67.12
73.62
76.89
76.66
73.51
68.53
62.89
57.41
52.50
48.19
44.46
41.31
38.67
36.29
33.61
29.86
24.43
17.19
8.70
0.08
-7.34
-12.49
-14.79
-14.29
-11.49
-7.05
-1.56
4.53
10.89
17.15
22.85
27.44
30.50
31.85
31.59
30.07
27.73
24.97
22.09
19.34
16.92
14.94
13.37
11.99
10.44
8.34
5.48
1.90
-2.19
-6.42
-10.47
-14.06
-17.10
-19.60
-21.73
-23.69
-25.65
-27.60
-29.30
-30.35
-30.41
-29.43
-27.75
-25.98
-24.63
-23.93
-23.64
-23.31
-22.54
-21.23
-19.41
-17.01
-13.62
-8.49
-0.89
9.50
22.27
36.36
50.43
63.20
73.72
81.47
86.23
88.09
87.55
85.39
82.66
80.24
78.52
77.21
75.23
70.98
62.64
48.72
28.80
4.09
-22.16
-45.17
-59.86
-62.59
-52.47
-31.71
-4.62
24.06
50.52
72.27
87.73
95.76
95.76
88.42
76.23
63.21
53.43
49.22
50.09
53.07
54.34
50.99
42.15
28.73
12.58
-4.41
-20.64
-34.67
-45.20
-51.38
-53.37
-52.46
-50.63
-49.65
-50.35
-52.56
-55.63
-59.14
-63.34
-68.91
-76.36
-85.59
-95.73
-105.64
-114.37
-121.45
-126.73
-130.01
-130.72
-128.04
-121.34
-110.69
-97.15
-82.58
-69.18
-58.78
-52.43
-50.34
-51.93
-56.14
-61.53
-66.37
-69.02
-68.40
-64.54
-58.73
-53.08
-49.46
-48.58
-49.65
-50.86
-50.54
-48.15
-44.56
-41.55
-40.90
-43.50
-49.14
-56.94
-66.03
-76.05
-87.11
-99.35
-112.47
-125.61
-137.52
-146.81
-151.99
-151.50
-143.62
-126.94
-101.19
-68.07
-31.33
4.31
35.12
60.05
81.16
102.41
127.36
157.35
190.96
224.92
255.71
280.81
298.96
309.65
312.57
307.43
294.44
274.96
251.53
227.37
205.03
185.44
167.70
149.73
129.62
106.80
82.22
57.48
33.52
9.84
-14.90
-41.33
-67.86
-90.55
-104.84
-108.23
-102.08
-91.25
-81.69
-77.20
-77.68
-79.70
-79.14
-74.11
-66.19
-59.43
-57.78
-62.67
-72.24
-82.44
-89.34
-91.04
-88.36
-83.85
-80.16
-78.54
-78.41
-77.95
-75.35
-69.80
-61.90
-53.13
-44.90
-37.73
-30.90
-22.91
-12.37
1.17
16.77
32.44
45.93
55.64
61.10
63.04
62.78
61.57
60.09
58.20
55.08
49.52
40.36
26.94
9.60
-10.06
-29.20
-44.42
-52.77
-52.78
-45.08
-32.15
-17.44
-4.22
5.26
9.93
9.61
4.48
-5.17
-18.86
-35.61
-53.83
-71.51
-86.94
-99.28
-108.98
-117.40
-125.93
-134.97
-143.42
-149.17
-150.03
-144.90
-134.29
-120.01
-104.48
-89.89
-77.91
-69.70
-65.89
-66.40
-70.12
-74.76
-77.42
-75.64
-68.39
-56.40
-41.55
-25.87
-10.65
3.68
17.21
30.03
42.08
53.40
64.39
75.85
88.56
102.83
118.20
133.57
147.58
159.10
167.30
171.67
171.94
168.04
160.24
149.21
136.06
122.18
109.13
98.55
91.92
90.33
94.02
102.16
112.82
123.38
131.17
133.97
130.46
120.35
104.69
86.13
68.93
58.32
59.03
73.34
99.82
133.16
165.87
190.81
203.65
203.97
194.52
179.50
162.76
146.95
133.76
124.44
120.09
121.03
125.87
131.03
131.58
123.02
103.33
74.14
40.04
6.57
-22.25
-45.28
-64.05
-81.05
-97.90
-114.38
-128.84
-139.60
-146.12
-149.40
-151.10
-152.37
-152.97
-151.46
-146.31
-137.11
-125.25
-113.46
-104.66
-100.45
-100.35
-101.85
-101.54
-96.65
-86.30
-71.95
-56.79
-44.32
-36.86
-34.67
-36.08
-38.43
-39.48
-38.31
-35.48
-32.37
-30.24
-29.51
-29.67
-29.72
-28.88
-26.99
-24.53
-22.22
-20.56
-19.63
-19.23
-19.23
-19.82
-21.57
-24.96
-30.09
-36.32
-42.52
-47.43
-50.21
-50.77
-49.71
-47.94
-46.30
-45.22
-44.74
-44.67
-44.83
-45.07
-45.29
-45.25
-44.57
-42.84
-39.82
-35.68
-31.05
-26.95
-24.40
-24.23
-26.72
-31.58
-37.97
-44.59
-50.01
-52.95
-52.73
-49.53
-44.42
-39.01
-34.93
-33.18
-33.79
-35.80
-37.60
-37.61
-34.77
-28.99
-21.05
-12.31
-4.21
2.25
6.60
8.84
9.10
7.38
3.62
-1.86
-7.74
-11.60
-10.48
-1.85
15.29
40.12
70.14
101.97
131.86
156.10
171.33
175.09
166.70
148.08
123.85
100.12
82.54
74.30
75.31
82.72
92.53
101.27
106.83
108.36
105.74
99.20
89.32
77.17
64.22
51.92
41.01
31.20
21.41
10.46
-2.17
-16.00
-29.80
-42.07
-51.59
-57.70
-60.37
-60.20
-58.49
-57.11
-58.14
-63.15
-72.46
-84.79
-97.58
-107.96
-113.92
-114.97
-112.07
-106.83
-100.60
-93.91
-86.70
-78.84
-70.61
-62.64
-55.46
-48.99
-42.55
-35.35
-27.16
-18.73
-11.43
-6.45
-3.95
-2.85
-1.46
1.61
6.43
11.71
15.49
16.17
13.34
7.93
1.62
-4.14
-8.87
-13.33
-19.14
-28.02
-41.01
-57.86
-76.77
-94.41
-106.69
-109.81
-101.58
-82.38
-55.27
-24.99
3.51
26.71
43.26
53.75
59.75
62.70
63.42
62.37
60.19
57.91
56.64
56.81
57.82
58.35
57.04
53.35
47.94
42.33
38.21
36.61
37.40
39.63
42.08
43.78
44.13
42.95
40.35
36.79
32.98
29.27
25.85
22.63
19.20
14.88
9.11
1.99
-5.58
-12.14
-17.07
-20.04
-20.86
-19.44
-15.90
-10.85
-5.35
-0.83
1.05
-2.29
-12.17
-27.43
-44.78
-60.26
-70.91
-75.59
-75.07
-71.57
-69.43
-72.13
-80.66
-93.57
-108.23
-122.08
-133.21
-140.52
-133.44
-107.35
-66.17
-20.23
20.45
50.02
66.33
70.07
64.62
55.97
49.63
50.41
60.95
80.02
102.35
120.51
128.32
123.75
109.48
90.23
71.42
57.55
50.63
49.76
52.20
55.14
57.04
57.71
57.37
55.11
50.31
42.78
32.94
21.90
11.41
3.27
-1.42
-3.14
-3.50
-4.08
-5.94
-9.10
-12.75
-15.64
-16.61
-15.22
-12.05
-8.39
-5.42
-3.94
-4.10
-5.43
-7.12
-8.29
-8.36
-7.09
-5.15
-3.00
-0.99
0.72
2.23
3.69
5.26
6.90
8.47
9.72
10.61
11.20
11.70
12.30
13.15
14.26
15.51
16.73
17.71
18.36
18.64
18.52
17.99
17.10
15.90
14.42
12.77
10.96
9.07
7.07
4.91
2.46
-0.39
-3.67
-7.25
-10.86
-14.12
-16.62
-18.08
-18.41
-17.66
-16.03
-13.77
-11.13
-8.37
-5.72
-3.31
-1.19
0.69
2.45
4.15
5.81
7.36
8.68
9.67
10.30
10.63
10.83
11.15
11.81
12.98
14.64
16.60
18.54
20.15
21.23
21.77
21.93
21.86
21.65
21.22
20.39
19.04
17.16
14.87
12.34
9.67
6.80
3.57
-0.23
-4.72
-9.84
-15.27
-20.53
-25.06
-28.40
-30.31
-30.80
-30.16
-28.76
-26.95
-24.92
-22.71
-20.27
-17.54
-14.57
-11.53
-8.68
-6.30
-4.62
-3.67
-3.36
-3.41
-3.51
-3.35
-2.76
-1.73
-0.42
0.92
2.04
2.74
2.95
2.69
2.09
1.33
0.55
-0.17
-0.86
-1.63
-2.63
-3.96
-5.67
-7.76
-10.22
-13.09
-16.39
-20.06
-23.96
-27.77
-31.08
-33.48
-34.69
-34.57
-33.20
-30.76
-27.50
-23.63
-19.29
-14.58
-9.55
-4.33
0.91
5.91
10.41
14.14
16.95
18.80
19.85
20.31
20.45
20.48
20.55
20.65
20.67
20.41
19.71
18.54
17.04
15.46
14.08
13.12
12.57
12.07
11.06
9.01
5.69
1.30
-3.52
-7.88
-11.04
-12.71
-13.49
-14.50
-16.87
-21.07
-26.75
-32.77
-37.58
-39.78
-38.69
-35.13
-30.83
-27.45
-25.60
-24.62
-22.88
-18.47
-10.23
1.62
14.87
26.81
35.52
40.55
41.81
38.63
29.99
15.80
-1.94
-19.97
-34.60
-43.51
-46.95
-48.16
-51.38
-58.87
-69.10
-72.66
-61.44
-34.64
-0.59
29.89
49.51
56.40
52.90
43.42
32.29
21.84
12.85
4.48
-3.48
-11.12
-18.45
-25.15
-30.53
-33.73
-34.85
-34.62
-33.86
-31.59
-27.12
-20.19
-11.06
-0.40
10.87
21.33
29.67
35.25
38.36
39.65
39.81
39.44
38.97
38.51
37.69
35.82
32.28
26.91
19.92
12.10
4.72
-0.80
-3.36
-2.82
-0.08
3.16
5.20
4.84
1.99
-2.25
-6.12
-7.91
-6.67
-2.41
4.00
11.31
18.23
23.65
26.72
27.01
24.64
20.42
15.81
12.46
11.54
13.17
16.28
18.97
19.39
16.59
10.93
3.95
-2.35
-6.47
-7.92
-7.27
-5.76
-4.62
-4.56
-5.64
-7.35
-8.96
-9.77
-9.27
-7.13
-3.27
1.99
7.98
13.78
18.57
22.05
24.47
26.31
27.81
28.57
27.62
23.83
16.46
5.60
-7.86
-22.34
-35.88
-46.38
-52.07
-51.97
-46.43
-37.24
-27.24
-19.27
-15.06
-14.64
-16.56
-18.73
-19.49
-18.14
-14.88
-10.23
-4.68
1.48
7.78
13.36
16.92
17.24
13.70
6.72
-2.30
-11.41
-18.63
-22.43
-22.00
-17.17
-8.32
3.79
18.11
33.34
47.94
60.24
68.70
72.36
71.23
66.47
60.20
54.74
51.99
52.72
56.53
62.17
68.07
72.98
76.11
77.25
76.61
74.77
72.52
70.65
69.65
69.38
69.21
68.20
65.55
60.98
54.76
47.28
38.64
28.48
16.15
1.58
-14.47
-30.55
-45.08
-56.96
-66.04
-73.16
-79.71
-87.36
-97.35
-110.37
-126.37
-144.27
-161.84
-176.22
-184.91
-186.57
-181.43
-170.44
-154.53
-134.29
-110.45
-84.52
-59.73
-40.79
-29.09
-26.01
-29.70
-34.96
-36.78
-33.47
-26.53
-18.20
-9.13
1.34
16.13
36.22
59.28
80.37
94.29
98.19
92.71
81.37
65.92
49.43
34.07
20.83
9.90
1.49
-4.03
-6.38
-5.79
-3.18
0.44
3.90
6.55
8.39
9.94
12.02
15.24
19.75
25.12
30.79
35.93
39.84
42.11
42.75
42.15
40.83
39.23
37.58
36.07
34.54
32.75
30.56
27.97
25.13
22.26
19.48
16.83
14.38
12.09
9.97
8.05
6.32
4.77
3.29
1.74
0.04
-1.86
-3.95
-6.16
-8.42
-10.61
-12.62
-14.41
-16.02
-17.61
-19.42
-21.59
-24.12
-26.73
-28.93
-30.20
-30.13
-28.58
-25.70
-21.85
-17.48
-13.00
-8.76
-4.98
-1.71
1.05
3.43
5.55
7.45
9.06
10.18
10.59
10.21
9.17
7.80
6.56
5.84
5.75
6.20
6.89
7.49
7.82
7.83
7.62
7.28
6.83
6.23
5.39
4.28
2.98
1.62
0.37
-0.70
-1.64
-2.58
-3.75
-5.34
-7.50
-10.28
-13.63
-17.35
-21.13
-24.64
-27.53
-29.56
-30.56
-30.48
-29.34
-27.16
-24.02
-19.98
-15.18
-9.86
-4.45
0.61
4.91
8.31
10.91
13.01
14.87
16.63
18.26
19.59
20.52
21.04
21.24
21.22
21.01
20.59
19.93
19.08
18.14
17.16
16.09
14.76
13.01
10.83
8.40
6.01
3.87
2.01
0.20
-1.83
-4.29
-7.12
-10.11
-12.95
-15.40
-17.42
-19.10
-20.55
-21.75
-22.58
-22.80
-22.20
-20.67
-18.23
-14.97
-11.09
-6.80
-2.36
1.95
5.81
9.00
11.45
13.29
14.75
16.07
17.31
18.36
18.98
18.97
18.31
17.25
16.19
15.53
15.50
16.07
17.01
17.92
18.42
18.20
17.09
15.11
12.48
9.68
7.30
5.84
5.49
5.97
6.57
6.43
4.89
1.82
-2.38
-6.98
-11.32
-15.04
-18.11
-20.63
-22.65
-23.97
-24.30
-23.41
-21.38
-18.51
-15.22
-11.81
-8.33
-4.65
-0.64
3.69
8.10
12.22
15.66
18.18
19.74
20.50
20.68
20.53
20.22
19.81
19.25
18.48
17.45
16.24
14.94
13.72
12.65
11.71
10.79
9.75
8.52
7.16
5.80
4.64
3.84
3.43
3.38
3.54
3.75
3.82
3.62
3.07
2.14
0.84
-0.81
-2.75
-4.93
-7.21
-9.40
-11.22
-12.37
-12.62
-11.77
-9.83
-6.91
-3.33
0.49
4.12
7.19
9.55
11.17
12.19
12.70
12.77
12.37
11.51
10.25
8.78
7.33
6.12
5.22
4.56
3.92
3.09
1.93
0.42
-1.26
-2.90
-4.27
-5.25
-5.82
-6.05
-6.09
-6.09
-6.22
-6.58
-7.29
-8.39
-9.85
-11.57
-13.43
-15.37
-17.37
-19.52
-21.88
-24.37
-26.74
-28.55
-29.35
-28.81
-26.93
-23.94
-20.36
-16.68
-13.29
-10.32
-7.70
-5.24
-2.75
-0.19
2.30
4.46
6.05
6.89
6.97
6.42
5.40
4.08
2.59
1.05
-0.41
-1.62
-2.43
-2.76
-2.66
-2.31
-1.92
-1.71
-1.80
-2.25
-3.04
-4.13
-5.47
-6.99
-8.62
-10.26
-11.86
-13.43
-15.04
-16.85
-18.98
-21.44
-24.05
-26.48
-28.32
-29.23
-29.01
-27.62
-25.17
-21.82
-17.77
-13.30
-8.72
-4.34
-0.44
2.85
5.51
7.69
9.51
11.07
12.37
13.35
13.95
14.13
13.94
13.43
12.68
11.76
10.73
9.68
8.66
7.68
6.68
5.52
4.03
2.12
-0.19
-2.75
-5.29
-7.55
-9.32
-10.57
-11.42
-12.11
-12.88
-13.92
-15.25
-16.80
-18.42
-19.91
-21.12
-21.88
-22.11
-21.67
-20.50
-18.59
-16.01
-12.87
-9.34
-5.58
-1.71
2.15
5.91
9.49
12.79
15.70
18.02
19.61
20.33
20.23
19.47
18.33
17.13
16.12
15.42
15.02
14.83
14.74
14.71
14.73
14.81
14.90
14.88
14.59
13.86
12.61
10.88
8.86
6.73
4.68
2.77
0.90
-1.07
-3.35
-6.05
-9.22
-12.77
-16.51
-20.21
-23.54
-26.20
-27.91
-28.43
-27.67
-25.66
-22.56
-18.64
-14.21
-9.57
-4.93
-0.44
3.86
7.88
11.57
14.81
17.46
19.41
20.60
21.07
20.96
20.52
19.98
19.51
19.15
18.84
18.51
18.09
17.58
16.98
16.28
15.42
14.28
12.75
10.80
8.59
6.36
4.33
2.60
1.09
-0.34
-1.93
-3.89
-6.25
-8.79
-11.17
-13.09
-14.50
-15.54
-16.45
-17.48
-18.84
-20.40
-21.60
-21.64
-19.92
-16.35
-11.38
-5.78
-0.60
3.08
4.81
5.19
5.49
6.82
9.54
13.13
16.72
18.89
18.15
14.06
7.91
2.08
-1.28
-1.17
1.85
6.58
10.34
9.66
1.96
-12.84
-32.37
-52.66
-69.12
-77.87
-75.73
-59.32
-30.62
1.98
28.71
44.78
52.14
56.66
63.97
80.12
104.29
131.11
153.49
165.54
163.87
148.57
123.06
85.26
42.39
4.25
-22.54
-37.70
-45.31
-50.51
-58.16
-68.01
-78.64
-87.41
-93.36
-96.91
-99.11
-96.80
-88.98
-76.11
-59.93
-43.22
-27.57
-14.75
-6.24
-2.66
-3.15
-6.25
-9.75
-11.55
-10.77
-7.15
-2.00
2.72
5.28
5.21
2.89
-0.41
-3.19
-4.64
-4.40
-3.01
-1.40
-0.40
-0.27
-1.01
-2.26
-3.56
-4.68
-5.46
-5.88
-5.86
-5.31
-4.07
-2.22
0.08
2.69
5.46
8.37
11.43
14.62
17.78
20.65
22.93
24.42
25.09
25.00
24.24
22.82
20.80
18.32
15.56
12.79
10.19
7.80
5.57
3.42
1.37
-0.53
-2.18
-3.49
-4.47
-5.22
-5.84
-6.48
-7.30
-8.39
-9.79
-11.38
-12.99
-14.41
-15.52
-16.34
-17.03
-17.80
-18.81
-20.13
-21.69
-23.36
-24.99
-26.41
-27.42
-27.82
-27.43
-26.11
-23.82
-20.59
-16.55
-11.88
-6.87
-1.85
2.84
6.93
10.26
12.87
14.86
16.40
17.54
18.25
18.43
18.01
17.02
15.64
14.11
12.69
11.58
10.80
10.22
9.59
8.64
7.21
5.28
3.02
0.66
-1.53
-3.36
-4.77
-5.80
-6.61
-7.37
-8.24
-9.29
-10.46
-11.62
-12.65
-13.53
-14.41
-15.51
-16.97
-18.70
-20.36
-21.43
-21.42
-20.12
-17.62
-14.28
-10.53
-6.74
-3.05
0.53
4.06
7.52
10.76
13.52
15.52
16.59
16.73
16.13
15.10
13.97
13.01
12.37
12.07
12.05
12.09
11.98
11.54
10.74
9.70
8.63
7.73
7.00
6.30
5.38
4.07
2.35
0.41
-1.50
-3.20
-4.62
-5.92
-7.31
-9.02
-11.19
-13.78
-16.61
-19.37
-21.69
-23.22
-23.79
-23.37
-22.07
-20.03
-17.39
-14.22
-10.60
-6.66
-2.61
1.31
4.86
7.92
10.50
12.67
14.55
16.22
17.69
18.93
19.85
20.38
20.47
20.15
19.51
18.75
18.06
17.62
17.53
17.71
17.96
17.96
17.40
16.10
14.07
11.51
8.75
6.11
3.77
1.78
-0.01
-1.81
-3.84
-6.27
-9.16
-12.42
-15.89
-19.31
-22.38
-24.78
-26.25
-26.56
-25.60
-23.36
-20.02
-15.86
-11.26
-6.60
-2.19
1.83
5.51
8.94
12.23
15.35
18.18
20.48
22.06
22.88
23.10
23.03
22.99
23.24
23.84
24.69
25.60
26.43
27.15
27.88
28.77
29.86
31.05
32.00
32.37
31.89
30.56
28.62
26.53
24.73
23.52
22.95
22.80
22.69
22.16
20.68
17.83
13.38
7.49
0.74
-5.86
-11.22
-14.54
-15.55
-14.66
-12.70
-10.57
-8.91
-7.88
-7.22
-6.50
-5.29
-3.41
-0.97
1.67
4.02
5.62
6.23
5.81
4.55
2.74
0.60
-1.71
-4.15
-6.65
-9.06
-11.18
-12.78
-13.77
-14.22
-14.38
-14.57
-15.03
-15.86
-16.98
-18.18
-19.19
-19.80
-19.90
-19.61
-19.17
-19.05
-19.80
-22.01
-26.05
-31.90
-39.03
-46.43
-52.94
-57.46
-59.25
-58.02
-53.84
-46.95
-37.67
-26.29
-13.14
1.29
16.25
30.68
43.33
52.79
57.76
57.37
51.43
40.65
26.68
11.80
-1.48
-10.99
-15.47
-14.80
-10.02
-2.94
4.45
10.51
14.37
15.90
15.50
13.78
11.31
8.53
5.75
3.26
1.23
-0.29
-1.49
-2.73
-4.44
-6.90
-10.06
-13.59
-16.94
-19.69
-21.63
-22.98
-24.21
-25.85
-28.14
-30.86
-33.36
-34.78
-34.44
-32.11
-28.09
-23.05
-17.67
-12.43
-7.48
-2.78
1.70
5.89
9.59
12.58
14.82
16.43
17.63
18.60
19.40
19.96
20.19
20.10
19.80
19.53
19.49
19.77
20.37
21.12
21.82
22.26
22.26
21.75
20.77
19.49
18.09
16.72
15.42
14.13
12.73
11.08
9.18
7.09
5.02
3.15
1.59
0.28
-0.93
-2.27
-3.95
-6.07
-8.58
-11.31
-13.97
-16.25
-17.83
-18.51
-18.17
-16.84
-14.59
-11.60
-8.06
-4.17
-0.13
3.85
7.60
10.97
13.83
16.09
17.69
18.58
18.80
18.51
17.95
17.40
17.01
16.80
16.63
16.36
15.90
15.31
14.71
14.20
13.74
13.19
12.41
11.32
10.04
8.78
7.75
7.01
6.48
5.92
5.04
3.65
1.72
-0.57
-2.91
-4.94
-6.41
-7.27
-7.67
-7.98
-8.58
-9.75
-11.52
-13.63
-15.59
-16.86
-17.05
-15.99
-13.82
-10.88
-7.60
-4.29
-1.17
1.68
4.18
6.21
7.63
8.37
8.51
8.27
7.92
7.63
7.39
7.05
6.43
5.45
4.20
2.84
1.59
0.59
-0.12
-0.53
-0.66
-0.52
-0.14
0.37
0.93
1.43
1.83
2.14
2.35
2.46
2.35
1.97
1.31
0.48
-0.30
-0.83
-1.00
-0.88
-0.73
-0.86
-1.56
-2.89
-4.71
-6.70
-8.42
-9.54
-9.84
-9.28
-7.97
-6.09
-3.89
-1.63
0.39
1.96
2.97
3.47
3.68
3.88
4.27
4.90
5.65
6.29
6.67
6.74
6.60
6.45
6.44
6.63
7.00
7.46
7.98
8.62
9.48
10.65
12.16
13.88
15.65
17.26
18.58
19.56
20.23
20.60
20.65
20.30
19.47
18.14
16.40
14.46
12.54
10.83
9.35
7.96
6.48
4.77
2.87
0.96
-0.66
-1.72
-2.08
-1.76
-0.88
0.41
1.92
3.49
4.89
5.86
6.13
5.49
3.93
1.61
-1.08
-3.70
-5.85
-7.33
-8.21
-8.72
-9.16
-9.76
-10.56
-11.48
-12.36
-13.13
-13.82
-14.59
-15.59
-16.91
-18.48
-20.12
-21.62
-22.84
-23.78
-24.52
-25.19
-25.83
-26.39
-26.72
-26.70
-26.30
-25.65
-24.98
-24.52
-24.40
-24.52
-24.58
-24.14
-22.80
-20.31
-16.74
-12.35
-7.61
-2.93
1.36
5.12
8.36
11.14
13.49
15.42
16.90
17.85
18.28
18.20
17.71
16.94
16.04
15.08
14.04
12.86
11.46
9.93
8.47
7.42
7.02
7.32
8.10
8.90
9.26
8.84
7.61
5.79
3.73
1.78
0.12
-1.20
-2.26
-3.22
-4.32
-5.88
-8.24
-11.57
-15.66
-19.81
-22.96
-24.05
-22.44
-18.19
-12.10
-5.35
0.95
6.09
9.90
12.58
14.51
16.01
17.31
18.58
20.02
21.82
24.06
26.63
29.13
31.01
31.72
30.93
28.70
25.43
21.72
18.18
15.24
13.05
11.47
10.22
8.98
7.52
5.74
3.66
1.34
-1.16
-3.82
-6.68
-9.74
-12.92
-16.09
-19.06
-21.66
-23.79
-25.44
-26.66
-27.52
-27.99
-28.02
-27.43
-26.07
-23.78
-20.54
-16.50
-11.93
-7.20
-2.68
1.34
4.66
7.21
9.02
10.22
10.97
11.39
11.52
11.23
10.29
8.48
5.66
1.90
-2.63
-7.66
-12.95
-18.28
-23.40
-27.97
-31.57
-33.76
-34.22
-32.86
-29.82
-25.45
-20.16
-14.39
-8.59
-3.20
1.39
5.05
7.96
10.72
14.13
18.94
25.44
33.23
41.06
47.17
49.63
46.97
38.71
25.69
9.99
-5.57
-18.17
-25.84
-27.88
-25.04
-18.98
-11.68
-4.77
0.79
4.72
7.19
8.54
9.05
8.90
8.29
7.41
6.47
5.63
4.90
4.16
3.27
2.12
0.71
-0.94
-2.82
-5.05
-7.78
-11.09
-14.87
-18.78
-22.35
-25.21
-27.15
-28.29
-28.89
-29.29
-29.66
-30.08
-30.50
-30.80
-30.85
-30.49
-29.57
-27.92
-25.46
-22.21
-18.30
-14.00
-9.55
-5.24
-1.29
2.13
4.93
7.11
8.78
10.15
11.46
12.84
14.31
15.69
16.75
17.27
17.21
16.67
15.90
15.16
14.67
14.46
14.50
14.60
14.58
14.20
13.26
11.70
9.58
7.14
4.73
2.70
1.25
0.40
-0.08
-0.56
-1.37
-2.74
-4.70
-7.05
-9.50
-11.64
-13.09
-13.47
-12.52
-10.15
-6.46
-1.77
3.48
8.77
13.60
17.63
20.69
22.80
24.15
24.98
25.51
25.88
26.06
25.93
25.35
24.21
22.48
20.31
17.88
15.40
13.01
10.78
8.66
6.57
4.42
2.19
-0.09
-2.32
-4.45
-6.49
-8.46
-10.41
-12.27
-13.94
-15.32
-16.36
-17.15
-17.86
-18.69
-19.76
-21.10
-22.58
-23.95
-24.91
-25.15
-24.46
-22.72
-19.98
-16.43
-12.36
-8.07
-3.83
0.16
3.78
6.97
9.74
12.17
14.33
16.24
17.81
18.83
19.07
18.42
16.97
15.05
13.09
11.45
10.24
9.37
8.58
7.65
6.51
5.24
3.99
2.82
1.71
0.54
-0.79
-2.28
-3.80
-5.16
-6.25
-7.11
-7.91
-8.90
-10.28
-12.12
-14.32
-16.69
-18.95
-20.91
-22.40
-23.28
-23.49
-23.01
-21.91
-20.29
-18.26
-15.88
-13.16
-10.13
-6.87
-3.49
-0.16
2.96
5.71
7.93
9.48
10.27
10.32
9.84
9.18
8.72
8.70
9.11
9.65
9.96
9.75
8.95
7.74
6.37
5.03
3.77
2.50
1.09
-0.50
-2.18
-3.77
-5.06
-5.92
-6.31
-6.30
-6.00
-5.52
-4.99
-4.60
-4.56
-5.03
-6.08
-7.56
-9.11
-10.28
-10.64
-9.99
-8.41
-6.20
-3.77
-1.44
0.61
2.41
4.07
5.66
7.22
8.66
9.85
10.64
10.96
10.85
10.42
9.87
9.39
9.04
8.72
8.19
7.19
5.64
3.72
1.84
0.51
0.09
0.66
1.96
3.51
4.82
5.48
5.31
4.34
2.81
1.05
-0.57
-1.77
-2.46
-2.78
-3.08
-3.72
-5.01
-7.05
-9.74
-12.89
-16.24
-19.58
-22.74
-25.51
-27.66
-28.89
-28.91
-27.55
-24.79
-20.86
-16.14
-11.09
-6.06
-1.25
3.31
7.66
11.80
15.64
18.96
21.50
23.09
23.72
23.52
22.72
21.59
20.36
19.18
18.10
17.11
16.12
15.02
13.73
12.26
10.67
9.11
7.72
6.53
5.52
4.59
3.58
2.42
1.02
-0.59
-2.33
-4.04
-5.51
-6.53
-6.94
-6.81
-6.35
-5.98
-6.11
-7.05
-8.86
-11.39
-14.29
-17.13
-19.43
-20.75
-20.71
-19.07
-15.80
-11.13
-5.55
0.35
5.93
10.74
14.54
17.30
19.18
20.38
21.05
21.29
21.16
20.69
19.97
19.10
18.11
16.94
15.47
13.60
11.31
8.78
6.30
4.16
2.48
1.22
0.15
-0.97
-2.30
-3.87
-5.55
-7.19
-8.63
-9.79
-10.65
-11.25
-11.65
-11.98
-12.34
-12.86
-13.67
-14.91
-16.68
-19.03
-21.82
-24.78
-27.42
-29.25
-29.89
-29.24
-27.50
-25.00
-22.13
-19.07
-15.85
-12.38
-8.62
-4.70
-0.86
2.60
5.49
7.74
9.48
10.85
12.01
13.03
13.95
14.82
15.67
16.57
17.55
18.53
19.37
19.87
19.87
19.29
18.16
16.58
14.69
12.63
10.48
8.30
6.12
3.96
1.88
-0.04
-1.68
-2.94
-3.78
-4.24
-4.48
-4.69
-5.06
-5.70
-6.58
-7.52
-8.28
-8.58
-8.12
-6.64
-3.93
0.13
5.52
11.92
18.67
24.74
29.01
30.54
29.01
24.85
19.11
13.07
7.81
3.86
1.18
-0.63
-1.96
-2.95
-3.46
-3.27
-2.26
-0.52
1.66
3.97
6.14
8.05
9.63
10.84
11.66
12.06
12.01
11.50
10.54
9.14
7.35
5.29
3.11
0.93
-1.16
-3.19
-5.27
-7.51
-9.92
-12.45
-14.95
-17.25
-19.17
-20.56
-21.27
-21.15
-20.12
-18.18
-15.45
-12.10
-8.29
-4.09
0.51
5.56
11.02
16.71
22.31
27.49
31.96
35.58
38.35
40.37
41.73
42.46
42.50
41.76
40.18
37.79
34.76
31.35
27.81
24.36
21.03
17.75
14.32
10.57
6.36
1.75
-3.12
-7.99
-12.58
-16.64
-20.00
-22.59
-24.43
-25.70
-26.63
-27.51
-28.56
-29.85
-31.26
-32.48
-33.13
-32.92
-31.70
-29.48
-26.38
-22.49
-17.89
-12.69
-7.10
-1.45
3.87
8.51
12.31
15.36
17.83
19.88
21.48
22.45
22.55
21.64
19.76
17.18
14.25
11.24
8.31
5.46
2.64
-0.17
-2.90
-5.40
-7.56
-9.38
-10.96
-12.48
-14.08
-15.77
-17.52
-19.26
-20.94
-22.54
-23.98
-25.11
-25.79
-26.00
-25.88
-25.74
-25.84
-26.26
-26.79
-27.02
-26.49
-24.94
-22.39
-19.09
-15.36
-11.43
-7.35
-3.09
1.38
5.92
10.23
13.91
16.61
18.16
18.68
18.47
17.91
17.26
16.57
15.70
14.40
12.54
10.12
7.34
4.50
1.85
-0.48
-2.54
-4.43
-6.30
-8.17
-10.00
-11.71
-13.27
-14.69
-16.05
-17.36
-18.59
-19.65
-20.46
-21.06
-21.58
-22.16
-22.91
-23.74
-24.44
-24.67
-24.20
-22.90
-20.79
-17.93
-14.41
-10.23
-5.43
-0.10
5.51
11.07
16.21
20.64
24.28
27.16
29.44
31.25
32.65
33.62
34.09
33.99
33.31
32.08
30.38
28.26
25.78
22.95
19.81
16.41
12.84
9.22
5.62
2.08
-1.39
-4.84
-8.27
-11.65
-14.92
-17.96
-20.67
-22.97
-24.79
-26.15
-27.09
-27.78
-28.36
-28.93
-29.48
-29.81
-29.63
-28.62
-26.56
-23.33
-19.01
-13.84
-8.12
-2.22
3.54
8.91
13.70
17.84
21.37
24.33
26.74
28.59
29.83
30.44
30.44
29.92
29.02
27.86
26.49
24.88
22.97
20.74
18.21
15.46
12.58
9.65
6.68
3.63
0.50
-2.74
-6.07
-9.45
-12.79
-16.01
-19.00
-21.67
-23.98
-25.92
-27.59
-29.05
-30.34
-31.37
-31.97
-31.99
-31.30
-29.86
-27.71
-24.86
-21.30
-16.98
-11.91
-6.20
-0.13
5.87
11.39
16.12
19.90
22.76
24.81
26.18
27.00
27.33
27.25
26.78
25.93
24.63
22.84
20.57
17.91
15.04
12.12
9.30
6.62
4.06
1.57
-0.86
-3.19
-5.36
-7.32
-9.06
-10.60
-12.00
-13.33
-14.63
-15.94
-17.28
-18.67
-20.14
-21.75
-23.51
-25.34
-27.05
-28.29
-28.68
-27.88
-25.77
-22.45
-18.25
-13.59
-8.89
-4.38
-0.16
3.84
7.71
11.45
14.96
18.06
20.62
22.57
23.97
24.91
25.43
25.52
25.12
24.20
22.84
21.17
19.35
17.43
15.39
13.12
10.60
7.86
5.06
2.36
-0.17
-2.53
-4.85
-7.24
-9.72
-12.17
-14.42
-16.30
-17.75
-18.82
-19.67
-20.45
-21.29
-22.20
-23.08
-23.77
-24.05
-23.74
-22.71
-20.88
-18.23
-14.76
-10.51
-5.57
-0.14
5.48
10.95
15.97
20.35
24.07
27.20
29.85
32.04
33.75
34.89
35.39
35.25
34.45
33.03
31.06
28.62
25.85
22.93
19.98
17.05
14.04
10.78
7.13
3.08
-1.21
-5.46
-9.41
-12.91
-15.95
-18.61
-20.99
-23.14
-25.03
-26.63
-27.97
-29.10
-30.12
-31.12
-32.09
-33.00
-33.70
-34.05
-33.85
-32.87
-30.93
-27.92
-23.86
-18.90
-13.33
-7.42
-1.48
4.27
9.64
14.50
18.76
22.37
25.30
27.58
29.22
30.26
30.68
30.50
29.72
28.44
26.74
24.73
22.46
19.98
17.30
14.49
11.67
8.99
6.59
4.50
2.71
1.10
-0.42
-1.94
-3.50
-5.11
-6.79
-8.55
-10.37
-12.16
-13.78
-15.07
-15.96
-16.49
-16.84
-17.32
-18.16
-19.47
-21.05
-22.47
-23.18
-22.74
-20.97
-17.96
-14.03
-9.51
-4.72
0.16
4.99
9.64
13.96
17.79
21.01
23.56
25.41
26.55
27.00
26.79
26.00
24.72
23.04
21.00
18.60
15.85
12.83
9.71
6.68
3.94
1.61
-0.26
-1.73
-2.90
-3.89
-4.85
-5.83
-6.88
-7.97
-9.05
-10.06
-10.95
-11.72
-12.38
-12.96
-13.54
-14.20
-15.06
-16.13
-17.34
-18.48
-19.27
-19.41
-18.69
-17.02
-14.41
-10.98
-6.88
-2.33
2.45
7.20
11.67
15.66
19.04
21.79
24.02
25.88
27.52
29.06
30.48
31.64
32.35
32.40
31.69
30.20
27.99
25.16
21.83
18.12
14.24
10.40
6.76
3.43
0.36
-2.55
-5.42
-8.27
-11.07
-13.74
-16.21
-18.45
-20.42
-22.08
-23.37
-24.33
-25.01
-25.56
-26.12
-26.74
-27.36
-27.80
-27.83
-27.21
-25.77
-23.41
-20.09
-15.91
-11.04
-5.71
-0.17
5.30
10.47
15.09
18.98
22.05
24.31
25.89
26.98
27.72
28.16
28.23
27.83
26.91
25.46
23.61
21.50
19.24
16.92
14.55
12.14
9.70
7.25
4.83
2.51
0.37
-1.53
-3.18
-4.64
-6.00
-7.37
-8.83
-10.41
-12.08
-13.80
-15.53
-17.25
-18.98
-20.76
-22.59
-24.44
-26.22
-27.78
-28.89
-29.33
-28.89
-27.43
-24.93
-21.52
-17.41
-12.85
-8.10
-3.32
1.33
5.74
9.78
13.38
16.44
18.97
21.02
22.58
23.67
24.23
24.18
23.49
22.18
20.34
18.11
15.63
13.03
10.47
8.13
6.15
4.59
3.34
2.15
0.70
-1.23
-3.70
-6.59
-9.68
-12.77
-15.77
-18.73
-21.77
-25.00
-28.46
-32.14
-35.96
-39.89
-43.87
-47.84
-51.62
-54.96
-57.53
-59.01
-59.22
-58.12
-55.76
-52.23
-47.54
-41.66
-34.57
-26.38
-17.44
-8.34
0.27
7.77
13.82
18.40
21.82
24.57
27.04
29.45
31.66
33.31
33.98
33.46
31.84
29.50
26.95
24.53
22.36
20.28
18.12
15.81
13.54
11.62
10.38
9.88
9.93
10.16
10.20
9.94
9.48
9.09
8.97
9.08
9.11
8.61
7.21
4.81
1.69
-1.60
-4.42
-6.29
-7.04
-6.85
-6.13
-5.29
-4.52
-3.73
-2.54
-0.59
2.23
5.49
8.34
9.69
8.78
5.51
0.72
-4.15
-7.58
-8.70
-7.83
-6.36
-6.26
-9.08
-15.13
-23.28
-31.41
-37.60
-41.19
-43.20
-45.70
-50.61
-58.58
-68.80
-79.49
-88.71
-94.70
-95.55
-88.94
-72.95
-47.75
-17.13
11.53
29.91
32.71
20.86
1.84
-13.55
-16.24
-3.03
22.21
50.81
73.58
84.58
82.91
72.03
57.44
44.21
35.37
31.58
31.79
34.47
38.58
43.88
50.54
58.24
65.70
70.80
71.65
67.68
60.20
51.96
45.83
43.46
44.47
46.75
47.53
44.83
38.34
29.61
21.20
15.51
13.73
15.53
19.42
23.64
26.91
28.84
29.80
30.47
31.31
32.28
32.84
32.24
29.83
25.42
19.42
12.69
6.33
1.33
-1.71
-2.73
-2.22
-1.09
-0.33
-0.78
-2.88
-6.50
-11.09
-15.79
-19.78
-22.45
-23.71
-23.96
-24.07
-25.12
-28.11
-33.58
-41.34
-50.49
-59.59
-67.23
-72.36
-74.57
-73.88
-70.50
-64.60
-56.31
-45.77
-33.18
-18.63
-1.91
17.19
38.37
59.99
78.83
90.97
93.51
86.47
73.46
60.56
53.69
55.72
65.07
76.42
83.28
80.92
68.23
47.61
23.34
-0.56
-21.77
-39.83
-55.30
-68.68
-79.86
-88.23
-93.43
-95.83
-96.81
-98.19
-101.36
-106.52
-112.51
-117.26
-118.79
-116.16
-109.80
-101.42
-93.25
-87.25
-84.56
-85.37
-89.09
-94.58
-100.36
-104.87
-106.72
-105.06
-99.74
-91.18
-79.93
-66.14
-49.45
-29.41
-6.26
18.40
41.78
60.67
72.37
75.36
69.38
55.27
34.65
10.07
-14.93
-35.71
-47.04
-44.54
-26.14
7.04
51.11
100.79
151.08
198.07
239.63
275.02
304.15
326.94
343.32
353.68
358.90
360.21
357.67
351.31
341.64
329.62
316.13
301.58
286.03
269.34
251.47
230.71
206.61
180.57
154.64
129.58
103.97
75.24
41.22
1.35
-46.25
-100.75
-158.26
-213.71
-263.82
-308.22
-348.17
-384.80
-418.04
-450.78
-483.56
-513.62
-536.31
-548.27
-548.82
-539.30
-522.08
-474.09
-388.49
-279.57
-173.82
-89.65
-30.07
10.97
41.25
66.46
89.27
105.97
113.54
111.88
104.01
93.60
83.76
77.53
77.93
87.11
101.94
118.17
132.64
143.70
150.38
151.98
148.55
141.11
131.17
116.81
99.56
81.51
64.96
51.32
40.55
31.69
23.60
15.44
6.09
-4.58
-15.68
-25.54
-32.53
-35.80
-35.47
-32.43
-28.61
-25.45
-24.10
-25.09
-28.20
-32.72
-37.76
-42.52
-46.21
-48.17
-47.85
-45.04
-39.88
-32.82
-24.39
-15.16
-5.70
3.39
11.51
18.18
23.08
26.41
28.67
30.62
32.93
36.08
40.14
44.98
50.38
54.91
57.73
58.48
57.30
54.81
51.75
48.63
45.47
41.89
37.32
31.59
24.89
17.86
11.22
5.52
0.90
-2.92
-6.50
-10.44
-14.96
-19.99
-25.11
-29.80
-33.57
-36.21
-37.73
-38.29
-38.05
-36.95
-34.85
-31.71
-27.73
-23.36
-19.12
-15.35
-12.09
-9.02
-5.68
-1.87
2.18
5.67
7.53
6.79
2.97
-3.61
-11.84
-20.13
-26.87
-30.96
-32.12
-30.82
-27.98
-24.63
-21.48
-18.77
-16.30
-13.69
-10.66
-7.33
-4.21
-1.88
-0.61
0.02
0.95
3.20
7.35
13.17
19.75
25.98
31.02
34.51
36.55
37.43
37.62
37.81
38.92
41.94
47.44
55.17
63.96
72.15
78.33
81.93
83.27
83.17
82.36
81.20
79.73
77.95
75.99
74.05
72.05
69.36
64.87
57.37
46.15
31.39
14.19
-3.76
-20.72
-35.32
-46.75
-54.70
-59.13
-60.17
-58.13
-53.67
-47.99
-42.74
-39.46
-38.85
-40.11
-41.04
-38.94
-31.94
-20.07
-5.32
9.33
21.41
30.08
36.22
41.50
47.13
53.16
58.65
62.57
64.55
65.20
65.52
66.10
66.65
66.02
62.93
56.71
47.78
37.51
27.73
19.91
14.59
11.12
7.94
3.28
-4.16
-14.57
-27.04
-39.98
-51.68
-60.97
-67.46
-71.37
-73.28
-73.81
-73.51
-72.92
-72.66
-73.46
-75.90
-80.20
-86.06
-92.56
-98.40
-102.24
-103.13
-100.83
-95.88
-89.35
-82.56
-76.55
-71.90
-68.70
-66.77
-65.86
-65.74
-66.13
-66.64
-66.74
-65.96
-64.05
-61.05
-57.25
-52.90
-48.10
-42.74
-36.71
-30.05
-23.04
-16.19
-9.97
-4.72
-0.57
2.40
4.13
4.49
3.43
1.11
-2.13
-5.77
-9.35
-12.62
-15.47
-17.90
-19.77
-20.78
-20.53
-18.69
-15.25
-10.62
-5.55
-0.87
2.85
5.53
7.57
9.68
12.40
15.90
19.80
23.41
26.02
27.21
26.99
25.69
23.70
21.35
18.79
16.08
13.24
10.31
7.36
4.47
1.76
-0.60
-2.40
-3.39
-3.41
-2.45
-0.64
1.75
4.42
7.16
9.85
12.44
14.91
17.20
19.19
20.77
21.84
22.39
22.45
22.15
21.60
20.89
20.04
19.03
17.81
16.37
14.72
12.96
11.21
9.60
8.23
7.06
5.97
4.74
3.16
1.09
-1.48
-4.44
-7.56
-10.62
-13.46
-16.07
-18.59
-21.17
-23.84
-26.38
-28.42
-29.53
-29.53
-28.54
-26.99
-25.44
-24.32
-23.80
-23.87
-24.44
-25.37
-26.40
-26.94
-26.07
-22.71
-16.14
-6.40
5.45
17.65
28.46
36.77
42.55
46.51
49.57
52.18
54.06
54.51
53.06
49.95
46.22
43.27
42.12
42.80
44.28
44.91
43.13
38.20
30.50
21.30
12.21
4.45
-1.58
-6.47
-11.38
-17.38
-24.97
-33.63
-42.04
-48.62
-52.23
-52.72
-51.04
-49.04
-48.86
-52.28
-60.09
-71.68
-85.02
-97.03
-104.41
-104.70
-97.26
-83.82
-68.22
-55.39
-49.83
-54.16
-68.28
-89.43
-113.10
-134.37
-149.25
-155.40
-152.33
-140.94
-122.87
-99.93
-73.84
-46.28
-18.87
6.87
29.83
49.71
67.13
83.41
100.04
117.90
136.90
156.00
173.76
189.01
201.45
211.66
220.60
228.97
236.60
242.46
245.14
243.64
237.99
229.25
219.13
209.18
200.15
191.86
183.44
173.89
162.59
149.54
135.24
120.36
105.34
90.24
74.77
58.79
42.54
26.89
13.11
2.36
-4.82
-8.82
-10.70
-11.62
-12.28
-12.75
-12.77
-12.29
-11.85
-12.59
-15.85
-22.45
-32.21
-43.74
-54.89
-63.43
-67.90
-67.93
-64.34
-58.76
-53.01
-48.51
-45.96
-45.44
-46.74
-49.61
-53.58
-57.95
-61.94
-64.82
-66.26
-66.52
-66.64
-68.18
-72.52
-79.70
-88.27
-96.01
-100.99
-102.31
-100.15
-95.47
-89.43
-82.92
-75.67
-67.12
-57.53
-48.33
-41.40
-37.77
-36.99
-37.50
-37.49
-34.67
-27.20
-14.44
3.44
25.96
53.12
85.14
121.68
154.95
175.48
178.06
165.52
145.50
124.43
105.50
89.41
75.56
63.11
52.53
46.20
44.15
45.78
49.70
54.41
58.64
61.41
61.96
60.53
57.76
53.69
47.86
39.55
28.45
15.01
0.26
-14.66
-28.49
-40.41
-50.54
-59.46
-67.87
-76.00
-83.60
-90.43
-96.62
-102.37
-107.74
-112.48
-115.84
-116.98
-115.34
-111.04
-104.92
-98.21
-91.91
-86.46
-81.72
-77.12
-72.08
-66.19
-59.22
-51.26
-42.76
-34.53
-27.68
-23.15
-21.29
-21.45
-22.10
-21.38
-17.95
-11.88
-4.68
1.30
4.08
3.07
-0.60
-4.74
-7.30
-7.38
-5.55
-3.30
-2.06
-2.39
-3.89
-5.59
-6.69
-6.94
-6.69
-6.48
-6.63
-7.03
-7.15
-6.34
-4.12
-0.50
3.96
8.27
11.47
13.01
13.11
12.57
12.44
13.36
15.29
17.66
19.79
21.37
22.53
23.62
24.78
25.79
26.12
25.35
23.46
20.87
18.16
15.67
13.34
10.81
7.72
3.94
-0.34
-4.82
-9.34
-14.04
-19.48
-26.30
-34.91
-45.06
-55.88
-65.97
-73.71
-77.74
-77.50
-73.63
-67.75
-61.75
-57.06
-54.12
-52.22
-49.87
-45.31
-37.62
-27.40
-16.54
-7.19
-0.86
1.96
1.86
0.21
-1.23
-1.31
-0.13
1.28
1.92
1.28
-0.57
-3.25
-5.79
-6.49
-3.42
4.77
18.60
37.94
61.57
86.88
108.71
119.20
113.83
95.71
72.72
51.98
37.30
29.39
27.14
28.85
33.22
39.55
46.76
53.33
56.63
54.68
47.26
35.70
22.14
9.10
-0.94
-6.31
-6.75
-3.26
2.63
9.28
15.49
19.92
22.07
22.77
23.58
25.73
29.33
33.53
36.95
38.46
37.61
35.02
31.72
28.25
24.08
17.99
9.07
-2.36
-14.78
-26.15
-34.64
-39.52
-41.21
-40.85
-39.66
-38.27
-36.71
-34.73
-32.22
-29.35
-26.52
-24.09
-22.14
-20.26
-17.81
-14.19
-9.38
-4.09
0.47
3.02
2.90
0.45
-3.04
-5.87
-6.63
-4.79
-0.82
4.17
8.91
12.47
14.40
14.72
13.68
11.59
8.81
5.71
2.78
0.52
-0.64
-0.57
0.40
1.40
1.26
-1.03
-5.74
-12.02
-18.09
-21.91
-22.22
-19.17
-14.35
-9.99
-7.95
-8.94
-12.54
-17.79
-24.07
-31.37
-40.03
-49.95
-60.02
-68.23
-72.49
-71.71
-66.45
-58.66
-50.66
-44.01
-38.80
-33.94
-28.06
-20.55
-12.07
-4.17
1.63
4.80
6.12
7.27
9.87
14.72
21.50
29.10
36.34
42.49
47.57
52.11
56.68
61.64
66.90
72.00
76.34
79.29
80.40
79.46
76.59
72.16
66.73
60.85
54.89
49.08
43.55
38.45
34.02
30.43
27.67
25.36
22.84
19.29
14.10
7.07
-1.40
-10.44
-18.90
-25.72
-30.30
-32.71
-33.75
-34.56
-36.14
-38.79
-41.90
-44.18
-44.25
-41.38
-35.83
-28.81
-21.93
-16.50
-12.87
-10.34
-7.38
-2.32
5.95
17.58
31.67
46.61
60.39
71.17
77.61
79.24
76.62
71.31
65.49
61.25
59.86
61.10
63.29
63.83
60.28
51.54
38.38
23.19
8.98
-2.00
-9.27
-14.05
-18.25
-23.01
-27.81
-30.64
-29.32
-22.96
-12.78
-1.76
6.85
11.11
11.16
8.65
5.41
2.13
-1.81
-7.80
-17.02
-29.61
-44.37
-59.32
-72.55
-83.04
-90.93
-96.76
-101.09
-104.42
-107.10
-109.34
-111.36
-113.62
-116.73
-121.16
-125.80
-128.46
-127.53
-123.16
-117.30
-112.84
-112.41
-117.10
-126.34
-136.64
-143.79
-145.68
-143.42
-140.20
-139.45
-143.41
-152.27
-164.30
-174.03
-173.96
-157.88
-122.83
-69.28
-0.62
77.46
160.51
232.99
278.95
294.00
286.30
267.58
246.20
225.85
207.18
189.94
173.72
159.94
150.12
143.13
134.93
121.02
99.34
71.63
42.80
18.60
4.45
2.79
11.26
23.75
33.76
37.17
33.39
24.46
13.49
3.25
-4.01
-7.40
-6.87
-2.57
5.15
15.17
24.85
30.82
31.02
25.87
17.83
10.19
5.42
4.13
4.99
5.81
4.88
1.87
-2.35
-6.98
-12.00
-18.05
-25.67
-34.52
-43.13
-49.37
-51.36
-48.41
-41.52
-32.94
-25.46
-21.48
-22.18
-27.65
-36.20
-45.48
-53.21
-57.86
-58.95
-56.95
-52.81
-47.34
-40.33
-32.44
-23.85
-15.00
-6.83
-0.50
3.13
3.64
1.30
-2.99
-7.84
-11.18
-10.84
-5.35
5.31
19.26
33.10
43.27
47.66
46.03
40.15
32.61
25.51
19.73
15.04
10.87
7.00
3.76
1.68
1.09
1.76
2.99
3.97
4.03
2.94
0.99
-1.14
-2.62
-2.65
-0.92
2.23
5.87
8.93
10.64
10.83
9.88
8.41
6.92
5.66
4.60
3.61
2.55
1.37
0.12
-1.24
-2.69
-4.21
-5.69
-7.11
-8.64
-10.63
-13.43
-17.13
-21.54
-26.13
-30.34
-33.66
-35.96
-37.42
-38.38
-39.12
-39.75
-40.11
-39.87
-39.32
-38.63
-37.97
-37.49
-37.21
-36.94
-36.43
-35.48
-34.11
-32.69
-31.76
-31.94
-33.65
-36.83
-40.89
-44.80
-47.38
-47.68
-45.32
-40.48
-33.88
-26.50
-19.21
-12.53
-6.54
-0.95
4.70
10.85
17.72
25.06
32.15
37.82
40.92
40.75
37.59
32.80
28.48
26.74
28.89
34.83
43.17
51.68
58.23
61.44
61.00
57.58
52.41
46.79
41.80
38.16
36.19
35.87
36.83
38.49
40.08
40.86
40.32
38.22
34.65
29.96
24.66
19.29
14.28
9.92
6.30
3.34
0.90
-1.05
-2.41
-2.97
-2.55
-1.15
0.93
3.21
5.21
6.77
8.17
10.05
13.21
18.14
24.81
32.52
40.04
45.93
48.99
48.55
44.71
38.30
30.71
23.53
18.19
15.50
15.52
17.54
20.37
22.83
24.11
24.03
22.87
21.12
19.08
16.71
13.62
9.39
3.85
-2.85
-10.34
-17.90
-24.66
-29.94
-33.42
-35.24
-35.99
-36.42
-37.25
-39.06
-41.74
-44.55
-46.47
-46.54
-44.10
-38.95
-31.01
-20.52
-8.24
5.17
19.07
32.55
44.53
53.92
59.93
62.71
62.50
58.63
51.29
41.48
30.39
19.36
9.66
2.13
-1.91
-2.55
-2.72
-4.15
-6.95
-10.78
-14.99
-19.00
-22.64
-24.29
-23.77
-24.60
-27.89
-32.17
-35.62
-36.28
-32.54
-23.56
-7.12
16.44
40.81
61.61
77.03
85.77
87.87
84.95
64.04
24.34
-5.44
-18.73
-23.01
-22.06
-19.29
-17.16
-16.95
-18.77
-19.50
-17.14
-14.79
-13.31
-11.44
-8.56
-4.67
-0.35
3.36
7.26
11.39
12.63
10.46
6.78
3.27
1.09
0.66
1.65
4.49
8.75
11.78
12.43
11.13
8.44
5.02
1.48
-1.70
-3.69
-4.29
-4.66
-5.55
-7.11
-9.53
-12.85
-16.97
-21.58
-25.98
-29.47
-31.83
-32.77
-32.12
-30.09
-27.11
-23.67
-20.12
-16.62
-13.16
-9.67
-6.09
-2.37
1.57
5.85
10.58
15.65
20.73
25.24
28.57
30.34
30.51
29.39
27.48
25.25
22.99
20.76
18.43
15.69
12.09
7.09
0.20
-8.78
-19.56
-31.18
-42.14
-50.71
-55.55
-56.12
-52.97
-47.57
-41.85
-37.58
-35.81
-36.72
-39.72
-43.81
-48.03
-51.62
-54.06
-54.95
-53.85
-50.39
-44.46
-36.38
-27.05
-17.68
-9.47
-3.19
1.05
3.77
5.84
8.10
11.08
14.90
19.18
23.29
26.51
28.24
28.14
26.31
23.24
19.69
16.52
14.45
13.90
14.89
17.10
19.87
22.45
24.14
24.51
23.55
21.69
19.61
18.00
17.24
17.28
17.64
17.68
16.87
15.00
12.18
8.75
5.08
1.45
-1.95
-5.03
-7.65
-9.64
-10.82
-11.07
-10.41
-8.97
-6.98
-4.63
-2.04
0.74
3.71
6.71
9.36
11.03
11.00
8.80
4.49
-1.22
-7.12
-11.85
-14.41
-14.35
-11.81
-7.32
-1.56
4.68
10.52
15.00
17.21
16.72
13.79
9.47
5.19
2.20
1.05
1.40
2.36
3.03
2.91
2.09
0.95
-0.12
-1.04
-2.03
-3.36
-5.21
-7.45
-9.81
-12.02
-13.97
-15.79
-17.74
-20.08
-22.89
-26.05
-29.22
-31.91
-33.62
-33.97
-32.82
-30.24
-26.57
-22.22
-17.55
-12.77
-7.93
-3.03
1.91
6.73
11.18
15.02
18.11
20.47
22.22
23.50
24.39
24.91
25.01
24.68
23.95
22.93
21.79
20.66
19.61
18.62
17.60
16.42
15.03
13.42
11.64
9.81
8.02
6.29
4.58
2.79
0.77
-1.55
-4.12
-6.81
-9.40
-11.71
-13.64
-15.24
-16.57
-17.71
-18.67
-19.38
-19.75
-19.70
-19.22
-18.26
-16.74
-14.52
-11.47
-7.55
-2.84
2.42
7.91
13.30
18.32
22.79
26.64
29.84
32.42
34.35
35.61
36.16
35.97
35.06
33.45
31.22
28.44
25.19
21.54
17.60
13.50
9.34
5.25
1.27
-2.55
-6.21
-9.69
-12.95
-15.96
-18.70
-21.18
-23.41
-25.41
-27.14
-28.56
-29.56
-30.05
-29.90
-29.05
-27.45
-25.17
-22.39
-19.33
-16.24
-13.30
-10.55
-7.91
-5.23
-2.43
0.53
3.52
6.40
9.03
11.39
13.59
15.83
18.34
21.18
24.23
27.09
29.24
30.23
29.88
28.42
26.39
24.45
23.06
22.27
21.75
21.04
19.80
18.07
16.19
14.62
13.68
13.34
13.25
12.95
12.08
10.54
8.49
6.18
3.76
1.15
-1.87
-5.48
-9.65
-14.08
-18.33
-22.02
-25.00
-27.41
-29.57
-31.78
-34.22
-36.88
-39.55
-41.91
-43.57
-44.14
-43.29
-40.82
-36.75
-31.35
-25.09
-18.51
-12.17
-6.47
-1.62
2.33
5.49
7.96
9.87
11.21
11.97
12.14
11.75
10.98
10.03
9.10
8.32
7.69
7.17
6.73
6.38
6.20
6.29
6.66
7.27
7.97
8.55
8.87
8.81
8.38
7.64
6.72
5.72
4.70
3.63
2.44
1.06
-0.56
-2.35
-4.18
-5.93
-7.57
-9.14
-10.76
-12.43
-14.02
-15.23
-15.69
-15.10
-13.37
-10.64
-7.20
-3.45
0.26
3.68
6.68
9.25
11.39
13.14
14.45
15.24
15.42
14.93
13.83
12.28
10.52
8.80
7.28
5.98
4.84
3.73
2.55
1.26
-0.09
-1.44
-2.73
-3.96
-5.17
-6.40
-7.65
-8.90
-10.15
-11.42
-12.76
-14.23
-15.86
-17.57
-19.27
-20.85
-22.31
-23.72
-25.20
-26.85
-28.68
-30.52
-32.15
-33.28
-33.69
-33.25
-31.97
-29.92
-27.22
-23.92
-20.06
-15.67
-10.91
-6.07
-1.52
2.42
5.64
8.20
10.33
12.26
14.01
15.46
16.40
16.71
16.42
15.78
15.08
14.62
14.49
14.65
14.92
15.12
15.10
14.83
14.34
13.66
12.82
11.87
10.81
9.73
8.66
7.66
6.68
5.65
4.48
3.08
1.46
-0.34
-2.23
-4.20
-6.26
-8.44
-10.77
-13.19
-15.51
-17.45
-18.70
-18.97
-18.12
-16.17
-13.34
-9.96
-6.40
-2.96
0.19
2.99
5.48
7.71
9.67
11.33
12.63
13.59
14.24
14.70
15.04
15.28
15.35
15.18
14.74
14.06
13.29
12.53
11.81
11.03
9.99
8.53
6.59
4.29
1.86
-0.45
-2.45
-4.13
-5.57
-6.92
-8.32
-9.82
-11.43
-13.17
-15.02
-16.99
-19.04
-21.13
-23.13
-24.93
-26.35
-27.21
-27.37
-26.70
-25.23
-23.07
-20.45
-17.63
-14.81
-12.14
-9.63
-7.27
-4.99
-2.79
-0.69
1.24
2.98
4.49
5.86
7.22
8.70
10.34
12.07
13.73
15.14
16.24
16.99
17.40
17.42
16.92
15.80
14.06
11.84
9.39
6.91
4.47
2.04
-0.41
-2.84
-5.07
-6.87
-8.14
-8.94
-9.52
-10.18
-11.18
-12.65
-14.68
-17.25
-20.28
-23.48
-26.43
-28.52
-29.17
-28.04
-25.14
-20.88
-15.86
-10.71
-5.88
-1.59
2.13
5.31
8.02
10.30
12.17
13.71
14.97
15.90
16.33
15.99
14.66
12.32
9.30
6.13
3.41
1.52
0.50
0.04
-0.29
-0.89
-1.88
-3.15
-4.47
-5.54
-6.24
-6.53
-6.50
-6.29
-6.02
-5.77
-5.61
-5.68
-6.11
-7.13
-8.87
-11.37
-14.44
-17.72
-20.75
-23.10
-24.50
-24.80
-24.06
-22.42
-20.08
-17.22
-14.00
-10.49
-6.72
-2.71
1.51
5.83
10.05
13.98
17.43
20.29
22.52
24.11
25.08
25.50
25.43
24.95
24.14
23.04
21.67
20.04
18.26
16.48
14.86
13.48
12.30
11.15
9.81
8.09
5.89
3.26
0.36
-2.63
-5.53
-8.22
-10.68
-12.92
-15.04
-17.03
-18.87
-20.43
-21.65
-22.51
-23.09
-23.52
-23.79
-23.73
-23.05
-21.45
-18.85
-15.37
-11.41
-7.43
-3.80
-0.67
2.03
4.55
7.14
9.95
12.95
15.92
18.55
20.53
21.72
22.18
22.13
21.88
21.65
21.54
21.51
21.42
21.15
20.65
19.95
19.21
18.62
18.33
18.47
19.00
19.79
20.54
20.95
20.70
19.58
17.56
14.74
11.39
7.83
4.39
1.24
-1.56
-4.12
-6.67
-9.41
-12.45
-15.71
-18.92
-21.66
-23.55
-24.32
-23.92
-22.54
-20.49
-18.09
-15.49
-12.72
-9.66
-6.20
-2.31
1.86
6.01
9.81
12.94
15.18
16.30
16.24
14.97
12.72
9.92
7.19
5.17
4.27
4.52
5.52
6.64
7.27
7.06
6.02
4.42
2.62
0.92
-0.54
-1.74
-2.70
-3.40
-3.83
-3.99
-4.05
-4.29
-5.08
-6.65
-9.03
-12.01
-15.25
-18.37
-21.15
-23.46
-25.23
-26.36
-26.67
-25.91
-23.91
-20.60
-16.01
-10.29
-3.61
3.79
11.58
19.33
26.48
32.55
37.16
40.16
41.57
41.56
40.39
38.36
35.77
32.95
30.14
27.57
25.35
23.48
21.88
20.40
18.87
17.15
15.19
13.01
10.74
8.55
6.59
4.93
3.56
2.39
1.30
0.16
-1.17
-2.85
-4.99
-7.66
-10.75
-14.08
-17.40
-20.51
-23.30
-25.79
-28.03
-30.05
-31.77
-33.04
-33.70
-33.73
-33.31
-32.81
-32.64
-33.03
-33.86
-34.64
-34.67
-33.24
-29.98
-24.92
-18.50
-11.45
-4.52
1.58
6.40
9.65
11.35
11.67
11.00
9.77
8.40
7.21
6.34
5.81
5.50
5.29
5.02
4.63
4.12
3.57
3.11
2.87
2.89
3.14
3.51
3.80
3.80
3.32
2.20
0.36
-2.17
-5.23
-8.56
-11.83
-14.71
-16.90
-18.16
-18.33
-17.36
-15.27
-12.14
-8.17
-3.57
1.34
6.23
10.77
14.63
17.65
19.80
21.24
22.20
22.90
23.43
23.72
23.63
23.08
22.14
20.98
19.90
19.07
18.56
18.25
17.93
17.40
16.59
15.49
14.24
12.98
11.80
10.70
9.54
8.13
6.33
4.11
1.55
-1.18
-3.92
-6.66
-9.55
-12.83
-16.63
-20.95
-25.45
-29.62
-32.85
-34.65
-34.76
-33.23
-30.30
-26.37
-21.80
-16.91
-11.91
-7.03
-2.51
1.38
4.45
6.65
8.10
9.07
9.88
10.77
11.80
12.89
13.81
14.31
14.25
13.61
12.57
11.38
10.26
9.36
8.74
8.34
8.10
7.99
7.97
7.96
7.84
7.46
6.74
5.68
4.35
2.84
1.21
-0.52
-2.33
-4.18
-5.96
-7.59
-9.00
-10.24
-11.39
-12.54
-13.74
-14.91
-15.91
-16.50
-16.44
-15.50
-13.56
-10.69
-7.16
-3.37
0.32
3.69
6.72
9.57
12.36
15.10
17.68
19.90
21.64
22.92
23.93
24.86
25.85
26.89
27.87
28.63
29.03
28.96
28.43
27.50
26.36
25.19
24.18
23.34
22.52
21.49
20.00
17.96
15.47
12.72
9.90
7.08
4.22
1.25
-1.87
-5.01
-7.98
-10.60
-12.82
-14.74
-16.59
-18.59
-20.79
-23.09
-25.21
-26.80
-27.52
-27.10
-25.37
-22.27
-17.84
-12.36
-6.32
-0.40
4.67
8.41
10.69
11.90
12.77
14.16
16.80
21.05
26.75
33.12
38.92
42.71
43.25
39.91
32.84
22.91
11.36
-0.56
-11.89
-21.99
-30.48
-37.09
-41.59
-44.00
-44.52
-43.67
-42.09
-40.36
-38.83
-37.60
-36.68
-36.01
-35.63
-35.57
-35.91
-36.63
-37.62
-38.69
-39.59
-40.04
-39.69
-38.25
-35.47
-31.30
-25.96
-19.92
-13.81
-8.15
-3.22
1.01
4.78
8.38
11.92
15.37
18.55
21.28
23.45
25.04
26.06
26.51
26.38
25.70
24.59
23.24
21.87
20.59
19.36
18.05
16.45
14.46
12.09
9.50
6.87
4.32
1.85
-0.59
-3.09
-5.62
-8.05
-10.24
-12.07
-13.56
-14.81
-15.95
-17.06
-18.16
-19.19
-20.10
-20.79
-21.11
-20.85
-19.82
-17.87
-14.99
-11.31
-7.07
-2.53
2.10
6.64
10.98
15.00
18.59
21.66
24.16
26.04
27.23
27.64
27.30
26.27
24.75
22.97
21.14
19.37
17.70
16.15
14.79
13.76
13.16
12.95
12.99
12.95
12.60
11.77
10.54
9.12
7.70
6.34
4.93
3.31
1.35
-0.91
-3.25
-5.40
-7.13
-8.36
-9.23
-9.97
-10.77
-11.71
-12.69
-13.42
-13.61
-12.99
-11.47
-9.09
-6.00
-2.35
1.71
6.07
10.62
15.16
19.47
23.30
26.50
28.99
30.88
32.34
33.60
34.83
36.09
37.33
38.35
38.86
38.46
36.72
33.28
28.03
21.15
13.16
4.85
-2.96
-9.62
-14.86
-18.78
-21.76
-24.19
-26.35
-28.29
-29.93
-31.25
-32.30
-33.31
-34.54
-36.16
-38.17
-40.42
-42.61
-44.46
-45.70
-46.13
-45.62
-44.12
-41.66
-38.37
-34.39
-29.91
-25.06
-19.98
-14.79
-9.63
-4.62
0.13
4.58
8.74
12.61
16.16
19.29
21.87
23.71
24.68
24.74
24.01
22.71
21.11
19.48
17.94
16.49
15.03
13.43
11.58
9.51
7.28
5.05
3.01
1.33
0.13
-0.64
-1.16
-1.70
-2.47
-3.53
-4.79
-5.99
-6.97
-7.70
-8.33
-9.15
-10.42
-12.17
-14.24
-16.25
-17.74
-18.36
-17.90
-16.39
-13.98
-10.94
-7.48
-3.73
0.26
4.42
8.64
12.73
16.56
20.03
23.18
26.04
28.59
30.68
32.12
32.71
32.39
31.27
29.56
27.50
25.30
23.08
20.88
18.71
16.55
14.40
12.25
10.10
7.98
5.90
3.88
1.94
0.13
-1.46
-2.76
-3.74
-4.48
-5.13
-5.84
-6.70
-7.69
-8.69
-9.59
-10.33
-10.94
-11.46
-11.90
-12.14
-11.97
-11.11
-9.29
-6.44
-2.62
1.84
6.56
11.07
15.10
18.52
21.41
23.97
26.41
28.89
31.43
33.94
36.26
38.16
39.46
40.01
39.75
38.74
37.06
34.88
32.41
29.93
27.70
25.92
24.61
23.58
22.45
20.81
18.45
15.45
12.13
8.89
5.93
3.14
0.24
-3.12
-7.06
-11.39
-15.72
-19.69
-23.07
-25.88
-28.29
-30.43
-32.35
-33.93
-35.04
-35.58
-35.59
-35.20
-34.57
-33.79
-32.77
-31.28
-29.06
-25.98
-22.13
-17.87
-13.63
-9.80
-6.61
-4.10
-2.25
-1.01
-0.39
-0.40
-0.98
-2.01
-3.27
-4.60
-5.92
-7.29
-8.83
-10.67
-12.86
-15.33
-17.89
-20.25
-22.16
-23.50
-24.34
-24.89
-25.44
-26.20
-27.18
-28.27
-29.26
-30.00
-30.47
-30.77
-30.98
-31.12
-31.08
-30.72
-29.97
-28.88
-27.60
-26.24
-24.82
-23.19
-21.12
-18.39
-14.92
-10.77
-6.20
-1.55
2.84
6.72
9.98
12.68
14.95
16.94
18.72
20.22
21.29
21.79
21.66
20.95
19.82
18.44
16.95
15.40
13.78
12.09
10.39
8.81
7.53
6.71
6.39
6.51
6.90
7.35
7.63
7.62
7.21
6.45
5.43
4.26
3.09
1.96
0.89
-0.22
-1.50
-3.09
-5.07
-7.38
-9.84
-12.11
-13.77
-14.45
-13.91
-12.17
-9.53
-6.45
-3.34
-0.45
2.20
4.72
7.22
9.67
11.90
13.74
15.10
16.09
16.91
17.84
19.01
20.42
21.89
23.17
23.98
24.15
23.63
22.56
21.22
19.86
18.67
17.66
16.74
15.83
14.97
14.29
13.95
13.88
13.76
13.05
11.23
8.10
3.83
-0.99
-5.69
-9.70
-12.84
-15.33
-17.66
-20.36
-23.78
-27.96
-32.55
-37.02
-40.62
-42.61
-42.34
-39.33
-33.39
-24.67
-13.75
-1.53
10.89
22.48
32.37
40.08
45.47
48.70
50.15
50.26
49.53
48.37
47.09
45.90
44.88
44.05
43.31
42.52
41.33
39.38
36.35
32.11
26.88
21.13
15.50
10.54
6.54
3.46
1.02
-1.13
-3.23
-5.41
-7.66
-9.94
-12.27
-14.65
-17.09
-19.51
-21.80
-23.95
-26.13
-28.66
-31.86
-35.82
-40.14
-43.96
-46.18
-45.84
-42.43
-36.13
-27.67
-18.11
-8.54
0.21
7.62
13.43
17.47
19.55
19.52
17.31
13.14
7.60
1.54
-4.10
-8.55
-11.43
-12.77
-12.82
-11.99
-10.64
-9.07
-7.61
-6.64
-6.64
-8.01
-10.94
-15.17
-20.04
-24.54
-27.68
-28.92
-28.40
-26.91
-25.60
-25.49
-27.05
-30.11
-34.02
-38.09
-41.82
-44.92
-47.16
-48.17
-47.42
-44.44
-39.17
-32.12
-24.35
-17.02
-10.89
-6.07
-1.96
2.46
8.10
15.48
24.56
34.86
45.71
56.45
66.62
75.93
84.15
90.97
95.93
98.53
98.38
95.37
89.78
82.15
73.11
63.21
52.78
42.02
31.05
20.08
9.41
-0.57
-9.44
-16.74
-22.07
-25.08
-25.75
-24.47
-22.17
-20.14
-19.69
-21.68
-26.20
-32.55
-39.44
-45.49
-49.67
-51.60
-51.54
-50.13
-48.06
-45.69
-42.97
-39.57
-35.13
-29.56
-23.17
-16.53
-10.30
-4.93
-0.58
2.90
5.81
8.36
10.66
12.54
13.66
13.66
12.27
9.60
6.14
2.69
0.05
-1.31
-1.56
-1.41
-1.84
-3.60
-6.88
-11.19
-15.60
-19.18
-21.36
-22.04
-21.61
-20.67
-19.87
-19.68
-20.35
-21.84
-23.99
-26.54
-29.20
-31.62
-33.37
-33.95
-32.86
-29.81
-24.82
-18.27
-10.76
-2.90
4.97
12.82
20.77
28.92
36.98
44.26
49.74
52.44
51.79
47.92
41.71
34.58
28.11
23.58
21.58
21.94
23.85
26.25
28.16
29.10
29.09
28.56
28.16
28.39
29.41
30.83
31.81
31.23
28.11
22.07
13.53
3.85
-5.13
-11.58
-14.33
-13.33
-9.72
-5.53
-3.08
-4.32
-10.15
-20.07
-32.18
-43.72
-51.86
-54.71
-51.87
-44.64
-35.32
-26.37
-19.52
-15.33
-13.36
-12.65
-12.26
-11.55
-10.16
-7.86
-4.43
0.17
5.67
11.34
16.19
19.28
20.14
19.00
16.63
14.08
12.16
11.25
11.30
11.93
12.79
13.66
14.52
15.45
16.51
17.67
18.86
19.99
21.01
21.82
22.26
21.96
20.32
16.72
10.72
2.40
-7.45
-17.26
-24.95
-28.37
-25.93
-17.14
-2.99
14.08
30.77
43.65
50.24
49.77
43.37
33.74
24.14
17.25
14.31
14.91
17.46
20.10
21.52
21.36
20.03
18.20
16.27
14.18
11.58
8.23
4.31
0.37
-2.99
-5.48
-7.37
-9.34
-12.13
-16.11
-21.04
-26.19
-30.64
-33.70
-35.19
-35.50
-35.37
-35.58
-36.57
-38.34
-40.43
-42.22
-43.15
-42.91
-41.48
-39.18
-36.48
-33.85
-31.46
-29.19
-26.67
-23.51
-19.49
-14.74
-9.74
-5.14
-1.36
1.73
4.72
8.31
12.81
17.87
22.45
25.07
24.30
19.62
11.93
3.30
-4.03
-8.57
-10.22
-10.33
-11.32
-15.77
-24.93
-37.60
-50.58
-60.30
-64.38
-62.53
-56.63
-50.18
-47.35
-51.30
-62.68
-79.89
-99.96
-118.79
-130.93
-130.25
-112.31
-77.21
-30.62
17.76
56.81
77.51
76.31
56.60
29.43
10.10
8.55
21.25
36.92
46.85
49.31
47.68
46.67
48.80
52.91
55.02
51.61
42.73
31.93
24.13
22.75
28.38
38.63
49.11
55.10
54.00
47.20
38.72
33.02
32.72
37.91
46.33
54.50
59.05
58.35
53.31
46.63
41.09
38.13
37.57
37.98
37.68
35.42
31.06
25.52
19.82
15.14
11.66
8.87
6.15
3.36
1.04
0.21
1.92
6.71
14.34
23.80
33.82
43.30
51.60
58.41
63.69
67.37
69.23
68.88
65.82
59.75
50.96
40.50
30.03
21.49
16.44
15.63
18.82
24.95
32.63
40.57
47.82
53.77
58.00
60.19
60.19
58.06
53.99
48.21
40.78
31.52
20.12
6.40
-9.41
-26.53
-43.75
-59.81
-73.72
-85.06
-93.91
-100.61
-105.39
-108.26
-108.95
-107.12
-102.73
-96.07
-87.86
-78.90
-69.93
-61.37
-53.38
-46.00
-39.21
-33.08
-27.68
-23.13
-19.49
-16.78
-14.88
-13.62
-12.69
-11.76
-10.57
-9.05
-7.41
-5.94
-4.96
-4.55
-4.49
-4.38
-3.80
-2.51
-0.59
1.56
3.31
3.99
3.18
0.86
-2.47
-5.96
-8.71
-10.18
-10.46
-10.25
-10.69
-12.90
-17.60
-24.65
-32.83
-39.80
-42.54
-38.20
-25.25
-4.44
20.93
45.80
64.90
74.48
73.48
63.43
47.58
29.44
11.81
-3.61
-15.88
-24.34
-28.43
-27.87
-23.04
-15.23
-6.40
1.33
6.40
8.28
7.61
5.75
4.28
4.39
6.49
10.24
14.76
19.05
22.41
24.57
25.81
26.66
27.68
29.11
30.85
32.44
33.29
32.91
31.18
28.33
24.81
21.07
17.19
12.89
7.50
0.35
-9.07
-20.72
-34.07
-48.20
-61.97
-74.31
-84.37
-91.69
-96.19
-98.13
-97.86
-95.68
-91.76
-86.19
-79.19
-71.24
-63.05
-55.41
-48.86
-43.59
-39.37
-35.79
-32.41
-28.97
-25.35
-21.50
-17.34
-12.79
-7.78
-2.34
3.36
9.10
14.61
19.62
23.84
26.99
28.73
28.83
27.28
24.33
20.48
16.27
12.20
8.62
5.70
3.51
2.14
1.64
1.93
2.82
3.90
4.71
4.81
3.97
2.22
-0.18
-2.80
-5.14
-6.74
-7.26
-6.52
-4.57
-1.61
2.04
6.00
9.93
13.53
16.61
19.06
20.86
22.07
22.72
22.87
22.53
21.47
19.62
17.20
14.56
12.01
9.74
7.87
6.39
5.26
4.13
2.84
1.53
0.51
0.02
0.13
0.68
1.41
2.02
1.76
0.38
-1.58
-3.38
-4.66
-5.50
-6.26
-7.33
-8.99
-12.88
-19.54
-27.91
-36.40
-44.18
-51.07
-56.83
-60.81
-62.02
-62.70
-63.68
-63.28
-59.48
-52.23
-43.07
-33.79
-25.57
-18.93
-19.08
-28.03
-42.52
-57.55
-70.60
-81.80
-92.30
-103.22
-115.30
-135.50
-166.26
-202.67
-236.89
-264.15
-283.47
-296.15
-304.69
-269.78
-183.47
-74.91
20.63
90.92
140.83
178.32
208.33
232.16
249.00
251.20
235.87
208.04
176.56
148.13
126.54
113.25
108.26
110.08
111.17
107.06
99.20
92.57
90.73
94.85
104.39
116.75
128.10
131.81
125.05
107.76
83.99
58.00
31.72
9.95
-3.03
-6.85
-6.39
-6.56
-9.76
-15.66
-22.93
-29.52
-32.54
-29.94
-20.79
-6.94
9.80
26.31
39.17
45.48
44.44
37.92
28.76
20.27
15.40
15.60
20.07
26.90
32.67
34.32
30.20
19.43
3.07
-16.25
-35.45
-52.20
-64.69
-71.43
-71.10
-59.51
-38.17
-14.01
5.58
16.98
20.10
17.29
11.70
6.35
3.10
1.80
1.65
2.03
2.49
2.46
1.56
-0.20
-2.28
-3.91
-4.87
-4.92
-3.91
-2.05
-0.16
1.04
1.28
0.98
1.14
2.49
5.68
11.08
18.74
27.50
35.69
41.44
43.12
40.10
32.90
23.45
14.54
8.49
5.74
4.67
2.09
-5.42
-19.73
-40.39
-64.41
-87.02
-103.22
-109.52
-104.90
-91.15
-72.11
-52.05
-34.52
-21.39
-12.89
-8.26
-6.63
-7.28
-9.54
-13.87
-19.17
-23.77
-26.17
-25.80
-23.37
-20.54
-18.90
-19.28
-21.29
-23.40
-24.13
-22.71
-19.43
-15.54
-12.50
-11.41
-12.54
-15.43
-18.96
-22.23
-24.77
-26.68
-28.48
-30.81
-34.19
-38.75
-44.33
-50.33
-56.05
-60.75
-63.77
-64.63
-63.11
-59.23
-53.21
-45.45
-36.31
-26.23
-15.71
-5.23
4.69
13.62
21.30
27.74
33.23
38.32
43.63
49.60
56.34
63.39
69.86
74.52
76.19
74.17
68.61
60.65
52.18
45.35
41.78
41.96
45.03
48.95
51.28
50.11
44.75
36.04
25.99
16.87
10.36
6.91
5.65
4.93
3.14
-0.70
-6.54
-13.54
-20.54
-26.42
-30.45
-32.24
-31.62
-28.57
-23.21
-15.94
-7.43
1.41
9.68
16.72
22.27
26.49
29.76
32.48
34.91
37.09
38.88
40.13
40.76
40.85
40.62
40.27
39.91
39.47
38.80
37.64
35.85
33.33
30.17
26.57
22.86
19.44
16.66
14.70
13.48
12.64
11.69
10.12
7.71
4.55
0.97
-2.65
-6.11
-9.43
-12.80
-16.37
-20.09
-23.60
-26.28
-27.49
-26.80
-24.15
-19.88
-14.60
-8.96
-3.48
1.57
6.12
10.19
13.86
17.15
20.06
22.63
24.97
27.23
29.54
31.97
34.46
36.85
38.93
40.50
41.41
41.57
40.98
39.73
37.99
36.02
34.01
32.04
29.93
27.28
23.62
18.73
12.75
6.24
-0.03
-5.42
-9.61
-12.75
-15.22
-17.47
-19.84
-22.52
-25.61
-29.08
-32.73
-36.02
-38.12
-38.04
-35.11
-29.23
-21.12
-12.04
-3.43
3.63
8.67
11.86
13.79
15.11
16.33
17.67
19.16
20.73
22.24
23.64
24.83
25.77
26.43
26.82
27.04
27.17
27.34
27.59
27.93
28.25
28.38
28.13
27.32
25.79
23.44
20.28
16.42
12.09
7.58
3.18
-0.86
-4.45
-7.64
-10.61
-13.51
-16.48
-19.51
-22.49
-25.22
-27.45
-28.93
-29.38
-28.66
-26.75
-23.85
-20.31
-16.50
-12.64
-8.71
-4.45
0.45
6.07
12.25
18.50
24.21
28.84
32.13
34.02
34.67
34.30
33.10
31.27
29.01
26.60
24.30
22.31
20.67
19.24
17.80
16.17
14.37
12.62
11.28
10.60
10.66
11.21
11.81
11.97
11.32
9.79
7.48
4.72
1.83
-0.91
-3.34
-5.41
-7.10
-8.42
-9.40
-10.13
-10.71
-11.28
-12.02
-13.16
-14.91
-17.43
-20.68
-24.30
-27.69
-30.05
-30.67
-29.18
-25.67
-20.70
-15.07
-9.56
-4.71
-0.74
2.38
4.80
6.75
8.44
10.06
11.74
13.47
15.10
16.31
16.68
15.84
13.55
9.90
5.23
0.20
-4.43
-7.95
-9.90
-10.21
-9.27
-7.75
-6.34
-5.53
-5.45
-5.95
-6.69
-7.46
-8.26
-9.32
-10.98
-13.48
-16.81
-20.57
-24.13
-26.74
-27.71
-26.64
-23.44
-18.37
-11.96
-4.86
2.24
8.73
14.21
18.44
21.39
23.17
23.96
23.98
23.44
22.58
21.59
20.60
19.63
18.58
17.34
15.76
13.83
11.60
9.17
6.60
3.90
1.09
-1.87
-5.00
-8.37
-12.04
-16.12
-20.63
-25.48
-30.45
-35.23
-39.48
-42.94
-45.51
-47.25
-48.43
-49.36
-50.27
-51.22
-51.93
-51.98
-50.86
-48.23
-44.00
-38.33
-31.43
-23.51
-14.70
-5.14
4.85
14.75
23.87
31.58
37.46
41.48
43.83
44.76
44.52
43.22
41.02
38.13
34.89
31.70
28.87
26.54
24.74
23.39
22.38
21.65
21.10
20.57
19.86
18.80
17.28
15.25
12.71
9.55
5.60
0.60
-5.62
-13.04
-21.37
-30.12
-38.72
-46.63
-53.46
-58.98
-63.02
-65.42
-66.04
-64.77
-61.69
-57.02
-51.17
-44.53
-37.39
-29.88
-22.02
-13.93
-5.89
1.59
7.92
12.62
15.53
16.88
17.21
17.17
17.34
17.98
19.09
20.33
21.31
21.70
21.38
20.48
19.27
17.99
16.78
15.55
14.13
12.37
10.28
8.05
5.99
4.25
2.86
1.61
0.29
-1.24
-2.92
-4.60
-6.23
-7.92
-9.93
-12.46
-15.53
-18.85
-21.92
-24.31
-25.75
-26.25
-25.94
-25.00
-23.50
-21.44
-18.82
-15.73
-12.37
-9.02
-5.99
-3.48
-1.61
-0.39
0.28
0.62
0.92
1.49
2.56
4.23
6.38
8.70
10.80
12.31
13.06
13.04
12.45
11.49
10.23
8.59
6.32
3.26
-0.63
-5.09
-9.73
-14.05
-17.68
-20.36
-21.90
-22.21
-21.29
-19.36
-16.85
-14.40
-12.70
-12.24
-13.13
-15.11
-17.54
-19.68
-20.88
-20.71
-19.00
-15.85
-11.48
-6.18
-0.24
6.07
12.41
18.39
23.59
27.63
30.30
31.62
31.91
31.62
31.27
31.20
31.56
32.27
33.10
33.77
34.10
34.17
34.27
34.75
35.78
37.26
38.76
39.76
39.68
38.23
35.60
32.46
29.64
27.70
26.72
26.30
25.65
23.79
20.05
14.70
9.11
5.02
3.65
5.05
8.03
10.50
10.18
5.73
-2.01
-10.08
-14.93
-14.15
-7.63
2.45
12.30
17.68
15.53
5.41
-10.25
-27.62
-42.93
-53.18
-56.00
-48.45
-29.08
-3.13
18.20
24.47
11.59
-16.49
-49.42
-74.47
-82.11
-70.61
-46.64
-21.09
-3.46
1.93
-2.99
-13.11
-23.58
-31.61
-37.00
-40.76
-43.00
-42.25
-36.79
-26.18
-12.19
1.65
11.48
14.46
9.87
-0.30
-12.01
-21.15
-25.25
-24.33
-20.41
-16.29
-14.36
-15.58
-19.19
-23.10
-25.15
-24.02
-19.73
-13.29
-6.21
0.16
5.05
8.41
10.76
12.72
14.67
16.55
18.08
18.92
18.87
18.00
16.54
14.87
13.23
11.83
10.69
9.80
9.10
8.52
7.96
7.27
6.38
5.26
4.00
2.71
1.52
0.45
-0.56
-1.64
-2.88
-4.27
-5.72
-7.11
-8.35
-9.43
-10.43
-11.44
-12.52
-13.69
-14.95
-16.24
-17.53
-18.68
-19.45
-19.54
-18.64
-16.57
-13.36
-9.23
-4.60
0.07
4.38
8.11
11.22
13.77
15.90
17.69
19.17
20.31
21.10
21.56
21.73
21.67
21.41
20.94
20.19
19.17
17.94
16.59
15.19
13.79
12.38
10.93
9.46
7.99
6.55
5.12
3.64
2.01
0.19
-1.84
-4.05
-6.39
-8.82
-11.35
-13.98
-16.73
-19.66
-22.75
-25.97
-29.13
-31.93
-33.94
-34.76
-34.13
-32.02
-28.74
-24.77
-20.64
-16.75
-13.27
-10.15
-7.22
-4.31
-1.38
1.45
4.00
6.07
7.62
8.73
9.54
10.22
10.77
11.13
11.21
10.95
10.42
9.75
9.05
8.38
7.71
6.98
6.21
5.45
4.73
4.01
3.19
2.13
0.74
-1.01
-3.11
-5.36
-7.58
-9.68
-11.75
-14.01
-16.75
-20.19
-24.33
-28.91
-33.24
-36.64
-38.68
-39.29
-38.74
-37.33
-35.29
-32.70
-29.56
-25.35
-19.83
-13.33
-6.67
-0.70
4.18
8.09
11.49
14.94
19.93
27.32
36.85
47.12
56.47
63.81
68.77
71.48
72.34
73.51
76.73
82.46
89.81
97.47
104.43
109.69
112.18
110.94
108.00
106.12
107.52
112.93
121.99
133.85
147.37
161.62
162.90
143.93
107.93
66.94
31.96
6.90
-10.02
-22.47
-33.61
-45.46
-56.98
-66.98
-75.30
-82.88
-90.45
-97.78
-104.22
-109.45
-113.73
-115.82
-114.48
-109.24
-100.84
-90.69
-80.32
-71.20
-64.38
-60.32
-57.56
-54.40
-49.89
-44.34
-38.61
-33.30
-28.37
-23.34
-17.75
-11.16
-4.12
1.88
5.05
4.30
0.01
-6.29
-12.61
-17.43
-20.03
-20.68
-20.24
-19.60
-19.25
-19.14
-19.10
-18.91
-18.50
-17.72
-16.22
-13.49
-9.21
-3.70
1.99
6.32
8.03
6.76
3.31
-0.67
-3.29
-3.19
0.18
6.69
14.99
23.71
31.54
37.24
39.36
36.16
25.98
8.16
-16.07
-43.36
-68.76
-87.40
-96.16
-94.67
-85.06
-70.70
-54.79
-39.40
-25.53
-13.73
-4.73
0.50
1.34
-1.81
-7.31
-12.91
-16.64
-17.76
-16.79
-15.07
-13.81
-13.41
-13.25
-12.06
-8.64
-2.42
6.32
16.56
26.92
36.16
43.39
48.30
51.08
52.18
52.16
51.52
50.69
50.01
49.80
50.22
51.23
52.53
53.62
54.01
53.37
51.75
49.45
46.83
44.14
41.37
38.41
35.19
31.74
28.25
24.98
22.21
20.13
18.77
17.94
17.26
16.17
14.10
10.61
5.76
0.13
-5.39
-10.12
-13.80
-16.58
-18.87
-21.02
-23.08
-24.52
-24.53
-22.49
-18.64
-14.12
-10.40
-8.76
-9.77
-13.03
-16.89
-18.90
-16.66
-8.94
3.93
20.25
37.26
51.48
59.37
58.60
48.89
32.30
12.59
-5.59
-17.54
-19.88
-11.48
3.69
18.77
27.46
28.90
26.32
23.16
21.12
20.03
18.70
15.81
11.08
5.71
1.87
1.33
4.58
10.58
16.73
19.72
16.92
8.14
-4.10
-15.65
-23.18
-25.67
-24.47
-22.18
-21.21
-22.71
-26.16
-30.15
-33.37
-35.44
-36.93
-38.68
-41.33
-44.99
-49.32
-53.59
-57.08
-59.25
-59.82
-58.92
-56.89
-54.39
-52.19
-51.11
-51.38
-52.56
-53.33
-52.09
-47.74
-40.32
-31.04
-21.52
-13.22
-5.81
1.55
9.76
18.92
27.99
35.30
39.28
39.30
35.72
29.79
22.92
16.41
11.19
7.76
6.31
6.72
8.65
11.53
14.80
17.68
19.54
19.96
18.89
16.70
14.00
11.44
9.41
7.97
6.80
5.48
3.79
1.83
0.02
-1.14
-1.24
-0.19
1.92
4.58
7.07
8.67
8.89
7.76
5.89
4.32
4.18
6.23
10.43
15.90
21.35
25.68
28.42
29.89
30.95
31.65
32.10
31.93
30.37
26.69
20.60
12.46
3.13
-6.33
-14.96
-21.97
-26.91
-29.57
-29.95
-28.35
-25.39
-21.91
-18.69
-16.24
-14.56
-13.35
-12.16
-10.60
-8.45
-5.76
-2.80
0.09
2.51
4.25
5.25
5.65
5.76
5.87
6.01
6.01
5.63
4.72
3.34
1.67
-0.06
-1.63
-2.84
-3.67
-4.11
-3.98
-3.03
-1.18
1.23
3.50
4.86
4.78
3.02
-0.01
-3.25
-5.42
-5.81
-4.84
-3.81
-4.11
-6.38
-10.57
-15.77
-20.73
-24.60
-27.53
-30.73
-35.76
-43.69
-51.87
-57.32
-58.54
-56.05
-50.64
-42.04
-29.26
-12.10
7.81
26.93
40.36
44.04
36.75
21.17
3.03
-10.94
-15.74
-9.96
3.89
20.47
34.34
42.27
44.14
41.86
37.73
32.99
27.71
21.46
14.23
7.02
1.64
-0.16
2.03
7.18
13.16
17.84
19.83
18.94
16.01
12.43
9.51
7.80
7.10
6.64
5.74
4.15
2.13
0.31
-0.78
-0.89
-0.28
0.55
1.03
0.84
-0.09
-1.46
-2.83
-3.80
-4.11
-3.74
-2.88
-1.82
-0.83
-0.12
0.19
0.13
-0.22
-0.80
-1.60
-2.62
-3.85
-5.19
-6.55
-7.85
-9.08
-10.37
-11.90
-13.80
-16.03
-18.37
-20.46
-21.87
-22.25
-21.46
-19.55
-16.74
-13.30
-9.48
-5.43
-1.25
2.95
7.01
10.73
13.90
16.36
18.05
19.00
19.31
19.10
18.50
17.63
16.60
15.50
14.37
13.24
12.14
11.08
10.10
9.18
8.33
7.48
6.59
5.57
4.37
2.96
1.34
-0.45
-2.29
-4.10
-5.83
-7.47
-9.05
-10.62
-12.20
-13.83
-15.59
-17.58
-19.87
-22.34
-24.66
-26.34
-26.83
-25.79
-23.22
-19.41
-14.87
-10.11
-5.48
-1.14
2.88
6.59
9.96
12.89
15.24
16.92
17.94
18.37
18.35
17.97
17.35
16.51
15.51
14.42
13.35
12.39
11.60
10.95
10.36
9.73
8.97
8.06
6.94
5.65
4.20
2.61
0.94
-0.77
-2.46
-4.14
-5.82
-7.57
-9.48
-11.66
-14.18
-17.03
-20.02
-22.78
-24.81
-25.62
-24.92
-22.73
-19.35
-15.23
-10.84
-6.50
-2.39
1.43
4.98
8.24
11.16
13.59
15.42
16.51
16.83
16.45
15.54
14.35
13.09
11.90
10.79
9.74
8.75
7.87
7.23
6.88
6.75
6.63
6.25
5.44
4.16
2.57
0.94
-0.47
-1.49
-2.12
-2.52
-2.88
-3.45
-4.41
-5.84
-7.72
-9.85
-11.93
-13.54
-14.33
-14.07
-12.78
-10.65
-8.02
-5.18
-2.25
0.76
3.96
7.37
10.90
14.31
17.31
19.64
21.13
21.76
21.63
20.91
19.82
18.57
17.31
16.10
14.93
13.81
12.72
11.72
10.83
10.04
9.23
8.27
7.06
5.58
3.94
2.29
0.72
-0.79
-2.39
-4.27
-6.57
-9.31
-12.34
-15.38
-18.17
-20.58
-22.63
-24.49
-26.33
-28.20
-29.85
-30.87
-30.77
-29.20
-26.14
-21.87
-16.94
-11.90
-7.17
-2.95
0.76
4.04
6.89
9.23
10.96
12.02
12.46
12.48
12.26
11.97
11.63
11.17
10.45
9.41
8.16
6.88
5.73
4.77
3.91
3.01
1.87
0.41
-1.25
-2.96
-4.66
-6.43
-8.45
-10.82
-13.43
-16.10
-18.62
-20.75
-22.50
-24.14
-26.20
-29.07
-32.68
-36.46
-39.65
-41.46
-41.05
-37.98
-32.47
-25.36
-17.62
-9.89
-2.38
4.67
11.10
17.24
23.80
31.49
40.61
50.96
61.47
70.31
74.68
72.20
62.28
46.40
27.08
6.87
-12.33
-29.56
-40.92
-43.31
-37.56
-27.09
-14.24
0.24
15.73
30.63
42.54
49.03
48.12
39.51
25.33
9.35
-4.94
-15.55
-22.37
-26.73
-30.33
-34.73
-40.35
-46.12
-50.17
-51.31
-49.38
-45.10
-39.45
-33.11
-26.49
-19.60
-12.51
-4.51
4.13
12.37
18.89
22.57
23.00
20.57
16.48
12.46
10.12
10.11
12.10
14.97
17.51
18.91
19.08
18.58
18.24
18.82
20.48
22.90
25.37
27.03
27.02
24.79
20.11
13.22
4.75
-4.56
-13.67
-21.41
-27.03
-30.45
-32.07
-32.49
-32.07
-30.87
-28.84
-25.94
-22.32
-18.22
-13.76
-8.72
-2.76
4.29
12.11
19.78
26.09
29.90
30.52
27.88
22.60
15.79
8.86
3.25
0.03
-0.38
1.51
4.42
6.71
7.10
5.18
1.64
-2.08
-4.41
-4.31
-1.66
2.81
7.96
12.77
16.61
19.33
21.00
21.79
21.88
21.51
21.00
20.59
20.27
19.58
17.65
13.45
6.31
-3.65
-15.40
-27.24
-37.34
-44.32
-47.56
-47.14
-43.57
-37.52
-29.78
-21.30
-13.15
-6.33
-1.41
1.81
4.15
6.70
10.21
14.73
19.62
24.03
27.31
29.26
30.04
29.88
28.88
27.03
24.37
21.10
17.62
14.32
11.40
8.75
6.04
2.95
-0.58
-4.19
-7.16
-8.72
-8.42
-6.44
-3.60
-0.99
0.43
0.19
-1.52
-4.17
-7.09
-9.65
-11.28
-11.43
-9.79
-6.58
-2.88
-0.36
-0.67
-4.47
-10.97
-18.17
-23.82
-26.60
-26.56
-24.97
-23.33
-22.47
-22.32
-22.21
-21.67
-20.76
-20.07
-20.02
-20.54
-20.88
-20.17
-17.92
-14.37
-10.38
-7.01
-5.01
-4.45
-4.77
-4.94
-3.90
-0.86
4.30
10.95
17.86
23.54
26.79
27.04
24.56
20.27
15.45
11.22
8.24
6.62
6.00
5.90
5.94
6.08
6.45
7.26
8.45
9.57
9.87
8.64
5.55
0.89
-4.45
-9.29
-12.50
-13.41
-11.86
-8.27
-3.38
1.92
6.84
10.95
14.20
16.90
19.45
22.09
24.73
26.92
28.03
27.56
25.34
21.61
16.97
12.29
8.47
6.32
6.24
8.04
10.89
13.46
14.31
12.38
7.39
-0.04
-8.64
-16.91
-23.60
-27.92
-29.65
-29.09
-26.88
-24.01
-21.64
-20.89
-22.52
-26.67
-32.76
-39.68
-46.15
-51.30
-54.84
-57.07
-58.52
-59.49
-59.79
-58.71
-55.35
-49.06
-39.76
-28.15
-15.43
-3.00
8.01
17.07
24.30
30.29
35.70
41.03
46.39
51.49
55.86
58.95
60.40
60.03
57.80
53.69
47.57
39.26
28.64
16.03
2.52
-10.06
-19.46
-23.73
-21.70
-13.19
1.41
21.36
45.50
71.50
95.30
111.48
114.91
103.09
77.83
44.87
11.65
-15.84
-35.17
-47.35
-55.03
-60.05
-62.25
-60.06
-52.13
-38.80
-22.24
-5.42
9.31
21.07
30.18
37.44
43.44
48.43
52.65
56.49
60.41
64.44
67.71
68.52
64.93
55.69
40.93
22.22
1.99
-17.42
-34.44
-48.52
-59.77
-68.46
-74.68
-78.38
-79.59
-78.73
-76.56
-73.84
-70.95
-67.57
-62.84
-55.89
-46.51
-35.65
-25.35
-18.16
-16.16
-20.06
-28.94
-40.61
-52.61
-63.09
-71.29
-77.18
-80.89
-82.10
-79.98
-73.68
-62.92
-48.20
-30.63
-11.26
9.29
30.65
51.93
70.89
83.95
87.06
77.31
54.29
20.52
-19.37
-60.02
-96.69
-125.79
-144.81
-151.86
-145.44
-124.92
-91.18
-47.26
1.68
49.20
89.04
116.64
130.24
131.12
123.08
111.13
99.91
92.48
89.68
90.44
92.67
94.28
93.89
91.06
85.88
78.68
69.63
58.72
45.96
31.61
16.30
0.88
-13.83
-27.30
-39.30
-49.87
-59.03
-66.71
-72.86
-77.59
-81.33
-84.81
-88.88
-94.24
-101.24
-109.80
-119.33
-128.85
-137.08
-142.59
-144.15
-141.07
-133.50
-122.50
-109.62
-96.59
-84.77
-74.83
-66.26
-57.88
-48.34
-36.78
-23.06
-7.59
8.60
24.32
38.59
51.20
62.53
73.17
83.42
93.12
102.06
109.62
114.96
117.07
115.52
109.94
99.94
85.17
65.96
44.71
23.91
5.14
-11.87
-26.95
-40.26
-51.78
-61.21
-67.73
-68.00
-60.49
-46.44
-30.09
-12.96
4.52
22.72
41.87
62.23
87.90
120.91
159.93
199.61
238.36
275.03
308.38
336.06
355.77
370.74
382.22
388.00
381.78
363.79
336.87
305.71
274.71
217.78
130.97
31.85
-35.81
-74.28
-93.35
-107.15
-120.34
-133.40
-144.20
-145.21
-133.12
-116.12
-106.24
-107.24
-117.26
-130.91
-143.65
-152.71
-153.90
-146.86
-134.91
-124.13
-115.37
-107.92
-100.92
-95.00
-91.46
-89.16
-87.46
-86.34
-86.51
-85.59
-81.02
-71.37
-57.33
-41.04
-23.89
-8.19
3.38
8.30
6.51
-0.68
-11.20
-23.17
-34.71
-43.57
-48.44
-48.83
-45.11
-38.07
-29.28
-20.69
-14.46
-11.09
-10.31
-11.25
-12.67
-13.58
-13.57
-12.66
-11.04
-8.89
-6.27
-3.40
-0.79
1.05
1.69
0.93
-0.96
-3.42
-5.76
-7.39
-8.07
-7.87
-7.03
-5.21
-2.66
0.12
2.38
3.39
2.77
0.66
-2.17
-4.53
-5.40
-4.41
-1.90
1.03
3.22
4.06
3.81
3.57
4.84
8.66
15.38
24.36
33.91
41.93
46.55
46.41
40.74
29.51
13.41
-5.35
-23.24
-36.50
-42.35
-40.48
-33.62
-26.65
-22.46
-23.64
-29.23
-35.31
-38.57
-38.66
-37.41
-36.46
-35.53
-32.39
-24.93
-12.66
2.39
16.39
25.99
29.91
29.48
26.94
24.46
23.04
22.89
23.60
24.46
24.99
25.09
24.79
24.09
23.05
21.60
19.93
18.28
16.78
15.37
14.05
12.73
11.13
9.13
6.70
4.18
1.98
0.40
-0.47
-0.71
-0.52
-0.08
0.65
1.76
3.40
5.54
7.98
10.48
12.94
15.35
17.81
20.27
22.42
23.79
23.92
22.64
20.29
17.62
15.40
14.00
13.00
11.13
6.61
-2.36
-16.83
-36.58
-59.93
-83.91
-104.83
-119.12
-124.22
-119.31
-105.57
-85.87
-63.97
-43.47
-26.92
-15.42
-8.76
-5.90
-5.63
-6.96
-9.23
-11.99
-14.93
-17.76
-20.36
-22.74
-25.05
-27.46
-29.94
-32.18
-33.61
-33.59
-31.56
-27.34
-21.19
-13.84
-6.28
0.57
6.10
10.22
13.23
15.57
17.59
19.46
21.27
23.16
25.29
27.72
30.25
32.38
33.58
33.62
32.91
32.35
32.92
35.20
38.99
43.40
47.33
49.97
50.97
50.44
48.56
45.33
40.71
34.75
27.98
21.44
16.49
14.35
15.59
19.80
25.57
30.72
32.81
29.76
20.53
5.62
-12.86
-31.62
-47.18
-57.08
-60.73
-59.50
-56.08
-53.37
-53.35
-56.50
-62.00
-68.24
-73.66
-77.07
-77.93
-76.01
-71.29
-63.90
-54.22
-42.96
-31.22
-20.22
-10.97
-4.04
0.60
3.41
5.04
6.05
6.82
7.49
8.06
8.53
8.92
9.32
9.89
10.77
11.98
13.34
14.39
14.50
13.15
10.21
6.15
1.93
-1.32
-2.68
-1.73
1.42
6.31
12.37
19.01
25.64
31.59
36.24
39.10
40.13
39.77
38.78
37.91
37.52
37.47
37.30
36.61
35.38
34.05
33.28
33.53
34.86
36.89
39.08
40.96
42.31
43.04
43.01
41.99
39.79
36.50
32.63
29.02
26.40
25.11
24.94
25.34
25.87
26.47
27.41
28.87
30.63
31.94
31.83
29.60
25.20
19.18
12.32
5.25
-1.79
-8.78
-15.66
-22.05
-27.33
-30.89
-32.51
-32.46
-31.44
-30.29
-29.73
-30.12
-31.41
-33.25
-35.08
-36.33
-36.59
-35.69
-33.66
-30.65
-26.79
-22.19
-16.93
-11.23
-5.43
0.02
4.68
8.31
10.94
12.81
14.28
15.71
17.29
19.10
21.11
23.27
25.54
27.85
30.03
31.88
33.15
33.74
33.79
33.66
33.81
34.56
35.99
37.83
39.74
41.48
43.00
44.43
45.84
47.07
47.68
47.20
45.30
42.10
37.96
33.23
27.94
21.78
14.43
6.00
-2.68
-10.27
-15.47
-17.75
-17.54
-15.96
-14.16
-12.53
-10.57
-7.29
-1.88
5.62
14.21
22.38
28.80
32.76
34.41
34.39
33.54
32.56
31.99
32.10
32.85
33.80
34.02
32.36
27.89
20.49
11.25
2.28
-3.97
-5.83
-3.23
2.07
7.16
9.31
7.17
1.43
-5.59
-11.13
-13.36
-12.17
-9.24
-6.92
-7.45
-12.05
-20.83
-33.00
-47.24
-61.80
-74.62
-83.59
-86.95
-83.82
-74.47
-60.27
-43.29
-25.80
-9.81
3.11
11.99
16.53
17.17
15.03
11.68
8.63
6.91
6.75
7.62
8.45
8.15
5.94
1.67
-4.09
-10.24
-15.41
-18.48
-18.98
-17.27
-14.35
-11.54
-9.99
-10.34
-12.70
-16.80
-22.21
-28.52
-35.34
-42.26
-48.80
-54.39
-58.48
-60.64
-60.69
-58.75
-55.14
-50.38
-45.01
-39.52
-34.23
-29.36
-25.00
-21.11
-17.55
-14.14
-10.69
-7.10
-3.46
0.05
3.13
5.59
7.40
8.74
9.83
10.80
11.65
12.27
12.65
12.91
13.28
13.93
14.78
15.52
15.63
14.70
12.53
9.31
5.43
1.36
-2.59
-6.34
-9.97
-13.62
-17.33
-21.09
-24.83
-28.56
-32.29
-36.00
-39.54
-42.65
-45.00
-46.25
-46.22
-44.83
-42.16
-38.31
-33.43
-27.69
-21.31
-14.56
-7.70
-1.00
5.34
11.11
16.13
20.25
23.35
25.36
26.24
26.04
24.85
22.94
20.70
18.59
16.95
15.94
15.46
15.20
14.80
13.91
12.35
10.14
7.47
4.69
2.26
0.54
-0.33
-0.50
-0.50
-0.94
-2.29
-4.56
-7.30
-9.63
-10.70
-10.00
-7.62
-4.26
-0.87
1.76
3.42
4.61
6.33
9.64
15.09
22.37
30.38
37.57
42.74
45.44
46.34
46.85
48.77
53.66
62.29
74.03
86.29
94.56
93.34
78.08
47.46
4.91
-41.77
-82.85
-110.22
-120.44
-115.50
-101.31
-84.54
-69.87
-58.75
-49.88
-40.60
-28.37
-11.62
9.54
32.76
53.46
65.81
65.01
49.67
23.05
-7.70
-34.39
-50.98
-55.53
-50.10
-39.12
-27.65
-20.10
-19.43
-26.29
-38.55
-51.58
-59.84
-59.24
-49.16
-32.56
-14.14
2.39
15.96
27.59
38.34
47.43
52.19
49.87
39.82
24.48
8.27
-4.78
-13.17
-18.18
-22.61
-29.10
-38.64
-50.41
-62.36
-72.50
-79.61
-83.35
-83.84
-81.27
-75.76
-67.59
-57.43
-46.46
-35.96
-26.82
-19.14
-12.29
-5.49
1.67
8.90
15.43
20.39
23.36
24.48
24.42
24.03
23.99
24.66
25.98
27.62
29.10
30.22
31.11
32.18
33.84
36.23
39.02
41.54
43.16
43.55
42.84
41.46
39.79
37.96
35.77
32.84
28.84
23.82
18.21
12.79
8.37
5.52
4.36
4.47
5.06
5.24
4.34
2.09
-1.23
-4.96
-8.29
-10.44
-11.00
-9.95
-7.70
-4.86
-2.14
0.02
1.49
2.44
3.23
4.12
5.24
6.49
7.73
8.75
9.48
9.87
9.93
9.73
9.35
8.87
8.38
7.92
7.44
6.87
6.12
5.23
4.28
3.40
2.62
1.85
0.87
-0.56
-2.52
-4.92
-7.46
-9.74
-11.49
-12.59
-13.18
-13.58
-14.08
-14.84
-15.76
-16.52
-16.69
-15.86
-13.80
-10.48
-6.05
-0.78
4.99
10.88
16.52
21.59
25.94
29.54
32.48
34.90
36.88
38.38
39.34
39.69
39.46
38.76
37.85
37.04
36.59
36.66
37.22
38.10
38.97
39.55
39.67
39.39
38.97
38.81
39.26
40.52
42.54
45.08
47.82
50.51
53.04
55.62
58.69
62.77
68.27
75.12
82.62
89.24
92.74
90.41
79.72
59.21
29.37
-6.97
-45.03
-79.28
-105.01
-119.53
-122.62
-116.10
-102.79
-85.62
-66.90
-48.24
-30.67
-14.88
-1.28
10.03
19.23
26.77
33.19
38.98
44.45
49.59
54.14
57.75
60.27
61.72
62.06
60.68
56.20
46.78
31.22
10.16
-13.51
-35.37
-51.32
-59.46
-60.95
-59.28
-58.33
-60.40
-65.09
-69.88
-71.84
-69.30
-62.69
-54.07
-45.74
-39.09
-34.02
-29.23
-23.27
-15.47
-6.35
2.78
10.55
16.45
21.00
24.75
27.21
26.38
19.64
5.59
-14.29
-35.74
-53.50
-64.17
-68.11
-68.67
-69.97
-74.49
-82.03
-90.51
-97.80
-103.23
-107.49
-111.89
-115.97
-117.44
-113.76
-104.57
-92.57
-82.53
-78.96
-84.00
-97.33
-115.20
-132.37
-144.36
-148.90
-145.86
-136.41
-122.15
-104.66
-86.50
-69.07
-52.52
-36.21
-19.59
-2.65
13.65
27.63
44.74
65.26
86.69
106.77
125.50
143.33
158.98
169.21
170.74
162.20
144.04
120.26
96.47
77.73
66.19
61.96
64.03
70.95
81.38
93.38
106.30
119.82
133.32
145.39
154.22
158.41
157.67
153.18
143.77
130.57
114.96
97.84
79.42
60.12
40.89
23.11
8.06
-4.17
-13.89
-21.95
-28.98
-34.91
-38.96
-40.38
-39.14
-36.05
-32.55
-29.50
-27.21
-25.43
-23.73
-21.83
-19.87
-18.29
-17.57
-18.13
-19.97
-23.07
-27.21
-32.02
-36.87
-41.06
-44.06
-45.70
-46.28
-46.29
-46.31
-46.72
-47.58
-48.70
-49.86
-51.01
-52.28
-53.98
-56.30
-59.36
-63.10
-67.40
-72.00
-76.58
-80.61
-83.55
-84.81
-84.00
-80.99
-75.92
-69.05
-60.77
-51.55
-42.01
-32.90
-25.01
-18.94
-14.84
-12.38
-10.89
-9.65
-8.27
-6.80
-5.66
-5.41
-6.38
-8.52
-11.26
-13.55
-14.11
-11.78
-6.04
2.78
13.49
24.52
34.51
42.81
49.54
55.22
60.27
64.63
67.73
68.90
67.80
64.62
60.02
54.77
49.43
44.22
39.15
34.22
29.59
25.58
22.53
20.66
19.95
20.17
20.97
22.01
23.05
23.93
24.53
24.73
24.47
23.75
22.70
21.48
20.18
18.66
16.64
13.84
10.14
5.76
1.18
-3.06
-6.48
-8.89
-10.32
-10.94
-10.92
-10.35
-9.22
-7.53
-5.38
-3.05
-1.05
0.02
-0.32
-2.21
-5.24
-8.53
-10.91
-11.43
-9.70
-6.19
-2.11
1.05
2.00
0.31
-3.37
-7.34
-9.24
-6.44
3.29
21.04
46.05
75.18
103.07
123.18
129.70
119.74
94.44
58.87
20.17
-14.85
-41.66
-58.80
-67.17
-68.71
-65.21
-57.98
-48.09
-36.87
-26.10
-17.53
-12.33
-10.53
-11.02
-11.96
-11.63
-9.07
-4.44
1.04
5.66
7.97
7.46
4.86
1.74
-0.19
0.11
2.48
5.69
8.13
8.66
7.19
4.65
2.42
1.54
2.23
3.93
5.80
7.38
8.90
11.01
14.36
19.00
24.31
29.31
33.15
35.50
36.57
36.82
36.61
36.00
34.89
33.32
31.60
30.32
29.87
30.16
30.56
30.30
29.11
27.62
27.19
29.22
34.22
41.33
48.60
53.83
55.66
54.09
50.25
45.72
41.89
39.73
40.00
43.41
50.31
60.17
70.96
79.60
83.17
