1593710745.00
64.000000
-0.00
-0.00
-0.00
-0.00
-0.00
-0.00
-0.00
-0.00
-0.00
-0.00
0.00
0.01
0.01
-0.00
-0.03
-0.05
-0.05
0.00
0.13
0.36
0.66
1.01
1.37
1.72
2.06
2.40
2.79
3.24
3.80
4.42
5.06
5.66
6.20
6.68
7.15
7.68
8.31
9.14
10.09
11.04
11.88
12.56
13.14
13.76
14.65
15.96
17.91
20.32
22.90
25.38
27.58
29.57
31.68
34.32
37.81
42.54
48.15
54.10
59.83
64.97
69.58
74.14
79.34
85.71
93.76
103.00
112.62
121.73
129.77
136.75
143.30
150.75
157.77
166.64
177.95
191.79
206.97
220.57
228.25
225.36
208.53
176.87
132.76
80.05
23.07
-34.94
-92.44
-149.16
-205.23
-260.37
-313.74
-363.87
-409.83
-450.91
-486.50
-515.74
-537.23
-549.22
-549.96
-538.37
-514.21
-478.68
-433.88
-382.45
-327.01
-269.83
-212.63
-156.67
-102.98
-52.41
-5.96
35.53
71.39
101.34
125.50
144.39
158.69
169.13
176.33
180.70
182.53
182.04
179.50
175.25
169.67
163.17
156.09
148.70
141.17
133.57
125.95
118.34
110.75
103.23
95.83
88.62
81.66
75.05
68.82
63.01
57.57
52.40
47.43
42.57
37.84
33.33
29.16
25.49
22.33
19.63
17.22
14.90
12.56
10.21
7.96
6.05
4.66
3.80
3.40
3.20
2.96
2.49
1.70
0.64
-0.54
-1.53
-1.91
-1.22
0.70
3.57
6.57
8.63
8.92
7.33
4.55
1.77
0.08
-0.17
0.51
1.07
0.55
-1.34
-4.04
-6.42
-7.46
-6.73
-4.72
-2.59
-1.67
-2.85
-6.13
-10.62
-14.99
-18.23
-20.02
-21.02
-22.56
-26.08
-32.65
-42.91
-57.10
-74.78
-94.34
-112.34
-123.96
-124.28
-110.65
-84.30
-50.31
-15.93
12.40
31.44
41.93
47.33
51.52
56.72
63.09
69.72
75.64
80.65
85.04
88.96
91.74
92.19
89.00
81.46
70.22
56.68
42.54
29.14
17.23
6.15
-3.66
-11.95
-18.15
-21.21
-20.47
-15.47
-7.01
3.65
15.22
26.92
38.40
49.83
61.69
74.03
86.45
98.29
108.50
115.37
116.37
108.68
88.88
58.72
23.16
-10.94
-37.27
-52.63
-57.94
-57.22
-54.96
-53.81
-53.53
-52.57
-49.73
-45.27
-40.89
-38.59
-39.43
-42.72
-46.72
-49.71
-51.03
-51.55
-52.14
-53.57
-56.42
-61.32
-69.00
-80.25
-94.75
-110.06
-121.44
-122.97
-110.23
-81.83
-43.22
-2.38
33.19
58.83
73.10
75.63
66.20
45.20
15.28
-17.51
-44.24
-56.35
-50.12
-29.18
-2.51
20.56
34.80
40.56
42.11
44.67
50.08
57.21
63.47
67.19
68.84
70.56
74.70
82.55
93.90
107.10
119.91
129.93
134.88
132.87
122.62
103.85
77.78
47.47
17.15
-8.63
-26.91
-37.38
-42.44
-45.94
-51.10
-58.46
-65.30
-67.01
-59.45
-41.94
-18.42
3.55
15.37
10.21
-15.21
-59.78
-118.62
-182.38
-239.67
-279.38
-293.26
-278.35
-238.46
-183.83
-129.28
-89.94
-76.79
-93.11
-132.85
-181.95
-222.82
-240.08
-226.03
-183.30
-123.44
-61.69
-10.56
25.31
50.21
73.84
105.63
149.61
202.19
253.96
294.06
314.78
314.13
295.66
265.98
231.63
196.83
163.17
130.78
100.14
73.11
53.03
42.81
43.20
51.49
62.21
69.33
69.03
61.70
51.80
45.67
48.34
60.95
80.11
99.75
113.73
118.07
111.88
96.65
74.90
49.05
20.88
-8.78
-39.40
-70.51
-101.16
-129.20
-150.90
-161.57
-157.37
-137.55
-105.96
-69.57
-35.66
-8.90
10.12
23.83
35.01
44.59
50.84
48.32
33.83
9.40
-18.24
-42.66
-62.22
-79.50
-98.54
-118.19
-132.00
-130.87
-108.17
-63.47
-3.12
62.27
119.06
155.24
163.65
142.78
97.16
36.47
-25.88
-75.00
-99.54
-94.14
-62.01
-14.54
32.13
62.70
67.02
42.06
-8.09
-77.08
-155.59
-233.36
-300.14
-347.07
-368.12
-361.77
-331.62
-283.94
-229.53
-176.06
-127.51
-83.66
-41.33
3.64
54.73
113.42
180.40
249.83
315.85
371.48
410.77
430.64
431.34
415.87
377.86
335.43
288.63
238.60
185.58
130.46
75.95
26.66
-11.59
-33.64
-35.10
-20.92
0.76
17.64
18.00
-4.65
-49.49
-109.31
-173.83
-231.87
-280.06
-310.71
-319.11
-305.38
-275.06
-237.08
-200.59
-177.64
-169.37
-176.11
-194.43
-219.19
-243.85
-257.79
-253.79
-230.40
-191.47
-143.33
-94.16
-48.27
-6.12
34.44
72.92
109.55
138.64
153.61
151.26
132.80
105.27
78.34
60.72
57.17
67.20
86.17
108.58
130.45
149.39
164.59
175.66
182.09
183.49
180.12
172.71
162.93
152.57
142.61
133.03
122.64
109.94
94.00
75.30
55.68
38.34
26.78
23.38
28.46
39.95
53.99
66.25
73.36
73.75
68.13
58.72
48.02
37.75
28.34
19.15
9.20
-2.08
-14.69
-28.05
-41.57
-54.89
-67.92
-80.37
-91.46
-99.92
-104.63
-105.42
-103.50
-101.18
-100.81
-103.61
-108.92
-114.34
-116.79
-113.82
-104.68
-90.52
-73.81
-57.13
-42.11
-28.97
-16.74
-4.23
9.07
22.54
34.72
44.22
50.49
54.19
56.59
58.69
60.28
59.85
55.15
44.54
28.13
8.35
-10.56
-23.95
-28.58
-23.84
-12.08
2.48
15.54
24.44
28.87
30.42
31.32
33.14
36.17
39.77
43.08
45.83
48.46
51.77
56.17
61.35
66.35
70.13
72.14
72.71
72.77
73.26
74.64
76.65
78.64
80.13
81.10
81.92
82.91
83.87
84.03
82.55
79.05
74.02
68.57
63.79
60.15
57.33
54.46
50.73
45.90
40.26
34.45
28.97
23.85
18.63
12.69
5.67
-2.17
-9.93
-16.49
-20.96
-23.11
-23.43
-22.98
-22.75
-23.18
-24.50
-27.04
-31.29
-37.90
-47.39
-59.77
-74.33
-89.45
-102.64
-111.43
-114.05
-109.63
-98.48
-82.09
-62.93
-44.39
-29.70
-20.51
-17.12
-18.40
-21.62
-23.34
-20.75
-12.68
-1.00
11.46
23.85
35.70
46.53
56.51
65.78
74.05
80.86
84.18
83.37
82.69
84.61
87.61
88.43
83.27
69.62
47.61
16.67
-21.68
-59.83
-94.29
-127.44
-161.90
-198.21
-233.72
-263.28
-286.11
-302.70
-308.12
-302.53
-291.56
-279.11
-266.51
-253.52
-212.35
-129.42
-49.84
4.72
42.04
66.12
81.94
93.48
102.12
106.63
100.44
79.52
52.02
26.49
7.45
-2.20
-2.61
3.07
10.38
12.26
4.83
-6.10
-14.95
-19.77
-19.72
-15.48
-8.96
-2.59
-0.70
-6.51
-18.09
-33.96
-54.37
-78.71
-105.43
-132.25
-156.68
-177.83
-195.88
-210.03
-220.85
-229.81
-236.95
-240.49
-237.37
-224.69
-201.85
-171.02
-135.98
-101.28
-70.25
-43.18
-17.65
9.71
40.90
75.40
110.43
142.37
168.17
185.83
194.33
193.49
184.42
170.20
155.77
146.52
145.95
153.70
165.38
174.60
175.81
167.08
150.61
131.19
113.79
101.44
94.59
91.79
90.85
89.90
88.18
86.24
85.73
88.58
95.93
107.10
119.34
128.30
129.28
119.27
98.29
69.46
37.77
8.16
-15.92
-32.82
-42.70
-47.34
-48.82
-48.75
-47.73
-45.38
-40.65
-31.40
-14.69
11.34
45.22
81.89
113.74
133.21
135.78
121.78
97.16
71.64
53.97
47.21
48.39
50.81
48.34
38.49
22.52
4.50
-10.90
-13.54
3.09
38.30
83.66
129.21
169.63
204.05
230.68
251.59
266.33
271.78
264.70
243.77
209.72
168.41
124.28
80.33
38.42
-1.24
-39.90
-78.68
-117.67
-155.55
-190.38
-221.16
-247.31
-267.94
-282.20
-289.62
-290.18
-284.83
-275.65
-265.71
-259.10
-259.40
-268.32
-285.32
-307.15
-327.80
-339.43
-334.32
-307.36
-258.45
-192.49
-117.70
-42.91
25.13
83.04
130.40
167.77
195.36
212.25
217.26
210.16
192.35
166.59
136.03
103.27
69.85
36.52
3.80
-27.28
-55.07
-77.65
-93.56
-102.51
-105.71
-105.67
-105.39
-107.59
-114.08
-125.63
-141.91
-161.55
-182.20
-200.75
-214.13
-220.07
-218.00
-209.09
-195.78
-180.54
-164.87
-148.92
-131.80
-112.37
-89.93
-64.49
-36.77
-7.98
20.55
47.46
71.83
93.40
112.76
130.82
148.01
163.55
175.34
180.75
177.92
166.85
149.70
130.04
111.55
96.79
86.79
81.44
80.27
83.20
90.73
103.59
121.71
143.46
165.47
183.43
193.49
193.60
184.00
166.68
143.98
117.50
87.99
56.00
22.95
-8.53
-35.33
-55.21
-67.76
-74.26
-76.55
-75.63
-71.01
-61.33
-45.75
-25.30
-3.04
16.86
30.66
36.40
34.40
26.65
15.62
3.14
-10.05
-24.12
-39.14
-54.25
-67.30
-75.41
-76.29
-69.46
-56.71
-41.57
-27.98
-18.80
-15.09
-16.19
-20.47
-26.20
-31.99
-36.76
-39.50
-39.19
-34.97
-26.48
-14.16
0.75
16.48
31.27
43.70
53.00
59.09
62.46
63.83
63.95
63.47
62.79
62.12
61.37
60.23
58.19
54.75
49.65
43.14
36.02
29.46
24.58
22.00
21.66
22.89
24.81
26.50
27.22
26.44
23.79
19.15
12.76
5.14
-3.17
-12.12
-22.36
-34.82
-49.90
-66.52
-82.02
-93.16
-97.95
-97.20
-94.46
-94.53
-100.84
-113.78
-130.86
-148.54
-164.44
-178.31
-191.33
-204.33
-216.51
-225.42
-228.22
-223.38
-211.32
-193.89
-173.10
-149.90
-123.84
-93.45
-57.28
-14.92
32.37
81.41
127.60
166.19
193.76
209.41
214.97
213.98
210.06
205.61
201.44
197.16
192.05
185.73
178.12
169.03
157.78
143.37
124.97
102.60
77.39
51.25
26.27
4.01
-14.80
-30.15
-42.38
-51.88
-58.97
-64.00
-67.41
-69.65
-70.91
-70.94
-69.06
-64.58
-57.17
-47.06
-34.85
-21.22
-6.74
7.88
21.50
32.48
39.11
40.43
36.94
30.63
24.21
20.09
19.46
22.11
26.89
32.35
37.17
40.22
40.58
37.46
30.52
20.15
7.72
-4.68
-14.87
-21.43
-24.33
-24.95
-25.47
-27.84
-32.79
-39.33
-45.06
-47.12
-43.31
-32.80
-16.12
5.47
30.70
58.63
88.34
118.48
147.10
172.11
192.03
206.47
215.99
221.33
222.52
218.50
207.69
189.16
163.54
133.10
100.96
69.77
40.99
14.92
-8.45
-28.69
-44.66
-55.02
-59.06
-57.21
-50.77
-40.85
-27.28
-8.24
19.10
56.93
105.15
160.31
215.94
264.01
297.19
310.95
304.83
282.42
250.12
215.06
183.30
158.65
142.46
134.01
131.16
130.85
129.59
124.01
111.66
91.62
64.83
33.88
2.10
-27.28
-51.99
-71.07
-84.71
-93.81
-99.42
-102.34
-102.88
-101.07
-96.95
-90.98
-84.21
-78.00
-73.43
-70.78
-69.43
-68.42
-67.20
-66.22
-66.83
-70.63
-78.65
-90.90
-106.60
-124.74
-144.60
-165.85
-188.15
-210.57
-231.27
-247.75
-257.60
-259.59
-254.28
-244.11
-232.41
-222.18
-214.88
-210.01
-205.45
-198.50
-186.93
-169.76
-147.57
-122.25
-96.44
-72.92
-53.97
-41.05
-34.69
-34.61
-39.86
-48.83
-59.21
-67.97
-71.67
-67.26
-53.07
-29.68
0.06
31.86
61.45
85.89
104.15
116.59
123.95
126.43
123.61
115.06
101.30
84.38
67.81
55.76
52.02
59.06
77.44
105.73
140.91
179.02
216.03
248.71
275.12
295.22
309.97
320.64
327.95
331.38
329.31
319.55
300.36
271.11
233.40
190.32
145.92
104.08
67.38
36.41
9.99
-13.99
-37.65
-60.94
-82.83
-101.49
-115.51
-124.84
-131.11
-136.88
-144.57
-156.62
-171.59
-188.10
-204.19
-217.76
-226.82
-229.69
-225.39
-214.07
-199.77
-182.97
-167.34
-156.11
-151.38
-154.01
-164.28
-182.49
-209.27
-248.92
-297.17
-352.36
-410.82
-466.88
-513.69
-544.53
-554.53
-541.77
-512.70
-466.35
-408.31
-343.41
-274.49
-202.04
-125.07
-42.57
74.56
183.15
282.08
362.32
415.72
438.14
431.52
403.70
365.68
327.62
290.61
260.53
234.04
207.03
177.23
144.85
111.42
77.74
42.77
0.22
-48.55
-104.96
-168.37
-236.19
-304.95
-371.16
-431.46
-482.37
-522.29
-544.51
-545.71
-524.65
-482.97
-425.12
-357.34
-286.06
-216.50
-152.90
-94.90
-41.55
9.45
60.62
113.44
166.86
216.93
257.86
284.06
294.28
291.62
282.98
276.22
277.23
288.12
307.34
331.00
354.33
372.58
381.55
378.21
361.81
334.73
302.44
271.86
248.74
235.39
230.29
229.36
228.37
224.85
218.66
211.17
204.12
198.42
193.89
189.46
183.44
173.94
159.29
138.33
111.10
79.43
47.08
19.08
0.20
-6.78
-2.33
9.89
24.46
36.27
42.36
42.49
38.24
31.44
22.75
11.40
-3.87
-23.52
-46.40
-70.32
-93.42
-115.39
-137.53
-161.43
-186.75
-210.25
-226.15
-228.24
-212.42
-178.13
-128.35
-68.24
-3.70
59.56
116.19
161.34
190.99
202.95
197.59
177.90
148.69
115.19
81.90
51.98
27.33
8.71
-4.10
-12.29
-17.86
-23.16
-30.10
-39.49
-50.97
-63.38
-75.48
-86.57
-96.56
-105.80
-114.62
-122.87
-129.96
-135.07
-137.68
-137.85
-136.32
-134.22
-132.42
-131.18
-129.64
-125.97
-118.23
-105.34
-88.12
-69.50
-53.63
-44.59
-45.05
-54.78
-70.63
-87.47
-99.70
-102.38
-92.45
-69.33
-35.70
1.26
31.82
46.57
40.02
13.23
-25.74
-65.36
-95.18
-110.06
-112.87
-110.42
-109.01
-111.37
-116.60
-121.93
-126.04
-129.41
-133.52
-140.86
-151.36
-162.21
-169.20
-169.34
-161.81
-148.91
-133.90
-109.62
-74.35
-31.77
10.87
47.75
74.32
94.63
111.79
127.46
142.94
157.74
172.70
190.24
212.92
241.33
273.03
301.90
321.06
325.38
311.88
281.96
240.73
194.90
150.48
111.73
80.20
56.04
38.60
25.72
15.15
5.02
-5.58
-16.37
-25.65
-31.13
-30.08
-20.01
-0.02
29.00
64.13
100.50
131.96
152.57
157.98
147.07
122.29
88.65
52.19
18.11
-10.34
-32.12
-47.59
-57.53
-62.27
-61.69
-55.73
-45.16
-31.73
-17.75
-5.40
3.97
9.96
12.65
12.07
7.89
-0.42
-13.09
-29.56
-48.41
-67.75
-85.73
-101.10
-113.37
-122.77
-130.00
-136.09
-142.15
-149.06
-157.09
-165.58
-173.01
-177.30
-176.51
-169.50
-156.50
-139.31
-121.16
-106.05
-97.77
-98.57
-108.05
-122.89
-137.55
-145.99
-143.65
-128.85
-102.73
-68.14
-28.11
14.99
59.17
101.91
139.47
167.52
182.56
183.57
172.78
154.89
135.30
118.14
105.16
95.89
88.76
82.44
76.90
73.38
73.57
78.42
87.08
96.84
104.00
105.48
100.26
89.84
77.49
66.53
58.77
53.77
49.52
43.71
35.06
23.79
11.23
-1.09
-12.14
-21.59
-29.55
-36.06
-40.86
-43.52
-43.90
-42.60
-41.03
-41.03
-43.93
-49.83
-57.08
-62.85
-64.05
-58.57
-46.13
-28.40
-8.35
10.71
26.19
36.73
42.28
43.83
42.80
40.61
38.21
35.92
33.51
30.43
26.35
21.48
16.64
13.08
11.84
13.18
16.25
19.17
19.59
15.50
6.04
-8.20
-25.29
-42.59
-57.50
-68.05
-73.17
-72.65
-66.93
-56.87
-43.57
-28.18
-11.68
5.22
22.14
38.71
54.29
67.60
76.79
79.96
75.93
64.93
48.76
30.46
13.42
0.53
-6.60
-7.89
-4.63
1.01
6.75
10.73
11.98
10.39
6.44
0.85
-5.74
-12.90
-20.22
-27.27
-33.46
-38.20
-41.05
-41.88
-40.82
-38.16
-34.13
-28.95
-22.83
-16.13
-9.44
-3.49
1.11
4.16
6.10
7.88
10.69
15.35
21.91
29.46
36.33
40.59
40.72
36.15
27.49
16.40
5.20
-3.76
-8.73
-9.00
-5.01
1.82
9.58
16.40
20.89
22.36
20.71
16.32
9.83
2.05
-6.01
-13.26
-18.67
-21.54
-21.65
-19.38
-15.51
-10.95
-6.54
-2.81
0.01
1.95
3.32
4.54
6.04
8.13
10.74
13.42
15.41
15.98
14.66
11.54
7.15
2.33
-2.07
-5.37
-7.20
-7.47
-6.41
-4.49
-2.37
-0.79
-0.33
-1.24
-3.48
-6.67
-10.32
-13.88
-16.87
-18.78
-19.19
-17.73
-14.34
-9.35
-3.51
2.16
6.74
9.69
11.06
11.30
11.05
10.74
10.44
9.93
8.89
7.15
4.83
2.27
-0.11
-2.02
-3.36
-4.17
-4.58
-4.68
-4.56
-4.34
-4.17
-4.24
-4.67
-5.48
-6.53
-7.64
-8.68
-9.67
-10.76
-12.13
-13.84
-15.65
-17.01
-17.21
-15.63
-12.00
-6.53
0.01
6.59
12.19
16.09
18.02
18.14
16.89
14.85
12.61
10.70
9.54
9.36
10.08
11.30
12.43
12.95
12.59
11.50
10.12
8.88
7.99
7.33
6.53
5.27
3.48
1.37
-0.73
-2.52
-3.95
-5.18
-6.46
-8.00
-9.89
-12.08
-14.44
-16.67
-18.41
-19.14
-18.39
-15.84
-11.55
-6.01
-0.01
5.62
10.32
13.97
16.82
19.27
21.57
23.73
25.54
26.80
27.45
27.60
27.40
26.80
25.49
23.02
19.10
13.92
8.16
2.70
-1.78
-5.23
-8.18
-11.46
-15.71
-20.99
-26.80
-32.25
-36.47
-38.72
-38.48
-35.30
-28.87
-19.21
-6.96
6.54
19.51
30.25
37.75
41.88
43.33
43.03
41.73
39.65
36.65
32.49
27.21
21.28
15.40
10.26
6.25
3.32
1.07
-1.04
-3.54
-6.70
-10.49
-14.58
-18.46
-21.51
-23.24
-23.39
-21.97
-19.23
-15.59
-11.55
-7.64
-4.33
-1.98
-0.83
-0.88
-1.97
-3.89
-6.53
-9.87
-13.90
-18.33
-22.41
-24.92
-24.56
-20.38
-12.39
-1.61
10.23
21.31
30.42
37.30
42.47
46.73
50.49
53.51
55.13
54.87
52.94
50.25
48.09
47.39
48.25
49.79
50.42
48.29
41.69
29.46
11.33
-11.88
-38.09
-64.27
-87.13
-103.97
-113.47
-115.98
-113.15
-107.14
-100.00
-93.10
-87.18
-82.41
-78.60
-75.29
-71.77
-67.13
-60.43
-50.97
-38.52
-23.45
-6.62
10.87
28.13
44.73
60.90
77.46
95.49
115.78
138.27
161.63
183.33
200.20
209.41
209.49
200.90
185.90
167.87
150.15
135.04
123.26
113.90
104.76
93.09
76.66
54.80
29.17
3.56
-17.24
-29.27
-31.07
-24.31
-13.21
-2.82
2.70
1.21
-7.24
-20.84
-36.85
-52.08
-63.41
-68.27
-65.25
-54.58
-38.20
-19.24
-1.06
13.79
24.00
29.48
30.92
29.18
24.94
18.68
10.75
1.55
-8.48
-18.93
-29.54
-40.14
-50.55
-60.56
-69.93
-78.58
-86.75
-94.93
-103.72
-113.40
-123.75
-134.04
-143.32
-150.67
-155.44
-157.35
-156.29
-152.35
-145.71
-136.74
-125.97
-113.99
-101.30
-88.20
-74.82
-61.20
-47.55
-34.28
-21.90
-10.94
-1.62
6.13
12.72
18.74
24.80
31.37
38.66
46.62
54.92
63.04
70.46
76.76
81.76
85.58
88.46
90.66
92.19
92.82
92.09
89.55
84.99
78.62
71.03
63.06
55.57
49.18
44.14
40.41
37.73
35.78
34.28
33.02
31.86
30.72
29.56
28.35
27.03
25.51
23.66
21.35
18.52
15.23
11.64
7.93
4.28
0.79
-2.46
-5.40
-7.88
-9.74
-10.87
-11.24
-10.96
-10.25
-9.34
-8.47
-7.83
-7.53
-7.57
-7.82
-8.00
-7.83
-7.11
-5.85
-4.28
-2.78
-1.75
-1.49
-2.09
-3.51
-5.58
-8.11
-10.91
-13.83
-16.74
-19.57
-22.21
-24.51
-26.28
-27.29
-27.42
-26.70
-25.30
-23.45
-21.31
-18.97
-16.43
-13.77
-11.17
-8.89
-7.20
-6.21
-5.89
-6.19
-7.05
-8.52
-10.62
-13.16
-15.71
-17.65
-18.37
-17.57
-15.36
-12.18
-8.62
-5.14
-1.91
1.11
3.95
6.47
8.29
8.90
7.96
5.49
1.95
-1.87
-5.20
-7.45
-8.41
-8.20
-7.11
-5.48
-3.64
-1.90
-0.48
0.40
0.63
0.18
-0.98
-2.86
-5.42
-8.50
-11.75
-14.66
-16.77
-17.94
-18.35
-18.37
-18.23
-17.81
-16.68
-14.49
-11.45
-8.64
-7.90
-11.45
-21.13
-37.63
-60.02
-85.57
-110.13
-128.88
-137.30
-132.23
-112.71
-80.22
-38.38
7.78
52.89
92.29
122.88
143.58
155.40
160.97
163.77
167.17
173.56
183.89
197.61
213.04
227.92
240.00
247.55
249.65
246.39
238.75
228.36
216.98
206.02
196.14
187.08
177.81
166.85
152.79
134.79
112.90
88.19
62.46
37.67
15.28
-4.24
-21.46
-37.42
-52.86
-67.50
-79.99
-88.47
-91.62
-89.53
-83.89
-77.43
-72.88
-72.05
-75.48
-82.63
-92.43
-103.74
-115.54
-126.86
-136.75
-144.42
-149.57
-152.52
-153.96
-154.26
-152.79
-147.94
-137.97
-122.29
-102.23
-80.72
-60.77
-43.82
-28.98
-13.72
4.35
25.76
48.67
69.88
86.80
98.98
108.21
117.13
127.27
137.73
145.44
146.70
139.13
122.89
100.69
76.52
54.07
35.58
21.64
11.76
5.06
0.59
-2.95
-7.66
-16.43
-32.09
-55.94
-86.54
-119.55
-149.06
-169.76
-179.03
-177.65
-168.98
-157.06
-144.72
-132.83
-120.83
-108.01
-94.73
-82.54
-73.37
-68.34
-67.00
-67.61
-68.16
-67.52
-66.02
-65.06
-66.09
-69.53
-74.08
-76.91
-74.56
-64.16
-44.66
-17.27
14.75
47.03
75.08
95.07
104.22
100.96
85.36
59.36
26.99
-6.29
-34.98
-55.15
-65.63
-67.99
-65.41
-61.05
-56.91
-53.60
-50.91
-48.52
-46.33
-44.18
-41.59
-37.66
-31.65
-23.54
-14.28
-5.59
0.76
3.73
3.36
0.60
-3.19
-6.88
-10.00
-12.72
-15.62
-19.27
-23.98
-29.67
-36.00
-42.58
-48.99
-54.87
-59.87
-63.68
-66.12
-67.23
-67.13
-65.92
-63.37
-58.93
-51.92
-41.85
-28.80
-13.48
2.93
19.26
34.58
48.46
60.87
71.95
81.99
91.32
100.40
109.84
120.21
131.80
144.35
157.05
168.61
177.77
183.65
186.06
185.49
182.85
179.10
174.86
170.41
165.69
160.71
155.64
150.91
147.00
144.13
142.09
140.28
138.01
134.91
131.17
127.49
124.80
123.86
125.00
128.10
132.51
137.19
140.61
140.74
135.35
122.48
101.13
71.77
36.44
-1.74
-39.35
-73.54
-102.54
-125.84
-143.94
-158.02
-169.50
-179.64
-189.25
-198.44
-206.67
-213.00
-216.65
-217.43
-215.92
-213.32
-210.81
-209.06
-207.98
-206.71
-204.00
-198.38
-188.37
-172.58
-150.14
-121.24
-87.68
-52.70
-20.10
7.17
28.20
44.43
58.61
73.02
87.95
101.18
108.97
108.03
97.34
78.90
56.94
35.98
18.87
5.79
-5.32
-17.19
-31.33
-47.07
-61.71
-72.00
-75.74
-72.88
-65.46
-56.54
-48.86
-43.94
-41.95
-42.39
-44.72
-48.69
-53.98
-59.31
-61.88
-57.57
-42.49
-15.24
21.35
60.25
92.41
110.43
111.64
99.18
80.28
62.83
52.02
48.82
50.59
53.29
53.61
50.03
42.64
32.21
19.51
5.19
-9.98
-24.83
-37.84
-47.47
-52.60
-52.73
-48.10
-39.54
-28.33
-15.87
-3.30
8.77
20.21
31.13
41.31
49.87
55.50
56.99
54.05
47.71
40.04
33.17
28.33
25.26
22.39
17.79
10.20
-0.36
-12.57
-24.53
-34.49
-41.60
-46.28
-50.06
-55.15
-63.76
-77.31
-95.97
-118.50
-142.60
-165.69
-185.68
-201.50
-213.24
-221.84
-228.65
-234.88
-241.09
-246.80
-250.42
-249.59
-241.91
-225.91
-201.83
-171.77
-139.23
-108.11
-81.63
-61.57
-47.96
-39.51
-34.32
-30.60
-27.16
-23.37
-19.03
-14.21
-9.13
-4.27
-0.27
2.21
2.84
1.92
0.36
-0.79
-1.09
-1.22
-2.88
-7.92
-17.27
-30.25
-44.77
-58.43
-69.46
-77.18
-81.59
-82.63
-79.66
-71.74
-58.40
-40.25
-19.07
2.98
24.17
43.77
61.97
79.17
95.52
110.80
124.66
136.94
147.61
156.32
162.08
163.28
158.34
146.58
128.85
107.47
85.47
65.49
48.86
35.22
22.94
9.82
-5.86
-24.70
-45.81
-66.89
-84.62
-95.26
-95.45
-83.22
-58.69
-24.28
15.72
56.38
93.54
124.73
149.37
168.12
181.85
191.00
195.44
194.92
189.63
180.54
169.20
157.26
146.02
136.08
127.41
119.69
112.54
105.84
99.73
94.55
90.63
88.13
86.86
86.33
85.78
84.41
81.51
76.52
69.06
59.05
46.93
33.86
21.79
13.09
9.74
12.31
19.78
29.84
39.77
47.42
51.78
53.07
52.14
49.80
46.17
41.02
34.21
26.05
17.04
7.49
-2.86
-14.73
-28.92
-46.32
-66.87
-89.46
-112.32
-133.90
-153.43
-171.01
-187.23
-202.71
-219.19
-237.54
-257.28
-276.90
-295.01
-310.98
-324.57
-335.15
-341.08
-343.03
-341.15
-335.04
-324.57
-311.37
-298.74
-289.79
-285.35
-283.15
-283.26
-283.91
-281.36
-270.93
-249.89
-218.97
-181.70
-143.27
-109.85
-94.02
-105.84
-148.20
-214.83
-293.49
-370.48
-434.15
-477.89
-463.57
-377.10
-234.56
-74.69
66.58
172.62
244.08
289.23
316.39
331.52
332.55
318.39
291.42
259.54
230.09
206.76
190.14
178.88
171.43
162.25
147.91
129.01
109.99
96.05
88.13
86.25
89.76
98.09
108.02
117.23
125.51
134.60
146.32
161.47
180.42
203.65
232.54
268.12
311.84
364.44
424.14
484.85
536.64
568.99
574.28
550.79
502.96
440.35
374.71
316.78
273.58
247.22
235.45
232.74
232.03
226.45
210.95
183.45
145.52
101.86
59.13
24.16
2.02
-5.69
-1.50
8.57
16.87
16.80
4.85
-18.28
-48.40
-79.68
-106.66
-125.60
-134.96
-135.14
-128.11
-117.00
-105.56
-97.40
-94.91
-98.40
-105.79
-113.34
-117.18
-114.81
-105.92
-92.15
-76.09
-60.25
-46.30
-35.04
-26.71
-21.28
-18.55
-18.11
-19.28
-21.33
-23.77
-26.45
-29.48
-32.91
-36.58
-40.16
-43.42
-46.42
-49.52
-53.05
-57.04
-61.05
-64.34
-66.38
-67.07
-66.90
-66.73
-67.46
-69.79
-74.03
-79.98
-86.87
-93.33
-97.41
-97.06
-90.64
-77.57
-58.66
-35.96
-12.21
9.85
28.19
41.75
50.49
55.10
56.57
55.88
53.71
50.52
46.56
42.16
37.68
33.63
30.40
28.22
27.05
26.64
26.69
26.92
27.16
27.31
27.27
26.96
26.28
25.13
23.38
20.77
16.99
11.81
5.46
-1.09
-6.07
-7.27
-2.66
8.83
26.93
49.94
75.15
99.51
120.22
135.28
143.81
146.05
143.12
136.49
127.48
116.96
105.41
93.28
81.23
70.10
60.46
52.09
43.85
34.21
22.09
7.56
-8.06
-22.85
-35.33
-45.11
-53.00
-60.31
-68.15
-76.88
-86.19
-95.48
-104.41
-113.03
-121.73
-130.93
-140.75
-150.93
-160.89
-169.94
-177.47
-183.18
-186.97
-188.85
-188.75
-186.43
-181.53
-173.82
-163.49
-151.24
-138.30
-126.09
-115.95
-108.94
-105.86
-107.17
-112.86
-122.07
-132.77
-141.85
-145.83
-142.00
-129.37
-109.12
-84.06
-57.63
-32.66
-10.71
8.18
25.11
41.74
59.54
79.14
99.85
119.64
135.48
144.04
142.48
129.07
103.66
67.97
25.93
-16.24
-50.52
-68.29
-62.31
-28.66
31.59
112.19
202.73
290.96
365.56
418.67
447.33
453.59
443.11
422.92
399.12
375.51
353.31
331.98
310.33
287.41
262.62
235.63
206.23
174.46
140.95
107.02
74.48
44.87
18.83
-4.24
-25.88
-47.73
-70.64
-94.09
-116.39
-135.28
-148.95
-156.63
-158.83
-156.93
-152.56
-147.04
-141.22
-135.51
-130.11
-125.19
-120.89
-117.23
-114.05
-111.06
-107.96
-104.61
-101.13
-97.80
-94.86
-92.33
-90.04
-87.59
-84.66
-80.97
-76.48
-71.32
-65.72
-60.01
-54.61
-50.01
-46.74
-45.32
-46.10
-49.17
-54.27
-60.77
-67.80
-74.45
-79.86
-83.38
-84.69
-83.81
-81.16
-77.57
-74.16
-72.14
-72.42
-75.34
-80.42
-86.42
-91.72
-94.82
-94.84
-91.83
-86.71
-81.02
-76.32
-73.75
-73.63
-75.51
-78.35
-81.09
-83.07
-84.25
-84.97
-85.52
-85.58
-84.10
-79.61
-71.04
-58.36
-42.96
-27.57
-15.93
-12.16
-19.96
-41.36
-75.49
-117.85
-160.88
-195.96
-216.25
-219.05
-206.58
-184.58
-159.69
-136.83
-118.15
-103.50
-91.91
-82.76
-75.93
-71.16
-67.23
-61.94
-52.82
-38.06
-17.16
9.06
39.01
70.76
102.29
131.47
156.09
174.09
183.89
184.66
176.30
159.25
134.46
103.62
69.63
36.64
9.51
-7.57
-12.51
-6.23
7.71
24.43
39.61
50.76
57.44
60.65
61.66
61.04
58.24
51.93
40.67
23.69
1.55
-23.77
-49.11
-70.89
-85.97
-92.74
-91.68
-85.40
-77.78
-72.49
-71.51
-74.35
-78.35
-79.99
-76.46
-66.65
-51.00
-30.61
-6.35
21.43
52.21
84.64
116.30
144.32
166.34
181.20
188.71
189.01
181.94
167.21
145.31
118.25
89.80
64.76
47.70
41.47
46.48
60.74
80.52
101.29
118.56
128.92
130.90
125.60
116.27
107.33
102.68
104.34
111.74
121.92
130.80
134.46
130.50
118.10
97.87
71.40
40.98
9.65
-19.24
-42.05
-55.85
-58.44
-49.91
-32.85
-11.55
9.74
28.52
44.27
58.84
74.38
93.70
117.22
142.56
165.50
182.24
191.48
193.73
191.90
188.21
185.93
186.09
187.52
188.16
186.90
185.00
183.79
185.98
192.48
206.43
229.87
263.31
305.35
352.95
402.57
448.75
489.11
497.71
460.27
380.15
278.23
178.74
94.23
35.66
-9.86
-51.84
-93.41
-129.60
-155.69
-172.62
-183.75
-194.01
-205.76
-218.75
-227.23
-225.56
-208.73
-177.29
-137.68
-99.63
-72.28
-59.90
-62.52
-74.71
-90.62
-104.72
-114.61
-121.09
-126.83
-134.87
-146.76
-163.06
-181.81
-200.44
-215.42
-223.56
-222.67
-211.98
-192.51
-166.68
-138.40
-111.83
-91.25
-79.89
-79.39
-89.55
-108.59
-133.83
-162.20
-190.81
-216.63
-236.76
-248.64
-250.71
-243.12
-227.87
-208.17
-187.11
-166.40
-145.95
-124.52
-100.95
-75.13
-48.33
-22.51
0.52
19.80
35.26
47.40
56.69
63.33
67.22
68.24
66.48
62.39
56.77
50.46
44.13
38.00
31.75
24.74
16.42
6.74
-3.62
-13.34
-20.97
-25.47
-26.79
-25.96
-24.94
-25.94
-30.66
-39.57
-51.64
-64.56
-75.55
-82.22
-83.47
-79.76
-72.96
-65.72
-60.52
-58.69
-59.47
-59.83
-55.07
-40.66
-14.42
21.73
61.67
96.78
118.91
123.13
109.17
81.02
45.16
8.59
-22.76
-45.06
-56.87
-59.34
-55.68
-50.23
-46.60
-46.15
-47.26
-46.15
-38.74
-22.50
2.95
36.67
77.69
125.49
178.89
234.02
283.12
315.64
321.62
295.90
240.74
165.24
81.67
0.96
-69.99
-128.21
-172.44
-201.36
-213.82
-211.03
-198.56
-185.58
-181.15
-189.42
-206.97
-224.42
-231.37
-221.90
-197.40
-165.08
-133.65
-109.02
-92.52
-82.27
-75.88
-72.17
-71.05
-72.03
-73.02
-70.65
-61.94
-46.14
-25.39
-3.68
14.94
28.01
35.37
38.44
39.11
38.67
37.45
35.24
31.79
27.21
21.95
16.53
11.33
6.47
1.97
-2.10
-5.46
-7.68
-8.38
-7.40
-5.02
-1.98
0.76
2.25
1.80
-0.79
-5.07
-9.81
-12.99
-11.94
-4.09
12.23
36.94
67.86
101.27
133.03
159.86
180.35
194.86
204.93
212.21
217.73
221.77
224.18
224.86
224.07
222.30
219.98
217.24
213.63
208.33
200.51
189.92
177.17
163.80
151.71
142.15
134.95
128.46
120.31
108.60
92.55
72.17
47.30
16.73
-21.68
-69.59
-126.57
-189.03
-250.80
-305.12
-346.78
-373.55
-386.08
-386.81
-378.64
-364.12
-345.23
-323.33
-299.15
-272.52
-242.66
-208.92
-171.74
-133.24
-96.92
-66.52
-44.35
-30.24
-21.42
-13.74
-3.49
11.07
29.07
47.34
61.78
68.75
66.25
54.33
34.84
10.73
-14.71
-38.20
-56.40
-65.69
-62.49
-44.07
-10.01
36.95
91.00
144.94
192.38
229.69
256.42
274.13
284.54
288.02
283.53
269.73
246.49
215.71
180.99
146.33
114.76
87.51
64.11
43.05
22.51
1.02
-22.41
-48.14
-75.91
-104.82
-133.45
-160.25
-183.86
-203.57
-219.49
-232.25
-242.61
-250.71
-255.71
-255.74
-248.44
-231.62
-204.06
-166.16
-120.16
-70.04
-20.80
22.51
55.97
77.64
87.90
89.08
84.52
77.56
70.72
65.45
62.24
60.94
61.08
61.93
62.58
62.04
59.37
53.97
45.65
34.66
21.58
7.08
-8.31
-24.40
-41.23
-58.82
-76.74
-93.79
-108.13
-117.77
-121.36
-118.78
-111.34
-101.26
-90.81
-81.41
-73.05
-64.53
-54.15
-40.81
-24.91
-8.33
6.33
17.09
23.69
27.81
32.07
38.42
46.76
54.79
59.22
57.49
49.12
35.86
20.78
6.84
-3.98
-10.83
-13.71
-13.03
-9.54
-4.44
0.66
4.31
5.89
6.25
7.55
12.44
22.84
38.93
58.89
79.47
97.02
108.63
112.90
110.03
101.53
89.58
76.46
64.14
54.14
47.45
44.57
45.37
49.18
54.74
60.57
65.25
67.82
67.97
65.95
62.41
58.02
53.32
48.55
43.74
38.84
33.72
28.23
22.12
15.18
7.31
-1.09
-9.02
-15.06
-17.89
-17.01
-13.17
-8.29
-4.63
-3.66
-5.26
-7.65
-8.18
-4.59
3.83
15.79
28.48
38.54
43.31
41.50
33.49
20.81
5.59
-10.19
-25.10
-38.35
-49.65
-58.95
-66.26
-71.50
-74.60
-75.64
-74.95
-73.18
-71.21
-70.06
-70.76
-74.13
-80.58
-89.73
-100.09
-108.99
-113.00
-108.74
-94.04
-68.76
-35.15
2.78
40.39
73.64
100.05
118.85
130.67
136.90
139.10
138.72
137.03
135.01
133.35
132.37
132.01
132.00
132.03
131.91
131.60
131.09
130.28
128.89
126.50
122.54
116.47
107.79
96.17
81.60
64.55
46.02
27.27
9.59
-6.05
-19.12
-29.41
-36.70
-40.66
-40.84
-36.98
-29.27
-18.49
-5.82
7.51
20.52
32.70
43.80
53.60
61.72
67.72
71.28
72.41
71.53
69.29
66.35
63.18
59.99
56.88
53.99
51.62
50.17
49.92
50.82
52.35
53.63
53.63
51.67
47.75
42.61
37.53
33.54
30.80
28.32
24.20
16.54
4.32
-11.83
-29.54
-44.86
-52.97
-49.03
-29.64
5.77
53.89
107.55
157.28
194.01
211.97
210.44
193.81
169.79
146.71
131.04
125.92
131.05
143.50
159.14
173.88
184.68
189.98
189.51
183.88
173.91
160.21
143.16
123.05
100.31
75.56
49.45
22.43
-5.46
-34.65
-65.88
-99.83
-136.70
-175.77
-215.32
-252.86
-285.73
-311.79
-329.87
-339.91
-342.82
-340.12
-333.55
-324.81
-315.45
-306.89
-300.40
-297.22
-298.48
-304.92
-316.52
-332.27
-350.16
-367.60
-381.94
-390.97
-393.18
-387.71
-374.29
-353.23
-325.49
-292.69
-256.91
-220.29
-184.64
-151.16
-120.54
-93.09
-68.85
-47.51
-28.24
-9.66
10.03
32.73
60.15
93.30
132.00
174.28
216.36
253.24
280.08
293.94
294.78
285.40
270.16
253.22
237.17
222.79
209.74
197.56
186.37
176.64
168.58
161.62
154.36
145.18
133.01
117.79
100.59
83.12
67.06
53.38
42.12
32.47
23.24
13.46
2.75
-8.56
-19.66
-29.70
-38.03
-44.29
-48.28
-49.76
-48.38
-43.80
-35.98
-25.35
-12.90
0.24
12.86
23.90
32.60
38.54
41.71
42.43
41.32
39.24
37.28
36.31
36.78
38.51
40.84
42.84
43.61
42.50
39.34
34.74
29.52
24.39
19.72
15.50
11.50
7.41
2.92
-1.89
-5.66
-7.16
-5.82
-2.02
3.26
8.95
14.21
18.24
20.75
23.72
28.72
36.24
45.59
55.52
65.05
73.89
81.90
90.09
103.13
124.69
155.96
195.14
238.55
282.46
324.32
362.11
395.79
429.89
467.05
506.40
543.45
572.45
589.30
593.23
585.70
542.27
451.52
317.81
162.29
11.56
-115.58
-212.78
-277.26
-321.33
-354.62
-378.38
-391.92
-394.83
-388.58
-373.95
-352.13
-324.84
-295.76
-267.94
-241.01
-214.63
-188.95
-165.15
-144.81
-129.14
-117.96
-110.44
-103.70
-93.00
-76.12
-54.74
-34.25
-21.13
-19.74
-29.84
-47.33
-65.59
-78.39
-83.63
-83.68
-83.65
-88.46
-100.92
-121.43
-149.00
-181.27
-214.08
-241.49
-256.33
-252.45
-227.54
-184.96
-133.08
-82.23
-40.66
-12.18
3.84
10.59
11.39
8.51
3.41
-2.29
-6.21
-5.61
1.40
14.87
32.71
51.40
66.99
76.27
77.80
72.28
62.29
51.54
43.58
40.62
42.68
47.49
51.38
50.45
41.89
24.63
-0.82
-33.31
-72.11
-117.05
-167.30
-219.43
-266.10
-296.84
-301.30
-273.83
-216.94
-141.54
-63.54
1.62
43.90
60.91
57.06
40.65
21.00
6.47
3.66
16.81
47.13
92.06
145.22
197.62
239.96
265.08
269.74
254.99
225.02
185.30
140.69
94.28
47.29
-0.18
-47.94
-94.67
-137.53
-172.77
-196.86
-207.73
-205.42
-192.01
-170.68
-144.83
-117.48
-91.30
-68.72
-51.93
-42.36
-40.04
-43.21
-48.63
-52.72
-52.80
-48.00
-39.19
-28.11
-16.27
-4.14
8.85
23.71
41.05
60.61
81.15
100.84
117.84
130.72
138.58
140.82
136.97
126.61
109.82
87.63
62.30
36.99
14.85
-1.99
-13.06
-19.30
-22.27
-23.20
-22.51
-19.98
-15.48
-9.53
-3.50
0.97
2.60
1.04
-3.04
-8.34
-13.53
-17.68
-20.57
-22.57
-24.27
-26.21
-28.58
-31.23
-33.81
-35.93
-37.43
-38.41
-39.22
-40.28
-42.00
-44.67
-48.35
-52.94
-58.06
-63.10
-67.11
-69.00
-67.77
-62.88
-54.51
-43.60
-31.62
-20.06
-10.07
-2.22
3.47
7.29
9.56
10.57
10.53
9.66
8.19
6.25
3.79
0.60
-3.64
-9.15
-15.86
-23.30
-30.57
-36.54
-40.18
-40.93
-39.00
-35.50
-32.09
-30.44
-31.50
-35.00
-39.51
-42.92
-43.30
-39.78
-32.89
-24.33
-16.38
-11.00
-9.03
-9.80
-11.15
-9.89
-2.82
12.05
34.36
60.86
85.89
102.93
106.70
94.80
68.49
31.82
-10.16
-53.17
-95.01
-135.78
-177.27
-221.70
-270.04
-320.72
-369.26
-409.15
-434.03
-440.20
-428.19
-402.57
-370.02
-336.60
-305.80
-278.31
-253.36
-230.40
-210.02
-193.32
-180.51
-169.83
-157.69
-140.17
-114.86
-82.04
-44.50
-6.45
28.48
58.70
85.15
111.05
140.90
179.11
228.54
289.02
356.37
422.63
477.75
512.17
519.64
499.01
454.52
394.49
329.04
267.60
216.95
180.21
156.83
143.55
135.77
129.01
119.95
106.84
89.35
68.24
45.21
22.84
4.56
-6.09
-6.58
3.46
21.85
44.61
67.54
87.68
104.07
117.53
129.64
141.64
153.88
165.75
176.30
184.83
191.22
195.91
199.41
201.80
202.48
200.39
194.47
184.24
170.02
152.86
134.07
114.77
95.61
76.65
57.56
37.81
16.86
-5.71
-29.98
-55.43
-80.83
-104.35
-123.92
-137.76
-144.89
-145.33
-140.03
-130.66
-119.22
-107.87
-98.67
-93.42
-93.35
-98.78
-109.04
-122.58
-137.48
-152.06
-165.34
-177.10
-187.60
-197.10
-205.61
-212.84
-218.50
-222.53
-225.14
-226.49
-226.38
-224.22
-219.31
-211.44
-201.17
-189.59
-177.70
-165.69
-152.71
-137.30
-118.32
-95.57
-69.98
-42.99
-15.77
11.32
38.58
66.31
94.02
120.13
142.41
158.85
168.51
171.86
170.47
166.18
160.35
153.47
145.35
135.68
124.60
112.88
101.70
92.15
84.76
79.36
75.26
71.71
68.26
65.05
62.63
61.59
62.10
63.54
64.61
63.78
60.06
53.71
46.62
41.82
42.58
51.11
67.60
89.90
114.19
136.20
152.52
161.49
163.25
159.07
150.35
137.79
121.07
99.17
70.96
36.05
-4.74
-49.17
-93.70
-134.10
-166.35
-187.74
-197.99
-199.62
-197.46
-196.80
-201.05
-210.05
-219.96
-224.76
-219.06
-200.26
-169.28
-129.75
-85.81
-40.12
7.06
57.25
112.07
171.41
232.75
291.63
342.82
382.14
407.58
419.49
419.71
410.62
393.93
370.81
342.50
310.06
275.40
241.19
210.25
184.54
164.86
149.72
136.65
123.34
106.78
85.34
59.40
31.24
3.70
-20.37
-41.28
-60.96
-81.74
-107.96
-143.06
-188.14
-241.32
-298.45
-352.61
-398.60
-431.40
-446.64
-445.22
-431.71
-412.43
-393.58
-379.96
-372.56
-372.92
-380.41
-372.66
-333.32
-258.69
-160.80
-59.48
17.16
70.36
107.26
134.85
157.49
177.18
191.16
196.40
191.79
178.54
161.13
141.73
122.52
106.05
92.37
80.38
69.27
59.06
50.61
46.52
47.29
53.14
64.13
77.91
90.66
98.90
100.93
97.53
92.26
88.01
86.89
89.63
94.52
98.51
99.14
95.64
89.17
82.35
76.96
73.72
72.25
71.15
68.86
64.52
58.39
51.58
45.62
41.51
39.57
39.35
39.95
40.24
39.38
37.08
33.56
29.30
24.63
19.51
13.49
6.09
-2.82
-12.87
-23.24
-33.05
-41.68
-48.86
-54.60
-58.94
-61.88
-63.37
-63.51
-62.60
-61.19
-59.84
-58.92
-58.52
-58.48
-58.48
-58.34
-58.11
-58.12
-58.87
-60.79
-64.06
-68.44
-73.44
-78.51
-83.37
-88.27
-93.84
-100.90
-109.99
-121.05
-133.34
-145.66
-156.82
-165.96
-172.90
-178.02
-182.05
-185.70
-189.45
-193.36
-197.13
-200.27
-202.23
-202.46
-200.59
-196.59
-190.98
-184.89
-179.93
-177.87
-180.07
-187.11
-198.69
-213.73
-230.90
-249.03
-267.40
-285.60
-303.01
-318.30
-329.32
-333.52
-328.93
-315.10
-293.57
-267.53
-240.77
-216.45
-196.29
-180.54
-168.50
-159.34
-152.49
-147.77
-144.87
-143.17
-141.58
-138.97
-134.54
-128.13
-120.24
-111.72
-103.37
-95.60
-88.31
-81.01
-73.12
-64.20
-54.21
-43.41
-32.28
-21.19
-10.33
0.42
11.39
22.88
35.09
47.89
60.93
73.68
85.62
96.37
105.83
114.10
121.47
128.22
134.55
140.44
145.73
150.20
153.69
156.34
158.52
160.80
163.72
167.57
172.14
176.79
180.56
182.57
182.30
179.79
175.64
170.71
165.75
161.13
156.76
152.35
147.68
143.00
139.05
136.97
137.96
143.13
153.21
168.39
187.92
209.76
230.53
246.17
253.07
249.49
236.34
216.83
195.16
174.84
157.52
142.87
129.55
116.45
103.56
91.97
83.20
78.41
77.91
81.37
88.29
98.40
111.66
127.74
145.50
162.49
175.36
180.74
176.44
162.22
139.90
112.99
85.75
62.38
46.32
39.65
42.63
53.46
68.60
83.64
94.51
98.67
95.65
86.68
73.90
59.41
44.73
30.88
18.69
9.02
2.67
0.09
1.06
4.61
9.10
12.60
13.33
10.09
2.60
-8.34
-20.87
-32.57
-40.99
-44.38
-42.13
-34.83
-23.98
-11.43
1.13
12.50
21.96
29.18
33.99
36.40
36.57
34.93
32.18
29.12
26.53
24.88
24.33
24.68
25.57
26.62
27.65
28.65
29.69
30.75
31.56
31.61
30.32
27.28
22.48
16.41
9.88
3.69
-1.77
-6.69
-11.79
-17.95
-25.80
-35.22
-45.23
-54.07
-59.58
-59.72
-53.14
-39.54
-19.80
4.23
30.17
55.59
78.41
97.17
111.18
120.43
125.58
127.64
127.67
126.52
124.66
122.26
119.40
116.22
112.87
109.41
105.50
100.50
93.70
84.73
73.90
62.09
50.45
40.04
31.56
25.32
21.34
19.36
18.72
18.41
17.18
14.00
8.65
2.17
-3.19
-4.50
0.87
14.23
35.06
61.16
89.43
116.91
141.71
163.27
181.97
198.29
212.14
222.58
228.16
227.53
220.08
206.22
187.13
164.43
139.60
113.56
86.54
57.89
26.16
-10.83
-55.21
-107.60
-165.67
-223.18
-270.60
-297.46
-295.97
-264.30
-208.25
-139.90
-73.85
-22.44
8.06
18.55
15.28
6.38
-1.41
-4.16
-0.32
10.64
29.31
56.18
90.72
130.62
171.81
209.73
240.89
263.66
278.14
285.10
285.29
279.01
266.52
248.58
226.58
202.25
177.22
152.72
129.59
108.52
89.94
73.93
59.97
47.06
33.90
19.47
3.37
-14.05
-31.93
-49.28
-65.42
-80.28
-94.25
-107.98
-122.00
-136.55
-151.59
-167.13
-183.51
-201.24
-220.58
-240.78
-259.76
-274.28
-281.00
-277.59
-263.71
-241.05
-212.81
-182.73
-154.28
-130.30
-112.78
-102.69
-99.63
-101.50
-104.71
-105.08
-99.37
-86.78
-69.47
-51.90
-39.28
-35.61
-42.41
-58.39
-80.05
-102.89
-122.56
-135.77
-140.89
-137.99
-128.82
-116.33
-104.18
-96.04
-94.84
-102.15
-117.75
-139.76
-164.98
-189.71
-210.62
-225.36
-232.97
-233.63
-228.37
-218.70
-206.39
-193.44
-181.92
-173.84
-170.72
-173.19
-180.61
-191.06
-201.59
-208.75
-209.63
-202.92
-189.78
-174.08
-161.80
-159.14
-170.59
-197.32
-236.80
-283.63
-331.05
-372.50
-402.67
-418.07
-417.17
-400.41
-370.08
-329.69
-283.18
-233.91
-184.19
-135.58
-89.51
-47.71
-11.77
17.70
42.18
65.18
91.08
123.49
164.18
212.99
268.21
326.93
384.92
436.48
474.83
493.62
489.04
461.23
414.10
353.30
283.70
207.86
126.84
42.18
-41.94
-118.51
-179.68
-220.01
-238.92
-240.89
-233.31
-223.25
-214.92
-208.87
-203.24
-195.92
-186.18
-174.97
-163.94
-154.12
-144.90
-134.32
-119.94
-100.05
-74.30
-43.75
-10.33
23.80
56.56
86.13
110.95
129.86
142.36
148.69
149.83
147.10
141.76
134.73
126.61
117.91
109.23
101.28
94.53
89.00
84.05
78.65
71.80
62.95
52.29
40.74
29.78
20.99
15.75
14.87
18.37
25.53
35.01
45.24
54.73
62.38
67.61
70.37
70.96
69.88
67.64
64.69
61.45
58.31
55.73
54.25
54.38
56.41
60.31
65.51
71.08
75.95
79.32
80.97
81.30
81.16
81.36
82.33
83.84
85.09
85.10
83.12
79.00
73.27
66.96
61.33
57.54
56.51
58.94
65.27
75.79
90.57
109.34
131.36
155.44
180.15
204.23
226.71
246.91
264.08
277.32
285.88
289.79
290.51
290.78
293.56
300.31
309.49
316.28
314.07
297.30
264.43
219.45
171.14
130.25
105.86
102.48
118.81
148.54
182.69
212.31
230.87
235.25
225.68
204.65
175.56
141.77
105.92
69.96
35.23
2.62
-27.32
-54.26
-78.17
-99.14
-117.13
-131.88
-142.97
-149.92
-152.40
-150.41
-144.35
-135.19
-124.32
-113.44
-104.12
-97.29
-92.91
-89.89
-86.60
-81.49
-73.78
-63.56
-51.68
-39.16
-26.83
-15.09
-4.00
6.53
16.73
26.94
37.83
50.25
64.83
81.40
98.67
114.26
125.44
130.04
127.22
117.61
102.80
84.64
64.51
43.18
20.99
-1.76
-24.61
-47.04
-68.78
-90.03
-111.45
-133.99
-158.56
-185.86
-216.15
-249.08
-283.47
-317.27
-347.84
-372.57
-389.62
-398.61
-400.59
-397.49
-391.29
-383.32
-374.15
-364.00
-353.28
-342.76
-333.27
-325.17
-318.14
-311.53
-305.08
-299.45
-296.14
-296.57
-300.86
-307.21
-312.25
-312.45
-305.63
-291.94
-273.69
-254.26
-236.92
-223.89
-216.09
-213.26
-214.09
-216.33
-216.94
-212.64
-200.79
-180.32
-152.21
-119.19
-84.77
-52.11
-23.21
1.28
21.67
38.77
53.42
66.48
78.81
91.31
104.65
118.86
133.15
145.96
155.55
160.75
161.51
159.03
155.14
151.51
148.91
146.96
144.54
140.42
133.96
125.21
114.75
103.28
91.22
78.76
65.96
52.96
40.13
27.98
16.93
7.15
-1.59
-9.72
-17.74
-25.92
-34.14
-41.91
-48.56
-53.55
-56.70
-58.31
-58.98
-59.22
-59.01
-57.56
-53.38
-44.80
-30.60
-10.51
14.61
43.07
72.85
102.06
129.24
153.33
173.54
189.16
199.62
204.55
204.04
198.76
189.98
179.33
168.41
158.38
149.70
142.16
135.22
128.38
121.48
114.73
108.47
102.87
97.77
92.75
87.36
81.37
74.87
68.31
62.39
58.01
56.12
57.59
63.00
72.38
85.17
100.19
115.82
130.28
141.88
149.28
151.70
148.87
141.01
128.61
112.27
92.74
70.95
48.23
26.19
6.46
-9.86
-22.63
-32.67
-41.43
-50.37
-60.34
-71.38
-82.92
-94.20
-104.56
-113.67
-121.39
-127.69
-132.45
-135.38
-136.00
-133.67
-127.78
-117.94
-104.33
-87.75
-69.63
-51.71
-35.56
-22.32
-12.62
-6.73
-4.78
-6.95
-13.41
-24.08
-38.25
-54.43
-70.36
-83.44
-91.23
-92.11
-85.56
-72.22
-53.52
-31.28
-7.32
16.74
39.46
59.58
75.98
87.86
94.83
96.98
94.87
89.44
81.95
73.88
66.80
62.08
60.62
62.56
67.38
73.96
81.09
87.75
93.34
97.71
101.01
103.60
105.95
108.59
112.16
117.32
124.65
134.34
146.11
159.05
171.83
182.96
191.26
196.15
197.74
196.66
193.78
189.83
185.27
180.21
174.60
168.36
161.41
153.76
145.36
136.11
125.78
114.10
100.79
85.79
69.25
51.66
33.79
16.52
0.69
-13.12
-24.73
-34.33
-42.53
-50.13
-58.09
-67.37
-78.68
-92.36
-108.27
-125.89
-144.60
-163.95
-183.82
-204.35
-225.68
-247.66
-269.76
-291.21
-311.14
-328.55
-342.18
-350.49
-351.93
-345.62
-332.03
-313.20
-292.11
-271.35
-251.90
-232.49
-210.06
-180.97
-142.41
-93.35
-34.84
30.30
98.14
164.15
223.94
273.69
310.66
333.46
342.12
338.03
323.60
301.74
275.21
245.83
214.01
178.95
139.51
95.66
49.45
5.05
-32.57
-59.64
-75.11
-81.02
-81.31
-79.73
-78.27
-76.64
-73.26
-66.81
-57.50
-47.27
-38.83
-34.26
-33.92
-36.28
-38.71
-38.71
-34.93
-27.55
-17.88
-7.62
1.89
9.97
16.47
21.36
24.48
25.46
24.05
20.40
15.24
9.81
5.44
3.12
3.28
5.69
9.67
14.38
19.06
23.18
26.48
29.05
31.17
33.36
36.21
40.32
46.14
53.92
63.55
74.55
86.17
97.66
108.57
119.09
130.04
142.53
157.58
175.46
195.35
215.32
232.64
244.43
248.36
243.48
230.69
212.86
194.06
178.27
167.95
163.02
161.01
158.17
151.15
138.23
119.60
96.69
70.94
42.98
12.36
-21.90
-60.40
-102.55
-146.16
-187.64
-222.80
-247.90
-260.82
-261.74
-252.99
-238.07
-220.38
-202.13
-184.14
-166.32
-148.54
-131.10
-114.66
-99.58
-85.58
-71.70
-56.98
-41.14
-24.89
-9.65
3.11
12.58
18.80
22.52
24.69
26.07
27.21
28.60
30.94
35.12
42.03
52.04
64.67
78.60
92.09
103.79
113.59
123.06
135.16
153.19
179.28
213.07
251.34
288.62
318.81
337.18
341.58
332.72
313.38
287.18
257.33
225.96
193.87
160.52
124.25
82.86
35.10
-17.62
-69.86
-112.53
-135.38
-130.83
-97.50
-41.37
26.03
91.68
145.23
181.50
200.55
205.80
201.82
192.62
181.03
168.78
156.75
145.09
133.19
119.94
104.06
84.50
60.84
33.61
4.27
-24.86
-51.14
-72.34
-87.53
-97.55
-104.80
-112.32
-122.50
-136.09
-152.08
-168.34
-182.83
-194.75
-205.01
-215.84
-229.73
-248.30
-271.47
-297.67
-324.49
-349.79
-372.62
-393.47
-414.08
-436.97
-465.00
-500.73
-545.41
-597.67
-652.77
-702.93
-739.41
-755.37
-748.61
-722.34
-683.79
-641.24
-601.02
-566.07
-536.24
-510.00
-485.97
-463.61
-442.79
-423.04
-403.14
-381.49
-356.86
-328.99
-298.68
-267.43
-236.71
-207.35
-179.29
-151.69
-123.48
-93.96
-63.42
-33.28
-5.82
16.69
32.90
42.95
48.42
51.58
54.24
56.98
59.16
59.76
58.57
56.85
57.15
62.15
73.50
90.95
112.61
135.88
158.54
179.35
198.21
215.58
232.01
248.04
264.23
281.22
299.50
318.88
338.14
355.10
367.16
372.17
369.20
358.81
342.95
324.20
305.07
287.35
271.89
258.51
246.35
234.20
220.98
206.23
190.27
174.24
159.64
147.74
139.00
133.03
128.73
124.76
120.31
115.30
110.28
105.95
102.59
99.71
96.26
91.07
83.41
73.29
61.39
48.73
36.32
25.00
15.32
7.69
2.28
-1.00
-2.64
-3.57
-5.04
-8.24
-13.97
-22.22
-32.08
-41.92
-49.85
-54.25
-54.30
-50.25
-43.25
-34.94
-26.84
-19.89
-14.33
-9.83
-5.82
-1.84
2.34
6.72
11.11
15.26
18.91
21.92
24.40
26.69
29.37
32.94
37.62
43.05
48.40
52.65
54.99
55.19
53.60
50.94
47.84
44.46
40.48
35.27
28.32
19.66
9.95
0.29
-8.16
-14.59
-18.75
-20.75
-20.85
-19.13
-15.42
-9.48
-1.26
8.84
19.93
30.86
40.54
48.30
53.94
57.73
60.09
61.38
61.75
61.16
59.56
57.10
54.12
51.10
48.48
46.50
45.11
44.08
43.07
41.71
39.67
36.61
32.20
26.10
18.08
8.19
-3.19
-15.36
-27.45
-38.73
-48.82
-57.74
-65.82
-73.49
-81.12
-88.87
-96.81
-104.90
-112.98
-120.76
-127.71
-133.05
-136.01
-135.93
-132.38
-125.17
-114.34
-100.19
-83.40
-65.17
-46.94
-30.09
-15.46
-3.10
7.63
17.58
27.33
36.90
45.77
53.26
58.86
62.35
63.75
63.17
60.69
56.48
50.87
44.48
38.02
32.19
27.41
23.75
21.09
19.23
18.13
17.96
18.97
21.35
24.99
29.50
34.29
38.70
42.19
44.33
44.84
43.65
40.92
37.13
32.99
29.29
26.59
25.00
24.16
23.38
21.85
18.85
13.70
5.79
-5.41
-20.02
-37.41
-55.95
-73.21
-86.53
-93.81
-94.20
-88.24
-77.72
-64.95
-52.07
-40.49
-30.55
-21.79
-13.33
-4.57
4.47
13.09
20.41
26.03
30.52
35.43
42.70
53.70
68.51
85.67
102.63
116.54
125.14
127.40
123.69
115.66
105.76
96.69
90.74
89.09
91.29
95.04
96.73
92.40
79.14
56.37
26.38
-6.14
-35.53
-57.07
-68.35
-69.64
-63.18
-51.79
-37.76
-22.42
-6.50
9.17
23.41
34.70
41.81
44.17
41.99
36.00
27.00
15.69
2.60
-11.78
-27.12
-43.12
-59.48
-75.61
-90.50
-102.96
-112.12
-118.09
-122.03
-125.51
-129.32
-132.70
-133.37
-128.70
-117.21
-99.51
-78.10
-56.18
-36.22
-19.18
-4.68
8.16
19.90
30.44
39.35
46.34
51.62
55.84
59.76
63.85
68.09
71.96
74.66
75.37
73.56
69.17
62.66
54.92
46.94
39.46
32.76
26.59
20.40
13.65
6.08
-2.02
-9.89
-16.44
-20.60
-21.76
-20.08
-16.73
-13.65
-12.97
-16.21
-23.53
-33.60
-43.96
-52.02
-56.10
-55.96
-52.75
-48.33
-44.38
-41.80
-40.59
-40.00
-38.96
-36.34
-31.26
-23.36
-13.14
-2.06
7.63
13.72
14.92
11.62
6.01
1.29
0.40
4.71
13.37
23.56
31.79
35.37
33.51
27.61
20.47
14.88
12.45
13.09
15.60
18.64
21.61
24.82
28.88
33.88
38.96
42.62
43.58
41.56
37.64
33.93
32.86
36.39
45.43
59.68
77.74
97.55
117.00
134.48
149.34
161.86
172.97
183.84
195.47
208.52
223.17
238.97
254.64
268.11
276.91
278.92
273.11
259.99
241.39
219.84
197.79
177.15
159.10
144.35
133.28
125.68
120.65
116.67
112.01
105.33
96.17
84.95
72.74
60.69
49.28
37.98
25.42
9.71
-11.11
-38.51
-72.99
-113.16
-155.25
-193.95
-223.75
-240.56
-243.07
-233.09
-214.67
-193.01
-172.34
-154.64
-140.85
-131.36
-126.06
-124.24
-124.55
-125.07
-124.56
-121.90
-115.29
-104.68
-91.86
-79.63
-71.43
-70.79
-80.31
-101.91
-134.24
-171.17
-206.64
-236.80
-260.18
-278.12
-293.90
-310.95
-332.66
-358.78
-383.12
-399.58
-404.56
-396.94
-378.68
-354.05
-317.19
-268.28
-225.39
-193.12
-165.70
-139.57
-112.21
-82.24
-49.34
-14.01
20.52
50.48
74.00
87.53
87.23
72.69
48.02
21.05
0.72
-7.51
-2.03
16.57
43.88
74.24
104.30
133.71
163.81
195.54
227.08
254.80
275.63
286.77
286.90
277.38
261.47
242.85
224.17
206.05
188.01
170.03
152.42
135.99
121.97
111.24
103.67
98.12
92.83
86.43
78.62
69.97
61.50
54.26
48.91
45.44
43.25
41.39
38.88
35.04
29.71
23.15
15.89
8.60
1.97
-3.39
-7.09
-8.91
-8.79
-6.49
-1.92
4.78
13.27
23.18
34.28
46.54
60.09
74.88
90.62
105.61
116.67
119.90
112.30
93.26
65.35
33.86
5.20
-14.78
-23.30
-21.69
-14.51
-7.60
-5.76
-11.18
-23.09
-41.46
-63.05
-82.98
-97.17
-104.21
-105.48
-103.82
-102.30
-103.77
-110.66
-122.98
-137.96
-150.34
-153.56
-142.14
-114.43
-73.98
-28.70
12.29
40.14
50.18
43.47
26.03
5.99
-9.80
-17.99
-19.12
-16.36
-13.31
-12.31
-13.97
-17.64
-22.17
-26.92
-32.14
-38.29
-45.05
-51.16
-54.87
-55.20
-52.91
-50.32
-50.36
-55.49
-66.30
-81.06
-96.72
-110.09
-118.83
-121.80
-118.71
-109.98
-97.37
-83.26
-69.77
-58.74
-51.32
-47.50
-46.11
-44.76
-40.68
-32.48
-19.98
-3.76
14.59
33.21
50.85
65.25
74.63
84.20
98.47
117.09
138.41
158.97
174.32
180.13
173.56
154.75
127.07
95.32
64.90
40.39
23.57
13.23
6.36
0.16
-6.22
-11.38
-13.58
-11.67
-5.68
2.67
10.94
17.39
21.88
25.87
31.45
39.52
49.62
60.39
70.05
77.49
82.70
86.65
90.59
95.22
100.09
104.03
106.03
105.81
104.35
103.53
105.46
111.52
121.52
133.15
142.28
144.14
134.93
113.49
82.03
45.51
9.75
-20.73
-44.27
-62.17
-77.46
-93.10
-110.60
-129.64
-148.54
-165.14
-177.49
-184.25
-184.99
-180.41
-172.46
-163.87
-157.04
-152.74
-149.57
-144.77
-136.00
-123.25
-109.79
-101.46
-104.35
-121.99
-153.37
-192.61
-230.54
-257.41
-265.60
-251.64
-216.92
-167.05
-110.28
-55.55
-10.63
19.53
33.02
30.90
16.21
-6.88
-33.36
-57.55
-73.42
-75.79
-62.10
-33.86
3.58
42.97
78.08
106.02
127.68
146.18
164.44
183.48
202.19
218.60
231.40
240.59
246.69
249.56
247.91
239.94
224.70
202.84
176.23
146.61
114.46
79.37
40.99
0.80
-37.42
-68.86
-89.60
-98.23
-95.85
-84.30
-64.46
-36.20
-0.10
40.61
79.78
110.72
129.42
136.53
135.97
131.44
123.21
108.26
83.66
50.97
17.96
-3.96
-5.53
15.19
51.47
91.30
123.46
142.41
149.47
150.14
149.48
148.80
145.32
134.48
113.62
84.45
52.65
25.08
6.21
-4.31
-11.44
-21.82
-40.06
-66.43
-97.22
-127.22
-152.47
-171.60
-185.41
-195.21
-201.45
-203.65
-201.21
-194.35
-184.44
-173.44
-163.03
-154.32
-147.81
-143.67
-141.93
-142.27
-143.85
-145.42
-145.79
-144.43
-141.54
-137.91
-134.50
-132.49
-133.16
-137.91
-148.00
-163.60
-182.91
-201.91
-215.04
-216.94
-204.51
-178.20
-141.77
-100.86
-60.70
-24.28
8.27
39.11
71.64
109.32
154.74
208.70
269.22
331.09
386.36
426.37
444.43
438.18
410.40
367.86
318.90
270.86
228.48
193.69
166.38
145.63
130.53
120.49
115.13
113.79
115.16
117.11
117.10
112.86
103.67
90.63
76.41
64.00
55.28
50.21
47.09
43.77
39.03
33.50
29.33
29.07
34.19
44.22
56.82
68.76
77.20
80.38
77.80
69.77
57.05
40.77
22.59
4.84
-9.82
-19.15
-22.22
-19.81
-14.15
-8.03
-3.79
-2.64
-4.49
-8.32
-12.81
-16.92
-20.34
-23.56
-27.64
-33.84
-43.29
-56.85
-75.08
-97.93
-124.44
-152.34
-178.06
-197.57
-207.57
-206.93
-197.21
-182.15
-166.12
-152.37
-142.03
-134.08
-126.52
-117.71
-107.29
-96.41
-87.31
-82.58
-84.28
-93.46
-109.51
-129.91
-150.53
-166.33
-172.72
-167.11
-150.02
-125.05
-97.72
-73.35
-55.30
-44.22
-38.57
-36.06
-35.00
-34.82
-35.76
-38.00
-40.98
-43.50
-44.35
-42.94
-39.67
-35.68
-32.16
-29.77
-28.41
-27.50
-26.39
-24.81
-22.91
-21.40
-21.14
-22.77
-26.45
-31.70
-37.65
-43.38
-48.24
-51.96
-54.48
-55.51
-54.33
-49.74
-40.64
-26.55
-8.10
13.02
34.57
54.46
71.27
84.17
92.68
96.18
94.01
85.77
71.89
53.92
34.14
15.16
-0.56
-10.64
-12.83
-5.01
13.79
43.10
80.64
122.43
163.50
198.98
224.93
238.85
239.67
227.26
202.94
169.63
131.68
93.72
59.45
30.76
7.59
-11.05
-26.86
-40.39
-51.02
-57.82
-60.63
-60.13
-56.97
-50.59
-39.07
-22.88
-3.32
17.04
34.53
44.98
45.04
33.89
13.70
-11.51
-42.95
-81.80
-127.55
-177.36
-227.54
-275.00
-317.45
-353.30
-381.52
-410.45
-446.88
-492.65
-544.06
-595.57
-642.92
-683.78
-717.20
-743.08
-772.69
-814.07
-867.51
-924.97
-975.77
-1012.16
-1031.20
-1034.51
-960.39
-783.33
-521.81
-230.68
34.85
245.23
396.91
499.79
566.56
608.31
623.06
610.21
573.90
526.43
479.66
440.68
411.51
390.87
376.60
359.09
332.39
297.05
259.70
227.84
204.27
189.10
180.70
177.54
174.53
168.95
161.52
155.77
154.11
158.09
167.39
180.81
198.14
219.09
244.09
273.65
307.83
343.96
381.37
419.49
457.83
497.10
538.56
581.28
621.60
654.30
672.04
673.51
658.41
626.00
576.81
515.20
446.54
377.30
314.57
261.83
225.50
206.85
201.51
184.93
141.96
70.68
-15.76
-81.62
-135.21
-178.37
-208.48
-233.85
-258.68
-278.16
-283.99
-271.31
-237.39
-187.75
-128.45
-70.33
-25.57
-0.70
6.27
1.67
-7.41
-16.50
-28.27
-45.83
-74.36
-117.36
-171.68
-227.31
-272.55
-298.43
-301.86
-283.35
-247.23
-204.35
-167.19
-141.66
-125.27
-111.86
-97.00
-80.44
-66.04
-57.36
-55.76
-59.23
-63.10
-62.98
-57.31
-47.64
-37.36
-29.92
-27.24
-29.04
-32.93
-35.45
-34.07
-28.25
-19.43
-9.80
-1.18
5.47
10.59
15.82
23.23
34.01
47.88
63.13
77.63
89.61
98.19
103.81
108.27
114.01
122.90
135.16
148.63
159.24
162.28
154.04
133.27
101.85
64.21
25.96
-7.66
-33.38
-50.21
-59.43
-63.96
-67.33
-72.73
-82.23
-96.77
-115.00
-135.61
-157.38
-179.41
-200.94
-221.38
-240.43
-258.44
-276.61
-296.28
-317.81
-339.42
-357.36
-367.32
-366.36
-354.03
-331.89
-301.86
-264.98
-222.04
-175.23
-129.78
-93.30
-72.68
-69.88
-79.64
-90.68
-90.15
-69.21
-26.45
32.10
95.89
153.98
198.22
224.63
232.99
225.88
207.40
182.56
156.62
134.48
120.01
115.68
122.21
138.31
161.00
186.21
209.79
228.56
240.86
246.57
246.51
241.77
233.14
221.09
205.99
188.46
169.50
150.33
132.12
115.79
101.81
90.19
80.56
72.31
64.71
57.09
48.99
40.27
31.13
22.05
13.65
6.51
0.92
-3.17
-6.20
-8.82
-11.65
-15.06
-19.01
-23.14
-26.92
-29.90
-31.87
-32.96
-33.51
-34.00
-34.85
-36.24
-38.07
-39.96
-41.33
-41.59
-40.24
-37.09
-32.20
-25.94
-18.86
-11.60
-4.79
1.04
5.48
8.37
9.73
9.85
9.13
7.99
6.75
5.58
4.50
3.48
2.49
1.60
0.94
0.65
0.80
1.37
2.26
3.35
4.53
5.72
6.84
7.81
8.52
8.85
8.69
7.92
6.51
4.47
1.93
-0.84
-3.50
-5.64
-6.84
-6.80
-5.31
-2.38
1.78
6.68
11.65
15.94
18.92
20.26
19.98
18.41
16.02
13.18
10.16
7.03
3.81
0.55
-2.62
-5.51
-7.90
-9.68
-10.85
-11.53
-11.96
-12.43
-13.15
-14.25
-15.66
-17.21
-18.72
-20.04
-21.18
-22.28
-23.55
-25.16
-27.16
-29.43
-31.67
-33.47
-34.43
-34.19
-32.53
-29.38
-24.86
-19.32
-13.26
-7.33
-2.16
1.75
4.17
5.17
5.08
4.35
3.45
2.72
2.29
2.19
2.37
2.76
3.32
4.00
4.74
5.42
5.90
6.07
5.91
5.53
5.09
4.75
4.59
4.54
4.40
3.93
2.96
1.42
-0.59
-2.82
-4.88
-6.34
-6.78
-5.87
-3.45
0.36
5.22
10.62
15.94
20.63
24.30
26.76
28.05
28.37
27.98
27.15
26.08
24.95
23.86
22.90
22.12
21.53
21.11
20.83
20.64
20.41
19.97
19.03
17.31
14.62
11.07
7.00
2.97
-0.56
-3.38
-5.65
-7.73
-10.00
-12.63
-15.65
-18.96
-22.51
-26.18
-29.67
-32.33
-33.23
-31.32
-25.93
-17.08
-5.58
7.17
19.61
30.50
39.12
45.30
49.23
51.24
51.58
50.43
47.97
44.43
40.11
35.44
30.76
26.32
22.20
18.36
14.67
11.03
7.37
3.72
0.15
-3.27
-6.52
-9.70
-13.01
-16.67
-20.83
-25.43
-30.25
-34.90
-39.02
-42.45
-45.22
-47.51
-49.47
-51.02
-51.77
-51.19
-48.77
-44.34
-38.12
-30.77
-23.11
-15.92
-9.73
-4.79
-1.14
1.18
2.14
1.69
-0.04
-2.65
-5.48
-7.77
-8.88
-8.58
-7.02
-4.70
-2.18
0.09
1.90
3.21
4.05
4.39
4.19
3.40
2.06
0.35
-1.42
-2.98
-4.13
-4.89
-5.44
-6.03
-6.79
-7.60
-8.06
-7.60
-5.74
-2.32
2.36
7.57
12.39
16.03
18.00
18.27
17.11
14.93
12.16
9.03
5.66
2.10
-1.62
-5.39
-9.05
-12.39
-15.27
-17.60
-19.31
-20.38
-20.75
-20.42
-19.43
-17.95
-16.24
-14.59
-13.23
-12.23
-11.56
-11.07
-10.70
-10.47
-10.49
-10.90
-11.69
-12.69
-13.48
-13.60
-12.62
-10.38
-6.98
-2.80
1.64
5.85
9.46
12.27
14.26
15.46
15.94
15.73
14.88
13.53
11.91
10.35
9.14
8.46
8.27
8.33
8.30
7.90
6.98
5.65
4.10
2.53
1.07
-0.33
-1.79
-3.40
-5.21
-7.18
-9.23
-11.32
-13.45
-15.53
-17.40
-18.68
-18.90
-17.64
-14.71
-10.29
-4.91
0.74
5.98
10.35
13.65
15.89
17.24
17.88
18.01
17.77
17.29
16.73
16.20
15.79
15.55
15.44
15.35
15.14
14.65
13.82
12.66
11.28
9.82
8.37
6.92
5.34
3.48
1.26
-1.25
-3.85
-6.24
-8.15
-9.42
-10.00
-9.87
-9.03
-7.49
-5.31
-2.65
0.18
2.80
4.83
6.00
6.23
5.63
4.39
2.78
1.00
-0.76
-2.36
-3.69
-4.78
-5.75
-6.84
-8.33
-10.37
-12.88
-15.49
-17.67
-18.93
-19.03
-18.13
-16.74
-15.53
-15.12
-15.85
-17.62
-19.99
-22.27
-23.70
-23.70
-21.98
-18.62
-14.03
-8.78
-3.29
2.52
9.40
18.70
31.83
49.62
71.61
95.90
119.40
138.69
150.92
154.47
149.16
136.05
116.99
94.20
70.00
46.57
25.71
8.65
-4.07
-12.55
-17.38
-19.40
-19.64
-19.23
-19.31
-20.89
-24.59
-30.41
-37.75
-45.56
-52.75
-58.46
-62.18
-63.72
-63.03
-60.16
-55.27
-48.73
-41.19
-33.46
-26.26
-20.13
-15.19
-11.26
-7.92
-4.78
-1.56
1.84
5.34
8.90
12.56
16.52
21.09
26.61
33.28
41.08
49.80
59.02
68.23
76.85
84.29
89.94
93.22
93.59
90.70
84.45
75.17
63.54
50.46
36.75
22.95
9.22
-4.50
-18.22
-31.67
-44.32
-55.60
-65.21
-73.34
-80.50
-87.17
-93.40
-98.68
-102.20
-103.24
-101.60
-97.66
-92.21
-86.09
-79.82
-73.57
-67.29
-60.90
-54.50
-48.28
-42.53
-37.42
-33.00
-29.26
-26.12
-23.56
-21.52
-19.93
-18.65
-17.50
-16.37
-15.23
-14.18
-13.44
-13.28
-13.89
-15.27
-17.15
-18.95
-19.88
-19.11
-16.11
-10.83
-3.81
4.00
11.47
17.67
22.03
24.39
24.84
23.58
20.91
17.19
12.88
8.51
4.54
1.26
-1.30
-3.26
-4.76
-5.84
-6.44
-6.51
-6.13
-5.53
-5.04
-4.92
-5.28
-6.04
-7.06
-8.20
-9.38
-10.63
-12.02
-13.58
-15.28
-16.95
-18.32
-19.05
-18.76
-17.20
-14.29
-10.18
-5.21
0.17
5.51
10.43
14.60
17.82
19.89
20.72
20.36
18.98
16.87
14.40
11.92
9.67
7.81
6.37
5.32
4.56
3.98
3.45
2.82
1.96
0.84
-0.52
-1.97
-3.35
-4.57
-5.65
-6.77
-8.17
-10.01
-12.27
-14.66
-16.71
-17.91
-17.82
-16.26
-13.28
-9.15
-4.23
1.02
6.17
10.81
14.58
17.23
18.64
18.87
18.09
16.59
14.70
12.74
11.01
9.68
8.82
8.38
8.21
8.12
7.97
7.71
7.36
6.99
6.60
6.12
5.41
4.33
2.83
1.00
-0.97
-2.92
-4.75
-6.41
-7.85
-8.84
-8.97
-7.74
-4.78
-0.10
5.84
12.20
18.08
22.83
26.20
28.32
29.51
30.06
30.07
29.53
28.41
26.79
24.93
23.11
21.57
20.31
19.18
17.93
16.34
14.30
11.86
9.17
6.39
3.66
1.05
-1.42
-3.83
-6.27
-8.83
-11.57
-14.52
-17.69
-21.07
-24.56
-27.92
-30.68
-32.21
-31.88
-29.31
-24.64
-18.55
-12.12
-6.46
-2.31
0.12
1.15
1.37
1.36
1.52
2.04
2.95
4.20
5.73
7.42
9.16
10.82
12.27
13.47
14.38
15.03
15.44
15.60
15.45
14.86
13.69
11.79
9.11
5.75
1.96
-1.94
-5.70
-9.25
-12.66
-16.07
-19.41
-22.35
-24.32
-24.67
-23.00
-19.29
-13.94
-7.68
-1.26
4.69
9.81
13.98
17.21
19.60
21.17
21.97
22.03
21.50
20.62
19.67
18.94
18.55
18.46
18.52
18.52
18.32
17.86
17.16
16.21
14.98
13.39
11.43
9.15
6.76
4.50
2.56
0.96
-0.49
-2.12
-4.25
-7.07
-10.48
-14.08
-17.24
-19.20
-19.32
-17.30
-13.30
-7.93
-2.07
3.38
7.80
10.98
13.07
14.38
15.23
15.71
15.81
15.47
14.74
13.80
12.85
12.00
11.22
10.40
9.44
8.40
7.42
6.60
5.90
5.03
3.59
1.30
-1.80
-5.31
-8.56
-10.94
-12.07
-12.00
-11.11
-9.96
-9.12
-8.98
-9.69
-11.10
-12.81
-14.18
-14.52
-13.23
-9.97
-4.83
1.72
8.97
16.14
22.62
28.02
32.19
35.16
37.10
38.27
38.97
39.50
40.08
40.81
41.70
42.68
43.75
44.94
46.30
47.80
49.24
50.23
50.29
49.04
46.40
42.64
38.33
34.07
30.27
26.97
23.85
20.44
16.41
11.73
6.70
1.83
-2.45
-5.92
-8.65
-10.93
-13.07
-15.36
-17.90
-20.65
-23.42
-25.87
-27.52
-27.86
-26.48
-23.32
-18.79
-13.80
-9.54
-7.15
-7.29
-9.89
-14.15
-18.80
-22.60
-24.68
-24.81
-23.26
-20.57
-17.24
-13.56
-9.65
-5.61
-1.62
1.94
4.65
6.14
6.28
5.18
3.15
0.59
-2.17
-4.90
-7.56
-10.17
-12.73
-15.16
-17.21
-18.62
-19.19
-18.98
-18.31
-17.73
-17.72
-18.57
-20.21
-22.26
-24.25
-25.83
-26.85
-27.33
-27.33
-26.76
-25.40
-23.03
-19.59
-15.34
-10.84
-6.80
-3.78
-2.01
-1.43
-1.79
-2.83
-4.46
-6.65
-9.32
-12.11
-14.44
-15.63
-15.20
-13.04
-9.48
-5.12
-0.60
3.63
7.36
10.58
13.33
15.64
17.44
18.60
19.05
18.75
17.83
16.53
15.17
14.10
13.59
13.83
14.78
16.32
18.24
20.33
22.40
24.38
26.34
28.44
30.90
33.81
37.06
40.31
43.04
44.50
43.97
40.96
35.48
28.10
19.81
11.88
5.46
1.36
-0.38
-0.45
-0.10
-0.58
-2.67
-6.54
-11.48
-16.24
-19.39
-20.27
-19.15
-16.99
-14.80
-13.13
-12.35
-12.21
-12.34
-12.08
-11.77
-12.41
-15.05
-19.95
-26.43
-34.07
-41.93
-48.79
-52.27
-51.23
-45.70
-37.14
-28.07
-22.15
-25.25
-42.22
-75.17
-120.64
-173.51
-227.97
-279.51
-324.92
-362.51
-393.38
-417.81
-434.76
-440.20
-433.06
-415.49
-392.52
-368.93
-335.15
-285.46
-218.01
-150.46
-88.35
-33.07
19.53
69.25
114.35
152.64
180.66
197.20
203.87
206.60
209.45
213.73
217.74
219.42
217.78
212.28
204.65
197.70
195.39
198.17
203.66
207.93
208.52
205.22
198.89
191.51
184.69
179.99
176.64
172.66
166.03
156.50
145.25
133.45
121.74
109.59
96.20
80.61
62.91
44.76
28.96
17.93
12.01
9.09
5.53
-1.84
-14.44
-31.25
-49.52
-66.35
-80.18
-91.25
-100.81
-109.66
-117.09
-121.00
-119.19
-110.87
-97.52
-82.50
-69.67
-61.77
-59.51
-61.56
-65.43
-68.57
-69.18
-66.43
-60.27
-51.09
-39.63
-26.86
-14.08
-2.75
5.82
10.90
12.51
11.48
9.20
7.16
6.48
7.58
10.14
13.33
16.18
17.98
18.44
17.81
16.55
15.19
14.10
13.41
13.16
13.32
13.84
14.61
15.39
15.80
15.55
14.57
13.13
11.69
10.67
10.13
9.81
9.37
8.56
7.43
6.23
5.13
4.08
2.83
1.13
-0.95
-2.86
-3.65
-2.36
1.50
7.60
14.78
21.41
25.98
27.75
27.00
24.86
22.74
21.74
22.18
23.60
25.14
26.08
26.14
25.62
25.04
24.84
25.07
25.42
25.41
24.63
22.97
20.60
17.94
15.47
13.68
13.04
13.97
16.71
21.03
25.93
29.64
29.90
24.75
13.47
-2.90
-21.60
-38.96
-51.68
-58.04
-58.37
-54.65
-49.44
-44.62
-40.71
-37.02
-32.45
-26.50
-19.74
-13.48
-8.92
-6.19
-4.16
-0.93
5.07
14.21
25.44
36.76
46.15
52.43
55.51
56.19
55.67
55.12
55.39
56.84
59.18
61.22
61.07
56.49
45.88
29.04
7.59
-15.42
-36.51
-52.95
-63.40
-68.10
-68.30
-65.56
-61.27
-56.42
-51.64
-47.32
-43.55
-40.04
-36.07
-30.65
-22.87
-12.28
0.74
15.03
28.81
40.24
47.97
51.60
51.79
50.00
47.87
46.66
46.87
48.24
50.08
51.73
52.94
53.85
54.80
56.02
57.33
58.22
58.03
56.41
53.55
50.23
47.49
46.09
46.18
47.17
48.11
48.20
47.16
45.23
42.85
40.25
37.25
33.38
28.29
22.14
15.67
9.88
5.66
3.31
2.51
2.53
2.51
1.75
-0.22
-3.65
-8.61
-15.03
-22.66
-30.99
-39.29
-46.64
-52.23
-55.64
-56.94
-56.78
-56.09
-55.74
-56.23
-57.58
-59.36
-60.90
-61.43
-60.29
-57.04
-51.56
-44.17
-35.63
-26.99
-19.27
-13.10
-8.63
-5.66
-4.03
-3.84
-5.40
-8.95
-14.24
-20.53
-26.93
-32.84
-38.29
-43.73
-49.55
-55.56
-60.91
-64.47
-65.42
-63.76
-60.22
-55.83
-51.38
-47.06
-42.49
-37.11
-30.57
-22.99
-15.06
-7.75
-1.91
2.10
4.71
7.07
10.71
16.83
25.81
37.09
49.49
61.96
74.02
85.91
98.10
110.68
122.87
133.18
139.92
141.93
138.94
131.39
119.96
105.00
86.44
64.24
39.17
13.17
-10.85
-29.91
-42.09
-47.35
-47.46
-45.33
-43.86
-45.01
-49.44
-56.65
-65.58
-75.09
-84.21
-92.18
-98.33
-101.94
-102.28
-98.92
-92.02
-82.59
-72.39
-63.11
-55.47
-48.46
-39.66
-26.40
-7.52
15.41
38.06
54.65
60.10
51.93
31.33
2.95
-26.23
-48.48
-57.08
-47.89
-20.58
21.04
69.45
115.12
148.67
163.17
155.71
127.87
85.24
35.97
-11.14
-48.88
-73.36
-84.75
-86.49
-83.20
-78.29
-72.44
-63.96
-50.69
-32.26
-11.16
7.84
19.88
22.20
15.22
2.09
-12.93
-26.04
-34.57
-36.94
-32.27
-20.36
-2.08
20.24
43.01
62.35
75.47
81.60
82.14
79.79
77.23
75.97
75.90
75.49
72.71
65.98
54.89
40.36
24.39
9.36
-2.72
-10.78
-14.88
-16.10
-16.04
-16.10
-16.99
-18.52
-19.86
-20.03
-18.52
-15.52
-11.95
-9.18
-8.47
-10.33
-13.87
-16.50
-14.36
-3.46
18.64
51.30
90.21
128.28
157.61
172.24
170.06
153.36
127.63
99.48
74.63
56.99
48.72
50.77
63.10
84.43
111.69
139.94
163.25
176.30
176.11
163.15
140.89
114.36
88.36
66.02
48.50
35.47
25.94
18.86
13.48
9.32
6.13
3.78
2.02
0.53
-1.31
-4.37
-9.71
-18.38
-31.25
-48.64
-70.07
-93.95
-117.62
-137.81
-151.47
-156.74
-153.74
-144.66
-133.24
-123.62
-119.23
-121.92
-131.58
-146.31
-162.80
-177.06
-185.25
-184.69
-174.61
-156.53
-133.78
-110.44
-89.92
-74.03
-62.69
-54.49
-47.66
-40.92
-33.87
-26.71
-19.82
-13.27
-6.75
0.24
7.99
16.22
24.08
30.43
34.36
35.59
34.64
32.54
30.42
29.00
28.42
28.48
28.96
29.96
31.85
34.90
38.80
42.53
44.70
44.28
41.26
36.79
32.64
30.40
30.61
32.52
34.49
34.68
31.94
26.15
18.11
9.15
0.57
-6.84
-12.91
-18.14
-23.37
-29.55
-37.30
-46.70
-57.22
-67.82
-77.09
-83.36
-84.93
-80.47
-69.69
-53.90
-36.08
-20.19
-9.91
-7.27
-12.00
-21.70
-33.06
-43.14
-50.28
-54.23
-55.64
-55.19
-53.02
-48.88
-42.70
-35.26
-28.34
-24.16
-24.23
-28.36
-34.40
-39.08
-39.55
-34.74
-25.82
-15.42
-6.15
0.65
5.30
9.10
13.24
18.01
22.72
26.34
28.21
28.45
27.76
27.13
27.20
28.11
29.49
30.82
31.68
31.99
32.03
32.26
33.10
34.71
36.95
39.39
41.48
42.77
43.02
42.22
40.59
38.42
35.93
33.24
30.32
27.16
23.78
20.36
17.24
14.82
13.47
13.45
14.76
17.19
20.31
23.55
26.38
28.37
29.34
29.33
28.53
27.20
25.52
23.59
21.44
19.09
16.63
14.19
11.88
9.73
7.66
5.50
3.14
0.54
-2.15
-4.68
-6.79
-8.37
-9.55
-10.60
-11.89
-13.70
-16.10
-18.94
-21.97
-24.90
-27.60
-29.99
-32.01
-33.55
-34.39
-34.37
-33.50
-31.95
-30.18
-28.77
-28.17
-28.56
-29.82
-31.61
-33.61
-35.62
-37.58
-39.76
-42.64
-46.62
-51.74
-57.66
-63.82
-69.67
-75.19
-80.74
-87.28
-95.71
-105.86
-116.00
-123.05
-123.48
-114.50
-94.87
-64.59
-24.80
22.75
76.00
131.92
185.92
232.18
265.12
279.35
274.22
253.48
221.81
183.72
142.74
101.42
62.34
28.37
2.37
-13.79
-20.80
-22.17
-23.03
-28.15
-40.05
-57.91
-77.87
-94.79
-104.53
-106.10
-102.10
-97.03
-94.79
-96.47
-99.72
-100.13
-93.84
-79.79
-60.58
-41.13
-26.06
-17.50
-14.48
-13.80
-11.86
-6.29
3.45
16.11
29.84
43.00
54.79
65.15
74.30
82.37
89.01
93.61
95.69
95.35
93.60
92.17
92.95
97.31
105.62
117.10
130.25
143.33
154.87
163.87
169.69
171.74
169.38
161.91
148.88
130.34
107.05
80.28
51.38
21.38
-9.24
-40.16
-70.74
-99.35
-123.43
-140.15
-147.35
-144.60
-133.45
-117.04
-99.03
-82.44
-68.81
-58.03
-48.93
-40.17
-31.15
-22.39
-15.47
-12.43
-15.08
-24.28
-39.58
-59.22
-80.43
-100.09
-115.31
-123.98
-124.99
-118.34
-104.93
-86.30
-64.41
-41.40
-19.52
-0.79
13.34
22.33
26.68
27.66
26.82
25.41
24.21
23.50
23.33
23.78
25.03
27.27
30.53
34.39
37.87
39.51
37.79
31.61
20.84
6.46
-9.61
-25.04
-37.88
-47.01
-52.34
-54.64
-55.15
-55.13
-55.75
-57.79
-61.68
-67.43
-74.74
-83.03
-91.49
-99.28
-105.66
-110.54
-114.21
-117.41
-121.01
-125.77
-132.09
-139.61
-147.41
-153.92
-157.67
-157.02
-150.52
-137.43
-118.27
-95.05
-70.73
-48.75
-31.60
-20.91
-16.26
-15.82
-17.15
-18.47
-19.21
-19.80
-21.71
-26.25
-35.01
-48.18
-64.62
-81.93
-97.46
-108.79
-114.23
-114.00
-102.11
-76.63
-39.49
4.00
48.56
91.58
131.35
170.94
210.87
247.89
275.12
286.58
278.13
250.91
208.66
158.93
109.93
66.80
31.31
1.44
-23.24
-40.85
-47.46
-41.38
-24.32
-0.92
22.98
43.39
58.70
69.37
75.93
77.76
73.18
61.43
44.06
24.82
8.73
-0.26
-0.64
6.04
16.12
25.45
31.03
31.64
27.38
19.35
9.03
-1.90
-11.83
-19.07
-21.88
-18.49
-7.53
11.23
36.46
65.31
94.01
118.73
136.51
145.55
145.27
135.93
118.49
94.85
68.16
42.71
23.23
13.45
14.63
24.82
39.05
50.77
53.92
44.87
23.83
-5.11
-35.15
-58.94
-70.89
-68.90
-54.83
-33.67
-11.71
5.54
14.97
16.35
11.90
4.83
-2.07
-7.32
-10.73
-12.73
-13.51
-12.56
-9.06
-2.56
6.32
15.88
23.94
28.90
30.42
29.56
28.03
27.35
28.04
29.57
30.76
30.60
28.80
26.03
23.53
22.54
23.67
26.68
30.65
34.46
37.33
39.12
40.24
41.37
43.04
45.40
48.15
50.76
52.64
53.29
52.52
50.29
46.70
41.85
35.73
28.29
19.67
10.38
1.48
-5.64
-9.68
-10.07
-7.34
-3.13
0.28
0.74
-3.09
-11.36
-23.15
-36.90
-50.98
-64.18
-75.90
-86.19
-95.41
-103.87
-111.49
-117.67
-121.54
-122.28
-119.57
-113.72
-105.59
-96.28
-87.02
-79.01
-73.39
-70.97
-71.87
-75.31
-79.63
-82.85
-83.44
-80.93
-75.96
-69.97
-64.51
-60.51
-57.89
-55.60
-52.24
-46.77
-39.08
-29.99
-20.73
-12.07
-3.80
5.07
15.45
27.02
37.79
44.66
45.14
38.83
28.02
16.69
8.50
4.99
5.05
5.89
4.89
1.22
-3.62
-6.53
-4.27
4.86
20.44
40.17
60.89
79.66
94.53
104.57
109.54
109.55
104.87
96.06
84.15
70.63
57.29
45.89
37.79
33.87
34.45
39.26
47.40
57.13
66.02
71.26
70.37
61.87
45.77
23.57
-2.09
-28.10
-51.55
-70.19
-82.65
-88.50
-88.25
-83.24
-75.54
-67.66
-62.10
-60.68
-64.07
-71.45
-80.72
-89.27
-94.85
-96.57
-95.22
-93.04
-92.98
-97.46
-107.45
-121.73
-136.99
-148.43
-150.99
-140.81
-116.71
-80.93
-38.87
2.34
36.09
58.56
69.86
73.66
75.30
79.27
87.34
98.14
108.43
115.02
116.44
113.32
107.54
100.88
94.01
86.57
78.03
68.61
59.64
53.07
50.41
51.87
56.05
60.39
62.13
59.03
49.95
35.18
16.67
-2.07
-16.75
-23.65
-21.27
-11.00
3.26
16.82
26.10
29.94
29.45
26.62
22.81
17.84
10.80
1.06
-10.67
-22.50
-32.30
-38.53
-41.24
-41.89
-42.92
-45.93
-51.10
-57.13
-62.22
-65.00
-64.64
-61.57
-57.31
-54.60
-55.29
-59.64
-65.98
-71.70
-74.32
-71.73
-63.80
-52.42
-41.68
-34.31
-30.55
-27.74
-22.10
-10.20
10.87
41.75
80.68
122.35
161.54
194.00
217.67
232.42
233.62
220.06
193.83
169.84
154.60
149.23
147.58
145.23
139.40
129.27
116.68
103.89
92.24
79.79
64.21
43.52
17.43
-12.89
-44.51
-72.40
-91.71
-99.61
-97.68
-89.58
-79.98
-72.60
-69.71
-71.63
-76.23
-80.04
-79.24
-71.47
-55.56
-32.54
-5.67
19.64
37.53
44.00
38.21
22.66
1.96
-18.38
-33.85
-42.30
-44.72
-44.58
-45.88
-51.08
-59.54
-67.74
-71.03
-66.63
-55.65
-42.99
-34.68
-34.38
-41.40
-51.31
-58.61
-59.55
-53.41
-41.63
-26.18
-8.56
9.97
27.44
40.74
46.55
42.89
30.21
11.07
-11.51
-35.56
-60.40
-85.49
-108.69
-125.38
-129.73
-117.06
-86.64
-43.08
4.40
44.98
69.96
75.70
64.76
44.54
24.46
12.46
12.34
22.89
39.27
55.52
66.85
70.92
67.69
58.78
46.61
33.81
23.15
17.46
18.97
27.95
40.64
49.00
44.80
25.22
-4.50
-33.66
-51.78
-53.85
-43.66
-28.91
-17.51
-14.29
-19.68
-30.85
-44.07
-56.69
-67.79
-76.59
-82.39
-84.21
-80.86
-71.51
-56.63
-38.33
-19.77
-3.90
7.67
15.19
20.23
24.52
28.69
31.41
29.79
21.07
4.59
-17.06
-38.76
-55.14
-63.12
-63.42
-59.96
-57.34
-57.74
-59.02
-55.38
-40.44
-11.00
30.51
76.18
115.36
138.59
140.96
123.44
92.14
56.09
24.73
5.77
3.51
17.95
44.59
75.50
101.47
114.83
111.79
93.26
63.86
29.79
-3.28
-31.38
-52.35
-65.32
-70.35
-68.48
-61.86
-53.62
-47.07
-44.69
-47.33
-54.14
-63.23
-72.48
-80.36
-86.24
-90.31
-93.22
-95.75
-98.45
-101.46
-104.39
-106.28
-105.67
-100.83
-90.11
-72.56
-48.38
-19.22
12.07
42.20
68.25
88.44
102.37
110.82
115.24
117.40
119.03
121.59
125.94
131.83
137.61
140.35
136.63
123.76
100.93
69.79
34.09
-1.26
-31.54
-53.28
-64.86
-66.61
-60.37
-48.95
-35.30
-21.96
-10.58
-1.94
3.86
7.05
7.98
7.34
6.34
6.93
11.27
20.86
35.57
53.37
71.00
85.24
94.15
97.54
96.28
91.29
82.72
70.10
53.12
32.53
10.34
-10.90
-29.19
-43.89
-55.70
-65.98
-75.76
-85.24
-93.96
-101.30
-106.99
-111.24
-114.40
-116.56
-117.33
-115.98
-111.92
-105.07
-95.97
-85.62
-74.93
-64.40
-53.94
-43.02
-31.02
-17.62
-3.02
12.08
26.59
39.30
49.18
55.59
58.46
58.35
56.32
53.64
51.45
50.36
50.26
50.31
49.32
46.09
39.92
30.80
19.39
6.78
-5.90
-17.74
-28.13
-36.69
-43.08
-46.97
-48.12
-46.60
-42.95
-38.12
-33.25
-29.29
-26.74
-25.50
-25.03
-24.63
-23.58
-21.40
-17.84
-12.86
-6.68
0.31
7.45
13.95
19.03
22.13
23.11
22.28
20.25
17.71
15.13
12.60
9.88
6.61
2.62
-1.98
-6.75
-11.12
-14.59
-16.82
-17.58
-16.62
-13.56
-8.00
0.31
11.26
24.18
37.95
51.13
62.19
69.55
71.54
66.50
53.14
31.28
2.57
-29.37
-59.63
-83.53
-98.21
-103.63
-102.21
-97.46
-92.29
-87.90
-83.88
-79.14
-73.19
-66.58
-60.52
-55.85
-52.28
-48.34
-42.19
-32.77
-20.46
-6.85
6.16
17.45
27.19
36.51
46.65
58.02
69.89
80.64
88.53
92.36
91.73
86.89
78.37
66.68
52.36
36.14
19.23
3.23
-10.21
-19.93
-25.58
-27.73
-27.46
-25.75
-22.99
-18.88
-12.76
-4.17
6.74
19.11
31.73
43.50
53.73
62.19
68.77
73.18
74.91
73.48
68.96
62.31
55.27
49.73
47.02
47.35
49.96
53.64
57.50
61.37
65.69
71.03
77.55
84.83
92.10
98.69
104.42
109.51
114.29
118.80
122.61
124.99
125.26
123.17
119.07
113.72
107.78
101.34
93.74
83.99
71.78
58.22
45.82
37.46
34.82
37.17
41.33
43.05
39.05
28.64
13.98
-1.17
-13.35
-20.87
-24.12
-24.60
-23.62
-21.51
-17.73
-11.90
-4.74
1.78
5.10
3.54
-2.75
-11.65
-20.10
-25.64
-27.40
-26.34
-24.46
-23.79
-25.56
-29.80
-35.50
-41.03
-44.72
-45.42
-43.00
-38.29
-32.64
-27.11
-21.77
-15.73
-7.93
1.75
11.86
19.59
21.81
16.42
3.26
-15.86
-37.79
-59.11
-77.18
-90.93
-101.27
-110.78
-122.80
-140.13
-163.88
-192.62
-222.57
-248.26
-263.73
-264.06
-246.85
-213.34
-168.85
-121.70
-81.07
-54.02
-43.29
-46.65
-58.31
-71.42
-80.41
-82.29
-76.18
-62.40
-41.74
-15.38
14.66
45.50
74.07
98.42
118.81
137.67
158.37
183.21
211.93
241.46
267.20
285.12
293.61
294.05
290.21
286.74
287.55
294.68
307.81
324.35
340.00
349.77
349.17
335.54
308.86
271.80
228.86
184.86
143.48
106.34
73.06
41.99
11.21
-20.80
-55.08
-92.60
-134.48
-181.63
-233.60
-287.35
-336.87
-374.18
-391.80
-385.61
-356.74
-311.44
-258.91
-208.27
-166.08
-135.36
-116.18
-106.92
-105.13
-107.70
-110.86
-110.54
-103.69
-89.59
-70.56
-51.13
-36.13
-28.59
-28.58
-33.61
-40.15
-45.45
-48.42
-49.45
-49.45
-49.01
-48.04
-46.20
-43.52
-40.68
-38.79
-38.84
-41.12
-45.05
-49.48
-53.13
-55.19
-55.51
-54.57
-53.16
-52.03
-51.59
-51.87
-52.52
-52.96
-52.55
-50.76
-47.34
-42.43
-36.49
-30.11
-23.83
-17.93
-12.41
-6.96
-1.01
6.15
15.10
25.89
37.61
48.38
55.78
57.77
53.66
44.73
34.03
25.34
21.81
24.88
33.86
46.39
59.25
69.38
74.46
73.32
65.99
53.68
38.72
24.18
13.45
9.48
14.09
27.35
47.40
70.77
93.13
110.48
120.07
120.95
113.96
101.12
84.82
67.11
49.39
32.39
16.43
1.62
-11.80
-23.47
-32.80
-39.12
-41.86
-40.90
-36.63
-29.99
-22.16
-14.26
-7.18
-1.60
1.91
2.82
0.85
-3.77
-10.18
-16.99
-22.72
-26.37
-27.77
-27.55
-26.95
-27.25
-29.45
-33.99
-40.79
-49.23
-58.23
-66.28
-71.52
-72.13
-66.81
-55.28
-38.74
-19.59
-0.93
14.31
24.05
27.45
24.78
17.15
6.10
-6.60
-19.18
-29.88
-37.20
-40.15
-38.49
-32.89
-24.90
-16.66
-10.38
-7.64
-8.75
-12.50
-16.44
-17.76
-14.39
-5.85
6.53
20.10
31.99
40.12
43.70
43.24
40.03
35.45
30.53
25.84
21.62
18.02
15.14
12.96
11.24
9.44
6.88
3.04
-2.24
-8.72
-16.05
-23.92
-32.19
-40.72
-49.17
-56.86
-62.96
-66.82
-68.25
-67.57
-65.48
-62.75
-59.95
-57.50
-55.66
-54.66
-54.57
-55.24
-56.21
-56.89
-56.82
-55.93
-54.46
-52.70
-50.63
-47.78
-43.37
-36.71
-27.60
-16.53
-4.69
6.43
15.35
21.02
22.99
21.54
17.52
12.17
6.77
2.33
-0.57
-1.84
-1.69
-0.48
1.53
4.22
7.76
12.53
19.15
28.19
39.96
54.12
69.58
84.69
97.62
106.91
111.76
112.02
107.95
100.00
88.69
74.78
59.51
44.59
31.91
22.99
18.50
17.94
19.92
22.69
24.78
25.39
24.55
22.91
21.34
20.65
21.42
23.94
28.33
34.52
42.34
51.47
61.54
72.17
83.17
94.49
106.18
118.24
130.39
142.17
152.99
162.48
170.53
177.20
182.51
186.31
188.42
188.92
188.42
187.99
188.62
190.56
193.04
194.54
193.52
188.94
180.34
167.44
149.62
125.88
95.51
58.80
17.56
-25.25
-66.70
-105.01
-140.18
-173.90
-208.74
-247.02
-289.64
-335.31
-380.49
-420.09
-448.91
-463.37
-462.69
-449.04
-426.46
-399.38
-371.23
-344.07
-318.91
-296.39
-277.13
-261.64
-249.95
-241.46
-235.31
-230.87
-228.08
-227.32
-228.89
-232.70
-238.06
-243.96
-249.59
-254.54
-258.62
-261.31
-261.28
-256.22
-243.28
-219.78
-183.87
-134.93
-73.67
-2.21
75.59
153.87
225.05
281.30
316.91
330.66
326.74
313.33
299.34
290.74
288.59
289.46
288.10
280.49
265.75
246.00
224.77
205.24
189.12
176.70
167.38
160.18
153.91
147.03
137.81
124.62
106.41
83.11
55.69
25.91
-3.94
-31.37
-53.91
-69.34
-76.07
-73.57
-62.68
-45.46
-24.80
-3.57
16.05
32.92
46.84
58.01
66.51
72.01
73.99
72.24
67.25
60.21
52.52
45.34
39.16
34.02
29.87
26.94
25.67
26.34
28.55
31.05
32.11
30.24
24.74
15.97
5.00
-7.00
-19.19
-31.19
-42.81
-53.71
-63.15
-70.12
-73.66
-73.27
-69.06
-61.84
-52.77
-43.10
-33.83
-25.59
-18.57
-12.67
-7.58
-3.02
1.13
4.86
8.05
10.68
12.88
14.91
17.01
19.23
21.36
22.97
23.66
23.19
21.61
19.15
16.13
12.78
9.20
5.43
1.52
-2.43
-6.38
-10.37
-14.61
-19.33
-24.64
-30.24
-35.37
-38.82
-39.32
-35.95
-28.57
-17.92
-5.47
7.06
18.14
26.74
32.28
34.63
34.01
31.00
26.58
22.03
18.55
16.94
17.27
18.96
21.09
22.76
23.34
22.50
20.09
16.14
11.01
5.47
0.63
-2.47
-3.33
-2.23
-0.06
2.19
3.93
5.09
5.80
6.06
5.52
3.77
0.77
-2.83
-5.83
-6.92
-5.19
-0.24
7.86
18.70
31.65
45.73
59.52
71.29
79.53
83.49
83.45
80.66
76.68
72.82
69.72
67.26
64.80
61.46
56.32
48.72
38.51
26.23
13.13
0.83
-9.17
-16.13
-20.23
-22.49
-24.15
-26.14
-28.67
-31.32
-33.31
-33.88
-32.48
-28.84
-22.90
-14.87
-5.24
5.13
15.14
23.68
29.91
33.48
34.56
33.70
31.58
28.79
25.71
22.62
19.68
17.12
15.11
13.77
13.12
13.03
13.34
13.89
14.58
15.35
16.00
16.20
15.51
13.59
10.37
6.12
1.41
-3.21
-7.40
-11.12
-14.57
-17.97
-21.41
-24.85
-28.24
-31.69
-35.52
-40.22
-46.34
-54.31
-64.40
-76.56
-90.47
-105.42
-120.39
-134.31
-146.33
-156.11
-163.84
-169.99
-174.87
-178.28
-179.56
-177.73
-172.01
-162.04
-147.98
-130.42
-110.37
-89.29
-69.09
-51.97
-39.81
-33.51
-32.40
-34.28
-36.13
-35.12
-29.53
-19.13
-4.93
11.50
28.59
45.21
60.76
75.03
88.06
99.96
110.73
120.21
128.08
134.06
138.03
140.07
140.36
138.90
135.50
129.96
122.53
114.15
106.41
100.93
98.65
99.34
101.84
104.58
106.32
106.35
104.35
99.97
92.55
81.38
66.13
47.23
25.98
4.23
-16.19
-33.83
-47.84
-57.89
-64.00
-66.46
-65.78
-62.72
-58.26
-53.47
-49.38
-46.68
-45.62
-45.90
-46.75
-47.33
-47.07
-46.01
-44.75
-44.08
-44.49
-45.76
-47.05
-47.28
-45.71
-42.28
-37.60
-32.61
-28.10
-24.46
-21.73
-19.81
-18.81
-19.04
-20.84
-24.29
-28.93
-33.87
-38.24
-41.57
-44.07
-46.48
-49.60
-53.81
-58.93
-64.43
-69.85
-75.07
-80.29
-85.89
-92.20
-99.38
-107.46
-116.42
-126.14
-136.23
-145.70
-152.68
-154.41
-147.54
-129.03
-97.51
-54.25
-3.46
48.64
95.63
132.84
158.45
173.41
180.34
181.99
180.31
176.20
169.92
161.67
151.97
141.73
132.00
123.71
117.34
112.78
109.33
106.05
102.18
97.57
92.60
87.75
83.06
77.91
71.43
63.13
53.42
43.64
35.45
30.14
28.14
28.95
31.55
34.78
37.62
39.37
39.62
38.35
35.91
32.96
30.24
28.18
26.72
25.32
23.27
20.09
15.76
10.62
5.11
-0.59
-6.71
-13.87
-22.92
-34.65
-49.56
-67.58
-87.85
-108.60
-127.34
-141.49
-149.34
-150.97
-148.34
-144.69
-143.13
-145.35
-151.25
-159.57
-169.31
-180.47
-193.60
-208.29
-221.94
-229.85
-227.03
-210.76
-182.08
-145.37
-106.53
-71.12
-43.34
-26.19
-21.63
-30.22
-50.27
-77.25
-104.46
-125.05
-134.32
-131.15
-117.42
-96.07
-68.98
-36.06
3.85
50.99
102.94
154.50
199.00
230.59
246.30
246.95
236.29
218.95
198.05
173.99
144.93
108.54
64.11
13.88
-36.93
-81.25
-111.79
-122.51
-110.24
-75.91
-25.36
31.02
80.03
108.83
108.84
78.79
25.89
-35.96
-90.40
-123.87
-130.03
-111.51
-78.21
-42.84
-15.65
-0.76
4.64
7.98
17.28
37.44
68.50
106.27
144.81
178.84
205.27
222.97
231.93
232.26
223.98
207.70
185.39
160.77
138.65
123.55
117.77
120.00
125.59
128.42
123.93
111.55
95.24
81.53
75.78
78.71
85.17
86.19
73.32
43.14
-0.75
-48.96
-90.45
-117.15
-126.79
-122.76
-111.61
-99.81
-91.30
-87.01
-85.90
-86.47
-87.89
-90.14
-93.30
-96.75
-98.66
-96.31
-86.77
-67.80
-38.54
-0.01
44.87
91.60
134.99
170.28
194.08
204.83
202.56
188.27
163.69
131.48
95.52
60.80
32.41
13.57
3.97
-0.55
-6.53
-20.09
-44.19
-77.43
-114.99
-150.73
-179.39
-197.65
-203.96
-198.05
-180.56
-153.19
-118.80
-81.12
-43.85
-9.61
20.40
45.89
66.57
81.40
88.82
87.66
78.17
62.27
42.88
22.82
4.07
-12.12
-24.64
-32.11
-33.27
-27.99
-18.09
-7.28
0.19
1.44
-3.57
-11.93
-19.13
-21.12
-16.14
-5.20
8.53
21.34
30.35
34.23
33.27
29.01
23.69
19.68
18.75
21.18
25.23
27.11
22.07
6.27
-21.27
-57.52
-95.83
-127.96
-146.92
-149.27
-136.22
-112.75
-85.79
-61.91
-45.81
-39.76
-43.95
-57.11
-77.08
-100.98
-125.14
-145.27
-157.02
-157.03
-144.06
-119.50
-87.03
-51.50
-17.32
12.83
38.48
60.65
80.61
98.56
113.17
122.21
123.93
118.33
107.38
94.05
80.88
68.97
58.07
47.44
36.92
27.20
19.41
14.30
11.66
10.62
10.34
10.72
12.50
16.75
24.07
34.21
46.15
58.47
69.84
79.25
85.97
89.75
90.99
90.52
89.41
88.24
86.62
83.32
77.08
67.54
55.91
44.54
35.93
31.70
32.14
36.27
42.03
46.36
45.50
35.96
16.22
-11.44
-40.29
-60.89
-64.63
-47.90
-14.37
26.02
60.86
79.80
77.83
55.79
18.55
-27.45
-76.02
-122.06
-161.48
-191.16
-209.08
-214.63
-208.60
-193.01
-170.57
-144.04
-115.78
-87.54
-60.27
-34.28
-9.47
14.22
36.40
56.04
71.66
81.84
85.80
83.70
76.71
66.66
55.66
45.86
39.39
38.20
43.90
57.41
78.42
105.29
135.14
164.44
189.87
209.14
221.47
227.56
229.08
227.93
225.55
222.49
218.34
212.02
202.17
187.77
168.70
146.21
122.88
102.08
86.88
78.88
77.70
81.34
87.28
93.66
99.80
105.60
110.47
112.56
108.91
96.66
74.51
43.74
8.07
-27.35
-57.36
-77.91
-86.74
-83.69
-70.64
-51.29
-30.56
-13.53
-4.11
-4.17
-13.23
-29.18
-49.48
-72.22
-96.86
-124.34
-156.51
-195.17
-240.59
-290.14
-337.84
-375.39
-394.64
-390.68
-363.97
-320.38
-268.98
-218.71
-175.67
-142.26
-118.12
-101.93
-92.61
-89.29
-90.54
-93.69
-95.13
-91.52
-81.20
-64.87
-45.27
-26.01
-10.09
1.12
8.10
12.63
16.77
21.86
27.87
33.52
36.99
36.90
33.15
27.09
21.02
17.12
16.60
19.11
23.19
27.05
29.51
30.54
31.03
32.15
34.54
37.84
40.87
42.19
40.79
36.63
30.57
24.00
18.30
14.45
12.91
13.70
16.53
20.96
26.42
32.22
37.70
42.34
46.04
49.07
51.83
54.43
56.36
56.56
53.91
47.90
39.15
29.43
21.11
16.31
16.20
20.68
28.60
38.26
47.97
56.38
62.66
66.48
67.75
66.45
62.49
55.65
45.70
32.60
16.72
-1.06
-19.50
-37.25
-53.13
-66.37
-76.55
-83.55
-87.30
-87.73
-84.90
-79.24
-71.83
-64.30
-58.43
-55.40
-55.31
-57.12
-59.20
-60.30
-60.23
-59.96
-60.91
-63.95
-68.58
-72.91
-74.48
-71.39
-63.27
-51.45
-38.28
-26.06
-16.25
-9.22
-4.61
-1.86
-0.40
0.44
1.90
5.96
14.90
30.30
51.85
76.66
99.71
115.26
118.90
109.10
87.59
58.71
27.88
0.08
-21.16
-34.15
-38.88
-36.68
-29.68
-20.41
-11.42
-4.77
-1.74
-2.78
-7.52
-14.87
-23.17
-30.32
-34.15
-32.99
-26.31
-15.14
-1.88
10.33
18.63
21.25
18.09
10.75
2.13
-4.52
-6.66
-3.33
4.56
14.74
24.55
32.02
36.45
38.16
37.84
35.82
31.90
25.68
17.24
7.52
-1.74
-8.62
-11.93
-11.69
-9.17
-6.24
-4.47
-4.42
-5.52
-6.55
-6.47
-5.08
-3.05
-1.39
-0.60
-0.21
1.05
4.43
10.32
17.83
25.26
30.96
34.35
36.04
37.42
39.71
43.30
47.65
51.87
55.37
58.24
61.02
64.05
67.01
68.83
68.33
64.87
58.77
51.07
42.92
34.96
27.00
18.41
8.65
-2.09
-12.87
-22.22
-28.88
-32.30
-32.97
-32.20
-31.61
-32.64
-35.97
-41.45
-48.18
-54.87
-60.34
-63.81
-65.09
-64.42
-62.19
-58.80
-54.54
-49.73
-44.92
-40.84
-38.20
-37.30
-37.72
-38.35
-37.81
-35.04
-29.90
-23.24
-16.65
-11.76
-9.53
-9.89
-11.64
-12.97
-12.18
-8.40
-2.03
5.26
11.18
13.80
12.35
7.79
2.44
-0.76
0.62
7.73
19.82
34.06
46.04
50.68
43.89
24.45
-4.60
-36.04
-60.65
-70.87
-64.26
-44.84
-21.44
-3.53
3.13
-1.59
-13.31
-26.54
-37.83
-46.66
-54.02
-60.21
-63.82
-62.77
-56.38
-46.54
-36.80
-30.01
-26.08
-21.90
-13.47
1.35
21.18
41.68
58.05
67.47
70.11
68.37
65.07
62.13
60.10
58.70
57.54
56.54
55.73
55.04
54.13
52.44
49.42
44.69
38.09
29.84
20.45
10.62
1.10
-7.67
-15.58
-22.83
-29.64
-36.08
-41.88
-46.65
-49.88
-51.13
-49.96
-45.90
-38.50
-27.40
-12.40
6.19
27.14
47.86
64.23
71.42
65.79
47.08
19.57
-8.86
-29.83
-38.29
-34.72
-24.52
-14.65
-9.84
-10.39
-12.96
-13.41
-9.75
-3.27
2.68
5.13
3.28
-1.17
-5.49
-7.63
-7.33
-5.88
-5.09
-6.03
-8.54
-11.47
-13.53
-14.11
-13.66
-13.48
-15.09
-19.38
-26.11
-33.87
-40.46
-43.78
-42.72
-37.82
-31.31
-26.48
-26.71
-34.24
-49.37
-70.19
-93.02
-113.35
-127.00
-131.29
-126.06
-113.77
-98.94
-86.45
-79.71
-79.33
-83.30
-88.42
-92.14
-93.87
-94.80
-96.74
-100.44
-104.82
-107.28
-104.81
-95.31
-78.19
-53.92
-23.23
13.60
56.56
104.94
156.35
206.17
248.24
276.66
287.73
281.45
261.38
233.03
201.55
169.79
137.87
104.32
67.89
29.04
-9.91
-45.78
-76.13
-100.26
-119.26
-135.08
-149.34
-162.57
-174.15
-182.82
-187.40
-187.09
-181.61
-171.01
-155.58
-135.95
-113.11
-88.35
-62.92
-37.57
-12.14
14.55
44.36
78.93
118.68
161.96
204.81
241.74
267.28
277.69
272.17
252.97
224.47
191.83
159.89
132.62
113.06
103.14
103.13
111.01
122.48
131.96
134.72
128.89
116.32
101.66
90.27
85.76
88.75
97.20
107.83
117.52
123.96
125.39
120.13
106.84
85.49
58.41
30.37
7.09
-7.00
-10.74
-6.74
-0.06
4.24
3.29
-2.61
-10.58
-16.95
-18.96
-15.79
-8.54
0.54
9.13
15.53
18.97
19.48
17.60
14.07
9.57
4.53
-1.09
-8.08
-18.34
-34.81
-60.76
-98.22
-146.14
-199.28
-248.70
-284.09
-297.01
-283.46
-244.70
-186.18
-115.49
-40.58
30.93
91.94
136.01
158.25
156.71
133.20
92.54
40.71
-16.98
-76.26
-132.73
-180.25
-211.04
-217.97
-198.31
-156.30
-102.68
-50.84
-11.67
9.95
15.27
8.84
-5.10
-24.48
-48.65
-76.27
-103.77
-125.95
-138.14
-138.67
-129.68
-116.26
-104.18
-97.85
-99.29
-108.16
-122.36
-138.45
-152.40
-160.47
-160.46
-152.59
-139.43
-124.62
-110.98
-99.11
-87.42
-73.54
-56.06
-35.73
-15.25
2.19
14.50
21.51
24.72
26.17
27.50
29.62
33.06
38.37
46.25
56.97
69.85
83.38
96.05
107.39
118.47
131.21
146.92
164.97
182.63
195.95
201.52
197.73
184.87
164.34
137.69
106.57
73.44
42.19
17.72
4.21
3.00
11.70
25.13
37.75
46.09
49.65
50.02
49.21
48.28
47.19
45.91
45.33
47.26
53.29
63.25
74.65
83.59
86.71
82.91
73.88
63.11
53.92
47.97
44.73
42.31
38.91
33.90
28.01
22.57
18.50
15.68
13.11
9.69
4.94
-0.59
-5.74
-9.34
-10.91
-10.95
-10.61
-11.20
-13.50
-17.41
-22.02
-25.99
-28.21
-28.20
-26.37
-23.70
-21.31
-20.00
-19.95
-20.68
-21.34
-21.00
-19.02
-15.40
-10.98
-7.27
-6.06
-8.80
-16.08
-27.34
-41.05
-55.26
-68.29
-79.26
-88.45
-97.09
-106.58
-117.63
-129.50
-139.98
-146.35
-146.83
-141.90
-134.35
-128.33
-127.54
-133.80
-146.45
-162.88
-179.64
-193.50
-202.09
-203.91
-198.32
-185.24
-165.15
-138.87
-107.28
-70.94
-29.80
16.54
68.21
124.24
181.91
236.88
284.03
319.12
340.49
349.98
352.28
352.81
355.23
359.96
364.61
366.00
362.37
354.40
344.36
334.14
323.73
311.11
293.56
269.68
240.38
208.57
177.82
150.48
126.65
104.63
81.34
53.04
16.29
-31.13
-89.30
-154.75
-220.82
-279.04
-320.57
-338.83
-331.00
-298.68
-247.44
-186.34
-125.03
-72.20
-33.76
-10.53
1.30
8.18
16.20
28.28
42.30
54.04
59.04
54.52
41.68
24.23
6.63
-7.54
-16.16
-19.29
-16.14
-5.83
4.19
7.24
-1.55
-23.33
-55.01
-83.84
-106.41
-121.73
-128.82
-126.01
-112.88
-88.00
-51.05
-3.91
49.09
100.45
143.38
172.71
185.99
184.95
174.34
159.37
143.52
127.52
109.14
86.99
61.62
35.60
12.97
-2.75
-10.47
-11.78
-9.96
-8.96
-10.99
-16.62
-25.36
-36.05
-47.24
-57.55
-65.74
-70.95
-73.33
-73.79
-74.09
-76.43
-82.62
-93.41
-108.25
-125.44
-142.60
-157.28
-167.21
-170.63
-166.57
-154.90
-136.38
-112.82
-86.88
-61.77
-40.61
-25.72
-17.97
-16.52
-19.13
-22.92
-25.43
-25.41
-23.01
-19.26
-15.19
-11.06
-6.22
0.50
9.98
22.06
35.39
47.84
57.34
62.70
64.01
62.42
59.53
56.77
55.16
55.23
57.25
61.29
67.20
74.44
82.13
89.20
94.64
97.76
98.16
95.66
90.16
81.62
70.22
56.46
41.24
25.71
11.21
-1.01
-9.92
-15.07
-16.70
-15.68
-13.19
-10.29
-7.60
-5.40
-3.94
-3.84
-6.12
-11.85
-21.56
-34.88
-50.62
-67.21
-83.25
-97.86
-110.64
-121.54
-130.69
-138.60
-146.17
-154.46
-164.24
-175.40
-186.78
-196.59
-203.22
-205.91
-204.86
-200.74
-193.83
-183.62
-169.06
-149.43
-125.22
-98.53
-72.43
-49.79
-32.20
-19.42
-9.82
-1.29
7.85
18.20
29.41
40.54
50.73
59.58
67.39
75.02
83.46
93.32
104.28
114.87
122.71
125.27
120.95
109.88
94.17
77.28
62.85
53.45
49.83
50.96
54.41
57.07
55.71
47.62
31.64
9.25
-14.98
-34.10
-41.08
-31.78
-7.08
27.14
62.20
90.19
106.71
111.76
108.43
100.60
90.95
80.52
69.48
58.26
48.04
40.39
36.20
34.89
34.24
31.20
23.07
8.72
-10.88
-32.98
-54.10
-71.35
-83.39
-90.66
-94.81
-97.62
-100.06
-101.84
-101.72
-98.27
-90.79
-79.78
-66.87
-54.19
-43.50
-35.55
-29.90
-25.28
-20.28
-14.09
-6.82
0.69
7.31
12.25
15.45
17.50
19.26
21.43
24.23
27.47
30.84
34.21
37.71
41.43
45.08
47.77
48.25
45.50
39.28
30.37
20.31
10.78
2.94
-2.86
-6.86
-9.52
-11.08
-11.50
-10.62
-8.47
-5.47
-2.21
1.09
5.24
12.17
24.51
44.36
71.94
104.79
138.04
165.78
183.01
187.22
178.85
160.62
136.29
109.37
82.50
57.46
35.58
17.92
5.31
-1.98
-4.40
-3.09
0.53
5.29
10.83
17.71
27.00
39.54
55.26
72.87
90.22
105.17
116.41
123.75
127.94
129.98
130.62
130.23
128.94
127.06
125.16
123.75
122.96
122.21
120.39
116.21
108.76
97.78
83.69
67.41
49.98
32.32
14.99
-1.88
-18.41
-34.90
-51.60
-68.52
-85.39
-101.65
-116.49
-129.04
-138.57
-144.79
-147.99
-148.95
-148.61
-147.60
-145.97
-143.25
-138.90
-132.88
-125.94
-119.29
-114.05
-110.42
-107.50
-103.64
-97.23
-87.58
-75.24
-61.69
-48.61
-37.10
-27.39
-19.07
-11.68
-5.16
-0.11
2.62
2.47
-0.31
-4.57
-8.58
-10.73
-10.25
-7.38
-3.27
0.65
3.25
4.11
3.50
2.13
0.68
-0.40
-1.00
-1.23
-1.19
-0.86
-0.15
1.01
2.44
3.71
4.27
3.68
1.83
-0.96
-4.16
-7.29
-10.26
-13.40
-17.21
-21.97
-27.46
-32.86
-37.10
-39.27
-39.07
-36.89
-33.68
-30.63
-28.79
-28.83
-30.95
-34.91
-40.18
-46.06
-51.86
-56.97
-60.97
-63.75
-65.56
-66.99
-68.78
-71.51
-75.34
-79.97
-84.76
-89.10
-92.90
-96.68
-101.39
-107.88
-116.28
-125.67
-134.39
-140.71
-143.70
-143.60
-141.67
-139.47
-138.01
-137.37
-136.80
-135.40
-132.87
-129.72
-127.06
-126.02
-127.17
-130.45
-135.28
-140.79
-145.82
-148.84
-147.93
-141.18
-127.38
-106.63
-80.58
-52.02
-23.96
1.23
22.40
39.67
54.17
67.73
82.48
100.29
121.94
146.44
170.88
191.07
202.92
203.87
193.76
174.69
150.17
124.04
99.61
79.28
64.57
56.01
53.02
53.84
55.91
56.63
54.37
49.03
41.95
35.08
30.01
27.20
25.89
24.64
22.12
17.70
11.62
4.68
-2.20
-8.34
-13.40
-17.21
-19.61
-20.43
-19.69
-17.89
-16.08
-15.68
-17.90
-23.04
-30.17
-37.29
-42.13
-43.04
-39.82
-33.72
-26.86
-21.23
-17.93
-16.82
-16.86
-16.77
-15.57
-12.88
-8.74
-3.48
2.58
9.07
15.55
21.45
26.18
29.19
30.18
29.12
26.24
21.91
16.61
10.77
4.84
-0.87
-6.18
-11.15
-15.96
-20.76
-25.44
-29.51
-32.27
-33.06
-31.76
-28.99
-26.11
-24.69
-25.99
-30.39
-37.25
-45.13
-52.29
-57.13
-58.52
-55.84
-48.90
-38.00
-23.91
-7.99
7.96
22.09
32.95
39.87
43.13
43.71
42.86
41.65
40.68
40.00
39.28
38.08
35.97
32.71
28.16
22.19
14.59
5.24
-5.60
-16.95
-27.07
-33.85
-35.48
-31.13
-21.12
-6.62
11.04
30.74
51.58
72.51
92.10
108.73
121.30
129.89
135.89
141.36
147.94
156.09
165.01
173.31
179.85
184.02
185.43
183.23
175.57
159.74
132.98
93.51
41.62
-19.96
-86.21
-150.52
-205.88
-246.19
-267.62
-269.30
-253.49
-224.84
-188.95
-151.00
-114.74
-82.23
-54.29
-31.28
-13.70
-2.44
1.42
-2.88
-15.12
-33.62
-55.17
-75.40
-89.74
-94.52
-88.01
-70.85
-45.75
-16.50
13.12
40.24
63.24
81.53
95.12
104.45
110.16
112.99
113.47
111.64
106.94
98.57
86.09
69.98
51.82
33.79
18.00
5.67
-3.07
-8.98
-13.19
-16.63
-19.80
-22.70
-25.04
-26.45
-26.57
-25.16
-22.07
-17.26
-10.88
-3.41
4.19
10.48
13.80
12.90
7.52
-1.31
-11.47
-20.46
-26.17
-27.53
-24.62
-18.50
-10.76
-3.03
3.48
8.36
12.13
16.02
21.35
28.76
37.71
46.47
52.87
55.17
52.79
46.34
37.17
26.68
15.88
5.35
-4.49
-13.20
-20.33
-25.64
-29.32
-32.08
-34.90
-38.85
-44.81
-53.10
-63.12
-73.08
-80.16
-81.19
-73.81
-57.48
-33.76
-5.85
22.66
48.97
71.64
90.37
105.42
117.02
125.29
130.59
133.82
136.47
140.14
145.86
153.61
162.39
170.66
177.11
181.17
183.12
183.80
183.81
183.05
180.44
174.31
163.09
145.99
123.43
96.85
68.17
39.06
10.57
-16.86
-42.99
-67.33
-88.87
-106.30
-118.46
-124.85
-125.90
-122.83
-117.29
-110.82
-104.50
-98.82
-93.87
-89.53
-85.72
-82.48
-79.92
-78.13
-77.06
-76.46
-75.86
-74.61
-71.94
-67.04
-59.16
-47.81
-32.97
-15.33
3.68
22.01
37.36
47.73
51.83
49.27
40.46
26.26
7.60
-14.68
-39.66
-66.13
-92.28
-115.77
-134.10
-145.23
-148.21
-143.44
-132.65
-118.39
-103.39
-89.89
-79.29
-72.00
-67.65
-65.33
-63.94
-62.38
-59.78
-55.48
-49.15
-40.76
-30.53
-18.95
-6.63
5.79
17.69
28.57
38.03
45.86
52.15
57.31
62.07
67.23
73.38
80.49
87.83
94.06
97.59
97.20
92.53
84.31
74.31
64.94
58.70
57.58
62.74
74.26
91.30
112.27
135.10
157.46
176.99
191.50
199.29
199.47
192.16
178.42
159.86
138.14
114.61
90.15
65.45
41.21
18.28
-2.46
-20.44
-35.67
-48.71
-60.39
-71.31
-81.58
-90.76
-98.19
-103.35
-106.14
-106.94
-106.41
-105.35
-104.43
-104.24
-105.21
-107.55
-111.11
-115.19
-118.61
-120.02
-118.32
-113.21
-105.26
-95.70
-85.88
-76.69
-68.40
-60.77
-53.38
-46.01
-38.73
-31.74
-25.20
-19.11
-13.34
-7.74
-2.34
2.70
7.17
10.96
14.09
16.64
18.58
19.60
19.07
16.13
10.02
0.36
-12.57
-27.83
-44.01
-59.59
-73.26
-84.16
-91.87
-96.36
-97.97
-97.43
-95.81
-94.36
-94.26
-96.20
-100.07
-104.91
-109.08
-110.78
-108.76
-102.69
-93.29
-81.92
-69.96
-58.27
-46.97
-35.65
-23.71
-10.74
3.23
17.79
32.12
45.16
55.70
62.78
66.18
66.88
67.22
70.47
79.69
96.61
120.69
149.02
177.05
199.96
214.10
218.09
213.19
202.64
190.55
180.50
174.55
172.96
174.51
177.10
178.40
176.22
168.74
154.91
134.79
109.73
82.26
55.42
31.96
13.57
0.62
-7.68
-12.69
-15.82
-18.11
-20.09
-21.83
-23.10
-23.65
-23.41
-22.72
-22.24
-22.62
-24.09
-26.16
-27.71
-27.48
-24.77
-19.77
-13.41
-6.64
0.36
8.57
19.73
35.28
55.18
77.38
98.28
114.05
122.06
121.69
114.26
102.21
88.29
75.17
65.36
61.43
65.75
80.02
104.36
136.69
172.49
205.52
229.08
237.51
227.40
198.26
152.51
94.95
31.81
-30.35
-85.70
-130.04
-161.48
-180.60
-190.03
-193.62
-195.17
-197.40
-201.28
-206.17
-210.49
-212.76
-212.30
-209.53
-205.55
-201.30
-196.94
-191.60
-183.88
-172.73
-158.00
-140.49
-121.28
-100.93
-79.15
-55.14
-28.42
0.34
29.24
55.73
77.63
93.96
105.14
112.73
118.81
125.38
133.82
144.34
155.65
165.02
168.86
163.75
147.51
119.82
82.19
37.53
-10.48
-57.79
-100.43
-134.74
-157.93
-168.67
-167.41
-156.21
-138.12
-116.35
-93.73
-72.44
-54.10
-39.76
-29.79
-23.69
-20.17
-17.60
-14.65
-10.75
-6.24
-2.08
0.67
1.26
-0.49
-4.26
-9.37
-15.09
-20.86
-26.34
-31.34
-35.65
-38.74
-39.73
-37.66
-31.89
-22.50
-10.61
1.89
12.76
20.00
22.35
19.56
12.54
3.18
-6.07
-12.81
-15.49
-13.87
-9.08
-3.18
1.71
4.15
3.79
1.26
-2.25
-5.51
-7.58
-7.93
-6.44
-3.37
0.59
4.45
7.20
8.17
7.47
5.98
4.98
5.50
7.63
10.32
11.77
10.35
5.47
-1.92
-9.64
-15.25
-17.00
-14.55
-8.90
-1.95
4.24
7.97
8.25
4.91
-1.29
-8.81
-15.63
-19.74
-19.67
-14.80
-5.44
7.36
22.05
37.04
50.89
62.64
71.94
79.14
85.20
91.37
98.69
107.54
117.15
125.55
129.88
127.34
116.47
98.00
75.03
51.90
32.58
19.10
11.04
6.19
1.88
-3.80
-11.55
-21.07
-31.72
-42.95
-54.62
-66.89
-80.03
-94.16
-108.94
-123.32
-135.59
-144.09
-148.22
-149.16
-149.72
-153.08
-161.01
-172.82
-185.48
-195.09
-198.76
-195.85
-187.77
-176.78
-164.43
-150.77
-134.70
-115.09
-92.02
-67.26
-43.76
-24.46
-11.00
-2.95
1.98
6.98
14.86
27.03
43.43
62.94
84.15
105.95
127.51
147.97
166.14
180.53
189.82
193.46
192.04
187.12
180.66
174.33
169.05
165.07
162.05
159.38
156.28
151.96
145.73
137.20
126.41
113.84
100.22
86.28
72.52
59.16
46.21
33.71
21.92
11.32
2.48
-4.23
-8.99
-12.60
-16.30
-21.38
-28.72
-38.47
-50.03
-62.33
-74.27
-84.98
-94.01
-101.19
-106.46
-109.61
-110.26
-107.94
-102.35
-93.56
-82.30
-69.84
-57.81
-47.74
-40.68
-36.85
-35.69
-36.12
-37.00
-37.47
-37.15
-36.00
-34.08
-31.37
-27.64
-22.68
-16.43
-9.21
-1.72
5.19
10.82
14.87
17.51
19.34
21.08
23.48
27.17
32.70
40.53
50.90
63.54
77.44
90.75
101.16
106.45
105.15
96.94
82.70
64.13
43.26
22.03
2.04
-15.50
-29.84
-40.75
-48.64
-54.61
-60.20
-66.91
-75.67
-86.42
-98.05
-108.77
-116.76
-120.76
-120.59
-117.11
-111.88
-106.60
-102.63
-100.55
-99.90
-99.09
-95.67
-86.85
-70.56
-46.55
-17.11
12.98
37.73
51.94
53.26
43.17
26.69
10.69
1.71
4.14
19.31
45.62
79.28
115.31
148.50
174.27
189.47
192.85
185.22
169.14
148.06
125.49
104.21
85.93
71.19
59.43
49.33
39.18
27.38
13.03
-3.66
-21.34
-37.97
-51.51
-60.67
-65.32
-66.43
-65.65
-64.63
-64.54
-65.64
-67.19
-67.67
-65.26
-58.51
-47.09
-32.05
-15.70
-0.84
10.14
16.16
17.67
16.17
13.41
10.60
8.05
5.52
2.77
0.05
-1.97
-2.64
-1.99
-0.93
-1.00
-3.57
-9.12
-17.00
-25.75
-33.91
-40.76
-46.53
-52.11
-58.27
-65.06
-71.45
-75.54
-74.93
-67.43
-51.66
-27.68
2.61
35.52
66.21
89.94
103.48
106.06
99.58
87.79
74.99
64.69
58.77
57.28
58.71
60.73
60.85
57.14
48.72
35.82
19.56
1.42
-17.26
-35.60
-53.13
-69.60
-84.78
-98.47
-110.51
-120.77
-128.85
-133.84
-134.16
-127.80
-113.10
-89.61
-58.79
-24.07
9.91
38.42
57.92
66.93
66.22
58.37
46.94
35.48
26.80
22.51
22.90
27.11
33.56
40.41
46.07
49.45
50.14
48.24
44.19
38.61
32.14
25.44
19.15
13.81
9.82
7.27
5.90
5.14
4.24
2.48
-0.65
-5.27
-11.16
-17.83
-24.73
-31.39
-37.41
-42.49
-46.29
-48.51
-48.97
-47.78
-45.30
-42.04
-38.39
-34.49
-30.19
-25.16
-19.18
-12.32
-4.90
2.59
9.67
15.97
21.16
24.90
26.81
26.58
24.14
19.82
14.32
8.58
3.52
-0.15
-2.11
-2.39
-1.35
0.43
2.33
3.77
4.36
3.98
2.77
0.95
-1.23
-3.67
-6.40
-9.50
-13.01
-16.79
-20.51
-23.68
-25.77
-26.26
-24.82
-21.37
-16.06
-9.34
-1.82
5.76
12.65
18.20
21.99
23.93
24.29
23.59
22.38
21.07
19.74
18.25
16.38
14.04
11.40
8.86
6.79
5.39
4.56
3.99
3.37
2.52
1.50
0.51
-0.29
-0.84
-1.30
-1.91
-2.93
-4.47
-6.50
-8.77
-10.87
-12.28
-12.53
-11.27
-8.46
-4.40
0.32
5.01
9.10
12.25
14.34
15.40
15.48
14.65
13.01
10.81
8.41
6.18
4.41
3.16
2.33
1.76
1.32
0.99
0.80
0.73
0.72
0.66
0.52
0.36
0.30
0.43
0.73
1.00
0.95
0.26
-1.25
-3.57
-6.42
-9.30
-11.56
-12.57
-11.85
-9.30
-5.16
-0.08
5.14
9.68
12.96
14.73
15.10
14.44
13.21
11.85
10.64
9.66
8.74
7.54
5.59
2.41
-2.31
-8.58
-15.93
-23.46
-30.02
-34.54
-36.30
-34.99
-30.56
-23.12
-12.80
-0.00
14.45
29.11
42.10
51.57
56.27
55.95
51.35
43.87
35.13
26.53
19.07
13.38
9.77
8.14
8.04
8.67
9.03
8.24
5.81
1.85
-2.92
-7.43
-10.57
-11.54
-10.10
-6.61
-1.93
2.79
6.49
8.48
8.59
7.13
4.68
1.77
-1.27
-4.42
-7.72
-11.13
-14.34
-16.91
-18.44
-18.81
-18.14
-16.69
-14.59
-11.79
-8.06
-3.27
2.33
8.10
13.07
16.26
16.98
15.13
11.20
6.22
1.44
-2.02
-3.58
-3.38
-2.29
-1.49
-2.01
-4.32
-8.16
-12.76
-17.19
-20.69
-22.75
-23.14
-21.82
-18.92
-14.88
-10.38
-6.31
-3.42
-2.06
-2.02
-2.57
-2.78
-1.82
0.63
4.36
8.64
12.49
15.05
15.86
15.06
13.33
11.61
10.75
11.18
12.84
15.28
17.88
20.06
21.44
21.82
21.17
19.68
17.64
15.42
13.26
11.23
9.12
6.59
3.39
-0.39
-4.22
-7.26
-8.57
-7.46
-3.70
2.33
9.74
17.27
23.56
27.47
28.34
26.14
21.42
15.08
8.11
1.28
-4.89
-10.14
-14.31
-17.27
-18.98
-19.63
-19.67
-19.78
-20.63
-22.58
-25.45
-28.57
-30.98
-31.79
-30.45
-26.96
-21.79
-15.71
-9.60
-4.25
-0.23
2.10
2.70
1.77
-0.24
-2.67
-4.82
-6.10
-6.10
-4.72
-2.07
1.58
5.95
10.81
15.99
21.38
26.90
32.45
37.98
43.42
48.71
53.51
57.10
58.28
55.60
47.93
35.05
18.13
-0.36
-17.27
-29.70
-35.95
-35.95
-31.10
-23.64
-15.89
-9.68
-6.07
-5.45
-7.56
-11.51
-15.94
-19.28
-20.22
-18.28
-14.03
-8.96
-4.91
-3.27
-4.53
-8.12
-12.81
-17.27
-20.54
-22.32
-22.77
-22.22
-20.92
-18.78
-15.55
-11.05
-5.49
0.34
5.26
8.13
8.46
6.80
4.68
4.02
6.30
11.84
19.61
27.56
33.57
36.37
36.15
34.49
33.65
35.48
40.54
47.79
54.95
59.53
59.82
55.54
47.68
37.86
27.46
17.06
6.49
-4.75
-16.84
-29.45
-41.79
-53.04
-62.73
-70.82
-77.54
-82.96
-86.81
-88.44
-87.14
-82.50
-74.68
-64.32
-52.23
-39.07
-24.97
-9.57
7.65
26.74
46.77
65.61
80.28
87.79
86.24
75.58
57.96
37.22
17.81
3.41
-4.09
-5.12
-1.99
2.04
4.06
2.32
-3.46
-12.41
-23.27
-34.92
-46.70
-58.15
-68.66
-77.22
-82.47
-82.98
-77.65
-65.94
-47.88
-24.06
4.27
35.11
65.57
92.34
112.45
124.46
129.12
129.10
127.70
127.19
127.70
127.38
123.78
115.51
103.07
88.40
73.41
58.72
43.31
25.49
4.36
-19.19
-42.58
-62.69
-77.31
-85.98
-89.89
-91.08
-91.51
-92.34
-93.84
-95.59
-96.83
-96.79
-94.86
-90.75
-84.47
-76.26
-66.54
-55.80
-44.58
-33.41
-22.70
-12.58
-2.73
7.56
18.90
31.21
43.17
52.14
54.81
48.37
31.71
6.10
-25.01
-57.04
-85.52
-107.22
-120.49
-125.01
-121.32
-110.30
-93.07
-71.06
-46.24
-20.95
2.40
21.81
36.19
45.43
50.29
52.07
52.12
51.56
51.04
50.68
50.06
48.46
45.08
39.33
31.05
20.51
8.36
-4.65
-17.82
-30.63
-42.71
-53.82
-63.81
-72.70
-80.67
-88.05
-95.09
-101.60
-106.69
-108.63
-105.19
-94.27
-74.63
-46.51
-11.67
26.98
66.14
102.85
135.05
161.59
182.13
196.77
205.86
209.99
209.96
206.78
201.49
194.81
186.94
177.47
165.57
150.26
130.84
107.08
79.37
48.75
16.76
-14.65
-43.40
-67.67
-86.21
-98.62
-105.38
-107.71
-107.36
-106.36
-106.56
-109.24
-114.58
-121.50
-128.00
-131.85
-131.59
-127.08
-119.51
-110.83
-102.85
-96.65
-92.37
-89.51
-87.31
-84.93
-81.52
-76.21
-68.32
-57.81
-45.55
-33.35
-23.62
-18.68
-19.87
-26.85
-37.39
-47.65
-53.11
-50.11
-37.29
-16.40
8.10
30.68
46.90
55.19
57.27
57.20
59.51
67.34
81.49
100.45
121.17
139.99
153.23
157.70
151.14
132.78
104.09
69.04
33.70
4.90
-11.64
-13.06
-0.20
22.77
49.99
75.90
96.67
110.71
118.15
119.95
117.20
110.85
101.89
91.37
80.34
69.54
59.21
49.08
38.67
27.57
15.64
3.05
-9.63
-21.20
-29.98
-34.22
-32.89
-26.34
-16.31
-5.04
5.91
16.42
27.71
41.09
56.59
72.30
84.70
90.17
86.49
73.80
54.38
31.91
10.48
-6.08
-14.72
-13.68
-2.99
15.24
37.08
57.62
72.31
78.14
74.35
62.29
44.65
24.55
4.79
-12.51
-26.03
-35.13
-39.87
-40.99
-39.89
-38.35
-38.12
-40.52
-45.94
-53.69
-62.26
-69.86
-75.11
-77.61
-77.94
-77.29
-76.75
-76.79
-76.94
-75.99
-72.31
-64.32
-50.89
-31.72
-7.76
18.55
43.40
62.18
70.81
67.16
52.15
29.81
6.00
-13.62
-25.60
-29.61
-27.98
-24.00
-20.21
-17.42
-14.88
-11.27
-5.69
2.03
11.53
22.36
33.96
45.28
54.43
59.08
57.45
49.41
37.03
23.93
13.77
8.71
8.69
11.70
14.95
16.00
13.50
7.32
-1.66
-11.90
-21.56
-28.87
-32.63
-32.52
-29.17
-23.96
-18.64
-14.93
-14.25
-17.46
-24.62
-34.82
-46.22
-56.33
-62.72
-63.56
-58.09
-46.51
-29.65
-8.77
14.45
37.61
57.50
70.55
73.87
66.61
50.84
31.16
13.11
0.86
-4.55
-5.39
-5.84
-9.50
-17.53
-28.12
-37.70
-42.92
-42.34
-36.98
-29.52
-23.12
-20.27
-22.39
-29.87
-42.33
-58.78
-77.75
-97.50
-116.36
-133.15
-147.48
-159.45
-169.03
-175.37
-176.47
-169.59
-152.55
-125.07
-89.68
-51.35
-16.10
10.98
27.21
32.84
30.45
23.82
16.88
13.20
15.82
26.82
46.81
74.16
104.92
133.41
153.67
161.08
153.79
133.29
104.23
73.26
47.42
32.27
30.30
40.18
57.42
75.93
90.20
96.98
95.75
88.08
76.21
61.83
45.60
27.49
7.41
-14.12
-35.97
-56.74
-75.37
-91.48
-105.44
-118.09
-130.19
-142.03
-153.11
-162.30
-168.29
-170.18
-167.90
-162.26
-154.58
-146.19
-138.08
-130.77
-124.38
-118.72
-113.12
-106.46
-97.20
-83.91
-66.01
-44.36
-21.24
0.41
18.45
32.68
45.22
59.59
78.88
104.04
133.04
161.56
184.76
199.24
204.30
201.73
194.61
185.65
176.16
165.98
154.38
141.11
127.04
113.94
103.70
97.38
94.65
93.90
92.94
89.84
83.50
73.74
60.96
45.71
28.50
9.95
-8.93
-26.53
-40.89
-50.15
-53.13
-49.77
-41.17
-29.43
-17.29
-7.73
-3.49
-6.59
-17.77
-36.05
-58.66
-81.44
-99.78
-109.83
-109.70
-100.08
-84.16
-66.65
-52.34
-44.71
-45.11
-52.75
-65.40
-80.38
-95.38
-108.73
-119.24
-125.91
-127.87
-124.60
-116.38
-104.47
-91.02
-78.38
-68.42
-61.88
-58.37
-56.60
-55.05
-52.56
-48.75
-43.99
-39.21
-35.43
-33.23
-32.55
-32.59
-32.21
-30.25
-25.90
-18.90
-9.46
1.66
13.00
22.27
26.56
23.17
11.01
-8.34
-30.57
-50.01
-61.83
-64.12
-58.59
-49.31
-40.46
-34.12
-29.48
-23.53
-12.89
4.50
28.34
56.12
84.06
108.27
125.88
135.63
137.98
134.57
127.34
117.78
106.63
94.24
81.14
68.46
57.72
50.14
45.83
43.53
41.23
37.18
30.86
23.20
16.12
11.46
10.07
11.42
13.84
15.30
14.23
10.14
3.77
-3.25
-8.91
-11.46
-9.88
-4.08
5.09
16.11
27.03
36.00
41.53
42.82
39.85
33.32
24.44
14.72
5.64
-1.55
-6.07
-7.79
-7.27
-5.58
-4.01
-3.55
-4.55
-6.59
-8.67
-9.76
-9.32
-7.59
-5.60
-4.72
-6.07
-10.10
-16.42
-23.97
-31.56
-38.40
-44.43
-50.32
-57.12
-65.78
-76.75
-89.51
-102.43
-112.53
-115.76
-107.78
-85.47
-48.73
-2.05
45.52
82.47
98.92
90.82
62.23
24.08
-10.14
-29.75
-30.71
-16.05
6.88
30.39
49.55
62.86
70.97
74.90
75.37
73.57
72.32
76.20
89.75
114.51
146.81
177.79
196.48
194.13
168.20
123.54
70.33
19.81
-19.92
-46.13
-60.86
-68.36
-72.43
-74.88
-75.91
-75.36
-73.99
-73.61
-76.15
-82.46
-91.55
-101.01
-108.16
-111.40
-111.02
-108.88
-107.45
-108.48
-112.36
-118.02
-123.71
-127.89
-129.91
-130.16
-129.52
-128.84
-128.45
-128.14
-127.47
-126.28
-124.84
-123.77
-123.62
-124.64
-126.63
-129.13
-131.46
-132.69
-131.74
-127.57
-119.59
-108.03
-94.30
-80.46
-68.39
-58.91
-50.98
-41.71
-27.19
-4.14
28.57
69.40
114.57
159.12
198.26
228.29
247.19
254.64
251.84
241.14
225.66
208.82
193.95
183.86
180.76
186.12
200.50
223.05
251.03
279.67
302.95
315.20
312.94
296.22
268.13
233.45
197.11
162.80
132.61
107.51
88.03
74.74
68.07
67.67
71.86
77.61
81.10
78.81
68.44
49.26
21.88
-12.01
-49.54
-86.35
-116.62
-134.34
-135.64
-120.97
-95.65
-68.07
-46.17
-34.22
-31.73
-34.99
-39.89
-44.19
-48.10
-53.16
-60.85
-71.72
-85.66
-102.32
-121.13
-140.79
-158.63
-171.09
-174.92
-168.79
-154.11
-134.63
-114.92
-98.75
-87.98
-82.41
-80.31
-79.41
-77.60
-73.56
-66.97
-58.47
-49.30
-40.89
-34.54
-30.91
-29.94
-30.99
-33.22
-35.93
-38.81
-41.80
-44.93
-47.96
-50.40
-51.76
-51.89
-51.32
-51.24
-53.31
-59.19
-70.22
-86.85
-108.06
-131.09
-151.40
-163.15
-160.29
-138.51
-97.30
-41.56
18.32
68.82
97.24
96.24
66.45
16.15
-41.90
-94.73
-132.56
-150.59
-148.88
-131.55
-105.73
-80.48
-65.02
-66.10
-85.41
-118.51
-156.16
-187.92
-206.25
-208.51
-196.98
-176.46
-151.14
-122.88
-91.26
-54.93
-13.52
30.58
72.14
104.42
121.79
122.40
109.12
88.78
69.79
59.34
61.56
77.18
104.41
139.97
179.80
219.32
253.70
278.62
291.22
290.75
278.50
256.75
227.84
193.78
156.33
117.63
80.17
45.98
15.99
-10.32
-34.37
-57.30
-78.87
-97.25
-109.67
-113.73
-108.54
-95.27
-76.72
-56.54
-38.06
-23.54
-13.76
-8.18
-5.28
-3.24
-0.41
4.36
11.62
21.48
33.73
47.79
62.53
76.22
86.96
93.37
95.34
94.02
91.20
87.95
83.64
75.64
60.07
33.34
-6.34
-57.62
-115.74
-172.91
-219.71
-246.98
-247.90
-219.26
-162.07
-81.21
15.02
115.50
207.58
279.73
325.18
344.81
347.11
344.47
346.90
356.64
366.91
365.74
342.50
293.42
223.01
141.25
58.80
-16.71
-81.66
-135.19
-177.35
-208.38
-229.04
-241.04
-247.21
-250.52
-253.15
-256.11
-259.31
-262.03
-263.85
-264.87
-265.61
-266.67
-268.35
-270.49
-272.44
-273.16
-271.11
-263.96
-248.44
-220.69
-177.22
-116.39
-39.59
48.24
139.39
225.12
297.65
351.90
386.32
402.39
403.55
393.62
375.64
351.60
322.87
291.12
259.13
230.38
207.86
192.88
184.35
179.35
174.44
167.16
156.90
144.81
133.05
123.51
116.89
112.32
107.59
100.06
87.76
70.28
49.04
26.65
5.81
-11.92
-26.71
-40.28
-54.88
-72.14
-92.36
-114.39
-136.36
-156.47
-173.60
-187.50
-198.52
-207.30
-214.65
-221.57
-229.16
-238.27
-248.83
-259.35
-267.06
-268.96
-263.55
-252.16
-239.13
-230.49
-231.52
-244.58
-267.90
-295.95
-321.30
-336.74
-337.02
-319.78
-285.26
-235.46
-173.04
-100.73
-21.57
60.56
140.42
211.66
268.12
305.61
323.23
323.50
311.07
290.87
266.78
241.66
218.29
200.26
191.50
194.69
209.17
230.06
249.47
259.31
254.39
234.17
202.22
164.26
125.62
89.64
57.42
28.72
3.07
-19.68
-39.47
-56.41
-71.05
-84.15
-96.19
-106.99
-115.80
-121.74
-124.64
-125.46
-126.08
-128.40
-133.14
-139.02
-143.12
-142.49
-135.96
-125.17
-114.00
-106.42
-104.15
-105.89
-108.23
-107.86
-103.51
-96.22
-87.99
-79.84
-70.83
-58.86
-42.42
-22.10
-0.55
19.06
34.92
47.37
58.23
69.18
80.38
90.47
97.79
101.78
103.73
106.29
111.93
121.53
133.58
144.47
149.91
146.77
134.31
114.53
91.41
69.23
51.17
38.53
30.89
27.01
25.67
26.16
28.04
30.71
33.15
34.07
32.52
28.18
21.41
12.71
2.12
-11.00
-27.49
-47.56
-70.11
-92.65
-112.04
-125.60
-132.16
-132.35
-128.12
-121.74
-114.86
-108.06
-101.06
-93.37
-84.83
-75.85
-67.19
-59.54
-53.19
-47.86
-42.93
-37.62
-31.34
-23.72
-14.77
-4.79
5.78
16.57
27.26
37.59
47.18
55.40
61.47
64.76
65.12
62.97
59.21
54.67
49.76
44.37
38.13
31.05
23.86
17.84
14.18
13.31
14.56
16.66
18.48
19.70
20.75
22.20
24.14
26.00
27.04
27.16
27.30
29.06
33.72
41.25
49.83
56.37
57.69
51.78
38.49
19.59
-1.92
-22.73
-40.12
-52.51
-59.75
-62.83
-63.41
-63.22
-63.50
-64.90
-67.57
-71.33
-75.85
-80.63
-85.03
-88.29
-89.59
-88.26
-83.79
-75.95
-64.88
-51.24
-36.34
-22.00
-10.13
-2.21
1.21
0.64
-2.56
-6.62
-9.83
-10.87
-8.95
-3.73
4.77
16.26
30.22
45.86
62.15
77.86
91.79
103.08
111.42
117.17
121.09
123.88
125.86
126.83
126.47
124.67
121.80
118.43
114.88
110.76
104.91
95.83
82.39
64.44
42.99
19.95
-2.32
-21.62
-36.31
-45.52
-49.18
-47.92
-42.79
-34.98
-25.58
-15.41
-5.05
4.98
14.10
21.58
26.61
28.68
27.79
24.64
20.54
16.94
14.92
14.79
15.98
17.38
17.84
16.75
14.31
11.44
9.30
8.76
10.05
12.78
16.23
19.71
22.73
24.86
25.56
24.04
19.54
11.78
1.44
-9.68
-19.08
-24.39
-24.42
-19.73
-12.47
-5.64
-1.94
-2.90
-8.45
-17.26
-27.27
-36.43
-43.02
-45.92
-44.66
-39.60
-31.99
-23.71
-16.71
-12.21
-10.12
-9.10
-7.17
-2.63
5.28
16.18
28.78
41.12
50.91
55.67
53.24
42.42
23.80
0.07
-24.41
-44.85
-57.55
-60.90
-55.47
-43.27
-26.86
-8.81
8.13
20.73
25.46
19.50
2.13
-24.05
-53.21
-77.72
-90.54
-87.57
-68.85
-38.20
-1.63
34.68
65.98
89.68
105.16
113.00
114.08
108.97
97.83
80.83
58.77
33.38
7.15
-17.28
-37.62
-51.99
-58.61
-55.56
-41.23
-15.49
19.03
56.72
90.42
114.04
124.91
124.46
116.73
105.51
92.09
74.93
51.29
19.78
-17.95
-57.44
-93.34
-121.63
-141.06
-152.96
-159.80
-163.71
-165.47
-164.65
-160.46
-152.76
-142.70
-132.54
-124.83
-121.33
-122.21
-126.18
-131.17
-135.29
-137.22
-136.00
-130.45
-118.96
-99.95
-72.86
-39.07
-1.92
34.13
64.86
87.46
100.68
104.29
98.43
83.49
60.80
33.58
7.31
-11.01
-14.68
0.29
33.75
81.21
135.24
188.03
233.58
268.86
293.64
309.41
317.88
320.12
316.51
306.71
290.63
268.25
239.29
203.01
158.57
105.41
44.20
-22.45
-90.52
-154.34
-208.02
-247.07
-269.11
-273.61
-261.86
-236.17
-199.50
-156.16
-110.26
-65.70
-25.99
6.46
31.16
49.07
62.12
72.60
81.33
89.52
98.37
108.78
116.52
117.65
109.08
90.05
69.74
52.30
39.45
31.66
26.20
21.84
18.53
16.36
15.16
14.29
11.52
5.55
-3.60
-14.71
-25.33
-32.60
-34.81
-32.13
-26.82
-23.54
-26.36
-37.40
-56.22
-79.55
-102.35
-119.30
-126.08
-120.41
-103.27
-77.99
-49.82
-24.77
-7.71
-0.90
-3.40
-11.68
-21.31
-29.07
-33.60
-35.34
-35.76
-36.22
-37.49
-39.94
-43.71
-48.69
-54.04
-57.51
-55.62
-44.99
-24.06
5.35
37.65
65.00
79.80
77.35
57.52
24.85
-13.07
-47.88
-72.79
-84.09
-81.69
-68.68
-50.34
-32.81
-21.64
-20.47
-29.84
-46.66
-64.70
-75.91
-72.36
-48.23
-1.59
64.56
142.19
219.55
283.70
323.57
332.53
309.74
259.53
189.94
110.82
32.46
-34.93
-81.50
-98.65
-80.83
-28.19
51.70
144.50
232.25
298.36
332.40
332.23
303.12
254.39
195.02
131.62
68.18
7.38
-48.05
-95.05
-131.18
-156.44
-173.74
-188.42
-205.34
-227.02
-253.27
-282.57
-313.32
-344.58
-375.54
-404.74
-430.93
-452.59
-469.05
-480.99
-489.82
-495.88
-497.27
-490.27
-470.99
-438.90
-395.59
-343.35
-283.12
-213.58
-132.44
-39.44
60.63
163.58
255.95
322.68
355.22
356.50
338.78
316.42
298.70
285.88
273.27
254.04
223.85
181.75
129.05
67.80
0.25
-67.71
-129.03
-175.53
-200.75
-200.51
-174.57
-127.02
-65.72
-0.45
59.46
106.47
136.21
146.87
139.75
119.19
92.13
67.16
53.01
56.80
82.10
127.99
188.41
253.72
312.82
355.71
376.05
373.03
351.92
322.56
296.07
280.40
277.30
282.09
286.44
283.32
271.21
255.21
244.11
245.48
260.91
284.59
305.47
311.94
296.45
257.97
201.21
133.78
63.04
-5.91
-70.51
-129.84
-183.42
-230.78
-272.11
-309.14
-345.14
-383.64
-426.27
-470.61
-509.48
-532.78
-531.33
-501.38
-447.33
-381.34
-319.75
-277.57
-263.42
-276.72
-308.34
-343.94
-368.74
-371.80
-348.41
-300.38
-234.49
-159.99
-85.93
-19.27
36.08
79.51
113.05
140.68
167.54
199.40
241.14
294.90
358.33
424.11
481.60
520.13
532.98
519.62
485.60
439.68
389.95
340.96
293.00
243.30
188.47
126.86
60.29
-5.87
-64.08
-107.40
-132.56
-141.86
-142.71
-144.39
-153.46
-170.56
-190.08
-203.25
-202.48
-184.44
-150.51
-104.82
-51.93
4.38
60.67
112.89
156.41
187.26
203.95
207.98
203.17
193.62
181.81
167.83
150.05
126.34
95.40
57.42
14.41
-29.96
-70.81
-103.28
-124.26
-134.04
-136.68
-138.59
-145.66
-160.26
-179.66
-197.04
-204.45
-196.27
-171.46
-133.62
-89.19
-44.99
-6.34
23.42
42.56
50.40
47.24
34.92
17.38
0.33
-10.00
-9.00
4.61
28.25
56.77
84.83
109.30
130.31
150.40
172.46
197.60
224.06
247.80
264.24
270.21
265.11
250.87
230.83
208.26
185.28
162.52
139.71
116.52
93.29
71.09
51.23
34.46
20.37
7.42
-6.51
-23.06
-42.63
-64.09
-85.27
-103.85
-118.38
-128.93
-136.95
-144.86
-155.28
-170.31
-190.99
-216.62
-244.47
-269.53
-285.42
-286.10
-268.07
-232.04
-183.32
-130.31
-81.86
-44.56
-21.00
-9.88
-7.58
-10.24
-15.62
-24.01
-37.87
-60.67
-95.19
-142.03
-198.98
-261.06
-321.78
-374.38
-413.47
-436.31
-443.83
-440.82
-434.80
-433.65
-442.47
-460.84
-482.12
-494.90
-486.85
-449.00
-378.79
-280.82
-165.72
-47.81
57.09
134.32
173.32
170.73
131.84
70.17
3.60
-51.66
-86.92
-104.06
-112.48
-122.98
-140.79
-163.99
-184.98
-195.75
-192.20
-176.40
-155.99
-138.63
-128.31
-122.66
-117.64
-109.77
-98.30
-83.60
-65.51
-43.85
-16.04
20.91
69.89
126.97
182.42
223.32
240.51
232.66
204.82
169.13
139.69
129.87
142.67
171.33
201.53
218.57
227.91
233.34
239.06
226.88
195.39
147.00
93.83
41.72
-6.20
-48.76
-88.68
-128.59
-170.08
-209.51
-243.40
-267.86
-280.77
-281.34
-271.85
-259.97
-254.66
-262.82
-283.59
-311.65
-337.90
-353.56
-352.12
-331.70
-296.33
-252.35
-205.63
-158.29
-111.25
-64.66
-19.34
23.90
64.55
102.28
137.85
172.77
209.32
248.28
288.98
329.48
368.02
404.07
438.79
475.43
518.23
570.57
632.10
697.45
756.90
799.38
816.50
805.63
770.72
720.36
664.06
608.85
557.62
509.65
462.49
413.89
362.46
307.40
248.03
184.27
117.91
53.66
-1.13
-38.76
-54.35
-48.54
-27.86
-2.58
16.96
23.79
16.08
-3.23
-28.33
-53.09
-73.11
-86.71
-94.90
-100.32
-105.66
-112.44
-120.23
-127.07
-130.82
-130.42
-126.54
-120.98
-115.79
-112.36
-111.37
-113.12
-117.80
-125.21
-134.09
-141.75
-144.41
-138.36
-121.62
-95.09
-62.52
-29.32
-0.80
19.42
29.95
31.40
25.67
14.88
0.77
-15.23
-31.77
-47.26
-59.99
-68.78
-73.35
-74.01
-71.72
-67.60
-62.44
-56.41
-49.06
-39.82
-28.83
-17.11
-5.76
4.16
12.18
18.66
24.73
31.67
40.29
49.92
56.21
55.50
46.22
29.90
10.29
-8.95
-25.64
-39.49
-51.58
-64.86
-81.99
-105.35
-137.17
-179.21
-231.89
-293.60
-356.96
-412.71
-451.66
-467.38
-458.95
-431.20
-392.65
-352.01
-315.16
-283.95
-257.75
-235.20
-215.42
-198.69
-185.53
-175.71
-167.69
-158.98
-147.13
-131.08
-111.23
-89.08
-66.44
-44.62
-23.87
-3.35
18.48
43.11
71.08
101.76
133.54
164.45
192.79
217.78
239.75
259.93
280.03
301.72
326.40
354.82
386.61
419.74
450.30
473.02
482.51
475.24
450.58
411.28
362.42
309.52
256.76
206.01
157.20
109.49
62.39
16.34
-27.46
-67.51
-102.18
-129.59
-147.47
-153.55
-146.47
-126.61
-96.50
-60.19
-21.91
14.93
48.20
76.43
98.32
112.27
117.10
112.76
100.83
83.95
64.41
43.19
19.58
-7.68
-38.81
-71.87
-102.81
-126.88
-140.54
-143.02
-136.54
-125.25
-113.47
-104.04
-97.53
-92.67
-87.58
-80.95
-72.61
-63.27
-53.74
-44.14
-33.76
-21.34
-5.84
13.02
34.63
57.79
81.11
103.34
123.38
140.18
152.63
159.60
160.25
154.37
142.68
126.78
108.77
90.77
74.29
60.00
47.62
36.29
24.98
12.86
-0.49
-15.06
-30.59
-46.66
-62.77
-78.40
-93.04
-106.24
-117.65
-127.03
-134.15
-138.79
-140.74
-139.85
-136.15
-129.81
-121.11
-110.35
-97.80
-83.70
-68.36
-52.21
-35.78
-19.56
-3.88
11.23
25.98
40.71
55.60
70.49
84.87
97.95
108.99
117.57
123.70
127.75
130.21
131.41
131.40
129.92
126.64
121.30
114.03
105.36
96.13
87.24
79.31
72.51
66.53
60.84
54.94
48.58
41.77
34.53
26.84
18.58
9.75
0.71
-7.72
-14.45
-18.63
-20.06
-19.43
-18.03
-17.31
-18.22
-20.89
-24.76
-28.93
-32.65
-35.57
-37.83
-39.73
-41.58
-43.48
-45.33
-46.89
-47.95
-48.39
-48.22
-47.58
-46.58
-45.27
-43.50
-40.98
-37.44
-32.90
-27.84
-23.05
-19.41
-17.45
-17.08
-17.57
-17.82
-16.79
-13.89
-9.24
-3.66
1.57
5.13
6.03
4.03
-0.25
-5.50
-10.19
-12.98
-13.01
-9.99
-4.03
4.35
14.19
24.10
32.39
37.46
38.41
35.39
29.59
22.70
16.09
10.20
4.41
-2.42
-11.11
-21.52
-32.33
-41.46
-46.89
-47.40
-43.04
-35.08
-25.46
-16.15
-8.61
-3.52
-0.84
-0.04
-0.39
-1.26
-2.22
-3.05
-3.70
-4.27
-4.89
-5.78
-7.20
-9.34
-12.19
-15.44
-18.41
-20.37
-20.76
-19.62
-17.55
-15.53
-14.37
-14.32
-14.86
-15.02
-13.95
-11.49
-8.36
-5.80
-4.97
-6.34
-9.38
-13.00
-16.20
-18.65
-20.96
-24.28
-29.49
-36.65
-44.84
-52.80
-59.56
-65.02
-69.89
-75.09
-81.26
-88.34
-95.74
-102.70
-108.73
-113.86
-118.30
-121.83
-123.64
-122.54
-117.82
-110.10
-101.51
-94.86
-92.20
-93.54
-96.52
-97.45
-93.05
-82.07
-65.77
-46.89
-28.07
-10.57
5.99
22.82
40.97
60.99
83.26
108.37
137.05
169.48
204.43
239.34
270.94
296.45
314.39
324.30
325.99
318.94
302.54
276.98
244.20
207.95
172.69
142.01
117.72
99.82
87.26
78.78
73.18
69.04
64.43
57.13
45.19
27.61
4.48
-23.34
-54.72
-88.56
-123.52
-157.68
-188.21
-211.68
-224.84
-225.50
-212.96
-188.18
-153.51
-112.32
-68.63
-26.66
10.04
39.32
61.06
76.92
89.28
99.81
108.58
114.14
114.47
108.07
94.53
74.40
48.55
17.80
-16.80
-53.16
-87.61
-115.10
-130.15
-128.52
-108.46
-71.45
-21.92
33.79
88.67
136.25
171.41
190.97
193.83
181.37
157.49
128.03
99.82
78.47
66.11
60.13
54.45
42.84
23.04
-0.98
-20.49
-26.26
-13.75
14.09
47.84
76.05
90.49
89.42
77.36
61.47
47.96
39.77
36.71
37.11
39.65
44.09
50.72
59.05
65.97
66.87
57.54
36.30
4.94
-32.16
-70.03
-105.47
-138.87
-176.27
-224.62
-287.14
-359.46
-429.81
-483.36
-507.80
-497.29
-453.59
-387.50
-311.92
-237.61
-170.78
-114.86
-72.97
-48.76
-44.74
-60.26
-95.89
-150.49
-222.16
-308.02
-404.57
-507.63
-611.45
-707.91
-760.18
-740.41
-642.86
-491.34
-324.90
-176.08
-59.68
25.28
87.63
136.80
172.35
194.03
201.46
197.73
189.31
183.11
184.02
194.20
213.77
238.29
260.96
277.51
288.07
295.98
305.35
319.04
338.17
362.58
389.65
417.51
446.00
476.30
508.52
538.99
559.86
561.77
538.02
486.80
413.00
326.45
238.25
157.08
87.28
29.26
-18.73
-59.04
-94.57
-128.25
-162.57
-198.50
-234.80
-268.10
-294.33
-310.61
-316.39
-313.65
-305.68
-295.57
-285.32
-275.92
-267.70
-260.74
-254.77
-248.81
-241.06
-229.36
-211.80
-187.38
-155.99
-117.90
-73.35
-22.51
33.92
93.97
154.13
209.92
257.15
293.05
316.67
328.18
327.81
315.05
288.74
248.27
195.19
134.22
72.96
20.13
-16.84
-33.85
-31.12
-12.79
14.40
43.05
67.11
83.29
91.80
95.98
100.94
111.53
130.30
156.35
185.63
212.38
231.20
238.42
232.58
213.74
182.56
139.72
86.20
23.79
-44.50
-114.30
-180.35
-237.22
-280.50
-307.94
-320.17
-320.62
-314.40
-306.61
-300.59
-297.01
-294.47
-290.71
-283.89
-273.12
-258.09
-238.37
-212.96
-180.65
-140.77
-93.95
-42.17
11.70
64.60
113.79
157.01
192.89
221.19
243.08
260.80
276.94
293.08
308.85
321.87
328.86
327.29
316.65
298.56
275.57
249.70
221.41
189.91
154.36
115.19
74.51
35.16
-0.71
-32.57
-61.34
-88.22
-113.44
-135.78
-153.21
-164.37
-169.82
-172.50
-176.85
-186.99
-204.50
-226.86
-247.62
-258.60
-253.27
-230.04
-193.75
-154.16
-122.43
-106.75
-109.43
-126.79
-151.25
-174.32
-188.96
-190.81
-178.59
-154.07
-121.73
-87.97
-59.58
-41.49
-34.73
-35.76
-37.28
-31.00
-10.34
27.12
79.05
139.21
199.51
252.35
292.39
317.59
329.42
331.94
330.33
328.97
329.75
331.37
329.77
319.86
297.76
262.55
216.60
164.51
111.32
61.03
16.00
-22.66
-54.54
-79.52
-98.08
-111.64
-122.51
-133.21
-145.48
-159.87
-176.03
-193.62
-213.31
-237.05
-267.13
-304.63
-347.89
-392.07
-430.12
-454.85
-461.29
-448.02
-417.05
-372.38
-318.17
-257.25
-190.66
-118.45
-41.01
39.57
119.02
191.53
251.33
294.34
319.38
328.19
324.37
311.91
293.84
271.87
246.78
219.25
190.42
161.85
135.07
110.99
89.69
70.70
53.44
37.59
23.06
9.81
-2.34
-13.73
-24.51
-34.30
-42.02
-46.12
-45.02
-37.68
-23.97
-4.79
18.28
43.33
68.49
92.17
113.18
130.73
144.45
154.43
161.04
164.87
166.50
166.47
165.29
163.48
161.69
160.51
160.29
160.78
161.02
159.49
154.51
144.77
129.84
110.24
87.31
62.93
38.93
16.74
-2.97
-20.39
-36.26
-51.44
-66.21
-79.95
-91.32
-98.75
-101.31
-99.09
-93.19
-85.18
-76.52
-68.12
-60.43
-53.61
-47.74
-42.81
-38.62
-34.78
-30.85
-26.69
-22.64
-19.45
-17.97
-18.60
-21.08
-24.52
-27.73
-29.66
-29.65
-27.50
-23.32
-17.53
-10.70
-3.62
2.73
7.20
8.81
7.01
2.07
-4.86
-11.95
-17.23
-19.21
-17.26
-11.78
-3.91
4.96
13.60
21.18
27.34
32.06
35.53
38.02
39.82
41.06
41.68
41.45
40.09
37.52
34.30
31.83
32.37
38.34
51.09
69.66
90.23
106.69
112.45
102.80
76.54
36.35
-12.33
-63.09
-110.17
-149.32
-177.76
-194.05
-198.00
-190.69
-174.67
-153.61
-131.63
-112.52
-99.15
-93.05
-94.24
-101.11
-110.74
-119.50
-124.06
-122.34
-113.93
-99.82
-81.59
-60.80
-38.78
-16.91
2.96
18.52
27.42
28.12
20.57
6.56
-10.78
-27.82
-41.47
-50.17
-54.10
-54.90
-54.79
-55.53
-57.61
-60.24
-61.90
-61.35
-58.49
-54.43
-51.00
-49.96
-52.25
-57.85
-66.04
-75.81
-86.23
-96.45
-105.57
-112.69
-117.04
-118.30
-116.91
-114.02
-111.12
-109.52
-109.92
-112.11
-115.28
-118.36
-120.53
-121.62
-122.19
-123.38
-126.31
-131.52
-138.47
-145.60
-150.84
-152.47
-149.80
-143.31
-134.38
-124.62
-115.25
-106.92
-99.86
-94.13
-89.90
-87.36
-86.44
-86.53
-86.38
-84.34
-78.86
-69.05
-55.01
-37.81
-19.03
-0.13
18.13
35.88
53.93
73.19
94.16
116.70
140.21
163.94
187.08
208.72
227.73
242.92
253.66
260.71
266.52
274.74
288.57
308.91
333.32
356.57
372.76
377.97
372.02
358.13
340.84
323.39
306.02
286.19
260.23
225.49
181.74
131.11
77.02
22.63
-30.00
-80.08
-127.42
-171.85
-212.69
-248.71
-278.35
-299.90
-311.50
-311.09
-296.71
-266.99
-222.30
-165.53
-102.18
-39.35
16.29
60.58
92.94
115.85
133.19
148.15
161.92
173.67
181.38
182.95
176.70
161.38
136.18
100.85
56.38
5.48
-47.45
-97.32
-139.84
-172.87
-196.74
-213.69
-226.67
-238.15
-249.58
-261.38
-273.46
-285.78
-298.58
-312.33
-327.45
-343.77
-360.26
-375.02
-385.50
-389.02
-383.28
-366.74
-338.60
-298.75
-247.54
-185.94
-115.63
-39.02
41.26
122.81
203.99
284.03
362.58
438.87
511.21
576.70
632.34
675.90
706.33
723.83
729.24
723.25
705.82
675.93
631.74
572.44
499.31
415.85
327.41
240.00
158.73
86.84
25.03
-28.43
-75.29
-116.14
-150.58
-177.51
-195.83
-204.95
-204.53
-194.60
-175.89
-151.14
-122.78
-94.15
-68.87
-49.52
-36.74
-29.09
-19.75
-8.39
3.07
11.84
14.83
9.94
-2.98
-24.93
-52.84
-82.05
-109.02
-131.17
-147.52
-158.66
-165.51
-168.43
-166.97
-160.13
-147.79
-131.99
-115.47
-101.12
-91.32
-87.19
-88.26
-92.94
-98.82
-104.01
-107.91
-110.28
-110.96
-109.66
-105.76
-98.62
-87.92
-73.79
-57.30
-40.31
-24.73
-12.27
-4.24
-1.41
-3.81
-10.66
-20.34
-30.84
-40.14
-46.45
-48.37
-45.06
-36.13
-21.73
-2.48
20.53
45.86
71.88
97.16
120.67
141.71
159.65
173.51
181.82
182.99
176.13
161.93
142.92
122.98
105.95
94.05
86.92
81.86
75.40
65.13
50.97
35.18
20.87
10.32
3.68
-0.87
-5.95
-13.63
-24.69
-38.87
-55.60
-74.59
-95.67
-118.08
-139.89
-158.07
-169.52
-172.39
-166.92
-155.31
-140.75
-126.21
-113.50
-103.18
-94.93
-88.07
-81.93
-75.97
-69.74
-63.04
-55.86
-48.54
-41.61
-35.77
-31.58
-29.33
-28.76
-29.00
-28.76
-26.74
-22.20
-15.41
-7.73
-1.19
2.27
1.62
-2.72
-9.01
-14.80
-17.92
-17.32
-13.33
-7.40
-1.29
3.67
7.13
9.54
11.72
14.25
17.29
20.76
24.67
29.12
34.01
38.50
40.79
38.66
30.33
15.42
-4.78
-27.70
-50.51
-70.96
-87.79
-100.54
-109.13
-113.43
-113.23
-108.40
-99.06
-85.61
-68.83
-49.85
-30.19
-11.73
3.78
15.21
22.57
27.16
31.10
36.57
45.02
56.87
71.64
88.36
105.94
123.42
139.76
153.81
164.22
169.65
169.26
163.01
151.86
137.62
122.53
108.73
97.74
90.16
85.70
83.25
81.29
78.13
72.25
62.59
48.79
31.31
11.38
-9.25
-28.66
-45.13
-57.40
-64.62
-66.20
-61.70
-50.88
-33.92
-11.72
13.98
40.67
65.51
85.95
100.41
108.67
111.77
111.53
109.74
107.43
104.59
100.44
94.04
84.96
73.61
61.04
48.44
36.61
25.68
15.18
4.43
-6.96
-18.81
-30.36
-40.58
-48.69
-54.45
-58.28
-61.02
-63.45
-66.04
-68.87
-71.87
-75.14
-79.19
-84.72
-92.31
-101.94
-112.83
-123.69
-133.01
-139.59
-142.69
-142.05
-137.78
-130.41
-120.79
-110.20
-100.11
-91.73
-85.50
-80.61
-75.16
-66.79
-53.71
-35.58
-13.78
9.05
30.07
47.32
60.39
70.31
78.88
87.76
97.79
108.88
120.19
130.72
139.70
146.80
152.00
155.35
156.73
155.75
151.84
144.51
133.62
119.53
103.13
85.58
68.07
51.49
36.42
23.12
11.79
2.59
-4.32
-8.92
-11.55
-12.96
-14.21
-16.31
-19.88
-24.80
-30.14
-34.27
-35.24
-31.32
-21.61
-6.45
12.42
32.17
49.61
61.98
67.61
66.12
58.24
45.28
28.86
10.65
-7.54
-23.87
-36.61
-44.48
-47.01
-44.67
-38.96
-32.08
-26.55
-24.51
-27.10
-33.93
-43.12
-51.69
-56.45
-54.94
-46.10
-30.52
-10.12
12.49
34.60
53.87
68.55
77.53
80.39
77.47
69.92
59.39
47.68
36.19
25.55
15.48
4.94
-7.46
-22.77
-41.13
-61.49
-81.82
-99.75
-113.21
-121.02
-123.13
-120.60
-115.61
-111.11
-110.31
-115.64
-127.62
-144.34
-161.66
-174.59
-179.00
-173.12
-157.90
-136.21
-111.53
-86.79
-63.94
-44.10
-27.86
-15.23
-5.64
2.02
9.02
16.36
24.56
33.57
42.63
50.33
54.39
52.13
41.54
22.18
-4.31
-34.88
-66.51
-97.24
-126.40
-153.79
-178.53
-198.69
-211.80
-216.23
-211.91
-199.99
-181.69
-156.75
-122.78
-75.98
-13.07
66.27
157.62
251.92
337.43
403.28
442.99
456.43
449.05
428.94
403.02
374.71
343.82
308.58
267.88
222.53
174.94
128.01
83.98
44.18
9.27
-20.53
-45.39
-65.98
-82.99
-96.67
-106.44
-110.97
-108.95
-99.86
-84.18
-62.75
-35.79
-2.21
39.95
92.43
155.12
224.88
295.33
357.70
402.34
420.99
408.99
366.79
300.30
219.35
134.67
54.50
-17.62
-82.78
-144.48
-205.15
-263.85
-315.83
-354.32
-373.51
-370.96
-348.39
-310.38
-262.32
-208.91
-154.00
-101.41
-55.47
-20.55
0.59
8.31
6.60
1.77
-0.06
4.78
16.53
32.69
49.73
64.73
76.07
83.19
85.98
84.39
78.57
69.25
57.83
45.98
35.41
27.20
21.68
18.57
17.34
17.54
18.99
21.87
26.68
34.16
45.23
60.81
81.76
108.44
140.27
175.28
210.17
240.89
263.70
276.10
277.38
268.21
249.86
223.38
189.26
147.68
99.15
45.04
-12.30
-69.90
-124.71
-174.25
-216.88
-251.74
-278.50
-297.08
-307.48
-310.03
-305.84
-297.16
-287.31
-279.91
-277.63
-281.16
-288.79
-297.19
-302.98
-304.32
-301.46
-296.20
-290.80
-286.85
-284.64
-283.33
-281.53
-277.99
-272.25
-264.68
-255.97
-246.75
-237.40
-228.16
-219.05
-210.36
-202.77
-197.69
-197.03
-202.30
-214.35
-232.73
-255.80
-279.74
-299.29
-309.00
-305.15
-286.91
-255.45
-214.04
-166.68
-117.77
-69.03
-19.58
33.51
93.42
162.46
241.73
328.61
415.60
489.30
536.81
549.57
527.33
478.12
416.31
359.73
322.41
310.16
318.00
337.56
361.03
384.39
406.23
415.96
405.47
370.78
328.53
286.20
249.28
218.12
196.78
188.20
192.14
206.55
226.98
247.12
259.03
258.70
245.71
222.08
189.02
146.26
94.16
33.57
-34.68
-110.02
-188.72
-264.41
-328.60
-372.92
-390.25
-375.35
-322.67
-236.27
-132.11
-32.75
41.67
82.49
93.86
87.69
76.37
67.32
59.09
47.34
29.92
8.49
-12.91
-31.34
-47.18
-64.17
-84.98
-112.13
-144.40
-176.19
-199.00
-204.89
-189.88
-155.26
-106.35
-50.09
6.41
58.15
102.14
136.88
161.81
176.88
182.63
180.20
171.11
156.52
137.88
117.13
96.89
79.95
68.17
61.48
57.80
54.16
48.07
38.85
27.60
15.93
4.63
-7.12
-21.44
-40.56
-65.78
-97.25
-134.59
-177.70
-226.57
-279.93
-333.65
-380.45
-411.87
-422.02
-410.70
-384.06
-351.66
-321.68
-296.77
-273.20
-243.89
-203.42
-151.71
-94.16
-38.32
10.35
50.63
84.15
111.74
130.57
134.60
118.41
82.28
34.64
-10.04
-37.35
-39.56
-18.95
14.17
47.45
72.86
89.75
103.32
119.81
141.67
165.40
183.01
186.02
169.60
134.90
88.48
39.41
-4.26
-38.31
-62.91
-81.15
-96.35
-109.60
-118.91
-120.43
-111.17
-91.37
-65.37
-40.03
-21.79
-13.72
-14.52
-19.79
-24.76
-26.86
-26.64
-26.82
-30.04
-36.69
-43.98
-46.59
-38.61
-15.79
22.96
75.49
137.38
203.71
270.29
333.82
391.34
439.16
472.41
485.91
475.81
440.98
383.40
307.45
219.09
125.58
35.41
-42.17
-99.31
-132.49
-144.63
-144.74
-144.35
-152.87
-173.44
-202.27
-231.14
-251.43
-256.95
-244.71
-214.17
-166.61
-105.83
-38.50
25.28
73.36
94.80
83.69
42.14
-19.96
-87.96
-147.63
-188.05
-203.75
-195.54
-169.29
-134.12
-100.08
-76.43
-69.65
-82.47
-111.67
-147.93
-178.26
-190.03
-175.39
-133.58
-71.56
4.80
84.10
154.04
207.33
244.04
268.77
285.28
294.33
294.78
284.56
262.97
231.11
192.47
150.79
108.94
67.55
28.38
-8.31
-42.74
-76.06
-112.16
-155.38
-209.36
-273.95
-344.72
-411.47
-463.61
-492.25
-481.32
-427.19
-339.56
-238.36
-142.08
-67.58
-9.44
42.58
97.48
160.60
231.82
307.82
383.89
457.39
520.74
565.61
583.45
571.32
533.84
478.68
420.85
363.17
306.99
254.50
209.98
176.20
153.67
141.05
133.34
124.05
106.53
77.94
38.38
-8.35
-56.04
-95.73
-117.53
-114.71
-86.89
-42.36
5.39
41.29
54.67
42.49
10.01
-32.64
-75.56
-112.05
-139.34
-155.90
-160.72
-153.48
-136.14
-113.94
-94.83
-87.26
-97.69
-128.94
-179.92
-247.39
-327.06
-414.05
-502.32
-584.48
-652.62
-700.25
-724.21
-725.15
-706.86
-674.36
-632.02
-582.63
-527.77
-468.75
-407.42
-346.24
-287.42
-232.20
-180.46
-131.20
-83.48
-37.34
6.14
45.07
77.76
103.31
122.08
135.58
146.05
156.21
168.64
184.98
205.01
226.21
244.21
254.14
252.49
238.40
213.94
183.22
151.00
121.52
