1589039387.00
64.000000
-0.00
-0.00
-0.00
-0.00
-0.00
-0.00
-0.00
-0.00
-0.00
-0.00
0.00
0.01
0.01
-0.00
-0.03
-0.05
-0.05
0.00
0.13
0.36
0.66
1.01
1.37
1.72
2.06
2.40
2.79
3.24
3.80
4.42
5.06
5.66
6.20
6.68
7.15
7.68
8.31
9.14
10.09
11.04
11.88
12.56
13.14
13.76
14.65
15.96
17.91
20.32
22.90
25.38
27.58
29.57
31.68
34.32
37.81
42.54
48.15
54.10
59.83
64.97
69.58
74.14
79.34
85.71
93.76
103.00
112.62
121.73
129.77
136.75
143.30
150.75
157.77
166.64
177.95
191.79
206.97
220.57
228.25
225.36
208.53
176.87
132.76
80.05
23.07
-34.94
-92.44
-149.16
-205.23
-260.37
-313.74
-363.87
-409.83
-450.91
-486.50
-515.74
-537.23
-549.22
-549.95
-538.34
-514.17
-478.64
-433.88
-382.52
-327.19
-270.11
-212.99
-157.06
-103.37
-52.78
-6.31
35.15
70.92
100.75
124.79
143.59
157.86
168.31
175.54
179.89
181.63
180.96
178.18
173.70
167.97
161.45
154.46
147.17
139.63
131.79
123.67
115.36
107.07
99.03
91.44
84.32
77.55
70.89
64.15
57.24
50.30
43.61
37.50
32.18
27.61
23.52
19.51
15.25
10.62
5.78
1.16
-2.87
-6.07
-8.47
-10.35
-12.05
-13.85
-16.00
-18.76
-22.37
-26.78
-31.27
-34.31
-33.87
-28.35
-17.44
-2.64
13.07
26.54
35.54
39.66
40.14
38.84
37.20
35.75
34.35
32.98
32.18
32.84
35.40
39.24
42.57
43.34
40.19
33.36
24.56
16.11
9.79
6.16
4.56
3.81
3.01
1.90
0.81
0.15
0.04
0.19
0.17
-0.32
-1.37
-2.69
-3.92
-4.79
-5.22
-5.31
-5.23
-5.12
-5.04
-4.93
-4.71
-4.34
-3.87
-3.41
-3.10
-3.07
-3.31
-3.69
-3.91
-3.59
-2.38
-0.16
2.95
6.55
10.04
12.86
14.64
15.35
15.31
14.97
14.74
14.83
15.15
15.47
15.48
15.01
14.04
12.64
10.95
8.85
6.27
3.18
-0.30
-3.89
-7.25
-10.09
-12.31
-13.95
-15.16
-16.02
-16.55
-16.73
-16.54
-16.07
-15.48
-14.93
-14.55
-14.38
-14.38
-14.51
-14.76
-15.12
-15.54
-15.81
-15.70
-14.89
-13.25
-10.82
-7.82
-4.65
-1.63
0.99
3.05
4.49
5.23
5.19
4.33
2.75
0.66
-1.57
-3.59
-5.21
-6.38
-7.20
-7.81
-8.28
-8.65
-8.97
-9.33
-9.80
-10.45
-11.30
-12.29
-13.42
-14.68
-16.08
-17.64
-19.29
-20.87
-22.23
-23.27
-23.97
-24.50
-24.94
-25.31
-25.57
-25.63
-25.49
-25.17
-24.75
-24.28
-23.70
-22.85
-21.44
-19.15
-15.71
-11.01
-5.16
1.47
8.40
15.12
21.27
26.67
31.19
34.70
37.06
38.12
37.91
36.67
34.79
32.69
30.68
28.90
27.37
26.09
25.02
24.12
23.29
22.35
21.11
19.47
17.51
15.39
13.35
11.47
9.71
7.88
5.80
3.38
0.70
-2.03
-4.55
-6.73
-8.54
-10.18
-11.89
-13.94
-16.44
-19.36
-22.46
-25.40
-27.84
-29.47
-30.07
-29.50
-27.68
-24.63
-20.48
-15.47
-9.97
-4.43
0.69
5.01
8.30
10.48
11.63
11.94
11.63
10.94
10.09
9.28
8.63
8.24
8.16
8.41
9.04
10.09
11.56
13.44
15.61
17.87
19.99
21.76
23.02
23.72
23.87
23.54
22.81
21.73
20.29
18.46
16.16
13.38
10.20
6.77
3.27
-0.17
-3.54
-6.87
-10.12
-13.15
-15.61
-17.07
-17.16
-15.71
-12.84
-8.92
-4.44
0.12
4.30
7.76
10.25
11.66
12.04
11.59
10.59
9.31
8.00
6.83
5.87
5.16
4.67
4.32
3.99
3.56
2.97
2.25
1.52
0.93
0.54
0.33
0.18
0.00
-0.24
-0.50
-0.73
-0.89
-1.06
-1.30
-1.68
-2.21
-2.86
-3.60
-4.46
-5.53
-6.89
-8.59
-10.49
-12.27
-13.47
-13.67
-12.59
-10.25
-6.91
-2.98
1.14
5.20
9.08
12.71
15.98
18.72
20.75
21.98
22.51
22.57
22.39
22.10
21.72
21.20
20.54
19.78
19.02
18.32
17.68
17.05
16.37
15.64
14.88
14.12
13.30
12.37
11.31
10.12
8.87
7.64
6.45
5.33
4.26
3.26
2.31
1.37
0.34
-0.94
-2.57
-4.58
-6.84
-9.08
-10.99
-12.22
-12.51
-11.71
-9.82
-7.02
-3.59
0.10
3.72
6.96
9.56
11.27
11.91
11.54
10.45
9.12
8.04
7.43
7.13
6.70
5.69
3.96
1.75
-0.45
-2.21
-3.36
-4.06
-4.52
-4.84
-4.87
-4.41
-3.42
-2.12
-0.95
-0.32
-0.36
-0.89
-1.62
-2.35
-3.18
-4.39
-6.27
-8.87
-11.97
-15.17
-18.10
-20.54
-22.43
-23.76
-24.43
-24.26
-23.07
-20.83
-17.71
-14.02
-10.14
-6.45
-3.28
-0.82
0.80
1.64
1.85
1.67
1.27
0.71
-0.02
-0.96
-2.01
-2.94
-3.53
-3.64
-3.34
-2.89
-2.53
-2.36
-2.30
-2.19
-1.89
-1.46
-1.09
-1.00
-1.31
-1.99
-2.86
-3.71
-4.42
-4.96
-5.42
-5.87
-6.38
-6.95
-7.55
-8.15
-8.69
-9.06
-9.12
-8.72
-7.85
-6.65
-5.36
-4.26
-3.47
-2.95
-2.50
-1.93
-1.18
-0.33
0.44
1.02
1.41
1.69
1.94
2.14
2.21
2.03
1.56
0.85
0.05
-0.69
-1.26
-1.61
-1.77
-1.84
-1.93
-2.16
-2.59
-3.12
-3.53
-3.58
-3.10
-2.13
-0.95
0.03
0.40
-0.07
-1.38
-3.31
-5.55
-7.79
-9.84
-11.66
-13.32
-14.98
-16.76
-18.66
-20.49
-21.92
-22.54
-22.03
-20.26
-17.36
-13.66
-9.62
-5.69
-2.25
0.48
2.46
3.80
4.68
5.29
5.81
6.35
6.99
7.76
8.70
9.81
11.05
12.32
13.48
14.40
15.04
15.42
15.66
15.81
15.85
15.67
15.09
14.02
12.45
10.51
8.39
6.29
4.32
2.48
0.63
-1.40
-3.78
-6.63
-9.99
-13.79
-17.83
-21.77
-25.18
-27.61
-28.65
-28.06
-25.85
-22.26
-17.73
-12.79
-7.93
-3.52
0.23
3.32
5.87
8.05
9.98
11.73
13.23
14.39
15.12
15.47
15.57
15.65
15.89
16.35
16.91
17.32
17.26
16.45
14.76
12.26
9.21
5.96
2.92
0.35
-1.71
-3.41
-5.05
-6.93
-9.12
-11.48
-13.64
-15.27
-16.21
-16.59
-16.78
-17.23
-18.29
-20.09
-22.53
-25.25
-27.72
-29.35
-29.60
-28.11
-24.89
-20.29
-14.96
-9.57
-4.66
-0.48
2.98
5.85
8.26
10.20
11.68
12.71
13.42
13.99
14.59
15.24
15.87
16.34
16.59
16.65
16.62
16.63
16.75
16.92
17.03
16.94
16.56
15.86
14.86
13.63
12.23
10.69
9.00
7.12
5.01
2.69
0.27
-2.11
-4.30
-6.27
-8.12
-10.11
-12.54
-15.65
-19.46
-23.65
-27.65
-30.75
-32.31
-32.01
-29.85
-26.14
-21.33
-15.84
-9.95
-3.87
2.21
7.96
12.97
16.82
19.26
20.32
20.33
19.76
19.04
18.44
18.03
17.69
17.31
16.85
16.35
15.85
15.32
14.64
13.71
12.48
11.04
9.56
8.19
6.94
5.66
4.17
2.30
0.06
-2.40
-4.86
-7.17
-9.27
-11.25
-13.21
-15.27
-17.48
-19.83
-22.25
-24.65
-26.80
-28.41
-29.11
-28.56
-26.59
-23.23
-18.76
-13.57
-8.13
-2.87
1.80
5.65
8.54
10.59
12.03
13.22
14.41
15.69
16.97
18.08
18.91
19.48
19.88
20.23
20.57
20.88
21.10
21.23
21.27
21.20
20.87
20.04
18.42
15.86
12.44
8.54
4.73
1.56
-0.60
-1.73
-2.18
-2.52
-3.35
-5.03
-7.62
-10.88
-14.39
-17.75
-20.61
-22.70
-23.79
-23.68
-22.23
-19.47
-15.65
-11.21
-6.68
-2.53
0.96
3.71
5.78
7.28
8.31
8.93
9.26
9.38
9.40
9.39
9.33
9.13
8.64
7.76
6.49
4.93
3.27
1.70
0.26
-1.17
-2.80
-4.84
-7.34
-10.18
-13.12
-15.88
-18.31
-20.40
-22.25
-23.91
-25.44
-26.83
-28.14
-29.53
-31.21
-33.28
-35.67
-38.00
-39.71
-40.23
-39.13
-36.28
-31.86
-26.22
-19.80
-12.99
-6.10
0.62
6.93
12.56
17.30
21.02
23.76
25.72
27.21
28.51
29.80
31.14
32.44
33.62
34.67
35.61
36.45
37.14
37.49
37.28
36.34
34.62
32.22
29.32
26.09
22.66
19.13
15.63
12.36
9.46
6.97
4.79
2.68
0.43
-2.10
-4.88
-7.78
-10.70
-13.61
-16.57
-19.62
-22.64
-25.30
-27.11
-27.61
-26.45
-23.59
-19.27
-13.92
-8.02
-2.03
3.71
8.94
13.43
17.01
19.53
20.95
21.38
21.10
20.50
20.01
19.91
20.29
21.01
21.80
22.43
22.80
22.99
23.08
23.09
22.84
22.12
20.76
18.84
16.62
14.43
12.47
10.69
8.84
6.70
4.17
1.38
-1.44
-4.06
-6.39
-8.47
-10.41
-12.33
-14.32
-16.43
-18.75
-21.37
-24.33
-27.61
-31.02
-34.18
-36.60
-37.68
-36.96
-34.16
-29.36
-22.94
-15.49
-7.67
-0.06
6.88
12.84
17.59
21.03
23.23
24.39
24.86
24.98
24.99
24.97
24.89
24.69
24.30
23.75
23.07
22.34
21.67
21.17
20.91
20.90
20.97
20.89
20.37
19.26
17.60
15.59
13.48
11.46
9.61
7.92
6.37
4.98
3.71
2.48
1.14
-0.47
-2.48
-4.83
-7.33
-9.74
-11.86
-13.69
-15.41
-17.30
-19.56
-22.19
-24.89
-27.18
-28.49
-28.36
-26.57
-23.17
-18.50
-13.04
-7.27
-1.64
3.58
8.19
12.06
15.05
17.03
17.98
17.98
17.30
16.34
15.44
14.82
14.45
14.21
13.90
13.44
12.89
12.34
11.87
11.45
10.97
10.29
9.29
7.96
6.41
4.82
3.38
2.21
1.35
0.66
-0.03
-0.94
-2.19
-3.75
-5.47
-7.19
-8.75
-10.10
-11.27
-12.33
-13.34
-14.37
-15.52
-16.91
-18.63
-20.71
-23.05
-25.40
-27.38
-28.64
-28.86
-27.92
-25.79
-22.62
-18.65
-14.19
-9.59
-5.17
-1.19
2.17
4.82
6.74
7.99
8.67
8.94
8.95
8.84
8.72
8.62
8.55
8.47
8.36
8.16
7.82
7.31
6.63
5.82
4.99
4.23
3.61
3.13
2.72
2.27
1.67
0.88
-0.12
-1.25
-2.46
-3.67
-4.87
-6.10
-7.41
-8.84
-10.37
-11.92
-13.37
-14.59
-15.57
-16.41
-17.28
-18.34
-19.63
-21.05
-22.33
-23.15
-23.21
-22.33
-20.45
-17.66
-14.17
-10.25
-6.24
-2.45
0.89
3.63
5.74
7.27
8.35
9.09
9.61
9.94
10.08
9.99
9.62
8.96
8.08
7.10
6.21
5.55
5.15
4.98
4.91
4.85
4.73
4.52
4.21
3.72
2.98
1.95
0.62
-0.88
-2.38
-3.70
-4.80
-5.73
-6.63
-7.62
-8.69
-9.73
-10.61
-11.24
-11.67
-12.07
-12.66
-13.58
-14.92
-16.58
-18.33
-19.88
-20.91
-21.17
-20.52
-18.94
-16.53
-13.47
-9.99
-6.37
-2.91
0.09
2.38
3.89
4.70
5.01
5.08
5.06
5.02
4.94
4.86
4.86
5.01
5.36
5.83
6.25
6.46
6.36
5.97
5.34
4.54
3.58
2.50
1.32
0.14
-0.96
-1.96
-2.92
-3.93
-5.02
-6.11
-7.08
-7.83
-8.40
-8.94
-9.64
-10.61
-11.80
-13.03
-14.18
-15.25
-16.37
-17.69
-19.25
-20.83
-22.04
-22.44
-21.71
-19.79
-16.85
-13.21
-9.27
-5.39
-1.83
1.21
3.64
5.41
6.58
7.24
7.54
7.61
7.57
7.52
7.51
7.52
7.51
7.41
7.19
6.85
6.45
6.05
5.66
5.23
4.72
4.09
3.38
2.65
1.97
1.34
0.73
0.04
-0.81
-1.90
-3.23
-4.79
-6.53
-8.35
-10.10
-11.65
-12.89
-13.87
-14.78
-15.87
-17.38
-19.36
-21.62
-23.77
-25.34
-25.88
-25.12
-22.98
-19.60
-15.28
-10.43
-5.51
-0.87
3.21
6.63
9.36
11.40
12.77
13.45
13.50
13.04
12.29
11.46
10.77
10.34
10.19
10.25
10.41
10.49
10.36
9.90
9.16
8.24
7.30
6.42
5.56
4.60
3.46
2.14
0.81
-0.35
-1.27
-2.04
-2.87
-3.94
-5.25
-6.64
-7.88
-8.85
-9.65
-10.57
-11.90
-13.74
-15.92
-17.98
-19.30
-19.27
-17.40
-13.45
-7.52
-0.06
8.17
16.26
23.37
28.91
32.59
34.34
34.21
32.28
28.68
23.72
17.97
12.23
7.32
3.84
1.95
1.29
1.24
1.04
0.17
-1.53
-3.88
-6.49
-9.01
-11.34
-13.64
-16.23
-19.30
-22.66
-25.82
-28.09
-29.03
-28.62
-27.28
-25.64
-24.27
-23.68
-24.48
-27.45
-33.24
-41.75
-51.64
-60.30
-64.75
-62.85
-54.35
-41.04
-25.84
-11.36
1.23
12.36
23.33
35.08
47.41
58.99
68.11
73.60
75.49
74.83
73.05
71.14
69.23
66.73
62.91
57.57
51.28
45.12
40.16
36.94
35.28
34.52
33.97
33.20
32.10
30.71
28.98
26.76
23.87
20.36
16.52
12.84
9.70
7.17
4.96
2.57
-0.40
-4.08
-8.25
-12.49
-16.46
-19.99
-23.25
-26.49
-29.98
-33.78
-37.75
-41.61
-45.03
-47.66
-49.11
-48.98
-46.90
-42.66
-36.32
-28.32
-19.41
-10.46
-2.33
4.41
9.47
12.84
14.70
15.30
14.89
13.76
12.21
10.58
9.19
8.27
7.88
7.91
8.10
8.15
7.88
7.25
6.40
5.59
5.13
5.22
5.91
7.03
8.24
9.22
9.70
9.52
8.67
7.19
5.11
2.49
-0.59
-3.97
-7.42
-10.76
-13.95
-17.14
-20.55
-24.36
-28.54
-32.73
-36.32
-38.62
-39.02
-37.21
-33.26
-27.56
-20.71
-13.45
-6.47
-0.39
4.33
7.43
8.90
8.93
7.90
6.30
4.60
3.15
2.16
1.74
1.90
2.56
3.60
4.97
6.76
9.32
13.10
18.41
25.06
32.25
38.71
43.27
45.39
45.46
44.65
44.26
45.06
46.90
48.91
49.95
49.28
46.79
42.91
38.20
33.05
27.60
21.95
16.39
11.45
7.72
5.57
5.09
6.15
8.69
12.72
18.21
24.69
31.04
35.55
36.41
32.40
23.43
10.58
-4.25
-18.97
-31.86
-41.86
-48.61
-52.28
-53.40
-52.65
-50.68
-47.97
-44.74
-41.01
-36.66
-31.63
-25.97
-19.98
-14.00
-8.40
-3.47
0.60
3.71
5.84
7.02
7.39
7.10
6.40
5.51
4.60
3.80
3.12
2.45
1.63
0.50
-1.01
-2.81
-4.66
-6.32
-7.62
-8.51
-8.99
-9.02
-8.46
-7.06
-4.56
-0.69
4.75
11.81
20.30
29.69
39.07
47.33
53.54
57.27
58.73
58.56
57.43
55.64
53.04
49.35
44.48
38.80
32.98
27.54
22.53
17.37
11.27
3.65
-5.28
-14.57
-22.90
-29.02
-32.14
-31.99
-28.79
-22.96
-14.98
-5.37
5.07
15.06
23.22
28.54
30.85
30.74
29.19
27.00
24.35
20.82
15.46
7.89
-1.12
-9.76
-15.87
-17.82
-14.96
-7.58
3.26
15.21
26.18
34.98
41.61
46.65
50.70
54.22
57.87
61.91
64.45
63.84
59.82
53.89
48.18
43.96
41.46
40.59
40.23
36.30
25.92
9.13
-11.05
-31.01
-49.16
-65.80
-81.49
-97.89
-120.20
-152.15
-193.93
-241.73
-290.06
-334.83
-373.42
-403.70
-400.26
-348.30
-253.01
-139.17
-33.29
50.95
112.06
149.51
173.88
190.70
197.27
189.22
164.16
122.81
72.22
17.40
-36.77
-83.53
-116.45
-132.59
-131.35
-114.99
-88.45
-58.78
-34.00
-18.92
-12.79
-12.05
-14.05
-17.34
-21.66
-26.73
-31.45
-34.56
-34.38
-29.35
-20.13
-9.97
-2.89
-1.83
-7.37
-17.89
-30.91
-43.75
-54.13
-61.35
-66.21
-70.30
-75.02
-80.99
-87.88
-94.88
-100.91
-104.96
-106.65
-106.15
-104.30
-102.39
-101.96
-104.22
-109.63
-117.30
-125.21
-130.85
-132.30
-129.06
-122.06
-112.92
-102.75
-91.33
-77.13
-58.17
-33.09
-1.82
34.36
73.26
112.22
148.34
178.74
200.86
213.17
215.73
210.47
200.63
189.58
179.79
172.12
166.11
160.68
154.97
148.74
142.33
136.23
130.69
125.58
120.52
115.10
109.18
102.90
96.58
90.50
84.68
78.82
72.49
65.30
57.24
48.65
40.17
32.48
26.06
21.06
17.42
15.04
13.83
13.85
15.18
17.86
21.77
26.72
32.50
38.97
46.09
53.66
61.26
68.05
72.96
75.07
73.97
70.03
64.27
57.90
51.85
46.43
41.32
35.95
29.93
23.31
16.66
10.78
6.45
4.10
3.72
4.91
7.05
9.60
12.20
14.81
17.55
20.54
23.67
26.58
28.87
30.26
31.02
31.88
33.91
38.00
44.31
51.92
58.99
63.41
63.75
60.01
53.73
47.52
44.13
45.49
52.20
63.42
77.06
90.13
99.12
100.64
92.06
72.42
42.84
6.60
-31.54
-66.47
-93.96
-111.61
-119.14
-118.19
-111.58
-102.37
-92.84
-83.83
-74.66
-63.69
-49.43
-31.66
-11.97
6.68
20.99
28.85
30.09
26.51
20.72
14.65
8.48
0.66
-10.89
-27.23
-47.40
-68.52
-87.12
-100.62
-108.39
-111.54
-112.00
-111.46
-110.86
-110.61
-111.03
-112.58
-115.49
-119.12
-121.59
-120.31
-112.99
-98.85
-79.09
-56.50
-34.41
-15.46
-0.97
9.02
15.26
18.77
20.60
21.70
22.90
24.74
27.31
30.20
32.74
34.42
35.26
35.72
36.30
36.83
36.22
32.77
25.13
13.45
-0.24
-12.46
-19.76
-20.26
-14.59
-5.75
2.14
5.46
2.43
-6.54
-19.29
-32.92
-44.80
-53.09
-56.98
-56.55
-52.61
-46.44
-39.50
-32.89
-27.04
-21.58
-15.72
-8.74
-0.52
8.37
16.98
24.41
30.05
33.51
34.20
31.29
23.99
12.13
-3.25
-19.91
-35.14
-46.66
-53.47
-55.85
-54.83
-51.38
-46.02
-38.84
-30.04
-20.32
-11.00
-3.63
0.56
1.17
-1.33
-5.80
-10.94
-15.59
-19.08
-21.23
-22.23
-22.59
-22.84
-23.43
-24.57
-26.25
-28.21
-30.12
-31.59
-32.41
-32.65
-32.74
-33.34
-35.09
-38.07
-41.59
-44.19
-44.12
-40.02
-31.56
-19.64
-6.13
6.85
17.50
24.96
29.23
30.95
31.02
30.30
29.64
29.80
31.38
34.65
39.28
44.34
48.62
51.22
51.92
51.46
51.11
52.09
54.88
58.97
63.01
65.41
64.96
61.28
54.87
46.69
37.64
28.05
17.67
6.04
-6.79
-19.86
-31.41
-39.66
-43.84
-44.81
-44.88
-46.76
-52.26
-61.37
-72.29
-82.27
-88.88
-90.87
-88.49
-82.97
-75.71
-67.57
-58.57
-48.10
-35.54
-20.85
-4.97
10.37
23.23
32.18
36.83
37.92
36.88
35.19
33.77
32.73
31.49
29.18
25.12
19.06
11.33
3.00
-4.06
-7.33
-4.13
7.36
27.11
52.69
79.83
103.78
120.95
129.87
131.26
127.17
119.83
110.92
101.42
91.88
82.58
73.66
64.93
55.81
45.70
34.36
22.18
10.13
-0.74
-9.79
-16.99
-22.83
-27.85
-32.25
-35.70
-37.53
-37.00
-33.65
-27.59
-19.46
-10.35
-1.57
5.74
10.88
13.95
15.79
17.68
20.72
25.36
31.23
37.36
42.79
46.89
49.57
51.09
51.71
51.66
51.23
50.92
51.49
53.60
57.33
62.02
66.33
68.83
68.65
65.86
61.33
56.22
51.48
47.38
43.52
39.16
33.63
26.60
18.10
8.17
-3.36
-16.80
-32.33
-49.62
-67.68
-84.99
-100.06
-111.91
-120.29
-125.52
-128.17
-128.77
-127.83
-125.85
-123.42
-121.08
-119.04
-116.98
-114.18
-109.86
-103.58
-95.36
-85.48
-74.21
-61.60
-47.79
-33.31
-19.30
-7.28
1.54
6.87
9.56
11.19
13.24
16.29
19.79
22.37
22.71
20.17
15.11
8.62
2.03
-3.51
-7.27
-8.90
-8.35
-5.90
-2.10
2.19
6.00
8.55
9.35
8.36
5.72
1.61
-3.92
-10.77
-18.58
-26.54
-33.38
-37.71
-38.50
-35.46
-29.05
-20.38
-10.75
-1.35
7.01
13.96
19.48
23.87
27.65
31.48
36.02
41.76
48.83
56.86
65.07
72.49
78.29
82.00
83.51
83.05
80.99
77.60
73.07
67.52
61.18
54.50
48.19
43.06
39.76
38.51
38.92
40.05
40.61
39.40
35.50
28.58
18.91
7.26
-5.26
-17.45
-28.24
-36.96
-43.38
-47.72
-50.47
-52.12
-52.97
-53.12
-52.60
-51.42
-49.69
-47.49
-44.71
-41.02
-36.01
-29.47
-21.61
-13.10
-4.88
2.18
7.49
10.96
12.86
13.67
13.91
14.05
14.46
15.38
16.84
18.70
20.63
22.28
23.37
23.76
23.42
22.31
20.30
17.28
13.20
8.33
3.15
-1.65
-5.54
-8.29
-10.02
-11.09
-11.89
-12.67
-13.50
-14.33
-15.11
-15.83
-16.59
-17.47
-18.54
-19.72
-20.82
-21.43
-21.06
-19.23
-15.63
-10.30
-3.67
3.49
10.25
15.77
19.51
21.35
21.61
20.90
19.95
19.30
19.15
19.26
19.12
18.23
16.37
13.77
11.01
8.76
7.44
6.97
6.82
6.18
4.31
0.79
-4.42
-11.02
-18.56
-26.54
-34.38
-41.38
-46.85
-50.36
-52.09
-52.99
-54.46
-57.68
-62.87
-69.04
-74.30
-76.92
-76.20
-72.78
-67.95
-62.55
-56.11
-46.88
-32.84
-12.97
11.88
39.13
65.45
87.90
104.77
115.58
120.69
120.63
115.92
107.17
95.37
81.96
68.68
57.10
48.23
42.28
38.81
36.93
35.67
34.28
32.37
29.97
27.39
25.13
23.65
23.13
23.34
23.65
23.20
21.28
17.68
12.79
7.38
2.26
-2.16
-5.95
-9.53
-13.26
-17.23
-21.27
-25.10
-28.61
-31.91
-35.15
-38.23
-40.69
-41.75
-40.74
-37.37
-31.95
-25.20
-17.91
-10.60
-3.46
3.60
10.60
17.39
23.54
28.53
31.97
33.74
33.97
33.06
31.49
29.69
28.00
26.54
25.20
23.71
21.73
18.98
15.42
11.32
7.17
3.54
0.88
-0.62
-1.15
-1.24
-1.73
-3.60
-7.59
-13.95
-22.17
-31.13
-39.45
-45.90
-49.93
-51.65
-51.74
-51.00
-50.10
-49.35
-48.74
-48.03
-46.89
-44.96
-42.07
-38.25
-33.85
-29.39
-25.26
-21.55
-17.92
-13.85
-8.85
-2.77
4.22
11.66
19.03
25.80
31.46
35.49
37.41
36.98
34.30
29.98
24.93
20.21
16.66
14.70
14.24
14.78
15.60
16.04
15.74
14.70
13.28
11.92
10.89
10.18
9.51
8.67
7.76
7.28
7.94
10.30
14.38
19.58
24.74
28.57
29.95
28.25
23.44
16.07
7.09
-2.32
-11.02
-18.12
-23.12
-25.91
-26.66
-25.68
-23.32
-20.01
-16.21
-12.45
-9.16
-6.61
-4.83
-3.73
-3.13
-2.89
-2.88
-2.93
-2.79
-2.20
-0.99
0.73
2.59
4.06
4.74
4.52
3.60
2.40
1.31
0.57
0.22
0.13
0.13
-0.04
-0.58
-1.72
-3.56
-6.08
-9.15
-12.56
-16.16
-19.87
-23.66
-27.49
-31.24
-34.68
-37.56
-39.55
-40.36
-39.70
-37.42
-33.51
-28.24
-22.03
-15.41
-8.86
-2.68
2.94
7.97
12.39
16.20
19.44
22.20
24.53
26.38
27.64
28.19
28.03
27.36
26.61
26.23
26.51
27.43
28.63
29.63
29.97
29.42
28.05
26.05
23.65
20.97
17.99
14.61
10.73
6.35
1.63
-3.18
-7.80
-12.07
-15.94
-19.57
-23.21
-27.07
-31.20
-35.43
-39.41
-42.68
-44.80
-45.47
-44.55
-42.04
-38.03
-32.71
-26.36
-19.34
-12.11
-5.19
0.91
5.76
9.15
11.13
12.03
12.36
12.69
13.48
14.90
16.84
18.95
20.70
21.60
21.31
19.80
17.40
14.70
12.37
10.91
10.49
10.89
11.60
12.03
11.79
10.91
9.84
9.31
9.95
11.98
14.93
17.84
19.52
19.06
16.17
11.23
5.04
-1.51
-7.65
-12.81
-16.52
-18.48
-18.71
-17.73
-16.56
-16.36
-17.82
-20.79
-24.20
-26.65
-27.06
-25.24
-21.88
-18.05
-14.65
-11.94
-9.67
-7.37
-4.84
-2.19
0.27
2.31
4.01
5.69
7.65
9.90
12.05
13.46
13.62
12.35
10.03
7.35
5.06
3.62
3.04
3.01
3.09
3.00
2.72
2.43
2.30
2.32
2.23
1.65
0.21
-2.24
-5.50
-9.15
-12.54
-15.02
-16.07
-15.42
-13.13
-9.54
-5.24
-0.89
2.90
5.75
7.48
8.14
7.93
7.08
5.86
4.49
3.23
2.22
1.57
1.28
1.28
1.46
1.73
2.08
2.51
3.03
3.62
4.23
4.74
5.07
5.13
4.88
4.23
3.11
1.52
-0.45
-2.56
-4.55
-6.21
-7.49
-8.52
-9.49
-10.54
-11.67
-12.76
-13.74
-14.64
-15.62
-16.89
-18.43
-19.96
-20.98
-20.91
-19.33
-16.05
-11.18
-5.08
1.73
8.64
15.04
20.39
24.32
26.70
27.66
27.51
26.68
25.61
24.73
24.29
24.41
25.00
25.84
26.58
26.92
26.66
25.71
24.09
21.89
19.16
15.98
12.37
8.34
3.92
-0.75
-5.43
-9.80
-13.59
-16.72
-19.32
-21.69
-24.14
-26.82
-29.70
-32.60
-35.39
-38.05
-40.54
-42.71
-44.14
-44.19
-42.27
-38.14
-32.07
-24.75
-17.02
-9.55
-2.65
3.68
9.51
14.85
19.55
23.39
26.22
27.94
28.53
27.97
26.21
23.25
19.23
14.53
9.65
5.10
1.22
-1.87
-4.27
-6.13
-7.64
-8.93
-10.08
-11.14
-12.13
-13.05
-13.93
-14.82
-15.82
-17.03
-18.54
-20.35
-22.42
-24.63
-26.94
-29.40
-32.10
-35.18
-38.66
-42.45
-46.27
-49.64
-51.93
-52.43
-50.47
-45.62
-37.93
-28.01
-16.96
-6.01
3.81
12.05
18.83
24.62
29.92
34.95
39.62
43.61
46.56
48.28
48.76
48.18
46.83
45.04
43.13
41.34
39.79
38.44
37.16
35.78
34.14
32.08
29.47
26.16
22.09
17.32
12.05
6.68
1.58
-2.91
-6.63
-9.55
-11.83
-13.72
-15.53
-17.55
-19.98
-22.87
-26.13
-29.53
-32.76
-35.45
-37.22
-37.62
-36.22
-32.75
-27.26
-20.28
-12.82
-6.13
-1.31
1.09
1.19
-0.27
-2.29
-4.07
-5.18
-5.65
-5.70
-5.50
-5.04
-4.14
-2.66
-0.65
1.65
3.91
5.78
7.05
7.56
7.25
6.14
4.36
2.16
-0.19
-2.55
-5.00
-7.80
-11.19
-15.21
-19.60
-23.93
-27.82
-31.16
-34.10
-36.96
-39.94
-42.94
-45.56
-47.21
-47.26
-45.25
-41.03
-34.86
-27.30
-19.06
-10.71
-2.50
5.62
13.85
22.20
30.33
37.56
43.16
46.67
48.15
48.13
47.37
46.53
46.01
45.80
45.63
45.08
43.68
41.13
37.29
32.24
26.27
19.81
13.35
7.31
1.98
-2.57
-6.44
-9.89
-13.14
-16.38
-19.66
-22.96
-26.26
-29.56
-32.98
-36.64
-40.64
-44.99
-49.60
-54.24
-58.58
-62.20
-64.60
-65.31
-63.96
-60.41
-54.78
-47.36
-38.56
-28.77
-18.46
-8.14
1.57
10.09
17.01
22.35
26.56
30.47
34.95
40.62
47.58
55.44
63.44
70.78
76.76
80.88
82.77
82.12
78.69
72.51
64.04
54.25
44.36
35.45
28.09
22.11
16.81
11.40
5.43
-1.04
-7.60
-13.83
-19.66
-25.36
-31.38
-38.01
-45.22
-52.66
-59.81
-66.16
-71.29
-74.77
-76.24
-75.31
-71.75
-65.57
-57.04
-46.75
-35.48
-24.08
-13.34
-3.84
4.30
11.45
18.48
26.38
35.90
47.12
59.33
71.21
81.10
87.57
89.76
87.56
81.59
73.00
63.10
53.07
43.74
35.50
28.40
22.33
17.16
12.73
8.89
5.41
2.00
-1.58
-5.40
-9.31
-13.01
-16.18
-18.64
-20.47
-21.98
-23.55
-25.49
-27.87
-30.46
-32.83
-34.48
-35.00
-34.21
-32.13
-28.88
-24.61
-19.45
-13.59
-7.32
-1.07
4.64
9.33
12.69
14.63
15.30
14.94
13.87
12.44
11.00
9.84
9.18
9.09
9.44
10.04
10.63
11.03
11.06
10.58
9.46
7.62
5.12
2.26
-0.52
-2.81
-4.43
-5.46
-6.19
-6.92
-7.82
-8.87
-9.98
-11.13
-12.47
-14.23
-16.58
-19.51
-22.74
-25.80
-28.17
-29.41
-29.25
-27.59
-24.46
-19.97
-14.29
-7.65
-0.36
7.15
14.42
20.93
26.26
30.14
32.48
33.41
33.22
32.28
30.96
29.58
28.37
27.46
26.84
26.41
25.96
25.29
24.20
22.61
20.57
18.21
15.71
13.15
10.51
7.69
4.62
1.29
-2.19
-5.68
-9.09
-12.41
-15.69
-19.07
-22.58
-26.28
-30.13
-34.15
-38.29
-42.42
-46.27
-49.38
-51.18
-51.11
-48.82
-44.30
-37.87
-30.12
-21.73
-13.30
-5.30
1.94
8.16
13.17
16.86
19.30
20.70
21.45
21.99
22.66
23.60
24.73
25.86
26.77
27.32
27.48
27.24
26.63
25.68
24.45
23.06
21.65
20.28
18.90
17.31
15.31
12.82
10.00
7.22
4.95
3.62
3.43
4.33
6.03
7.91
9.09
8.56
5.46
-0.63
-9.39
-19.67
-29.83
-38.18
-43.44
-45.06
-43.16
-38.30
-31.23
-22.65
-13.28
-3.83
4.93
12.21
17.40
20.22
20.85
19.87
18.02
15.98
14.10
12.36
10.48
8.08
4.95
1.10
-3.14
-7.31
-10.88
-13.40
-14.59
-14.37
-12.85
-10.34
-7.24
-3.99
-0.96
1.57
3.47
4.72
5.34
5.31
4.61
3.20
1.09
-1.60
-4.77
-8.35
-12.39
-17.00
-22.16
-27.51
-32.33
-35.61
-36.38
-34.11
-28.94
-21.67
-13.47
-5.43
1.70
7.71
12.74
17.05
20.70
23.58
25.46
26.19
25.91
25.02
24.02
23.35
23.15
23.34
23.65
23.79
23.56
22.89
21.81
20.37
18.62
16.63
14.44
12.16
9.85
7.60
5.45
3.42
1.55
-0.01
-1.06
-1.30
-0.49
1.45
4.25
7.24
9.36
9.41
6.40
-0.02
-9.33
-20.15
-30.65
-39.13
-44.57
-46.84
-46.53
-44.58
-41.83
-38.79
-35.74
-32.90
-30.59
-29.16
-28.91
-29.78
-31.43
-33.25
-34.63
-35.18
-34.83
-33.88
-32.80
-32.19
-32.58
-34.35
-37.61
-42.25
-47.96
-54.28
-60.67
-66.44
-70.75
-72.73
-71.62
-67.05
-59.08
-47.86
-33.42
-15.41
6.66
32.76
61.84
91.72
119.63
143.17
161.12
173.74
182.29
188.21
192.24
194.04
192.39
185.70
172.81
153.54
129.00
101.39
73.51
47.85
25.80
7.43
-8.21
-22.17
-34.77
-45.31
-52.41
-54.89
-52.53
-46.25
-37.71
-28.43
-19.16
-9.81
0.08
10.64
21.35
30.94
37.88
40.94
39.63
34.28
25.78
15.10
2.78
-11.15
-27.00
-44.90
-64.39
-84.41
-103.45
-120.08
-133.10
-141.63
-145.01
-142.76
-134.59
-120.70
-101.94
-79.70
-55.55
-30.81
-6.28
17.66
40.74
62.32
81.23
95.90
104.80
107.03
102.86
94.05
83.63
75.24
72.15
76.28
87.55
103.83
121.36
135.65
142.60
139.59
126.22
104.39
77.68
50.21
25.39
5.10
-10.38
-21.86
-30.51
-37.33
-43.00
-48.08
-53.20
-59.05
-66.10
-74.35
-83.26
-92.01
-99.90
-106.83
-113.35
-120.40
-128.72
-138.28
-148.04
-156.20
-160.74
-160.28
-154.54
-144.48
-131.94
-118.95
-107.06
-96.98
-88.54
-81.04
-73.62
-65.55
-56.33
-45.63
-33.32
-19.52
-4.64
10.54
25.12
38.40
50.05
60.19
69.06
76.72
82.74
86.35
86.84
84.07
78.63
71.77
64.84
58.79
53.93
49.94
46.22
42.29
37.92
33.06
27.73
21.76
14.86
6.78
-2.42
-12.29
-22.10
-31.14
-38.97
-45.46
-50.54
-53.94
-55.02
-52.97
-47.28
-38.17
-26.82
-15.08
-4.89
2.44
6.66
8.62
9.78
11.53
14.63
18.99
23.91
28.48
32.10
34.58
36.07
36.78
36.78
36.23
35.69
36.42
40.06
47.84
59.59
73.33
85.65
93.11
93.69
87.79
78.01
67.74
59.47
53.67
48.81
42.50
32.94
19.94
4.87
-9.93
-22.12
-30.22
-34.20
-35.77
-38.09
-45.02
-59.94
-84.73
-118.83
-159.06
-200.19
-236.07
-261.00
-271.08
-265.20
-245.40
-216.24
-183.37
-151.73
-124.15
-101.09
-81.59
-64.88
-51.45
-42.77
-39.90
-42.09
-46.58
-49.70
-48.65
-42.89
-34.13
-25.13
-17.99
-13.22
-9.85
-6.50
-2.33
2.71
8.11
13.50
18.98
24.90
31.46
38.38
45.01
50.87
56.01
61.18
67.51
76.08
87.72
102.64
120.33
139.63
158.90
176.24
189.74
197.98
200.39
197.49
190.46
180.54
168.36
154.01
137.30
118.06
96.20
71.39
43.27
11.29
-24.54
-62.82
-100.45
-133.65
-159.74
-178.40
-191.49
-199.90
-202.93
-197.98
-182.02
-153.80
-115.67
-73.80
-36.19
-9.20
7.51
18.39
28.62
40.91
54.79
67.77
77.18
81.91
83.17
87.79
101.85
127.02
159.66
193.67
224.27
249.57
270.23
287.95
308.87
336.59
370.07
404.29
433.99
456.90
473.32
484.37
460.07
383.83
262.06
123.56
-0.70
-94.52
-157.16
-196.58
-222.42
-241.90
-253.41
-253.55
-241.51
-220.72
-198.07
-179.01
-166.13
-159.45
-157.61
-155.39
-149.22
-139.11
-128.39
-120.91
-118.10
-118.91
-120.85
-121.25
-116.42
-104.83
-87.68
-68.10
-49.43
-33.41
-20.36
-9.88
-1.84
4.38
8.77
10.71
9.24
3.37
-7.35
-22.95
-41.90
-60.55
-74.61
-82.10
-83.60
-80.85
-75.48
-68.50
-60.28
-50.95
-40.80
-30.60
-21.69
-15.21
-11.86
-11.76
-14.40
-18.59
-22.68
-25.98
-27.32
-26.61
-24.40
-21.48
-18.69
-16.63
-15.43
-14.81
-14.31
-13.45
-12.21
-10.62
-8.63
-6.12
-2.88
1.35
6.82
13.55
21.98
31.52
41.28
50.46
58.62
65.72
72.04
77.89
83.32
88.05
91.29
92.22
90.31
85.54
78.60
70.87
64.15
60.12
59.73
62.62
67.24
71.33
72.80
70.66
65.42
58.91
53.43
50.92
52.21
56.91
63.58
70.01
73.69
72.37
64.93
52.13
36.80
23.13
14.82
13.01
14.99
14.63
4.50
-21.00
-63.01
-117.50
-176.35
-230.32
-272.25
-299.20
-312.84
-318.15
-321.15
-326.63
-336.59
-349.68
-361.64
-366.75
-359.53
-336.25
-295.88
-240.01
-171.90
-95.26
-13.27
71.28
155.15
233.53
299.71
346.42
368.28
364.27
338.69
299.81
256.96
217.46
184.85
158.76
136.80
116.64
97.47
80.28
66.93
58.75
55.65
55.83
56.31
53.89
46.25
32.86
15.32
-2.84
-17.42
-25.21
-25.67
-21.39
-17.00
-17.48
-26.14
-43.96
-70.11
-102.94
-140.36
-179.43
-215.79
-244.10
-259.53
-259.62
-245.37
-220.22
-187.81
-149.66
-104.46
-49.35
17.42
94.40
176.59
256.98
329.02
388.48
434.00
466.42
487.39
498.36
499.87
491.70
473.46
445.33
408.81
366.44
321.19
275.51
230.55
185.99
140.69
93.49
44.14
-6.40
-56.21
-103.31
-146.47
-185.81
-222.69
-259.02
-296.62
-336.98
-381.40
-431.09
-486.55
-546.36
-606.11
-658.47
-694.95
-708.84
-697.90
-665.17
-617.72
-563.76
-509.80
-459.22
-412.66
-369.38
-328.61
-289.93
-252.99
-216.92
-180.36
-142.01
-101.29
-58.75
-15.68
26.34
66.39
104.86
143.51
184.88
231.00
281.74
333.85
381.29
416.91
435.03
433.54
414.63
383.70
347.16
310.42
276.67
247.02
221.28
198.81
178.91
160.89
144.03
127.71
111.65
96.16
81.96
69.85
60.47
54.04
50.36
48.86
48.72
49.08
49.11
48.29
46.56
44.38
42.58
42.03
43.37
46.76
51.86
58.06
64.75
71.41
77.54
82.25
84.00
80.74
70.68
53.22
29.68
3.26
-21.90
-42.27
-56.16
-64.14
-68.28
-70.80
-72.73
-73.40
-70.92
-63.59
-50.91
-34.07
-15.69
0.97
12.79
17.09
11.90
-3.49
-27.71
-56.76
-84.44
-104.16
-111.56
-106.61
-94.00
-81.21
-75.14
-78.98
-90.85
-104.99
-114.68
-115.34
-106.11
-89.51
-69.46
-48.87
-28.36
-6.45
18.84
48.09
79.52
109.33
133.27
148.52
154.42
151.94
142.20
125.11
99.04
61.83
12.61
-46.46
-109.55
-167.94
-212.21
-234.92
-232.75
-207.28
-164.01
-109.95
-51.02
9.68
71.81
136.10
202.11
266.73
324.40
368.90
395.86
404.41
397.38
379.91
357.47
334.36
313.04
294.29
277.83
263.03
249.08
234.93
219.19
200.25
176.80
148.31
115.37
79.41
42.56
6.80
-26.68
-58.00
-88.71
-121.74
-160.75
-208.95
-267.59
-333.86
-400.26
-455.87
-489.65
-494.26
-468.66
-418.20
-352.15
-280.52
-209.87
-142.40
-77.80
-16.29
39.59
85.41
116.96
132.22
130.97
116.36
93.28
66.32
37.92
8.09
-24.14
-59.76
-99.52
-146.49
-202.45
-266.69
-335.44
-402.35
-459.29
-497.84
-511.94
-500.29
-469.89
-429.64
-386.70
-344.73
-304.70
-266.24
-228.72
-192.17
-139.25
-67.95
10.11
78.56
128.30
159.59
177.09
185.69
188.65
189.42
186.23
178.35
167.54
157.16
150.11
148.09
152.20
164.02
181.73
202.92
226.78
253.58
282.71
310.77
331.82
339.75
331.20
307.26
272.25
233.60
198.97
173.28
157.02
147.13
139.54
131.44
122.09
111.90
101.95
93.10
85.41
78.19
70.48
61.84
52.36
42.40
32.27
22.10
12.00
2.12
-7.24
-15.68
-22.72
-28.08
-31.91
-34.79
-37.68
-41.61
-47.16
-54.12
-61.45
-67.52
-70.66
-69.87
-65.12
-57.51
-48.74
-40.50
-33.72
-28.40
-23.75
-18.73
-12.67
-5.54
2.21
10.06
17.93
26.38
36.36
48.71
63.55
80.07
96.71
111.56
122.91
129.56
130.96
127.21
118.99
107.53
94.33
80.55
66.45
50.96
31.94
7.23
-24.13
-60.90
-99.68
-135.90
-165.51
-186.30
-198.43
-203.70
-204.36
-202.01
-197.23
-189.98
-180.31
-168.80
-156.38
-143.73
-130.82
-116.94
-101.25
-83.55
-64.65
-46.13
-29.62
-16.05
-5.36
3.18
10.45
16.95
22.73
27.55
31.22
33.81
35.51
36.59
37.15
37.19
36.64
35.40
33.41
30.59
26.89
22.27
16.78
10.64
4.18
-2.24
-8.32
-13.99
-19.34
-24.55
-29.68
-34.55
-38.67
-41.39
-42.08
-40.42
-36.46
-30.66
-23.68
-16.13
-8.38
-0.55
7.35
15.17
22.49
28.62
33.00
35.48
36.50
37.02
37.99
40.05
43.22
46.98
50.66
53.63
55.47
55.92
54.74
51.82
47.26
41.59
35.62
30.20
25.81
22.29
19.00
15.17
10.34
4.66
-1.21
-6.55
-11.01
-14.98
-19.39
-25.20
-32.82
-41.67
-50.33
-57.02
-60.38
-59.84
-55.72
-48.85
-40.10
-30.04
-18.69
-5.48
10.79
31.64
58.47
91.82
130.62
171.80
210.65
241.82
260.79
265.14
254.99
232.74
201.84
165.47
125.45
82.14
35.20
-14.91
-65.65
-112.08
-147.89
-167.64
-168.98
-153.99
-128.63
-100.73
-77.43
-63.33
-60.03
-66.95
-82.40
-104.13
-129.31
-154.32
-175.05
-188.03
-191.63
-186.75
-176.42
-164.48
-153.91
-145.81
-139.37
-132.66
-123.87
-112.16
-97.90
-82.36
-67.14
-53.51
-42.01
-32.43
-24.16
-16.62
-9.67
-3.58
1.25
4.70
7.17
9.39
12.03
15.30
18.76
21.55
22.76
21.98
19.58
16.55
13.97
12.45
11.64
10.29
6.92
0.64
-8.25
-18.34
-27.72
-35.03
-40.03
-43.71
-47.73
-53.55
-61.75
-71.82
-82.30
-91.28
-96.89
-97.84
-93.62
-84.59
-71.81
-56.79
-41.17
-26.54
-14.14
-4.66
1.99
6.79
11.32
17.19
25.25
35.24
45.84
55.50
63.22
69.10
74.06
79.10
84.50
89.66
93.55
95.61
96.30
97.01
99.22
103.64
109.72
115.95
120.70
123.08
123.44
123.16
124.01
127.41
133.84
142.73
152.77
162.42
170.46
176.29
179.88
181.61
181.94
181.31
180.16
178.90
177.70
176.03
172.24
163.63
147.18
120.97
85.50
44.20
2.61
-33.44
-59.80
-75.22
-81.13
-80.58
-76.67
-71.66
-66.82
-62.92
-60.71
-61.03
-64.37
-70.40
-77.75
-84.39
-88.47
-89.12
-86.82
-83.10
-79.78
-78.08
-78.16
-79.12
-79.56
-78.33
-75.05
-70.35
-65.61
-62.39
-61.78
-63.95
-68.07
-72.56
-75.80
-76.79
-75.84
-74.78
-76.46
-83.85
-98.66
-120.44
-146.46
-172.51
-194.40
-209.54
-217.80
-221.24
-222.94
-225.39
-229.50
-234.43
-238.32
-239.24
-235.91
-227.84
-214.98
-197.40
-175.04
-147.82
-115.68
-78.64
-36.78
9.46
58.87
108.97
155.94
195.30
223.20
237.69
239.41
231.22
217.06
200.60
184.38
169.56
156.43
144.92
134.97
126.40
118.78
111.23
102.69
92.31
79.88
66.10
52.48
40.89
32.90
29.32
29.97
33.96
40.19
47.92
57.05
67.96
80.99
95.94
111.76
126.85
139.58
149.00
155.18
159.04
161.89
164.71
167.87
171.10
173.84
175.50
175.66
174.01
170.16
163.68
154.18
141.55
125.97
107.63
86.49
62.29
34.95
5.10
-25.44
-54.01
-77.96
-95.93
-108.65
-118.52
-128.23
-139.27
-151.21
-162.02
-169.31
-171.50
-168.57
-162.18
-154.47
-146.95
-139.83
-132.46
-123.90
-113.52
-101.15
-87.10
-72.75
-59.64
-48.84
-40.40
-33.86
-28.56
-24.08
-20.12
-16.56
-14.56
-15.12
-18.23
-22.23
-24.98
-24.79
-21.18
-14.57
-6.06
1.30
4.34
1.01
-8.71
-23.87
-43.22
-65.90
-90.95
-107.46
-106.58
-86.54
-54.50
-20.16
10.12
34.72
54.02
69.19
81.02
88.26
89.46
82.79
70.73
56.59
43.40
32.34
23.34
14.90
3.35
-14.82
-41.01
-73.52
-109.62
-140.98
-163.13
-174.31
-174.81
-166.47
-150.74
-127.81
-96.62
-56.49
-7.67
47.74
107.44
169.19
229.93
285.42
330.27
359.08
367.81
355.65
325.05
281.80
233.65
187.89
149.64
121.10
102.03
90.75
85.72
85.93
91.44
102.26
117.02
132.18
142.74
143.99
133.48
112.22
83.88
53.07
23.17
-5.16
-33.89
-66.41
-105.62
-151.82
-201.84
-249.60
-287.62
-309.44
-311.74
-295.42
-265.00
-226.69
-186.15
-146.96
-110.53
-77.18
-47.40
-22.39
-3.86
6.85
9.29
4.02
-7.69
-24.21
-43.46
-62.79
-79.27
-90.28
-94.26
-91.28
-82.94
-71.66
-59.51
-47.83
-37.47
-29.28
-24.53
-24.64
-30.51
-41.80
-56.65
-72.33
-86.09
-95.91
-100.90
-101.21
-97.58
-91.06
-82.75
-73.56
-64.05
-54.28
-44.01
-32.95
-21.12
-8.91
3.02
14.07
23.86
32.06
38.33
42.30
43.94
43.88
43.45
44.20
47.07
51.81
57.05
60.99
62.36
60.94
57.54
53.29
48.91
44.31
38.70
31.19
21.32
9.43
-3.43
-15.92
-26.83
-35.45
-41.61
-45.48
-47.29
-47.27
-45.74
-43.37
-41.25
-40.66
-42.46
-46.45
-51.18
-54.23
-52.99
-45.61
-31.73
-12.59
9.31
30.68
47.96
58.00
58.69
49.61
32.52
11.15
-9.64
-25.27
-32.99
-32.81
-27.38
-20.69
-16.47
-16.67
-20.91
-26.76
-30.79
-29.88
-22.35
-8.73
8.16
23.90
33.84
34.70
25.83
9.48
-9.98
-27.53
-39.30
-43.63
-41.24
-34.56
-26.67
-20.42
-17.91
-20.29
-27.61
-38.61
-50.57
-59.59
-61.51
-53.24
-34.03
-5.99
26.50
58.27
85.00
104.38
116.32
122.49
125.59
128.41
132.93
139.41
146.01
149.28
145.71
133.66
114.50
92.16
71.12
54.11
40.96
29.13
15.62
-1.22
-21.18
-42.78
-64.66
-86.21
-107.27
-127.18
-144.12
-155.43
-158.58
-152.45
-137.90
-117.56
-94.83
-72.67
-52.72
-35.18
-19.32
-4.36
9.72
22.16
31.84
38.10
41.03
41.39
40.16
38.05
35.45
32.73
30.48
29.44
29.87
30.99
30.74
26.35
15.47
-2.96
-28.53
-59.60
-94.02
-129.21
-162.33
-190.25
-209.92
-219.24
-217.88
-207.71
-192.31
-175.62
-160.37
-147.06
-134.33
-120.16
-103.40
-84.44
-64.73
-45.38
-25.95
-4.51
21.23
52.37
87.79
124.37
158.34
186.60
206.98
217.84
217.47
204.76
180.47
148.77
117.11
93.84
84.50
88.87
101.29
114.26
123.50
130.46
140.89
160.14
188.29
218.57
240.11
243.66
226.73
195.26
159.44
127.83
103.14
82.24
59.84
33.09
3.95
-21.85
-37.02
-38.02
-27.02
-9.92
7.59
22.94
36.79
51.18
67.25
87.04
109.96
133.02
152.59
166.90
176.93
185.21
194.10
204.78
221.62
245.92
274.62
301.51
321.14
331.72
334.75
333.45
330.96
335.40
350.76
374.63
399.50
417.50
424.60
420.59
407.58
350.28
235.88
80.09
-81.15
-217.27
-316.84
-381.97
-419.93
-438.60
-444.99
-438.97
-422.88
-401.61
-381.76
-368.41
-362.34
-361.96
-365.46
-371.66
-375.06
-372.10
-364.04
-349.97
-331.55
-309.59
-284.79
-257.84
-229.00
-195.43
-156.38
-117.03
-86.77
-74.82
-84.47
-111.95
-147.33
-177.99
-192.05
-177.47
-134.64
-78.31
-28.28
4.38
20.30
26.56
29.82
33.40
37.48
39.48
37.87
33.77
31.78
34.30
41.58
51.82
62.20
71.16
77.70
82.86
89.56
101.26
119.30
142.33
167.17
185.50
192.54
186.50
169.55
146.92
124.72
107.16
95.68
89.23
85.69
83.87
82.98
82.80
83.36
84.43
85.14
84.49
81.92
77.59
72.99
69.64
68.52
69.87
73.14
77.25
81.09
83.91
85.35
85.90
86.25
87.33
90.07
95.13
102.39
110.61
117.34
119.44
114.14
99.80
76.28
44.83
7.41
-33.90
-77.14
-120.38
-161.50
-198.09
-228.06
-250.48
-266.21
-277.78
-288.19
-299.20
-310.07
-317.42
-316.67
-304.14
-278.65
-241.99
-198.04
-151.45
-106.53
-66.87
-35.21
-13.28
-1.30
2.50
1.81
1.13
4.13
12.23
24.35
37.93
50.47
60.78
69.18
76.88
84.96
93.72
102.82
111.64
119.77
127.04
133.15
137.27
137.85
133.16
122.02
104.58
82.46
58.18
34.18
11.98
-8.07
-26.46
-43.70
-59.80
-74.31
-86.97
-98.35
-109.84
-122.94
-138.21
-154.75
-170.43
-182.90
-190.88
-195.01
-197.05
-198.39
-198.56
-194.81
-183.97
-165.36
-143.04
-125.49
-121.92
-137.18
-168.12
-204.30
-232.84
-244.94
-240.07
-225.28
-210.11
-200.43
-195.12
-187.49
-170.29
-140.48
-100.93
-58.28
-18.63
16.01
48.41
83.70
125.64
173.87
223.51
266.95
297.21
310.86
309.39
298.25
284.04
271.34
260.73
249.26
232.66
208.33
177.08
142.92
111.06
85.59
68.12
57.79
52.39
49.65
48.02
46.79
45.80
44.98
44.14
42.85
40.57
36.88
31.81
26.09
20.96
17.73
17.14
18.98
22.20
25.54
28.17
29.97
31.31
32.61
33.85
34.67
34.63
33.62
32.02
30.53
29.83
30.27
31.74
33.82
35.88
37.41
38.08
37.81
36.89
35.91
35.63
36.68
38.96
41.29
41.44
36.67
24.48
3.30
-26.90
-64.68
-107.38
-151.27
-191.81
-224.53
-246.27
-256.22
-256.18
-249.47
-239.27
-226.91
-211.38
-190.46
-163.01
-130.74
-98.21
-70.68
-50.87
-38.29
-30.48
-25.48
-23.69
-27.68
-40.29
-61.88
-89.02
-114.21
-130.73
-136.30
-133.61
-127.65
-122.20
-117.89
-112.95
-105.68
-94.03
-79.94
-68.98
-66.94
-75.20
-89.21
-100.93
-102.75
-90.53
-60.09
-11.62
50.53
120.47
194.09
269.66
345.16
416.17
476.01
523.94
560.48
586.17
601.69
609.78
614.73
619.66
624.63
590.50
496.81
354.28
198.10
60.14
-45.55
-119.12
-167.45
-199.19
-222.04
-235.21
-236.79
-227.51
-211.72
-194.26
-178.75
-167.63
-162.49
-163.82
-166.32
-165.18
-158.95
-149.60
-139.06
-127.18
-112.31
-93.29
-70.93
-45.55
-19.61
3.19
18.97
26.42
27.36
25.10
22.09
19.04
16.84
15.91
16.37
18.07
21.05
25.25
30.25
34.86
37.55
38.03
37.11
36.61
38.67
45.41
58.05
76.67
99.60
123.97
146.73
165.46
178.98
187.44
192.11
192.73
190.24
185.53
179.09
171.01
161.16
149.47
135.99
120.71
103.35
83.53
60.45
33.45
2.62
-30.99
-65.62
-99.26
-130.53
-158.88
-184.51
-208.42
-231.99
-256.69
-284.25
-316.76
-356.38
-404.32
-459.14
-515.45
-564.47
-596.21
-602.92
-582.03
-537.14
-476.32
-408.70
-341.23
-276.97
-215.76
-156.07
-96.75
-37.53
21.63
81.44
143.25
207.83
273.50
335.27
385.67
417.31
426.11
413.34
385.31
350.74
317.19
288.52
264.47
242.32
219.21
193.66
165.44
134.55
100.44
62.41
20.77
-22.07
-61.88
-93.99
-115.21
-124.87
-124.59
-117.05
-104.71
-89.27
-71.96
-54.09
-37.18
-22.44
-10.45
-1.01
6.29
11.51
14.22
13.80
10.19
4.35
-1.91
-6.58
-8.24
-6.67
-2.93
1.17
3.85
4.15
2.39
-0.02
-1.55
-1.37
-0.04
0.85
-0.27
-3.97
-9.21
-13.91
-16.05
-14.75
-10.73
-5.93
-2.61
-2.38
-5.66
-11.76
-19.46
-27.70
-36.10
-44.86
-54.33
-64.35
-73.98
-81.56
-85.39
-84.35
-78.34
-68.30
-55.81
-42.75
-31.03
-22.26
-17.49
-16.67
-18.46
-20.66
-21.27
-19.72
-17.54
-17.77
-23.39
-35.75
-53.82
-74.52
-94.09
-109.19
-117.42
-117.19
-107.57
-88.58
-61.88
-31.15
-1.32
23.10
39.96
50.34
57.68
65.77
76.72
90.30
104.69
117.95
129.10
138.18
145.48
150.69
152.69
150.10
142.18
129.39
113.36
96.23
80.12
66.50
56.04
48.68
43.80
40.46
37.88
35.65
33.89
33.02
33.27
34.47
35.89
36.61
35.86
33.44
29.74
25.40
21.05
17.00
13.27
9.75
6.36
3.07
0.03
-2.46
-3.92
-3.96
-2.55
-0.42
0.97
-0.06
-4.57
-12.21
-21.20
-29.14
-34.20
-36.10
-36.17
-36.47
-38.56
-42.68
-47.93
-53.01
-57.16
-60.37
-62.95
-64.83
-65.15
-62.56
-55.94
-45.15
-31.25
-16.04
-1.35
11.52
22.03
30.09
35.83
39.45
41.35
42.11
42.43
42.82
43.34
43.57
42.91
41.05
38.25
35.25
32.90
31.65
31.26
30.99
29.95
27.71
24.42
20.69
17.13
13.91
10.71
6.87
1.94
-4.00
-10.21
-15.67
-19.62
-22.01
-23.64
-25.83
-29.85
-36.31
-44.89
-54.37
-63.04
-69.21
-71.76
-70.36
-65.49
-58.15
-49.39
-39.99
-30.28
-20.27
-9.95
0.39
10.13
18.50
24.92
29.21
31.69
32.91
33.43
33.67
33.86
34.09
34.40
34.75
35.00
34.93
34.24
32.69
30.17
26.77
22.76
18.53
14.46
10.79
7.55
4.58
1.56
-1.78
-5.58
-9.77
-14.07
-18.11
-21.67
-24.74
-27.69
-31.08
-35.49
-41.26
-48.25
-55.79
-62.81
-68.15
-70.84
-70.28
-66.27
-59.06
-49.19
-37.48
-24.88
-12.36
-0.72
9.52
18.13
25.07
30.38
34.19
36.79
38.60
40.14
41.78
43.63
45.48
47.06
48.21
48.97
49.50
49.80
49.66
48.71
46.70
43.77
40.38
37.11
34.25
31.53
28.28
23.77
17.71
10.45
2.85
-4.09
-9.73
-14.02
-17.44
-20.75
-24.62
-29.40
-35.11
-41.51
-48.22
-54.76
-60.46
-64.49
-66.03
-64.53
-59.96
-52.89
-44.23
-34.90
-25.55
-16.50
-7.91
-0.03
6.72
11.90
15.39
17.50
19.00
20.75
23.31
26.71
30.45
33.84
36.25
37.46
37.59
36.97
35.86
34.34
32.28
29.54
26.07
21.99
17.58
13.09
8.65
4.31
0.02
-4.26
-8.50
-12.68
-16.78
-20.86
-25.03
-29.39
-34.08
-39.23
-44.95
-51.18
-57.56
-63.30
-67.35
-68.68
-66.68
-61.45
-53.73
-44.53
-34.78
-24.93
-15.13
-5.39
4.03
12.61
19.69
24.83
28.04
29.85
31.09
32.54
34.64
37.35
40.26
42.81
44.55
45.34
45.26
44.53
43.35
41.71
39.52
36.65
33.13
29.15
25.04
21.06
17.28
13.59
9.76
5.52
0.74
-4.54
-10.15
-15.86
-21.51
-27.08
-32.83
-39.08
-46.13
-53.91
-61.92
-69.17
-74.53
-77.03
-76.15
-71.94
-64.85
-55.53
-44.64
-32.87
-20.97
-9.76
-0.03
7.74
13.59
18.06
21.98
26.04
30.54
35.37
40.14
44.55
48.52
52.19
55.71
59.04
61.88
63.73
64.09
62.64
59.35
54.49
48.62
42.49
36.92
32.60
29.91
28.81
28.78
29.03
28.74
27.27
24.29
19.81
14.06
7.40
0.17
-7.41
-15.33
-23.75
-32.82
-42.44
-51.96
-60.23
-65.83
-67.60
-65.11
-58.78
-49.59
-38.65
-26.66
-13.91
-0.56
12.97
25.74
36.47
44.00
47.87
48.47
46.88
44.41
42.08
40.45
39.63
39.48
39.84
40.52
41.30
41.84
41.76
40.71
38.46
34.97
30.25
24.33
17.13
8.63
-1.18
-12.16
-23.93
-35.77
-46.66
-55.38
-61.01
-63.45
-63.83
-64.27
-67.11
-73.74
-83.64
-94.40
-102.62
-105.31
-100.90
-89.44
-72.10
-50.44
-26.03
-0.61
23.69
44.43
59.50
67.94
70.48
69.25
66.85
65.30
65.34
66.63
68.26
69.43
69.68
68.82
66.70
63.07
57.78
51.04
43.60
36.57
31.05
27.47
25.46
23.99
21.92
18.64
14.31
9.70
5.67
2.64
0.41
-1.72
-4.51
-8.38
-13.31
-18.93
-24.79
-30.54
-35.96
-40.89
-45.13
-48.43
-50.59
-51.51
-51.22
-49.65
-46.61
-41.79
-34.91
-26.04
-15.76
-5.10
4.81
13.18
19.82
25.12
29.62
33.74
37.48
40.63
43.02
44.75
46.13
47.40
48.56
49.25
49.11
48.00
46.21
44.22
42.40
40.69
38.58
35.45
30.89
25.00
18.29
11.42
4.82
-1.40
-7.39
-13.27
-18.97
-24.21
-28.71
-32.43
-35.69
-38.95
-42.59
-46.52
-50.10
-52.29
-52.04
-48.69
-42.27
-33.43
-23.17
-12.45
-1.89
8.25
17.94
27.05
35.21
41.85
46.42
48.68
48.90
47.80
46.26
45.06
44.60
44.84
45.44
45.94
45.99
45.51
44.67
43.81
43.18
42.82
42.49
41.78
40.32
38.03
35.14
31.98
28.75
25.18
20.58
14.19
5.59
-4.94
-16.40
-27.44
-36.84
-43.94
-48.49
-50.18
-48.10
-40.66
-26.18
-3.93
25.05
57.95
91.12
121.27
146.30
165.22
177.53
182.40
178.64
165.19
141.93
110.06
71.50
27.99
-19.50
-70.51
-123.86
-176.56
-223.49
-258.43
-276.26
-275.05
-257.35
-229.48
-199.34
-173.53
-155.31
-144.25
-137.62
-132.40
-126.91
-121.02
-115.19
-109.24
-101.80
-90.95
-75.65
-56.97
-38.25
-23.92
-17.59
-20.55
-31.22
-45.77
-59.62
-68.99
-72.01
-68.92
-61.38
-51.40
-40.36
-28.55
-15.63
-1.33
13.90
28.74
41.42
50.39
54.90
55.04
51.61
45.79
38.94
32.44
27.68
25.71
26.85
30.35
34.34
36.27
33.89
26.20
14.23
0.97
-9.56
-13.77
-9.93
1.26
17.11
34.14
49.38
60.98
68.23
71.06
69.74
64.83
57.26
48.38
39.68
32.44
27.53
25.52
26.96
32.52
42.70
57.39
75.58
95.46
114.94
132.16
145.82
155.10
159.55
159.09
154.01
145.13
133.75
121.58
110.41
101.82
96.63
94.53
93.88
91.86
85.04
70.19
45.12
9.67
-33.85
-80.58
-123.69
-155.59
-170.03
-163.87
-138.45
-99.47
-55.68
-16.66
9.54
17.98
7.44
-19.83
-58.68
-102.11
-142.39
-172.60
-188.42
-189.48
-179.34
-164.05
-149.90
-141.04
-138.59
-141.32
-147.33
-155.27
-164.39
-173.47
-179.77
-178.88
-166.29
-139.64
-100.38
-53.58
-6.10
36.06
69.50
93.75
110.09
119.99
124.07
121.99
113.10
97.36
76.08
52.03
28.84
10.04
-2.16
-7.65
-8.29
-6.92
-6.06
-7.06
-9.82
-13.48
-17.18
-20.71
-24.40
-28.78
-34.08
-40.10
-46.48
-52.97
-59.39
-65.40
-70.13
-72.09
-69.51
-61.06
-46.61
-27.52
-6.48
13.24
28.75
38.47
42.66
43.47
44.20
48.14
57.27
71.45
88.51
105.37
119.39
129.53
136.60
142.58
149.53
158.54
169.31
180.49
190.52
198.30
203.56
206.57
207.64
206.40
201.83
192.72
178.73
161.23
142.91
126.55
113.02
100.33
84.54
62.09
32.37
-1.48
-34.31
-61.93
-83.46
-101.24
-118.51
-136.26
-152.02
-161.43
-161.62
-154.08
-144.53
-139.86
-144.43
-157.75
-175.14
-190.43
-199.02
-199.41
-192.64
-180.74
-165.11
-146.28
-124.49
-100.31
-74.85
-49.14
-23.54
2.22
28.59
55.28
80.81
102.73
118.28
125.23
122.71
111.73
94.91
75.79
57.66
42.58
31.11
22.57
15.70
9.59
4.21
0.35
-0.86
1.33
6.95
15.36
25.69
37.26
49.79
63.15
76.94
90.25
101.66
109.72
113.51
113.01
109.07
103.07
96.38
89.93
84.07
78.53
72.67
65.67
56.83
46.03
33.93
21.77
10.78
1.30
-7.70
-18.28
-32.31
-49.98
-69.05
-85.33
-94.49
-94.21
-85.44
-72.00
-58.72
-49.08
-43.78
-40.86
-37.25
-30.57
-20.24
-7.46
5.52
16.20
22.12
20.94
10.73
-9.15
-36.97
-68.25
-96.66
-116.03
-122.68
-116.78
-102.17
-84.60
-69.51
-60.20
-57.24
-59.12
-63.40
-67.89
-71.15
-72.40
-71.09
-66.64
-58.60
-47.05
-33.08
-18.82
-6.98
0.09
1.32
-2.59
-9.29
-15.70
-18.99
-17.53
-11.36
-2.07
7.81
15.88
20.95
23.59
25.93
30.74
40.17
54.79
73.62
94.78
116.59
138.31
160.24
183.30
208.38
235.87
265.28
295.14
323.02
345.68
359.69
362.34
352.35
330.09
297.14
255.72
208.53
159.07
112.25
74.20
51.13
47.07
62.03
91.07
125.59
155.98
174.57
177.69
165.97
143.14
113.95
82.61
51.93
23.25
-3.06
-27.34
-50.67
-74.87
-101.94
-132.89
-166.18
-197.03
-218.51
-224.38
-212.37
-186.06
-154.01
-126.31
-110.41
-108.40
-117.15
-130.94
-145.00
-157.70
-170.54
-186.43
-207.40
-233.23
-261.47
-288.69
-312.04
-330.17
-343.42
-353.04
-359.96
-364.01
-363.67
-356.66
-341.04
-316.06
-282.51
-242.46
-198.72
-154.49
-113.17
-78.28
-52.93
-38.67
-34.51
-36.98
-41.84
-46.37
-51.28
-60.26
-77.53
-104.54
-137.79
-169.40
-190.31
-194.12
-179.75
-151.66
-117.43
-84.49
-57.65
-38.23
-24.71
-14.17
-3.79
7.87
20.01
29.36
31.03
20.40
-4.71
-42.27
-86.10
-128.01
-161.13
-182.34
-192.54
-194.50
-189.82
-177.27
-153.66
-117.46
-72.68
-29.98
-3.42
-4.07
-34.19
-85.11
-141.09
-185.46
-207.67
-207.06
-191.78
-173.30
-160.22
-154.69
-152.66
-148.72
-138.41
-120.58
-97.55
-73.49
-51.63
-32.21
-12.79
9.80
34.96
60.20
82.22
98.56
108.31
112.49
113.23
111.96
108.68
99.38
82.05
58.54
34.34
15.22
4.87
3.72
9.32
32.86
72.95
118.58
156.84
181.69
193.29
194.56
189.66
181.19
172.16
163.13
157.13
155.46
160.32
172.14
189.38
209.26
228.33
244.56
253.05
252.71
245.84
237.33
231.37
229.15
228.16
222.91
210.05
184.13
147.75
108.98
77.85
61.16
59.53
67.78
77.78
85.25
81.51
64.59
35.15
-4.24
-49.62
-95.24
-133.81
-157.96
-158.47
-138.91
-102.45
-54.41
0.25
58.70
120.45
185.90
227.65
273.34
310.80
331.76
330.25
305.16
261.35
208.41
157.52
117.75
97.21
89.96
90.90
94.64
98.22
101.94
107.79
116.93
127.78
139.44
144.01
139.32
127.17
112.60
101.05
95.05
92.87
89.64
82.60
67.73
47.24
26.11
9.26
-0.94
-5.39
-7.18
-9.42
-12.77
-18.24
-24.80
-31.24
-36.71
-40.85
-43.72
-45.76
-47.81
-51.01
-57.84
-69.81
-86.91
-107.28
-127.72
-144.82
-155.45
-156.89
-147.31
-126.62
-96.43
-59.91
-21.04
16.50
50.32
80.05
106.90
131.90
153.59
168.43
172.34
164.01
148.43
132.63
121.10
114.16
111.62
109.62
103.57
90.77
71.96
50.37
29.32
10.66
-5.45
-19.67
-32.32
-41.74
-44.77
-38.65
-23.20
-1.47
21.78
42.74
59.92
73.57
84.86
94.41
101.71
105.60
105.33
101.50
96.04
91.08
87.52
84.88
81.85
77.12
69.97
60.28
48.50
35.00
20.93
8.34
-0.40
-3.82
-2.14
2.72
8.02
11.41
11.13
7.15
0.90
-5.64
-10.96
-14.58
-16.64
-17.57
-17.91
-19.98
-25.67
-35.32
-47.69
-60.92
-73.45
-84.19
-92.66
-99.16
-109.29
-127.22
-153.08
-183.33
-213.94
-241.95
-264.90
-280.18
-285.45
-289.48
-300.11
-319.44
-344.04
-369.90
-394.87
-417.45
-436.03
-449.37
-472.80
-517.44
-581.54
-651.65
-713.43
-758.99
-786.87
-800.09
-803.99
-824.38
-879.19
-967.68
-1073.68
-1180.69
-1280.32
-1370.10
-1448.51
-1388.58
-1130.71
-718.44
-267.95
122.50
413.37
608.00
727.95
798.05
839.52
846.72
814.39
749.93
673.14
603.56
551.49
518.86
502.59
498.06
484.97
449.42
392.61
328.52
272.06
231.79
210.56
203.74
207.12
207.08
194.36
169.18
139.68
114.40
97.63
89.77
89.15
94.06
98.08
96.83
90.41
82.52
76.86
74.98
76.66
80.97
87.54
94.41
100.28
105.12
109.69
114.35
118.66
122.08
124.66
127.62
132.59
140.98
153.11
168.05
183.77
197.99
209.21
217.40
224.34
232.90
246.18
266.26
293.19
324.47
355.32
379.75
392.07
388.30
367.10
330.29
282.50
230.18
179.85
136.07
99.86
68.68
37.89
3.66
-34.55
-73.13
-106.06
-128.28
-138.96
-142.23
-145.43
-155.00
-172.78
-194.72
-212.79
-219.11
-209.30
-183.95
-147.03
-103.71
-58.31
-13.66
28.07
64.26
91.50
106.64
108.46
99.40
84.51
69.42
58.18
52.18
50.31
49.98
48.84
45.51
41.37
37.84
35.08
31.82
26.59
18.90
9.19
-0.89
-9.76
-12.81
-7.16
7.29
27.96
51.86
77.02
101.73
125.64
147.88
172.64
202.03
234.49
265.27
290.46
309.83
325.56
342.62
363.88
395.91
439.15
486.54
526.15
548.12
549.31
531.70
502.71
423.86
279.69
85.03
-121.09
-303.01
-445.18
-541.93
-611.56
-666.22
-712.19
-744.03
-756.57
-746.14
-714.83
-667.77
-610.50
-549.71
-489.57
-434.33
-380.83
-326.52
-272.13
-221.82
-179.14
-144.08
-114.35
-84.60
-50.91
-6.49
50.32
113.71
171.41
210.44
222.86
208.10
174.61
135.53
109.10
106.84
128.25
161.80
192.66
210.80
214.56
210.29
207.04
216.77
244.44
285.83
330.76
370.13
400.50
423.82
444.30
436.60
386.96
298.66
190.32
82.53
-11.44
-85.72
-138.83
-171.88
-184.45
-176.69
-150.53
-111.80
-70.25
-36.07
-16.50
-14.55
-29.02
-63.32
-107.98
-149.18
-176.13
-186.30
-183.92
-175.26
-165.07
-155.63
-147.82
-139.28
-130.44
-121.59
-113.52
-105.45
-94.73
-78.66
-56.83
-31.98
-7.17
13.77
27.63
33.58
32.91
29.43
27.56
30.21
37.66
48.89
61.60
73.64
83.75
92.05
99.74
107.89
116.62
125.02
132.22
137.62
141.37
144.15
146.85
150.48
155.98
164.13
175.23
188.81
202.96
214.57
220.09
216.83
204.18
183.69
158.42
131.72
106.21
83.17
62.76
44.43
27.46
11.24
-4.83
-21.38
-39.14
-58.61
-79.94
-102.84
-126.69
-150.74
-174.37
-197.31
-219.54
-241.22
-262.67
-284.08
-305.71
-327.94
-351.43
-377.05
-405.70
-438.01
-473.88
-511.83
-548.60
-579.13
-597.47
-598.35
-579.07
-540.68
-487.84
-427.18
-364.88
-304.77
-247.86
-193.48
-141.11
-91.63
-47.15
-9.90
18.92
39.37
52.10
57.30
54.93
45.68
32.14
19.30
13.07
17.87
34.34
58.80
84.75
105.71
117.74
120.47
116.35
108.86
100.59
92.24
82.74
70.26
53.61
32.99
10.23
-11.98
-31.14
-45.83
-55.87
-61.88
-64.52
-64.08
-60.46
-53.52
-43.40
-30.47
-15.02
2.89
23.43
46.72
72.67
101.11
132.24
166.82
205.71
248.71
293.59
335.86
369.91
390.88
396.22
386.09
362.61
328.65
286.94
240.09
191.29
144.69
104.82
75.18
56.59
46.46
39.71
30.76
15.80
-6.02
-32.97
-62.18
-91.27
-119.40
-146.85
-174.03
-200.56
-225.22
-246.67
-264.15
-277.60
-286.93
-291.30
-289.05
-278.57
-259.75
-234.79
-207.67
-182.39
-160.87
-142.10
-122.64
-98.47
-66.89
-27.86
15.89
59.61
97.82
125.78
140.82
143.13
135.66
122.81
108.73
96.07
85.55
76.72
69.05
62.64
58.14
55.97
55.54
55.09
52.37
45.67
34.79
21.36
8.38
-0.90
-4.35
-1.92
4.21
10.53
13.74
12.28
6.95
0.25
-5.08
-7.65
-7.94
-7.64
-8.23
-9.75
-10.57
-8.29
-0.99
11.71
28.42
46.59
63.49
77.15
86.87
93.27
97.86
102.38
108.05
115.10
122.75
129.64
134.64
137.40
138.55
139.21
140.35
142.22
144.29
145.69
145.76
144.28
141.44
137.48
132.43
126.09
118.18
108.49
97.03
83.94
69.45
53.87
37.59
21.04
4.44
-12.30
-29.60
-47.85
-66.83
-85.29
-101.11
-112.06
-116.76
-115.38
-109.58
-101.77
-94.04
-87.40
-81.62
-75.71
-68.82
-60.87
-52.67
-45.55
-40.62
-38.29
-38.14
-39.44
-41.58
-44.37
-47.84
-51.70
-54.75
-54.99
-50.28
-39.37
-22.60
-1.79
20.47
41.75
60.27
75.00
85.28
90.80
91.69
88.95
84.41
80.26
78.28
79.03
81.69
84.48
85.59
84.05
80.04
74.68
69.53
66.08
65.48
68.44
75.03
84.45
94.83
103.50
107.73
105.70
97.19
83.54
66.84
48.88
30.46
11.64
-7.47
-26.01
-42.36
-55.04
-63.81
-70.03
-75.98
-83.51
-92.95
-103.02
-111.73
-117.57
-120.29
-120.84
-120.64
-120.82
-121.76
-123.15
-124.27
-124.16
-121.75
-115.87
-105.56
-90.52
-71.51
-50.48
-30.11
-13.01
-0.86
5.88
7.94
6.56
3.07
-1.38
-5.76
-8.91
-9.77
-7.74
-3.10
2.90
8.51
12.40
14.34
15.33
17.00
20.83
27.55
37.04
48.70
61.73
75.31
88.45
100.02
108.86
114.18
115.82
114.23
110.17
104.27
96.89
88.32
79.14
70.42
63.50
59.58
59.14
61.83
66.69
72.42
77.62
80.87
80.60
75.30
64.01
47.03
26.47
6.12
-9.55
-16.73
-13.72
-1.55
16.32
35.01
49.63
56.42
53.17
38.88
13.32
-22.91
-67.63
-116.09
-161.09
-194.59
-210.75
-208.72
-193.31
-172.80
-154.86
-142.78
-134.21
-123.23
-104.40
-76.49
-43.49
-12.51
10.03
21.56
24.36
23.85
25.65
33.17
46.67
64.23
83.52
103.22
123.22
143.71
164.14
182.58
196.31
202.94
201.43
192.20
176.40
155.09
128.98
99.04
67.35
37.54
14.03
0.37
-2.48
3.19
12.83
21.68
26.93
28.67
29.25
31.41
36.53
43.92
51.52
57.34
60.74
62.70
65.03
69.18
75.35
82.24
87.83
90.35
89.17
85.12
80.09
76.14
74.52
74.86
75.07
72.08
63.07
46.67
23.52
-4.28
-34.29
-64.89
-95.90
-128.38
-164.03
-204.35
-249.73
-298.59
-346.83
-388.34
-416.53
-426.94
-419.43
-398.84
-373.02
-349.23
-330.71
-316.36
-303.37
-290.94
-282.12
-282.11
-294.31
-316.71
-341.74
-359.59
-363.26
-351.76
-329.65
-303.69
-278.62
-255.15
-230.72
-202.14
-168.12
-129.96
-90.73
-53.49
-20.23
8.50
33.66
56.88
80.33
106.10
135.97
170.85
210.10
250.93
288.68
317.77
333.35
333.11
318.53
294.58
268.07
245.27
229.95
222.81
221.82
223.41
224.05
221.43
214.97
205.67
195.34
185.73
178.16
172.81
168.77
165.03
161.58
159.81
162.19
170.71
185.54
204.97
224.83
239.66
244.72
238.02
220.96
197.10
170.19
142.78
117.16
94.35
73.98
54.74
35.07
13.68
-10.22
-36.41
-62.69
-83.18
-91.57
-84.07
-61.30
-27.68
10.02
44.63
70.07
72.96
47.73
0.76
-52.83
-99.48
-133.01
-152.94
-160.05
-154.36
-135.18
-102.01
-58.29
-12.30
25.44
47.13
50.75
41.36
25.48
9.66
-0.59
-3.25
0.17
6.34
12.75
18.09
22.58
26.41
29.26
30.67
29.70
25.11
15.59
4.98
-4.43
-11.99
-19.78
-31.58
-50.16
-75.04
-101.78
-123.68
-134.98
-134.69
-126.62
-117.22
-111.48
-110.11
-109.84
-106.41
-98.25
-88.17
-82.70
-88.19
-107.73
-139.91
-180.03
-222.62
-263.39
-299.78
-330.13
-352.77
-365.32
-365.16
-350.53
-321.52
-280.18
-229.87
-173.94
-114.93
-54.59
5.29
61.60
109.23
141.88
154.31
144.97
117.72
81.17
45.63
19.36
5.78
3.32
7.64
14.47
21.50
28.18
34.29
38.58
38.78
33.12
22.34
10.39
3.70
8.70
29.28
65.74
115.51
175.16
241.99
314.07
388.74
461.10
523.70
568.28
588.79
584.05
558.53
520.54
478.98
440.22
406.76
378.09
352.49
328.84
307.08
287.61
270.25
253.78
236.41
216.70
194.32
170.21
146.25
124.24
105.16
88.73
73.60
58.09
40.89
21.58
0.72
-20.57
-41.32
-61.11
-80.35
-99.96
-120.82
-143.31
-167.21
-191.82
-216.49
-241.13
-266.16
-292.29
-319.75
-348.18
-376.80
-405.46
-435.56
-469.82
-510.52
-556.89
-603.80
-642.90
-665.71
-667.53
-649.31
-616.15
-573.89
-526.16
-474.07
-418.75
-363.90
-315.96
-281.06
-260.91
-250.58
-240.56
-222.21
-193.01
-158.15
-127.19
-108.34
-104.06
-110.43
-120.05
-126.18
-125.37
-117.27
-102.75
-82.20
-55.08
-20.93
19.55
63.36
104.99
137.63
154.93
153.15
133.40
102.10
69.44
45.67
36.78
41.91
54.44
66.17
71.99
72.48
72.68
78.25
91.58
110.16
127.98
138.66
138.22
126.40
106.36
83.07
61.65
45.73
36.41
32.11
29.32
24.35
15.08
1.83
-13.09
-26.58
-35.99
-39.78
-37.24
-28.08
-12.40
8.78
33.31
58.15
80.51
98.73
112.48
122.27
128.47
130.87
129.12
123.53
115.60
107.79
102.67
101.80
105.22
111.45
118.41
124.49
129.14
132.87
136.38
139.69
141.54
139.69
131.90
117.23
96.66
72.87
49.00
27.53
9.68
-4.32
-14.71
-21.89
-26.62
-30.53
-35.99
-45.13
-58.30
-72.96
-84.16
-86.72
-77.96
-59.25
-35.53
-12.77
4.78
16.02
22.27
25.33
25.86
23.21
16.80
7.63
-1.30
-6.11
-4.24
4.01
15.58
26.42
33.53
36.27
36.17
35.59
36.25
38.45
41.30
43.26
42.93
39.53
33.02
24.13
14.31
5.33
-1.28
-5.00
-6.57
-7.77
-10.61
-16.38
-25.02
-35.20
-44.79
-51.53
-53.65
-50.23
-41.33
-27.92
-11.60
5.79
22.76
38.49
52.55
64.62
74.00
79.62
80.40
75.96
67.08
55.57
43.72
33.74
27.23
24.99
26.90
31.73
37.10
39.70
36.41
25.90
9.57
-8.43
-22.96
-30.34
-30.42
-27.19
-27.65
-39.51
-68.37
-115.31
-175.88
-240.93
-299.31
-341.45
-362.47
-363.24
-349.02
-326.33
-299.89
-271.13
-239.11
-202.95
-163.88
-125.39
-91.57
-64.62
-43.45
-24.32
-2.87
23.45
54.32
87.18
118.81
147.37
173.29
198.66
225.58
254.60
284.46
312.98
338.22
358.90
373.77
380.60
376.13
357.35
323.62
278.21
228.00
181.50
146.05
125.69
120.71
128.42
144.65
164.90
185.04
201.58
211.99
215.02
210.58
199.31
182.18
160.49
135.97
110.95
87.92
68.71
53.73
41.77
30.81
19.08
6.10
-7.15
-18.89
-27.57
-32.79
-35.39
-36.91
-38.50
-40.14
-40.53
-37.88
-30.91
-19.67
-5.54
9.47
23.57
35.70
45.53
52.89
57.41
58.41
55.32
48.16
37.69
25.29
12.36
-0.12
-11.76
-22.50
-32.20
-40.44
-46.53
-49.94
-50.73
-49.84
-48.95
-49.77
-53.34
-59.32
-66.07
-71.42
-73.75
-72.85
-69.92
-66.81
-64.99
-64.79
-65.49
-66.01
-65.71
-64.71
-63.64
-62.91
-62.44
-61.74
-60.52
-59.13
-58.41
-59.15
-61.33
-64.04
-65.76
-65.27
-62.19
-57.16
-51.35
-45.83
-41.10
-37.00
-32.85
-28.01
-22.19
-15.62
-8.55
-1.43
5.15
10.48
14.13
16.41
18.26
20.88
25.06
31.15
38.78
47.00
54.61
60.46
64.27
66.07
65.80
63.25
59.16
54.58
50.35
46.26
40.82
33.13
22.38
8.59
-7.80
-23.52
-34.82
-39.48
-38.12
-33.36
-25.57
-15.15
-2.91
7.53
15.14
19.18
18.70
12.37
0.20
-11.21
-14.61
-5.10
15.26
46.74
89.72
144.45
209.04
280.01
357.42
437.16
510.00
560.06
581.13
575.33
551.14
517.94
449.90
337.64
191.94
66.71
-30.75
-106.60
-175.09
-240.38
-302.49
-357.26
-391.69
-394.17
-360.52
-301.23
-228.45
-155.55
-92.85
-46.01
-14.28
10.99
36.00
59.86
71.92
65.65
40.20
1.15
-43.53
-86.62
-121.94
-148.90
-171.88
-199.09
-233.53
-273.78
-315.78
-356.08
-393.68
-429.07
-464.46
-501.24
-538.63
-570.69
-590.04
-592.19
-578.75
-556.37
-532.14
-509.73
-487.54
-460.55
-423.30
-373.82
-314.72
-251.27
-188.12
-127.24
-68.75
-13.28
36.35
75.66
101.08
112.64
114.91
115.64
123.00
142.49
174.88
216.88
263.06
307.87
347.29
379.51
404.81
424.96
441.94
456.15
466.45
471.08
468.69
459.18
443.72
423.88
401.03
375.59
346.41
313.02
277.85
245.95
222.88
211.74
210.57
213.11
210.84
194.79
159.36
104.80
36.10
-39.47
-114.74
-184.52
-244.39
-282.73
-289.64
-264.12
-214.10
-152.37
-93.76
-48.38
-24.98
-27.93
-55.41
-101.57
-158.92
-217.75
-269.45
-307.40
-326.26
-321.86
-291.87
-239.15
-174.73
-115.12
-75.76
-64.14
-76.70
-101.09
-123.65
-135.77
-136.92
-132.43
-126.88
-118.89
-102.16
-71.31
-28.08
16.37
46.33
50.17
27.14
-11.00
-45.37
-59.64
-48.06
-17.38
17.82
43.57
53.88
53.10
52.13
61.74
86.32
121.76
158.53
187.42
204.40
211.87
215.40
219.08
222.23
219.84
206.31
179.40
141.42
97.43
51.95
6.89
-37.72
-81.34
-121.03
-152.16
-170.97
-177.21
-174.71
-169.38
-165.99
-166.04
-167.78
-168.29
-165.53
-158.95
-148.46
-132.82
-109.02
-73.58
-25.09
33.70
95.42
149.94
187.17
200.23
187.39
152.55
104.18
52.95
8.75
-22.15
-38.85
-45.67
-50.21
-60.03
-79.58
-108.89
-144.17
-180.00
-211.56
-235.70
-250.65
-255.13
-248.02
-228.91
-198.99
-161.41
-120.77
-81.36
-45.48
-12.67
19.62
54.31
92.70
133.29
172.22
204.19
224.43
230.50
223.36
207.21
188.07
171.90
162.61
161.50
166.43
172.92
176.19
173.41
164.75
152.89
141.52
133.68
131.91
136.54
145.90
157.47
169.31
180.32
189.81
196.90
200.61
202.21
202.97
203.49
203.77
204.02
204.68
206.29
209.22
213.58
221.84
235.12
251.98
268.84
281.82
287.78
285.32
274.64
240.66
179.92
102.22
25.75
-34.77
-74.08
-94.66
-102.12
-102.61
-99.67
-92.80
-82.21
-70.18
-60.87
-54.58
-51.52
-50.92
-51.67
-52.86
-52.05
-48.07
-41.40
-33.74
-26.67
-21.44
-18.62
-18.56
-21.49
-26.26
-31.84
-37.69
-43.78
-50.25
-57.76
-67.26
-80.09
-97.49
-119.44
-144.94
-172.42
-199.93
-225.98
-250.23
-273.45
-297.48
-324.45
-355.86
-392.06
-431.83
-472.56
-510.33
-540.41
-557.93
-559.44
-544.66
-517.59
-485.68
-457.09
-437.05
-425.33
-416.38
-402.23
-376.59
-337.76
-288.97
-235.92
-183.48
-133.51
-85.09
-36.10
14.88
67.34
119.47
168.85
213.12
250.20
278.10
294.71
297.52
283.84
251.51
199.96
131.08
49.80
-36.31
-118.40
-188.20
-239.81
-270.73
-281.85
-276.58
-259.65
-235.90
-209.49
-183.42
-159.32
-137.65
-118.34
-101.02
-85.28
-70.70
-56.76
-42.88
-28.69
-14.23
0.09
13.76
26.54
38.72
51.06
64.39
79.21
95.38
112.21
128.77
144.45
159.48
174.95
192.69
214.53
241.38
272.63
305.89
337.18
361.56
374.38
372.63
356.29
329.00
297.29
268.50
248.21
238.18
235.95
236.34
233.84
224.62
207.36
182.85
153.10
120.58
88.02
58.35
34.62
18.93
11.61
10.84
13.75
17.70
21.35
25.06
30.37
38.90
51.15
66.15
81.75
95.84
107.27
116.25
124.05
132.41
142.72
154.72
166.52
175.25
179.15
178.37
175.13
172.68
173.74
180.11
190.55
201.15
206.38
202.87
189.46
166.64
135.25
96.72
55.69
18.19
-9.35
-23.21
-21.00
-5.63
14.25
27.66
27.64
18.62
11.43
16.74
36.61
68.21
103.21
132.56
151.45
162.68
178.13
207.15
249.84
293.83
327.81
344.57
343.75
330.43
287.93
214.11
122.20
50.86
-0.11
-39.41
-76.33
-110.45
-138.44
-157.67
-164.72
-161.51
-155.29
-157.74
-172.46
-196.70
-223.92
-248.24
-266.54
-276.59
-280.91
-285.98
-301.12
-328.94
-367.15
-410.22
-452.13
-487.02
-508.12
-511.79
-499.58
-480.26
-463.73
-459.04
-470.51
-495.17
-522.33
-536.62
-525.70
-486.28
-426.31
-359.40
-299.27
-254.15
-224.67
-205.19
-187.62
-165.92
-138.07
-105.71
-71.20
-36.02
-0.51
35.23
70.25
102.42
128.71
146.57
154.98
154.83
148.54
139.01
128.89
119.94
113.14
108.97
107.82
110.22
116.45
126.17
138.19
150.80
162.39
172.22
180.68
188.73
197.07
205.14
210.86
211.37
204.32
189.09
167.08
141.40
115.84
94.20
79.22
71.96
71.69
76.05
81.38
83.71
80.17
70.33
57.71
47.39
43.44
46.91
55.31
64.05
68.52
66.18
57.02
45.15
34.15
25.23
17.31
8.75
-1.06
-11.46
-21.14
-29.58
-33.30
-30.37
-20.80
-5.91
13.08
35.82
62.75
94.89
132.16
177.78
230.85
285.12
331.04
360.67
371.80
368.81
360.92
330.86
272.84
191.91
101.77
15.75
-58.55
-118.37
-163.41
-189.87
-202.87
-202.19
-187.67
-160.48
-123.52
-80.12
-33.30
9.50
42.19
59.34
62.40
54.91
40.93
23.61
5.37
-12.35
-29.03
-43.98
-57.18
-65.67
-67.38
-62.06
-53.81
-46.50
-43.17
-45.66
-54.04
-67.37
-82.28
-95.12
-102.81
-104.20
-99.83
-91.72
-82.59
-74.46
-68.45
-63.95
-60.39
-55.65
-48.86
-40.70
-32.61
-25.67
-19.69
-13.55
-6.18
2.90
13.52
24.01
31.56
34.37
32.82
29.12
27.18
28.57
32.57
37.36
39.86
36.33
24.60
4.77
-21.08
-50.25
-80.89
-111.44
-139.81
-155.49
-151.40
-128.26
-94.38
-59.03
-27.14
0.30
20.62
36.95
50.06
57.68
57.57
49.49
35.58
21.86
12.14
8.16
9.98
15.07
19.10
18.71
12.84
2.91
-8.21
-18.00
-24.44
-26.03
-23.14
-18.11
-13.95
-13.21
-16.90
-24.21
-33.27
-41.38
-45.81
-45.42
-41.02
-34.67
-28.85
-25.38
-25.01
-27.56
-31.89
-36.44
-40.11
-42.43
-43.41
-43.16
-41.55
-38.28
-33.56
-28.24
-23.75
-21.85
-23.88
-30.17
-39.91
-51.25
-61.76
-69.18
-72.03
-70.32
-65.58
-60.43
-57.58
-58.88
-64.81
-74.60
-86.66
-98.91
-108.95
-114.23
-112.41
-102.16
-83.76
-59.27
-31.70
-3.97
22.07
45.69
66.68
84.55
98.52
108.02
113.40
116.06
117.70
119.29
120.45
119.84
116.38
110.31
103.43
98.30
96.84
99.45
104.92
111.22
116.43
119.22
118.88
115.11
108.12
98.88
89.39
82.29
79.87
82.99
90.67
100.64
110.74
120.31
130.69
144.61
164.80
192.48
226.51
263.41
298.21
325.71
341.85
344.72
334.95
315.27
289.39
260.62
230.90
200.58
169.18
136.39
102.69
69.33
37.53
7.63
-21.33
-51.29
-84.47
-122.52
-166.10
-214.59
-265.76
-315.73
-359.13
-389.90
-402.70
-394.70
-366.95
-324.60
-275.69
-228.83
-190.66
-164.33
-149.28
-142.50
-140.39
-140.05
-139.83
-138.97
-136.92
-132.95
-126.28
-116.60
-104.66
-92.20
-81.25
-73.08
-67.37
-62.21
-55.03
-44.27
-30.68
-17.74
-10.50
-13.33
-27.66
-50.81
-76.64
-97.90
-108.99
-107.91
-96.64
-79.69
-61.93
-46.84
-35.86
-28.79
-24.85
-23.43
-24.28
-27.25
-31.85
-36.89
-40.69
-41.53
-38.33
-31.11
-21.14
-10.64
-1.99
3.13
4.41
2.96
0.73
-0.43
0.15
1.82
2.90
1.72
-2.65
-10.02
-19.43
-29.64
-39.49
-48.08
-54.49
-57.85
-57.57
-53.81
-47.70
-41.07
-35.64
-32.29
-30.70
-29.68
-28.03
-25.25
-21.73
-18.25
-15.23
-12.17
-7.77
-0.75
9.31
21.47
33.78
44.28
51.98
57.42
62.30
68.65
77.71
89.46
102.70
115.61
126.26
132.80
133.61
127.49
114.18
95.09
73.29
52.79
37.02
27.44
22.94
20.59
17.28
11.28
2.83
-6.44
-14.80
-21.52
-27.06
-32.51
-38.75
-45.96
-53.68
-61.22
-68.01
-73.86
-78.85
-83.14
-86.71
-89.23
-90.07
-88.53
-84.17
-77.10
-67.93
-57.48
-46.40
-34.78
-22.31
-8.62
6.08
20.87
34.21
44.60
51.09
53.48
52.20
48.00
41.72
34.15
26.10
18.32
11.40
5.71
1.31
-2.05
-4.85
-7.88
-11.98
-17.81
-25.52
-34.35
-42.79
-48.92
-51.03
-48.19
-40.53
-29.14
-15.73
-2.16
9.93
19.34
25.49
28.38
28.60
27.05
24.69
22.28
20.16
18.34
16.60
14.65
12.31
9.58
6.69
4.04
1.95
0.48
-0.78
-2.64
-6.26
-12.71
-22.67
-36.06
-51.98
-68.83
-84.58
-97.17
-104.97
-107.12
-103.76
-95.91
-84.96
-72.26
-58.68
-44.66
-30.47
-16.49
-3.20
9.12
20.66
32.23
44.81
58.95
74.31
89.68
103.51
114.75
123.39
130.23
136.29
142.04
147.12
150.62
151.69
150.07
146.26
141.12
135.49
129.72
123.80
117.66
111.40
105.30
99.56
93.93
87.81
80.62
72.41
64.18
57.61
54.18
54.20
56.39
58.26
57.20
51.70
41.99
29.72
17.00
5.24
-5.38
-15.77
-27.22
-40.55
-55.61
-71.32
-86.14
-98.75
-108.32
-114.42
-116.73
-114.69
-107.57
-94.89
-77.06
-55.90
-34.61
-17.08
-6.76
-5.46
-12.66
-25.58
-40.01
-51.60
-57.07
-55.06
-46.35
-33.54
-20.27
-10.30
-6.60
-10.65
-21.70
-36.59
-50.13
-56.48
-51.13
-32.78
-4.24
28.47
58.30
79.99
91.97
96.64
98.72
102.71
110.64
121.32
131.21
136.38
134.38
124.89
109.30
89.41
66.38
40.66
12.71
-16.03
-42.82
-64.56
-79.42
-88.08
-93.60
-99.76
-108.56
-118.56
-124.89
-121.21
-102.56
-67.65
-19.79
33.97
85.03
125.80
151.61
161.59
158.05
145.01
126.42
105.08
82.39
59.08
36.08
14.99
-2.32
-14.59
-21.99
-26.09
-29.02
-32.30
-36.04
-39.03
-39.53
-36.13
-28.15
-15.65
0.87
20.34
40.99
60.05
74.24
80.65
78.04
67.46
51.98
35.43
20.99
10.27
3.37
-0.31
-1.29
0.26
4.14
9.54
14.86
18.12
17.90
14.09
8.03
1.98
-1.94
-2.65
-0.59
2.43
3.81
1.11
-6.97
-19.95
-35.29
-48.98
-56.58
-54.65
-42.02
-20.29
6.46
32.93
54.11
66.65
69.52
63.84
52.04
36.89
20.59
4.49
-10.82
-25.09
-37.91
-48.49
-55.94
-59.58
-59.40
-56.12
-50.94
-45.04
-39.14
-33.37
-27.47
-21.10
-14.27
-7.45
-1.48
2.85
5.05
5.18
3.71
1.30
-1.48
-4.29
-6.98
-9.45
-11.66
-13.60
-15.46
-17.65
-20.60
-24.52
-28.88
-32.32
-32.76
-27.96
-16.38
2.08
25.67
50.92
73.46
89.17
95.33
91.38
78.83
60.57
39.79
19.05
-0.07
-16.88
-31.00
-42.09
-49.73
-53.68
-54.06
-51.50
-46.85
-40.85
-34.03
-26.59
-18.70
-10.60
-2.77
4.18
9.57
12.85
13.70
12.12
8.61
4.02
-0.50
-3.84
-5.26
-4.60
-2.20
1.37
5.56
10.08
14.76
19.42
23.73
27.26
29.75
31.34
32.54
34.11
36.63
40.19
44.43
48.70
52.38
55.21
57.23
58.66
59.64
60.22
60.36
60.17
60.03
60.59
62.59
66.66
73.16
82.11
93.30
106.35
120.69
135.54
149.89
162.69
173.05
180.51
185.02
186.69
185.45
180.94
172.64
160.32
144.30
125.33
104.26
81.33
55.84
26.38
-8.67
-50.06
-96.67
-145.34
-191.81
-232.23
-264.57
-288.89
-306.25
-317.10
-320.51
-314.87
-299.87
-278.44
-256.83
-242.60
-241.44
-254.60
-278.52
-306.72
-332.62
-351.66
-361.65
-361.79
-351.49
-329.92
-296.61
-252.39
-199.83
-143.14
-87.21
-36.44
6.17
39.41
63.74
80.86
93.07
102.53
110.88
118.87
126.34
132.40
135.76
135.31
130.60
122.13
111.24
99.66
88.95
80.13
73.57
69.21
66.75
65.75
65.57
65.39
64.34
61.89
58.05
53.35
48.54
44.13
40.12
35.98
31.07
25.11
18.54
12.46
8.24
6.94
8.98
14.01
21.21
29.63
38.42
46.92
54.61
60.93
65.38
67.60
67.55
65.59
62.37
58.53
54.47
50.25
45.68
40.61
35.16
29.78
25.03
21.27
18.47
16.13
13.57
10.31
6.30
1.89
-2.33
-5.91
-8.69
-10.79
-12.41
-13.72
-14.76
-15.60
-16.31
-17.02
-17.83
-18.66
-19.17
-18.86
-17.18
-13.87
-9.21
-4.02
0.55
3.57
4.91
5.50
7.09
11.50
19.70
31.19
44.14
56.16
65.51
71.82
76.08
79.95
84.73
90.62
96.75
101.56
103.56
101.71
95.60
85.31
71.37
54.76
37.00
20.05
5.91
-3.89
-8.83
-9.40
-6.77
-2.16
3.56
9.83
15.98
20.71
22.09
18.12
7.71
-8.55
-28.32
-48.30
-65.47
-78.14
-86.28
-91.05
-93.77
-95.10
-94.88
-92.52
-87.78
-81.18
-73.91
-67.28
-62.11
-58.37
-55.24
-51.51
-46.23
-39.03
-30.39
-21.42
-13.55
-7.96
-5.28
-5.26
-6.82
-8.41
-8.54
-6.31
-1.82
3.97
9.59
13.69
15.41
14.61
11.76
7.70
3.48
0.30
-0.63
1.70
7.72
16.84
27.36
36.68
42.11
41.79
35.35
24.09
10.40
-3.13
-14.50
-22.77
-28.01
-30.86
-32.00
-31.77
-30.06
-26.50
-20.79
-13.05
-4.07
4.93
12.59
17.97
20.80
21.56
21.19
20.59
20.37
20.68
21.29
21.84
22.03
21.65
20.69
19.25
17.49
15.59
13.57
11.28
8.50
5.20
1.68
-1.47
-3.67
-4.68
-4.82
-4.67
-4.81
-5.43
-6.35
-7.26
-8.06
-9.04
-10.71
-13.52
-17.50
-22.25
-27.16
-31.81
-36.24
-40.83
-45.98
-51.66
-57.17
-61.25
-62.50
-60.00
-53.69
-44.41
-33.54
-22.48
-12.22
-3.15
4.69
11.31
16.59
20.29
22.30
22.88
22.71
22.58
23.05
24.05
24.92
24.75
22.94
19.61
15.55
11.92
9.62
8.90
9.24
9.68
9.21
7.19
3.51
-1.51
-7.24
-12.98
-18.16
-22.44
-25.84
-28.63
-31.21
-34.01
-37.31
-41.33
-46.23
-52.13
-58.93
-66.08
-72.52
-76.86
-77.83
-74.79
-68.00
-58.49
-47.52
-36.16
-25.04
-14.43
-4.59
4.12
11.28
16.71
20.74
24.17
27.89
32.44
37.73
43.14
47.98
52.01
55.60
59.51
64.44
70.54
77.26
83.68
88.97
92.79
95.38
97.25
98.73
99.82
100.20
99.70
98.62
97.91
98.86
102.68
109.91
120.01
131.24
140.82
145.49
142.19
128.86
105.09
72.33
33.77
-6.46
-44.16
-76.06
-100.47
-117.27
-127.41
-132.14
-132.27
-128.03
-119.45
-107.07
-92.42
-77.99
-66.50
-59.85
-58.32
-60.53
-64.08
-66.63
-66.75
-64.28
-60.05
-55.23
-50.84
-47.58
-46.06
-46.68
-49.53
-53.91
-58.12
-59.86
-57.28
-50.19
-40.67
-32.47
-29.49
-34.09
-46.02
-62.78
-80.78
-96.78
-108.85
-116.50
-120.10
-120.40
-118.11
-113.94
-108.47
-102.17
-95.18
-87.43
-78.57
-68.20
-55.84
-40.99
-23.24
-2.63
20.03
43.02
64.17
81.58
94.31
102.50
106.90
108.04
105.73
99.34
88.78
75.74
64.13
59.11
65.00
83.10
110.51
140.73
165.91
179.69
179.20
165.53
142.63
115.31
87.58
61.89
39.36
20.57
5.96
-4.22
-10.39
-13.99
-17.21
-22.30
-30.60
-42.02
-55.13
-67.84
-78.19
-85.04
-88.17
-87.93
-84.86
-79.45
-72.12
-63.38
-53.86
-44.20
-34.85
-26.01
-17.76
-10.27
-4.04
0.27
2.08
1.48
-0.64
-2.88
-3.82
-2.52
1.15
6.60
12.91
19.17
25.09
30.99
37.33
44.55
52.80
61.80
70.92
79.38
86.38
91.86
96.50
101.02
105.98
111.41
116.83
121.46
124.60
125.86
126.09
126.96
129.62
134.45
140.75
146.96
151.26
152.21
148.76
141.43
131.60
119.85
105.92
88.66
66.55
39.45
11.42
-16.70
-45.64
-72.78
-96.67
-117.23
-136.09
-156.53
-182.72
-218.62
-266.30
-322.96
-380.39
-427.13
-451.07
-443.35
-401.64
-331.56
-245.54
-159.97
-90.23
-47.25
-36.07
-55.17
-97.51
-152.58
-209.06
-257.18
-290.63
-306.40
-304.33
-286.31
-255.02
-213.37
-164.41
-111.54
-58.63
-9.82
31.58
63.87
87.54
105.17
120.55
137.24
157.14
179.93
203.37
224.65
241.72
253.86
261.50
265.32
265.42
261.16
251.74
237.13
218.68
198.87
180.57
165.98
155.89
149.69
145.91
142.95
139.63
135.37
130.05
123.72
116.30
107.45
96.86
84.52
71.04
57.69
45.92
36.75
29.94
23.77
15.42
2.25
-16.97
-41.20
-67.28
-91.08
-108.93
-118.97
-121.51
-118.67
-113.15
-107.03
-100.87
-93.68
-83.58
-68.97
-49.63
-27.32
-5.52
11.37
19.31
15.72
0.22
-24.99
-55.23
-83.90
-103.65
-108.33
-95.07
-65.81
-27.10
11.79
41.99
57.94
58.79
47.85
30.61
12.38
-3.29
-14.89
-22.26
-25.67
-25.27
-21.20
-14.01
-5.04
3.62
9.60
11.02
7.22
-0.94
-11.39
-21.63
-29.61
-34.30
-35.73
-34.54
-31.37
-26.62
-20.55
-13.58
-6.50
-0.21
4.67
8.41
12.18
17.71
26.37
38.29
52.10
65.23
74.88
78.91
76.46
67.98
54.82
38.94
22.37
7.07
-5.23
-13.30
-16.79
-16.44
-14.09
-12.07
-12.36
-15.80
-21.85
-28.93
-35.21
-39.33
-40.69
-39.40
-36.18
-32.14
-28.70
-27.44
-29.68
-35.94
-45.59
-56.79
-67.03
-73.81
-75.36
-70.98
-60.89
-46.16
-28.45
-9.77
7.82
22.63
33.88
41.74
47.17
51.32
55.04
58.51
61.41
63.22
63.68
62.94
61.48
59.84
58.32
56.87
55.12
52.73
49.64
46.23
43.14
40.87
39.50
38.55
37.25
34.95
31.51
27.27
22.84
18.68
14.80
10.92
6.71
2.13
-2.49
-6.67
-10.00
-12.52
-14.62
-16.96
-20.15
-24.48
-29.86
-35.77
-41.44
-46.01
-48.72
-49.12
-47.18
-43.28
-38.01
-32.05
-25.97
-20.17
-14.93
-10.40
-6.55
-3.16
0.14
3.72
7.75
12.11
16.37
20.06
22.89
24.92
26.38
27.55
28.41
28.67
27.86
25.63
21.90
16.93
11.19
5.18
-0.64
-5.89
-10.30
-13.72
-16.20
-18.01
-19.59
-21.45
-24.02
-27.51
-31.75
-36.26
-40.27
-42.87
-43.23
-40.85
-35.65
-28.06
-18.88
-9.04
0.54
9.15
16.27
21.61
25.07
26.77
27.03
26.34
25.27
24.34
23.90
24.02
24.55
25.09
25.13
24.12
21.72
17.86
12.86
7.40
2.34
-1.59
-3.99
-4.95
-5.00
-4.90
-5.39
-6.97
-9.78
-13.65
-18.18
-22.85
-27.14
-30.52
-32.69
-33.59
-33.56
-33.18
-33.06
-33.54
-34.50
-35.42
-35.62
-34.62
-32.32
-28.94
-24.74
-19.79
-13.88
-6.77
1.60
10.86
20.28
28.90
35.77
40.12
41.48
39.83
35.69
30.14
24.61
20.50
18.60
18.92
20.65
22.68
24.06
24.39
23.85
22.87
21.82
20.79
19.60
17.99
15.81
13.12
10.16
7.18
4.34
1.60
-1.23
-4.45
-8.35
-13.11
-18.74
-25.04
-31.68
-38.18
-43.99
-48.47
-51.01
-51.13
-48.51
-43.20
-35.57
-26.36
-16.47
-6.80
1.97
9.48
15.61
20.42
23.96
26.22
27.23
27.09
25.99
24.17
21.77
18.78
15.13
10.79
5.95
1.00
-3.62
-7.51
-10.53
-12.81
-14.62
-16.34
-18.23
-20.43
-22.85
-25.27
-27.39
-29.05
-30.27
-31.28
-32.42
-33.94
-35.91
-38.27
-40.88
-43.62
-46.38
-48.87
-50.57
-50.74
-48.62
-43.68
-35.87
-25.64
-13.78
-1.23
11.14
22.57
32.39
40.08
45.31
48.06
48.72
48.01
46.69
45.38
44.29
43.29
42.08
40.38
38.06
35.19
31.90
28.32
24.56
20.67
16.69
12.67
8.68
4.85
1.43
-1.26
-2.94
-3.52
-3.24
-2.67
-2.50
-3.35
-5.56
-9.22
-14.20
-20.21
-26.84
-33.41
-39.06
-42.79
-43.80
-41.66
-36.55
-29.13
-20.37
-11.21
-2.41
5.65
12.88
19.33
25.04
29.97
33.94
36.77
38.34
38.67
37.93
36.32
34.01
31.10
27.68
23.89
20.02
16.45
13.62
11.86
11.22
11.51
12.24
12.83
12.71
11.45
8.82
4.81
-0.40
-6.49
-13.01
-19.44
-25.30
-30.28
-34.31
-37.58
-40.40
-43.06
-45.63
-47.92
-49.48
-49.84
-48.61
-45.60
-40.82
-34.48
-26.90
-18.49
-9.74
-1.10
6.99
14.20
20.30
25.17
28.66
30.64
31.08
30.15
28.34
26.43
25.27
25.57
27.64
31.40
36.42
42.09
47.67
52.31
55.07
55.06
51.70
44.94
35.43
24.33
13.04
2.82
-5.54
-11.74
-15.89
-18.36
-19.66
-20.37
-21.12
-22.55
-25.14
-29.00
-33.75
-38.51
-42.20
-43.82
-42.84
-39.31
-33.80
-27.08
-19.88
-12.67
-5.70
0.88
6.84
11.89
15.70
18.12
19.24
19.45
19.34
19.48
20.29
21.92
24.26
27.01
29.83
32.32
34.13
34.89
34.27
32.08
28.32
23.28
17.46
11.48
6.03
1.65
-1.31
-2.82
-3.25
-3.19
-3.36
-4.29
-6.22
-9.05
-12.50
-16.26
-20.05
-23.60
-26.52
-28.35
-28.60
-27.02
-23.72
-19.12
-13.76
-8.07
-2.24
3.64
9.46
14.97
19.80
23.65
26.41
28.18
29.17
29.50
29.20
28.25
26.82
25.31
24.22
23.93
24.40
25.12
25.34
24.34
21.78
17.72
12.50
6.45
-0.19
-7.25
-14.43
-21.19
-26.85
-30.91
-33.31
-34.54
-35.46
-36.85
-39.05
-41.77
-44.34
-45.98
-46.25
-45.09
-42.79
-39.72
-36.09
-31.81
-26.55
-19.97
-11.98
-2.97
6.16
14.23
20.16
23.38
23.97
22.42
19.13
14.15
7.08
-2.49
-14.54
-28.24
-42.12
-54.31
-62.94
-66.19
-62.48
-50.72
-31.02
-5.25
22.75
47.94
65.52
72.55
68.90
57.00
40.67
23.57
8.19
-4.38
-13.99
-20.80
-24.85
-26.22
-25.20
-22.59
-19.51
-17.07
-15.98
-16.28
-17.34
-18.22
-18.01
-16.08
-12.30
-6.93
-0.48
6.49
13.57
20.48
27.04
33.02
38.09
41.81
43.86
44.16
43.01
41.06
39.06
37.62
36.95
36.83
36.75
36.12
34.57
32.03
28.71
25.01
21.31
17.99
15.31
13.45
12.46
12.15
12.12
11.79
10.65
8.54
5.77
3.05
1.18
0.53
0.78
0.94
-0.31
-4.08
-10.79
-20.01
-30.58
-40.96
-49.55
-55.06
-56.68
-54.17
-47.91
-38.75
-27.92
-16.69
-6.23
2.60
9.24
13.42
15.09
14.47
12.17
9.15
6.58
5.41
6.00
8.01
10.56
12.67
13.63
13.16
11.27
8.13
3.92
-1.07
-6.36
-11.29
-15.30
-18.17
-20.19
-21.95
-23.90
-26.08
-28.13
-29.62
-30.51
-31.35
-33.06
-36.51
-42.07
-49.49
-57.90
-66.04
-72.34
-75.05
-72.33
-62.75
-45.83
-22.63
4.14
30.61
52.73
67.49
73.71
72.24
65.38
55.99
46.55
38.70
33.15
29.96
28.82
29.21
30.43
31.64
31.96
30.84
28.29
24.97
21.91
19.99
19.47
19.80
19.90
18.69
15.64
11.01
5.69
0.70
-3.28
-6.18
-8.47
-10.81
-13.74
-17.46
-21.78
-26.34
-30.83
-35.05
-38.97
-42.56
-45.69
-48.12
-49.45
-49.36
-47.64
-44.33
-39.64
-33.84
-27.16
-19.68
-11.46
-2.63
6.43
15.10
22.61
28.36
32.09
34.12
35.18
36.15
37.69
39.91
42.32
44.12
44.53
43.20
40.30
36.44
32.36
28.67
25.69
23.52
22.11
21.40
21.29
21.60
21.99
21.99
21.11
18.95
15.27
10.05
3.43
-4.41
-13.20
-22.60
-32.14
-41.22
-49.23
-55.67
-60.28
-62.96
-63.57
-61.70
-56.67
-47.92
-35.47
-20.33
-4.40
10.05
21.15
27.99
30.72
30.18
27.37
23.19
18.35
13.55
9.55
6.97
6.06
6.46
7.34
7.76
7.06
5.06
2.01
-1.63
-5.36
-8.65
-10.97
-11.77
-10.69
-7.73
-3.42
1.36
5.60
8.55
9.90
9.76
8.45
6.34
3.66
0.55
-2.89
-6.51
-10.11
-13.38
-15.99
-17.52
-17.55
-15.71
-11.81
-5.96
1.41
9.58
17.66
24.74
30.06
33.09
33.65
31.89
28.30
23.60
18.57
13.87
9.87
6.67
4.19
2.28
0.83
-0.17
-0.74
-0.90
-0.79
-0.63
-0.73
-1.39
-2.85
-5.25
-8.55
-12.48
-16.54
-20.09
-22.55
-23.65
-23.45
-22.44
-21.29
-20.66
-20.90
-22.03
-23.79
-25.79
-27.65
-29.06
-29.77
-29.55
-28.15
-25.42
-21.35
-16.18
-10.34
-4.37
1.24
6.14
10.21
13.47
15.98
17.84
19.07
19.72
19.91
19.75
19.43
19.09
18.82
18.62
18.47
18.28
18.02
17.63
17.10
16.39
15.40
13.99
12.00
9.30
5.95
2.19
-1.57
-4.81
-7.14
-8.44
-8.95
-9.17
-9.77
-11.40
-14.49
-19.18
-25.21
-31.95
-38.50
-43.77
-46.85
-47.12
-44.50
-39.37
-32.47
-24.67
-16.72
-9.16
-2.29
3.79
9.05
13.50
17.14
19.99
22.13
23.68
24.83
25.73
26.50
27.18
27.73
28.06
28.09
27.78
27.09
25.97
24.35
22.25
19.78
17.18
14.78
12.81
11.37
10.31
9.34
8.08
6.22
3.64
0.38
-3.32
-7.14
-10.80
-14.15
-17.27
-20.37
-23.61
-27.01
-30.20
-32.60
-33.60
-32.78
-30.10
-25.88
-20.64
-14.88
-8.99
-3.19
2.39
7.64
12.46
16.70
20.24
22.96
24.79
25.74
25.95
25.61
24.94
24.01
22.77
21.05
18.80
16.21
13.81
12.29
12.22
13.72
16.31
19.09
21.14
21.84
21.00
18.71
15.13
10.38
4.64
-1.65
-7.68
-12.59
-15.77
-17.34
-18.09
-19.04
-20.85
-23.29
-25.38
-25.91
-24.10
-19.99
-14.35
-8.24
-2.47
2.57
6.85
10.39
13.04
14.45
14.22
12.19
8.60
4.15
-0.14
-3.24
-4.43
-3.64
-1.42
1.17
3.05
3.52
2.45
0.07
-3.20
-7.02
-10.93
-14.07
-15.32
-13.60
-8.67
-1.60
5.42
9.94
10.42
6.94
1.06
-5.15
-10.22
-13.92
-17.07
-20.66
-25.00
-29.43
-32.65
-33.45
-31.39
-26.92
-21.11
-14.99
-9.16
-3.66
1.79
7.36
12.77
17.30
20.00
20.17
17.74
13.40
8.38
4.06
1.46
0.95
2.18
4.29
6.27
7.40
7.38
6.40
4.86
3.14
1.35
-0.62
-3.00
-5.93
-9.32
-12.87
-16.25
-19.24
-21.87
-24.36
-26.91
-29.62
-32.34
-34.76
-36.56
-37.49
-37.42
-36.29
-34.09
-30.83
-26.58
-21.37
-15.18
-7.95
0.44
10.05
20.74
32.05
43.21
53.26
61.30
66.64
68.99
68.54
65.86
61.83
57.35
53.16
49.63
46.73
44.16
41.46
38.13
33.71
27.82
20.40
11.76
2.73
-5.60
-12.40
-17.52
-21.48
-24.98
-28.12
-29.98
-28.96
-23.81
-14.72
-3.77
5.68
10.31
8.32
0.08
-12.17
-25.38
-36.82
-44.83
-48.86
-49.16
-46.30
-40.83
-33.23
-23.93
-13.47
-2.56
7.84
16.60
22.74
25.70
25.50
22.83
18.79
14.49
10.66
7.46
4.48
1.08
-3.30
-8.97
-15.92
-23.76
-31.72
-38.53
-42.59
-42.44
-37.50
-28.56
-17.81
-8.05
-1.52
1.07
0.68
-0.82
-1.81
-1.89
-1.85
-2.95
-5.88
-10.23
-14.62
-17.51
-17.91
-15.72
-11.47
-5.93
0.39
7.34
14.87
22.75
30.34
36.64
40.63
41.64
39.78
35.83
31.08
26.86
23.98
22.59
22.24
22.36
22.78
23.86
26.34
30.78
37.23
45.02
52.86
59.16
62.30
60.88
54.08
41.97
25.70
7.38
-10.43
-25.42
-36.22
-42.58
-45.16
-45.08
-43.45
-41.16
-38.90
-37.19
-36.19
-35.65
-34.86
-32.92
-29.06
-22.96
-14.81
-5.12
5.44
16.13
26.12
34.43
40.14
42.63
41.96
38.94
34.93
31.23
28.57
26.82
25.23
22.97
19.75
16.06
12.84
10.94
10.57
11.04
11.11
9.60
5.90
0.11
-7.11
-14.84
-21.96
-27.10
-28.76
-25.86
-18.49
-8.53
0.69
5.59
3.84
-4.46
-16.89
-29.90
-40.40
-46.84
-49.36
-48.94
-46.46
-42.11
-35.61
-26.76
-15.89
-3.92
8.02
18.90
28.11
35.37
40.57
43.66
44.59
43.47
40.59
36.49
31.85
27.35
23.49
20.59
18.77
17.96
17.91
18.21
18.32
17.74
16.15
13.54
10.18
6.48
2.85
-0.44
-3.27
-5.67
-7.75
-9.69
-11.72
-13.98
-16.54
-19.34
-22.31
-25.39
-28.63
-32.02
-35.41
-38.30
-39.94
-39.62
-36.98
-32.28
-26.26
-19.90
-13.95
-8.72
-4.10
0.18
4.31
8.20
11.50
13.83
14.97
14.94
13.95
12.28
10.09
7.43
4.28
0.68
-3.14
-6.70
-9.40
-10.70
-10.40
-8.86
-6.88
-5.42
-5.21
-6.52
-8.93
-11.49
-13.06
-12.88
-11.00
-8.29
-6.06
-5.68
-8.03
-13.12
-19.90
-26.56
-31.22
-32.64
-30.71
-26.26
-20.78
-15.74
-11.87
-8.53
-4.12
2.77
12.41
23.65
34.87
44.21
50.18
51.92
49.91
45.27
39.01
31.55
22.96
14.15
5.42
-4.73
-20.25
-45.52
-83.52
-134.21
-193.20
-251.96
-298.35
-322.11
-318.73
-290.66
-243.54
-182.92
-112.88
-36.50
42.34
119.31
187.09
236.54
253.76
229.96
170.83
95.33
25.86
-34.12
-87.13
-135.56
-175.13
-198.38
-197.07
-166.92
-111.39
-41.46
28.46
87.79
130.93
157.06
168.57
170.43
168.45
166.88
167.17
167.91
167.39
163.47
154.71
141.31
126.25
114.19
108.81
110.79
117.57
125.73
131.87
133.85
131.04
124.13
114.18
101.57
85.86
66.80
45.58
24.45
5.67
-9.67
-22.02
-33.01
-44.68
-58.54
-75.13
-93.93
-113.91
-133.98
-153.17
-170.74
-186.29
-199.82
-211.51
-221.12
-227.36
-227.84
-219.95
-202.33
-175.84
-143.56
-109.44
-76.64
-46.55
-19.04
6.42
29.75
50.11
66.65
79.53
90.15
100.54
112.19
125.14
138.06
149.18
157.33
162.51
165.64
167.70
168.94
168.57
165.16
157.59
146.04
132.25
119.04
109.06
103.55
101.81
101.46
99.40
92.86
80.10
60.93
36.90
11.22
-11.92
-28.64
-36.95
-37.87
-35.21
-33.92
-37.79
-47.56
-60.95
-74.31
-85.06
-93.05
-100.21
-108.59
-118.50
-127.95
-133.82
-133.92
-128.47
-120.08
-112.30
-107.62
-106.19
-105.90
-103.69
-97.23
-86.07
-71.64
-56.46
-42.91
-32.23
-24.27
-17.81
-11.43
-4.30
3.34
10.29
15.16
17.27
17.32
17.14
18.98
24.38
33.61
45.60
58.65
71.08
81.61
89.32
93.40
93.15
88.36
79.67
68.63
57.18
46.93
38.58
32.01
26.75
22.64
20.03
19.48
21.33
25.35
30.81
36.73
42.16
46.11
47.28
43.97
34.41
17.64
-5.63
-32.66
-59.39
-82.07
-98.95
-111.12
-121.66
-133.78
-148.49
-163.50
-174.02
-175.10
-164.33
-143.18
-116.15
-88.41
-63.31
-41.37
-21.00
-0.40
20.84
41.47
59.35
72.96
82.24
88.27
92.38
95.06
95.66
92.86
85.66
73.97
58.69
41.37
23.67
7.30
-5.98
-14.35
-16.15
-10.47
2.21
19.82
39.09
56.33
68.38
73.09
69.48
57.79
39.56
17.72
-3.82
-21.04
-31.08
-33.41
-30.12
-25.15
-22.88
-26.76
-38.49
-58.11
-84.47
-115.78
-149.70
-183.13
-212.01
-231.49
-236.82
-224.71
-194.77
-150.30
-97.97
-45.97
-1.44
31.74
54.04
69.33
82.67
97.71
115.17
133.05
148.27
158.78
164.82
168.96
174.78
185.17
201.07
221.27
243.17
264.08
282.14
296.71
307.96
316.33
322.07
325.36
326.60
326.52
326.03
325.65
325.07
323.16
318.33
308.87
294.14
274.93
253.15
230.87
209.66
190.44
173.32
158.10
144.00
130.37
116.90
103.51
90.09
76.27
61.74
46.18
29.73
11.87
-7.29
-26.81
-45.41
-62.37
-78.05
-93.36
-109.58
-127.33
-149.29
-176.51
-207.62
-239.59
-270.05
-298.47
-325.09
-351.48
-378.64
-413.24
-460.03
-518.30
-581.29
-639.35
-683.42
-705.61
-704.08
-680.92
-650.77
-625.94
-609.08
-593.28
-569.78
-535.60
-493.22
-453.38
-426.18
-429.27
-469.97
-540.33
-621.97
-697.60
-759.27
-805.04
-841.68
-796.86
-634.00
-374.92
-88.56
162.24
351.46
464.50
529.65
563.68
574.76
553.79
493.04
400.43
292.19
187.62
102.22
48.26
27.58
37.51
62.20
86.63
103.81
115.11
125.24
136.66
151.04
165.30
178.10
184.52
183.29
178.37
176.17
181.50
195.07
216.43
242.84
273.00
302.85
327.27
340.63
337.51
314.49
271.94
216.40
158.28
109.84
79.80
71.77
84.55
113.89
154.55
200.71
245.84
281.50
298.71
290.94
257.75
206.99
153.20
112.65
96.57
106.23
132.63
160.61
175.65
169.69
143.35
103.97
60.96
21.13
-13.44
-44.37
-73.54
-99.72
-117.96
-122.15
-109.64
-85.13
-61.10
-53.65
-75.46
-129.40
-206.14
-287.46
-353.52
-390.60
-395.45
-374.62
-339.65
-301.18
-264.95
-231.11
-196.59
-158.30
-115.43
-69.64
-23.64
20.49
61.82
99.69
132.45
157.05
170.22
170.53
160.21
145.11
132.51
127.82
132.00
141.17
148.77
148.85
138.80
120.33
98.38
78.90
66.51
63.00
67.26
76.21
86.46
95.58
102.63
107.72
110.95
111.68
108.84
101.89
91.91
81.85
75.33
74.80
79.97
87.61
93.16
92.85
85.52
72.71
57.36
42.12
28.12
14.78
0.71
-15.15
-32.81
-51.23
-68.90
-84.73
-98.65
-111.70
-125.41
-140.66
-156.60
-170.11
-176.36
-170.50
-149.74
-115.13
-71.93
-28.28
7.46
29.60
36.90
32.41
21.58
9.72
0.38
-4.98
-5.90
-1.77
8.51
25.76
49.32
76.28
102.06
122.00
133.24
135.80
132.29
126.48
121.58
119.05
118.51
118.40
117.02
113.31
107.13
99.08
89.97
80.42
70.66
60.60
50.06
39.05
27.85
16.93
6.70
-2.69
-11.37
-19.64
-27.70
-35.36
-41.96
-46.50
-48.03
-46.05
-40.75
-33.02
-24.10
-15.17
-7.01
0.05
5.94
10.61
13.86
15.37
14.99
12.93
9.82
6.45
3.36
0.62
-2.19
-5.65
-10.19
-15.81
-22.08
-28.37
-33.99
-38.39
-41.23
-42.43
-42.28
-41.40
-40.65
-40.78
-42.21
-44.79
-47.95
-51.08
-53.71
-55.65
-56.89
-57.41
-57.35
-57.11
-57.51
-59.41
-63.09
-67.62
-70.94
-70.49
-64.44
-52.47
-35.91
-17.01
2.05
19.69
34.77
46.11
52.30
52.11
45.45
33.99
20.99
10.29
4.92
6.14
13.28
24.34
36.83
48.45
57.46
62.92
64.77
63.77
61.20
58.23
55.34
52.09
47.49
40.77
32.10
22.62
13.95
7.26
2.71
-0.60
-4.09
-9.02
-15.96
-24.71
-34.58
-44.59
-53.70
-60.84
-65.03
-65.53
-62.05
-54.94
-45.12
-33.77
-22.03
-10.76
-0.46
8.60
16.21
22.11
26.00
27.76
27.53
25.87
23.62
21.65
20.57
20.52
21.17
21.96
22.35
22.09
21.19
19.87
18.37
16.90
15.67
14.89
14.74
15.25
16.10
16.67
16.14
13.93
9.96
4.71
-1.00
-6.36
-11.01
-15.11
-19.16
-23.66
-28.73
-33.99
-38.70
-42.07
-43.50
-42.78
-40.04
-35.61
-29.94
-23.46
-16.55
-9.50
-2.43
4.64
11.69
18.42
24.16
27.97
28.89
26.29
20.26
11.70
2.24
-6.05
-11.11
-11.48
-6.74
2.15
13.03
23.16
30.14
32.71
31.12
26.82
21.71
17.27
14.25
12.59
11.84
11.42
10.84
9.67
7.64
4.58
0.49
-4.50
-10.13
-16.08
-22.00
-27.48
-32.07
-35.37
-37.18
-37.57
-36.76
-34.98
-32.21
-28.13
-22.29
-14.45
-4.85
5.66
15.73
23.87
28.85
30.10
27.90
23.30
17.72
12.49
8.42
5.73
4.17
3.38
3.13
3.44
4.42
6.08
8.18
10.28
11.91
12.71
12.55
11.45
9.54
7.11
4.54
2.26
0.58
-0.38
-0.84
-1.22
-2.06
-3.85
-6.96
-11.61
-17.82
-25.34
-33.58
-41.55
-48.03
-51.85
-52.20
-48.98
-42.73
-34.47
-25.39
-16.52
-8.62
-2.14
2.75
6.08
8.11
9.28
10.12
11.12
12.57
14.54
16.81
19.03
20.78
21.73
21.67
20.58
18.68
16.35
14.12
12.38
11.19
10.25
8.91
6.57
2.90
-1.85
-7.01
-11.65
-15.02
-16.73
-16.89
-16.03
-14.86
-14.15
-14.48
-16.19
-19.31
-23.59
-28.61
-33.73
-38.20
-41.08
-41.46
-38.65
-32.48
-23.49
-12.79
-1.78
8.34
16.96
24.10
30.12
35.30
39.54
42.38
43.28
42.07
39.18
35.58
32.36
30.27
29.43
29.38
29.37
28.80
27.45
25.47
23.14
20.63
17.85
14.58
10.68
6.29
1.83
-2.16
-5.26
-7.38
-8.81
-10.04
-11.59
-13.71
-16.28
-18.96
-21.39
-23.47
-25.40
-27.63
-30.50
-33.98
-37.52
-40.18
-40.98
-39.17
-34.53
-27.31
-18.12
-7.68
3.26
14.05
24.11
32.96
40.26
45.79
49.41
51.06
50.76
48.62
44.90
40.03
34.57
29.04
23.64
18.21
12.38
5.73
-1.99
-10.69
-19.83
-28.38
-35.10
-38.94
-39.72
-38.75
-39.05
-44.82
-59.77
-85.36
-119.19
-155.11
-184.73
-199.91
-195.45
-170.70
-129.70
-79.81
-29.59
13.72
45.12
62.58
67.15
62.50
53.75
45.97
42.89
46.00
55.58
70.29
87.77
105.51
121.53
134.34
142.90
146.82
146.52
144.80
144.69
148.09
155.10
164.31
172.72
176.99
174.80
165.70
153.09
141.00
131.79
124.99
117.84
105.89
85.34
54.89
6.37
-58.07
-127.02
-186.33
-228.08
-253.02
-267.84
-281.66
-300.45
-326.81
-358.75
-392.54
-423.95
-449.37
-460.74
-453.81
-428.75
-390.07
-345.03
-299.16
-255.62
-215.02
-176.32
-138.12
-100.69
-65.28
-33.15
-4.54
22.75
51.70
84.62
122.47
165.18
211.24
258.58
304.40
344.89
376.06
394.37
398.07
388.57
370.64
350.57
333.97
323.30
316.83
309.69
296.12
272.24
238.00
197.44
156.84
122.41
97.98
84.08
78.49
77.69
78.29
77.35
72.17
60.24
40.16
12.85
-17.96
-46.67
-68.00
-79.13
-80.53
-74.88
-65.22
-53.47
-40.53
-27.37
-16.00
-9.18
-9.07
-15.89
-27.80
-42.24
-57.58
-73.85
-91.96
-111.93
-131.72
-147.51
-155.56
-154.20
-145.00
-132.18
-120.69
-113.97
-112.67
-114.65
-116.35
-114.68
-108.31
-97.98
-85.69
-73.37
-61.99
-51.48
-41.38
-31.83
-23.92
-19.38
-19.71
-25.33
-35.22
-47.52
-60.55
-73.64
-87.05
-100.97
-114.33
-124.28
-126.97
-119.33
-100.88
-74.60
-46.04
-21.14
-3.95
4.64
6.34
3.69
-1.74
-10.13
-22.47
-38.73
-56.44
-70.50
-74.66
-63.83
-36.03
6.82
59.60
115.67
168.73
214.20
249.68
274.83
290.72
299.18
302.21
301.53
298.29
292.91
285.15
274.03
258.14
236.09
207.11
171.71
131.76
89.94
48.70
9.30
-28.55
-66.24
-105.11
-145.39
-185.76
-223.77
-256.59
-281.81
-297.62
-302.66
-295.86
-276.70
-245.91
-206.17
-162.12
-119.48
-83.52
-57.55
-42.13
-35.35
-34.15
-35.77
-38.76
-43.05
-49.08
-56.80
-65.19
-72.45
-76.75
-76.84
-72.18
-62.65
-48.13
-28.74
-5.24
20.41
45.19
65.79
79.69
85.95
85.28
79.45
70.52
60.34
50.49
42.35
36.80
33.90
32.65
31.25
27.84
21.48
12.58
2.75
-5.96
-11.79
-13.65
-11.26
-5.01
4.10
14.50
24.23
31.46
35.12
35.43
33.89
32.62
33.33
36.45
40.89
44.53
45.20
41.79
34.75
25.92
17.69
12.05
9.84
10.52
12.61
14.46
14.98
14.01
12.24
10.71
10.24
10.97
12.19
12.61
10.91
6.38
-0.54
-8.34
-14.92
-18.52
-18.49
-15.59
-11.59
-8.45
-7.61
-9.68
-14.52
-21.69
-30.53
-40.21
-49.53
-56.91
-60.76
-59.92
-54.15
-44.15
-31.40
-17.71
-4.87
5.74
13.47
18.46
21.57
23.94
26.40
29.05
31.28
32.31
31.81
30.21
28.41
27.24
26.97
27.40
28.22
29.42
31.23
33.60
35.79
36.40
34.12
28.68
21.30
14.23
9.70
8.66
10.44
13.17
14.86
14.36
11.65
7.47
2.71
-2.07
-6.77
-11.47
-16.24
-21.08
-25.97
-30.94
-35.98
-40.83
-44.81
-46.82
-45.74
-40.84
-32.19
-20.72
-7.99
4.30
14.72
22.41
27.06
28.71
27.60
24.11
18.81
12.48
6.17
1.03
-2.05
-2.72
-1.45
0.57
1.88
1.27
-1.73
-6.75
-12.81
-18.76
-23.68
-27.01
-28.46
-27.89
-25.28
-20.88
-15.48
-10.39
-7.14
-6.93
-10.02
-15.49
-21.47
-25.83
-27.01
-24.65
-19.82
-14.60
-11.29
-11.38
-14.84
-20.16
-24.89
-26.67
-24.16
-17.35
-7.30
4.49
16.74
28.58
39.39
48.54
55.26
58.85
59.01
56.03
50.76
44.39
38.06
32.67
28.73
26.32
25.06
24.21
22.90
20.54
17.18
13.59
10.84
9.68
9.93
10.52
9.98
7.30
2.47
-3.53
-9.28
-13.67
-16.37
-17.84
-18.93
-20.33
-22.41
-25.18
-28.64
-32.85
-37.85
-43.48
-49.13
-53.78
-56.24
-55.50
-51.07
-43.14
-32.54
-20.49
-8.30
3.05
13.09
21.87
29.64
36.47
41.91
45.09
45.13
41.90
36.32
30.32
25.97
24.61
26.18
29.36
32.28
33.50
32.61
30.19
27.25
24.68
22.84
21.69
21.04
20.71
20.54
20.27
19.55
18.15
16.27
14.50
13.56
13.70
14.37
14.32
12.15
7.12
-0.40
-9.03
-16.85
-22.14
-23.88
-21.83
-16.32
-7.88
3.02
16.01
30.74
46.71
63.22
79.32
93.80
105.27
112.32
113.80
109.39
99.94
87.44
74.53
63.48
55.07
47.94
38.76
23.44
-1.21
-35.93
-78.12
-122.08
-160.15
-184.63
-189.93
-174.41
-141.29
-98.14
-54.96
-21.27
-3.37
-2.74
-16.17
-37.44
-59.86
-78.41
-90.84
-97.50
-100.40
-102.00
-104.55
-109.60
-117.83
-128.73
-140.35
-149.19
-150.79
-141.07
-117.94
-82.47
-38.98
6.30
47.29
79.96
103.12
117.87
126.14
129.15
126.68
117.36
99.71
73.24
39.11
0.03
-40.38
-78.47
-111.27
-136.92
-154.70
-164.73
-167.49
-163.49
-153.17
-137.14
-116.65
-93.85
-71.59
-52.89
-40.11
-34.33
-35.03
-40.22
-46.63
-50.27
-47.08
-33.94
-9.73
23.82
62.10
98.72
127.23
143.05
144.72
134.02
115.14
93.31
73.50
59.44
53.10
54.53
62.17
73.42
85.44
95.90
103.29
107.16
107.94
106.68
104.80
103.72
104.32
106.57
109.29
110.48
108.03
100.64
88.37
72.63
55.72
39.92
26.84
17.10
10.35
5.72
2.17
-1.14
-4.65
-8.42
-12.19
-15.54
-18.06
-19.60
-20.35
-20.78
-21.41
-22.60
-24.39
-26.59
-28.99
-31.53
-34.28
-37.26
-40.19
-42.40
-42.89
-40.60
-34.71
-24.76
-10.76
6.78
26.86
47.94
68.13
85.49
98.27
105.28
105.90
100.14
88.74
73.36
56.62
41.75
31.70
27.89
29.36
32.87
34.12
29.51
17.79
0.55
-18.59
-35.58
-47.63
-54.09
-56.16
-55.87
-54.86
-53.65
-51.80
-48.68
-44.23
-39.43
-35.90
-35.16
-37.88
-43.59
-50.93
-58.42
-65.04
-70.36
-74.28
-76.44
-76.08
-72.37
-65.11
-55.21
-44.62
-35.53
-29.39
-26.28
-24.95
-23.61
-20.96
-16.87
-12.39
-9.15
-8.31
-9.93
-12.87
-15.34
-15.73
-13.31
-8.41
-2.13
4.30
10.01
14.74
18.64
21.89
24.32
25.49
24.96
22.72
19.41
16.15
14.06
13.68
14.76
16.43
17.72
17.99
17.13
15.40
13.02
9.94
5.84
0.40
-6.31
-13.63
-20.41
-25.43
-27.75
-27.12
-23.91
-18.97
-13.22
-7.36
-1.68
3.85
9.42
15.12
20.84
26.29
31.17
35.27
38.50
40.81
42.19
42.69
42.48
41.88
41.28
40.98
41.05
41.40
41.83
42.28
42.86
43.66
44.47
44.74
43.67
40.68
35.95
30.45
25.79
23.44
24.12
27.46
32.14
36.44
38.84
38.39
34.69
27.80
18.14
6.54
-5.68
-16.75
-24.92
-28.96
-28.73
-25.21
-20.16
-15.36
-11.89
-9.72
-7.99
-5.66
-2.27
1.62
4.60
5.16
2.51
-2.97
-9.81
-16.21
-20.86
-23.51
-24.84
-25.86
-27.23
-28.83
-30.08
-30.41
-29.83
-29.06
-29.17
-30.96
-34.55
-39.34
-44.46
-49.33
-53.90
-58.61
-63.78
-69.24
-74.17
-77.56
-78.84
-78.39
-77.43
-77.47
-79.44
-83.22
-87.72
-91.39
-92.98
-91.89
-88.09
-81.74
-72.79
-60.99
-46.30
-29.31
-11.59
4.63
17.14
24.63
27.23
26.44
24.48
23.58
25.26
30.17
38.12
48.37
59.86
71.29
81.32
88.70
92.55
92.59
89.15
83.06
75.39
67.16
59.21
52.08
45.98
40.73
35.81
30.55
24.46
17.44
9.87
2.42
-4.29
-9.98
-14.86
-19.43
-24.20
-29.39
-34.86
-40.13
-44.56
-47.49
-48.40
-46.97
-43.15
-37.18
-29.59
-21.00
-12.04
-3.23
5.08
12.54
18.83
23.61
26.68
27.97
27.73
26.34
24.34
22.25
20.57
19.74
20.01
21.35
23.42
25.65
27.48
28.57
28.97
28.95
28.77
28.39
27.52
25.74
22.88
19.11
14.91
10.81
7.19
4.15
1.63
-0.51
-2.41
-4.32
-6.63
-9.94
-14.73
-21.10
-28.54
-36.11
-42.76
-47.69
-50.50
-51.09
-49.45
-45.44
-38.93
-30.06
-19.63
-9.01
0.32
7.40
12.12
15.03
16.93
18.46
19.88
21.14
22.10
22.95
24.17
26.04
28.06
29.10
28.30
25.93
23.58
23.69
28.81
40.52
58.42
79.82
100.50
116.14
123.75
121.73
109.88
89.63
63.60
34.77
5.45
-23.19
-50.97
-74.63
-89.93
-94.08
-87.80
-74.81
-59.30
-44.05
-30.26
-18.01
-9.13
-3.90
-3.94
-11.36
-27.12
-49.93
-76.06
-100.19
-117.35
-119.14
-102.67
-70.54
-29.19
13.57
51.07
79.28
97.25
106.41
109.36
107.87
102.71
94.21
82.63
68.19
51.13
31.61
9.86
-13.85
-39.78
-67.98
-97.66
-126.77
-152.46
-171.16
-179.16
-173.65
-153.82
-122.01
-83.13
-43.25
-7.95
18.09
32.89
37.37
34.69
28.53
21.68
15.94
12.71
13.44
17.89
25.78
36.92
51.39
68.64
86.84
103.13
114.30
117.44
107.93
83.10
43.65
-5.91
-59.06
-109.87
-154.47
-191.35
-209.70
-203.56
-175.24
-135.75
-96.65
-64.02
-39.02
-20.38
-6.62
3.39
5.18
-3.13
-22.09
-50.37
-85.48
-124.85
-165.50
-203.61
-224.98
-223.09
-198.56
-158.79
-114.44
-75.10
-46.86
-30.88
-24.12
-21.94
-21.85
-24.45
-30.80
-40.69
-51.86
-61.64
-67.78
-69.11
-65.57
-59.48
-52.88
-45.78
-40.15
-34.90
-28.27
-18.71
-5.41
11.50
30.14
48.30
64.34
77.57
88.73
99.05
109.85
122.30
137.16
154.54
174.37
196.47
220.10
243.90
265.25
280.88
288.06
285.81
275.19
259.01
240.62
222.49
205.67
189.60
172.99
154.84
135.03
114.26
93.51
73.58
54.76
37.07
20.38
4.65
-9.91
-22.82
-33.53
-41.65
-47.06
-49.88
-50.32
-48.65
-45.20
-40.42
-34.85
-28.97
-22.96
-16.68
-9.68
-1.60
7.64
17.66
27.84
37.57
46.44
54.05
59.75
62.49
61.09
54.91
44.62
32.33
21.15
13.93
12.19
15.43
21.30
26.51
28.02
24.04
14.50
0.90
-14.30
-28.48
-39.54
-46.28
-48.48
-46.63
-41.56
-34.05
-24.85
-14.56
-3.72
7.26
18.37
29.96
42.63
56.80
72.22
87.85
102.10
113.53
121.49
126.41
129.47
131.91
134.39
136.71
138.04
137.32
133.47
125.33
111.50
90.73
62.68
29.06
-6.04
-37.14
-59.48
-71.15
-74.10
-73.05
-73.20
-78.02
-88.32
-103.01
-120.78
-141.43
-166.12
-196.42
-232.89
-274.18
-317.07
-357.45
-391.50
-416.60
-431.52
-436.06
-430.45
-415.02
-390.36
-357.85
-320.17
-281.26
-245.51
-216.29
-194.77
-179.27
-165.94
-150.32
-129.04
-100.90
-66.76
-28.74
10.91
50.52
89.10
125.86
159.71
189.20
212.87
229.96
240.90
247.14
250.43
251.88
251.48
248.29
241.31
230.23
215.72
199.15
182.12
166.12
152.66
143.36
139.94
143.75
154.86
171.26
188.61
201.01
202.73
190.08
162.85
124.51
81.06
39.01
3.41
-23.23
-40.92
-51.19
-55.95
-56.72
-54.53
-50.33
-45.23
-40.43
-36.77
-34.37
-32.65
-30.84
-28.53
-26.01
-24.11
-23.75
-25.41
-28.75
-32.73
-35.91
-37.11
-35.82
-32.37
-27.78
-23.26
-19.79
-17.76
-17.09
-17.35
-18.06
-18.77
-19.15
-19.04
-18.45
-17.73
-17.49
-18.49
-21.22
-25.76
-31.68
-38.33
-45.13
-51.65
-57.43
-61.76
-63.61
-62.02
-56.66
-48.28
-38.51
-29.29
-21.89
-16.36
-11.71
-6.57
-0.10
7.42
14.78
20.53
23.77
24.50
23.52
21.84
20.15
18.70
17.42
16.24
15.37
15.12
15.62
16.51
16.94
15.90
12.80
7.83
1.99
-3.32
-6.94
-8.39
-8.05
-6.92
-6.21
-6.83
-9.18
-13.09
-18.01
-23.20
-27.94
-31.56
-33.59
-33.78
-32.17
-29.19
-25.48
-21.80
-18.67
-16.18
-13.71
-10.17
-4.44
4.04
14.72
25.97
35.59
41.66
43.44
41.72
38.44
35.76
35.11
36.58
39.13
41.29
42.00
41.10
39.14
36.80
34.37
31.65
28.24
24.00
19.17
14.20
9.26
4.04
-1.94
-8.82
-15.95
-22.11
-26.15
-27.82
-28.02
-28.34
-30.07
-33.34
-37.11
-39.93
-41.04
-40.99
-41.23
-43.18
-47.10
-51.72
-54.84
-54.48
-49.90
-41.97
-32.58
-23.73
-16.61
-11.39
-7.39
-3.73
0.17
4.46
8.84
13.00
16.79
20.39
24.30
28.97
34.51
40.40
45.60
48.78
48.96
45.85
40.07
32.93
25.89
20.05
15.83
12.92
10.55
7.88
4.32
-0.25
-5.48
-10.77
-15.51
-19.37
-22.39
-24.82
-26.96
-28.87
-30.51
-31.94
-33.53
-35.92
-39.63
-44.59
-49.88
-53.96
-55.29
-53.02
-47.38
-39.47
-30.68
-22.01
-13.78
-5.78
2.34
10.64
18.78
26.18
32.21
36.47
38.83
39.46
38.84
37.63
36.48
35.84
35.78
35.94
35.69
34.35
31.56
27.35
22.13
16.58
11.40
7.17
4.28
2.85
2.83
3.92
5.73
7.74
9.32
9.80
8.54
5.17
-0.30
-7.37
-15.18
-22.79
-29.59
-35.55
-41.12
-46.86
-52.96
-58.83
-63.27
-65.00
-63.32
-58.50
-51.65
-43.99
-36.19
-28.15
-19.30
-9.34
1.18
10.94
18.39
22.64
23.88
23.29
22.34
22.05
22.61
23.54
24.19
24.21
23.76
23.36
23.56
24.67
26.60
28.95
31.13
32.57
32.78
31.52
28.82
24.95
20.36
15.56
10.97
6.89
3.37
0.31
-2.52
-5.37
-8.51
-12.10
-16.25
-21.00
-26.28
-31.99
-37.88
-43.48
-48.08
-50.72
-50.50
-46.76
-39.41
-29.01
-16.65
-3.74
8.32
18.43
25.90
30.57
32.67
32.78
31.64
29.95
28.24
26.89
26.06
25.85
26.22
27.13
28.46
30.05
31.63
32.83
33.23
32.36
29.96
26.03
20.94
15.20
9.24
3.21
-2.99
-9.42
-15.76
-21.25
-25.01
-26.53
-26.05
-24.53
-23.20
-22.96
-24.07
-26.19
-28.76
-31.48
-34.34
-37.47
-40.72
-43.44
-44.59
-43.08
-38.34
-30.54
-20.60
-9.80
0.63
9.89
17.70
24.12
29.27
33.14
35.54
36.28
35.35
33.11
30.18
27.31
25.07
23.72
23.19
23.21
23.52
23.94
24.38
24.74
24.90
24.68
23.93
22.58
20.68
18.36
15.73
12.85
9.73
6.38
2.84
-0.76
-4.29
-7.63
-10.78
-13.88
-17.19
-21.11
-25.98
-31.95
-38.72
-45.52
-51.19
-54.48
-54.51
-51.00
-44.39
-35.57
-25.61
-15.44
-5.72
3.16
10.94
17.40
22.31
25.56
27.21
27.50
26.86
25.69
24.36
23.05
21.84
20.69
19.55
18.33
16.94
15.31
13.28
10.71
7.43
3.37
-1.32
-6.38
-11.42
-16.09
-20.18
-23.53
-26.09
-27.71
-28.28
-27.72
-26.18
-24.01
-21.71
-19.71
-18.23
-17.26
-16.77
-16.83
-17.59
-19.06
-20.89
-22.16
-21.71
-18.59
-12.57
-4.35
4.74
13.32
20.60
26.56
31.79
36.90
42.05
46.81
50.36
51.99
51.49
49.25
46.03
42.64
39.60
37.05
34.78
32.51
29.98
27.04
23.66
19.79
15.51
11.05
6.85
3.49
1.38
0.51
0.34
-0.08
-1.69
-5.02
-9.87
-15.44
-20.66
-24.76
-27.48
-29.14
-30.34
-31.62
-33.28
-35.30
-37.52
-39.66
-41.48
-42.63
-42.74
-41.37
-38.11
-32.77
-25.40
-16.42
-6.45
3.75
13.46
22.06
29.12
34.41
37.93
39.84
40.46
40.13
39.10
37.66
36.04
34.57
33.50
32.93
32.64
32.20
31.06
28.87
25.68
21.92
18.24
15.17
12.97
11.61
10.77
10.08
9.20
7.88
6.00
3.56
0.75
-2.16
-4.86
-7.18
-9.16
-11.08
-13.33
-16.24
-19.87
-23.85
-27.39
-29.45
-28.99
-25.31
-18.28
-8.40
3.31
15.60
27.29
37.62
46.30
53.58
60.05
66.41
73.19
80.51
87.94
94.60
99.49
101.92
101.96
100.61
99.51
100.53
104.91
112.55
121.70
129.17
131.27
124.97
109.16
85.25
57.01
29.53
7.62
-5.86
-10.92
-10.60
-10.16
-15.55
-31.80
-61.32
-102.93
-151.72
-200.09
-239.66
-263.77
-269.32
-257.65
-233.80
-204.71
-176.93
-154.91
-140.42
-132.97
-130.83
-131.84
-133.85
-134.98
-133.82
-129.84
-123.68
-117.02
-111.86
-109.62
-110.20
-111.67
-110.85
-104.30
-89.75
-67.03
-38.34
-7.59
21.04
44.69
62.83
77.11
89.90
102.34
112.86
117.04
108.97
83.73
39.72
-20.03
-88.19
-154.73
-209.61
-245.24
-258.15
-249.37
-223.51
-186.76
-144.84
-101.72
-59.42
-18.80
19.41
54.14
84.20
109.06
129.31
146.34
161.43
174.69
184.66
188.80
184.95
172.73
154.21
133.39
114.69
101.18
93.62
90.39
88.63
85.62
79.81
71.17
60.77
50.14
40.66
33.36
28.97
28.06
31.04
37.90
47.94
59.58
70.54
78.39
81.25
78.36
70.31
58.64
45.18
31.37
17.97
5.31
-6.36
-16.48
-24.38
-29.62
-32.46
-33.89
-35.24
-37.48
-40.84
-44.71
-48.04
-49.80
-49.35
-46.44
-41.15
-33.63
-24.14
-13.07
-1.08
10.96
21.99
30.97
37.11
40.08
40.27
38.65
36.51
34.87
34.09
33.70
32.84
30.81
27.59
23.83
20.40
17.86
16.14
14.73
13.00
10.61
7.62
4.31
0.93
-2.39
-5.66
-8.89
-12.08
-15.18
-18.19
-21.16
-24.25
-27.65
-31.56
-36.08
-41.14
-46.40
-51.22
-54.78
-56.33
-55.40
-51.91
-46.07
-38.21
-28.60
-17.58
-5.69
6.15
16.70
24.69
29.26
30.33
28.65
25.59
22.66
21.02
21.08
22.37
23.70
23.64
20.99
15.33
7.21
-2.05
-10.82
-17.84
-22.55
-25.16
-26.30
-26.58
-26.22
-25.19
-23.42
-21.14
-18.87
-17.18
-16.31
-16.02
-15.79
-15.28
-14.65
-14.57
-15.75
-18.39
-21.74
-24.33
-24.49
-21.09
-14.01
-4.06
7.37
18.89
29.41
38.29
45.30
50.46
54.01
56.25
57.49
57.85
57.23
55.34
51.89
46.83
40.48
33.46
26.51
20.25
15.04
10.99
7.98
5.76
3.97
2.14
-0.27
-3.71
-8.44
-14.25
-20.45
-25.87
-29.23
-29.56
-26.70
-21.44
-15.37
-10.32
-7.72
-8.12
-11.17
-15.89
-21.21
-26.21
-30.28
-32.88
-33.50
-31.67
-27.18
-20.21
-11.36
-1.44
8.69
18.28
26.64
33.11
37.17
38.60
37.68
35.21
32.22
29.59
27.68
26.30
24.92
23.05
20.49
17.33
13.80
9.94
5.65
0.66
-5.31
-12.49
-21.13
-31.41
-43.37
-56.64
-70.21
-82.36
-90.89
-93.55
-88.63
-75.57
-55.48
-31.13
-6.54
13.99
27.17
31.75
28.99
22.05
14.69
9.85
8.68
10.62
14.15
17.85
21.03
23.74
26.46
29.49
32.73
35.71
37.77
38.43
37.48
35.08
31.61
27.68
23.93
20.84
18.57
16.91
15.36
13.39
10.75
7.67
4.80
2.97
2.76
4.16
6.45
8.31
8.26
5.17
-1.21
-9.79
-18.05
-22.45
-19.47
-7.01
14.55
41.85
69.34
90.79
101.22
98.35
83.20
59.59
32.80
8.10
-10.58
-21.38
-24.51
-21.74
-15.43
-7.79
-0.29
6.23
11.28
14.44
15.35
14.01
11.05
7.69
5.18
4.19
4.37
4.56
3.40
0.19
-4.64
-9.84
-13.97
-16.21
-16.71
-16.40
-16.39
-17.39
-19.37
-21.73
-23.67
-24.56
-24.30
-23.18
-21.83
-20.94
-21.05
-22.45
-25.06
-28.59
-32.53
-36.34
-39.50
-41.54
-42.09
-40.88
-37.81
-33.01
-26.83
-19.78
-12.36
-5.00
1.95
8.15
13.27
17.04
19.36
20.44
20.69
20.53
20.23
19.75
18.89
17.49
15.61
13.52
11.53
9.73
7.92
5.70
2.82
-0.57
-3.79
-5.96
-6.41
-5.13
-2.88
-0.83
-0.05
-1.04
-3.58
-7.01
-10.70
-14.38
-18.19
-22.42
-27.14
-31.95
-36.15
-38.96
-39.94
-39.05
-36.56
-32.71
-27.58
-21.07
-13.11
-3.96
5.65
14.64
21.97
27.01
29.83
31.07
31.55
31.87
32.14
32.15
31.58
30.27
28.30
25.82
22.93
19.63
15.97
12.18
8.78
6.35
5.25
5.35
6.05
6.47
5.91
4.06
1.12
-2.40
-5.98
-9.35
-12.59
-16.05
-20.12
-24.98
-30.53
-36.44
-42.22
-47.39
-51.53
-54.30
-55.38
-54.54
-51.64
-46.80
-40.49
-33.40
-26.26
-19.55
-13.32
-7.23
-0.83
6.06
13.10
19.49
24.31
27.04
27.79
27.32
26.58
26.13
25.80
24.77
22.03
16.99
9.91
1.88
-5.72
-11.89
-16.51
-20.29
-24.37
-29.58
-36.01
-42.85
-48.77
-52.29
-52.08
-47.02
-36.26
-19.44
2.79
28.40
53.82
74.68
87.01
88.60
79.91
63.85
44.76
26.83
12.93
4.10
-0.08
-0.66
1.31
5.05
9.87
14.94
19.21
21.72
22.01
20.52
18.33
16.70
16.35
17.13
18.15
18.30
16.93
14.25
11.37
9.83
10.93
14.95
20.60
24.82
23.47
12.70
-9.18
-40.13
-74.05
-102.41
-117.03
-113.03
-90.55
-54.55
-13.12
25.09
53.09
66.96
66.18
53.47
33.81
12.99
-4.12
-15.27
-21.62
-27.29
-37.53
-56.50
-85.69
-123.43
-165.61
-206.85
-241.53
-264.69
-272.72
-264.03
-239.51
-202.39
-157.58
-110.53
-66.08
-27.83
1.99
22.46
33.97
38.49
39.46
41.05
46.85
58.36
74.28
91.23
105.40
114.36
118.00
118.01
116.58
114.92
112.55
107.75
98.74
84.85
67.16
48.28
31.64
20.34
16.29
19.53
28.26
39.42
49.61
56.28
58.49
57.03
53.72
50.30
47.61
45.30
42.27
37.46
30.71
22.96
16.00
11.70
11.28
14.88
21.52
29.53
37.20
43.33
47.54
50.27
52.35
54.63
57.50
60.84
64.16
66.90
68.53
68.52
66.23
60.97
52.24
40.18
25.84
11.14
-1.67
-10.68
-15.18
-15.93
-15.03
-15.07
-18.07
-24.61
-33.65
-43.09
-50.76
-55.32
-56.77
-56.16
-54.81
-53.65
-52.75
-51.54
-49.30
-45.68
-40.77
-34.94
-28.46
-21.38
-13.53
-4.91
4.12
12.65
19.45
23.44
24.20
22.32
19.25
16.74
16.13
17.81
21.20
25.15
28.57
30.90
32.20
32.84
33.17
33.27
32.92
31.74
29.38
25.61
20.46
14.31
7.84
1.97
-2.51
-5.21
-6.35
-6.55
-6.48
-6.55
-6.84
-7.32
-8.14
-9.72
-12.47
-16.42
-20.90
-24.68
-26.43
-25.30
-21.33
-15.28
-8.21
-0.94
6.24
13.46
20.91
28.45
35.51
41.18
44.65
45.51
43.89
40.28
35.23
29.05
21.78
13.40
4.07
-5.64
-14.87
-22.65
-28.22
-31.20
-31.60
-29.75
-26.18
-21.62
-17.03
-13.45
-11.78
-12.49
-15.35
-19.54
-23.96
-27.68
-30.20
-31.47
-31.64
-30.80
-29.04
-26.64
-24.26
-22.84
-23.18
-25.37
-28.57
-31.26
-32.01
-30.17
-26.20
-21.27
-16.60
-12.87
-10.01
-7.57
-5.19
-2.89
-1.04
-0.09
-0.21
-1.21
-2.57
-3.75
-4.35
-4.23
-3.45
-2.09
-0.11
2.67
6.48
11.33
16.89
22.45
27.18
30.51
32.36
32.99
32.74
31.71
29.72
26.47
21.96
16.62
11.29
6.85
3.75
1.90
0.70
-0.62
-2.63
-5.52
-9.19
-13.37
-17.72
-21.79
-25.02
-26.74
-26.33
-23.46
-18.20
-11.07
-2.76
6.05
14.83
23.08
30.17
35.18
37.18
35.52
30.32
22.71
14.65
8.29
5.26
6.03
9.75
14.68
19.01
21.57
22.29
21.88
21.20
20.60
19.66
17.43
13.16
6.81
-0.84
-8.53
-15.15
-20.09
-23.39
-25.48
-26.89
-28.00
-28.99
-29.85
-30.54
-31.15
-31.96
-33.37
-35.73
-39.00
-42.56
-45.25
-45.78
-43.29
-37.76
-30.13
-21.84
-14.24
-8.06
-3.28
0.54
3.85
6.81
9.24
10.87
11.54
11.42
10.95
10.56
10.54
10.84
11.13
11.02
10.24
8.80
6.98
5.21
3.82
2.84
1.89
0.29
-2.71
-7.51
-13.83
-20.75
-26.91
-31.10
-32.70
-32.07
-30.47
-29.60
-31.00
-35.61
-43.66
-54.62
-67.29
-79.75
-89.42
-93.37
-88.92
-74.49
-50.18
-17.92
18.88
56.26
90.59
119.35
141.20
155.73
162.87
162.68
155.44
142.15
124.76
105.98
88.27
72.68
58.17
42.00
21.30
-4.98
-34.95
-64.26
-88.07
-103.21
-109.41
-108.82
-104.35
-97.94
-89.92
-79.54
-66.12
-50.07
-32.96
-16.87
-3.55
6.37
13.24
17.96
21.33
23.61
24.48
23.65
21.51
19.79
21.39
29.62
46.63
72.07
102.44
131.70
153.00
160.77
152.45
129.06
94.78
55.57
17.57
-14.46
-38.11
-53.47
-62.64
-68.50
-73.46
-78.55
-83.18
-85.69
-84.47
-78.79
-69.43
-58.41
-48.29
-41.21
-38.30
-39.40
-43.38
-48.76
-54.24
-59.16
-63.41
-67.20
-70.64
-73.51
-75.40
-75.95
-75.36
-74.47
-74.76
-77.86
-85.01
-96.48
-111.48
-128.45
-145.78
-162.43
-178.21
-193.45
-208.32
-222.03
-232.55
-236.96
-232.38
-217.06
-191.13
-156.61
-116.62
-74.37
-32.22
8.84
48.98
89.17
130.76
175.20
223.60
276.19
331.64
386.70
436.47
475.66
500.33
509.39
504.95
491.43
473.68
455.14
437.01
418.53
398.19
375.00
349.23
322.19
295.59
270.74
248.16
227.72
208.95
191.49
175.22
160.05
145.62
131.22
116.14
100.26
84.54
70.79
60.85
55.33
52.80
50.12
43.85
32.02
15.36
-3.06
-19.54
-31.86
-40.41
-47.88
-57.65
-71.65
-89.72
-110.13
-131.14
-152.38
-175.35
-202.41
-234.95
-272.14
-311.00
-347.69
-378.73
-401.80
-415.66
-420.00
-415.78
-405.61
-393.76
-384.76
-381.07
-381.24
-380.07
-371.13
-350.13
-317.23
-276.48
-233.09
-190.57
-149.81
-110.59
-74.11
-44.26
-25.82
-21.28
-28.30
-40.04
-48.02
-46.18
-33.42
-13.22
8.93
28.69
44.52
57.46
69.42
81.40
92.63
101.05
104.59
102.45
95.64
86.56
78.10
72.62
71.42
74.42
80.02
85.16
85.74
77.75
58.87
29.83
-5.21
-39.85
-67.83
-85.42
-92.60
-92.38
-88.78
-84.78
-81.30
-77.83
-73.75
-69.51
-66.72
-67.11
-71.42
-78.72
-86.84
-93.38
-96.82
-97.03
-95.00
-92.03
-88.96
-85.79
-81.82
-76.11
-68.05
-57.63
-45.52
-32.84
-20.85
-10.60
-2.66
2.98
6.94
10.13
13.44
17.35
21.82
26.33
30.25
33.08
34.66
35.21
35.09
34.62
33.96
33.05
31.71
29.74
27.06
23.74
20.08
16.48
13.33
10.84
8.94
7.28
5.37
2.80
-0.60
-4.67
-8.97
-12.96
-16.12
-18.10
-18.67
-17.75
-15.33
-11.51
-6.53
-0.74
5.46
11.70
17.72
23.37
28.52
33.07
36.84
39.60
41.25
41.86
41.76
41.46
41.46
42.10
43.44
45.26
47.17
48.71
49.57
49.61
48.84
47.38
45.41
43.09
40.62
38.16
35.82
33.63
31.49
29.25
26.76
23.95
20.78
17.26
13.32
8.89
3.93
-1.35
-6.52
-10.89
-13.80
-14.74
-13.60
-10.56
-6.10
-0.71
5.24
11.52
17.99
24.47
30.68
36.32
41.12
45.02
48.16
50.78
53.09
55.18
57.01
58.47
59.48
60.05
60.27
60.22
59.97
59.48
58.70
57.57
55.97
53.73
50.72
46.88
42.31
37.30
32.25
27.51
23.26
19.47
15.91
12.25
8.29
3.94
-0.69
-5.38
-9.93
-14.19
-18.05
-21.37
-23.82
-24.95
-24.22
-21.23
-15.96
-8.78
-0.47
8.10
16.23
23.52
29.88
35.34
39.83
43.18
45.15
45.64
44.81
43.05
40.86
38.63
36.54
34.68
33.04
31.61
30.32
28.95
27.21
24.79
21.61
17.95
14.37
11.48
9.59
8.50
7.58
6.07
3.42
-0.40
-4.91
-9.41
-13.23
-16.03
-17.88
-19.18
-20.52
-22.48
-25.59
-30.14
-36.03
-42.62
-48.74
-52.90
-53.79
-50.66
-43.71
-33.86
-22.45
-10.74
0.35
10.22
18.54
25.05
29.65
32.36
33.48
33.47
32.81
31.91
30.96
30.12
29.43
28.95
28.60
28.16
27.32
25.81
23.57
20.89
18.20
15.88
14.04
12.44
10.69
8.45
5.71
2.79
0.16
-1.88
-3.30
-4.35
-5.35
-6.47
-7.67
-8.86
-10.09
-11.58
-13.63
-16.34
-19.32
-21.79
-22.80
-21.66
-18.16
-12.69
-5.95
1.21
8.10
14.21
19.25
23.12
25.90
27.74
28.84
29.27
29.02
28.00
26.27
24.15
22.12
20.66
20.02
20.02
20.19
19.97
19.00
17.20
14.80
12.14
9.52
7.08
4.81
2.67
0.60
-1.32
-3.02
-4.48
-5.80
-7.23
-9.06
-11.51
-14.49
-17.64
-20.47
-22.60
-23.98
-24.97
-26.09
-27.69
-29.69
-31.54
-32.44
-31.75
-29.19
-25.02
-19.78
-14.01
-8.09
-2.15
3.79
9.56
14.81
19.03
21.77
22.83
22.39
20.97
19.20
17.65
16.54
15.77
15.01
13.91
12.36
10.58
8.98
7.94
7.58
7.63
7.55
6.83
5.25
2.97
0.45
-1.87
-3.72
-5.21
-6.57
-8.06
-9.76
-11.59
-13.37
-15.01
-16.50
-17.98
-19.61
-21.50
-23.70
-26.16
-28.72
-31.10
-32.98
-33.97
-33.76
-32.13
-29.02
-24.45
-18.55
-11.61
-4.13
3.21
9.70
14.78
18.24
20.27
21.29
21.74
21.84
21.62
21.00
20.02
18.88
17.87
17.22
16.91
16.71
16.28
15.37
13.98
12.28
10.52
8.87
7.29
5.64
3.73
1.44
-1.27
-4.33
-7.62
-10.86
-13.69
-15.69
-16.64
-16.60
-16.06
-15.69
-16.07
-17.44
-19.59
-22.03
-24.28
-26.14
-27.64
-28.91
-29.89
-30.23
-29.42
-27.02
-22.99
-17.68
-11.78
-5.99
-0.75
3.89
8.11
12.11
15.87
19.01
21.04
21.54
20.51
18.41
15.99
14.08
13.16
13.28
14.06
14.91
15.34
15.12
14.32
13.18
11.93
10.70
9.47
8.17
6.77
5.30
3.78
2.19
0.41
-1.68
-4.10
-6.73
-9.30
-11.48
-13.14
-14.31
-15.28
-16.42
-18.05
-20.33
-23.18
-26.33
-29.38
-31.92
-33.62
-34.23
-33.62
-31.75
-28.64
-24.40
-19.28
-13.66
-7.99
-2.72
1.84
5.51
8.27
10.23
11.51
12.27
12.65
12.76
12.70
12.48
12.13
11.71
11.30
10.98
10.77
10.56
10.15
9.31
7.92
6.06
3.92
1.76
-0.18
-1.78
-3.03
-3.97
-4.72
-5.43
-6.28
-7.40
-8.80
-10.41
-12.05
-13.53
-14.72
-15.52
-16.00
-16.26
-16.48
-16.79
-17.23
-17.65
-17.73
-17.07
-15.33
-12.33
-8.14
-2.99
2.77
8.75
14.50
19.58
23.51
25.95
26.78
26.14
24.46
22.26
20.04
18.15
16.74
15.77
15.12
14.62
14.14
13.59
12.90
12.00
10.84
9.43
7.79
6.07
4.39
2.82
1.30
-0.36
-2.38
-4.86
-7.71
-10.60
-13.12
-15.02
-16.23
-16.99
-17.67
-18.61
-19.95
-21.61
-23.39
-25.03
-26.33
-27.16
-27.40
-26.87
-25.39
-22.78
-18.97
-14.11
-8.52
-2.61
3.23
8.77
13.84
18.30
21.97
24.64
26.13
26.45
25.83
24.74
23.66
22.98
22.89
23.43
24.55
26.15
28.05
29.99
31.58
32.48
32.56
32.03
31.43
31.40
32.37
34.38
37.04
39.75
41.99
43.63
44.96
46.66
49.39
53.48
58.68
64.24
69.22
72.98
75.76
78.77
83.97
93.16
107.07
124.43
141.88
154.72
158.26
149.23
126.71
92.40
50.25
5.76
-34.91
-66.02
-83.68
-87.42
-80.75
-70.42
-63.92
-66.32
-78.12
-95.21
-111.16
-120.51
-121.25
-115.08
-105.74
-96.49
-88.64
-81.49
-73.84
-65.38
-57.26
-51.47
-49.48
-51.27
-55.29
-59.21
-61.05
-60.01
-56.75
-52.94
-50.33
-49.91
-51.55
-54.08
-55.97
-56.13
-54.40
-51.62
-49.11
-47.91
-48.24
-49.30
-49.62
-47.76
-42.88
-35.07
-25.17
-14.36
-3.68
6.22
15.14
23.11
30.24
36.65
42.50
48.04
53.58
59.40
65.38
71.08
75.80
79.03
80.92
82.42
85.02
90.05
97.94
107.86
117.94
126.16
131.31
133.61
134.48
135.47
136.90
137.10
132.64
119.76
96.00
61.13
16.82
-34.46
-90.34
-148.01
-203.17
-249.32
-279.27
-288.32
-277.63
-255.25
-233.40
-222.89
-227.93
-244.38
-262.72
-273.67
-272.84
-261.65
-244.28
-223.00
-195.73
-157.74
-106.38
-45.37
14.78
60.67
82.35
78.28
56.22
29.19
9.36
2.90
8.63
20.83
33.82
45.50
57.92
75.14
99.75
130.42
161.87
187.08
200.38
199.77
187.42
168.24
147.43
128.22
111.31
95.78
80.70
66.41
54.84
48.44
48.61
54.21
61.37
64.99
60.90
47.90
28.52
7.99
-7.70
-13.94
-8.85
6.71
30.11
57.90
86.18
110.50
125.94
128.05
114.56
86.99
51.23
16.08
-9.60
-20.20
-15.40
-0.38
16.34
26.27
24.08
9.40
-13.51
-37.96
-57.60
-68.84
-71.66
-68.77
-63.67
-58.94
-55.40
-52.59
-50.02
-48.02
-47.94
-51.20
-58.27
-67.96
-77.71
-84.82
-87.69
-86.69
-83.94
-82.08
-82.85
-86.03
-89.53
-90.47
-86.57
-77.34
-64.24
-49.89
-36.87
-26.69
-19.52
-14.46
-10.24
-5.93
-1.32
3.19
6.83
8.95
9.30
8.21
6.48
5.10
4.85
6.05
8.42
11.32
14.06
16.15
17.45
17.99
17.80
16.85
15.09
12.62
9.76
6.97
4.64
2.92
1.64
0.42
-1.10
-3.16
-5.78
-8.87
-12.23
-15.64
-18.85
-21.67
-23.94
-25.63
-26.71
-27.00
-26.16
-23.73
-19.36
-13.01
-5.17
3.32
11.46
18.43
23.73
27.17
28.86
29.08
28.25
26.88
25.56
24.79
24.87
25.76
27.08
28.33
28.99
28.72
27.44
25.33
22.70
19.91
17.20
14.68
12.26
9.77
7.07
4.12
1.07
-1.88
-4.55
-6.89
-9.01
-11.13
-13.51
-16.36
-19.70
-23.40
-27.12
-30.29
-32.27
-32.39
-30.19
-25.55
-18.76
-10.48
-1.49
7.50
15.92
23.42
29.72
34.58
37.76
39.14
38.86
37.33
35.12
32.81
30.78
29.12
27.80
26.68
25.65
24.70
23.78
22.77
21.50
19.75
17.38
14.37
10.82
6.97
3.08
-0.61
-3.92
-6.84
-9.47
-12.03
-14.71
-17.57
-20.58
-23.59
-26.48
-29.26
-32.00
-34.82
-37.68
-40.34
-42.28
-42.89
-41.65
-38.25
-32.73
-25.41
-16.80
-7.50
1.92
10.99
19.28
26.41
32.01
35.76
37.49
37.28
35.50
32.83
30.02
27.75
26.35
25.72
25.42
24.96
23.92
22.23
20.03
17.57
15.03
12.43
9.66
6.59
3.15
-0.59
-4.46
-8.28
-11.83
-14.97
-17.61
-19.72
-21.40
-22.86
-24.40
-26.39
-29.05
-32.42
-36.22
-39.83
-42.42
-43.14
-41.38
-37.01
-30.35
-22.09
-13.01
-3.83
4.90
12.82
19.61
24.97
28.60
30.33
30.25
28.73
26.44
24.06
22.18
21.02
20.49
20.27
19.97
19.33
18.24
16.78
15.06
13.18
11.20
9.08
6.77
4.28
1.59
-1.26
-4.21
-7.14
-9.94
-12.52
-14.84
-16.93
-18.98
-21.20
-23.80
-26.94
-30.57
-34.45
-38.03
-40.61
-41.44
-39.91
-35.79
-29.27
-20.89
-11.45
-1.72
7.63
16.11
23.37
29.13
33.18
35.42
35.82
34.56
31.96
28.49
24.74
21.29
18.60
16.89
16.04
15.68
15.29
14.44
12.92
10.76
8.10
5.10
1.87
-1.54
-4.99
-8.33
-11.37
-14.01
-16.31
-18.45
-20.67
-23.15
-25.92
-28.88
-31.83
-34.54
-36.83
-38.58
-39.70
-40.07
-39.50
-37.76
-34.60
-29.87
-23.59
-15.98
-7.52
1.08
8.98
15.39
19.75
21.94
22.24
21.31
19.92
18.78
18.45
19.20
21.02
23.64
26.52
29.04
30.67
31.13
30.43
28.77
26.39
23.49
20.24
16.91
13.77
11.11
8.98
7.12
5.14
2.73
-0.15
-3.25
-6.31
-9.20
-11.99
-14.79
-17.46
-19.53
-20.34
-19.30
-16.24
-11.42
-5.39
1.28
8.18
15.12
21.91
28.24
33.60
37.38
39.10
38.61
36.23
32.61
28.56
24.82
21.83
19.66
18.13
16.90
15.68
14.32
12.81
11.24
9.64
7.95
5.98
3.54
0.53
-2.97
-6.72
-10.41
-13.79
-16.76
-19.32
-21.56
-23.57
-25.44
-27.31
-29.34
-31.71
-34.41
-37.19
-39.53
-40.74
-40.19
-37.55
-32.83
-26.40
-18.82
-10.61
-2.19
6.15
14.17
21.55
27.86
32.62
35.43
36.17
35.01
32.50
29.30
26.03
23.09
20.57
18.39
16.46
14.73
13.34
12.32
11.56
10.73
9.34
7.10
4.00
0.44
-3.04
-6.04
-8.48
-10.61
-12.84
-15.41
-18.23
-20.99
-23.33
-25.16
-26.73
-28.50
-30.88
-33.92
-37.20
-39.97
-41.41
-40.87
-38.06
-33.07
-26.23
-17.98
-8.80
0.85
10.48
19.47
27.20
33.08
36.73
38.09
37.46
35.38
32.56
29.62
27.04
25.09
23.88
23.38
23.47
23.91
24.35
24.38
23.64
21.92
19.24
15.86
12.18
8.57
5.29
2.36
-0.39
-3.22
-6.33
-9.71
-13.14
-16.32
-19.06
-21.43
-23.75
-26.40
-29.59
-33.22
-36.85
-39.91
-41.83
-42.22
-40.92
-37.90
-33.29
-27.29
-20.19
-12.39
-4.31
3.59
10.89
17.16
22.02
25.14
26.32
25.62
23.42
20.36
17.20
14.67
13.24
13.02
13.76
14.90
15.82
16.00
15.15
13.30
10.69
7.72
4.76
2.05
-0.25
-2.19
-3.83
-5.33
-6.82
-8.45
-10.26
-12.26
-14.33
-16.34
-18.19
-19.89
-21.59
-23.46
-25.59
-27.87
-29.94
-31.31
-31.42
-29.84
-26.33
-20.87
-13.63
-5.02
4.41
13.92
22.68
29.92
35.08
37.97
38.79
38.02
36.30
34.16
32.02
30.07
28.38
26.94
25.75
24.82
24.15
23.76
23.56
23.42
23.09
22.30
20.73
18.21
14.75
10.61
6.24
2.13
-1.43
-4.33
-6.75
-8.97
-11.25
-13.71
-16.32
-18.92
-21.42
-23.82
-26.25
-28.84
-31.57
-34.27
-36.56
-37.94
-37.97
-36.31
-32.82
-27.62
-21.01
-13.46
-5.49
2.32
9.46
15.52
20.21
23.42
25.18
25.68
25.19
24.07
22.67
21.29
20.11
19.18
18.44
17.81
17.21
16.57
15.83
14.94
13.78
12.26
10.31
7.93
5.23
2.35
-0.54
-3.27
-5.76
-8.01
-10.09
-12.16
-14.34
-16.72
-19.29
-21.97
-24.67
-27.34
-29.98
-32.62
-35.25
-37.74
-39.86
-41.26
-41.54
-40.27
-37.14
-32.01
-25.01
-16.62
-7.50
1.59
9.97
17.18
23.02
27.41
30.38
31.95
32.17
31.24
29.50
27.42
25.48
24.02
23.11
22.65
22.45
22.38
22.34
22.26
21.97
21.18
19.63
17.21
14.06
10.61
7.35
4.64
2.60
1.03
-0.43
-2.10
-4.22
-6.85
-9.90
-13.21
-16.60
-19.90
-23.05
-26.12
-29.21
-32.43
-35.75
-38.90
-41.44
-42.81
-42.48
-40.12
-35.62
-29.18
-21.22
-12.37
-3.33
5.21
12.71
18.81
23.34
26.34
27.91
28.21
27.42
25.82
23.80
21.82
20.35
19.70
19.86
20.56
21.24
21.33
20.43
18.43
15.51
12.02
8.38
4.88
1.73
-1.02
-3.48
-6.09
-9.65
-15.23
-23.84
-35.89
-50.83
-67.00
-82.03
-93.53
-99.86
-100.70
-96.99
-90.55
-83.36
-76.92
-71.86
-67.88
-63.72
-57.38
-46.46
-28.69
-2.73
30.99
69.93
109.64
144.90
171.28
186.51
191.02
187.50
179.58
170.44
161.79
153.67
145.04
134.62
121.71
106.53
90.04
73.67
58.80
46.57
37.64
32.08
29.29
28.04
26.62
23.34
17.03
7.47
-4.50
-17.35
-29.53
-40.06
-48.86
-56.61
-64.29
-72.66
-81.95
-91.73
-101.06
-108.67
-113.29
-113.91
-110.05
-101.85
-90.14
-76.13
-61.13
-46.15
-31.75
-18.05
-4.93
7.60
19.26
29.46
37.58
43.38
47.20
49.96
52.71
56.21
60.57
65.31
69.74
73.44
76.43
78.94
81.02
82.10
81.19
77.48
71.09
63.50
57.11
54.26
55.96
61.29
67.62
71.74
71.25
65.65
56.47
46.47
38.27
33.03
29.94
26.60
20.20
8.74
-8.52
-31.45
-59.93
-94.14
-133.85
-176.88
-218.14
-250.73
-268.87
-271.42
-263.21
-252.85
-247.84
-249.94
-254.11
-251.83
-236.77
-208.90
-174.39
-141.14
-113.42
-89.20
-62.26
-27.24
16.01
61.84
102.35
132.35
152.53
168.57
187.17
211.83
240.84
268.71
289.53
300.26
301.84
298.02
292.80
288.08
282.91
274.33
259.14
235.45
203.46
165.19
123.49
80.87
38.79
-2.49
-43.43
-84.70
-126.76
-169.92
-214.57
-261.27
-310.42
-361.47
-412.14
-458.18
-493.94
-513.84
-514.02
-493.61
-454.98
-403.02
-343.57
-281.99
-221.97
-165.25
-111.81
-60.48
-9.44
43.22
99.01
158.46
220.62
282.92
341.54
392.37
432.20
459.65
475.54
482.61
484.46
484.29
483.72
482.34
478.04
468.10
450.50
424.86
392.61
356.33
318.61
281.07
243.99
206.65
168.05
127.49
84.73
39.88
-6.79
-55.02
-104.51
-155.03
-206.39
-258.30
-310.25
-361.35
-410.21
-454.97
-493.40
-522.60
-539.39
-540.98
-525.96
-495.34
-452.51
-402.52
-350.65
-301.35
-257.22
-219.24
-187.57
-162.40
-144.24
-133.03
-127.45
-124.59
-121.06
-113.45
-99.43
-78.15
-50.30
-18.06
15.47
46.49
70.79
83.47
81.89
67.17
44.33
20.78
2.64
-7.09
-9.71
-9.72
-13.92
-25.02
-39.65
-50.15
-48.11
-30.05
2.48
43.30
83.60
111.34
118.82
104.72
72.59
28.50
-24.49
-84.49
-150.00
-218.62
-289.59
-357.05
-410.77
-440.92
-442.16
-419.49
-382.54
-341.04
-273.40
-175.41
-61.34
46.39
124.25
178.36
215.24
240.80
260.65
279.79
300.41
324.95
354.90
389.09
424.05
451.16
462.84
455.76
432.07
398.47
364.91
340.08
327.18
323.49
319.38
305.47
277.04
223.76
148.96
69.42
3.94
-39.17
-63.04
-77.34
-90.09
-105.00
-124.41
-144.51
-160.47
-168.76
-167.26
-154.75
-132.26
-102.34
-63.81
-24.62
7.94
30.87
44.98
53.09
57.96
61.06
63.55
66.27
69.99
74.95
79.75
80.07
71.24
50.83
19.18
-20.37
-63.86
-108.37
-150.37
-180.87
-191.82
-177.36
-136.25
-74.08
-2.26
64.15
110.46
128.03
118.03
88.84
53.68
25.68
13.31
19.71
42.89
80.05
123.53
164.63
196.17
215.08
223.27
216.92
191.94
147.85
88.93
22.74
-39.44
-90.25
-126.86
-150.72
-165.96
-176.08
-183.12
-187.76
-190.32
-190.77
-192.22
-196.90
-205.11
-215.28
-224.12
-228.75
-228.14
-223.64
-203.29
-164.90
-114.67
-63.14
-17.73
19.80
50.32
74.74
93.53
107.57
115.71
118.92
118.94
117.66
116.24
114.68
112.46
109.14
105.01
97.66
87.19
73.97
59.20
43.87
28.32
12.57
-3.24
-15.55
-25.69
-33.99
-40.99
-46.22
-49.28
-50.23
-49.31
-46.69
-42.36
-39.51
-36.61
-33.44
-29.24
-23.44
-15.88
-6.63
4.08
16.03
28.30
42.89
57.33
70.33
81.25
89.71
95.57
98.78
99.41
97.38
92.84
85.18
74.82
62.36
48.33
33.21
17.45
1.47
-14.51
-26.45
-35.26
-41.46
-45.40
-47.37
-47.68
-46.65
-44.59
-41.84
-38.55
-35.64
-33.12
-30.86
-28.76
-26.74
-24.72
-22.69
-20.61
-18.40
-16.57
-15.07
-13.76
-12.56
-11.40
-10.25
-9.12
-7.99
-6.82
-5.95
-5.33
-4.90
-4.62
-4.43
-4.33
-4.31
-4.38
-4.48
-4.76
-5.23
-5.84
-6.60
-7.46
-8.49
-9.69
-11.09
-12.58
-14.19
-15.88
-17.61
-19.37
-21.13
-22.97
-24.94
-27.53
-30.38
-33.35
-36.37
-39.36
-42.37
-45.28
-48.12
-50.78
-53.04
-54.34
-54.00
-51.36
-45.72
-37.21
-25.24
-9.88
8.49
29.27
51.93
75.75
99.80
123.00
143.27
158.83
168.03
169.84
164.17
151.85
134.46
113.76
91.30
67.98
44.21
19.90
-4.16
-27.63
-49.38
-67.75
-81.70
-90.79
-95.79
-98.09
-99.42
-101.35
-105.18
-112.29
-122.33
-133.99
-144.26
-148.74
-143.09
-125.27
-97.02
-63.94
-33.40
-11.43
-0.76
-0.06
-5.48
-12.96
-20.20
-26.88
-33.55
-40.48
-46.64
-50.31
-49.89
-44.88
-35.89
-24.06
-10.82
3.55
19.31
36.91
56.32
76.62
95.95
111.92
122.21
125.30
120.94
109.92
93.83
74.51
53.61
32.20
10.81
-10.42
-31.36
-51.55
-70.45
-87.43
-101.74
-112.84
-120.18
-123.19
-121.35
-114.56
-102.06
-83.56
-59.31
-30.10
2.57
36.44
68.83
97.07
118.78
132.15
135.92
129.61
113.82
89.69
59.05
24.21
-12.13
-47.24
-78.48
-103.61
-120.87
-128.75
-126.66
-114.84
-94.28
-66.66
-34.05
1.30
37.13
69.41
96.32
116.98
131.19
139.28
141.94
140.13
134.90
127.30
118.22
108.66
99.22
90.17
81.64
73.64
66.10
58.95
52.16
45.65
39.65
34.19
29.23
24.74
20.61
16.76
13.15
9.77
6.59
3.75
1.27
-0.88
-2.72
-4.31
-5.78
-7.13
-8.36
-9.49
-10.47
-11.30
-11.97
-12.50
-12.45
-12.19
-11.84
-11.40
-10.90
-10.31
-9.65
-8.89
-8.06
-7.14
-6.23
-5.29
-4.31
-3.33
-2.32
-1.34
-0.32
0.76
1.94
3.15
4.39
5.64
6.87
8.04
9.07
9.98
10.74
11.25
11.40
11.07
10.19
8.71
6.96
4.72
2.10
-0.77
-3.76
-6.77
-9.71
-12.50
-15.06
-17.30
-19.13
-20.43
-21.12
-21.28
-21.05
-20.69
-20.43
-20.42
-20.63
-20.91
-20.95
-20.51
-19.52
-18.14
-16.64
-15.26
-14.05
-12.83
-11.26
-8.97
-5.77
-1.82
2.49
6.72
10.70
14.52
18.41
22.51
26.72
30.59
33.85
36.84
40.67
46.46
54.22
61.74
64.76
58.55
39.97
9.26
-29.63
-70.34
-106.62
-134.06
-150.79
-156.70
-152.20
-138.07
-116.07
-89.64
-63.62
-43.06
-31.01
-26.90
-27.29
-26.16
-17.71
0.62
26.56
54.68
79.01
96.40
107.80
117.05
128.12
142.09
156.52
166.43
167.95
159.75
143.58
122.50
98.89
73.38
45.25
14.39
-18.16
-48.90
-74.49
-92.12
-100.63
-101.64
-99.67
-100.22
-106.91
-123.05
-144.23
-162.67
-169.83
-160.04
-132.53
-88.42
-34.77
20.71
67.05
97.69
112.93
118.78
121.48
127.50
136.27
145.83
155.26
164.00
172.18
175.76
171.46
157.65
135.76
109.66
83.90
61.10
40.53
20.44
-0.27
-20.05
-35.90
-45.32
-48.53
-48.16
-47.19
-46.83
-45.21
-39.30
-27.33
-11.36
3.43
11.53
10.85
4.15
-2.48
-2.93
5.59
21.19
38.21
49.96
51.21
39.67
15.49
-19.38
-61.78
-107.37
-150.47
-185.18
-207.37
-216.82
-217.90
-217.98
-223.87
-238.07
-256.94
-272.58
-276.97
-266.50
-243.94
-216.87
-193.16
-176.62
-165.27
-153.06
-133.73
-104.22
-65.74
-22.52
20.71
60.67
95.97
126.23
150.84
168.17
175.96
172.76
159.07
137.49
112.27
88.35
70.13
60.56
59.83
65.54
73.56
79.40
79.47
72.45
59.80
45.55
35.06
32.36
39.44
55.51
76.74
96.02
104.92
96.78
70.11
30.30
-13.31
-49.26
-67.75
-63.91
-40.07
-4.24
33.24
63.42
81.04
82.48
67.61
38.90
3.74
-28.19
-49.47
-58.85
-63.82
-70.03
-83.50
-107.83
-143.69
-184.76
-223.50
-251.85
-263.16
-253.72
-215.96
-155.88
-89.07
-31.84
8.24
33.72
53.64
74.56
99.30
127.91
153.79
171.26
177.28
172.30
158.87
140.98
122.80
107.98
98.36
91.47
83.56
71.37
54.07
33.37
13.33
-0.99
-5.08
2.84
19.64
39.08
53.47
55.62
40.27
5.58
-45.53
-104.77
-159.68
-197.66
-209.72
-194.67
-160.81
-123.62
-99.86
-100.48
-125.86
-165.97
-205.39
-229.85
-231.67
-211.39
-175.30
-130.96
-83.53
-34.93
14.40
63.22
108.41
146.00
173.49
191.37
202.72
211.04
217.60
220.17
214.06
194.81
161.14
116.36
67.79
24.47
-5.37
-16.53
-7.95
17.35
53.33
92.91
130.12
161.73
187.51
209.25
228.38
244.08
253.63
254.46
246.73
233.92
220.87
210.33
201.03
187.38
162.15
120.65
63.83
-1.56
-66.09
-121.56
-163.56
-190.48
-203.02
-203.46
-195.20
-181.73
-165.89
-149.63
-133.89
-118.80
-102.51
-82.75
-58.14
-28.88
3.80
38.26
71.91
100.95
113.02
98.86
59.39
6.90
-43.96
-85.12
-116.14
-139.72
-156.68
-163.96
-155.12
-125.57
-77.39
-20.52
30.82
63.74
70.90
52.78
16.48
-25.54
-59.91
-76.24
-70.01
-44.11
-6.31
32.20
60.17
69.25
57.24
27.86
-11.76
-54.14
-93.90
-128.41
-157.18
-178.99
-191.44
-191.26
-176.34
-147.75
-110.50
-72.54
-41.85
-23.11
-13.91
-6.30
8.33
36.36
79.47
134.55
195.79
257.84
306.96
332.59
330.97
305.28
260.88
202.24
134.31
64.27
0.90
-48.61
-79.81
-93.06
-92.88
-85.45
-75.94
-67.23
-60.39
-55.87
-54.18
-54.45
-55.15
-54.78
-52.56
-48.38
-42.71
-36.53
-31.06
-27.52
-25.80
-25.05
-24.22
-22.55
-19.72
-15.82
-11.29
-6.89
-3.45
-1.12
0.42
1.77
3.43
5.72
8.72
12.24
15.85
19.02
21.47
23.18
24.28
24.82
24.85
24.13
22.60
20.04
16.32
11.42
5.55
-0.88
-7.48
-13.78
-19.36
-23.83
-26.92
-28.42
-28.25
-26.39
-22.95
-18.34
-12.94
-7.12
-1.12
4.88
10.79
16.65
22.54
28.61
34.54
40.18
45.46
50.43
55.26
60.22
65.61
71.71
78.75
