1595273281.00
64.000000
-0.00
-0.00
-0.00
-0.00
-0.00
-0.00
-0.00
-0.00
-0.00
-0.00
0.00
0.01
0.01
-0.00
-0.03
-0.05
-0.05
0.00
0.13
0.36
0.66
1.01
1.37
1.72
2.06
2.40
2.79
3.24
3.80
4.42
5.06
5.66
6.20
6.68
7.15
7.68
8.31
9.14
10.09
11.04
11.88
12.56
13.14
13.76
14.65
15.96
17.91
20.32
22.90
25.38
27.58
29.57
31.68
34.32
37.81
42.54
48.15
54.10
59.83
64.97
69.58
74.14
79.34
85.71
93.76
103.00
112.62
121.73
129.77
136.75
143.31
150.75
157.78
166.64
177.94
191.78
206.96
220.57
228.27
225.41
208.57
176.87
132.68
79.85
22.74
-35.38
-92.94
-149.68
-205.73
-260.85
-314.24
-364.44
-410.51
-451.71
-487.41
-516.69
-538.16
-550.10
-550.81
-539.28
-515.31
-480.06
-435.58
-384.40
-329.07
-271.82
-214.48
-158.45
-104.93
-54.87
-9.19
31.43
66.58
96.17
120.38
139.53
153.98
164.08
170.27
173.07
173.13
171.17
167.87
163.63
158.53
152.37
144.90
136.04
126.11
115.77
105.78
96.76
88.89
81.87
75.13
68.04
60.10
51.01
40.71
29.59
18.86
10.54
7.01
10.03
19.76
34.27
50.06
63.31
71.38
73.58
71.10
66.01
60.13
54.40
48.92
43.58
38.49
34.15
31.07
29.39
28.60
27.79
26.03
22.88
18.65
14.22
10.64
8.57
8.04
8.44
8.80
8.33
6.71
4.17
1.29
-1.14
-2.36
-1.82
0.60
4.42
8.54
11.57
12.36
10.53
6.74
2.31
-1.30
-3.30
-3.74
-3.38
-3.06
-3.22
-3.76
-4.21
-4.22
-3.81
-3.31
-3.13
-3.43
-4.04
-4.49
-4.30
-3.29
-1.66
0.05
1.23
1.40
0.48
-1.27
-3.33
-5.17
-6.41
-6.90
-6.68
-5.93
-4.88
-3.74
-2.67
-1.73
-0.95
-0.26
0.46
1.35
2.43
3.60
4.58
4.98
4.50
3.14
1.38
0.03
0.08
2.17
6.27
11.63
16.98
21.04
22.91
22.47
19.92
15.84
10.90
5.71
0.87
-3.03
-5.46
-6.23
-5.60
-4.32
-3.28
-3.17
-4.21
-6.11
-8.29
-10.19
-11.54
-12.36
-12.79
-12.92
-12.69
-11.96
-10.61
-8.72
-6.63
-4.85
-3.94
-4.18
-5.50
-7.31
-8.86
-9.50
-9.04
-7.76
-6.24
-4.97
-4.11
-3.54
-3.04
-2.53
-2.09
-1.88
-1.92
-2.04
-2.11
-2.07
-2.01
-2.03
-2.04
-1.80
-0.99
0.43
2.17
3.71
4.57
4.56
3.80
2.67
1.48
0.39
-0.67
-1.86
-3.37
-5.19
-7.20
-9.13
-10.64
-11.49
-11.63
-11.22
-10.60
-10.01
-9.46
-8.72
-7.49
-5.56
-3.07
-0.38
2.10
4.10
5.58
6.68
7.58
8.36
8.99
9.38
9.48
9.32
8.99
8.61
8.23
7.73
6.79
5.03
2.21
-1.44
-5.22
-8.11
-9.22
-8.30
-5.88
-2.99
-0.66
0.53
0.60
-0.17
-1.56
-3.62
-6.47
-9.98
-13.50
-16.08
-16.90
-15.71
-12.96
-9.49
-6.06
-3.05
-0.41
2.01
4.18
5.86
6.72
6.64
5.83
4.77
3.94
3.70
4.14
5.07
6.16
6.99
7.25
6.79
5.81
4.75
4.18
4.51
5.79
7.63
9.38
10.33
10.05
8.43
5.77
2.64
-0.19
-1.93
-1.88
0.38
4.91
11.33
18.87
26.51
33.05
37.36
38.60
36.39
30.90
22.87
13.34
3.47
-5.75
-13.64
-19.86
-24.32
-27.11
-28.45
-28.59
-27.81
-26.33
-24.33
-21.96
-19.33
-16.58
-13.84
-11.19
-8.67
-6.35
-4.35
-2.95
-2.47
-3.10
-4.82
-7.37
-10.36
-13.47
-16.56
-19.69
-22.94
-26.29
-29.59
-32.63
-35.30
-37.73
-40.22
-43.03
-46.18
-49.34
-51.95
-53.33
-52.88
-50.18
-44.96
-37.22
-27.28
-15.82
-3.85
7.55
17.52
25.69
32.22
37.63
42.50
47.22
51.83
56.08
59.73
62.69
65.18
67.65
70.62
74.45
79.22
84.66
90.35
95.90
101.14
106.25
111.63
117.76
124.98
133.32
142.46
151.64
159.61
164.57
164.31
156.65
140.21
114.96
82.45
45.44
7.20
-29.24
-61.38
-87.32
-105.54
-114.91
-115.05
-106.81
-92.53
-75.67
-59.90
-48.05
-41.33
-39.27
-40.31
-42.59
-44.65
-45.73
-45.70
-44.70
-42.87
-40.18
-36.59
-32.22
-27.53
-23.22
-20.04
-18.38
-18.15
-18.94
-20.32
-22.19
-24.74
-28.16
-32.21
-36.14
-38.93
-39.90
-39.18
-37.72
-36.90
-37.74
-40.44
-44.18
-47.60
-49.37
-48.76
-45.87
-41.58
-37.12
-33.67
-32.02
-32.37
-34.35
-37.15
-39.86
-41.69
-42.18
-41.20
-38.88
-35.49
-31.36
-26.84
-22.29
-18.07
-14.51
-11.79
-9.93
-8.69
-7.62
-6.18
-4.01
-1.02
2.55
6.24
9.67
12.66
15.24
17.65
20.07
22.59
25.08
27.36
29.26
30.78
32.09
33.48
35.24
37.50
40.09
42.60
44.46
45.15
44.43
42.38
39.46
36.23
33.24
30.84
29.18
28.26
27.96
28.14
28.59
29.04
29.21
28.80
27.59
25.55
22.90
20.01
17.35
15.30
13.98
13.24
12.75
12.16
11.19
9.78
8.02
6.03
3.89
1.55
-1.01
-3.80
-6.76
-9.83
-13.01
-16.50
-20.57
-25.46
-31.20
-37.51
-43.86
-49.62
-54.24
-57.41
-59.01
-59.09
-57.73
-55.04
-51.17
-46.36
-41.01
-35.61
-30.66
-26.57
-23.53
-21.51
-20.28
-19.49
-18.82
-18.06
-17.16
-16.17
-15.17
-14.22
-13.27
-12.20
-10.94
-9.49
-7.97
-6.61
-5.64
-5.25
-5.58
-6.66
-8.44
-10.68
-13.03
-15.05
-16.30
-16.57
-15.82
-14.21
-11.92
-9.09
-5.74
-1.88
2.48
7.18
12.02
16.79
21.45
26.07
30.82
35.91
41.48
47.59
54.20
61.13
68.02
74.34
79.31
82.35
83.46
83.39
83.35
84.59
87.94
93.32
99.80
105.69
109.20
109.14
105.25
98.02
88.35
77.22
65.35
53.43
41.64
30.30
20.22
12.54
8.03
6.74
8.18
11.35
15.50
18.70
19.35
16.92
11.99
5.47
-1.97
-9.45
-16.77
-23.54
-32.50
-46.45
-66.00
-89.00
-112.08
-132.29
-146.87
-155.43
-157.67
-158.43
-162.65
-171.45
-181.41
-187.72
-187.30
-178.84
-166.20
-154.32
-155.20
-180.09
-232.36
-305.95
-390.60
-477.02
-557.67
-630.98
-656.75
-607.81
-486.40
-322.44
-150.90
4.33
122.48
212.79
283.32
342.99
393.66
434.34
463.44
481.31
486.63
476.63
451.32
402.99
335.95
266.04
194.93
120.63
49.13
-9.44
-44.54
-47.99
-20.79
30.04
88.39
135.49
159.93
161.54
147.02
124.66
100.74
76.09
50.28
21.16
-12.93
-50.13
-85.06
-112.72
-130.55
-138.41
-138.37
-131.85
-120.68
-101.50
-75.21
-46.43
-21.19
-2.73
9.28
16.25
19.34
18.75
14.09
5.23
-5.80
-16.82
-27.22
-39.32
-55.51
-76.12
-97.88
-114.49
-119.63
-108.39
-80.46
-40.30
4.50
46.40
80.14
104.00
119.30
123.85
118.36
105.19
87.95
70.76
57.39
49.97
48.36
50.13
51.22
48.44
39.98
26.14
9.12
-7.82
-21.66
-30.47
-33.97
-33.30
-29.73
-24.65
-19.29
-14.64
-11.41
-10.03
-10.51
-12.37
-14.77
-16.39
-16.19
-13.67
-8.95
-2.82
3.49
8.70
11.85
12.57
11.19
8.29
4.47
0.24
-3.93
-7.50
-9.98
-11.07
-10.86
-9.81
-8.64
-8.00
-8.19
-9.00
-9.75
-9.64
-8.23
-5.70
-2.93
-1.22
-1.86
-5.61
-12.52
-21.97
-32.92
-44.09
-54.06
-61.30
-64.38
-62.35
-55.17
-43.84
-30.06
-15.62
-1.83
10.54
21.06
29.34
34.97
37.90
38.81
39.01
39.97
42.65
47.25
53.42
60.62
68.33
75.91
82.45
86.76
87.70
84.55
77.26
66.45
53.09
38.30
23.25
9.30
-2.03
-9.41
-12.28
-11.37
-8.72
-6.90
-7.96
-12.57
-19.98
-28.63
-36.91
-43.69
-48.34
-50.35
-49.11
-43.90
-34.37
-21.07
-5.70
9.22
21.20
28.64
31.23
29.88
26.06
21.25
16.52
12.51
9.45
7.26
5.73
4.69
4.25
4.81
6.80
10.22
14.34
17.85
19.38
18.31
15.03
10.74
6.63
3.26
0.40
-2.54
-5.83
-9.08
-11.46
-12.27
-11.42
-9.49
-7.38
-5.86
-5.22
-5.22
-5.32
-4.89
-3.45
-0.91
2.35
5.52
7.72
8.35
7.55
6.06
4.82
4.40
4.76
5.40
5.79
5.85
5.88
6.31
7.27
8.39
9.06
8.77
7.44
5.42
3.40
2.03
1.80
2.94
5.31
8.39
11.39
13.51
14.29
13.99
13.51
14.06
16.56
21.17
27.29
33.92
40.22
45.87
51.18
56.82
63.40
71.13
79.59
87.72
94.11
97.40
96.81
92.40
85.06
76.01
66.28
56.29
46.02
35.49
25.28
16.61
10.97
9.58
12.82
20.07
29.76
39.67
47.13
49.56
45.03
32.82
13.85
-9.53
-34.09
-56.76
-75.25
-88.54
-96.59
-99.90
-99.09
-94.78
-87.68
-78.55
-68.06
-56.62
-44.22
-30.56
-15.25
1.65
19.45
36.78
52.03
63.81
71.36
74.63
74.12
70.58
64.61
56.61
46.59
34.43
19.70
2.02
-18.67
-41.98
-67.17
-93.21
-118.91
-143.29
-165.29
-183.88
-198.08
-206.77
-208.84
-203.39
-190.02
-169.00
-141.84
-110.71
-78.53
-48.42
-22.95
-3.56
9.56
17.58
23.16
29.70
41.93
63.91
98.36
145.77
202.99
262.82
315.53
351.96
365.66
355.78
324.81
279.04
226.97
176.24
131.02
91.38
60.18
35.31
11.34
-16.03
-48.52
-84.43
-120.57
-154.90
-187.60
-219.66
-253.24
-290.15
-336.09
-393.59
-459.29
-524.79
-579.88
-615.71
-625.93
-609.37
-541.62
-423.63
-280.27
-145.03
-38.71
35.32
82.71
111.47
127.17
133.49
129.04
116.88
103.25
94.21
93.01
96.43
101.15
104.51
105.48
101.19
94.70
91.35
95.38
107.26
122.90
140.28
158.65
179.09
197.17
216.14
241.77
278.75
327.23
380.83
432.50
472.85
492.13
464.11
380.30
254.45
116.46
3.89
-78.91
-134.81
-168.13
-181.34
-177.59
-158.87
-130.50
-100.84
-78.54
-69.91
-72.64
-80.98
-89.89
-97.28
-101.07
-100.81
-97.07
-90.90
-84.27
-76.63
-67.93
-58.98
-50.84
-42.02
-30.51
-15.48
1.75
17.60
29.78
36.71
37.50
31.40
18.32
-1.82
-28.13
-57.21
-82.77
-96.17
-90.97
-66.78
-30.60
5.85
30.76
37.00
24.56
-0.38
-28.32
-50.51
-61.70
-60.87
-50.52
-35.32
-20.79
-11.85
-11.48
-19.70
-33.36
-47.01
-54.52
-50.90
-33.71
-3.85
34.44
73.96
105.68
120.86
113.75
84.16
38.38
-12.38
-56.01
-83.92
-94.13
-91.16
-83.12
-77.40
-77.53
-82.49
-88.50
-91.84
-90.88
-86.44
-80.46
-74.44
-68.55
-61.76
-52.64
-39.97
-22.97
-1.51
23.56
49.98
73.70
89.52
92.81
81.62
58.36
29.95
6.07
-3.90
5.88
35.57
79.47
127.77
169.56
195.75
201.26
185.77
153.29
110.57
65.31
24.45
-7.08
-26.82
-34.71
-32.48
-23.00
-9.60
4.55
16.92
26.16
32.35
36.84
41.68
48.65
58.22
69.12
78.52
82.63
77.66
60.62
30.35
-11.44
-59.55
-105.89
-141.62
-160.37
-160.86
-147.63
-129.05
-113.51
-105.89
-105.94
-109.39
-110.79
-106.40
-95.66
-80.67
-64.60
-50.16
-38.96
-31.53
-27.63
-26.31
-25.99
-24.69
-20.46
-12.15
0.18
15.28
30.97
44.51
52.97
53.91
46.35
32.03
15.72
4.35
4.45
19.20
46.49
79.41
109.14
128.64
135.36
131.30
120.96
108.58
96.58
85.43
74.69
64.04
53.70
44.22
36.12
29.72
25.04
21.64
18.51
14.02
6.61
-4.28
-17.44
-30.31
-40.42
-47.18
-52.46
-59.47
-70.37
-84.15
-96.56
-102.13
-97.27
-82.38
-61.81
-41.78
-27.48
-21.01
-21.26
-25.19
-29.80
-33.31
-35.44
-36.87
-38.64
-41.56
-46.15
-52.47
-60.12
-68.15
-74.99
-78.75
-77.58
-70.14
-55.94
-35.46
-10.08
17.92
45.52
69.33
86.29
94.83
95.85
92.93
91.30
95.70
108.07
126.09
143.62
152.76
146.94
123.47
84.60
36.67
-11.97
-53.68
-83.53
-99.83
-103.30
-95.40
-77.15
-49.38
-14.00
24.44
58.64
80.40
83.98
69.02
41.11
9.40
-17.57
-35.70
-46.46
-54.87
-65.60
-79.49
-92.53
-97.90
-89.64
-66.13
-31.38
6.32
37.67
55.95
59.26
50.36
34.81
18.34
4.87
-4.01
-8.45
-9.18
-6.73
-1.44
6.03
14.21
20.99
24.16
22.39
15.90
6.57
-2.69
-8.91
-10.16
-6.32
0.71
7.61
10.97
9.19
3.85
-0.17
3.58
20.07
49.78
87.31
122.65
144.75
145.88
124.63
86.38
40.87
-1.65
-33.87
-53.11
-60.86
-60.86
-57.04
-51.98
-46.47
-39.89
-31.10
-19.35
-4.90
10.90
25.86
37.68
44.57
45.58
40.39
28.89
10.84
-13.66
-43.20
-74.20
-101.06
-117.79
-120.68
-110.34
-92.05
-73.75
-62.65
-62.09
-70.37
-81.97
-90.45
-91.48
-84.49
-72.29
-59.26
-49.13
-43.51
-41.76
-41.91
-41.92
-40.61
-37.88
-34.22
-30.06
-25.39
-19.69
-12.34
-3.07
7.83
19.51
30.92
41.12
49.54
56.01
60.68
63.78
65.46
65.69
64.35
61.47
57.50
53.36
50.28
49.32
50.93
54.77
59.79
64.64
68.22
69.98
70.00
68.75
66.83
64.66
62.42
60.16
57.85
55.53
53.17
50.66
47.78
44.28
40.11
35.47
30.87
26.94
24.14
22.66
22.34
22.79
23.57
24.34
24.85
24.97
24.58
23.63
22.17
20.33
18.26
16.01
13.44
10.23
6.05
0.73
-5.52
-12.22
-18.67
-24.22
-28.40
-31.03
-32.15
-31.98
-30.79
-28.77
-26.02
-22.54
-18.26
-13.23
-7.60
-1.60
4.59
10.89
17.36
24.01
30.58
36.42
40.65
42.40
41.22
37.20
30.92
23.20
14.91
6.85
-0.39
-6.45
-11.34
-15.41
-19.09
-22.59
-25.56
-27.13
-26.27
-22.40
-15.80
-7.65
0.40
6.84
10.73
11.89
10.69
7.92
4.55
1.67
0.22
0.79
3.33
7.14
11.15
14.37
16.33
17.24
17.76
18.67
20.47
23.20
26.47
29.53
31.39
30.97
27.38
20.32
10.50
-0.37
-9.98
-16.32
-18.49
-17.20
-14.48
-12.78
-13.98
-18.55
-25.56
-33.15
-39.38
-42.88
-43.21
-40.66
-36.00
-30.12
-23.90
-18.13
-13.52
-10.65
-9.75
-10.63
-12.60
-14.63
-15.71
-15.17
-12.94
-9.49
-5.68
-2.32
-0.01
1.08
1.20
0.88
0.76
1.39
3.10
5.81
9.09
12.18
14.24
14.60
12.99
9.62
5.13
0.43
-3.61
-6.36
-7.54
-7.32
-6.18
-4.71
-3.43
-2.61
-2.24
-2.13
-2.08
-2.00
-2.01
-2.35
-3.31
-4.99
-7.30
-9.94
-12.43
-14.31
-15.19
-14.87
-13.43
-11.37
-9.49
-8.83
-10.28
-14.21
-20.19
-27.01
-33.12
-37.19
-38.63
-37.72
-35.33
-32.41
-29.53
-26.74
-23.71
-20.10
-15.82
-11.10
-6.31
-1.82
2.14
5.49
8.22
10.33
11.78
12.46
12.26
11.14
9.19
6.75
4.28
2.23
0.80
-0.14
-1.09
-2.58
-4.93
-7.96
-11.09
-13.49
-14.55
-14.06
-12.30
-9.89
-7.51
-5.64
-4.45
-3.85
-3.61
-3.44
-3.14
-2.56
-1.67
-0.53
0.76
2.03
3.17
4.13
4.89
5.48
5.82
5.88
5.58
4.96
4.16
3.37
2.72
2.18
1.58
0.69
-0.74
-2.80
-5.46
-8.55
-11.77
-14.76
-17.10
-18.39
-18.35
-16.94
-14.41
-11.30
-8.22
-5.70
-3.94
-2.80
-1.86
-0.69
1.02
3.33
6.04
8.87
11.51
13.72
15.37
16.43
16.95
16.99
16.69
16.17
15.57
15.05
14.69
14.50
14.29
13.67
12.21
9.61
5.92
1.65
-2.44
-5.61
-7.47
-8.12
-8.08
-7.95
-8.20
-9.00
-10.22
-11.61
-12.94
-14.02
-14.70
-14.87
-14.48
-13.58
-12.41
-11.32
-10.71
-10.78
-11.50
-12.50
-13.27
-13.31
-12.40
-10.64
-8.39
-6.12
-4.24
-2.91
-2.12
-1.72
-1.47
-1.22
-0.90
-0.60
-0.50
-0.89
-1.98
-3.84
-6.21
-8.55
-10.13
-10.29
-8.71
-5.62
-1.81
1.59
3.51
3.30
1.01
-2.71
-6.81
-10.30
-12.56
-13.46
-13.31
-12.59
-11.74
-11.02
-10.58
-10.49
-10.82
-11.59
-12.76
-14.17
-15.57
-16.73
-17.43
-17.54
-16.93
-15.46
-12.99
-9.47
-5.03
-0.02
5.01
9.48
12.90
15.01
15.82
15.62
14.84
13.84
12.87
12.02
11.23
10.48
9.81
9.32
9.04
8.83
8.44
7.60
6.22
4.45
2.66
1.24
0.44
0.21
0.29
0.36
0.15
-0.35
-0.97
-1.45
-1.56
-1.32
-0.99
-0.99
-1.76
-3.50
-6.14
-9.31
-12.49
-15.26
-17.29
-18.43
-18.57
-17.69
-15.82
-13.18
-10.18
-7.40
-5.41
-4.57
-4.93
-6.23
-8.06
-10.02
-11.90
-13.67
-15.46
-17.45
-19.77
-22.43
-25.28
-27.99
-30.14
-31.28
-31.02
-29.14
-25.65
-20.78
-15.00
-8.87
-2.96
2.27
6.56
9.83
12.16
13.71
14.58
14.81
14.33
13.03
10.91
8.10
4.93
1.89
-0.55
-2.07
-2.64
-2.57
-2.31
-2.27
-2.63
-3.23
-3.65
-3.37
-1.99
0.64
4.39
8.92
13.85
18.83
23.58
27.86
31.44
34.10
35.68
36.18
35.75
34.70
33.38
31.96
30.41
28.54
26.14
23.20
20.05
17.20
15.15
14.05
13.66
13.35
12.51
10.80
8.37
5.82
3.87
3.09
3.61
5.12
7.06
8.90
10.31
11.25
11.91
12.52
13.22
13.94
14.50
14.69
14.33
13.36
11.82
9.87
7.85
6.25
5.59
6.16
7.79
9.77
11.12
10.99
9.09
5.76
1.68
-2.48
-6.37
-9.95
-13.20
-15.90
-17.68
-18.13
-17.15
-14.90
-11.71
-7.88
-3.66
0.59
4.21
6.19
5.54
1.72
-4.98
-13.37
-21.75
-28.44
-32.20
-32.49
-29.51
-24.03
-17.30
-10.80
-6.13
-4.68
-7.23
-13.62
-22.44
-31.35
-37.69
-39.56
-36.74
-31.00
-25.54
-23.73
-27.69
-37.41
-50.66
-63.82
-73.01
-75.06
-68.16
-52.12
-28.46
-0.27
28.21
52.62
69.58
77.65
77.62
71.83
63.05
53.52
44.50
36.44
29.31
22.92
16.81
10.26
2.40
-7.37
-18.88
-31.00
-41.90
-49.65
-52.72
-50.20
-41.92
-28.38
-10.85
8.56
27.05
41.67
50.20
51.92
48.02
41.26
35.12
32.67
35.59
43.79
55.61
68.45
79.66
87.24
90.21
88.67
83.51
76.08
67.85
60.08
53.76
49.34
46.70
45.18
43.78
41.41
37.40
31.74
25.15
18.96
14.57
12.95
14.02
16.41
17.66
15.02
6.54
-7.91
-26.37
-45.43
-61.63
-72.84
-79.01
-81.77
-83.37
-85.36
-88.01
-90.48
-91.64
-90.81
-87.99
-83.62
-78.08
-71.51
-63.99
-55.76
-47.30
-39.05
-31.06
-22.76
-13.32
-2.27
10.05
22.45
33.47
42.13
48.43
53.28
57.90
62.98
68.19
72.32
73.97
72.39
67.74
60.86
52.65
43.81
34.57
24.99
15.25
5.76
-3.12
-11.46
-19.79
-28.62
-37.16
-43.63
-45.92
-42.90
-35.38
-26.04
-18.58
-15.92
-18.69
-23.67
-26.09
-21.86
-9.60
9.21
31.34
53.10
71.67
85.61
96.53
106.44
116.55
126.51
135.22
142.02
146.71
149.53
150.74
152.58
156.53
162.59
169.13
174.55
179.03
184.02
191.25
187.37
162.57
114.43
50.67
-17.04
-79.44
-131.18
-170.53
-197.83
-214.45
-219.47
-212.05
-192.60
-164.71
-135.52
-109.58
-90.21
-78.69
-74.17
-72.58
-70.21
-65.41
-60.41
-59.31
-65.08
-78.56
-98.27
-121.56
-141.46
-151.77
-142.64
-109.86
-58.36
-0.31
50.57
85.49
102.93
107.85
107.34
107.42
109.91
113.24
115.60
116.63
117.87
121.27
128.15
138.03
149.07
158.32
162.71
161.00
153.82
142.70
128.97
113.19
94.95
72.80
48.22
21.41
-6.69
-34.45
-60.20
-83.06
-103.10
-121.15
-138.29
-155.56
-175.27
-197.60
-220.39
-240.39
-255.07
-263.44
-265.85
-263.25
-256.49
-248.66
-240.96
-233.02
-224.51
-216.63
-211.45
-210.11
-211.59
-212.71
-212.84
-210.47
-203.78
-192.07
-176.50
-159.10
-141.77
-126.30
-96.05
-49.79
1.59
45.87
79.62
106.40
130.16
151.65
169.09
180.81
184.84
183.97
184.03
189.90
201.73
215.52
226.02
229.31
223.91
208.50
184.81
156.86
128.84
103.15
79.84
57.53
35.82
14.96
-5.42
-23.68
-36.04
-38.23
-27.86
-5.73
24.07
55.43
81.94
98.21
102.11
94.96
80.33
62.32
44.47
29.27
17.98
10.51
5.37
0.56
-5.93
-15.43
-28.17
-42.93
-57.25
-68.18
-73.43
-72.17
-65.31
-55.41
-46.19
-41.54
-44.23
-54.57
-69.42
-82.22
-84.39
-68.15
-30.00
26.91
92.79
154.13
198.26
217.62
211.55
185.07
145.93
101.42
56.90
15.99
-18.36
-43.41
-57.08
-59.11
-51.68
-39.12
-26.37
-17.24
-13.26
-13.74
-16.61
-19.58
-21.13
-20.99
-19.94
-19.27
-20.07
-22.71
-26.72
-31.06
-34.63
-36.84
-37.79
-38.21
-39.04
-40.88
-43.74
-46.99
-49.60
-50.54
-49.21
-45.60
-40.21
-33.80
-27.09
-20.56
-14.40
-8.56
-2.85
3.07
9.61
17.20
26.14
36.31
47.09
57.45
66.41
73.59
79.48
85.27
92.11
100.36
109.17
116.79
121.36
121.71
117.85
110.85
102.22
93.33
85.09
77.94
72.04
67.45
63.98
61.14
58.02
53.57
46.88
37.55
25.63
11.60
-3.86
-19.89
-35.54
-49.88
-62.23
-72.44
-80.80
-87.75
-93.39
-97.33
-99.14
-98.95
-97.99
-98.30
-101.85
-109.50
-120.43
-132.64
-144.01
-153.31
-160.50
-166.27
-171.27
-175.61
-178.74
-179.51
-176.23
-166.74
-148.61
-119.87
-79.91
-30.36
24.95
80.83
132.17
175.05
207.30
228.20
238.05
237.97
230.08
217.62
204.58
194.48
189.13
187.81
187.57
184.49
175.42
159.20
136.83
110.75
83.57
57.10
32.14
8.82
-12.74
-32.04
-48.22
-60.49
-68.55
-72.83
-74.45
-74.92
-75.73
-77.97
-82.20
-88.36
-95.87
-103.83
-111.16
-116.85
-120.14
-120.63
-118.38
-113.82
-107.66
-100.76
-94.06
-88.34
-84.19
-81.81
-80.97
-81.10
-81.40
-81.05
-79.41
-76.08
-71.01
-64.49
-57.09
-49.56
-42.72
-37.20
-33.41
-31.37
-30.77
-31.03
-31.50
-31.54
-30.71
-28.82
-25.87
-22.10
-17.85
-13.51
-9.51
-6.22
-3.92
-2.73
-2.56
-3.19
-4.36
-5.85
-7.53
-9.30
-11.06
-12.65
-13.88
-14.64
-14.86
-14.60
-13.94
-12.98
-11.83
-10.66
-9.63
-8.93
-8.68
-8.91
-9.57
-10.53
-11.64
-12.72
-13.58
-14.08
-14.16
-13.93
-13.56
-13.19
-12.76
-11.94
-10.29
-7.41
-3.25
1.89
7.44
12.85
17.77
22.15
26.09
29.60
32.52
34.55
35.39
34.98
33.60
31.73
29.88
28.38
27.28
26.44
25.62
24.65
23.44
22.01
20.40
18.70
16.95
15.21
13.55
11.94
10.32
8.62
6.79
4.83
2.80
0.72
-1.47
-3.88
-6.67
-9.90
-13.43
-16.96
-20.10
-22.45
-23.75
-23.92
-22.95
-20.86
-17.65
-13.37
-8.26
-2.75
2.54
6.99
10.21
12.12
12.95
13.04
12.68
12.02
11.12
10.06
9.06
8.39
8.29
8.82
9.76
10.68
11.09
10.62
9.14
6.84
4.19
1.77
0.07
-0.66
-0.48
0.29
1.22
1.93
2.14
1.74
0.70
-0.95
-3.06
-5.30
-7.11
-7.83
-6.93
-4.21
0.03
5.07
10.01
14.08
16.90
18.45
19.03
18.96
18.44
17.55
16.21
14.49
12.52
10.60
9.03
8.01
7.54
7.43
7.40
7.17
6.56
5.52
4.13
2.52
0.79
-1.00
-2.82
-4.64
-6.45
-8.20
-9.90
-11.61
-13.41
-15.39
-17.48
-19.43
-20.76
-20.92
-19.40
-15.99
-10.84
-4.49
2.32
8.87
14.62
19.31
22.86
25.29
26.54
26.56
25.37
23.15
20.35
17.52
15.13
13.41
12.31
11.60
11.03
10.53
10.14
9.95
10.01
10.26
10.57
10.77
10.72
10.27
9.34
7.89
5.93
3.53
0.82
-2.11
-5.21
-8.40
-11.48
-14.05
-15.54
-15.43
-13.46
-9.83
-5.15
-0.19
4.42
8.35
11.54
14.05
15.89
16.92
17.01
16.15
14.57
12.71
11.03
9.83
9.14
8.79
8.58
8.38
8.22
8.23
8.49
8.93
9.34
9.41
8.85
7.54
5.56
3.16
0.66
-1.60
-3.46
-4.93
-6.20
-7.59
-9.46
-12.06
-15.46
-19.42
-23.34
-26.44
-27.85
-26.90
-23.37
-17.52
-10.12
-2.14
5.48
12.00
17.09
20.68
22.93
24.09
24.41
24.09
23.31
22.20
20.88
19.50
18.22
17.15
16.34
15.70
15.06
14.22
13.06
11.62
10.02
8.36
6.70
4.92
2.91
0.57
-2.01
-4.63
-7.04
-9.02
-10.51
-11.63
-12.61
-13.74
-15.31
-17.51
-20.40
-23.86
-27.46
-30.53
-32.27
-31.95
-29.16
-23.97
-16.90
-8.73
-0.27
7.84
15.08
21.07
25.51
28.18
29.07
28.47
26.93
25.11
23.59
22.66
22.34
22.44
22.63
22.63
22.24
21.40
20.12
18.54
16.79
15.02
13.27
11.46
9.47
7.11
4.32
1.17
-2.13
-5.30
-8.12
-10.47
-12.42
-14.14
-15.87
-17.88
-20.42
-23.63
-27.41
-31.38
-34.80
-36.75
-36.40
-33.32
-27.63
-20.01
-11.43
-2.87
4.91
11.42
16.35
19.51
20.79
20.31
18.47
15.95
13.56
11.94
11.39
11.73
12.44
12.95
12.87
12.14
11.01
9.81
8.77
7.91
7.01
5.79
4.06
1.80
-0.79
-3.38
-5.68
-7.52
-8.90
-10.02
-11.10
-12.40
-14.07
-16.14
-18.57
-21.12
-23.45
-25.03
-25.31
-23.74
-20.09
-14.49
-7.52
-0.04
6.97
12.75
16.80
19.04
19.65
18.96
17.34
15.13
12.66
10.25
8.20
6.72
5.90
5.61
5.54
5.30
4.57
3.19
1.27
-0.91
-3.04
-4.84
-6.21
-7.18
-7.87
-8.45
-8.98
-9.51
-10.00
-10.45
-10.96
-11.75
-13.12
-15.31
-18.33
-21.78
-24.93
-26.83
-26.66
-24.02
-19.10
-12.65
-5.65
0.94
6.52
10.83
13.90
15.82
16.64
16.36
15.08
13.08
10.86
8.97
7.74
7.21
7.05
6.81
6.15
5.04
3.70
2.50
1.70
1.27
0.95
0.29
-1.07
-3.23
-5.94
-8.72
-11.05
-12.59
-13.36
-13.74
-14.27
-15.45
-17.50
-20.24
-23.14
-25.51
-26.60
-25.87
-23.03
-18.14
-11.62
-4.17
3.31
10.02
15.34
18.97
20.96
21.54
21.08
19.96
18.58
17.25
16.22
15.55
15.12
14.70
14.03
13.01
11.68
10.20
8.63
6.94
4.97
2.64
-0.02
-2.78
-5.35
-7.55
-9.38
-11.02
-12.68
-14.51
-16.52
-18.69
-20.99
-23.45
-26.00
-28.33
-29.92
-30.05
-28.11
-23.86
-17.57
-9.99
-2.13
5.09
11.06
15.57
18.73
20.72
21.76
21.95
21.33
20.06
18.32
16.44
14.74
13.46
12.69
12.32
12.10
11.78
11.16
10.14
8.79
7.17
5.39
3.47
1.39
-0.79
-2.98
-5.02
-6.79
-8.27
-9.64
-11.15
-13.09
-15.62
-18.69
-21.92
-24.66
-26.15
-25.68
-22.89
-17.93
-11.39
-4.18
2.81
8.99
14.09
18.12
21.09
22.91
23.40
22.52
20.44
17.71
14.97
12.74
11.20
10.19
9.39
8.53
7.57
6.67
5.97
5.47
4.95
4.07
2.62
0.61
-1.67
-3.79
-5.44
-6.51
-7.17
-7.77
-8.69
-10.17
-12.33
-15.03
-17.98
-20.72
-22.65
-23.14
-21.68
-18.07
-12.54
-5.73
1.46
8.16
13.74
17.93
20.77
22.49
23.33
23.50
23.14
22.33
21.13
19.59
17.82
15.97
14.25
12.89
12.03
11.67
11.62
11.61
11.39
10.80
9.84
8.57
7.03
5.22
3.09
0.62
-2.10
-4.88
-7.51
-9.87
-12.01
-14.18
-16.75
-19.94
-23.63
-27.21
-29.69
-30.01
-27.49
-22.26
-15.33
-8.39
-3.26
-1.34
-3.13
-8.18
-15.37
-23.36
-31.08
-38.03
-44.33
-50.47
-57.05
-64.37
-72.35
-80.57
-88.55
-96.03
-103.11
-110.19
-117.75
-126.25
-136.27
-148.68
-164.67
-185.21
-210.11
-237.20
-262.35
-280.69
-288.47
-284.74
-271.56
-252.70
-231.58
-209.50
-185.33
-156.74
-121.96
-80.98
-35.53
12.23
61.06
111.45
164.91
222.34
282.42
341.02
392.39
431.32
455.20
464.69
462.65
452.04
433.93
407.16
369.71
320.87
262.90
201.01
141.74
90.85
51.86
25.99
12.89
11.48
20.03
35.79
54.73
71.89
82.27
82.02
69.23
44.35
9.90
-29.87
-69.61
-103.79
-127.95
-139.99
-140.83
-134.13
-124.77
-116.86
-112.21
-109.85
-106.84
-99.79
-86.12
-64.75
-35.92
-0.76
39.19
82.08
125.59
166.93
203.13
231.75
251.50
262.50
265.93
263.49
256.70
246.56
233.60
218.00
199.52
177.37
150.19
116.61
76.25
30.77
-15.98
-58.91
-93.52
-117.52
-131.28
-137.10
-137.83
-135.70
-132.14
-128.29
-125.70
-126.39
-132.23
-144.08
-161.26
-181.68
-202.66
-221.73
-236.94
-246.64
-249.09
-242.35
-224.53
-194.52
-152.51
-100.40
-41.55
19.82
79.31
133.07
178.13
212.58
235.61
247.48
249.20
242.28
228.31
208.87
185.45
159.35
131.37
101.48
68.78
32.04
-9.24
-53.96
-99.30
-141.44
-176.93
-203.64
-221.21
-230.82
-234.77
-236.15
-238.39
-244.62
-256.51
-273.27
-291.46
-306.16
-312.95
-309.77
-297.49
-278.88
-256.93
-233.38
-208.70
-182.96
-156.86
-132.08
-110.70
-94.12
-82.38
-74.38
-68.32
-62.56
-55.80
-47.01
-35.21
-19.46
0.78
25.31
52.88
81.54
109.27
134.66
157.26
177.52
196.31
214.47
232.37
249.67
265.31
277.94
286.58
291.12
292.21
290.62
286.49
278.87
266.11
246.77
221.07
191.44
161.87
136.45
117.76
106.56
101.59
100.21
98.44
92.55
79.83
59.55
33.36
4.86
-20.92
-39.18
-46.36
-41.55
-25.16
1.04
33.31
65.37
88.51
94.49
78.34
40.74
-13.30
-74.87
-134.77
-186.21
-225.73
-252.86
-267.35
-268.75
-252.65
-219.78
-178.45
-140.71
-114.31
-97.11
-84.63
-72.75
-59.18
-42.15
-29.07
-24.26
-28.56
-39.26
-51.73
-62.89
-67.25
-65.86
-59.91
-50.92
-38.61
-21.51
-1.85
19.11
39.23
56.67
69.67
77.77
80.37
77.90
71.20
61.51
50.76
40.32
31.20
23.44
17.20
12.23
9.06
8.71
12.24
20.57
33.39
49.33
66.06
81.21
92.21
96.83
93.21
80.42
59.31
32.51
4.03
-21.82
-41.65
-54.11
-59.89
-61.10
-60.21
-58.97
-58.15
-57.53
-56.36
-53.71
-48.97
-42.08
-33.61
-24.50
-15.59
-7.28
0.70
9.01
18.12
27.65
36.23
41.96
43.40
40.42
34.52
28.20
23.99
23.41
26.55
32.37
39.34
46.10
51.73
55.76
57.93
58.11
56.33
52.81
47.91
41.91
34.85
26.54
16.84
6.02
-5.14
-15.38
-23.43
-28.54
-30.93
-31.96
-33.78
-38.63
-47.90
-61.49
-77.66
-93.72
-107.01
-115.92
-120.13
-120.32
-117.38
-111.77
-103.48
-92.33
-78.60
-63.06
-46.75
-30.39
-14.14
2.24
18.82
34.92
48.98
58.94
62.99
60.40
51.94
39.80
26.89
15.97
8.76
5.66
5.95
8.47
12.16
16.35
20.61
24.39
26.85
27.05
24.58
19.92
14.39
9.52
6.21
4.20
2.16
-1.54
-7.96
-17.00
-27.48
-37.81
-46.55
-52.90
-56.66
-58.03
-57.36
-54.88
-50.73
-45.08
-38.28
-31.03
-24.23
-18.72
-14.82
-12.23
-10.16
-7.88
-5.14
-2.37
-0.29
0.61
0.53
0.27
0.77
2.44
4.78
6.62
6.68
4.33
-0.07
-5.25
-9.54
-11.55
-10.72
-7.54
-3.23
0.77
3.44
4.71
5.50
7.40
11.85
19.43
29.35
39.70
48.28
53.67
55.91
56.37
57.04
59.31
63.27
67.81
71.32
72.82
72.52
71.66
71.77
73.84
77.79
82.67
87.15
90.08
90.77
89.15
85.61
80.84
75.65
70.76
66.66
63.46
60.88
58.40
55.40
51.58
47.05
42.46
38.72
36.73
37.00
39.52
43.71
48.42
52.03
52.64
48.56
38.90
24.09
5.99
-12.47
-28.12
-38.45
-41.99
-38.42
-28.10
-11.74
9.63
34.49
60.44
84.40
103.07
113.76
115.12
107.75
94.48
80.27
71.23
72.71
87.06
111.86
140.11
162.30
170.02
159.08
130.92
91.37
47.68
5.47
-33.06
-69.05
-105.59
-145.88
-191.63
-242.11
-293.80
-340.83
-376.23
-393.87
-390.20
-365.16
-322.07
-266.90
-207.48
-152.71
-111.22
-89.31
-88.70
-105.25
-129.80
-151.29
-160.76
-154.40
-133.99
-104.91
-72.99
-42.35
-14.88
8.70
27.69
41.06
48.33
50.38
49.76
49.61
52.07
57.10
62.32
64.03
59.08
46.48
28.15
8.17
-8.94
-20.04
-24.50
-24.03
-21.51
-19.53
-19.45
-21.31
-24.32
-27.68
-31.09
-34.77
-39.18
-44.48
-50.27
-55.53
-58.78
-58.62
-54.22
-45.73
-34.44
-22.53
-12.36
-5.50
-2.14
-1.06
-0.17
2.53
8.34
17.68
30.41
46.22
64.76
85.37
106.76
126.92
143.57
154.91
160.41
160.86
157.83
152.72
146.03
137.28
125.74
111.45
95.72
81.01
69.98
64.39
64.45
68.79
75.21
81.58
86.42
89.10
89.55
87.95
84.47
79.23
72.45
64.43
55.62
46.55
37.72
29.40
21.46
13.57
5.44
-2.97
-11.26
-18.77
-24.96
-29.62
-32.97
-35.53
-37.91
-40.60
-43.86
-47.57
-51.07
-53.11
-52.12
-46.85
-37.05
-23.89
-9.64
3.18
12.88
19.04
22.38
23.93
24.41
24.01
22.57
20.15
17.34
15.14
14.58
16.27
20.14
25.57
31.70
37.66
42.77
46.53
48.63
48.87
47.24
43.99
39.67
35.04
30.99
28.22
27.01
26.92
26.84
25.26
20.78
12.69
1.28
-12.25
-26.21
-39.01
-49.49
-57.07
-61.61
-63.26
-62.40
-59.67
-55.87
-51.72
-47.63
-43.51
-39.00
-33.84
-28.31
-23.24
-19.73
-18.50
-19.41
-21.54
-23.69
-24.92
-25.00
-24.35
-23.83
-24.25
-25.93
-28.54
-31.30
-33.34
-33.97
-32.88
-30.19
-26.35
-21.92
-17.42
-12.95
-8.53
-4.28
-0.45
2.56
4.08
2.82
-3.18
-16.29
-37.83
-67.85
-104.47
-143.44
-178.58
-203.11
-211.65
-201.75
-174.51
-133.07
-83.24
-32.41
12.49
47.09
70.51
84.70
93.13
99.32
107.60
119.97
135.57
151.96
167.01
179.79
190.09
197.99
203.79
210.41
219.64
230.76
240.93
246.82
245.78
235.83
216.03
172.46
103.99
23.64
-49.46
-103.15
-135.91
-152.25
-158.11
-158.25
-155.59
-149.21
-138.66
-125.24
-111.61
-99.92
-90.93
-84.73
-81.08
-79.47
-77.42
-73.30
-66.94
-59.45
-52.87
-47.74
-44.86
-44.98
-48.39
-53.41
-58.35
-61.49
-61.77
-58.86
-53.21
-46.74
-42.78
-45.05
-55.48
-73.24
-93.12
-106.79
-105.34
-83.37
-42.42
8.61
56.28
88.30
92.87
65.45
10.58
-59.42
-128.41
-181.19
-207.20
-202.66
-171.08
-122.11
-68.04
-20.71
11.84
27.42
29.24
23.56
15.80
7.56
-4.25
-24.58
-56.96
-100.48
-149.02
-193.17
-223.84
-236.11
-230.52
-212.11
-187.19
-160.59
-134.41
-108.53
-82.27
-56.04
-32.05
-13.57
-3.52
-3.05
-11.25
-25.84
-44.27
-64.37
-84.26
-101.86
-114.57
-119.79
-116.11
-104.35
-87.98
-71.87
-60.28
-55.01
-54.66
-55.47
-53.26
-45.11
-30.23
-9.50
15.38
42.80
71.57
100.65
129.00
155.59
179.80
201.69
221.90
241.00
258.73
273.68
283.61
286.47
281.33
268.92
251.37
231.41
211.51
193.28
177.43
163.95
152.47
142.43
133.20
124.17
114.94
105.44
96.05
87.41
80.15
74.60
70.50
66.97
62.84
57.03
48.99
38.96
27.91
17.13
7.81
0.61
-4.50
-8.10
-10.99
-13.84
-16.99
-20.33
-23.52
-26.19
-28.10
-29.26
-29.80
-29.92
-29.70
-29.17
-28.34
-27.33
-26.40
-25.79
-25.55
-25.48
-25.05
-23.71
-21.06
-17.10
-12.21
-7.03
-2.22
1.71
4.52
6.21
6.98
7.17
7.21
7.62
8.83
11.06
14.17
17.62
20.57
22.14
21.65
18.84
13.96
7.63
0.72
-5.90
-11.51
-15.66
-18.23
-19.42
-19.66
-19.53
-19.54
-20.05
-21.12
-22.55
-23.94
-24.86
-25.00
-24.15
-22.31
-19.58
-16.16
-12.32
-8.34
-4.42
-0.66
2.92
6.40
9.80
13.02
15.76
17.67
18.49
18.14
16.85
15.05
13.17
11.50
10.14
8.98
7.92
6.90
5.97
5.19
4.56
3.94
3.14
2.02
0.58
-1.05
-2.66
-4.13
-5.43
-6.64
-7.86
-9.18
-10.61
-12.18
-13.82
-15.43
-16.82
-17.73
-17.86
-17.04
-15.25
-12.69
-9.70
-6.64
-3.81
-1.32
0.89
3.09
5.60
8.62
12.14
15.79
18.91
20.74
20.57
18.04
13.23
6.65
-0.85
-8.27
-14.72
-19.54
-22.42
-23.34
-22.53
-20.37
-17.37
-14.13
-11.29
-9.47
-9.05
-10.01
-11.97
-14.35
-16.54
-18.23
-19.34
-19.94
-19.97
-19.18
-17.17
-13.65
-8.70
-2.85
3.08
8.35
12.53
15.68
18.16
20.39
22.56
24.62
26.42
27.75
28.59
28.98
29.00
28.65
27.90
26.77
25.42
24.14
23.21
22.74
22.66
22.66
22.40
21.53
19.84
17.20
13.67
9.46
4.95
0.67
-2.82
-5.13
-6.14
-6.01
-5.11
-3.88
-2.66
-1.75
-1.50
-2.23
-4.19
-7.34
-11.19
-14.85
-17.27
-17.66
-15.74
-11.83
-6.68
-1.06
4.53
9.95
15.32
20.64
25.59
29.53
31.76
31.83
29.84
26.45
22.79
19.89
18.32
17.99
18.33
18.60
18.06
16.19
12.75
7.93
2.10
-4.24
-10.64
-16.68
-22.07
-26.63
-30.41
-33.54
-35.72
-36.74
-36.58
-35.51
-33.85
-31.74
-29.17
-25.99
-22.13
-16.56
-8.67
1.19
11.87
22.20
31.56
39.85
47.23
53.79
61.60
72.00
84.53
97.02
107.11
113.45
115.92
115.33
112.89
113.18
119.40
131.48
146.05
158.99
167.77
171.69
171.53
168.78
169.52
178.53
196.70
220.99
246.96
271.37
292.18
308.31
291.47
226.64
121.05
1.36
-105.76
-186.85
-240.36
-271.36
-286.77
-293.79
-294.62
-290.56
-283.74
-277.95
-275.25
-274.77
-274.35
-271.05
-263.57
-249.78
-229.51
-205.44
-178.55
-152.98
-131.31
-114.07
-99.24
-81.69
-55.26
-16.90
30.83
80.09
120.49
143.96
137.16
98.35
38.88
-21.33
-65.04
-86.25
-89.70
-85.17
-80.92
-81.11
-84.73
-89.26
-94.39
-98.69
-101.24
-100.38
-93.88
-80.03
-59.56
-35.10
-11.46
6.24
15.26
16.09
11.80
8.23
11.63
25.57
49.44
76.98
99.54
111.96
114.46
110.57
104.13
97.35
90.71
84.46
79.52
77.97
82.14
92.52
107.85
122.37
129.33
123.95
106.07
80.49
54.96
36.55
28.41
28.14
30.19
28.37
18.56
-0.61
-27.29
-58.12
-89.36
-116.79
-136.73
-145.30
-140.58
-123.89
-99.88
-76.10
-59.74
-55.16
-62.05
-77.78
-91.32
-93.69
-81.98
-60.77
-38.87
-22.50
-18.42
-22.42
-30.29
-38.35
-45.07
-50.52
-49.65
-41.34
-26.98
-10.55
2.92
7.97
2.47
-8.54
-17.14
-16.42
-8.70
-1.97
-2.30
-8.29
-16.26
-15.79
-1.01
26.65
59.56
84.85
91.78
77.37
44.87
2.02
-41.70
-79.62
-109.70
-123.99
-120.44
-104.69
-85.15
-65.54
-45.75
-25.46
-6.50
8.08
16.31
16.16
7.65
-6.50
-23.04
-38.66
-52.43
-63.57
-69.95
-67.72
-55.10
-32.56
-0.94
39.45
86.12
134.07
178.26
208.88
218.58
203.06
162.65
96.48
20.15
-44.15
-83.29
-98.99
-101.88
-102.43
-107.57
-123.06
-147.16
-174.74
-201.21
-223.13
-237.42
-241.82
-235.80
-214.63
-180.96
-139.45
-93.87
-47.52
-2.93
38.78
77.67
114.52
149.88
182.09
210.40
235.20
256.76
274.92
289.84
301.99
311.22
315.88
311.10
294.31
267.75
238.09
214.32
204.87
214.42
241.50
278.45
310.80
327.16
323.58
302.63
269.70
229.92
186.59
140.63
91.65
35.08
-28.66
-92.86
-149.21
-193.67
-228.00
-257.52
-288.12
-323.78
-370.66
-427.42
-484.48
-530.20
-557.53
-565.35
-556.01
-533.19
-464.95
-348.66
-214.13
-96.42
-9.61
49.45
88.66
114.75
132.17
143.22
144.04
135.15
123.18
116.71
121.39
136.11
156.65
177.18
190.89
187.98
165.03
126.45
81.70
39.39
4.51
-21.31
-34.96
-36.55
-32.86
-29.60
-28.74
-28.19
-25.80
-21.29
-15.71
-10.84
-9.04
-14.42
-26.70
-44.08
-62.69
-78.78
-89.69
-93.55
-89.39
-77.92
-61.47
-37.81
-12.60
8.39
21.53
25.97
23.25
16.50
9.15
4.32
4.29
8.52
15.44
22.42
26.72
27.01
24.06
19.97
16.94
16.35
17.30
18.80
20.15
21.41
23.07
25.77
29.98
34.65
39.05
42.72
46.63
52.28
60.39
69.83
77.68
80.09
73.87
58.41
35.79
10.58
-12.12
-28.56
-37.44
-39.80
-38.16
-35.44
-33.75
-34.00
-35.66
-37.04
-35.83
-29.95
-18.37
-1.46
18.73
39.09
56.53
68.99
76.11
78.94
79.14
77.85
75.16
70.08
61.49
49.13
34.07
18.91
7.18
2.18
5.74
17.42
34.49
52.67
67.28
73.78
69.43
54.48
32.56
9.61
-7.86
-14.99
-10.60
2.28
16.10
22.96
18.51
4.06
-14.53
-29.83
-36.16
-32.07
-20.20
-7.81
-1.56
-4.04
-13.14
-24.59
-34.68
-41.40
-44.54
-43.95
-42.23
-41.11
-40.34
-39.34
-39.13
-42.30
-51.43
-67.93
-75.80
-62.68
-27.86
18.01
63.63
103.43
136.62
164.44
184.97
200.82
210.10
211.30
206.11
197.30
186.75
174.19
162.61
151.97
142.28
129.10
109.92
87.68
65.00
43.40
24.14
7.78
-6.31
-18.41
-34.69
-58.30
-83.84
-108.88
-133.27
-156.13
-177.06
-196.49
-214.64
-239.32
-273.74
-308.14
-338.20
-363.68
-383.96
-400.97
-418.46
-439.64
-474.19
-522.11
-563.39
-584.30
-578.65
-543.99
-485.45
-412.31
-280.69
-96.95
45.91
135.98
194.02
224.97
233.05
222.27
200.00
175.94
160.09
157.75
171.21
184.92
180.26
164.30
147.52
137.53
141.08
149.37
150.67
143.44
124.77
96.26
68.44
51.99
54.20
75.82
105.96
132.04
149.99
157.38
155.42
149.42
142.24
134.52
125.68
112.27
92.48
68.73
43.31
18.76
-2.00
-18.54
-31.48
-41.16
-48.31
-47.38
-34.58
-14.11
6.52
23.79
37.38
47.78
54.78
57.26
54.09
44.90
31.77
19.19
12.01
12.99
22.29
37.69
54.88
68.98
74.16
66.60
46.54
17.89
-13.09
-39.93
-57.21
-62.54
-58.63
-51.08
-44.84
-41.62
-40.28
-37.92
-31.77
-20.53
-5.29
10.55
24.42
34.62
41.76
47.97
56.58
70.57
90.64
113.63
132.94
141.40
133.89
110.20
74.18
33.51
-3.41
-29.54
-41.16
-40.89
-33.44
-24.81
-14.80
-3.70
6.77
13.33
12.42
3.20
-11.21
-24.48
-32.47
-30.93
-23.09
-16.61
-19.39
-36.26
-65.29
-98.32
-123.34
-131.82
-120.49
-92.81
-55.94
-18.32
11.30
28.09
32.18
28.98
21.46
9.55
-9.80
-38.59
-75.21
-115.71
-152.31
-176.51
-181.26
-169.90
-152.22
-138.61
-133.43
-120.39
-89.61
-42.36
5.76
57.24
112.49
168.96
220.57
262.63
292.28
305.57
300.46
267.23
211.77
149.42
96.03
58.24
33.50
16.24
2.66
-8.87
-18.92
-22.36
-20.52
-17.86
-18.94
-25.75
-38.05
-55.74
-78.80
-106.32
-134.28
-160.41
-183.15
-200.92
-211.64
-213.66
-207.22
-194.24
-177.43
-158.39
-140.10
-125.69
-117.24
-114.57
-115.21
-115.33
-110.63
-97.20
-72.39
-37.07
4.42
45.58
80.00
103.29
113.91
112.57
101.09
81.53
55.43
24.67
-7.64
-36.94
-58.36
-68.54
-67.35
-58.09
-46.25
-37.43
-35.33
-40.79
-52.19
-66.48
-80.32
-90.84
-95.89
-94.21
-85.66
-71.50
-54.40
-37.90
-25.28
-18.33
-16.59
-17.36
-16.57
-10.24
4.06
26.28
53.75
82.09
106.54
123.51
131.60
131.83
126.95
120.27
114.45
110.87
109.63
110.13
111.71
113.97
116.67
119.43
121.49
121.82
119.47
114.04
105.89
96.09
86.01
76.87
69.37
63.53
58.81
54.34
49.27
43.00
35.46
27.07
18.60
10.97
4.87
0.60
-2.03
-3.56
-4.59
-5.58
-6.78
-8.19
-9.70
-11.18
-12.50
-13.52
-14.04
-13.87
-12.97
-11.43
-9.49
-7.33
-4.93
-2.14
1.20
5.08
9.26
13.39
17.19
20.52
23.46
25.97
28.00
29.36
29.93
29.73
28.94
27.87
26.78
25.85
25.11
24.48
23.68
22.43
20.46
17.75
14.59
11.50
9.00
7.33
6.39
5.74
4.90
3.61
1.80
-0.42
-2.99
-5.94
-9.44
-13.50
-17.98
-22.56
-26.75
-30.13
-32.43
-33.60
-33.73
-32.96
-31.44
-29.21
-26.27
-22.64
-18.36
-13.52
-8.24
-2.58
3.33
9.32
15.04
20.05
23.82
25.94
26.30
25.12
22.97
20.59
18.80
18.13
18.72
20.31
22.39
24.33
25.56
25.71
24.72
23.00
21.10
19.51
18.43
17.74
17.00
15.72
13.64
10.91
8.30
6.66
6.44
7.52
9.37
11.29
12.50
12.51
11.13
9.20
7.63
6.98
7.58
9.61
12.99
16.77
19.63
20.04
18.52
16.15
14.04
13.29
14.99
19.86
27.18
35.65
43.20
50.00
55.93
59.85
60.46
57.37
51.18
42.25
31.68
20.16
11.24
7.37
8.42
12.91
19.44
27.65
37.10
48.90
44.47
15.93
-29.68
-77.02
-114.94
-140.75
-151.25
-153.27
-150.80
-145.58
-134.43
-113.53
-84.78
-49.71
-9.51
35.03
81.44
126.57
165.10
192.99
206.14
200.96
176.69
135.90
83.97
26.50
-30.70
-83.53
-128.22
-163.15
-189.47
-210.01
-228.45
-248.04
-271.44
-299.33
-330.79
-362.61
-390.28
-409.05
-414.32
-402.91
-373.90
-329.49
-274.05
-213.11
-151.44
-92.20
-36.88
14.35
61.83
106.11
147.96
188.83
230.63
274.92
321.52
367.44
407.07
433.58
441.27
427.87
395.31
348.80
294.77
238.60
183.43
130.03
77.59
24.75
-29.51
-85.40
-141.93
-196.89
-246.98
-288.40
-317.70
-332.65
-332.62
-318.61
-292.79
-257.81
-216.40
-171.08
-124.07
-77.37
-32.92
7.29
41.26
67.20
84.13
92.34
93.37
89.63
83.43
76.33
68.91
61.14
53.03
45.07
38.10
32.78
29.08
26.17
22.82
18.16
12.20
5.92
0.75
-2.06
-1.87
1.33
7.19
15.30
25.16
36.06
46.99
56.71
64.18
68.94
71.28
71.98
71.83
71.12
69.64
66.96
62.88
57.71
52.12
46.82
42.06
37.63
33.07
28.07
22.80
17.89
14.14
12.11
11.85
12.91
14.59
16.23
17.42
18.02
18.09
17.75
17.03
15.96
14.54
12.83
10.97
9.04
6.96
4.50
1.46
-2.18
-6.00
-9.20
-10.90
-10.63
-8.51
-5.20
-1.60
1.41
3.03
2.51
-0.74
-6.77
-14.76
-22.91
-29.02
-31.49
-30.16
-26.58
-23.21
-22.18
-24.16
-28.15
-32.08
-34.06
-33.26
-30.09
-25.69
-21.10
-16.70
-12.34
-7.73
-3.08
0.80
2.87
2.49
-0.03
-3.43
-6.14
-7.02
-5.99
-4.01
-2.50
-2.62
-4.64
-7.87
-11.05
-12.89
-12.62
-10.15
-6.06
-1.26
3.30
6.92
9.38
10.83
11.75
12.57
13.59
14.91
16.45
18.09
19.73
21.28
22.64
23.66
24.20
24.21
23.72
22.92
21.99
21.06
20.18
19.29
18.30
17.09
15.57
13.74
11.61
9.35
7.14
5.18
3.57
2.26
1.09
-0.12
-1.50
-3.06
-4.78
-6.66
-8.76
-11.16
-13.82
-16.53
-18.89
-20.52
-21.16
-20.80
-19.64
-17.95
-15.96
-13.80
-11.49
-9.08
-6.71
-4.56
-2.80
-1.44
-0.39
0.54
1.45
2.41
3.36
4.30
5.28
6.40
7.74
9.23
10.70
11.91
12.72
13.14
13.30
13.37
13.45
13.58
13.71
13.85
14.07
14.39
14.78
15.11
15.15
14.73
13.79
12.45
10.92
9.45
8.22
7.32
6.76
6.49
6.43
6.43
6.27
5.69
4.51
2.71
0.53
-1.57
-3.00
-3.26
-2.15
0.19
3.34
6.78
10.05
12.86
15.10
16.74
17.77
18.18
18.01
17.39
16.58
15.90
15.61
15.78
16.31
16.92
17.33
17.36
16.99
16.37
15.71
15.14
14.65
14.09
13.24
11.98
10.30
8.35
6.32
4.39
2.66
1.22
0.13
-0.56
-0.84
-0.83
-0.72
-0.75
-1.09
-1.75
-2.65
-3.64
-4.63
-5.64
-6.71
-7.89
-9.15
-10.49
-11.88
-13.36
-14.94
-16.54
-17.98
-18.97
-19.32
-18.95
-17.96
-16.62
-15.18
-13.84
-12.66
-11.62
-10.65
-9.73
-8.86
-8.04
-7.26
-6.45
-5.53
-4.47
-3.32
-2.19
-1.25
-0.62
-0.34
-0.32
-0.42
-0.51
-0.50
-0.45
-0.53
-0.97
-1.93
-3.46
-5.41
-7.48
-9.38
-10.88
-11.98
-12.87
-13.85
-15.12
-16.73
-18.47
-20.03
-21.15
-21.74
-21.91
-21.83
-21.60
-21.19
-20.44
-19.19
-17.35
-14.95
-12.07
-8.77
-5.01
-0.73
4.14
9.53
15.20
20.70
25.46
28.95
30.84
31.12
30.15
28.52
26.83
25.46
24.47
23.69
22.88
21.94
20.89
19.85
18.86
17.85
16.70
15.38
13.97
12.74
11.89
11.50
11.44
11.39
11.08
10.31
9.13
7.71
6.30
5.11
4.21
3.58
3.07
2.53
1.81
0.85
-0.29
-1.52
-2.70
-3.77
-4.68
-5.47
-6.15
-6.77
-7.31
-7.79
-8.18
-8.44
-8.47
-8.15
-7.34
-6.00
-4.16
-1.99
0.30
2.51
4.52
6.29
7.80
9.03
9.92
10.44
10.61
10.57
10.47
10.38
10.29
10.08
9.60
8.81
7.72
6.36
4.77
2.99
1.08
-0.84
-2.54
-3.80
-4.54
-4.84
-4.95
-5.13
-5.59
-6.30
-7.10
-7.78
-8.15
-8.16
-7.90
-7.54
-7.24
-7.17
-7.42
-7.99
-8.83
-9.80
-10.69
-11.28
-11.38
-10.93
-10.05
-9.02
-8.14
-7.62
-7.49
-7.61
-7.71
-7.56
-7.05
-6.21
-5.19
-4.14
-3.17
-2.34
-1.62
-0.97
-0.34
0.32
1.07
1.95
2.96
4.02
4.98
5.67
5.99
5.93
5.61
5.15
4.60
3.92
2.98
1.66
0.01
-1.84
-3.65
-5.24
-6.59
-7.81
-9.10
-10.61
-12.35
-14.15
-15.70
-16.67
-16.84
-16.14
-14.74
-12.96
-11.16
-9.66
-8.65
-8.15
-8.01
-7.96
-7.68
-6.87
-5.37
-3.14
-0.33
2.84
6.12
9.29
12.13
14.45
16.10
17.01
17.22
16.89
16.25
15.50
14.68
13.73
12.54
11.04
9.29
7.45
5.72
4.19
2.85
1.62
0.44
-0.69
-1.64
-2.26
-2.49
-2.39
-2.09
-1.78
-1.57
-1.44
-1.33
-1.21
-1.11
-1.13
-1.42
-2.01
-2.82
-3.63
-4.17
-4.30
-3.97
-3.37
-2.75
-2.31
-2.14
-2.11
-2.04
-1.73
-1.12
-0.28
0.63
1.49
2.24
2.92
3.61
4.38
5.27
6.21
7.14
7.93
8.45
8.64
8.47
8.03
7.46
6.91
6.45
6.03
5.54
4.83
3.81
2.49
0.96
-0.68
-2.34
-3.94
-5.43
-6.74
-7.83
-8.72
-9.52
-10.38
-11.45
-12.77
-14.21
-15.51
-16.31
-16.33
-15.43
-13.72
-11.50
-9.17
-7.04
-5.26
-3.78
-2.44
-1.10
0.30
1.71
3.02
4.14
5.04
5.71
6.17
6.40
6.34
5.99
5.38
4.66
4.00
3.51
3.24
3.10
3.00
2.79
2.38
1.71
0.75
-0.47
-1.84
-3.17
-4.22
-4.79
-4.83
-4.46
-3.93
-3.49
-3.25
-3.19
-3.23
-3.31
-3.48
-3.81
-4.31
-4.88
-5.29
-5.43
-5.35
-5.31
-5.63
-6.48
-7.76
-9.08
-9.99
-10.21
-9.70
-8.70
-7.49
-6.33
-5.30
-4.38
-3.58
-2.96
-2.66
-2.80
-3.36
-4.16
-4.89
-5.25
-5.04
-4.25
-3.06
-1.73
-0.52
0.38
0.89
1.02
0.82
0.39
-0.17
-0.69
-1.06
-1.20
-1.13
-1.00
-0.96
-1.09
-1.39
-1.72
-1.95
-2.00
-1.90
-1.72
-1.53
-1.32
-1.03
-0.60
-0.03
0.61
1.19
1.64
1.90
1.98
1.92
1.70
1.29
0.71
0.07
-0.44
-0.59
-0.22
0.71
2.05
3.54
4.92
6.04
6.82
7.34
7.68
7.88
7.92
7.78
7.44
6.95
6.43
6.03
5.86
5.93
6.21
6.58
6.91
7.14
7.26
7.32
7.35
7.41
7.39
7.17
6.57
5.55
4.21
2.81
1.64
0.90
0.60
0.54
0.46
0.20
-0.30
-0.92
-1.54
-2.05
-2.47
-2.81
-3.12
-3.41
-3.68
-3.99
-4.37
-4.86
-5.38
-5.77
-5.84
-5.48
-4.70
-3.70
-2.71
-1.93
-1.47
-1.30
-1.41
-1.76
-2.39
-3.34
-4.60
-6.08
-7.62
-9.03
-10.17
-11.02
-11.68
-12.30
-13.01
-13.86
-14.80
-15.71
-16.48
-17.03
-17.31
-17.35
-17.19
-16.94
-16.75
-16.79
-17.23
-18.07
-19.10
-19.90
-19.93
-18.71
-16.00
-11.89
-6.81
-1.33
3.98
8.72
12.76
16.12
18.90
21.15
22.84
23.89
24.30
24.15
23.67
23.05
22.44
21.81
21.00
19.84
18.30
16.49
14.65
12.99
11.56
10.21
8.67
6.74
4.42
1.89
-0.56
-2.71
-4.51
-6.04
-7.42
-8.68
-9.77
-10.57
-11.07
-11.38
-11.74
-12.37
-13.37
-14.74
-16.34
-18.00
-19.54
-20.77
-21.56
-21.82
-21.58
-20.99
-20.27
-19.55
-18.79
-17.74
-16.06
-13.52
-10.19
-6.39
-2.61
0.74
3.49
5.67
7.42
8.81
9.73
10.00
9.50
8.29
6.64
4.91
3.42
2.30
1.59
1.18
1.00
1.00
1.15
1.39
1.68
1.99
2.35
2.84
3.52
4.42
5.50
6.67
7.84
8.93
9.85
10.52
10.86
10.80
10.37
9.65
8.79
7.90
7.11
6.50
6.14
6.11
6.45
7.11
7.91
8.56
8.79
8.44
7.52
6.24
4.90
3.79
3.09
2.83
2.89
3.04
3.02
2.67
1.97
1.02
-0.02
-1.04
-2.03
-3.05
-4.14
-5.27
-6.30
-7.07
-7.51
-7.66
-7.67
-7.66
-7.68
-7.63
-7.45
-7.05
-6.42
-5.62
-4.68
-3.61
-2.50
-1.44
-0.57
-0.06
0.05
-0.20
-0.63
-1.06
-1.28
-1.19
-0.71
0.15
1.27
2.48
3.56
4.31
4.63
4.54
4.15
3.62
3.11
2.72
2.48
2.35
2.22
1.99
1.56
0.94
0.20
-0.50
-1.02
-1.30
-1.34
-1.14
-0.66
0.21
1.54
3.26
5.06
6.54
7.33
7.28
6.52
5.36
4.16
3.17
2.51
2.13
1.95
1.87
1.78
1.63
1.39
1.10
0.84
0.69
0.65
0.70
0.84
1.16
1.81
2.82
4.09
5.27
5.99
6.04
5.53
4.86
4.49
4.70
5.39
6.21
6.75
6.77
6.33
5.68
5.10
4.75
4.64
4.67
4.74
4.80
4.84
4.89
4.94
4.91
4.72
4.27
3.57
2.73
1.92
1.37
1.22
1.48
2.03
2.61
2.95
2.85
2.38
1.79
1.57
2.10
3.53
5.56
7.54
8.79
8.97
8.34
7.64
7.66
8.84
10.94
13.19
14.71
14.94
13.92
12.20
10.48
9.25
8.57
8.04
7.04
4.92
1.18
-4.51
-12.16
-21.50
-31.79
-41.74
-49.77
-54.35
-54.73
-51.38
-46.02
-40.97
-38.01
-37.39
-37.63
-36.28
-31.32
-22.46
-11.53
-1.77
3.64
2.79
-4.35
-16.47
-31.78
-48.73
-66.15
-82.79
-96.82
-105.77
-107.00
-98.59
-80.11
-53.08
-20.55
13.50
45.21
71.62
91.12
103.51
109.59
110.78
108.66
104.70
100.11
95.72
91.95
88.81
86.00
83.09
79.72
75.70
70.87
64.94
57.46
48.03
36.72
24.33
12.41
2.76
-3.24
-5.22
-4.04
-1.25
1.40
2.58
1.75
-0.81
-4.26
-7.63
-10.28
-12.16
-13.66
-15.33
-17.71
-20.95
-24.90
-29.42
-34.75
-41.52
-50.46
-61.48
-73.38
-84.03
-91.00
-92.32
-87.34
-76.87
-62.93
-48.18
-34.85
-24.62
-18.50
-16.74
-18.81
-23.37
-27.64
-27.76
-22.38
-11.79
3.24
20.38
36.57
49.25
57.36
61.61
63.72
65.18
66.46
64.83
57.17
42.12
21.85
1.32
-14.55
-23.24
-25.42
-23.73
-21.28
-20.19
-21.06
-23.41
-26.44
-29.66
-33.11
-37.19
-42.13
-47.79
-53.17
-56.46
-55.50
-48.58
-35.51
-18.04
0.57
16.71
27.88
33.52
35.17
34.63
33.14
30.77
26.78
20.55
12.43
4.03
-2.45
-5.34
-4.43
-1.12
2.30
3.74
2.39
-1.04
-4.83
-7.26
-7.50
-6.06
-4.24
-3.45
-4.41
-6.81
-9.65
-11.81
-12.60
-12.01
-10.50
-8.46
-6.22
-3.90
-1.39
1.39
4.32
7.02
9.02
9.99
9.94
9.21
8.27
7.51
6.98
6.42
5.38
3.49
0.67
-2.83
-6.60
-10.11
-12.92
-14.76
-15.51
-15.21
-14.03
-12.21
-10.00
-7.60
-5.14
-2.69
-0.31
1.86
3.70
5.06
5.93
6.44
6.87
7.55
8.72
10.48
12.66
14.96
16.98
18.37
18.89
18.47
17.24
15.43
13.38
11.48
10.12
9.58
9.93
10.90
12.03
12.76
12.72
11.88
10.56
9.27
8.40
8.01
7.79
7.26
6.07
4.24
2.13
0.31
-0.75
-0.90
-0.30
0.73
1.86
2.92
3.85
4.63
5.19
5.44
5.33
4.97
4.57
4.37
4.46
4.69
4.79
4.44
3.51
2.10
0.54
-0.81
-1.64
-1.87
-1.60
-1.16
-0.89
-1.08
-1.76
-2.74
-3.69
-4.37
-4.80
-5.25
-6.09
-7.55
-9.51
-11.59
-13.37
-14.65
-15.54
-16.33
-17.21
-18.04
-18.47
-18.10
-16.76
-14.67
-12.26
-9.93
-7.81
-5.80
-3.65
-1.21
1.47
4.18
6.68
8.80
10.49
11.77
12.69
13.27
13.55
13.53
13.24
12.69
11.79
10.37
8.24
5.31
1.69
-2.32
-6.34
-10.15
-13.75
-17.41
-21.48
-26.12
-31.08
-35.67
-38.85
-39.59
-37.16
-31.43
-22.91
-12.69
-2.05
7.95
16.86
24.97
33.17
42.36
52.92
64.39
75.54
84.88
91.24
94.28
94.70
94.35
96.40
105.28
126.08
162.94
216.88
283.95
355.15
418.62
463.48
483.68
479.77
457.86
426.42
392.73
360.76
331.25
303.42
276.71
251.58
228.89
208.92
190.62
171.98
150.99
126.79
100.16
73.19
48.43
27.74
11.67
-0.61
-10.75
-20.43
-30.60
-41.20
-51.37
-60.06
-67.22
-73.27
-78.83
-84.66
-91.55
-100.06
-110.28
-121.88
-134.32
-147.62
-161.57
-175.41
-188.08
-198.56
-206.04
-209.91
-209.93
-206.52
-202.39
-200.27
-201.90
-208.06
-218.88
-233.91
-251.94
-271.55
-291.62
-315.45
-344.59
-376.87
-407.92
-434.34
-454.62
-468.58
-476.45
-478.06
-480.21
-484.88
-487.23
-480.72
-463.79
-440.34
-416.18
-395.63
-380.06
-380.57
-400.22
-431.00
-460.82
-483.02
-497.26
-505.46
-508.96
-508.02
-518.61
-547.99
-588.51
-625.31
-648.81
-657.23
-653.15
-640.41
-522.29
-276.70
32.51
313.95
520.59
652.15
726.90
764.20
779.30
782.99
765.98
724.58
667.78
610.55
562.38
525.71
500.01
483.24
473.36
455.75
422.63
378.45
334.13
297.40
270.51
252.55
241.52
235.21
223.50
201.06
170.85
140.54
115.56
98.13
88.21
84.43
85.27
85.05
80.07
70.55
59.05
47.57
36.87
27.19
18.99
12.97
8.06
3.24
-1.93
-7.54
-13.56
-19.28
-24.28
-27.95
-29.98
-30.72
-30.99
-31.43
-32.12
-32.45
-31.81
-30.26
-28.46
-27.33
-27.40
-28.31
-28.67
-27.83
-24.90
-19.71
-13.04
-6.08
0.12
4.98
8.53
11.17
13.39
15.63
18.00
20.22
21.88
22.60
22.21
20.87
19.08
17.51
16.86
17.42
18.96
20.89
22.46
23.05
22.40
20.65
18.27
15.93
14.18
13.35
13.44
14.20
15.16
15.81
15.68
14.49
12.20
8.95
5.04
0.86
-3.20
-6.81
-9.80
-12.17
-14.04
-15.58
-16.87
-17.88
-18.49
-18.51
-17.75
-16.17
-13.79
-10.83
-7.59
-4.41
-1.63
0.57
2.15
3.18
3.81
4.15
4.22
4.03
3.56
2.74
1.48
-0.39
-2.98
-6.27
-9.96
-13.55
-16.52
-18.51
-19.47
-19.63
-19.33
-18.86
-18.38
-17.92
-17.43
-16.84
-16.06
-14.96
-13.49
-11.63
-9.49
-7.26
-5.10
-3.08
-1.24
0.35
1.64
2.74
3.92
5.56
7.86
10.76
14.01
17.17
19.83
21.66
22.60
22.68
21.97
20.49
18.34
16.01
14.06
12.77
12.01
11.37
10.36
8.65
6.24
3.41
1.46
1.33
3.07
5.87
8.75
11.10
12.78
13.84
14.28
15.64
18.99
24.45
31.52
39.99
50.26
62.70
77.07
92.13
108.92
127.54
146.37
162.42
173.03
177.18
175.52
169.95
162.69
159.46
164.08
176.49
193.06
209.27
221.94
229.83
233.29
212.80
160.59
84.42
3.70
-64.81
-114.84
-148.18
-169.55
-181.39
-188.36
-189.57
-184.25
-173.82
-161.72
-151.09
-143.00
-137.60
-133.86
-131.26
-126.81
-118.87
-107.86
-95.80
-84.64
-75.36
-68.29
-63.51
-61.39
-59.99
-57.47
-52.87
-46.45
-39.17
-32.10
-26.28
-22.52
-21.38
-21.86
-22.89
-23.98
-25.45
-27.85
-31.35
-35.57
-39.51
-42.06
-41.82
-37.99
-30.69
-20.99
-10.55
-1.09
5.97
9.83
10.37
8.09
3.73
-2.09
-8.97
-16.60
-24.50
-31.73
-37.10
-39.61
-38.92
-35.59
-30.81
-25.82
-21.34
-17.42
-13.62
-9.42
-4.59
0.76
6.36
12.09
18.03
24.38
31.08
37.70
43.37
47.17
48.49
47.33
44.41
40.84
37.72
35.64
34.48
33.43
31.37
27.33
20.81
11.94
1.38
-9.90
-20.76
-30.06
-36.78
-40.16
-39.90
-36.29
-30.16
-22.65
-14.89
-7.70
-1.47
3.72
7.92
11.18
13.60
15.41
17.05
19.02
21.67
24.94
28.30
30.95
32.16
31.62
29.53
26.38
22.62
18.35
13.36
7.30
0.11
-7.78
-15.52
-22.11
-26.81
-29.29
-29.63
-28.03
-24.55
-19.11
-11.61
-2.30
8.07
18.29
27.08
33.44
36.97
37.73
36.07
32.30
26.61
19.23
10.64
1.80
-6.11
-11.97
-15.18
-15.85
-14.68
-12.65
-10.62
-9.13
-8.39
-8.42
-9.17
-10.56
-12.43
-14.48
-16.26
-17.33
-17.36
-16.29
-14.29
-11.73
-9.02
-6.51
-4.45
-2.94
-1.96
-1.38
-1.01
-0.62
-0.02
0.91
2.14
3.56
4.94
6.13
7.01
7.53
7.71
7.54
7.01
6.13
4.97
3.65
2.31
1.03
-0.25
-1.70
-3.51
-5.79
-8.42
-11.12
-13.58
-15.58
-17.09
-18.28
-19.29
-20.18
-20.86
-21.11
-20.74
-19.64
-17.85
-15.44
-12.51
-9.13
-5.35
-1.26
3.03
7.42
11.80
16.12
20.27
24.02
27.07
29.10
29.93
29.64
28.57
27.21
25.92
24.79
23.57
21.77
18.89
14.71
9.38
3.43
-2.42
-7.58
-11.78
-15.15
-18.11
-21.13
-24.40
-27.78
-30.85
-33.18
-34.60
-35.29
-35.60
-35.79
-35.80
-35.21
-33.47
-30.22
-25.52
-19.91
-14.17
-9.00
-4.72
-1.13
2.36
6.59
12.38
20.42
31.08
44.39
59.86
76.35
91.95
104.29
111.08
110.91
103.89
91.73
77.25
63.29
51.72
42.93
36.07
29.82
23.25
16.30
9.58
3.79
-0.81
-4.61
-8.34
-12.53
-17.16
-21.70
-25.46
-28.10
-29.81
-31.15
-32.61
-34.20
-35.38
-35.34
-33.49
-29.86
-25.13
-20.38
-16.57
-14.28
-13.51
-13.87
-14.78
-15.68
-16.20
-16.15
-15.49
-14.27
-12.57
-10.41
-7.79
-4.77
-1.59
1.38
3.70
5.10
5.56
5.35
4.87
4.36
3.83
3.11
2.03
0.61
-0.82
-1.84
-2.07
-1.44
-0.16
1.36
2.75
3.74
4.21
4.21
3.86
3.46
3.32
3.77
4.92
6.62
8.40
9.72
10.17
9.65
8.41
6.79
5.06
3.30
1.49
-0.28
-1.74
-2.47
-2.14
-0.75
1.38
3.69
5.71
7.29
8.54
9.70
10.89
11.98
12.64
12.49
11.30
9.05
5.94
2.40
-1.00
-3.63
-5.01
-4.98
-3.81
-2.11
-0.64
-0.04
-0.66
-2.49
-5.29
-8.75
-12.55
-16.41
-20.03
-23.08
-25.31
-26.55
-26.86
-26.47
-25.79
-25.25
-25.20
-25.68
-26.49
-27.15
-27.17
-26.26
-24.45
-22.07
-19.57
-17.35
-15.62
-14.35
-13.35
-12.36
-11.12
-9.48
-7.40
-5.00
-2.54
-0.34
1.29
2.19
2.39
2.09
1.61
1.31
1.44
2.06
3.04
4.06
4.85
5.33
5.79
6.90
9.44
14.02
20.65
28.51
36.04
41.32
42.67
39.15
30.88
18.98
5.24
-8.40
-20.29
-29.29
-34.87
-36.98
-36.01
-32.62
-27.74
-22.35
-17.36
-13.36
-10.44
-8.21
-5.98
-3.09
0.81
5.55
10.54
14.97
18.15
19.73
19.77
18.69
17.05
15.37
14.02
13.16
12.77
12.81
13.31
14.35
16.06
18.48
21.48
24.79
28.00
30.72
32.66
33.62
33.44
31.93
28.90
24.16
17.64
9.58
0.56
-8.44
-16.21
-21.61
-23.92
-23.17
-20.19
-16.43
-13.46
-12.48
-13.94
-17.44
-21.92
-26.12
-28.96
-29.90
-29.03
-26.96
-24.62
-22.95
-22.49
-23.14
-24.02
-23.71
-20.76
-14.29
-4.57
6.98
18.17
26.79
31.33
31.37
27.53
21.16
13.85
7.15
2.37
0.37
1.37
4.80
9.34
13.24
14.97
13.64
9.37
3.07
-3.91
-10.29
-15.09
-17.76
-18.07
-16.13
-12.35
-7.44
-2.36
1.98
4.94
6.32
6.41
5.79
5.16
5.12
6.04
8.04
10.96
14.38
17.71
20.38
21.95
22.31
21.63
20.27
18.59
16.85
15.21
13.78
12.60
11.61
10.58
9.23
7.35
5.15
3.29
2.74
4.31
8.14
13.51
18.92
22.69
23.50
20.86
15.12
7.30
-1.26
-9.10
-14.92
-17.69
-16.98
-13.11
-7.24
-1.08
3.63
5.73
5.00
2.12
-1.74
-5.48
-8.43
-10.39
-11.55
-12.09
-12.08
-11.38
-9.76
-7.08
-3.38
1.04
5.67
9.79
12.65
13.63
12.46
9.36
5.03
0.44
-3.49
-6.24
-7.72
-8.20
-8.05
-7.51
-6.64
-5.50
-4.23
-3.19
-2.78
-3.29
-4.65
-6.53
-8.43
-9.99
-11.09
-11.91
-12.73
-13.77
-15.01
-16.16
-16.78
-16.46
-15.12
-13.11
-11.05
-9.62
-9.17
-9.62
-10.51
-11.29
-11.61
-11.44
-11.01
-10.59
-10.28
-10.03
-9.70
-9.21
-8.59
-8.01
-7.64
-7.63
-8.00
-8.68
-9.53
-10.43
-11.35
-12.37
-13.64
-15.29
-17.27
-19.37
-21.26
-22.69
-23.57
-24.06
-24.44
-24.96
-25.73
-26.73
-27.86
-29.00
-30.06
-30.90
-31.37
-31.35
-30.89
-30.14
-29.38
-28.85
-28.64
-28.64
-28.62
-28.25
-27.23
-25.35
-22.46
-18.58
-13.90
-8.75
-3.54
1.32
5.59
9.12
11.93
14.08
15.74
17.17
18.76
20.89
23.86
27.66
32.01
36.40
40.30
43.26
45.10
45.96
46.22
46.36
46.71
47.25
47.56
47.01
45.09
41.72
37.35
32.81
29.00
26.53
25.49
25.58
26.28
27.15
27.93
28.52
28.92
29.11
28.99
28.47
27.43
25.84
23.74
21.18
18.18
14.69
10.73
6.47
2.31
-1.22
-3.62
-4.75
-4.89
-4.71
-5.02
-6.40
-9.04
-12.70
-16.83
-20.83
-24.22
-26.70
-28.18
-28.63
-28.11
-26.75
-24.77
-22.49
-20.21
-18.08
-16.07
-13.98
-11.64
-9.05
-6.48
-4.32
-2.82
-1.85
-0.92
0.68
3.53
7.75
12.95
18.44
23.57
27.99
31.83
35.56
39.78
44.94
51.16
58.11
64.89
70.20
72.39
70.03
62.38
50.00
35.00
20.51
9.75
4.79
5.79
10.89
17.14
21.63
22.53
19.86
15.21
10.70
7.55
5.21
1.24
-7.68
-24.18
-48.80
-79.10
-110.36
-136.91
-153.73
-157.69
-147.95
-125.90
-94.94
-60.14
-26.96
-0.24
17.25
25.54
27.35
27.07
29.19
36.90
49.01
61.99
70.77
71.69
64.01
49.23
29.88
8.97
-10.60
-26.82
-38.74
-46.67
-51.50
-54.56
-56.12
-56.00
-53.94
-50.05
-44.96
-39.34
-33.52
-27.14
-19.52
-10.10
0.93
12.77
23.64
31.79
36.34
37.49
36.52
35.09
34.79
36.39
39.86
44.49
49.13
52.45
53.52
52.19
49.11
45.71
43.26
42.54
43.76
46.54
49.83
52.46
53.18
50.46
42.92
29.16
9.35
-13.68
-35.00
-49.59
-54.27
-49.26
-38.32
-26.67
-19.65
-20.01
-26.88
-37.27
-48.26
-57.98
-65.96
-72.57
-77.71
-82.02
-86.09
-90.40
-91.88
-89.03
-82.78
-76.47
-77.33
-84.61
-95.65
-108.17
-117.93
-123.48
-125.48
-125.10
-122.49
-115.86
-101.33
-75.92
-38.88
7.30
56.11
98.74
127.10
136.76
128.35
107.50
81.41
56.80
38.30
27.40
23.13
23.45
26.52
31.15
37.02
43.50
49.73
54.88
58.14
59.12
58.02
55.46
52.12
48.56
44.67
40.00
34.25
27.50
20.47
14.39
10.53
9.73
12.07
16.74
22.43
27.87
32.24
35.38
37.64
39.69
42.16
45.45
49.61
54.39
59.36
64.00
67.88
70.70
72.26
72.45
71.07
67.90
62.73
55.43
46.19
35.51
24.20
13.27
3.67
-3.83
-8.88
-11.57
-12.51
-12.66
-13.11
-14.78
-18.26
-23.68
-30.87
-39.42
-48.81
-58.44
-67.56
-75.32
-80.90
-83.69
-83.47
-80.52
-75.51
-69.35
-62.84
-56.47
-50.33
-44.16
-37.62
-30.46
-22.70
-14.60
-6.55
0.98
7.64
13.09
17.04
19.19
19.34
17.50
13.91
9.14
4.01
-0.51
-3.43
-3.99
-1.88
2.58
8.41
14.20
18.51
20.23
18.88
14.60
8.02
0.05
-8.33
-16.21
-22.87
-27.85
-31.09
-32.85
-33.64
-34.03
-34.54
-35.49
-36.97
-38.89
-40.99
-42.84
-43.87
-43.50
-41.24
-36.90
-30.63
-23.02
-14.88
-7.08
-0.36
4.79
8.19
9.91
10.29
9.83
9.20
9.01
9.67
11.13
12.84
13.86
13.15
10.05
4.56
-2.59
-10.12
-16.61
-20.94
-22.57
-21.73
-19.37
-16.88
-15.71
-16.88
-20.66
-26.46
-33.17
-39.64
-45.16
-49.68
-53.60
-57.32
-60.80
-63.37
-63.88
-61.09
-54.20
-43.14
-28.76
-12.78
2.65
15.34
23.74
27.27
26.49
22.79
17.90
13.41
10.41
9.58
11.23
15.52
22.34
31.21
41.13
50.76
58.72
64.02
66.34
66.06
64.05
61.19
58.07
54.78
51.03
46.47
40.99
35.01
29.37
25.09
22.93
23.01
24.78
27.18
29.17
30.00
29.55
28.12
26.25
24.44
22.97
21.88
21.12
20.55
20.07
19.57
18.92
18.02
16.75
15.06
12.95
10.51
7.89
5.35
3.18
1.64
0.80
0.47
0.28
-0.21
-1.34
-3.18
-5.55
-8.03
-10.18
-11.66
-12.38
-12.44
-11.99
-11.16
-9.95
-8.30
-6.20
-3.72
-1.07
1.55
3.94
5.95
7.43
8.15
7.90
6.57
4.35
1.80
-0.33
-1.38
-1.08
0.40
2.52
4.67
6.44
7.77
8.85
9.99
11.42
13.15
14.95
16.46
17.31
17.27
16.35
14.77
12.90
11.10
9.63
8.61
8.09
8.11
8.70
9.84
11.35
12.82
13.71
13.53
12.05
9.40
6.06
2.65
-0.24
-2.35
-3.69
-4.60
-5.55
-6.98
-9.11
-11.96
-15.36
-19.05
-22.79
-26.40
-29.66
-32.27
-33.82
-33.92
-32.34
-29.15
-24.74
-19.72
-14.70
-10.12
-6.23
-3.15
-0.89
0.65
1.67
2.55
3.66
5.28
7.43
9.83
12.01
13.49
13.96
13.33
11.65
9.15
6.09
2.80
-0.38
-3.16
-5.33
-6.83
-7.75
-8.25
-8.49
-8.55
-8.48
-8.32
-8.19
-8.27
-8.74
-9.62
-10.74
-11.69
-12.02
-11.45
-10.03
-8.15
-6.33
-4.95
-4.11
-3.55
-2.83
-1.58
0.36
2.88
5.66
8.30
10.41
11.76
12.28
12.04
11.20
9.92
8.26
6.29
4.16
2.14
0.60
-0.17
-0.16
0.31
0.68
0.48
-0.49
-2.08
-3.85
-5.38
-6.41
-6.95
-7.18
-7.32
-7.55
-7.89
-8.31
-8.72
-9.04
-9.26
-9.43
-9.59
-9.72
-9.70
-9.32
-8.41
-6.91
-4.99
-2.95
-1.08
0.48
1.74
2.88
4.05
5.35
6.70
7.97
9.03
9.83
10.40
10.83
11.27
11.75
12.29
12.78
13.07
13.02
12.56
11.74
10.67
9.51
8.34
7.15
5.88
4.51
3.10
1.79
0.76
0.14
-0.10
-0.11
-0.12
-0.37
-0.98
-1.90
-2.92
-3.78
-4.30
-4.50
-4.54
-4.71
-5.19
-6.01
-6.93
-7.63
-7.77
-7.23
-6.09
-4.60
-2.99
-1.36
0.34
2.25
4.48
7.02
9.72
12.34
14.64
16.32
17.05
16.50
14.42
10.87
6.37
1.88
-1.42
-2.60
-1.41
1.49
4.73
6.72
6.22
2.87
-2.74
-9.40
-15.75
-20.80
-24.17
-26.12
-27.17
-27.88
-28.56
-29.29
-29.89
-30.09
-29.59
-28.11
-25.49
-21.71
-16.98
-11.73
-6.52
-1.81
2.28
6.05
10.19
15.40
22.03
29.75
37.49
43.78
47.17
46.80
42.69
35.68
27.15
18.55
11.08
5.50
2.08
0.61
0.37
0.19
-1.40
-5.73
-13.40
-23.91
-35.54
-45.93
-52.88
-55.16
-52.96
-47.55
-40.77
-34.22
-28.90
-25.09
-22.68
-21.43
-21.09
-21.42
-22.08
-22.59
-22.49
-21.53
-19.81
-17.82
-16.25
-15.74
-16.62
-18.76
-21.63
-24.44
-26.47
-27.27
-26.81
-25.43
-23.65
-22.05
-21.06
-20.95
-21.82
-23.62
-26.25
-29.57
-33.27
-36.93
-39.99
-41.83
-41.96
-40.10
-36.10
-29.95
-21.71
-11.60
-0.22
11.30
21.40
28.48
31.36
29.75
24.33
16.45
7.66
-0.65
-7.47
-12.11
-14.10
-13.10
-8.98
-1.92
7.45
18.15
28.98
38.74
46.49
51.72
54.43
55.01
54.13
52.49
50.64
48.85
47.18
45.48
43.55
41.18
38.27
34.81
30.91
26.81
22.77
19.05
15.79
13.07
10.85
9.03
7.47
6.04
4.64
3.29
2.09
1.24
0.97
1.40
2.49
3.99
5.54
6.69
7.14
6.75
5.58
3.93
2.20
0.88
0.46
1.34
3.72
7.50
12.24
17.18
21.46
24.30
25.26
24.32
21.85
18.45
14.81
11.57
9.29
8.42
9.22
11.66
15.29
19.22
22.29
23.42
21.93
17.80
11.70
4.75
-1.79
-6.94
-10.19
-11.58
-11.55
-10.76
-9.88
-9.40
-9.64
-10.66
-12.28
-14.15
-15.84
-16.96
-17.31
-16.90
-15.95
-14.81
-13.85
-13.34
-13.46
-14.22
-15.45
-16.83
-17.93
-18.26
-17.42
-15.20
-11.61
-6.87
-1.32
4.61
10.47
15.86
20.50
24.30
27.34
29.80
31.81
33.38
34.37
34.60
34.02
32.70
30.76
28.16
24.64
19.80
13.49
6.03
-1.72
-8.66
-13.94
-17.20
-18.62
-18.53
-17.08
-14.10
-9.33
-2.80
4.93
12.84
19.88
25.43
29.41
32.23
34.48
36.60
38.84
41.25
43.76
46.31
48.81
51.19
53.44
55.67
58.07
60.68
63.22
64.93
64.78
61.90
56.10
48.20
39.87
33.00
28.96
27.98
29.03
30.27
29.66
25.60
17.22
4.48
-11.64
-28.99
-44.46
-54.59
-56.79
-50.59
-38.39
-24.96
-15.89
-15.41
-24.76
-41.76
-61.94
-80.43
-93.98
-101.70
-104.81
-105.34
-104.77
-103.41
-100.55
-95.35
-87.64
-78.35
-68.94
-60.56
-53.34
-46.29
-38.07
-27.92
-16.28
-4.75
4.79
11.14
14.43
15.88
16.95
18.44
20.08
20.90
20.14
18.07
16.16
16.27
19.52
25.38
31.73
35.85
35.78
31.25
23.64
15.05
7.11
0.26
-5.99
-12.24
-18.45
-23.77
-27.19
-28.38
-28.15
-28.13
-29.75
-33.30
-37.58
-40.41
-39.64
-34.12
-24.03
-10.71
4.05
18.56
31.54
42.04
49.31
52.72
51.82
46.52
37.24
24.98
11.15
-2.81
-15.79
-27.32
-37.51
-46.83
-55.71
-64.16
-71.69
-77.50
-80.78
-81.04
-78.16
-72.32
-63.95
-53.58
-41.91
-29.77
-18.12
-7.84
0.42
6.44
10.43
12.95
14.77
16.63
18.99
21.92
25.03
27.65
29.11
29.05
27.56
25.18
22.62
20.42
18.76
17.38
15.76
13.28
9.47
4.05
-3.03
-11.61
-21.37
-31.95
-42.94
-53.92
-64.42
-73.86
-81.65
-87.27
-90.53
-91.64
-91.13
-89.55
-87.25
-84.22
-80.14
-74.58
-67.14
-57.43
-44.99
-29.40
-10.58
10.77
32.94
53.53
70.33
82.29
90.06
95.54
100.79
106.88
113.37
118.80
121.90
122.49
121.75
121.38
122.38
124.18
124.84
122.23
115.35
105.00
93.33
82.70
74.61
69.28
66.09
64.37
63.84
64.45
65.97
67.54
67.96
66.29
62.54
57.73
53.45
50.88
50.15
50.09
48.45
42.68
30.85
12.63
-10.07
-33.29
-52.37
-63.61
-65.90
-61.19
-53.42
-46.60
-43.03
-42.61
-43.57
-44.15
-43.64
-42.53
-41.82
-42.19
-43.47
-44.81
-45.25
-44.36
-42.57
-40.65
-39.10
-37.82
-36.04
-32.80
-27.37
-19.65
-10.28
-0.91
6.88
12.29
15.60
17.78
19.93
22.91
27.13
32.53
37.33
39.94
39.97
38.47
37.10
37.32
40.17
46.09
54.84
62.67
66.19
64.36
58.98
52.87
48.16
45.89
46.18
48.24
46.37
35.58
14.32
-15.14
-49.39
-85.82
-122.30
-156.65
-187.05
-218.17
-254.67
-297.65
-343.93
-389.12
-430.44
-466.55
-497.14
-488.26
-421.86
-308.08
-179.68
-65.64
23.07
88.13
135.98
172.74
202.26
220.96
225.60
217.28
201.79
185.78
172.73
162.96
156.94
153.92
148.12
134.51
111.93
83.50
54.01
26.10
1.34
-19.65
-37.65
-57.03
-82.00
-114.83
-156.31
-199.40
-241.75
-282.26
-319.22
-349.19
-368.10
-371.26
-355.23
-320.01
-270.02
-213.91
-159.55
-111.01
-68.19
-28.78
9.54
47.48
84.19
118.77
150.88
182.36
216.32
254.68
296.70
338.55
374.49
398.79
407.51
398.97
374.65
338.49
295.50
250.29
205.72
162.52
119.87
76.83
33.45
-8.30
-44.90
-72.71
-89.16
-93.40
-86.16
-69.21
-45.28
-18.18
7.43
27.06
37.80
39.67
35.80
31.24
30.84
37.09
49.38
64.72
79.58
91.26
98.37
100.60
98.19
91.57
81.53
69.49
57.53
48.33
43.51
42.51
42.61
40.36
33.46
21.77
7.22
-7.30
-18.24
-23.38
-22.68
-17.99
-11.93
-7.20
-6.57
-12.36
-25.45
-42.55
-57.99
-66.55
-66.03
-57.95
-46.68
-37.73
-34.96
-38.86
-44.06
-43.53
-32.57
-10.82
19.22
54.41
92.17
131.11
156.72
158.01
135.37
100.03
63.44
31.16
4.31
-17.54
-34.27
-45.47
-48.91
-43.73
-32.43
-20.61
-14.08
-15.17
-25.06
-42.13
-63.11
-82.63
-96.08
-101.56
-100.18
-94.39
-86.44
-78.02
-69.84
-62.05
-53.59
-43.60
-32.13
-20.99
-12.17
-6.87
-5.24
-6.34
-8.93
-11.43
-12.81
-12.96
-12.46
-11.84
-11.13
-10.20
-8.82
-7.05
-5.01
-2.94
-1.06
0.37
1.32
1.92
2.27
2.46
2.46
2.18
1.58
0.65
-0.55
-1.83
-2.94
-3.70
-4.01
-3.95
-3.81
-3.97
-4.80
-6.46
-8.78
-11.22
-13.09
-13.75
-12.95
-10.94
-8.44
-6.41
-5.70
-6.75
-9.35
-12.67
-15.55
-16.94
-16.42
-14.51
-12.56
-12.15
-14.26
-18.71
-24.04
-28.21
-29.54
-27.71
-23.90
-20.38
-19.40
-22.19
-28.46
-36.47
-43.63
-47.20
-44.99
-36.23
-22.23
-6.79
4.40
5.50
-7.02
-32.12
-63.42
-90.81
-103.79
-95.50
-65.50
-20.01
30.34
74.33
103.55
114.56
109.19
93.27
74.50
59.88
53.61
56.04
64.00
72.66
77.62
76.72
70.44
60.91
50.28
39.63
28.84
17.62
6.51
-2.80
-8.37
-9.24
-6.39
-2.43
-0.40
-2.24
-7.96
-15.63
-22.40
-25.84
-24.95
-20.39
-14.08
-8.15
-4.03
-1.89
-0.70
1.18
5.24
12.23
22.00
33.68
46.20
58.66
70.56
81.63
91.63
100.05
106.09
108.86
107.66
102.36
93.50
82.22
69.95
58.04
47.35
38.19
30.30
23.10
16.00
8.63
0.89
-7.05
-14.91
-22.35
-29.10
-34.92
-39.71
-43.54
-46.66
-49.41
-52.06
-54.68
-56.98
-58.44
-58.42
-56.43
-52.36
-46.48
-39.33
-31.50
-23.39
-15.04
-6.16
3.74
15.03
27.73
41.38
55.24
68.74
81.89
95.47
110.50
127.46
145.48
161.96
173.14
175.27
165.78
143.91
110.86
69.51
24.21
-19.72
-56.76
-82.51
-95.12
-96.08
-89.76
-81.65
-76.25
-75.52
-78.73
-83.63
-87.97
-90.56
-91.31
-90.58
-88.53
-84.92
-79.56
-72.75
-65.44
-58.89
-54.23
-52.04
-52.07
-53.43
-54.89
-55.32
-54.07
-51.14
-47.07
-42.73
-38.91
-36.02
-33.98
-32.35
-30.55
-28.14
-25.04
-21.51
-18.04
-15.13
-13.00
-11.57
-10.51
-9.49
-8.29
-7.02
-5.96
-5.48
-5.78
-6.82
-8.41
-10.24
-12.09
-13.81
-15.26
-16.28
-16.72
-16.48
-15.61
-14.34
-12.90
-11.45
-9.98
-8.44
-6.83
-5.39
-4.59
-4.91
-6.62
-9.56
-13.23
-16.93
-20.09
-22.39
-23.89
-24.86
-25.63
-26.41
-27.15
-27.63
-27.50
-26.43
-24.28
-21.11
-17.27
-13.23
-9.44
-6.17
-3.47
-1.15
1.07
3.40
5.93
8.59
11.21
13.60
15.62
17.20
18.31
19.00
19.27
19.14
18.60
17.66
16.38
14.85
13.26
11.83
10.78
10.21
10.13
10.34
10.55
10.41
9.63
8.01
5.55
2.37
-1.32
-5.22
-9.04
-12.42
-15.01
-16.54
-16.87
-16.10
-14.52
-12.54
-10.53
-8.70
-7.09
-5.60
-4.16
-2.76
-1.52
-0.60
-0.04
0.19
0.21
0.12
-0.01
-0.15
-0.20
0.07
0.90
2.46
4.66
7.07
9.15
10.41
10.69
10.25
9.64
9.42
9.92
11.11
12.62
14.01
14.98
15.56
16.05
16.82
17.97
19.19
19.77
18.89
15.99
11.01
4.44
-2.91
-10.25
-16.97
-22.70
-27.15
-30.07
-31.23
-30.57
-28.26
-24.72
-20.49
-15.97
-11.36
-6.65
-1.70
3.59
9.25
15.19
21.25
27.25
32.95
38.15
42.64
46.28
49.09
51.23
52.96
54.53
56.03
57.28
57.87
57.30
55.28
51.83
47.45
42.90
38.88
35.78
33.48
31.45
29.04
25.75
21.41
16.25
10.70
5.27
0.41
-3.57
-6.48
-8.21
-8.74
-8.17
-6.71
-4.70
-2.58
-0.83
0.14
0.09
-0.98
-2.83
-5.07
-7.27
-9.12
-10.49
-11.44
-12.15
-12.78
-13.38
-13.81
-13.81
-13.06
-11.36
-8.75
-5.54
-2.36
0.12
1.36
1.25
0.08
-1.52
-2.94
-3.85
-4.37
-4.96
-6.16
-8.20
-10.91
-13.70
-15.79
-16.55
-15.71
-13.43
-10.19
-6.64
-3.45
-1.17
-0.15
-0.57
-2.39
-5.28
-8.69
-11.87
-14.08
-14.85
-14.15
-12.37
-10.15
-8.10
-6.53
-5.44
-4.58
-3.70
-2.61
-1.27
0.30
1.99
3.60
4.81
5.21
4.46
2.47
-0.54
-4.05
-7.53
-10.63
-13.30
-15.67
-17.91
-20.06
-22.04
-23.71
-24.99
-25.97
-26.85
-27.88
-29.27
-30.98
-32.77
-34.16
-34.66
-33.95
-32.12
-29.71
-27.48
-26.10
-25.86
-26.57
-27.72
-28.75
-29.26
-28.96
-27.61
-24.88
-20.51
-14.55
-7.51
-0.42
5.60
9.65
11.52
11.61
10.79
9.95
9.74
10.41
11.82
13.58
15.24
16.41
16.93
16.92
16.67
16.52
16.65
16.98
17.29
17.31
16.95
16.41
16.08
16.43
17.77
20.18
23.48
27.30
31.22
34.91
38.18
41.04
43.57
45.80
47.62
48.50
48.09
46.55
44.52
42.85
42.30
43.32
45.90
49.62
53.50
56.68
58.77
59.75
59.77
58.99
57.64
55.97
54.17
51.53
47.57
42.36
36.43
30.50
25.44
22.37
22.58
27.03
33.65
40.14
44.57
45.23
40.24
28.49
10.97
-8.67
-24.98
-36.66
-41.66
-37.29
-22.64
-1.19
19.57
31.19
27.57
6.66
-35.94
-97.60
-168.69
-237.64
-297.45
-347.79
-392.88
-438.04
-486.92
-548.43
-621.93
-695.34
-751.50
-777.76
-771.31
-737.88
-687.69
-575.17
-394.18
-179.38
19.92
175.47
284.79
356.23
399.06
421.46
430.39
422.94
400.05
369.16
340.82
322.88
318.42
325.63
340.87
358.91
366.34
353.53
319.25
267.09
208.86
156.95
120.06
101.26
97.55
97.56
91.39
75.36
52.41
28.25
8.87
-0.99
2.58
21.99
54.09
91.67
125.66
147.79
152.47
137.78
106.60
65.87
24.00
-11.40
-34.81
-45.54
-45.79
-38.52
-26.95
-14.34
-5.10
-0.80
-2.26
-10.40
-22.94
-34.73
-41.01
-40.72
-37.01
-35.78
-43.38
-62.10
-95.01
-140.56
-191.88
-239.51
-274.81
-291.71
-287.82
-264.53
-213.67
-143.26
-72.00
-16.34
18.53
36.39
43.87
45.94
45.36
43.87
42.13
41.70
45.73
56.45
72.66
90.09
102.64
105.02
95.45
74.77
44.47
11.71
-14.56
-27.83
-25.57
-9.98
11.04
28.34
34.37
35.00
35.82
41.38
50.03
60.68
71.54
80.64
86.72
88.54
85.25
75.80
60.06
39.10
15.98
-5.50
-21.62
-29.44
-28.24
-19.77
-8.25
2.22
9.07
12.60
14.88
18.94
27.75
42.66
62.44
83.09
100.47
111.93
117.11
116.55
110.70
99.75
83.67
62.86
38.65
14.96
-2.61
-9.20
-3.82
10.06
26.61
39.98
45.72
41.15
26.60
5.44
-16.44
-32.11
-34.54
-17.57
21.45
78.79
137.26
172.38
165.42
117.72
48.81
-18.20
-68.38
-98.41
-113.48
-121.12
-124.82
-122.69
-110.97
-89.52
-63.92
-42.52
-31.78
-33.02
-42.46
-53.13
-58.28
-54.69
-42.43
-24.04
-1.72
23.36
50.21
76.20
97.23
109.03
109.08
97.62
77.68
54.38
32.66
15.75
4.33
-2.65
-6.87
-9.67
-12.22
-16.00
-20.70
-26.77
-34.18
-42.07
-48.73
-52.09
-50.32
-42.47
-28.69
-9.86
12.44
36.50
60.45
82.15
99.54
111.11
116.47
116.24
111.75
104.03
93.60
80.35
63.70
43.07
18.28
-10.23
-41.64
-74.82
-108.59
-141.51
-171.78
-197.95
-219.17
-235.00
-245.11
-249.29
-247.80
-241.99
-234.45
-228.16
-226.23
-230.48
-239.74
-249.29
-252.31
-242.38
-215.97
-173.75
-119.53
-60.20
-3.80
43.10
77.18
98.47
109.51
114.32
117.34
123.91
137.54
158.24
182.47
204.19
216.33
213.29
193.35
154.89
107.96
69.94
52.70
55.28
68.67
83.79
96.16
106.64
115.86
122.65
122.64
110.18
82.08
40.24
-9.19
-56.93
-91.30
-105.25
-99.16
-80.95
-61.12
-47.19
-41.19
-40.46
-40.55
-38.17
-33.10
-26.74
-21.60
-19.92
-22.88
-30.01
-40.49
-52.73
-65.85
-79.31
-91.13
-98.03
-96.83
-86.25
-68.16
-46.41
-25.07
-6.31
10.36
27.61
47.92
71.68
96.95
117.19
126.96
123.50
107.51
82.40
52.93
23.67
-1.65
-20.52
-31.86
-35.40
-32.11
-23.76
-12.90
-2.09
6.56
11.68
12.73
9.91
4.46
-1.89
-7.35
-10.62
-11.28
-9.83
-7.40
-5.22
-4.09
-3.87
-3.79
-2.93
-0.71
2.84
7.07
11.02
13.83
15.07
14.93
13.96
12.82
11.92
11.42
11.25
11.30
11.50
11.79
12.12
12.30
12.09
11.30
9.91
8.09
6.21
4.70
3.85
3.69
3.96
4.16
3.70
2.19
-0.46
-3.92
-7.59
-10.85
-13.17
-14.28
-14.14
-12.84
-10.57
-7.55
-4.06
-0.36
3.23
6.42
8.76
9.76
9.00
6.42
2.58
-1.28
-3.64
-3.36
-0.25
4.69
9.73
13.19
14.13
12.73
10.00
7.14
4.99
3.77
3.08
2.29
0.82
-1.86
-6.33
-13.02
-21.57
-30.28
-36.16
-36.19
-29.02
-16.30
-2.55
6.81
7.99
1.00
-10.43
-20.68
-25.12
-22.24
-13.91
-3.90
4.31
9.03
10.68
10.86
11.14
12.35
14.38
16.45
17.74
17.91
17.32
16.85
17.46
19.61
22.99
26.53
28.97
29.44
27.92
25.14
22.18
19.87
18.52
17.97
17.83
17.83
17.80
17.57
16.76
14.90
11.59
6.79
0.91
-5.37
-11.35
-16.50
-20.46
-23.14
-24.65
-25.25
-25.55
-26.18
-27.53
-29.48
-31.62
-33.49
-34.87
-35.70
-35.73
-34.35
-30.66
-24.11
-15.15
-5.34
3.22
8.90
11.36
11.64
11.38
11.84
13.20
14.75
15.59
15.36
14.48
13.81
13.98
14.90
16.04
16.53
15.70
13.55
10.55
7.43
4.80
2.91
1.58
0.43
-0.89
-2.53
-4.29
-5.82
-6.78
-7.08
-6.88
-6.54
-6.48
-6.98
-8.13
-9.80
-11.76
-13.69
-15.25
-16.10
-16.00
-14.91
-12.99
-10.61
-8.10
-5.59
-2.86
0.60
5.28
11.30
18.16
24.81
30.03
32.95
33.51
32.61
31.85
32.98
37.29
44.97
54.81
64.20
69.76
68.33
58.16
39.77
15.92
-9.18
-31.46
-48.35
-59.48
-66.21
-70.49
-73.69
-75.89
-76.31
-74.12
-69.33
-63.00
-56.81
-52.22
-49.61
-48.26
-46.71
-43.42
-37.55
-29.19
-19.08
-8.37
1.41
8.14
9.03
1.56
-14.91
-37.41
-59.31
-72.24
-69.77
-50.87
-20.74
11.29
36.26
49.52
52.20
49.28
46.02
44.87
44.79
43.06
37.96
30.34
23.25
19.93
21.91
28.09
35.29
40.14
40.68
37.09
31.40
26.17
23.25
22.97
24.21
25.18
24.34
21.16
16.25
11.03
6.98
4.98
5.04
6.36
7.78
8.32
7.61
5.85
3.64
1.59
0.03
-1.04
-1.81
-2.46
-3.00
-3.24
-3.01
-2.25
-1.12
0.12
1.19
1.97
2.50
2.98
3.61
4.46
5.49
6.52
7.31
7.74
7.78
7.58
7.29
6.98
6.65
6.22
5.65
5.06
4.68
4.74
5.36
6.33
7.26
7.68
7.32
6.18
4.53
2.73
1.10
-0.22
-1.22
-1.92
-2.38
-2.65
-2.80
-2.95
-3.19
-3.59
-4.13
-4.70
-5.26
-5.84
-6.60
-7.68
-9.11
-10.67
-11.96
-12.45
-11.72
-9.50
-5.79
-0.93
4.53
9.74
13.74
15.68
15.07
12.00
7.22
1.91
-2.69
-5.67
-6.75
-6.18
-4.62
-2.72
-1.01
0.30
1.20
1.74
2.00
1.97
1.63
0.97
0.05
-0.98
-1.99
-2.85
-3.59
-4.29
-5.11
-6.09
-7.13
-7.98
-8.32
-8.03
-7.18
-6.16
-5.45
-5.47
-6.40
-8.09
-10.17
-12.08
-13.30
-13.50
-12.61
-10.90
-8.88
-7.06
-5.82
-5.18
-4.81
-4.24
-3.03
-1.08
1.31
3.52
4.91
5.11
4.18
2.66
1.26
0.61
1.01
2.27
3.81
4.83
4.35
1.34
-4.91
-14.17
-24.63
-32.88
-34.83
-27.44
-10.39
13.33
38.25
58.56
70.23
72.22
66.13
54.81
41.01
26.59
12.80
0.80
-8.00
-12.29
-11.50
-6.36
1.31
9.18
15.21
18.34
18.66
17.12
14.93
13.03
11.75
10.82
9.75
8.11
5.91
3.49
1.41
0.12
-0.20
0.30
1.28
2.35
3.21
3.68
3.71
3.35
2.76
2.08
1.50
1.15
1.08
1.26
1.60
1.96
2.16
2.04
1.53
0.67
-0.31
-1.07
-1.25
-0.60
0.91
3.10
5.64
8.13
10.26
11.78
12.58
12.67
12.18
11.38
10.61
10.18
10.31
10.97
11.96
12.94
13.60
13.76
13.40
12.63
11.60
10.42
9.11
7.81
6.61
5.58
4.72
4.04
3.50
3.06
2.66
2.28
1.95
1.77
1.78
1.92
2.11
2.25
2.16
1.73
0.88
-0.08
-0.78
-0.96
-0.65
-0.04
0.65
1.18
1.44
1.48
2.23
4.43
8.22
13.00
17.95
22.40
25.90
28.41
30.15
32.93
38.18
45.90
54.46
61.88
66.71
68.37
67.55
65.61
66.43
72.78
84.60
98.87
111.76
120.51
124.08
123.77
121.99
124.38
134.83
153.30
175.54
196.05
210.34
215.65
211.66
181.18
118.70
34.80
-49.09
-116.18
-161.39
-188.38
-208.30
-229.13
-255.64
-286.59
-319.25
-347.17
-364.74
-366.86
-350.76
-318.32
-275.90
-233.10
-196.57
-169.36
-150.71
-137.14
-124.56
-110.67
-95.89
-81.61
-68.82
-55.23
-37.57
-13.67
16.75
51.02
84.01
110.18
126.39
132.89
133.57
133.37
136.11
144.70
159.36
177.69
195.79
210.13
218.29
218.99
211.40
185.42
138.45
78.50
20.11
-25.66
-55.93
-73.39
-82.31
-86.05
-86.36
-82.39
-74.15
-63.43
-53.35
-46.58
-43.91
-44.36
-46.22
-47.85
-47.19
-43.86
-39.59
-36.11
-34.93
-36.28
-39.22
-42.31
-44.23
-42.08
-36.09
-27.44
-17.81
-8.80
-1.15
5.19
10.64
15.65
20.75
25.76
30.44
34.40
37.19
38.75
39.38
39.48
39.12
38.32
36.69
34.18
31.09
27.42
23.38
19.26
15.42
12.16
8.61
3.88
-1.99
-8.04
-13.66
-18.09
-20.61
-20.52
-17.35
-12.64
-8.09
-4.27
-0.53
3.32
7.56
12.38
17.75
23.26
25.46
20.43
4.83
-18.48
-48.45
-84.03
-124.07
-167.29
-197.81
-206.24
-194.17
-171.36
-146.87
-125.63
-108.68
-95.83
-86.72
-80.32
-76.18
-71.37
-60.50
-38.38
-4.30
37.62
80.29
117.15
144.70
160.88
165.35
158.44
140.38
111.33
73.54
32.45
-4.30
-29.44
-40.16
-38.03
-27.41
-13.14
0.67
11.81
19.50
23.57
23.97
20.04
11.60
-0.50
-14.41
-27.83
-38.54
-45.10
-47.09
-45.08
-40.47
-34.85
-29.48
-25.03
-21.58
-19.25
-16.94
-14.00
-10.16
-5.48
-0.32
4.88
9.64
13.69
17.00
19.69
21.83
23.36
24.15
24.10
23.32
22.18
21.22
20.97
21.71
23.28
25.15
26.72
27.49
27.25
26.16
24.63
23.03
21.53
19.96
17.99
15.31
11.84
7.77
3.51
-0.43
-3.59
-5.67
-6.59
-6.43
-5.42
-3.92
-2.44
-1.59
-1.87
-3.49
-6.37
-10.15
-14.40
-18.78
-23.11
-27.16
-31.16
-35.64
-41.25
-48.44
-57.24
-67.29
-77.85
-88.09
-97.18
-104.54
-109.84
-112.96
-114.08
-113.65
-112.51
-111.84
-112.74
-115.80
-120.75
-126.39
-130.92
-132.46
-129.50
-121.33
-108.11
-90.64
-69.99
-47.21
-23.03
2.20
28.63
56.75
86.91
118.73
150.72
180.59
205.70
223.82
233.89
236.65
234.48
230.34
226.56
224.01
222.62
221.92
221.71
222.08
223.22
224.65
224.20
217.97
201.56
172.44
130.63
77.89
16.34
-51.67
-123.09
-193.52
-256.98
-307.09
-338.22
-348.29
-339.56
-320.12
-301.52
-292.34
-293.75
-299.21
-303.61
-303.65
-297.51
-283.75
-262.89
-235.04
-200.46
-160.41
-117.33
-74.46
-34.08
3.45
39.75
77.82
121.19
171.50
225.92
276.06
309.62
315.37
288.21
231.92
158.64
85.20
27.07
-6.36
-13.65
0.52
28.94
64.11
98.88
126.45
141.27
140.71
126.45
104.30
81.69
64.45
54.38
49.18
44.82
38.61
30.69
23.43
19.15
18.18
18.74
18.30
15.48
11.02
7.20
6.24
8.99
14.45
20.20
23.90
24.45
22.54
19.94
17.98
16.42
13.40
6.75
-4.32
-18.25
-31.86
-42.07
-47.68
-49.87
-51.14
-53.50
-57.29
-61.10
-63.02
-61.77
-57.26
-50.21
-41.29
-30.61
-18.29
-4.98
7.72
17.71
23.14
23.18
18.61
11.35
3.29
-4.78
-13.50
-24.27
-37.88
-53.30
-67.59
-76.82
-77.81
-69.54
-53.60
-33.36
-12.52
6.18
21.52
33.66
43.28
51.19
57.91
63.71
68.75
72.92
75.88
77.10
75.60
70.12
59.73
44.75
27.39
11.35
0.35
-3.84
-2.59
-0.03
-0.84
-7.57
-19.16
-31.40
-39.27
-39.51
-31.98
-19.32
-5.02
8.30
19.68
29.41
37.89
44.74
48.36
46.79
38.90
25.71
10.74
-1.01
-5.03
0.45
13.29
28.06
38.32
39.60
31.44
17.56
3.95
-3.89
-3.29
4.84
17.00
29.00
37.74
42.06
42.51
40.45
37.17
33.24
28.61
23.09
16.79
10.43
5.03
1.38
-0.40
-1.01
-1.61
-3.30
-6.62
-11.26
-16.30
-20.49
-22.64
-22.06
-18.70
-13.18
-6.57
-0.13
5.01
8.07
8.85
7.72
5.43
2.89
0.98
0.41
1.65
4.83
9.61
15.08
19.99
23.06
23.53
21.46
17.79
13.98
11.40
10.81
12.13
14.66
17.35
19.44
20.49
20.37
19.31
17.75
16.33
15.72
16.25
17.68
19.01
18.79
15.74
9.54
1.22
-7.07
-12.84
-14.40
-11.56
-5.70
0.89
6.02
8.49
8.34
6.60
4.58
3.26
3.04
3.76
4.96
6.25
7.41
8.41
9.17
9.69
9.89
9.81
9.66
9.86
10.86
12.87
15.69
18.48
20.04
19.22
15.56
9.71
3.36
-1.41
-3.08
-1.46
2.09
5.25
5.69
2.06
-5.54
-15.71
-26.36
-35.45
-41.55
-43.96
-42.65
-38.19
-31.40
-23.32
-14.96
-7.01
0.34
7.40
14.54
21.75
28.39
33.22
35.12
33.70
29.74
24.91
21.08
19.36
19.68
20.95
21.79
21.24
19.26
16.52
13.85
11.70
10.04
8.54
7.11
6.12
6.35
8.53
12.87
18.48
23.66
26.48
25.64
21.13
14.13
6.46
-0.38
-5.84
-10.35
-14.84
-19.96
-25.60
-30.87
-34.45
-35.31
-32.93
-27.41
-19.33
-9.56
0.77
10.25
17.39
20.97
20.51
16.57
10.63
4.58
-0.01
-2.35
-2.60
-1.49
0.29
2.51
5.40
9.25
13.78
17.94
20.14
19.07
14.56
7.74
0.70
-4.65
-7.44
-8.29
-8.72
-10.19
-13.22
-17.20
-20.91
-23.42
-24.69
-25.56
-27.16
-30.19
-34.52
-39.36
-43.74
-47.02
-49.26
-51.09
-53.31
-56.44
-60.41
-64.53
-67.72
-68.94
-67.64
-63.97
-58.78
-53.32
-48.77
-45.98
-45.14
-45.74
-46.62
-45.81
-40.77
-29.02
-9.33
17.24
46.94
74.22
93.63
101.94
99.31
89.03
75.85
63.95
55.53
50.68
48.23
46.90
45.99
45.36
45.00
44.59
43.46
40.88
36.53
30.77
24.53
19.07
15.42
13.82
13.73
14.12
13.84
12.30
9.56
6.25
3.15
0.85
-0.42
-0.83
-0.73
-0.45
-0.27
-0.35
-0.71
-1.32
-2.08
-2.88
-3.69
-4.64
-6.01
-8.08
-10.99
-14.60
-18.49
-22.13
-25.09
-27.18
-28.49
-29.26
-29.74
-30.07
-30.32
-30.55
-30.88
-31.48
-32.52
-34.03
-35.86
-37.75
-39.36
-40.35
-40.51
-39.75
-38.14
-35.93
-33.53
-31.45
-30.07
-29.64
-30.04
-30.95
-31.84
-32.23
-31.78
-30.38
-28.20
-25.52
-22.65
-19.81
-17.08
-14.40
-11.61
-8.52
-5.03
-1.15
2.89
6.71
9.88
12.01
12.97
12.92
12.27
11.57
11.21
11.33
11.77
12.26
12.60
12.74
12.87
13.15
13.66
14.21
14.49
14.19
13.19
11.61
9.74
7.89
6.22
4.73
3.37
2.15
1.13
0.41
-0.06
-0.54
-1.35
-2.68
-4.38
-5.91
-6.59
-5.88
-3.64
-0.19
3.81
7.64
10.64
12.38
12.69
11.67
9.77
7.64
5.97
5.22
5.45
6.31
7.28
7.92
8.04
7.77
7.34
6.96
6.66
6.37
5.93
5.21
4.14
2.73
1.11
-0.47
-1.69
-2.31
-2.25
-1.71
-1.07
-0.84
-1.42
-2.95
-5.34
-8.20
-11.00
-13.18
-14.26
-13.94
-12.21
-9.29
-5.58
-1.61
2.06
4.98
6.87
7.72
7.76
7.42
7.13
7.19
7.60
8.15
8.50
8.40
7.81
6.85
5.77
4.70
3.71
2.76
1.87
1.18
0.85
1.00
1.61
2.46
3.20
3.48
3.11
2.08
0.60
-1.04
-2.52
-3.67
-4.47
-5.07
-5.73
-6.64
-7.80
-8.95
-9.69
-9.56
-8.28
-5.86
-2.59
1.08
4.74
8.12
11.11
13.63
15.55
16.64
16.67
15.59
13.66
11.48
9.78
9.16
9.71
11.00
12.26
12.70
11.89
9.96
7.46
5.11
3.45
2.60
2.27
1.92
1.05
-0.54
-2.69
-4.97
-6.91
-8.19
-8.78
-8.92
-8.96
-9.19
-9.73
-10.50
-11.29
-11.88
-12.05
-11.67
-10.72
-9.22
-7.29
-5.07
-2.72
-0.33
1.97
4.04
5.72
6.81
7.18
6.87
6.05
5.06
4.24
3.86
4.03
4.68
5.67
6.82
7.95
8.87
9.38
9.31
8.53
7.14
5.33
3.45
1.81
0.60
-0.20
-0.78
-1.36
-2.15
-3.21
-4.53
-6.05
-7.71
-9.42
-11.03
-12.24
-12.69
-12.13
-10.48
-7.96
-5.03
-2.19
0.13
1.76
2.74
3.21
3.36
3.29
3.08
2.76
2.36
1.96
1.63
1.40
1.31
1.39
1.67
2.21
2.97
3.75
4.24
4.05
2.93
0.84
-1.90
-4.74
-7.05
-8.42
-8.74
-8.30
-7.63
-7.29
-7.67
-8.85
-10.66
-12.76
-14.78
-16.49
-17.75
-18.51
-18.75
-18.44
-17.56
-16.20
-14.45
-12.43
-10.15
-7.48
-4.21
-0.22
4.33
8.96
12.94
15.59
16.54
15.92
14.25
12.27
10.59
9.49
8.90
8.53
8.06
7.34
6.38
5.36
4.59
4.39
5.03
6.61
8.87
11.14
12.50
12.07
9.37
4.54
-1.64
-8.16
-14.03
-18.64
-21.73
-23.31
-23.50
-22.51
-20.63
-18.25
-15.77
-13.50
-11.52
-9.68
-7.75
-5.57
-3.14
-0.68
1.49
3.05
3.75
3.55
2.63
1.36
0.18
-0.54
-0.67
-0.28
0.36
0.99
1.44
1.62
1.51
1.12
0.47
-0.42
-1.47
-2.55
-3.50
-4.14
-4.38
-4.21
-3.77
-3.34
-3.29
-3.91
-5.28
-7.16
-8.96
-9.98
-9.65
-7.69
-4.32
-0.09
4.22
7.92
10.51
11.83
12.05
11.55
10.76
10.07
9.72
9.70
9.82
9.74
9.09
7.64
5.41
2.62
-0.39
-3.33
-6.07
-8.66
-11.24
-13.98
-17.03
-20.52
-24.63
-29.58
-35.49
-42.15
-49.02
-55.30
-60.23
-63.36
-64.82
-65.07
-64.64
-63.64
-61.60
-57.53
-50.35
-39.54
-25.61
-10.18
4.50
16.27
23.81
26.91
26.07
22.08
15.74
8.16
1.21
-2.52
-0.54
8.17
22.15
37.71
50.41
57.32
58.34
56.15
54.62
56.74
63.29
72.92
83.11
91.56
96.85
98.47
96.41
90.75
81.62
69.26
54.17
37.23
19.74
3.45
-9.69
-17.94
-20.40
-17.56
-11.43
-5.11
-1.71
-3.37
-10.60
-22.33
-36.52
-50.92
-63.74
-73.81
-80.53
-83.63
-83.04
-78.88
-71.62
-62.11
-51.56
-41.36
-32.78
-26.70
-23.43
-22.65
-23.65
-25.49
-27.37
-28.82
-29.67
-29.98
-29.78
-29.09
-27.87
-26.22
-24.34
-22.51
-20.96
-19.75
-18.76
-17.73
-16.42
-14.62
-12.18
-9.00
-5.05
-0.41
4.66
9.67
14.11
17.50
19.67
20.71
20.91
20.63
20.10
19.49
18.84
18.17
17.42
16.52
15.33
13.78
11.91
9.92
8.14
6.89
6.39
6.66
7.56
8.83
10.14
11.18
11.75
11.73
11.15
10.13
8.79
7.15
5.19
2.92
0.50
-1.76
-3.45
-4.25
-4.09
-3.19
-2.04
-1.22
-1.16
-2.00
-3.55
-5.29
-6.56
-6.76
-5.56
-2.97
0.63
4.62
8.35
11.23
12.91
13.23
12.31
10.47
8.18
6.00
4.41
3.76
4.09
5.25
6.88
8.61
10.08
11.08
11.54
11.50
11.08
10.42
9.61
8.61
7.33
5.62
3.37
0.67
-2.19
-4.65
-6.12
-6.08
-4.37
-1.31
2.44
6.06
8.86
10.43
10.66
9.63
7.52
4.57
1.15
-2.14
-4.55
-5.35
-4.14
-1.04
3.33
8.06
12.36
15.76
18.17
19.63
20.09
19.25
16.78
12.56
7.03
1.21
-3.62
-6.31
-6.36
-3.99
-0.04
4.44
8.51
11.54
13.22
13.44
12.28
9.93
6.77
3.38
0.44
-1.36
-1.59
-0.12
2.72
6.27
9.73
12.42
13.98
14.47
14.22
13.62
12.89
12.00
10.70
8.72
6.03
2.95
0.08
-1.90
-2.48
-1.53
0.64
3.38
5.93
7.66
8.25
7.67
6.10
3.73
0.79
-2.46
-5.65
-8.27
-9.83
-10.03
-8.94
-7.01
-4.97
-3.54
-3.21
-4.08
-5.90
-8.18
-10.39
-12.20
-13.43
-14.13
-14.41
-14.33
-13.86
-12.87
-11.26
-9.08
-6.61
-4.25
-2.45
-1.49
-1.44
-2.08
-3.01
-3.77
-3.95
-3.32
-1.85
0.33
2.94
5.62
8.01
9.82
10.89
11.25
11.10
10.74
10.48
10.48
10.69
10.86
10.61
9.59
7.69
5.05
2.09
-0.67
-2.73
-3.85
-4.02
-3.51
-2.69
-1.96
-1.61
-1.78
-2.44
-3.38
-4.27
-4.73
-4.40
-3.06
-0.72
2.37
5.74
8.89
11.41
13.11
14.10
14.70
15.27
16.06
17.04
17.99
18.61
18.70
18.25
17.45
16.51
15.57
14.68
13.80
12.93
12.12
11.42
10.85
10.37
9.90
9.40
8.84
8.26
7.70
7.11
6.37
5.32
3.82
1.89
-0.28
-2.41
-4.16
-5.23
-5.43
-4.74
-3.23
-1.13
1.26
3.61
5.58
6.90
7.41
7.08
6.00
4.49
2.91
1.61
0.78
0.48
0.62
1.00
1.44
1.76
1.93
2.00
2.01
2.02
2.09
2.32
2.79
3.49
4.21
4.72
4.69
3.75
1.71
-1.36
-5.14
-9.08
-12.62
-15.35
-16.43
-15.28
-11.72
-6.15
0.52
7.15
12.68
16.38
17.84
18.25
19.04
21.37
25.72
31.78
38.77
45.88
52.37
57.63
63.13
70.44
80.59
93.33
107.24
120.50
131.75
140.48
146.91
154.28
165.80
183.60
207.92
237.40
270.32
305.70
343.44
367.29
364.49
328.07
261.20
175.87
86.43
3.62
-67.17
-124.93
-171.10
-205.59
-228.47
-240.30
-242.76
-238.52
-230.50
-220.98
-211.37
-202.45
-192.66
-180.46
-165.30
-148.38
-132.66
-121.69
-118.09
-122.62
-133.84
-147.26
-157.79
-161.26
-155.99
-143.13
-125.75
-107.42
-90.94
-77.77
-67.42
-58.64
-50.24
-41.88
-33.94
-27.08
-21.43
-16.51
-11.39
-5.03
2.39
9.84
15.64
18.25
16.94
12.21
5.54
-1.18
-6.36
-9.23
-9.79
-8.75
-6.97
-5.17
-3.68
-2.51
-1.56
-0.89
-0.86
-1.83
-4.02
-7.24
-10.90
-14.12
-16.14
-16.65
-15.85
-14.33
-12.70
-11.43
-10.71
-10.48
-10.60
-10.94
-11.45
-12.02
-12.50
-12.52
-11.74
-9.94
-7.11
-3.45
0.80
5.41
10.36
15.14
19.43
22.95
25.51
27.06
27.69
27.56
26.79
25.45
23.47
20.85
17.62
13.95
10.10
6.34
2.88
-0.18
-2.82
-5.05
-6.72
-7.59
-7.44
-6.16
-3.88
-1.04
1.79
4.00
5.21
5.30
4.41
2.83
0.89
-1.03
-2.54
-3.28
-3.00
-1.70
0.37
2.67
4.50
5.23
4.46
2.09
-1.65
-6.28
-11.21
-15.81
-19.56
-22.11
-23.31
-23.30
-22.35
-20.87
-19.16
-17.40
-15.55
-13.47
-11.05
-8.32
-5.49
-2.82
-0.54
1.25
2.54
3.41
3.89
3.98
3.63
2.81
1.52
-0.16
-2.09
-4.08
-5.92
-7.42
-8.46
-9.05
-9.31
-9.43
-9.57
-9.85
-10.22
-10.52
-10.54
-10.12
-9.25
-8.10
-6.90
-5.86
-5.02
-4.23
-3.10
-1.20
1.91
6.45
12.34
19.17
26.20
32.51
37.26
39.95
40.54
39.47
37.39
34.91
32.33
29.64
26.58
22.96
18.74
14.07
9.19
4.26
-0.67
-5.69
-10.86
-16.12
-21.21
-25.68
-29.02
-30.76
-30.74
-29.12
-26.51
-23.78
-21.91
-21.60
-23.12
-26.10
-29.72
-32.92
-34.80
-34.84
-32.94
-29.36
-24.49
-18.68
-12.28
-5.67
0.62
5.96
9.73
11.62
11.75
10.67
9.15
7.86
7.14
6.88
6.70
6.14
5.04
3.59
2.33
1.93
2.85
5.10
8.18
11.20
13.26
13.85
13.06
11.53
10.16
9.68
10.36
12.00
14.11
16.19
17.97
19.38
20.37
20.78
20.28
18.53
15.34
10.82
5.40
-0.37
-6.01
-11.20
-15.82
-19.81
-23.11
-25.54
-26.93
-27.11
-26.02
-23.81
-20.76
-17.23
-13.59
-10.03
-6.59
-3.11
0.60
4.67
8.97
13.11
16.51
18.60
19.00
17.63
14.78
10.95
6.69
2.49
-1.26
-4.25
-6.17
-6.78
-5.94
-3.83
-0.92
2.05
4.36
5.56
5.65
5.03
4.30
3.98
4.32
5.27
6.54
7.89
9.16
10.38
11.66
13.04
14.46
15.69
16.42
16.40
15.54
13.97
11.99
10.02
8.40
7.42
7.16
7.57
8.48
9.57
10.48
10.88
10.50
9.30
7.37
4.95
2.27
-0.52
-3.36
-6.28
-9.31
-12.39
-15.42
-18.24
-20.74
-22.87
-24.62
-26.02
-27.04
-27.64
-27.78
-27.45
-26.68
-25.56
-24.20
-22.73
-21.23
-19.77
-18.32
-16.77
-14.96
-12.71
-9.93
-6.66
-3.06
0.58
3.99
6.89
9.14
10.67
11.55
11.94
12.03
11.99
11.88
11.66
11.17
10.24
8.77
6.76
4.32
1.64
-1.03
-3.51
-5.60
-7.18
-8.15
-8.44
-8.01
-6.85
-5.03
-2.62
0.16
3.02
5.63
7.65
8.88
9.31
9.06
8.36
7.41
6.37
5.33
4.34
3.46
2.71
2.06
1.40
0.52
-0.76
-2.54
-4.66
-6.75
-8.26
-8.58
-7.33
-4.49
-0.43
4.16
8.45
11.72
13.53
13.83
12.83
10.97
8.76
6.63
4.92
3.81
3.34
3.42
3.91
4.66
5.51
6.30
6.87
7.11
6.92
6.31
5.34
4.06
2.51
0.73
-1.18
-2.97
-4.28
-4.74
-4.19
-2.71
-0.69
1.40
3.16
4.40
5.08
5.26
4.94
4.11
2.73
0.80
-1.56
-4.17
-6.80
-9.21
-11.14
-12.29
-12.37
-11.10
-8.38
-4.35
0.52
5.52
9.85
12.89
14.31
14.20
12.97
11.14
9.20
7.48
6.14
5.23
4.73
4.59
4.65
4.67
4.33
3.39
1.87
0.06
-1.56
-2.53
-2.62
-1.98
-0.99
-0.17
0.18
-0.01
-0.59
-1.39
-2.34
-3.53
-5.09
-6.98
-8.96
-10.54
-11.20
-10.59
-8.70
-5.87
-2.70
0.16
2.23
3.20
3.07
1.98
0.27
-1.68
-3.47
-4.77
-5.39
-5.30
-4.66
-3.71
-2.65
-1.61
-0.63
0.27
1.11
1.93
2.81
3.95
5.54
7.64
10.01
12.11
13.19
12.64
10.18
6.08
1.09
-3.82
-7.74
-10.08
-10.67
-9.74
-7.74
-5.26
-2.83
-0.86
0.41
0.89
0.72
0.16
-0.42
-0.65
-0.31
0.63
1.92
3.15
3.87
3.77
2.76
1.07
-0.86
-2.55
-3.62
-3.89
-3.44
-2.49
-1.35
-0.27
0.59
1.17
1.48
1.57
1.52
1.43
1.45
1.74
2.44
3.62
5.18
6.87
8.29
9.06
8.86
7.60
5.41
2.65
-0.23
-2.82
-4.85
-6.17
-6.76
-6.62
-5.81
-4.43
-2.65
-0.75
0.95
2.18
2.75
2.62
1.89
0.76
-0.50
-1.57
-2.17
-2.15
-1.58
-0.80
-0.27
-0.37
-1.21
-2.53
-3.86
-4.65
-4.55
-3.52
-1.80
0.18
1.98
3.28
3.94
3.97
3.53
2.89
2.33
2.12
2.47
3.50
5.17
7.24
9.35
11.02
11.79
11.38
9.84
7.49
4.90
2.68
1.31
0.97
1.56
2.66
3.77
4.37
4.12
2.94
0.95
-1.53
-4.06
-6.21
-7.63
-8.07
-7.44
-5.81
-3.41
-0.60
2.12
4.26
5.33
5.06
3.43
0.73
-2.48
-5.46
-7.52
-8.13
-7.07
-4.45
-0.69
3.62
7.80
11.21
13.29
13.64
12.01
8.42
3.12
-3.32
-10.16
-16.60
-21.97
-25.95
-28.62
-30.35
-31.61
-32.83
-34.22
-35.78
-37.35
-38.65
-39.37
-39.19
-37.84
-35.17
-31.18
-26.06
-20.15
-13.88
-7.68
-1.92
3.02
6.80
9.12
9.78
8.85
6.63
3.63
0.46
-2.33
-4.35
-5.39
-5.43
-4.54
-2.86
-0.58
2.06
4.87
7.75
10.72
13.85
17.14
20.44
23.38
25.50
26.40
25.83
23.74
20.27
15.62
10.04
3.83
-2.59
-8.68
-13.80
-17.31
-18.77
-17.99
-15.07
-10.41
-4.62
1.56
7.33
11.99
15.06
16.36
16.10
14.76
12.96
11.26
10.07
9.55
9.67
10.33
11.37
12.66
13.97
15.00
15.35
14.67
12.78
9.78
6.11
2.42
-0.71
-2.95
-4.31
-5.14
-5.88
-6.84
-8.05
-9.21
-9.86
-9.58
-8.20
-5.86
-2.95
0.02
2.62
4.58
5.80
6.32
6.23
5.66
4.83
4.03
3.64
3.96
5.10
6.89
8.95
10.80
12.07
12.61
12.50
11.98
11.33
10.81
10.58
10.70
11.13
11.69
12.16
12.24
11.75
10.61
8.99
7.20
5.66
4.73
4.59
5.15
6.19
7.38
8.51
9.51
10.47
11.53
12.74
14.03
15.26
16.25
16.91
17.22
17.22
17.05
16.93
17.25
18.52
21.19
25.43
30.93
36.90
42.32
46.26
48.18
48.15
46.64
44.29
41.67
39.07
36.53
33.92
31.07
27.75
23.72
18.73
12.59
5.29
-2.92
-11.47
-19.60
-26.55
-31.75
-34.96
-36.26
-36.07
-34.93
-33.51
-32.39
-31.96
-32.35
-33.41
-34.76
-35.99
-36.77
-36.99
-36.70
-36.04
-35.09
-33.84
-32.20
-30.15
-27.76
-25.27
-22.96
-21.09
-19.78
-18.99
-18.55
-18.27
-18.06
-17.96
-18.12
-18.65
-19.55
-20.62
-21.50
-21.85
-21.42
-20.24
-18.49
-16.49
-14.48
-12.57
-10.79
-9.08
-7.40
-5.71
-3.98
-2.15
-0.15
2.02
4.28
6.36
7.88
8.48
7.96
6.44
4.29
2.05
0.20
-0.95
-1.37
-1.23
-0.70
0.08
1.07
2.28
3.63
4.99
6.15
6.96
7.33
7.18
6.47
5.15
3.20
0.79
-1.79
-4.10
-5.76
-6.55
-6.47
-5.74
-4.68
-3.58
-2.68
-2.07
-1.75
-1.61
-1.45
-1.06
-0.28
0.93
2.54
4.43
6.50
8.68
10.88
13.02
14.94
16.49
17.54
18.07
18.15
17.92
17.50
16.95
16.28
15.47
14.52
13.47
12.38
11.30
10.24
9.19
8.14
7.11
6.15
5.30
4.58
3.95
3.37
2.80
2.23
1.66
1.06
0.36
-0.56
-1.77
-3.23
-4.75
-6.03
-6.81
-6.98
-6.61
-5.96
-5.29
-4.78
-4.49
-4.35
-4.30
-4.26
-4.16
-3.91
-3.38
-2.46
-1.12
0.52
2.17
3.50
4.25
4.33
3.84
3.05
2.30
1.94
2.24
3.33
5.17
7.49
9.85
11.74
12.73
12.63
11.50
9.64
7.49
5.50
4.02
3.26
3.26
3.85
4.74
5.58
5.99
5.70
4.63
2.85
0.56
-2.00
-4.65
-7.30
-9.92
-12.50
-15.03
-17.51
-19.93
-22.36
-24.89
-27.55
-30.31
-32.99
-35.38
-37.27
-38.61
-39.46
-39.92
-40.06
-39.86
-39.25
-38.17
-36.63
-34.70
-32.37
-29.61
-26.31
-22.42
-18.05
-13.42
-8.85
-4.63
-0.91
2.31
5.12
7.64
10.04
12.49
15.12
17.98
20.98
23.76
25.89
26.95
26.73
25.34
23.12
20.55
18.01
15.78
13.96
12.59
11.66
11.20
11.16
11.38
11.55
11.26
10.19
8.27
5.70
2.95
0.58
-1.02
-1.75
-1.75
-1.32
-0.72
-0.09
0.55
1.17
1.72
2.05
1.97
1.35
0.18
-1.42
-3.25
-5.11
-6.87
-8.48
-10.04
-11.72
-13.66
-15.90
-18.30
-20.56
-22.33
-23.41
-23.78
-23.73
-23.64
-23.93
-24.86
-26.47
-28.59
-30.90
-33.05
-34.70
-35.64
-35.81
-35.27
-34.14
-32.46
-30.23
-27.29
-23.49
-18.78
-13.22
-6.99
-0.30
6.65
13.63
20.36
26.48
31.65
35.67
38.58
40.70
42.39
43.89
45.13
45.78
45.44
43.93
41.39
38.27
35.14
32.50
30.57
29.32
28.65
28.44
28.59
29.02
29.59
30.00
29.95
29.25
27.86
25.96
23.81
21.64
19.54
17.53
15.58
13.77
12.22
11.01
10.11
9.31
8.38
7.19
5.80
4.45
3.45
3.03
3.26
4.04
5.20
6.53
7.86
9.04
9.90
10.31
10.14
9.32
7.89
6.03
4.00
2.09
0.51
-0.67
-1.53
-2.23
-2.92
-3.67
-4.48
-5.28
-6.05
-6.85
-7.74
-8.78
-9.97
-11.28
-12.65
-14.06
-15.48
-16.87
-18.14
-19.18
-19.83
-19.99
-19.59
-18.62
-17.17
-15.41
-13.64
-12.21
-11.43
-11.47
-12.29
-13.68
-15.27
-16.66
-17.50
-17.51
-16.56
-14.64
-11.87
-8.51
-4.86
-1.25
2.04
4.82
7.01
8.62
9.72
10.36
10.55
10.25
9.38
7.99
6.24
4.45
2.96
2.03
1.75
2.01
2.57
3.13
3.43
3.30
2.66
1.52
0.00
-1.68
-3.28
-4.56
-5.41
-5.85
-6.00
-6.05
-6.11
-6.19
-6.21
-6.02
-5.56
-4.84
-4.04
-3.41
-3.21
-3.54
-4.34
-5.36
-6.21
-6.56
-6.21
-5.21
-3.78
-2.20
-0.71
0.63
1.86
3.02
4.05
4.75
4.88
4.32
3.18
1.82
0.68
0.12
0.24
0.92
1.88
2.87
3.75
4.52
5.21
5.83
6.26
6.34
5.93
5.04
3.81
2.52
1.44
0.77
0.56
0.69
0.94
1.06
0.83
0.17
-0.84
-2.01
-3.06
-3.75
-4.01
-3.92
-3.75
-3.78
-4.18
-4.95
-5.89
-6.75
-7.31
-7.50
-7.41
-7.18
-6.92
-6.63
-6.18
-5.49
-4.56
-3.49
-2.48
-1.71
-1.25
-1.07
-1.14
-1.41
-1.92
-2.61
-3.35
-3.84
-3.77
-2.97
-1.55
0.09
1.44
2.07
1.84
0.93
-0.28
-1.37
-2.05
-2.25
-2.06
-1.67
-1.23
-0.79
-0.33
0.25
0.99
1.87
2.81
3.71
4.46
5.05
5.42
5.52
5.23
4.42
3.01
1.07
-1.15
-3.32
-5.12
-6.32
-6.84
-6.73
-6.10
-5.11
-3.85
-2.45
-0.98
0.48
1.85
3.03
3.92
4.46
4.63
4.48
4.14
3.72
3.32
2.95
2.58
2.17
1.73
1.27
0.89
0.68
0.71
1.02
1.56
2.23
2.89
3.39
3.61
3.49
3.02
2.20
1.08
-0.31
-1.91
-3.63
-5.33
-6.85
-8.00
-8.66
-8.75
-8.33
-7.52
-6.51
-5.48
-4.52
-3.67
-2.90
-2.16
-1.42
-0.69
0.07
0.91
1.86
2.85
3.74
4.29
4.32
3.76
2.77
1.62
0.57
-0.25
-0.84
-1.30
-1.72
-2.08
-2.31
-2.38
-2.32
-2.23
-2.22
-2.26
-2.24
-2.01
-1.47
-0.72
0.05
0.61
0.81
0.67
0.30
-0.16
-0.61
-0.97
-1.19
-1.20
-1.00
-0.60
-0.08
0.47
1.05
1.80
2.90
4.48
6.51
8.71
10.67
11.97
12.39
11.91
10.71
9.01
6.96
4.62
1.97
-0.97
-4.12
-7.39
-10.73
-14.15
-17.69
-21.34
-24.93
-28.15
-30.63
-32.02
-32.12
-30.83
-28.23
-24.51
-19.98
-15.08
-10.35
-6.35
-3.53
-2.13
-2.17
-3.44
-5.57
-8.14
-10.71
-12.92
-14.48
-15.19
-14.88
-13.43
-10.81
-7.17
-2.90
1.49
5.43
8.55
10.71
12.02
12.65
12.74
12.33
11.40
10.06
8.56
7.30
6.73
7.15
8.67
11.18
14.42
18.04
21.65
24.94
27.65
29.64
30.86
31.32
31.05
30.07
28.36
25.89
22.62
18.60
13.95
8.92
3.81
-1.01
-5.26
-8.75
-11.48
-13.57
-15.23
-16.69
-18.09
-19.45
-20.59
-21.26
-21.19
-20.21
-18.34
-15.81
-12.97
-10.17
-7.63
-5.34
-3.06
-0.40
3.02
7.43
12.73
18.50
24.14
29.03
32.80
35.36
36.89
37.65
37.93
37.87
37.60
37.23
36.78
36.19
35.20
33.45
30.59
26.52
21.37
15.55
9.49
3.49
-2.34
-8.05
-13.72
-19.34
-24.70
-29.45
-33.20
-35.68
-36.86
-37.08
-36.97
-37.29
-38.71
-41.42
-45.12
-49.00
-52.02
-53.30
-52.39
-49.37
-44.87
-39.74
-34.84
-30.81
-27.99
-26.33
-25.60
-25.42
-25.43
-25.35
-25.03
-24.46
-23.65
-22.57
-21.09
-19.05
-16.32
-12.94
-9.18
-5.48
-2.27
0.17
1.85
3.04
4.10
5.38
7.07
9.27
11.96
15.13
18.74
22.74
27.00
31.33
35.51
39.37
42.83
45.91
48.71
51.29
53.64
55.64
57.14
58.00
58.16
57.69
56.64
55.03
52.86
50.07
46.73
42.98
39.12
35.37
31.90
28.72
25.74
22.92
20.30
18.03
16.21
14.84
13.77
12.69
11.34
9.56
7.44
5.16
2.94
0.89
-1.05
-3.07
-5.36
-7.98
-10.77
-13.42
-15.64
-17.21
-18.18
-18.74
-19.14
-19.55
-19.99
-20.40
-20.69
-20.82
-20.85
-20.84
-20.79
-20.61
-20.20
-19.46
-18.38
-17.00
-15.35
-13.39
-11.05
-8.30
-5.28
-2.23
0.48
2.57
3.91
4.58
4.80
4.73
4.47
4.01
3.34
2.45
1.42
0.31
-0.85
-2.13
-3.58
-5.22
-6.95
-8.61
-10.02
-11.08
-11.80
-12.28
-12.62
-12.91
-13.11
-13.15
-12.96
-12.52
-11.91
-11.28
-10.80
-10.57
-10.57
-10.73
-10.87
-10.90
-10.79
-10.59
-10.42
-10.38
-10.46
-10.58
-10.64
-10.60
-10.53
-10.55
-10.78
-11.23
-11.76
-12.11
-12.01
-11.23
-9.77
-7.76
-5.46
-3.12
-0.93
1.01
2.62
3.86
4.66
5.01
4.97
4.69
4.34
4.02
3.73
3.33
2.65
1.58
0.14
-1.52
-3.15
-4.43
-5.02
-4.66
-3.23
-0.83
2.23
5.47
8.46
10.91
12.73
14.01
14.87
15.42
15.72
15.85
15.90
16.00
16.25
16.70
17.28
17.85
18.30
18.52
18.47
18.16
17.65
16.97
16.17
15.24
14.15
12.90
11.49
9.93
8.32
6.74
5.25
3.85
2.49
1.13
-0.28
-1.74
-3.20
-4.58
-5.77
-6.71
-7.37
-7.82
-8.11
-8.29
-8.39
-8.44
-8.43
-8.40
-8.41
-8.49
-8.67
-8.93
-9.23
-9.53
-9.77
-9.94
-10.00
-9.94
-9.74
-9.46
-9.13
-8.78
-8.44
-8.06
-7.59
-6.97
-6.17
-5.18
-4.03
-2.73
-1.29
0.32
2.14
4.18
6.36
8.53
10.51
12.12
13.27
14.04
14.55
14.93
15.20
15.29
15.05
14.42
13.47
12.37
11.37
10.55
9.85
9.08
8.03
6.65
5.06
3.54
2.36
1.61
1.13
0.59
-0.39
-2.04
-4.29
-6.82
-9.16
-10.90
-11.77
-11.73
-10.89
-9.37
-7.25
-4.57
-1.45
1.90
5.16
8.01
10.22
11.69
12.45
12.56
12.05
10.88
9.08
6.71
4.04
1.35
-1.03
-2.94
-4.37
-5.47
-6.47
-7.56
-8.84
-10.30
-11.82
-13.26
-14.48
-15.35
-15.83
-15.89
-15.54
-14.82
-13.73
-12.31
-10.56
-8.53
-6.35
-4.21
-2.37
-1.03
-0.32
-0.17
-0.42
-0.82
-1.19
-1.43
-1.53
-1.52
-1.44
-1.31
-1.10
-0.73
-0.15
0.66
1.66
2.73
3.77
4.68
5.34
5.69
5.64
5.13
4.16
2.79
1.15
-0.67
-2.53
-4.28
-5.78
-6.82
-7.25
-7.00
-6.14
-4.90
-3.53
-2.25
-1.16
-0.25
0.56
1.30
1.99
2.57
3.01
3.32
3.51
3.61
3.67
3.72
3.76
3.82
3.87
3.89
3.85
3.77
3.66
3.60
3.62
3.70
3.80
3.84
3.74
3.49
3.13
2.72
2.31
1.91
1.47
0.94
0.26
-0.58
-1.52
-2.48
-3.33
-4.02
-4.54
-4.89
-5.10
-5.18
-5.11
-4.84
-4.38
-3.73
-2.98
-2.20
-1.50
-0.92
-0.47
-0.07
0.36
0.91
1.57
2.22
2.69
2.85
2.71
2.45
2.31
2.53
3.20
4.22
5.37
6.43
7.21
7.68
7.90
7.99
8.04
8.14
8.32
8.55
8.81
9.03
9.15
9.07
8.76
8.19
7.38
6.43
5.47
4.66
4.05
3.64
3.34
3.02
2.62
2.14
1.66
1.30
1.13
1.13
1.19
1.12
0.72
-0.10
-1.35
-2.93
-4.64
-6.30
-7.73
-8.81
-9.47
-9.70
-9.57
-9.12
-8.41
-7.46
-6.25
-4.76
-3.00
-1.07
0.89
2.67
4.16
5.34
6.30
7.20
8.15
9.12
9.99
10.57
10.71
10.42
9.83
9.19
8.73
8.57
8.69
9.00
9.39
9.84
10.42
11.26
12.47
14.03
15.84
17.70
19.39
20.72
21.56
21.86
21.58
20.72
19.34
17.49
15.28
12.77
9.96
6.84
3.38
-0.41
-4.43
-8.54
-12.54
-16.22
-19.38
-21.81
-23.39
-24.00
-23.68
-22.54
-20.80
-18.73
-16.62
-14.77
-13.39
-12.62
-12.59
-13.33
-14.80
-16.88
-19.40
-22.13
-24.80
-27.11
-28.79
-29.74
-30.08
-30.12
-30.21
-30.62
-31.45
-32.51
-33.40
-33.71
-33.24
-32.15
-30.86
-29.80
-29.20
-29.04
-28.92
-28.16
-26.18
-22.75
-18.23
-13.35
-8.89
-5.41
-3.16
-1.90
-0.94
0.65
3.74
8.91
16.48
26.58
39.01
52.24
63.26
68.78
67.19
59.29
47.44
34.36
22.32
12.75
6.25
2.74
1.93
3.54
7.22
12.50
18.42
23.79
27.54
29.19
28.92
27.56
26.17
25.54
25.91
27.04
28.67
30.08
31.38
32.69
33.90
34.68
34.81
34.36
33.67
33.35
33.73
35.12
37.52
40.66
44.19
47.72
50.76
52.28
51.36
47.95
42.63
36.32
30.08
24.88
21.32
19.33
17.18
13.13
6.29
-2.95
-13.41
-23.80
-33.22
-41.38
-48.74
-57.64
-70.03
-86.56
-106.51
-128.44
-150.54
-170.57
-185.94
-194.34
-196.40
-193.67
-187.94
-180.68
-173.30
-166.93
-162.26
-159.30
-145.81
-116.37
-74.00
-27.84
13.85
47.11
71.41
87.71
97.59
102.81
103.28
99.46
92.44
84.31
76.85
71.07
67.20
65.13
64.49
63.21
59.64
53.34
45.11
36.08
27.86
21.35
16.99
14.71
13.08
10.86
7.64
3.93
0.60
-1.62
-2.46
-1.96
-0.45
1.22
2.39
2.86
2.87
2.78
2.82
2.97
3.11
3.11
2.76
2.07
1.30
0.87
1.16
2.34
4.28
6.72
9.35
11.83
13.83
15.05
15.23
14.30
12.40
9.94
7.46
5.44
4.12
3.43
3.12
2.90
2.59
2.14
1.55
0.85
0.04
-0.90
-1.92
-2.89
-3.63
-3.99
-3.90
-3.41
-2.66
-1.84
-1.11
-0.59
-0.33
-0.35
-0.64
-1.18
-1.89
-2.64
-3.26
-3.52
-3.28
-2.54
-1.48
-0.36
0.54
1.06
1.21
1.13
1.01
0.95
0.93
0.83
0.52
-0.07
-0.90
-1.84
-2.74
-3.48
-4.04
-4.47
-4.90
-5.40
-5.97
-6.52
-6.90
-6.99
-6.71
-6.15
-5.48
-4.92
-4.62
-4.61
-4.81
-5.07
-5.28
-5.39
-5.42
-5.45
-5.54
-5.71
-5.93
-6.19
-6.52
-6.94
-7.46
-8.00
-8.36
-8.24
-7.41
-5.81
-3.67
-1.43
0.38
1.33
1.27
0.29
-1.29
-3.18
-5.17
-7.21
-9.37
-11.72
-14.25
-16.78
-19.02
-20.67
-21.59
-21.86
-21.79
-21.74
-21.96
-22.51
-23.24
-24.00
-24.71
-25.46
-26.39
-27.61
-29.05
-30.54
-31.88
-32.96
-33.87
-34.83
-35.96
-37.15
-37.91
-37.53
-35.31
-30.91
-24.53
-16.87
-8.86
-1.24
5.69
12.17
18.80
26.14
34.51
43.94
54.31
65.53
77.48
89.86
102.06
113.21
122.37
128.75
132.09
132.63
130.86
127.15
121.65
114.28
105.28
95.16
84.77
75.24
67.91
63.94
63.94
67.79
74.58
83.01
91.06
96.29
96.58
90.86
79.41
63.61
45.55
27.45
11.49
-1.40
-11.71
-20.41
-27.95
-33.79
-36.94
-36.59
-32.59
-24.95
-14.72
-3.77
5.94
12.82
15.27
11.18
-1.75
-27.87
-64.76
-103.13
-132.62
-147.93
-149.78
-142.12
-129.53
-115.65
-102.68
-91.01
-80.81
-72.74
-67.37
-64.49
-62.83
-60.50
-55.60
-47.02
-34.71
-20.69
-8.58
-1.52
-0.82
-5.16
-11.66
-17.39
-20.75
-21.80
-22.54
-26.23
-34.05
-44.98
-55.45
-60.47
-55.68
-39.33
-13.17
18.17
46.91
67.38
77.30
77.70
71.28
60.59
47.13
31.88
16.01
1.24
-10.18
-16.87
-18.94
-17.79
-15.38
-13.38
-12.72
-13.63
-15.88
-18.48
-20.14
-19.45
-15.51
-8.46
0.29
8.55
14.20
16.18
15.05
12.50
10.41
10.04
11.53
14.05
16.30
17.31
16.82
15.47
14.30
14.20
15.30
16.81
17.25
15.25
10.18
2.53
-6.31
-14.72
-21.60
-26.71
-30.47
-33.47
-35.98
-37.60
-37.58
-35.37
-30.99
-25.14
-18.99
-13.55
-9.32
-6.07
-3.18
-0.05
3.41
6.78
9.32
10.46
10.19
9.10
8.16
8.19
9.41
11.37
13.32
14.75
15.83
17.25
19.72
23.36
27.38
30.39
31.09
28.96
24.53
19.12
14.21
10.84
9.31
9.33
10.29
11.57
12.67
13.21
12.98
11.90
10.12
7.86
5.30
2.47
-0.72
-4.27
-7.87
-10.80
-12.18
-11.32
-8.10
-3.13
2.54
7.81
11.93
14.70
16.38
17.39
18.04
18.46
18.56
18.21
17.33
15.96
14.17
11.97
9.11
5.13
-0.59
-8.45
-18.38
-29.73
-41.40
-52.10
-60.76
-66.78
-70.20
-71.54
-71.63
-71.27
-70.94
-70.66
-70.03
-68.55
-65.91
-62.46
-59.10
-56.99
-56.98
-59.11
-62.50
-65.78
-67.71
-67.68
-65.77
-62.48
-58.31
-53.58
-48.45
-43.06
-37.57
-32.03
-26.11
-19.13
-10.36
0.61
13.45
27.29
41.09
54.17
66.27
77.21
86.37
92.46
94.00
90.18
81.72
71.03
61.42
55.85
55.68
60.21
67.15
73.76
78.01
79.23
78.08
75.82
73.48
71.30
68.60
64.18
56.90
46.26
32.66
17.25
1.54
-13.10
-25.81
-36.33
-44.90
-52.01
-58.14
-63.70
-68.98
-74.13
-79.12
-83.51
-86.41
-86.54
-82.66
-74.20
-61.59
-46.28
-30.18
-14.91
-1.30
10.72
21.65
31.91
41.53
50.18
57.54
63.45
67.92
71.00
72.57
72.50
70.80
67.74
63.83
59.48
54.72
49.26
42.76
35.21
27.15
19.53
13.26
8.81
6.01
4.14
2.27
-0.55
-5.12
-12.08
-21.73
-33.56
-45.84
-55.53
-59.02
-53.52
-38.41
-15.96
9.29
32.10
48.54
57.37
59.79
58.23
54.67
49.67
42.60
32.57
19.40
4.12
-11.51
-25.74
-37.53
-46.56
-52.95
-56.78
-57.88
-55.89
-50.55
-41.76
-29.67
-14.70
2.25
19.72
35.74
48.40
56.56
60.34
61.02
60.38
59.89
60.02
60.22
59.51
57.20
53.33
48.61
43.98
40.10
37.09
34.58
32.11
29.47
26.92
25.08
24.67
26.11
29.31
33.70
38.45
42.79
46.19
48.27
48.77
47.43
43.94
37.99
29.52
18.91
7.35
-3.44
-11.69
-15.79
-14.74
-8.39
2.28
15.37
28.47
39.50
47.02
49.98
48.06
41.54
31.00
17.13
0.85
-16.52
-32.91
-45.96
-54.17
-56.65
-53.58
-46.48
-38.11
-31.89
-33.00
-44.22
-63.73
-85.94
-103.76
-112.21
-110.04
-99.65
-85.78
-73.81
-68.78
-71.29
-80.20
-91.53
-99.64
-99.31
-87.79
-65.91
-37.92
-9.46
15.42
29.30
29.44
20.28
10.31
6.57
11.58
23.57
38.56
52.31
60.37
59.77
48.88
27.78
-1.04
-32.45
-59.87
-78.57
-85.25
-79.78
-64.48
-43.70
-22.66
-6.05
3.28
4.80
0.09
-7.85
-16.20
-22.68
-26.30
-27.45
-27.28
-27.21
-28.01
-30.16
-33.42
-37.29
-40.81
-42.90
-42.51
-39.05
-32.63
-23.96
-14.06
-3.83
5.91
14.61
21.94
28.08
33.33
37.87
41.60
43.73
42.80
36.96
24.98
7.29
-12.85
-30.82
-42.39
-45.35
-40.01
-28.76
-14.73
-0.14
14.34
30.21
48.50
68.24
86.38
99.38
105.10
103.79
98.09
91.73
89.23
93.02
102.25
113.26
121.58
123.76
118.43
106.75
84.75
54.34
22.82
-1.57
-15.89
-22.88
-27.61
-34.42
-45.40
-60.52
-76.52
-88.73
-92.53
-85.47
-68.03
-44.18
-21.10
-4.63
1.13
-3.75
-16.45
-31.21
-43.35
-50.87
-54.58
-57.06
-60.88
-67.61
-76.64
-85.35
-88.35
-81.05
-61.06
-29.68
7.49
41.88
64.47
68.87
54.42
25.68
-10.04
-44.79
-71.75
-86.40
-86.91
-70.54
-43.52
-14.90
7.98
21.98
28.38
30.83
32.48
34.23
34.72
31.82
26.91
22.52
21.05
23.01
26.24
26.96
21.80
9.91
-6.46
-21.91
-30.82
-29.91
-19.60
-3.49
13.67
28.22
38.20
43.85
47.70
52.53
59.93
69.40
78.59
84.47
84.48
77.98
66.40
52.79
39.97
29.51
21.32
14.15
6.69
-2.18
-11.86
-19.92
-23.36
-20.60
-12.28
-0.87
10.49
19.49
24.12
24.92
25.01
28.14
36.07
47.78
60.34
69.97
73.71
68.01
52.47
30.91
9.49
-6.79
-16.00
-19.33
-21.32
-28.01
-48.19
-87.01
-142.47
-206.19
-267.07
-314.41
-339.92
-340.86
-300.59
-220.04
-121.34
-33.41
28.00
63.49
81.12
88.45
88.05
79.14
58.10
25.13
-14.32
-52.30
-82.82
-103.79
-107.13
-89.16
-50.52
0.00
51.26
95.14
128.26
150.20
161.75
167.54
166.95
159.60
145.49
127.25
109.54
97.04
92.02
93.81
98.36
100.67
97.64
87.94
72.57
53.72
34.35
17.41
5.41
0.13
1.68
9.69
22.77
38.81
53.99
65.11
70.79
71.42
68.12
61.52
52.19
40.42
26.13
6.82
-19.03
-50.58
-85.15
-120.22
-154.37
-186.46
-214.91
-237.44
-254.72
-267.48
-276.02
-280.77
-283.24
-284.75
-284.22
-277.88
-243.10
-171.94
-77.50
14.94
86.52
132.39
157.49
169.51
173.64
171.05
157.70
131.32
95.20
57.18
25.04
2.55
-8.69
-8.24
3.87
24.52
49.15
72.40
88.68
92.59
81.01
54.91
19.14
-19.18
-51.68
-72.88
-81.66
-79.80
-70.25
-55.70
-38.50
-20.98
-5.31
6.23
13.08
16.22
18.23
21.84
28.94
39.36
51.25
62.08
69.33
71.45
68.58
62.80
54.70
46.49
39.86
35.49
33.15
32.12
31.31
29.76
26.93
22.73
17.76
12.66
8.24
5.33
4.50
5.75
8.43
11.60
14.31
16.21
17.19
17.51
17.59
17.72
17.92
17.87
17.22
15.73
13.63
11.28
9.11
7.43
6.32
5.59
4.87
3.83
2.28
0.41
-1.53
-3.25
-4.61
-5.69
-6.69
-7.83
-9.24
-10.86
-12.53
-14.10
-15.53
-16.91
-18.37
-20.00
-21.83
-23.69
-25.37
-26.57
-27.04
-26.60
-25.16
-22.82
-19.83
-16.58
-13.46
-10.76
-8.59
-6.84
-5.36
-4.03
-2.92
-2.16
-1.93
-2.20
-2.74
-3.17
-3.18
-2.69
-1.87
-1.00
-0.33
0.06
0.26
0.37
0.42
0.31
-0.13
-1.03
-2.34
-3.91
-5.52
-6.96
-8.11
-8.98
-9.65
-10.29
-11.06
-12.12
-13.54
-15.28
-17.25
-19.31
-21.31
-23.09
-24.42
-25.04
-24.68
-23.17
-20.56
-17.08
-13.13
-9.18
-5.57
-2.53
-0.04
2.01
3.76
5.32
6.69
7.83
8.65
9.12
9.29
9.27
9.16
9.05
8.95
8.78
8.48
8.01
7.44
6.86
6.41
6.17
6.09
6.05
5.81
5.24
4.30
3.15
2.01
1.03
0.26
-0.46
-1.30
-2.44
-3.86
-5.46
-7.11
-8.77
-10.44
-12.08
-13.51
-14.38
-14.29
-12.97
-10.45
-7.03
-3.22
0.52
3.90
6.79
9.22
11.19
12.69
13.72
14.28
14.49
14.47
14.38
14.29
14.21
14.07
13.81
13.40
12.81
12.13
11.44
10.81
10.27
9.83
9.42
8.94
8.31
7.51
6.69
5.98
5.48
5.12
4.75
4.13
3.13
1.80
0.32
-0.96
-1.85
-2.39
-2.82
-3.26
-3.64
-3.62
-2.74
-0.61
3.11
8.23
14.06
19.65
24.35
27.86
30.31
32.09
33.75
36.27
40.09
44.82
49.48
53.16
55.22
55.37
53.66
50.54
47.39
45.08
43.49
41.84
39.70
37.05
34.26
31.94
30.95
32.89
38.41
46.54
55.08
61.69
63.95
59.54
46.66
19.61
-20.20
-63.58
-99.08
-120.52
-128.10
-125.75
-118.13
-109.26
-101.48
-95.35
-90.61
-86.13
-80.56
-69.40
-48.46
-15.88
26.50
74.26
121.38
161.39
188.82
200.36
195.97
178.29
152.17
119.48
87.00
62.12
49.74
50.29
59.56
70.47
75.18
67.51
45.00
10.38
-30.26
-69.53
-101.24
-122.29
-132.94
-136.16
-135.93
-135.62
-136.66
-139.42
-143.85
-150.05
-158.27
-168.30
-179.12
-188.69
-194.51
-194.38
-188.06
-177.44
-166.07
-157.72
-154.72
-156.97
-161.83
-165.29
-163.25
-153.17
-134.52
-108.47
-76.98
-42.08
-5.57
30.95
65.87
97.84
125.77
148.76
166.01
176.83
180.81
178.21
170.18
158.54
145.62
133.61
123.77
116.22
110.38
105.52
101.20
97.42
93.87
90.64
88.05
86.12
84.25
81.61
77.50
71.75
64.90
57.08
49.68
44.88
44.16
47.38
53.22
60.28
67.82
75.82
82.68
87.52
89.75
87.65
78.34
59.42
30.49
-6.85
-49.92
-98.40
-149.76
-198.29
-236.84
-259.16
-261.66
-244.67
-212.96
-161.58
-100.39
-46.84
-11.43
8.39
20.94
32.01
42.29
49.10
49.53
40.64
23.87
4.23
-13.05
-25.33
-32.85
-37.61
-42.10
-45.34
-48.32
-50.26
-49.14
-43.92
-35.64
-26.91
-20.03
-15.84
-13.53
-12.69
-11.85
-9.24
-4.17
2.50
9.10
14.32
17.83
20.14
21.36
22.05
23.02
24.64
26.71
28.64
29.92
30.39
30.16
29.11
27.36
25.21
22.93
20.68
18.58
16.78
15.52
14.93
14.89
15.13
15.31
15.19
14.66
13.74
12.54
11.13
9.55
7.80
5.92
4.03
2.29
0.83
-0.33
-1.29
-2.21
-3.26
-4.53
-6.02
-7.65
-9.22
-10.43
-10.91
-10.35
-8.58
-5.72
-2.10
1.76
5.40
8.53
11.04
12.99
14.42
15.30
15.54
15.13
14.11
12.68
11.10
9.59
8.29
7.22
6.39
5.76
5.26
4.84
4.42
3.93
3.37
2.79
2.24
1.76
1.31
0.78
0.08
-0.83
-1.91
-3.03
-4.07
-4.95
-5.64
-6.20
-6.70
-7.25
-7.88
-8.64
-9.49
-10.39
-11.17
-11.61
-11.48
-10.55
-8.76
-6.20
-3.11
0.20
3.46
6.41
8.88
10.74
11.91
12.40
12.33
11.90
11.31
10.74
10.24
9.78
9.32
8.86
8.45
8.17
8.02
7.96
7.89
7.68
7.27
6.66
5.93
5.15
4.37
3.59
2.75
1.79
0.69
-0.49
-1.66
-2.74
-3.66
-4.46
-5.17
-5.86
-6.60
-7.48
-8.55
-9.86
-11.31
-12.62
-13.40
-13.18
-11.68
-8.89
-5.17
-1.10
2.72
5.83
8.01
9.32
9.90
9.93
9.54
8.83
7.88
6.85
5.93
5.29
5.00
5.02
5.14
5.12
4.71
3.86
2.67
1.35
0.19
-0.67
-1.26
-1.78
-2.50
-3.61
-5.09
-6.71
-8.15
-9.10
-9.49
-9.43
-9.25
-9.28
-9.79
-10.86
-12.39
-14.17
-15.94
-17.40
-18.25
-18.18
-16.92
-14.34
-10.55
-5.95
-1.12
3.34
6.95
9.56
11.23
12.18
12.65
12.79
12.63
12.15
11.37
10.38
9.32
8.35
7.58
7.05
6.75
6.59
6.45
6.22
5.80
5.18
4.42
3.65
2.97
2.43
1.98
1.51
0.88
0.07
-0.85
-1.74
-2.47
-3.03
-3.53
-4.11
-4.90
-5.95
-7.27
-8.81
-10.52
-12.30
-13.91
-14.98
-15.04
-13.77
-11.08
-7.28
-2.95
1.28
4.88
7.60
9.46
10.60
11.24
11.47
11.38
10.96
10.26
9.34
8.29
7.24
6.29
5.50
4.89
4.40
3.91
3.34
2.63
1.79
0.88
0.01
-0.76
-1.45
-2.11
-2.82
-3.67
-4.70
-5.86
-7.09
-8.27
-9.30
-10.10
-10.66
-11.09
-11.54
-12.21
-13.21
-14.56
-16.11
-17.58
-18.61
-18.83
-17.95
-15.80
-12.46
-8.25
-3.74
0.47
3.86
6.22
7.61
8.30
8.57
8.53
8.20
7.50
6.54
5.58
4.96
4.94
5.51
6.40
7.18
7.48
7.16
6.32
5.24
4.25
3.55
3.13
2.86
2.55
2.05
1.36
0.55
-0.24
-0.94
-1.54
-2.14
-2.83
-3.65
-4.56
-5.50
-6.34
-7.06
-7.70
-8.40
-9.33
-10.61
-12.16
-13.70
-14.74
-14.76
-13.40
-10.62
-6.71
-2.22
2.25
6.24
9.50
11.97
13.71
14.78
15.25
15.16
14.58
13.69
12.69
11.78
11.09
10.58
10.12
9.54
8.73
7.71
6.65
5.79
5.32
5.29
5.58
5.95
6.08
5.80
5.05
3.97
2.80
1.76
1.00
0.49
0.10
-0.39
-1.09
-2.05
-3.20
-4.36
-5.37
-6.12
-6.58
-6.84
-7.06
-7.41
-8.06
-9.06
-10.42
-12.02
-13.58
-14.73
-15.05
-14.18
-11.96
-8.50
-4.24
0.22
4.27
7.48
9.68
10.96
11.50
11.52
11.13
10.42
9.48
8.43
7.47
6.73
6.30
6.09
5.96
5.76
5.43
4.99
4.51
4.03
3.54
3.00
2.39
1.71
1.03
0.38
-0.25
-0.89
-1.59
-2.32
-3.07
-3.76
-4.39
-4.93
-5.41
-5.81
-6.16
-6.50
-6.91
-7.51
-8.43
-9.71
-11.20
-12.64
-13.62
-13.72
-12.63
-10.28
-6.90
-2.93
1.08
4.73
7.79
10.20
12.04
13.34
14.07
14.18
13.75
12.97
12.26
11.94
12.15
12.83
13.78
14.79
15.74
16.61
17.39
18.13
18.72
19.04
19.08
19.10
19.36
20.11
21.38
22.95
24.59
25.89
26.56
26.57
26.33
26.27
26.71
27.79
29.22
30.79
32.14
32.94
33.02
32.56
31.60
30.26
28.83
26.62
24.30
22.85
22.43
22.03
20.64
17.73
13.85
10.41
8.38
8.59
10.97
14.69
17.47
19.19
19.81
19.35
18.03
15.41
11.75
7.69
4.05
1.58
0.65
0.35
-1.54
-3.02
-4.83
-7.59
-11.55
-16.63
-22.51
-28.65
-34.64
-40.01
-44.08
-46.97
-48.64
-49.31
-49.48
-49.66
-50.16
-51.17
-52.49
-53.58
-54.14
-53.42
-50.64
-45.36
-37.69
-28.42
-18.71
-9.73
-2.10
3.79
8.24
11.74
14.72
17.32
19.46
21.04
21.99
22.44
22.42
22.03
21.40
20.59
19.62
18.45
17.03
15.26
13.11
10.57
7.77
4.87
2.02
-0.75
-3.53
-6.37
-9.29
-12.18
-14.79
-16.92
-18.43
-19.49
-20.42
-21.75
-23.95
-27.19
-31.20
-35.18
-38.04
-38.65
-36.32
-31.05
-23.55
-14.98
-6.55
0.85
6.84
11.43
14.84
17.28
18.88
19.68
19.83
19.58
19.34
19.49
20.30
21.77
23.64
25.46
26.75
27.17
26.64
25.35
23.66
21.93
20.31
18.73
16.89
14.48
11.36
7.61
3.54
-0.53
-4.43
-8.19
-11.95
-15.79
-19.63
-23.31
-26.66
-29.70
-32.50
-35.05
-37.04
-37.82
-36.65
-33.02
-27.04
-19.44
-11.36
-3.93
2.12
6.58
9.65
11.67
12.86
13.27
12.91
11.85
10.39
8.99
8.11
8.02
8.68
9.73
10.71
11.15
10.85
9.83
8.27
6.42
4.46
2.54
0.69
-1.05
-2.69
-4.22
-5.69
-7.16
-8.66
-10.20
-11.72
-13.19
-14.59
-15.96
-17.40
-19.06
-21.13
-23.70
-26.78
-30.13
-33.26
-35.37
-35.57
-33.19
-28.04
-20.65
-12.14
-3.87
3.02
7.89
10.75
11.95
11.95
11.05
9.39
7.12
4.46
1.82
-0.35
-1.73
-2.30
-2.43
-2.56
-2.95
-3.73
-5.01
-6.79
-9.06
-11.76
-14.75
-17.97
-21.21
-24.21
-26.84
-29.34
-32.13
-35.63
-39.96
-44.91
-50.26
-55.48
-60.07
-64.02
-67.97
-72.88
-79.43
-87.62
-96.69
-106.18
-114.79
-120.68
-122.73
-121.21
-117.47
-113.02
-108.86
-104.97
-102.15
-99.29
-94.09
-85.66
-76.08
-69.22
-68.41
-74.45
-84.81
-97.04
-105.38
-102.33
-83.01
-48.15
-3.48
41.96
77.61
93.39
79.58
35.74
-27.26
-92.60
-144.53
-172.87
-174.96
-155.29
-99.10
-15.11
69.79
134.38
175.64
199.53
210.67
210.40
199.48
180.76
158.06
137.64
127.55
132.55
151.41
178.31
205.98
227.83
231.28
208.08
160.68
101.58
45.97
4.77
-18.39
-26.18
-24.81
-20.51
-17.56
-15.72
-10.99
-1.13
13.07
28.79
43.11
54.15
61.50
62.52
58.55
52.43
46.38
41.37
37.01
31.88
24.36
13.82
1.57
-8.68
-12.20
-6.86
7.29
27.32
47.55
60.92
61.77
48.64
25.83
0.71
-19.41
-29.90
-30.45
-24.74
-18.23
-15.24
-17.63
-24.52
-35.52
-51.82
-75.08
-101.60
-121.87
-126.87
-114.60
-91.60
-67.87
-52.85
-50.09
-55.24
-60.73
-59.65
-49.20
-31.05
-9.04
15.84
43.19
72.64
103.69
135.12
164.67
189.19
205.96
204.16
180.73
141.43
97.57
59.16
30.81
12.13
-0.35
-10.80
-22.07
-33.16
-41.68
-45.67
-44.76
-40.21
-34.27
-29.37
-27.42
-29.02
-32.62
-36.39
-39.16
-40.56
-40.71
-39.82
-38.12
-35.98
-33.81
-31.20
-28.02
-24.67
-21.81
-20.02
-19.46
-19.91
-21.04
-22.89
-24.97
-26.91
-28.55
-29.75
-30.28
-29.99
-28.99
-27.72
-26.94
-27.22
-29.00
-32.45
-37.47
-43.79
-51.04
-58.67
-65.98
-72.11
-76.16
-77.59
-76.24
-72.21
-65.99
-58.23
-49.62
-40.78
-32.24
-24.49
-17.90
-12.54
-7.73
-2.83
2.40
7.81
13.07
17.94
22.35
26.38
30.52
36.41
45.08
56.44
69.53
83.06
95.93
107.30
116.60
123.89
131.00
138.76
146.60
153.20
157.56
159.67
160.16
159.66
158.84
159.73
162.17
164.20
163.30
157.73
147.33
133.03
116.03
85.61
40.31
-12.24
-59.72
-93.98
-114.33
-124.07
-126.60
-125.78
-122.87
-115.86
-104.42
-89.43
-72.07
-54.59
-38.05
-22.93
-12.91
-10.47
-9.26
-7.37
-8.17
-13.75
-24.66
-39.36
-55.26
-69.90
-81.00
-86.61
-87.53
-85.56
-82.26
-78.75
-75.13
-71.07
-66.34
-60.65
-53.74
-46.76
-40.79
-36.25
-33.15
-31.06
-29.54
-28.38
-27.16
-25.36
-22.96
-19.85
-15.82
-11.03
-5.92
-1.11
2.86
5.92
8.31
10.10
11.43
12.44
13.16
13.57
13.61
13.29
12.80
12.34
11.99
11.85
11.98
12.40
12.93
13.34
13.35
13.00
12.48
12.00
11.63
11.26
10.67
9.67
8.19
6.37
4.92
4.45
5.06
6.30
7.52
8.23
8.20
7.41
5.95
4.81
4.86
6.31
8.77
11.65
14.58
17.28
19.41
20.55
21.80
24.20
27.98
32.66
37.62
42.69
47.85
52.89
57.37
62.69
70.26
80.62
93.40
108.08
124.53
142.85
163.07
173.03
164.64
137.60
98.82
56.25
14.92
-22.17
-52.86
-75.76
-91.04
-98.77
-100.68
-99.92
-99.21
-99.79
-101.13
-101.99
-101.59
-100.12
-97.20
-91.51
-83.50
-74.51
-65.59
-56.56
-46.31
-33.57
-17.68
1.72
23.36
43.86
58.78
64.48
59.96
47.55
32.34
20.29
16.25
21.53
33.01
44.69
50.39
46.46
32.93
13.10
-8.15
-26.30
-38.92
-46.17
-49.85
-52.58
-55.49
-58.96
-62.64
-65.57
-66.27
-63.10
-54.72
-40.68
-21.90
-0.90
18.56
32.73
39.13
37.46
29.57
18.68
8.25
0.91
-2.04
-0.61
4.74
12.50
21.26
29.61
35.87
38.18
35.09
26.49
13.99
0.04
-12.72
-22.44
-28.61
-31.79
-32.83
-32.12
-29.26
-23.37
-13.85
-1.09
13.25
26.56
35.99
39.20
35.24
24.80
10.10
-5.77
-19.80
-30.31
-37.18
-41.62
-45.02
-47.93
-49.56
-47.81
-40.73
-27.89
-10.77
8.21
26.53
42.33
54.62
61.44
61.99
57.47
50.63
42.62
34.15
25.86
19.04
14.70
13.12
14.01
16.46
19.05
20.23
19.16
15.56
9.71
2.06
-6.77
-15.82
-24.12
-31.01
-36.34
-40.34
-43.71
-47.55
-53.18
-61.59
-72.91
-86.31
-100.27
-112.93
-122.51
-127.72
-128.05
-123.70
-115.20
-103.00
-87.43
-68.91
-48.12
-26.12
-4.27
16.03
33.75
48.48
60.52
70.57
79.47
87.90
96.44
105.52
115.41
125.97
136.57
146.27
154.17
159.85
163.71
166.78
170.20
174.65
179.90
184.91
188.33
188.93
186.11
179.85
170.52
158.55
144.20
127.56
108.79
88.28
66.91
45.90
26.53
9.71
-4.46
-16.72
-28.24
-39.93
-51.83
-63.12
-72.58
-79.35
-83.57
-86.25
-88.69
-91.62
-94.77
-97.03
-97.23
-95.01
-91.14
-87.24
-84.91
-84.92
-86.89
-89.60
-91.76
-92.84
-93.21
-93.79
-95.48
-98.68
-103.30
-109.01
-115.58
-123.01
-131.51
-140.99
-150.75
-159.60
-166.38
-170.52
-172.32
-172.78
-172.97
-173.82
-175.03
-174.99
-171.32
-162.08
-146.77
-126.58
-103.88
-81.00
-60.20
-42.05
-25.33
-7.94
11.43
32.35
52.89
70.60
84.03
91.82
94.24
93.15
90.98
89.31
88.30
87.37
86.03
84.75
82.46
78.08
71.01
61.19
48.45
32.43
13.05
-9.39
-24.37
-25.06
-12.00
7.70
27.24
43.93
58.02
70.56
79.72
87.35
92.71
94.71
93.30
89.56
84.82
79.77
75.83
73.38
72.57
71.23
67.20
59.63
49.47
38.60
28.71
20.76
14.67
10.32
6.76
3.89
2.88
5.36
11.91
21.19
30.29
35.92
36.11
30.08
18.79
4.40
-10.64
-24.48
-36.13
-45.32
-52.17
-56.82
-59.69
-61.21
-61.56
-60.55
-57.60
-51.99
-43.22
-31.45
-17.69
-3.55
9.25
19.62
27.37
33.21
38.10
42.73
47.13
50.83
53.36
54.66
55.20
55.64
56.41
57.44
58.23
58.27
57.28
55.33
52.61
49.16
44.80
39.21
32.24
24.13
15.62
7.72
1.50
-2.26
-3.23
-1.62
1.95
6.67
11.64
16.07
19.26
20.72
20.22
17.86
14.02
9.07
3.00
-4.70
-14.87
-28.04
-43.86
-60.77
-76.38
-88.33
-95.24
-97.25
-95.78
-92.66
-89.34
-86.46
-84.04
-82.00
-80.43
-79.51
-79.05
-78.25
-75.80
-70.46
-61.81
-50.57
-38.49
-27.56
-19.26
-14.10
-11.73
-11.43
-12.56
-14.70
-17.38
-19.93
-21.44
-21.11
-18.73
-14.91
-10.88
-7.96
-6.87
-7.45
-8.77
-9.67
-9.31
-7.49
-4.52
-0.87
3.15
7.55
12.46
17.86
23.40
28.45
32.39
34.93
36.28
37.00
37.64
38.37
38.90
38.54
36.66
32.93
27.51
20.86
13.43
5.53
-2.65
-10.77
-18.13
-23.70
-26.50
-26.08
-22.84
-18.07
-13.51
-10.82
-11.12
-14.75
-21.25
-29.54
-38.12
-45.45
-50.22
-51.60
-49.34
-43.71
-35.31
-24.84
-13.05
-0.68
11.49
22.63
32.02
39.17
43.94
46.57
47.53
47.43
46.86
46.24
45.72
45.12
44.02
42.01
38.95
35.10
30.98
27.09
23.58
20.24
16.65
12.59
8.15
3.70
-0.40
-4.08
-7.55
-11.08
-14.64
-17.73
-19.55
-19.43
-17.26
-13.60
-9.52
-5.97
-3.44
-1.83
-0.59
0.80
2.61
4.78
7.14
9.63
12.35
15.59
19.53
24.14
29.07
33.71
37.42
39.85
41.07
41.65
42.46
44.33
47.63
52.08
56.85
60.93
63.57
64.54
64.15
62.96
61.44
59.82
57.99
55.60
52.11
46.94
39.62
29.92
18.04
4.50
-10.03
-24.99
-40.11
-55.43
-70.95
-86.45
-101.13
-113.78
-123.09
-128.15
-128.86
-126.07
-121.37
-116.50
-112.90
-111.27
-111.47
-112.61
-113.28
-111.92
-107.16
-98.37
-85.90
-71.06
-55.75
-41.64
-29.69
-19.86
-11.50
-3.92
3.25
9.95
16.01
21.31
25.80
29.28
31.28
31.27
29.16
25.64
22.16
20.51
22.17
27.93
37.65
50.47
64.90
79.11
91.12
99.25
102.49
100.77
95.03
86.73
77.52
68.65
60.97
55.00
50.97
48.87
48.39
48.92
49.83
50.71
51.54
52.59
54.11
55.94
57.41
57.56
55.54
50.94
43.90
34.94
24.69
13.66
2.12
-9.89
-22.45
-35.56
-48.98
-61.94
-73.30
-81.77
-86.39
-86.96
-84.12
-79.17
-73.53
-68.29
-63.99
-60.67
-58.05
-55.65
-52.85
-48.94
-43.32
-35.84
-27.07
-18.25
-11.01
-6.74
-6.08
-8.74
-13.71
-19.72
-25.84
-31.65
-37.29
-42.99
-48.69
-53.80
-57.25
-57.84
-54.76
-48.06
-38.76
-28.60
-19.40
-12.35
-7.53
-3.96
-0.25
4.50
10.06
15.08
17.75
16.87
12.68
7.02
2.69
2.26
6.95
16.07
27.20
37.16
43.14
43.71
39.11
30.93
21.33
12.27
5.04
0.40
-1.18
0.77
6.44
15.26
25.47
34.46
39.69
39.91
36.07
31.00
28.19
30.15
37.18
47.44
57.87
65.61
69.02
67.90
62.97
55.25
45.66
35.10
24.79
16.31
11.49
11.91
18.26
29.93
45.06
60.90
74.57
83.76
87.25
85.10
78.39
68.76
57.68
46.01
33.86
20.83
6.61
-8.48
-23.28
-36.05
-45.16
-49.83
-50.59
-49.05
-47.23
-46.61
-47.57
-49.39
-50.83
-50.98
-49.76
-47.89
-46.34
-45.74
-46.03
-46.57
-46.62
-45.64
-43.42
-39.81
-34.56
-27.29
-17.77
-6.38
5.83
17.30
26.65
33.05
36.45
37.36
36.54
34.55
31.74
28.40
24.93
22.04
20.41
20.39
21.76
23.74
25.21
25.12
22.75
17.99
11.53
4.44
-1.99
-6.59
-8.36
-6.76
-1.88
5.34
13.18
20.00
24.12
24.46
20.96
15.04
9.01
5.34
5.46
9.28
16.42
25.57
35.04
43.51
50.60
56.52
61.79
66.28
69.42
72.11
74.98
78.05
80.77
82.70
83.24
82.31
79.53
74.58
69.50
65.72
63.47
62.13
61.39
61.23
62.34
64.66
55.53
29.21
-10.23
-52.09
-87.68
-111.18
-125.49
-132.58
-134.15
-132.28
-126.84
-119.35
-112.60
-109.29
-110.35
-115.12
-120.93
-125.01
-124.97
-115.04
-93.32
-63.48
-32.63
-6.55
11.87
23.08
28.65
30.52
31.41
32.80
35.03
37.42
38.62
36.40
28.87
14.86
-4.56
-25.54
-43.60
-55.22
-59.18
-56.71
-51.06
-43.85
-35.69
-26.20
-15.02
-3.52
5.44
8.79
5.23
-3.65
-13.75
-20.51
-20.90
-14.77
-4.79
5.29
12.60
16.33
17.61
18.35
20.09
23.41
28.07
32.49
35.52
36.46
35.26
32.47
28.67
24.58
20.91
18.05
15.93
14.12
12.22
10.12
8.07
6.06
3.98
1.66
-1.34
-5.66
-11.77
-19.79
-29.33
-39.64
-50.36
-60.89
-70.40
-78.08
-83.59
-87.07
-88.87
-89.35
-85.21
-75.49
-62.02
-47.81
-34.51
-22.14
-10.34
0.50
9.07
13.72
13.32
8.67
2.43
-1.93
-2.01
2.74
10.77
19.89
28.03
34.04
37.82
39.86
40.83
40.91
39.90
37.47
33.55
28.24
22.63
18.32
14.60
11.22
7.67
3.51
-1.48
-7.16
-12.95
-16.59
-15.21
-6.66
9.87
33.44
62.13
93.57
125.52
148.90
156.11
145.25
120.83
89.66
56.77
25.26
-2.71
-25.39
-41.84
-51.07
-53.47
-51.35
-48.37
-47.93
-52.05
-60.95
-73.32
-87.07
-99.08
-106.68
-108.61
-105.23
-98.01
-88.75
-79.25
-70.33
-63.46
-59.14
-56.98
-56.11
-55.59
-54.57
-52.26
-48.07
-41.68
-33.33
-23.40
-12.67
-2.31
6.51
13.32
18.60
23.46
28.84
34.56
39.38
41.42
39.05
31.91
21.20
9.27
-1.38
-8.99
-13.11
-14.34
-13.91
-13.15
-13.16
-14.56
-17.40
-21.08
-24.40
-25.98
-24.76
-20.60
-14.56
-8.42
-3.90
-1.71
-1.10
-0.05
3.85
12.45
26.23
44.10
63.81
82.66
98.23
108.99
114.66
116.19
115.37
114.14
113.83
114.62
115.44
114.38
109.34
98.77
82.27
60.72
36.15
11.20
-11.42
-29.56
-41.87
-47.84
-47.77
-42.55
-33.57
-22.55
-11.36
-1.63
5.64
10.38
13.38
15.87
18.94
23.13
28.34
34.07
39.77
45.02
49.61
53.49
56.59
58.85
60.28
60.96
61.03
60.64
59.88
58.61
56.52
53.20
48.42
42.34
35.72
29.65
25.20
22.87
22.38
22.81
23.02
22.22
20.26
17.52
14.59
11.82
9.14
6.16
2.47
-2.09
-7.37
-13.08
-19.02
-25.09
-31.26
-37.35
-43.09
-48.24
-52.95
-58.03
-64.92
-75.13
-89.36
-106.92
-125.51
-142.00
-153.43
-158.11
-156.03
-148.65
-138.14
-126.53
-115.21
-104.88
-95.79
-88.01
-81.66
-76.97
-74.26
-73.77
-75.43
-78.62
-82.11
-84.33
-83.86
-79.84
-72.25
-61.73
-49.40
-36.53
-24.42
-14.18
-6.40
-0.72
4.48
11.75
23.58
40.99
62.56
84.63
102.59
112.77
113.84
107.06
95.53
82.79
71.56
63.23
57.87
54.72
52.77
51.11
49.27
47.18
45.11
43.53
43.00
44.06
47.12
52.39
59.53
67.88
76.27
83.31
87.78
89.17
87.89
84.97
81.50
77.92
74.05
68.91
60.69
47.32
27.06
-0.52
-34.14
-70.70
-106.20
-136.21
-157.31
-168.07
-168.92
-161.48
-147.51
-128.57
-106.13
-82.15
-58.35
-36.16
-16.47
-0.24
10.90
16.19
16.17
14.41
11.20
6.24
-0.14
-8.21
-16.72
-24.15
-29.22
-31.48
-31.30
-29.87
-27.85
-25.39
-22.41
-18.53
-13.52
-7.18
0.46
9.13
18.15
27.23
36.25
45.06
53.46
61.00
67.19
71.61
74.07
74.53
73.44
71.42
68.88
65.99
62.65
58.73
54.26
49.50
44.76
40.39
36.56
33.21
30.14
27.14
24.14
21.18
18.32
15.51
12.65
9.64
6.46
3.28
0.36
-2.10
-4.06
-5.62
-6.97
-8.27
-9.59
-10.97
-12.51
-14.36
-16.68
-19.47
-22.49
-25.27
-27.37
-28.46
-28.53
-27.79
-26.49
-24.86
-22.99
-20.95
-18.86
-16.89
-15.24
-14.06
-13.35
-12.99
-12.85
-12.80
-12.78
-12.79
-12.80
-12.81
-12.84
-12.97
-13.31
-13.99
-15.05
-16.41
-17.86
-19.16
-20.15
-20.73
-20.91
-20.67
-20.05
-19.10
-18.00
-17.03
-16.51
-16.58
-17.13
-17.72
-17.80
-16.94
-15.04
-12.40
-9.54
-6.97
-5.02
-3.70
-2.82
-2.07
-1.14
0.17
1.97
4.11
6.29
8.00
8.68
7.86
5.31
1.13
-4.29
-10.27
-16.08
-20.99
-24.50
-26.40
-26.93
-26.59
-26.09
-25.98
-26.47
-27.30
-27.79
-27.12
-24.56
-19.79
-12.93
-4.49
4.75
14.01
22.69
30.43
37.10
42.70
47.25
50.71
53.05
54.30
54.59
54.15
53.23
52.01
50.52
48.73
46.54
43.90
40.86
37.55
34.15
30.91
28.01
25.58
23.56
21.70
19.54
16.66
12.85
8.36
3.85
0.12
-2.20
-3.02
-2.80
-2.35
-2.41
-3.39
-5.21
-7.44
-9.56
-11.21
-12.23
-12.68
-12.67
-12.28
-11.49
-10.23
-8.38
-5.90
-2.86
0.52
3.91
6.98
9.48
11.33
12.54
13.21
13.36
12.99
12.09
10.71
8.95
6.87
4.43
1.43
-2.35
-7.02
-12.37
-17.84
-22.72
-26.31
-28.22
-28.43
-27.24
-25.11
-22.44
-19.52
-16.49
-13.49
-10.66
-8.28
-6.60
-5.78
-5.75
-6.23
-6.82
-7.10
-6.80
-5.86
-4.44
-2.76
-1.14
0.16
0.94
1.08
0.57
-0.44
-1.68
-2.77
-3.36
-3.27
-2.55
-1.44
-0.26
0.75
1.50
2.02
2.36
2.53
2.53
2.34
2.06
1.77
1.58
1.46
1.32
1.07
0.68
0.25
-0.11
-0.30
-0.35
-0.33
-0.28
-0.18
0.08
0.55
1.18
1.71
1.88
1.46
0.44
-1.00
-2.55
-3.96
-5.12
-6.07
-6.97
-7.94
-9.05
-10.27
-11.51
-12.62
-13.45
-13.87
-13.71
-12.91
-11.51
-9.72
-7.82
-6.08
-4.68
-3.62
-2.85
-2.35
-2.14
-2.28
-2.76
-3.46
-4.16
-4.70
-5.02
-5.23
-5.43
-5.68
-5.94
-6.17
-6.36
-6.64
-7.14
-7.89
-8.79
-9.60
-10.11
-10.23
-10.04
-9.66
-9.22
-8.76
-8.26
-7.71
-7.16
-6.63
-6.15
-5.68
-5.14
-4.44
-3.50
-2.27
-0.78
0.93
2.76
4.62
6.42
8.14
9.75
11.24
12.52
13.48
13.97
13.93
13.39
12.54
11.61
10.79
10.17
9.73
9.39
9.02
8.56
7.99
7.36
6.73
6.14
5.59
5.04
4.43
3.73
2.98
2.24
1.61
1.12
0.72
0.24
-0.49
-1.57
-2.94
-4.40
-5.72
-6.73
-7.44
-8.00
-8.57
-9.27
-10.02
-10.64
-10.97
-10.92
-10.57
-10.08
-9.59
-9.13
-8.63
-7.97
-7.07
-5.93
-4.67
-3.39
-2.20
-1.16
-0.30
0.37
0.83
1.03
0.92
0.43
-0.46
-1.71
-3.20
-4.73
-6.09
-7.07
-7.60
-7.70
-7.48
-7.10
-6.61
-5.96
-5.07
-3.85
-2.35
-0.76
0.72
1.98
3.09
4.22
5.53
7.08
8.70
10.15
11.27
12.05
12.68
13.47
14.61
16.14
17.87
19.50
20.74
21.37
21.33
20.65
19.44
17.84
15.92
13.74
11.26
8.52
5.62
2.73
0.01
-2.46
-4.70
-6.81
-8.84
-10.74
-12.26
-13.05
-12.82
-11.41
-8.85
-5.32
-1.01
3.85
9.02
14.21
19.03
23.08
25.99
27.68
28.44
28.85
29.53
30.93
33.24
36.36
39.85
42.97
45.05
45.80
45.42
44.45
43.54
43.22
43.77
44.93
45.99
46.31
45.78
44.76
43.63
42.53
41.32
39.65
36.80
31.69
23.30
11.24
-4.16
-21.94
-40.74
-59.10
-74.49
-83.58
-85.05
-81.07
-75.54
-71.20
-68.65
-66.93
-64.63
-60.58
-54.56
-47.36
-40.28
-34.47
-30.60
-28.85
-28.87
-29.84
-30.73
-30.92
-30.53
-30.09
-30.00
-30.26
-30.66
-30.96
-30.94
-30.29
-28.55
-25.12
-19.37
-10.98
-0.30
11.39
22.28
30.83
36.38
39.30
40.41
40.58
39.83
37.82
34.06
28.45
21.50
14.12
7.30
1.61
-2.92
-6.58
-9.59
-11.89
-13.22
-13.37
-12.54
-11.29
-10.35
-10.35
-11.46
-13.36
-15.53
-17.51
-19.14
-20.59
-22.02
-23.48
-24.99
-26.50
-27.72
-27.96
-26.04
-19.88
-8.94
5.99
22.75
38.31
49.88
56.02
57.00
54.42
50.30
46.05
42.48
39.89
38.50
38.54
40.11
42.69
44.98
45.12
41.27
32.70
20.14
5.79
-7.55
-17.41
-22.62
-23.57
-21.96
-19.97
-19.24
-20.31
-22.59
-24.95
-26.29
-26.19
-24.95
-23.34
-22.12
-21.64
-21.87
-22.27
-22.39
-22.06
-21.32
-20.31
-19.13
-17.74
-15.96
-13.63
-10.68
-7.27
-3.67
-0.21
2.74
4.91
6.14
6.37
5.71
4.40
2.85
1.55
0.89
0.99
1.63
2.33
2.57
2.06
0.88
-0.54
-1.64
-2.01
-1.51
-0.35
1.06
2.20
2.60
1.94
0.20
-2.27
-4.89
-6.98
-8.06
-7.99
-6.93
-5.21
-3.33
-1.68
-0.45
0.31
0.62
0.56
0.20
-0.30
-0.68
-0.65
-0.01
1.20
2.73
4.13
5.01
5.13
4.50
3.43
2.36
1.82
2.21
3.73
6.23
9.29
12.36
14.87
16.35
16.51
15.30
12.88
9.63
5.97
2.39
-0.82
-3.56
-6.02
-8.64
-11.93
-16.27
-21.70
-27.84
-33.88
-38.78
-41.56
-41.63
-38.97
-34.12
-28.01
-21.67
-16.00
-11.50
-8.31
-6.19
-4.71
-3.45
-2.19
-1.00
-0.20
-0.23
-1.46
-4.11
-8.18
-13.47
-19.54
-25.70
-31.04
-34.61
-35.71
-34.17
-30.45
-25.43
-20.12
-15.21
-10.94
-7.11
-3.30
0.98
6.11
12.29
19.51
27.48
35.63
43.27
49.76
54.74
58.12
60.10
60.95
60.88
59.97
58.24
55.71
52.46
48.57
44.00
38.60
32.19
24.73
16.40
7.76
-0.32
-6.71
-10.39
-10.73
-7.76
-2.15
4.96
12.31
18.92
24.20
28.08
30.59
31.72
31.37
29.52
26.48
22.93
19.66
17.16
15.53
14.13
11.81
7.56
1.10
-6.94
-15.34
-22.83
-28.62
-32.02
-32.88
-31.52
-28.43
-24.07
-18.85
-13.34
-8.32
-4.66
-2.23
-0.66
0.40
1.23
2.25
3.90
6.49
9.95
13.89
18.75
24.77
31.72
39.09
46.55
54.18
62.45
72.17
77.88
76.79
69.65
59.39
47.62
33.70
16.45
-3.96
-25.49
-45.24
-59.91
-68.15
-71.22
-71.72
-71.55
-71.28
-70.52
-68.63
-65.49
-60.92
-55.36
-49.68
-44.63
-40.42
-36.61
-32.83
-28.93
-25.15
-21.47
-18.05
-15.27
-13.52
-12.98
-13.48
-14.69
-16.25
-17.99
-19.71
-21.34
-22.85
-24.03
-24.53
-23.94
-22.10
-19.13
-15.47
-11.47
-7.40
-3.40
0.44
3.90
6.70
8.54
9.37
9.48
9.36
9.53
10.19
11.25
12.40
13.36
14.07
14.67
15.39
16.33
17.38
18.23
18.62
18.40
17.64
16.56
15.41
14.37
13.51
12.78
12.06
11.26
10.36
9.41
8.59
8.02
7.76
7.73
7.68
7.37
6.67
5.64
4.56
3.69
3.13
2.76
2.24
1.27
-0.24
-2.09
-3.82
-4.96
-5.27
-4.92
-4.36
-4.18
-4.74
-6.01
-7.53
-8.64
-8.81
-7.90
-6.12
-3.96
-1.89
-0.18
1.13
2.15
3.00
3.69
4.17
4.37
4.30
4.06
3.79
3.61
3.55
3.59
3.68
3.77
3.81
3.82
3.78
3.70
3.51
3.17
2.69
2.15
1.72
1.54
1.66
1.96
2.21
2.16
1.63
0.63
-0.74
-2.29
-3.86
-5.30
-6.56
-7.64
-8.54
-9.36
-10.14
-10.89
-11.50
-11.76
-11.41
-10.34
-8.58
-6.36
-3.94
-1.53
0.81
3.05
5.16
7.03
8.45
9.28
9.48
9.19
8.62
7.93
7.16
6.22
5.00
3.51
1.86
0.27
-1.02
-1.91
-2.42
-2.71
-2.97
-3.43
-4.17
-5.15
-6.19
-7.00
-7.28
-6.88
-5.79
-4.17
-2.25
-0.11
2.29
5.20
8.93
13.72
19.66
26.63
34.29
42.07
49.26
55.07
58.79
59.93
58.33
54.21
48.13
40.80
32.91
24.98
17.28
9.88
2.73
-4.18
