1595970459.00
64.000000
-0.00
-0.00
-0.00
-0.00
-0.00
-0.00
-0.00
-0.00
-0.00
-0.00
0.00
0.01
0.01
-0.00
-0.03
-0.05
-0.05
0.00
0.13
0.36
0.66
1.01
1.37
1.72
2.06
2.40
2.79
3.24
3.80
4.42
5.06
5.66
6.20
6.68
7.15
7.68
8.31
9.14
10.09
11.04
11.88
12.56
13.14
13.76
14.65
15.96
17.91
20.32
22.90
25.38
27.58
29.57
31.68
34.32
37.81
42.54
48.15
54.10
59.83
64.97
69.58
74.14
79.34
85.71
93.76
103.00
112.62
121.73
129.77
136.75
143.30
150.75
157.77
166.64
177.95
191.79
206.97
220.57
228.25
225.36
208.53
176.87
132.76
80.05
23.07
-34.94
-92.44
-149.16
-205.23
-260.37
-313.74
-363.87
-409.83
-450.91
-486.50
-515.74
-537.23
-549.22
-549.96
-538.37
-514.21
-478.67
-433.88
-382.45
-327.02
-269.84
-212.63
-156.66
-102.95
-52.37
-5.90
35.58
71.43
101.35
125.50
144.38
158.69
169.15
176.37
180.75
182.57
182.07
179.51
175.23
169.65
163.18
156.15
148.81
141.30
133.69
126.02
118.33
110.69
103.16
95.80
88.68
81.82
75.24
68.95
62.96
57.28
51.89
46.80
42.00
37.47
33.24
29.31
25.71
22.44
19.51
16.86
14.45
12.22
10.16
8.29
6.66
5.32
4.29
3.52
2.92
2.39
1.82
1.17
0.50
-0.08
-0.44
-0.54
-0.40
-0.21
-0.18
-0.47
-1.14
-2.01
-2.81
-3.21
-3.04
-2.38
-1.61
-1.22
-1.62
-2.92
-4.80
-6.59
-7.57
-7.33
-6.01
-4.31
-3.19
-3.46
-5.35
-8.30
-11.19
-12.87
-12.60
-10.53
-7.65
-5.36
-4.89
-6.88
-11.06
-16.32
-20.92
-22.97
-20.80
-13.49
-1.31
14.05
29.62
41.85
47.95
47.13
41.28
34.43
31.01
33.60
41.46
50.65
55.81
52.91
41.30
23.98
6.09
-7.62
-15.00
-16.98
-16.48
-16.47
-18.38
-21.65
-24.43
-24.97
-22.55
-17.81
-12.60
-8.84
-8.26
-11.85
-19.62
-30.43
-41.53
-48.91
-48.85
-39.11
-20.63
2.52
24.51
39.94
45.29
39.78
25.09
4.63
-16.97
-34.66
-43.86
-42.05
-29.68
-10.40
10.48
28.35
41.42
51.12
60.28
70.18
78.55
81.41
73.51
52.59
20.74
-16.23
-50.57
-75.19
-85.62
-81.25
-65.47
-44.40
-24.43
-9.85
-1.52
2.88
6.83
12.61
19.88
26.24
28.87
26.98
22.51
18.87
18.64
21.90
26.14
27.95
25.34
18.77
10.83
4.65
2.44
4.34
8.83
13.42
16.02
15.79
13.31
10.14
8.01
7.83
9.40
11.60
13.32
13.66
12.44
10.25
8.06
6.76
6.63
7.34
8.12
8.18
7.06
4.80
1.94
-0.80
-2.80
-3.80
-4.08
-4.36
-5.58
-8.52
-13.46
-20.03
-27.28
-34.12
-39.64
-43.36
-45.21
-45.32
-43.83
-40.84
-36.48
-31.09
-25.30
-19.84
-15.31
-11.93
-9.50
-7.60
-5.89
-4.28
-2.88
-1.95
-1.60
-1.79
-2.28
-2.80
-3.14
-3.16
-2.74
-1.83
-0.44
1.35
3.27
5.03
6.36
7.20
7.70
8.10
8.54
8.99
9.19
8.84
7.78
6.09
4.12
2.26
0.83
-0.16
-0.93
-1.91
-3.38
-5.41
-7.66
-9.57
-10.61
-10.57
-9.66
-8.44
-7.47
-7.08
-7.15
-7.26
-6.91
-5.86
-4.22
-2.46
-1.23
-1.20
-2.79
-6.07
-10.55
-15.20
-18.61
-19.26
-16.05
-8.78
1.58
12.95
22.68
28.32
28.36
22.73
12.79
0.82
-10.89
-20.94
-29.32
-37.35
-46.84
-59.01
-73.65
-88.94
-102.17
-110.96
-114.39
-113.21
-109.30
-104.55
-100.15
-96.40
-93.01
-89.59
-85.75
-81.00
-74.69
-66.29
-55.80
-44.10
-32.77
-23.44
-17.08
-13.69
-12.58
-12.91
-14.08
-15.65
-16.95
-16.79
-13.60
-6.17
5.59
20.43
36.16
50.47
61.90
70.15
75.83
79.85
82.87
85.10
86.51
87.16
87.32
87.37
87.49
87.48
86.87
85.15
82.13
78.06
73.40
68.57
63.66
58.49
52.62
45.72
37.68
28.74
19.43
10.48
2.67
-3.34
-7.10
-8.46
-7.56
-4.80
-0.84
3.53
7.55
10.64
12.55
13.36
13.33
12.70
11.57
9.86
7.51
4.52
1.12
-2.36
-5.51
-8.10
-10.05
-11.51
-12.69
-13.79
-14.94
-16.16
-17.39
-18.58
-19.74
-20.96
-22.31
-23.91
-25.80
-28.04
-30.74
-34.03
-37.98
-42.46
-47.05
-51.02
-53.54
-54.00
-52.45
-49.69
-47.04
-45.82
-46.73
-49.61
-53.47
-56.93
-58.69
-57.97
-54.61
-48.85
-41.08
-31.43
-19.80
-6.10
9.34
25.52
40.76
53.20
61.41
64.81
63.91
59.97
54.50
48.79
43.79
40.12
38.23
38.24
39.79
42.04
43.73
43.72
41.33
36.58
29.98
22.29
14.18
6.07
-1.78
-9.21
-16.06
-22.28
-27.89
-33.06
-37.99
-42.72
-46.99
-50.20
-51.66
-50.86
-47.73
-42.62
-36.12
-28.74
-20.71
-11.87
-1.75
10.27
24.67
41.49
60.19
79.65
98.51
115.64
130.52
143.29
154.37
163.84
170.93
174.06
171.37
161.58
144.88
123.10
99.43
77.47
60.22
49.20
44.12
43.17
43.74
43.27
39.81
32.36
20.72
5.34
-12.92
-32.97
-53.66
-74.14
-93.93
-113.11
-132.10
-151.49
-171.71
-192.86
-214.43
-235.01
-252.06
-261.97
-260.68
-244.76
-212.78
-166.30
-109.85
-50.02
6.24
53.37
88.25
110.31
120.87
122.15
116.66
106.99
95.99
86.88
82.76
85.87
96.68
113.63
133.71
153.65
171.13
185.51
197.55
208.37
218.17
225.42
227.04
219.67
201.48
173.33
138.93
103.47
71.71
46.40
27.84
14.67
5.24
-1.33
-4.96
-5.28
-2.30
2.99
8.92
13.67
15.74
14.27
8.95
-0.28
-13.19
-29.23
-47.24
-65.26
-80.66
-90.69
-93.25
-87.84
-75.60
-58.75
-39.81
-20.84
-2.99
13.11
27.24
39.33
49.21
56.90
62.97
68.43
74.51
82.30
92.20
103.99
116.97
129.69
140.79
149.62
156.42
161.87
166.97
171.94
176.86
182.09
187.01
191.26
195.11
198.74
201.20
201.16
195.74
183.33
164.69
139.58
108.50
73.56
37.67
3.45
-25.69
-49.64
-68.35
-81.41
-93.30
-109.26
-131.41
-158.65
-188.17
-214.55
-237.34
-256.92
-273.67
-294.53
-327.34
-375.37
-437.30
-509.21
-583.34
-657.80
-731.15
-761.69
-720.69
-609.18
-457.34
-303.21
-196.03
-130.55
-96.15
-84.34
-90.27
-107.97
-139.41
-170.03
-186.67
-183.18
-159.23
-125.45
-90.76
-56.71
-22.94
13.43
50.49
96.26
155.05
227.13
303.40
373.15
428.29
461.84
470.93
455.85
420.24
373.53
329.34
296.23
277.21
270.64
269.93
268.58
263.73
255.90
245.98
235.27
223.70
211.90
201.55
191.12
178.52
162.00
144.61
128.44
114.81
103.60
94.40
86.91
76.05
57.06
27.47
-11.48
-57.16
-106.77
-157.96
-208.78
-257.64
-309.59
-369.40
-439.00
-515.99
-596.12
-675.40
-751.14
-822.19
-851.11
-816.19
-719.15
-585.25
-446.04
-323.71
-227.38
-156.96
-107.33
-70.48
-42.78
-19.76
3.75
32.16
65.96
101.13
131.77
153.74
167.00
170.31
164.38
151.30
134.50
117.25
101.57
89.80
83.55
83.41
85.69
85.94
80.99
70.39
55.74
39.49
24.09
11.24
1.64
-6.52
-15.67
-27.74
-42.86
-60.01
-77.55
-93.63
-106.77
-115.89
-120.88
-121.67
-121.17
-120.35
-119.35
-117.84
-115.26
-111.17
-105.43
-98.20
-89.91
-81.21
-72.18
-62.89
-53.33
-43.44
-33.28
-23.04
-13.11
-4.00
3.73
9.94
14.56
17.58
19.13
19.33
18.31
16.21
13.14
9.24
4.94
0.65
-3.26
-6.48
-8.86
-10.39
-11.24
-11.64
-11.77
-11.60
-10.97
-9.62
-7.31
-3.98
0.19
4.79
9.32
13.41
17.08
20.72
24.96
30.34
37.02
44.48
51.67
57.34
60.63
61.48
60.77
59.97
60.50
62.96
66.73
70.14
71.23
68.79
63.11
56.25
51.26
51.02
56.92
68.15
82.20
95.82
106.70
114.54
121.27
130.17
144.96
168.62
202.44
245.17
292.18
335.23
363.35
365.55
334.79
271.55
184.94
90.30
4.11
-61.61
-102.45
-121.22
-124.56
-118.82
-107.61
-92.00
-72.31
-49.81
-27.04
-6.45
11.27
28.02
47.78
74.70
111.17
156.54
206.94
255.97
296.48
322.66
331.98
326.10
310.31
291.49
275.30
264.01
255.95
247.00
233.11
212.70
187.45
161.29
138.38
121.13
109.34
100.82
92.81
83.31
71.87
59.44
47.49
37.17
28.67
21.33
14.09
6.19
-2.39
-10.84
-17.94
-22.73
-24.99
-25.52
-25.86
-27.67
-32.00
-38.77
-46.86
-54.52
-60.15
-62.82
-62.50
-59.89
-56.11
-52.47
-50.21
-50.30
-53.09
-58.10
-64.00
-69.01
-71.57
-70.88
-67.21
-61.62
-55.45
-49.76
-45.10
-41.62
-39.31
-38.07
-37.69
-37.73
-37.58
-36.66
-34.68
-31.84
-28.71
-26.09
-24.63
-24.78
-26.63
-29.97
-34.24
-38.67
-42.35
-44.53
-44.90
-43.65
-41.47
-39.22
-37.61
-36.84
-36.66
-36.49
-35.86
-34.67
-33.20
-32.03
-31.68
-32.38
-33.95
-35.95
-37.98
-39.98
-42.29
-45.58
-50.47
-57.19
-65.32
-73.80
-81.24
-86.36
-88.48
-87.73
-85.08
-81.88
-79.43
-78.44
-78.83
-79.75
-79.95
-78.29
-74.25
-68.23
-61.53
-56.04
-53.73
-55.87
-62.42
-71.57
-79.89
-82.85
-75.81
-55.32
-20.25
27.33
82.20
136.99
184.05
217.50
234.79
236.81
226.95
209.54
188.58
167.14
147.50
131.35
119.62
112.05
106.88
101.09
91.49
76.13
55.22
31.03
6.95
-13.76
-28.91
-37.66
-40.33
-37.95
-32.04
-24.31
-16.34
-9.37
-3.93
0.01
2.82
4.85
6.18
6.71
6.37
5.31
3.88
2.54
1.51
0.75
0.05
-0.72
-1.48
-1.93
-1.67
-0.41
2.00
5.55
10.14
15.58
21.38
26.48
29.23
27.71
20.46
7.19
-10.85
-31.03
-50.14
-65.40
-75.20
-79.44
-79.14
-75.85
-70.92
-65.21
-59.09
-52.70
-46.24
-40.07
-34.62
-30.20
-26.86
-24.34
-22.25
-20.28
-18.48
-17.17
-16.76
-17.47
-19.11
-21.10
-22.74
-23.43
-22.99
-21.67
-20.09
-18.96
-18.79
-19.76
-21.59
-23.76
-25.68
-26.90
-27.22
-26.65
-25.36
-23.59
-21.66
-19.87
-18.48
-17.59
-17.03
-16.43
-15.36
-13.54
-10.99
-7.94
-4.60
-0.91
3.58
9.47
17.26
27.12
38.83
51.95
66.05
80.60
94.95
108.04
118.41
124.66
125.94
122.46
115.36
106.25
96.56
87.29
78.91
71.71
66.05
62.40
61.09
62.00
64.49
67.64
70.81
73.72
76.39
78.82
80.91
82.43
83.17
83.22
82.88
83.11
84.55
87.19
90.31
92.81
93.74
92.56
89.14
83.50
76.90
70.29
64.02
57.83
51.19
43.85
36.08
28.74
22.88
21.31
25.90
36.63
51.45
67.20
81.06
91.69
99.76
107.56
120.67
143.69
178.09
221.09
266.46
306.86
336.44
352.85
341.78
297.62
223.66
131.91
37.92
-45.89
-113.44
-163.94
-198.88
-220.52
-229.08
-225.68
-213.07
-195.85
-178.33
-163.45
-152.54
-145.30
-140.67
-135.81
-128.89
-119.94
-110.95
-105.22
-102.83
-104.03
-108.45
-115.53
-123.75
-131.92
-139.09
-144.39
-146.80
-145.43
-140.76
-134.59
-129.96
-129.49
-134.80
-145.87
-161.50
-180.20
-201.14
-224.66
-251.17
-279.98
-308.50
-332.90
-349.62
-357.05
-356.47
-351.46
-346.40
-344.20
-345.16
-347.05
-346.37
-339.91
-325.76
-303.56
-274.11
-239.07
-200.71
-161.97
-126.14
-96.26
-74.15
-59.72
-50.91
-44.81
-39.04
-32.88
-27.55
-25.46
-28.85
-38.50
-53.25
-70.12
-85.36
-95.65
-98.88
-94.42
-82.91
-65.56
-43.69
-18.67
7.91
33.99
57.31
76.16
90.16
100.68
110.75
124.13
143.76
170.38
201.88
233.70
260.18
276.32
279.37
269.58
250.42
227.09
204.98
187.99
177.54
172.26
168.72
162.75
151.56
136.02
120.04
109.27
108.64
120.23
142.32
170.06
197.41
219.44
235.11
245.57
252.47
256.23
255.85
250.11
238.99
224.27
209.33
199.51
198.51
206.85
221.47
237.17
248.83
253.15
249.14
227.70
185.78
126.82
60.48
-2.01
-53.11
-90.79
-116.76
-134.07
-144.64
-148.01
-144.11
-134.31
-121.62
-109.64
-101.15
-97.46
-99.04
-105.07
-113.38
-122.41
-131.75
-142.18
-155.07
-171.38
-187.18
-200.90
-211.30
-217.24
-218.18
-214.37
-206.72
-196.44
-184.37
-170.78
-159.87
-150.42
-140.46
-128.41
-113.33
-94.96
-73.60
-49.68
-23.69
6.08
38.08
69.66
98.41
122.55
140.90
152.92
158.65
158.61
152.77
141.76
125.79
105.14
80.24
51.66
20.15
-13.37
-44.52
-71.63
-93.52
-110.40
-122.86
-131.66
-137.50
-140.76
-141.40
-139.04
-137.37
-134.95
-131.05
-125.62
-119.30
-113.12
-108.11
-104.72
-102.36
-99.82
-94.41
-84.29
-68.71
-48.73
-27.13
-7.50
6.99
14.66
15.37
11.93
7.11
3.98
5.18
12.19
24.91
41.47
58.76
73.27
82.72
86.15
84.53
80.03
74.84
70.29
66.53
63.08
59.57
56.50
54.65
54.80
56.88
59.61
60.96
59.04
53.23
44.45
34.84
26.54
21.00
18.55
18.68
20.71
24.26
29.27
35.54
42.27
48.05
51.24
50.69
46.26
38.86
30.08
21.51
14.06
7.69
1.59
-5.30
-13.71
-23.62
-34.33
-44.79
-54.06
-61.63
-67.43
-71.52
-73.90
-74.34
-72.65
-68.98
-64.01
-58.80
-54.33
-51.05
-48.73
-46.71
-44.41
-41.59
-38.45
-35.25
-31.99
-28.26
-23.44
-17.00
-8.95
0.21
9.63
18.50
26.24
32.59
37.45
40.80
42.68
43.23
42.72
41.50
39.89
38.10
36.20
34.22
32.20
30.31
28.70
27.48
26.64
26.11
25.85
25.83
25.98
26.09
25.75
24.57
22.41
19.57
16.59
14.06
12.17
10.61
8.70
5.82
1.77
-3.11
-8.04
-12.24
-15.14
-16.53
-16.51
-15.36
-13.42
-11.07
-8.70
-6.63
-5.08
-4.09
-3.52
-3.17
-2.82
-2.34
-1.69
-0.93
-0.20
0.36
0.54
0.25
-0.50
-1.50
-2.44
-2.96
-2.77
-1.73
0.10
2.55
5.38
8.34
11.17
13.58
15.30
16.07
15.76
14.42
12.30
9.77
7.15
4.67
2.47
0.56
-1.03
-2.36
-3.51
-4.68
-6.14
-8.15
-10.74
-13.73
-16.66
-18.93
-19.95
-19.36
-17.08
-13.38
-8.79
-3.97
0.49
4.16
6.96
9.06
10.76
12.26
13.60
14.67
15.30
15.49
15.38
15.20
15.14
15.23
15.36
15.43
15.44
15.53
15.89
16.61
17.58
18.48
18.96
18.77
17.90
16.48
14.75
12.90
10.98
8.97
6.85
4.66
2.53
0.57
-1.10
-2.46
-3.52
-4.33
-4.95
-5.53
-6.30
-7.49
-9.22
-11.42
-13.76
-15.71
-16.77
-16.59
-15.08
-12.41
-8.89
-4.93
-0.95
2.65
5.54
7.54
8.71
9.24
9.40
9.33
8.99
8.22
6.89
5.10
3.24
1.92
1.68
2.74
4.88
7.48
9.76
11.07
11.13
10.07
8.33
6.40
4.58
2.87
0.91
-1.77
-5.53
-10.31
-15.55
-20.40
-24.07
-26.27
-27.39
-28.46
-30.72
-35.12
-41.85
-50.33
-59.45
-68.10
-75.56
-81.72
-86.98
-91.90
-97.06
-102.81
-109.26
-116.06
-122.25
-126.06
-125.30
-118.29
-105.00
-87.97
-71.98
-62.53
-63.62
-75.90
-96.06
-117.91
-134.79
-141.85
-137.25
-121.87
-98.00
-67.97
-33.26
5.46
47.43
90.72
132.02
167.29
193.30
208.89
215.42
215.65
212.45
207.69
202.31
197.03
193.02
192.06
195.61
203.44
212.76
218.67
215.76
200.32
171.87
133.22
89.54
47.06
11.78
-11.55
-20.16
-13.80
5.34
33.25
65.18
96.67
124.34
145.96
160.33
167.01
165.95
157.44
142.37
122.23
98.93
74.55
50.90
29.35
10.78
-4.40
-16.01
-24.09
-29.05
-31.74
-33.37
-35.25
-38.43
-43.42
-50.15
-58.16
-66.98
-76.22
-85.47
-93.95
-100.40
-103.35
-101.84
-96.13
-87.85
-79.54
-73.58
-71.21
-72.23
-75.41
-79.23
-82.54
-84.61
-84.88
-82.64
-77.07
-67.55
-54.26
-38.45
-22.43
-9.14
-1.49
-1.69
-10.78
-28.41
-52.74
-80.67
-108.43
-132.52
-150.71
-162.78
-170.42
-176.37
-182.98
-191.12
-199.74
-206.48
-208.94
-205.97
-198.39
-188.69
-180.06
-174.99
-174.41
-177.55
-182.61
-187.80
-192.06
-195.22
-197.63
-199.50
-200.36
-199.01
-193.84
-183.51
-167.44
-146.06
-120.57
-92.57
-63.61
-34.88
-7.16
19.05
43.41
65.73
85.97
104.61
122.75
142.21
164.94
192.20
223.49
256.26
286.40
309.59
322.88
325.83
320.62
310.98
300.78
292.72
287.53
284.14
280.29
273.31
261.07
242.52
218.02
189.21
158.54
128.53
101.15
77.50
57.98
42.51
30.71
21.91
15.12
8.99
2.14
-6.33
-16.45
-27.23
-37.07
-44.38
-48.15
-48.38
-45.94
-42.14
-38.22
-34.81
-31.95
-29.25
-26.33
-23.14
-20.00
-17.46
-15.92
-15.48
-15.81
-16.36
-16.66
-16.48
-15.85
-14.94
-13.92
-12.82
-11.58
-10.13
-8.53
-7.01
-5.90
-5.50
-5.93
-7.04
-8.53
-10.03
-11.25
-12.14
-12.87
-13.71
-14.94
-16.70
-18.93
-21.38
-23.64
-25.18
-25.55
-24.42
-21.69
-17.56
-12.48
-7.04
-1.86
2.58
6.04
8.47
9.97
10.72
10.89
10.63
10.09
9.43
8.78
8.24
7.83
7.53
7.25
6.92
6.54
6.18
5.97
6.06
6.51
7.24
8.04
8.62
8.68
8.10
6.89
5.20
3.28
1.37
-0.34
-1.78
-2.94
-3.99
-5.16
-6.70
-8.71
-11.02
-13.16
-14.51
-14.57
-13.14
-10.40
-6.84
-2.99
0.77
4.16
7.06
9.38
10.99
11.84
11.96
11.51
10.67
9.58
8.38
7.12
5.92
4.91
4.23
3.93
3.96
4.19
4.49
4.77
5.03
5.26
5.43
5.49
5.38
5.06
4.55
3.83
2.91
1.78
0.47
-0.90
-2.15
-3.11
-3.71
-4.05
-4.40
-5.04
-6.11
-7.52
-8.87
-9.64
-9.36
-7.82
-5.14
-1.71
1.92
5.24
7.92
9.81
10.90
11.30
11.13
10.52
9.61
8.52
7.36
6.19
5.05
4.00
3.18
2.71
2.65
2.97
3.55
4.19
4.72
4.98
4.92
4.56
3.97
3.27
2.57
1.92
1.33
0.79
0.32
-0.11
-0.52
-1.07
-1.98
-3.49
-5.72
-8.61
-11.80
-14.85
-17.34
-18.97
-19.60
-19.17
-17.65
-15.06
-11.50
-7.28
-2.84
1.29
4.66
7.05
8.44
9.03
9.10
8.88
8.55
8.20
7.88
7.65
7.54
7.58
7.76
8.02
8.33
8.63
8.91
9.15
9.29
9.25
8.94
8.32
7.47
6.53
5.66
4.92
4.30
3.68
2.92
1.95
0.77
-0.53
-1.82
-2.97
-3.89
-4.61
-5.20
-5.82
-6.59
-7.54
-8.58
-9.45
-9.87
-9.59
-8.54
-6.81
-4.61
-2.22
0.13
2.24
3.94
5.10
5.62
5.56
5.08
4.43
3.84
3.43
3.18
2.97
2.64
2.13
1.50
0.89
0.47
0.37
0.62
1.15
1.77
2.27
2.46
2.25
1.75
1.12
0.58
0.23
0.02
-0.22
-0.66
-1.35
-2.20
-3.03
-3.73
-4.28
-4.81
-5.46
-6.32
-7.33
-8.35
-9.28
-10.08
-10.71
-11.10
-11.04
-10.24
-8.49
-5.81
-2.55
0.73
3.50
5.42
6.46
6.82
6.76
6.47
6.02
5.44
4.72
3.89
3.02
2.22
1.60
1.25
1.24
1.55
2.10
2.73
3.29
3.65
3.78
3.67
3.34
2.75
1.89
0.76
-0.60
-2.03
-3.35
-4.41
-5.10
-5.41
-5.42
-5.21
-4.90
-4.62
-4.48
-4.57
-4.96
-5.61
-6.38
-7.01
-7.21
-6.66
-5.23
-2.99
-0.25
2.54
4.94
6.66
7.63
7.97
7.87
7.46
6.81
5.90
4.76
3.53
2.43
1.73
1.56
1.89
2.53
3.21
3.72
3.99
4.11
4.20
4.31
4.41
4.41
4.14
3.56
2.66
1.52
0.21
-1.20
-2.66
-4.08
-5.32
-6.23
-6.74
-6.90
-6.91
-7.06
-7.55
-8.50
-9.85
-11.38
-12.81
-13.77
-13.98
-13.23
-11.48
-8.92
-5.93
-3.01
-0.61
1.01
1.88
2.30
2.66
3.28
4.31
5.65
7.07
8.31
9.18
9.61
9.68
9.51
9.26
9.04
8.93
8.93
9.02
9.11
9.12
8.98
8.61
7.96
6.99
5.74
4.28
2.78
1.44
0.41
-0.28
-0.74
-1.17
-1.77
-2.63
-3.71
-4.90
-6.10
-7.28
-8.46
-9.65
-10.80
-11.75
-12.26
-12.13
-11.25
-9.65
-7.49
-4.99
-2.40
0.08
2.24
3.94
5.10
5.71
5.83
5.54
4.94
4.13
3.23
2.38
1.71
1.27
1.07
1.02
1.02
1.00
0.93
0.85
0.79
0.78
0.78
0.77
0.73
0.65
0.52
0.34
0.07
-0.31
-0.81
-1.39
-2.00
-2.59
-3.17
-3.69
-4.15
-4.49
-4.68
-4.72
-4.69
-4.78
-5.16
-5.93
-6.95
-7.88
-8.26
-7.74
-6.24
-3.97
-1.41
0.94
2.71
3.79
4.22
4.18
3.84
3.34
2.78
2.29
1.92
1.67
1.47
1.19
0.76
0.21
-0.31
-0.62
-0.60
-0.23
0.36
1.01
1.59
2.01
2.28
2.44
2.54
2.57
2.47
2.15
1.55
0.68
-0.36
-1.37
-2.14
-2.55
-2.62
-2.56
-2.60
-2.95
-3.72
-4.86
-6.28
-7.77
-9.08
-9.89
-9.88
-8.83
-6.80
-4.10
-1.24
1.28
3.13
4.26
4.82
5.03
5.03
4.87
4.56
4.14
3.67
3.20
2.74
2.24
1.68
1.10
0.66
0.53
0.78
1.38
2.14
2.80
3.14
3.08
2.65
1.97
1.18
0.38
-0.32
-0.85
-1.14
-1.19
-1.06
-0.87
-0.77
-0.86
-1.16
-1.63
-2.16
-2.69
-3.21
-3.80
-4.57
-5.60
-6.82
-8.06
-8.99
-9.27
-8.62
-6.97
-4.55
-1.79
0.79
2.80
4.10
4.76
4.98
4.96
4.79
4.41
3.80
2.98
2.09
1.29
0.70
0.33
0.06
-0.20
-0.45
-0.61
-0.54
-0.21
0.34
0.96
1.49
1.86
2.10
2.27
2.45
2.64
2.79
2.82
2.68
2.29
1.64
0.72
-0.42
-1.64
-2.74
-3.56
-4.02
-4.21
-4.35
-4.66
-5.34
-6.37
-7.60
-8.69
-9.32
-9.26
-8.44
-7.00
-5.22
-3.40
-1.80
-0.56
0.36
1.03
1.58
2.08
2.53
2.88
3.08
3.12
3.04
2.95
2.97
3.16
3.56
4.11
4.78
5.49
6.20
6.83
7.29
7.46
7.29
6.78
6.08
5.32
4.62
3.98
3.31
2.47
1.42
0.16
-1.19
-2.48
-3.60
-4.48
-5.11
-5.52
-5.76
-5.92
-6.12
-6.50
-7.17
-8.16
-9.40
-10.66
-11.61
-11.89
-11.23
-9.57
-7.10
-4.21
-1.40
0.91
2.49
3.34
3.66
3.67
3.56
3.41
3.24
3.04
2.82
2.65
2.61
2.74
3.00
3.33
3.65
3.93
4.19
4.46
4.75
5.01
5.17
5.16
5.02
4.78
4.49
4.17
3.75
3.15
2.35
1.40
0.40
-0.55
-1.41
-2.18
-2.90
-3.61
-4.34
-5.12
-5.99
-6.99
-8.10
-9.20
-10.08
-10.49
-10.23
-9.24
-7.61
-5.55
-3.29
-1.10
0.82
2.36
3.42
4.03
4.26
4.23
4.03
3.74
3.37
2.91
2.37
1.79
1.28
0.94
0.84
0.96
1.26
1.68
2.14
2.59
2.96
3.20
3.28
3.20
3.01
2.72
2.33
1.76
0.97
-0.06
-1.26
-2.49
-3.62
-4.54
-5.23
-5.72
-6.08
-6.39
-6.71
-7.14
-7.74
-8.59
-9.66
-10.79
-11.72
-12.16
-11.88
-10.84
-9.14
-7.01
-4.71
-2.41
-0.22
1.78
3.55
5.03
6.12
6.79
7.08
7.04
6.76
6.31
5.78
5.29
4.96
4.93
5.23
5.81
6.52
7.21
7.81
8.26
8.59
8.75
8.67
8.28
7.52
6.46
5.26
4.09
3.09
2.31
1.69
1.13
0.54
-0.16
-0.96
-1.80
-2.62
-3.31
-3.86
-4.28
-4.70
-5.27
-6.07
-7.11
-8.28
-9.35
-10.09
-10.29
-9.85
-8.76
-7.17
-5.28
-3.32
-1.54
-0.11
0.91
1.54
1.92
2.19
2.48
2.82
3.13
3.28
3.14
2.66
1.92
1.11
0.46
0.18
0.39
1.04
2.00
3.02
3.82
4.19
4.07
3.53
2.77
1.97
1.26
0.65
0.05
-0.62
-1.40
-2.25
-3.09
-3.82
-4.41
-4.86
-5.26
-5.70
-6.27
-6.99
-7.80
-8.57
-9.15
-9.40
-9.20
-8.50
-7.32
-5.71
-3.80
-1.77
0.18
1.83
3.05
3.78
4.10
4.15
4.10
4.06
4.08
4.13
4.15
4.10
3.96
3.77
3.62
3.60
3.76
4.13
4.61
5.06
5.34
5.32
4.99
4.39
3.61
2.73
1.80
0.83
-0.17
-1.16
-2.06
-2.80
-3.41
-4.02
-4.80
-5.86
-7.18
-8.56
-9.72
-10.47
-10.78
-10.80
-10.73
-10.66
-10.51
-10.01
-8.91
-7.13
-4.85
-2.42
-0.23
1.49
2.70
3.57
4.26
4.89
5.46
5.88
6.12
6.20
6.22
6.31
6.56
6.99
7.54
8.14
8.71
9.23
9.74
10.26
10.82
11.37
11.81
11.99
11.79
11.14
10.10
8.79
7.40
6.11
5.04
4.29
3.91
3.91
4.27
4.88
5.53
5.96
5.86
4.98
3.21
0.60
-2.67
-6.26
-9.75
-12.70
-14.66
-15.36
-14.70
-12.86
-10.19
-7.20
-4.33
-1.92
-0.17
0.93
1.51
1.77
1.99
2.36
2.97
3.75
4.50
5.00
5.09
4.76
4.15
3.47
2.89
2.54
2.45
2.54
2.72
2.83
2.77
2.42
1.74
0.78
-0.35
-1.46
-2.42
-3.12
-3.57
-3.78
-3.78
-3.61
-3.29
-2.89
-2.51
-2.33
-2.44
-2.88
-3.57
-4.35
-5.01
-5.42
-5.50
-5.26
-4.73
-3.98
-3.09
-2.19
-1.38
-0.74
-0.27
0.12
0.57
1.15
1.87
2.59
3.14
3.39
3.33
3.10
2.89
2.86
3.08
3.53
4.14
4.78
5.36
5.81
6.11
6.27
6.36
6.41
6.47
6.43
6.17
5.55
4.54
3.23
1.81
0.50
-0.59
-1.44
-2.10
-2.63
-3.04
-3.35
-3.60
-3.91
-4.45
-5.33
-6.52
-7.78
-8.72
-8.94
-8.21
-6.53
-4.19
-1.63
0.71
2.54
3.76
4.49
4.91
5.17
5.31
5.30
5.07
4.61
3.98
3.33
2.78
2.43
2.27
2.26
2.36
2.57
2.93
3.47
4.14
4.83
5.34
5.54
5.38
4.98
4.49
4.03
3.64
3.20
2.56
1.62
0.38
-1.00
-2.28
-3.27
-3.89
-4.19
-4.34
-4.51
-4.83
-5.33
-5.92
-6.48
-6.83
-6.78
-6.25
-5.19
-3.70
-1.92
-0.06
1.67
3.11
4.17
4.85
5.21
5.32
5.20
4.86
4.27
3.39
2.30
1.14
0.14
-0.47
-0.58
-0.22
0.45
1.19
1.83
2.28
2.55
2.71
2.79
2.81
2.71
2.45
1.97
1.17
-0.05
-1.82
-4.18
-6.99
-9.91
-12.47
-14.25
-15.04
-14.94
-14.29
-13.50
-12.82
-12.23
-11.48
-10.17
-7.96
-4.63
-0.23
5.05
10.84
16.69
22.22
27.13
31.27
34.63
37.31
39.42
41.08
42.31
43.03
43.03
41.96
39.39
35.00
28.82
21.27
13.16
5.45
-1.05
-6.01
-9.54
-12.03
-13.90
-15.36
-16.33
-16.68
-16.34
-15.43
-14.26
-13.08
-12.05
-11.10
-10.11
-8.99
-7.83
-6.85
-6.30
-6.29
-6.73
-7.29
-7.57
-7.19
-5.96
-3.94
-1.45
1.08
3.19
4.54
5.02
4.70
3.81
2.64
1.48
0.60
0.20
0.35
0.98
1.85
2.61
2.92
2.56
1.58
0.20
-1.25
-2.52
-3.50
-4.22
-4.82
-5.42
-6.06
-6.68
-7.20
-7.56
-7.73
-7.73
-7.62
-7.46
-7.32
-7.24
-7.28
-7.49
-7.89
-8.51
-9.34
-10.33
-11.31
-12.00
-12.07
-11.25
-9.47
-6.94
-4.09
-1.44
0.65
2.06
2.87
3.24
3.30
3.06
2.49
1.67
0.75
0.01
-0.31
-0.07
0.68
1.81
3.15
4.55
5.91
7.19
8.40
9.61
10.90
12.36
13.95
15.46
16.45
16.42
14.97
12.04
8.01
3.56
-0.55
-3.71
-5.67
-6.50
-6.58
-6.36
-6.31
-6.85
-8.23
-10.49
-13.42
-16.56
-19.29
-21.01
-21.31
-20.11
-17.61
-14.25
-10.57
-7.10
-4.24
-2.21
-1.02
-0.51
-0.45
-0.59
-0.74
-0.77
-0.63
-0.31
0.11
0.51
0.75
0.78
0.67
0.66
1.01
1.90
3.31
5.03
6.78
8.32
9.56
10.49
11.13
11.43
11.33
10.83
10.07
9.25
8.46
7.49
5.94
3.39
-0.27
-4.57
-8.60
-11.33
-12.05
-10.65
-7.64
-3.83
0.01
3.40
6.13
8.12
9.31
9.62
9.07
7.88
6.44
5.15
4.21
3.55
2.85
1.82
0.38
-1.18
-2.37
-2.73
-2.09
-0.67
1.06
2.49
3.22
3.04
2.01
0.36
-1.63
-3.67
-5.58
-7.22
-8.50
-9.38
-9.84
-9.89
-9.61
-9.19
-8.86
-8.85
-9.23
-9.93
-10.69
-11.24
-11.36
-11.03
-10.31
-9.36
-8.28
-7.10
-5.79
-4.33
-2.80
-1.32
-0.04
0.92
1.53
1.81
1.87
1.80
1.66
1.48
1.23
0.88
0.40
-0.21
-0.87
-1.50
-1.99
-2.27
-2.35
-2.31
-2.28
-2.33
-2.48
-2.69
-2.93
-3.25
-3.74
-4.45
-5.35
-6.23
-6.83
-6.97
-6.64
-6.08
-5.61
-5.51
-5.93
-6.77
-7.80
-8.73
-9.31
-9.37
-8.87
-7.87
-6.49
-4.88
-3.19
-1.50
0.10
1.55
2.77
3.71
4.34
4.74
5.00
5.20
5.32
5.23
4.80
3.98
2.90
1.77
0.84
0.24
-0.04
-0.12
-0.09
0.02
0.26
0.70
1.28
1.81
2.04
1.78
1.01
-0.10
-1.23
-2.11
-2.61
-2.77
-2.79
-2.95
-3.47
-4.46
-5.85
-7.44
-8.91
-9.92
-10.21
-9.66
-8.36
-6.56
-4.63
-2.92
-1.67
-0.95
-0.66
-0.62
-0.62
-0.54
-0.37
-0.20
-0.12
-0.21
-0.43
-0.69
-0.84
-0.81
-0.57
-0.20
0.20
0.56
0.86
1.08
1.21
1.17
0.85
0.18
-0.82
-2.00
-3.15
-4.06
-4.62
-4.86
-4.89
-4.82
-4.72
-4.62
-4.54
-4.59
-4.90
-5.58
-6.64
-7.94
-9.18
-10.06
-10.32
-9.82
-8.60
-6.83
-4.78
-2.74
-0.96
0.42
1.34
1.87
2.11
2.15
2.03
1.80
1.45
1.03
0.59
0.18
-0.15
-0.40
-0.57
-0.63
-0.58
-0.37
-0.05
0.31
0.61
0.75
0.66
0.36
-0.11
-0.69
-1.33
-2.01
-2.74
-3.50
-4.23
-4.85
-5.30
-5.58
-5.73
-5.87
-6.10
-6.51
-7.06
-7.63
-8.02
-8.04
-7.59
-6.71
-5.58
-4.41
-3.37
-2.52
-1.90
-1.50
-1.40
-1.72
-2.57
-3.85
-5.26
-6.31
-6.52
-5.59
-3.58
-0.84
2.09
4.74
6.83
8.25
9.08
9.45
9.46
9.19
8.72
8.13
7.57
7.14
6.90
6.82
6.73
6.47
5.86
4.86
3.58
2.28
1.22
0.64
0.63
1.10
1.89
2.77
3.58
4.19
4.59
4.82
4.97
5.11
5.24
5.37
5.44
5.39
5.16
4.70
4.02
3.17
2.27
1.42
0.75
0.27
-0.05
-0.34
-0.67
-1.07
-1.46
-1.71
-1.72
-1.49
-1.16
-0.94
-0.99
-1.35
-1.95
-2.58
-3.05
-3.21
-3.07
-2.76
-2.48
-2.45
-2.78
-3.43
-4.21
-4.80
-4.94
-4.44
-3.28
-1.59
0.43
2.58
4.71
6.73
8.58
10.14
11.24
11.70
11.43
10.52
9.26
8.10
7.48
7.63
8.52
9.82
11.08
11.81
11.68
10.56
8.56
5.98
3.33
1.19
0.10
0.31
1.75
3.97
6.32
8.18
9.20
9.33
8.82
7.98
7.08
6.21
5.34
4.38
3.31
2.22
1.33
0.90
1.11
1.98
3.34
4.97
6.61
8.15
9.57
10.85
11.94
12.72
13.06
12.88
12.27
11.38
10.43
9.56
8.85
8.31
7.94
7.76
7.78
7.97
8.24
8.47
8.54
8.38
7.97
7.33
6.53
5.62
4.67
3.76
2.92
2.15
1.33
0.30
-1.11
-2.94
-5.04
-7.10
-8.72
-9.58
-9.51
-8.56
-6.94
-4.98
-3.02
-1.36
-0.23
0.29
0.23
-0.23
-0.83
-1.34
-1.62
-1.68
-1.65
-1.65
-1.82
-2.17
-2.68
-3.26
-3.83
-4.30
-4.63
-4.78
-4.78
-4.69
-4.58
-4.52
-4.55
-4.67
-4.93
-5.33
-5.93
-6.77
-7.87
-9.19
-10.59
-11.88
-12.77
-13.01
-12.43
-10.98
-8.81
-6.20
-3.49
-1.06
0.84
2.11
2.80
3.02
2.91
2.57
2.03
1.30
0.42
-0.52
-1.42
-2.17
-2.73
-3.09
-3.29
-3.34
-3.25
-3.04
-2.76
-2.49
-2.29
-2.20
-2.18
-2.15
-2.10
-2.06
-2.15
-2.51
-3.25
-4.37
-5.78
-7.31
-8.67
-9.56
-9.66
-8.78
-6.93
-4.36
-1.47
1.32
3.67
5.43
6.56
7.14
7.23
6.92
6.29
5.44
4.45
3.40
2.33
1.34
0.55
0.09
0.02
0.29
0.74
1.15
1.35
1.35
1.23
1.18
1.31
1.65
2.14
2.63
2.90
2.74
1.93
0.37
-1.87
-4.56
-7.31
-9.70
-11.35
-12.01
-11.61
-10.27
-8.27
-5.98
-3.79
-1.98
-0.70
0.10
0.57
0.86
1.08
1.23
1.27
1.17
0.93
0.60
0.26
-0.06
-0.36
-0.66
-0.94
-1.12
-1.09
-0.76
-0.14
0.61
1.23
1.45
1.12
0.28
-0.88
-2.09
-3.11
-3.83
-4.31
-4.65
-5.00
-5.47
-6.10
-6.85
-7.62
-8.28
-8.64
-8.56
-7.93
-6.78
-5.25
-3.53
-1.85
-0.36
0.88
1.85
2.58
3.04
3.22
3.09
2.71
2.21
1.75
1.43
1.31
1.35
1.48
1.65
1.80
1.94
2.07
2.22
2.43
2.69
2.94
3.03
2.81
2.18
1.19
0.02
-1.07
-1.87
-2.30
-2.53
-2.81
-3.35
-4.23
-5.30
-6.26
-6.79
-6.74
-6.16
-5.40
-4.92
-5.15
-6.27
-8.10
-10.10
-11.56
-11.95
-11.12
-9.35
-7.22
-5.23
-3.58
-1.99
0.07
3.10
7.23
12.16
17.45
22.92
28.96
36.50
46.51
59.32
74.21
89.65
104.05
116.42
126.40
133.62
136.89
134.19
123.67
105.22
81.28
56.20
34.31
17.95
6.93
-0.41
-5.15
-6.47
-2.01
10.26
30.03
53.96
76.95
94.45
104.46
107.97
107.81
106.77
106.03
104.84
101.18
93.05
79.51
61.13
39.78
17.92
-2.28
-19.55
-33.67
-45.16
-54.78
-63.06
-70.09
-75.62
-79.40
-81.48
-82.35
-82.90
-84.04
-86.45
-90.33
-95.31
-100.47
-104.42
-105.43
-101.63
-91.56
-74.81
-52.42
-26.92
-1.61
20.48
37.60
49.67
57.90
63.80
68.28
71.18
71.58
68.56
61.87
52.17
40.64
28.30
15.49
1.88
-12.98
-29.02
-45.23
-59.96
-71.62
-79.52
-84.15
-86.84
-88.93
-91.01
-92.78
-93.39
-92.20
-89.24
-85.18
-80.82
-76.56
-72.24
-67.42
-61.92
-56.07
-50.69
-46.53
-43.84
-42.31
-41.34
-40.49
-39.70
-39.16
-38.90
-38.67
-38.09
-37.01
-35.78
-35.31
-36.55
-40.00
-45.22
-50.97
-55.63
-57.78
-56.56
-51.90
-44.30
-34.71
-24.33
-14.55
-6.73
-1.89
-0.33
-1.39
-3.60
-5.20
-4.83
-2.13
2.19
6.77
10.18
11.53
10.71
8.26
5.06
2.07
0.01
-0.74
-0.17
1.32
3.13
4.66
5.80
7.12
9.70
14.68
22.59
32.90
43.98
53.64
59.83
61.28
57.88
50.55
40.90
30.66
21.18
13.24
7.12
2.70
-0.26
-1.94
-2.44
-1.91
-0.59
1.07
2.60
3.57
3.87
3.68
3.32
3.13
3.30
3.88
4.86
6.21
7.88
9.55
10.65
10.37
7.98
3.17
-3.80
-12.19
-21.06
-29.55
-37.04
-43.03
-47.14
-49.06
-48.71
-46.39
-42.77
-38.70
-34.90
-31.77
-29.32
-27.35
-25.64
-24.03
-22.44
-20.79
-19.05
-17.26
-15.61
-14.37
-13.76
-13.72
-13.90
-13.79
-12.87
-10.90
-7.98
-4.50
-0.99
2.09
4.40
5.81
6.28
5.93
4.91
3.43
1.78
0.24
-0.92
-1.59
-1.79
-1.66
-1.40
-1.13
-0.86
-0.52
-0.03
0.56
1.08
1.23
0.82
-0.17
-1.58
-3.14
-4.62
-6.01
-7.41
-8.92
-10.49
-11.81
-12.46
-12.00
-10.20
-7.10
-2.97
1.86
7.02
12.15
16.88
20.75
23.36
24.48
24.15
22.71
20.65
18.44
16.36
14.46
12.69
10.96
9.24
7.53
5.84
4.22
2.91
2.44
3.63
7.34
14.12
23.90
35.87
48.69
60.90
71.33
79.30
84.67
87.46
87.74
85.41
80.35
72.64
62.70
51.31
39.35
27.61
16.55
6.40
-2.70
-10.51
-16.69
-21.00
-23.59
-25.14
-26.70
-29.26
-33.35
-38.81
-44.90
-50.68
-55.32
-58.31
-59.46
-58.88
-56.95
-54.40
-52.34
-52.02
-54.52
-60.31
-69.01
-79.44
-89.76
