1604018298.00
64.000000
-0.00
-0.00
-0.00
-0.00
-0.00
-0.00
-0.00
-0.00
-0.00
-0.00
0.00
0.01
0.01
-0.00
-0.03
-0.05
-0.05
0.00
0.13
0.36
0.66
1.01
1.37
1.72
2.06
2.40
2.79
3.24
3.81
4.44
5.10
5.74
6.33
6.89
7.49
8.21
9.11
10.28
11.61
12.96
14.20
15.26
16.20
17.21
18.53
20.34
22.87
25.90
29.13
32.24
35.06
37.69
40.48
43.93
48.39
54.24
61.08
68.33
75.36
81.80
87.79
93.95
101.11
109.89
120.81
133.25
146.21
158.66
169.97
180.31
190.60
202.49
214.89
230.02
248.23
269.19
291.33
311.61
325.89
330.03
321.22
298.96
265.60
224.54
179.40
132.79
85.99
39.50
-6.21
-50.21
-91.33
-128.55
-162.06
-192.92
-222.74
-253.13
-285.14
-318.83
-352.85
-384.49
-409.91
-425.35
-428.37
-418.89
-399.23
-373.23
-344.74
-316.42
-289.36
-263.49
-238.68
-215.31
-194.21
-176.10
-160.89
-147.54
-134.50
-120.48
-105.08
-88.92
-73.38
-59.84
-49.04
-40.86
-34.41
-28.54
-22.33
-15.48
-8.37
-1.78
3.54
7.25
9.58
11.15
12.62
14.37
16.34
18.21
19.66
20.66
21.46
22.44
23.81
25.51
27.33
29.17
31.21
33.80
37.21
41.26
45.25
48.24
49.42
48.53
45.89
42.24
38.37
34.86
31.98
29.79
28.23
27.22
26.58
26.08
25.38
24.21
22.43
20.07
17.33
14.52
11.95
9.84
8.26
7.09
6.12
5.13
4.01
2.84
1.88
1.40
1.53
2.16
2.95
3.47
3.41
2.70
1.51
0.12
-1.20
-2.31
-3.15
-3.71
-3.90
-3.61
-2.71
-1.24
0.58
2.37
3.72
4.36
4.28
3.65
2.77
1.88
1.07
0.29
-0.61
-1.72
-3.04
-4.47
-5.79
-6.74
-6.99
-6.28
-4.45
-1.64
1.76
5.09
7.65
8.90
8.66
7.14
4.88
2.51
0.54
-0.76
-1.39
-1.54
-1.42
-1.09
-0.49
0.47
1.82
3.35
4.74
5.66
6.00
5.94
5.87
6.18
6.96
8.00
8.76
8.72
7.61
5.57
3.13
1.05
0.01
0.38
2.09
4.69
7.57
10.20
12.30
13.88
15.01
15.71
15.83
15.16
13.62
11.45
9.14
7.16
5.77
4.84
3.98
2.84
1.35
-0.29
-1.75
-2.85
-3.66
-4.43
-5.28
-6.11
-6.57
-6.34
-5.35
-3.85
-2.36
-1.31
-0.89
-0.95
-1.12
-1.04
-0.54
0.29
1.21
1.95
2.37
2.50
2.46
2.36
2.18
1.82
1.16
0.25
-0.70
-1.33
-1.34
-0.70
0.34
1.34
1.93
1.98
1.65
1.25
1.06
1.17
1.46
1.74
1.93
2.09
2.44
3.16
4.27
5.56
6.70
7.48
7.95
8.48
9.52
11.35
13.82
16.34
18.09
18.44
17.23
14.82
11.92
9.20
7.09
5.70
4.91
4.62
4.80
5.39
6.20
6.79
6.59
5.18
2.50
-1.04
-4.68
-7.66
-9.52
-10.24
-10.13
-9.62
-9.05
-8.57
-8.18
-7.87
-7.66
-7.58
-7.65
-7.82
-8.02
-8.20
-8.32
-8.35
-8.23
-7.86
-7.20
-6.22
-5.05
-3.88
-2.87
-2.09
-1.53
-1.08
-0.66
-0.24
0.16
0.48
0.72
0.88
1.00
1.16
1.41
1.76
2.19
2.61
2.89
2.96
2.80
2.49
2.14
1.87
1.75
1.74
1.72
1.58
1.27
0.82
0.31
-0.12
-0.40
-0.54
-0.58
-0.59
-0.61
-0.68
-0.76
-0.85
-0.91
-0.97
-1.04
-1.16
-1.37
-1.68
-2.09
-2.51
-2.86
-3.04
-2.97
-2.65
-2.09
-1.36
-0.52
0.31
1.04
1.56
1.83
1.90
1.87
1.90
2.05
2.32
2.61
2.80
2.81
2.62
2.26
1.79
1.29
0.87
0.64
0.70
1.08
1.72
2.50
3.24
3.83
4.23
4.48
4.62
4.70
4.77
4.84
4.96
5.11
5.25
5.26
5.01
4.43
3.54
2.49
1.49
0.74
0.30
0.10
-0.02
-0.21
-0.60
-1.17
-1.86
-2.57
-3.24
-3.80
-4.22
-4.46
-4.51
-4.37
-4.09
-3.69
-3.24
-2.74
-2.23
-1.77
-1.43
-1.26
-1.25
-1.32
-1.35
-1.24
-0.96
-0.62
-0.31
-0.10
0.05
0.27
0.66
1.23
1.92
2.59
3.09
3.35
3.35
3.10
2.64
2.04
1.43
0.93
0.68
0.74
1.08
1.58
2.13
2.61
2.94
3.04
2.84
2.30
1.46
0.50
-0.39
-1.03
-1.34
-1.37
-1.25
-1.11
-1.00
-0.89
-0.74
-0.56
-0.41
-0.38
-0.52
-0.81
-1.14
-1.37
-1.43
-1.30
-1.05
-0.78
-0.55
-0.33
-0.07
0.30
0.76
1.25
1.62
1.76
1.63
1.26
0.77
0.25
-0.25
-0.77
-1.31
-1.87
-2.37
-2.68
-2.70
-2.42
-1.93
-1.39
-0.96
-0.71
-0.65
-0.69
-0.76
-0.80
-0.79
-0.72
-0.59
-0.41
-0.20
-0.03
0.04
-0.07
-0.35
-0.77
-1.22
-1.58
-1.77
-1.75
-1.54
-1.19
-0.74
-0.26
0.21
0.66
1.06
1.36
1.55
1.61
1.56
1.44
1.29
1.13
0.96
0.76
0.54
0.30
0.09
0.00
0.08
0.33
0.67
0.97
1.14
1.12
0.97
0.79
0.64
0.52
0.35
0.05
-0.37
-0.82
-1.11
-1.10
-0.75
-0.22
0.25
0.45
0.31
-0.08
-0.52
-0.78
-0.76
-0.47
-0.08
0.26
0.44
0.46
0.41
0.38
0.41
0.47
0.46
0.34
0.15
-0.04
-0.11
-0.03
0.15
0.34
0.44
0.42
0.30
0.14
-0.02
-0.16
-0.29
-0.39
-0.44
-0.40
-0.23
0.01
0.30
0.54
0.68
0.72
0.66
0.55
0.45
0.40
0.42
0.52
0.64
0.72
0.70
0.54
0.30
0.06
-0.11
-0.16
-0.13
-0.12
-0.20
-0.41
-0.71
-0.99
-1.15
-1.14
-0.98
-0.76
-0.55
-0.44
-0.42
-0.48
-0.54
-0.56
-0.50
-0.40
-0.29
-0.20
-0.15
-0.07
0.08
0.32
0.61
0.86
0.94
0.83
0.54
0.19
-0.10
-0.25
-0.24
-0.13
-0.00
0.10
0.15
0.20
0.30
0.46
0.66
0.82
0.87
0.75
0.47
0.11
-0.22
-0.42
-0.43
-0.27
0.01
0.30
0.52
0.59
0.47
0.19
-0.16
-0.51
-0.76
-0.88
-0.86
-0.74
-0.54
-0.29
-0.01
0.23
0.41
0.50
0.48
0.42
0.39
0.44
0.60
0.82
1.02
1.13
1.08
0.86
0.51
0.13
-0.19
-0.37
-0.37
-0.27
-0.16
-0.14
-0.26
-0.45
-0.59
-0.58
-0.39
-0.12
0.11
0.22
0.20
0.15
0.14
0.17
0.19
0.10
-0.14
-0.48
-0.78
-0.93
-0.86
-0.61
-0.29
-0.04
0.07
0.03
-0.09
-0.22
-0.30
-0.34
-0.35
-0.36
-0.36
-0.28
-0.08
0.23
0.59
0.84
0.87
0.64
0.24
-0.13
-0.33
-0.31
-0.12
0.10
0.26
0.33
0.37
0.41
0.42
0.37
0.20
-0.09
-0.42
-0.68
-0.79
-0.77
-0.66
-0.54
-0.41
-0.26
-0.05
0.19
0.39
0.50
0.49
0.38
0.26
0.19
0.22
0.33
0.49
0.63
0.72
0.71
0.60
0.39
0.13
-0.12
-0.31
-0.42
-0.45
-0.46
-0.47
-0.50
-0.48
-0.40
-0.24
-0.03
0.16
0.28
0.34
0.37
0.41
0.43
0.38
0.20
-0.12
-0.50
-0.79
-0.88
-0.73
-0.38
0.05
0.44
0.68
0.74
0.62
0.37
0.07
-0.17
-0.28
-0.20
0.04
0.37
0.69
0.94
1.08
1.12
1.09
1.03
0.95
0.86
0.76
0.66
0.54
0.42
0.29
0.17
0.07
-0.02
-0.13
-0.24
-0.34
-0.39
-0.35
-0.24
-0.11
-0.01
0.05
0.10
0.18
0.32
0.49
0.60
0.61
0.53
0.40
0.28
0.15
-0.03
-0.32
-0.74
-1.18
-1.52
-1.64
-1.55
-1.34
-1.15
-1.06
-1.05
-1.01
-0.85
-0.54
-0.17
0.12
0.24
0.17
-0.02
-0.22
-0.34
-0.37
-0.32
-0.24
-0.15
-0.02
0.16
0.40
0.65
0.85
0.94
0.90
0.77
0.66
0.61
0.66
0.75
0.82
0.82
0.76
0.65
0.54
0.43
0.30
0.13
-0.05
-0.18
-0.21
-0.13
-0.01
0.05
-0.04
-0.29
-0.59
-0.80
-0.79
-0.54
-0.11
0.35
0.72
0.90
0.88
0.72
0.52
0.33
0.18
0.06
-0.04
-0.12
-0.18
-0.19
-0.19
-0.19
-0.20
-0.21
-0.18
-0.08
0.09
0.22
0.20
-0.05
-0.52
-1.06
-1.49
-1.65
-1.50
-1.10
-0.64
-0.24
0.01
0.17
0.34
0.58
0.90
1.24
1.48
1.52
1.34
1.02
0.67
0.39
0.27
0.31
0.46
0.64
0.79
0.88
0.90
0.84
0.71
0.50
0.21
-0.13
-0.48
-0.81
-1.06
-1.19
-1.20
-1.10
-0.95
-0.76
-0.59
-0.42
-0.24
-0.07
0.08
0.15
0.10
-0.07
-0.28
-0.44
-0.45
-0.31
-0.10
0.09
0.16
0.14
0.07
0.05
0.09
0.14
0.12
0.02
-0.15
-0.29
-0.35
-0.32
-0.24
-0.18
-0.17
-0.18
-0.15
-0.01
0.23
0.51
0.74
0.85
0.81
0.63
0.38
0.10
-0.17
-0.39
-0.53
-0.54
-0.41
-0.17
0.10
0.29
0.30
0.13
-0.14
-0.37
-0.45
-0.36
-0.14
0.11
0.32
0.43
0.46
0.44
0.41
0.37
0.34
0.33
0.37
0.46
0.59
0.72
0.81
0.83
0.79
0.68
0.50
0.27
-0.00
-0.25
-0.39
-0.37
-0.18
0.11
0.37
0.47
0.37
0.07
-0.28
-0.57
-0.69
-0.63
-0.42
-0.14
0.13
0.33
0.45
0.46
0.36
0.16
-0.12
-0.40
-0.63
-0.76
-0.78
-0.70
-0.56
-0.38
-0.18
0.03
0.23
0.37
0.39
0.26
-0.02
-0.37
-0.69
-0.87
-0.87
-0.72
-0.49
-0.29
-0.17
-0.16
-0.20
-0.23
-0.22
-0.16
-0.10
-0.05
0.02
0.13
0.32
0.58
0.83
0.94
0.84
0.53
0.14
-0.19
-0.32
-0.26
-0.08
0.10
0.16
0.09
-0.06
-0.20
-0.23
-0.10
0.16
0.49
0.73
0.78
0.56
0.13
-0.41
-0.90
-1.21
-1.30
-1.19
-0.93
-0.57
-0.15
0.27
0.62
0.78
0.66
0.28
-0.23
-0.66
-0.83
-0.64
-0.19
0.32
0.68
0.73
0.47
0.05
-0.31
-0.41
-0.20
0.23
0.66
0.90
0.83
0.52
0.11
-0.22
-0.39
-0.39
-0.32
-0.25
-0.22
-0.24
-0.28
-0.33
-0.40
-0.50
-0.62
-0.68
-0.66
-0.53
-0.31
-0.04
0.24
0.50
0.74
0.92
1.02
1.03
0.99
0.94
0.96
1.05
1.17
1.24
1.21
1.06
0.82
0.54
0.24
-0.07
-0.38
-0.67
-0.85
-0.88
-0.71
-0.42
-0.12
0.05
0.00
-0.23
-0.56
-0.86
-1.05
-1.10
-1.06
-0.98
-0.90
-0.80
-0.65
-0.46
-0.21
0.04
0.27
0.42
0.49
0.47
0.39
0.31
0.26
0.24
0.22
0.13
-0.04
-0.24
-0.35
-0.29
-0.02
0.35
0.66
0.76
0.58
0.19
-0.26
-0.57
-0.63
-0.41
-0.00
0.45
0.79
0.96
0.92
0.73
0.48
0.24
0.04
-0.12
-0.26
-0.40
-0.52
-0.59
-0.55
-0.40
-0.16
0.08
0.24
0.24
0.08
-0.16
-0.36
-0.41
-0.25
0.05
0.37
0.58
0.61
0.44
0.14
-0.17
-0.39
-0.44
-0.28
0.05
0.44
0.77
0.93
0.88
0.64
0.33
0.07
-0.04
0.00
0.16
0.31
0.37
0.32
0.16
-0.01
-0.14
-0.20
-0.21
-0.22
-0.23
-0.26
-0.30
-0.35
-0.44
-0.58
-0.75
-0.91
-0.98
-0.92
-0.71
-0.38
0.01
0.37
0.60
0.64
0.46
0.12
-0.26
-0.52
-0.56
-0.36
-0.01
0.31
0.51
0.59
0.62
0.69
0.84
0.99
1.04
0.93
0.68
0.39
0.19
0.11
0.09
0.02
-0.17
-0.45
-0.70
-0.81
-0.71
-0.44
-0.12
0.13
0.25
0.25
0.20
0.15
0.16
0.22
0.34
0.52
0.75
1.00
1.22
1.33
1.29
1.11
0.83
0.53
0.31
0.21
0.19
0.16
0.02
-0.29
-0.74
-1.22
-1.56
-1.69
-1.61
-1.43
-1.29
-1.24
-1.28
-1.33
-1.31
-1.20
-1.03
-0.85
-0.70
-0.58
-0.48
-0.37
-0.22
-0.04
0.12
0.23
0.26
0.23
0.18
0.19
0.29
0.47
0.65
0.74
0.71
0.59
0.46
0.40
0.43
0.50
0.51
0.42
0.23
-0.01
-0.21
-0.30
-0.28
-0.15
0.05
0.30
0.55
0.75
0.82
0.72
0.45
0.06
-0.33
-0.59
-0.67
-0.54
-0.25
0.11
0.44
0.68
0.80
0.81
0.70
0.49
0.22
-0.07
-0.35
-0.53
-0.56
-0.42
-0.17
0.07
0.18
0.06
-0.25
-0.62
-0.89
-0.96
-0.81
-0.55
-0.29
-0.11
-0.04
-0.04
-0.09
-0.15
-0.27
-0.42
-0.57
-0.63
-0.53
-0.27
0.04
0.25
0.23
-0.06
-0.50
-0.86
-0.96
-0.70
-0.14
0.51
1.03
1.26
1.20
0.96
0.70
0.53
0.50
0.56
0.61
0.59
0.46
0.25
0.04
-0.10
-0.12
-0.04
0.08
0.15
0.14
0.07
0.01
0.03
0.16
0.35
0.52
0.58
0.54
0.45
0.40
0.44
0.56
0.67
0.69
0.54
0.24
-0.15
-0.53
-0.80
-0.89
-0.78
-0.52
-0.19
0.11
0.31
0.37
0.29
0.13
-0.03
-0.14
-0.17
-0.10
0.03
0.19
0.34
0.47
0.54
0.51
0.35
0.06
-0.32
-0.70
-0.99
-1.11
-1.06
-0.87
-0.65
-0.50
-0.46
-0.52
-0.64
-0.71
-0.68
-0.52
-0.28
-0.04
0.09
0.07
-0.08
-0.28
-0.43
-0.47
-0.40
-0.25
-0.06
0.12
0.28
0.44
0.57
0.65
0.66
0.56
0.37
0.13
-0.07
-0.19
-0.19
-0.10
0.06
0.20
0.28
0.28
0.21
0.10
0.01
-0.04
-0.03
0.01
0.01
-0.07
-0.25
-0.51
-0.75
-0.89
-0.88
-0.73
-0.49
-0.23
0.00
0.19
0.35
0.49
0.62
0.71
0.75
0.75
0.76
0.80
0.85
0.89
0.88
0.80
0.66
0.51
0.38
0.27
0.20
0.14
0.10
0.05
-0.06
-0.25
-0.55
-0.93
-1.28
-1.47
-1.41
-1.11
-0.68
-0.27
-0.02
0.05
0.00
-0.05
-0.04
0.02
0.09
0.09
0.02
-0.08
-0.09
0.06
0.37
0.73
1.01
1.09
0.93
0.58
0.18
-0.13
-0.24
-0.11
0.22
0.63
0.97
1.10
0.97
0.63
0.23
-0.09
-0.22
-0.17
-0.01
0.15
0.26
0.31
0.35
0.44
0.64
0.99
1.49
2.12
2.78
3.39
3.81
3.99
3.94
3.77
3.63
3.66
3.90
4.28
4.67
4.92
5.02
5.03
5.09
5.37
5.91
6.69
7.63
8.71
9.89
11.07
11.95
12.02
10.77
7.99
4.00
-0.46
-4.54
-7.66
-9.77
-11.25
-12.58
-13.98
-15.26
-16.01
-15.91
-14.94
-13.48
-12.07
-11.17
-10.99
-11.46
-12.39
-13.50
-14.56
-15.39
-15.82
-15.76
-15.23
-14.39
-13.53
-13.06
-13.37
-14.73
-17.14
-20.24
-23.25
-25.11
-24.73
-21.40
-15.08
-6.52
2.85
11.41
17.81
21.43
22.48
21.82
20.47
19.24
18.44
17.90
17.29
16.32
14.99
13.53
12.29
11.49
11.23
11.47
12.14
13.17
14.50
15.92
17.10
17.60
17.03
15.16
12.10
8.22
4.11
0.35
-2.62
-4.64
-5.80
-6.36
-6.61
-6.74
-6.81
-6.76
-6.53
-6.10
-5.51
-4.85
-4.19
-3.60
-3.14
-2.89
-2.90
-3.17
-3.55
-3.81
-3.72
-3.09
-1.88
-0.19
1.78
3.79
5.66
7.23
8.43
9.32
10.01
10.72
11.69
13.04
14.84
17.01
19.41
21.73
23.47
23.97
22.65
19.32
14.35
8.61
3.15
-1.28
-4.45
-6.63
-8.21
-9.39
-10.06
-9.93
-8.80
-6.78
-4.27
-1.80
0.16
1.29
1.48
0.77
-0.56
-2.08
-3.39
-4.23
-4.71
-5.21
-6.12
-7.63
-9.50
-11.24
-12.30
-12.43
-11.75
-10.60
-9.40
-8.39
-7.58
-6.90
-6.22
-5.53
-4.90
-4.40
-4.13
-4.10
-4.24
-4.42
-4.45
-4.17
-3.53
-2.62
-1.67
-0.98
-0.78
-1.13
-1.89
-2.73
-3.31
-3.41
-2.99
-2.20
-1.31
-0.54
-0.02
0.26
0.37
0.35
0.20
-0.15
-0.72
-1.48
-2.27
-2.89
-3.13
-2.85
-2.04
-0.84
0.49
1.62
2.22
2.13
1.42
0.39
-0.55
-0.99
-0.78
-0.03
0.91
1.65
1.93
1.70
1.14
0.54
0.12
0.00
0.12
0.33
0.48
0.56
0.60
0.70
0.89
1.10
1.20
1.12
0.85
0.50
0.19
0.03
0.00
0.04
0.09
0.12
0.17
0.25
0.32
0.29
0.14
-0.10
-0.34
-0.46
-0.41
-0.23
-0.04
0.08
0.10
0.07
0.07
0.12
0.21
0.30
0.33
0.30
0.22
0.14
0.11
0.20
0.45
0.85
1.31
1.65
1.67
1.27
0.49
-0.48
-1.41
-2.06
-2.32
-2.18
-1.72
-1.06
-0.34
0.30
0.73
0.84
0.65
0.22
-0.26
-0.64
-0.82
-0.80
-0.68
-0.57
-0.57
-0.70
-0.88
-1.03
-1.03
-0.88
-0.62
-0.35
-0.16
-0.10
-0.13
-0.19
-0.16
-0.02
0.21
0.44
0.60
0.64
0.61
0.57
0.58
0.66
0.77
0.86
0.87
0.74
0.50
0.18
-0.15
-0.44
-0.65
-0.78
-0.92
-1.13
-1.45
-1.85
-2.20
-2.37
-2.25
-1.84
-1.27
-0.69
-0.22
0.10
0.31
0.46
0.61
0.72
0.75
0.59
0.20
-0.43
-1.24
-2.10
-2.86
-3.38
-3.64
-3.68
-3.64
-3.64
-3.73
-3.90
-4.13
-4.46
-4.95
-5.52
-5.89
-5.65
-4.45
-2.29
0.44
3.03
4.84
5.62
5.51
4.97
4.37
3.87
3.37
2.71
1.88
1.10
0.66
0.77
1.36
2.08
2.53
2.42
1.71
0.76
0.04
-0.01
0.74
2.09
3.53
4.57
4.89
4.52
3.74
2.89
2.21
1.74
1.38
0.98
0.51
0.02
-0.38
-0.61
-0.65
-0.58
-0.48
-0.44
-0.49
-0.61
-0.75
-0.87
-0.92
-0.88
-0.76
-0.60
-0.45
-0.32
-0.20
-0.07
0.07
0.23
0.37
0.47
0.50
0.50
0.50
0.54
0.62
0.72
0.79
0.78
0.70
0.58
0.51
0.54
0.69
0.89
1.07
1.13
1.04
0.85
0.60
0.35
0.12
-0.11
-0.39
-0.72
-1.04
-1.27
-1.33
-1.20
-0.93
-0.61
-0.34
-0.14
-0.01
0.10
0.19
0.23
0.18
0.05
-0.09
-0.12
0.07
0.47
0.95
1.30
1.37
1.11
0.63
0.10
-0.30
-0.52
-0.59
-0.58
-0.56
-0.54
-0.50
-0.43
-0.34
-0.23
-0.13
-0.01
0.12
0.24
0.30
0.29
0.20
0.06
-0.03
-0.04
0.03
0.13
0.19
0.19
0.16
0.13
0.13
0.14
0.13
0.07
-0.08
-0.28
-0.53
-0.78
-1.00
-1.16
-1.19
-1.07
-0.80
-0.45
-0.11
0.15
0.30
0.38
0.45
0.57
0.75
0.97
1.16
1.21
1.07
0.75
0.33
-0.06
-0.30
-0.34
-0.23
-0.06
0.08
0.14
0.18
0.26
0.39
0.54
0.63
0.58
0.41
0.21
0.08
0.07
0.16
0.27
0.32
0.29
0.19
0.03
-0.16
-0.38
-0.60
-0.79
-0.89
-0.84
-0.65
-0.39
-0.13
0.04
0.11
0.07
-0.03
-0.15
-0.25
-0.30
-0.26
-0.16
-0.03
0.06
0.09
0.05
0.01
0.03
0.13
0.27
0.36
0.35
0.22
0.02
-0.16
-0.28
-0.34
-0.38
-0.43
-0.49
-0.51
-0.43
-0.22
0.06
0.32
0.45
0.42
0.28
0.14
0.09
0.17
0.36
0.54
0.63
0.59
0.45
0.28
0.13
-0.02
-0.21
-0.49
-0.82
-1.10
-1.19
-1.05
-0.71
-0.32
-0.06
0.01
-0.11
-0.27
-0.37
-0.35
-0.23
-0.08
0.05
0.19
0.39
0.65
0.94
1.17
1.25
1.15
0.89
0.55
0.20
-0.11
-0.34
-0.49
-0.54
-0.49
-0.35
-0.14
0.07
0.25
0.36
0.39
0.36
0.30
0.26
0.26
0.33
0.48
0.64
0.74
0.68
0.45
0.11
-0.21
-0.39
-0.33
-0.10
0.18
0.35
0.30
0.04
-0.32
-0.64
-0.85
-0.91
-0.89
-0.85
-0.83
-0.80
-0.69
-0.48
-0.21
0.03
0.13
0.01
-0.31
-0.70
-1.00
-1.06
-0.82
-0.35
0.20
0.66
0.90
0.91
0.72
0.40
0.01
-0.39
-0.74
-0.99
-1.04
-0.85
-0.48
-0.05
0.27
0.37
0.25
0.01
-0.20
-0.24
-0.09
0.21
0.56
0.86
1.05
1.10
1.03
0.83
0.52
0.13
-0.29
-0.67
-0.92
-1.01
-0.92
-0.67
-0.31
0.12
0.55
0.95
1.29
1.53
1.64
1.60
1.40
1.06
0.64
0.24
-0.06
-0.22
-0.25
-0.21
-0.18
-0.19
-0.26
-0.35
-0.45
-0.52
-0.54
-0.53
-0.45
-0.29
-0.03
0.30
0.64
0.87
0.92
0.77
0.46
0.10
-0.19
-0.34
-0.32
-0.19
-0.03
0.09
0.14
0.12
0.08
0.07
0.11
0.21
0.34
0.48
0.59
0.64
0.62
0.48
0.20
-0.21
-0.69
-1.15
-1.45
-1.52
-1.34
-1.02
-0.66
-0.36
-0.15
-0.02
0.06
0.09
0.07
0.03
-0.01
0.00
0.08
0.19
0.29
0.32
0.28
0.21
0.13
0.06
-0.03
-0.18
-0.43
-0.72
-0.98
-1.12
-1.08
-0.88
-0.58
-0.23
0.09
0.34
0.52
0.63
0.68
0.72
0.74
0.71
0.57
0.26
-0.19
-0.69
-1.09
-1.27
-1.15
-0.81
-0.40
-0.09
-0.01
-0.14
-0.37
-0.52
-0.49
-0.24
0.17
0.63
1.01
1.26
1.36
1.35
1.24
1.06
0.81
0.53
0.26
0.04
-0.07
-0.07
-0.02
-0.00
-0.08
-0.24
-0.44
-0.57
-0.58
-0.43
-0.18
0.11
0.34
0.45
0.41
0.23
-0.03
-0.30
-0.48
-0.53
-0.44
-0.24
-0.02
0.14
0.22
0.19
0.09
-0.04
-0.18
-0.28
-0.31
-0.25
-0.09
0.13
0.34
0.46
0.46
0.33
0.11
-0.11
-0.28
-0.35
-0.35
-0.29
-0.23
-0.18
-0.14
-0.10
-0.05
0.02
0.08
0.13
0.18
0.24
0.34
0.47
0.61
0.69
0.66
0.50
0.24
-0.06
-0.32
-0.47
-0.49
-0.42
-0.31
-0.19
-0.09
0.05
0.26
0.53
0.80
0.98
0.96
0.75
0.42
0.11
-0.05
-0.03
0.13
0.31
0.42
0.38
0.20
-0.09
-0.45
-0.83
-1.16
-1.37
-1.42
-1.30
-1.06
-0.80
-0.58
-0.47
-0.43
-0.42
-0.36
-0.20
0.09
0.46
0.83
1.10
1.20
1.08
0.79
0.41
0.07
-0.18
-0.29
-0.31
-0.27
-0.20
-0.14
-0.08
-0.04
-0.05
-0.11
-0.21
-0.32
-0.39
-0.41
-0.37
-0.30
-0.22
-0.15
-0.09
-0.05
-0.02
0.01
0.09
0.23
0.45
0.69
0.88
0.96
0.88
0.66
0.37
0.09
-0.12
-0.25
-0.34
-0.42
-0.50
-0.53
-0.48
-0.31
-0.05
0.22
0.39
0.41
0.30
0.15
0.08
0.12
0.24
0.34
0.30
0.10
-0.18
-0.39
-0.41
-0.20
0.17
0.58
0.88
1.02
1.00
0.85
0.64
0.39
0.11
-0.16
-0.43
-0.62
-0.70
-0.61
-0.37
-0.00
0.36
0.60
0.60
0.33
-0.14
-0.65
-1.03
-1.17
-1.06
-0.78
-0.48
-0.27
-0.17
-0.14
-0.12
-0.07
-0.01
0.02
-0.01
-0.09
-0.18
-0.22
-0.19
-0.09
0.03
0.14
0.21
0.24
0.24
0.19
0.08
-0.11
-0.35
-0.59
-0.75
-0.81
-0.75
-0.61
-0.44
-0.26
-0.06
0.15
0.38
0.55
0.62
0.54
0.36
0.15
0.02
0.03
0.19
0.40
0.55
0.58
0.46
0.27
0.12
0.10
0.24
0.45
0.63
0.68
0.55
0.29
0.01
-0.18
-0.24
-0.16
0.01
0.19
0.36
0.51
0.60
0.63
0.53
0.27
-0.15
-0.62
-1.00
-1.14
-0.99
-0.59
-0.08
0.35
0.57
0.54
0.31
-0.02
-0.33
-0.57
-0.76
-0.91
-1.01
-1.00
-0.84
-0.54
-0.18
0.13
0.29
0.31
0.25
0.23
0.30
0.41
0.46
0.38
0.14
-0.13
-0.31
-0.28
-0.08
0.19
0.40
0.47
0.44
0.40
0.43
0.54
0.65
0.62
0.37
-0.08
-0.59
-0.96
-1.03
-0.80
-0.40
-0.04
0.10
-0.02
-0.34
-0.70
-0.97
-1.09
-1.07
-0.97
-0.85
-0.68
-0.46
-0.18
0.16
0.49
0.77
0.97
1.07
1.09
1.03
0.90
0.70
0.45
0.17
-0.11
-0.35
-0.49
-0.47
-0.28
0.06
0.46
0.80
0.95
0.86
0.60
0.27
0.04
0.02
0.22
0.55
0.86
1.00
0.88
0.57
0.22
0.00
-0.02
0.08
0.15
0.03
-0.32
-0.74
-1.05
-1.05
-0.74
-0.24
0.22
0.48
0.47
0.27
0.02
-0.18
-0.29
-0.32
-0.32
-0.30
-0.27
-0.20
-0.11
0.01
0.12
0.16
0.10
-0.08
-0.34
-0.60
-0.76
-0.78
-0.63
-0.39
-0.15
0.03
0.12
0.18
0.25
0.37
0.53
0.68
0.76
0.76
0.69
0.57
0.42
0.24
0.01
-0.26
-0.51
-0.66
-0.65
-0.47
-0.17
0.14
0.37
0.48
0.46
0.36
0.22
0.09
-0.03
-0.10
-0.09
0.03
0.24
0.46
0.62
0.66
0.57
0.44
0.33
0.27
0.23
0.17
0.03
-0.14
-0.31
-0.42
-0.46
-0.44
-0.41
-0.42
-0.46
-0.51
-0.55
-0.53
-0.46
-0.33
-0.19
-0.07
0.01
0.03
-0.01
-0.09
-0.20
-0.30
-0.40
-0.48
-0.51
-0.47
-0.34
-0.16
0.05
0.23
0.33
0.36
0.34
0.29
0.23
0.14
0.02
-0.09
-0.15
-0.11
0.04
0.25
0.45
0.57
0.59
0.54
0.48
0.43
0.38
0.28
0.11
-0.14
-0.41
-0.62
-0.67
-0.52
-0.21
0.17
0.49
0.65
0.61
0.37
0.02
-0.35
-0.63
-0.77
-0.77
-0.67
-0.54
-0.41
-0.32
-0.23
-0.11
0.05
0.25
0.44
0.58
0.63
0.61
0.59
0.62
0.71
0.83
0.88
0.77
0.49
0.10
-0.27
-0.48
-0.45
-0.24
0.01
0.15
0.10
-0.11
-0.38
-0.60
-0.71
-0.74
-0.78
-0.88
-1.03
-1.20
-1.30
-1.25
-1.02
-0.67
-0.29
0.03
0.21
0.25
0.22
0.18
0.23
0.38
0.60
0.81
0.96
1.02
0.99
0.87
0.66
0.40
0.14
-0.05
-0.08
0.04
0.26
0.48
0.60
0.56
0.42
0.25
0.11
0.03
-0.02
-0.08
-0.17
-0.25
-0.29
-0.22
-0.06
0.12
0.24
0.20
0.00
-0.28
-0.53
-0.64
-0.55
-0.30
0.00
0.26
0.39
0.37
0.24
0.07
-0.09
-0.19
-0.22
-0.19
-0.13
-0.06
0.02
0.07
0.08
-0.00
-0.17
-0.38
-0.55
-0.56
-0.35
0.09
0.63
1.14
1.44
1.48
1.26
0.89
0.46
0.07
-0.20
-0.33
-0.33
-0.23
-0.12
-0.07
-0.13
-0.26
-0.40
-0.46
-0.39
-0.24
-0.12
-0.12
-0.25
-0.44
-0.57
-0.53
-0.31
-0.00
0.24
0.31
0.20
0.04
-0.04
0.07
0.33
0.60
0.71
0.57
0.20
-0.23
-0.53
-0.60
-0.43
-0.15
0.10
0.22
0.24
0.20
0.16
0.10
-0.00
-0.20
-0.46
-0.68
-0.74
-0.59
-0.27
0.07
0.26
0.18
-0.14
-0.57
-0.95
-1.14
-1.06
-0.76
-0.37
-0.03
0.17
0.20
0.07
-0.12
-0.31
-0.43
-0.45
-0.35
-0.15
0.12
0.39
0.63
0.78
0.82
0.75
0.60
0.43
0.27
0.17
0.13
0.16
0.21
0.25
0.28
0.27
0.25
0.20
0.11
-0.02
-0.16
-0.25
-0.24
-0.09
0.15
0.39
0.53
0.54
0.43
0.26
0.08
-0.07
-0.19
-0.29
-0.36
-0.38
-0.35
-0.28
-0.20
-0.14
-0.13
-0.17
-0.24
-0.33
-0.38
-0.37
-0.27
-0.05
0.27
0.65
0.99
1.22
1.29
1.20
0.98
0.73
0.49
0.30
0.17
0.11
0.10
0.12
0.13
0.10
-0.02
-0.25
-0.60
-1.01
-1.42
-1.75
-1.92
-1.90
-1.70
-1.38
-1.02
-0.72
-0.54
-0.44
-0.38
-0.26
-0.08
0.14
0.33
0.44
0.51
0.58
0.71
0.89
1.05
1.10
1.01
0.81
0.61
0.50
0.51
0.60
0.67
0.67
0.60
0.51
0.44
0.41
0.40
0.36
0.26
0.14
0.04
-0.01
0.04
0.15
0.28
0.39
0.46
0.50
0.50
0.47
0.40
0.28
0.11
-0.10
-0.29
-0.44
-0.50
-0.49
-0.42
-0.36
-0.36
-0.45
-0.62
-0.82
-0.94
-0.86
-0.55
-0.02
0.57
1.02
1.19
1.02
0.62
0.19
-0.11
-0.21
-0.17
-0.10
-0.10
-0.18
-0.29
-0.33
-0.29
-0.23
-0.28
-0.51
-0.87
-1.27
-1.55
-1.63
-1.48
-1.17
-0.79
-0.43
-0.17
-0.02
0.05
0.10
0.20
0.37
0.61
0.86
1.06
1.16
1.14
1.02
0.83
0.58
0.30
0.05
-0.11
-0.10
0.10
0.42
0.75
0.95
0.95
0.74
0.43
0.11
-0.13
-0.29
-0.39
-0.47
-0.55
-0.60
-0.60
-0.56
-0.49
-0.45
-0.47
-0.54
-0.64
-0.69
-0.67
-0.53
-0.29
0.00
0.24
0.32
0.18
-0.14
-0.51
-0.76
-0.72
-0.40
0.09
0.54
0.77
0.73
0.50
0.23
0.03
-0.08
-0.13
-0.16
-0.15
-0.04
0.20
0.52
0.77
0.79
0.55
0.16
-0.21
-0.35
-0.23
0.06
0.34
0.46
0.39
0.22
0.05
-0.04
-0.07
-0.11
-0.21
-0.36
-0.50
-0.55
-0.48
-0.28
0.02
0.34
0.61
0.77
0.78
0.62
0.35
-0.01
-0.36
-0.65
-0.85
-0.94
-0.93
-0.80
-0.57
-0.26
0.06
0.32
0.48
0.51
0.45
0.36
0.29
0.29
0.32
0.31
0.19
-0.05
-0.38
-0.68
-0.83
-0.75
-0.45
-0.03
0.37
0.62
0.69
0.60
0.43
0.26
0.16
0.12
0.14
0.19
0.26
0.36
0.49
0.66
0.82
0.90
0.89
0.76
0.58
0.43
0.36
0.40
0.52
0.65
0.69
0.60
0.37
0.07
-0.24
-0.50
-0.67
-0.74
-0.75
-0.70
-0.62
-0.49
-0.30
-0.05
0.22
0.46
0.59
0.58
0.43
0.19
-0.10
-0.39
-0.66
-0.90
-1.10
-1.24
-1.26
-1.17
-0.94
-0.64
-0.33
-0.06
0.11
0.19
0.18
0.14
0.08
0.02
-0.05
-0.12
-0.20
-0.26
-0.27
-0.22
-0.12
-0.00
0.11
0.20
0.28
0.39
0.54
0.73
0.90
0.99
0.96
0.78
0.51
0.21
-0.01
-0.10
-0.06
0.07
0.19
0.22
0.14
-0.00
-0.11
-0.13
-0.06
0.05
0.09
0.01
-0.20
-0.47
-0.69
-0.82
-0.84
-0.78
-0.67
-0.55
-0.44
-0.30
-0.14
0.03
0.19
0.29
0.30
0.23
0.08
-0.11
-0.28
-0.37
-0.34
-0.17
0.11
0.42
0.68
0.80
0.75
0.53
0.22
-0.12
-0.43
-0.65
-0.78
-0.81
-0.76
-0.69
-0.63
-0.63
-0.71
-0.81
-0.86
-0.80
-0.59
-0.27
0.07
0.35
0.51
0.57
0.58
0.62
0.73
0.90
1.09
1.24
1.33
1.36
1.35
1.32
1.24
1.07
0.79
0.40
-0.00
-0.32
-0.45
-0.35
-0.08
0.25
0.47
0.47
0.21
-0.27
-0.85
-1.36
-1.65
-1.62
-1.26
-0.68
-0.04
0.47
0.72
0.68
0.42
0.04
-0.31
-0.54
-0.60
-0.50
-0.30
-0.07
0.10
0.18
0.15
0.03
-0.16
-0.38
-0.57
-0.67
-0.64
-0.47
-0.25
-0.08
-0.04
-0.14
-0.30
-0.43
-0.43
-0.30
-0.08
0.12
0.26
0.34
0.37
0.38
0.34
0.23
0.06
-0.14
-0.30
-0.33
-0.21
0.04
0.38
0.71
1.00
1.17
1.21
1.09
0.84
0.50
0.16
-0.10
-0.26
-0.31
-0.32
-0.34
-0.37
-0.36
-0.27
-0.11
0.06
0.14
0.05
-0.20
-0.50
-0.72
-0.74
-0.52
-0.14
0.28
0.60
0.72
0.62
0.37
0.05
-0.22
-0.34
-0.31
-0.15
0.05
0.23
0.33
0.33
0.24
0.09
-0.10
-0.30
-0.45
-0.50
-0.41
-0.18
0.12
0.38
0.49
0.38
0.10
-0.24
-0.53
-0.68
-0.68
-0.54
-0.34
-0.09
0.16
0.37
0.51
0.54
0.44
0.26
0.04
-0.16
-0.28
-0.33
-0.31
-0.23
-0.12
-0.03
-0.00
-0.07
-0.24
-0.46
-0.67
-0.76
-0.71
-0.51
-0.19
0.15
0.43
0.58
0.55
0.34
-0.03
-0.44
-0.79
-0.92
-0.68
0.03
1.22
2.76
4.32
5.51
5.88
5.13
3.21
0.40
-2.76
-5.64
-7.70
-8.58
-8.19
-6.66
-4.25
-1.41
1.35
3.47
4.49
4.25
2.99
1.28
-0.13
-0.68
-0.14
1.28
3.06
4.65
5.61
5.78
5.20
4.06
2.56
0.97
-0.45
-1.43
-1.77
-1.37
-0.32
1.11
2.50
3.47
3.85
3.79
3.69
4.02
4.97
6.38
7.75
8.53
8.41
7.44
5.92
4.23
2.60
1.05
-0.56
-2.30
-4.06
-5.55
-6.42
-6.41
-5.47
-3.76
-1.55
0.88
3.31
5.58
7.53
8.90
9.40
8.83
7.27
5.23
3.52
2.98
4.04
6.45
9.19
10.88
10.27
6.73
0.46
-7.59
-16.07
-23.67
-29.44
-32.89
-33.97
-32.93
-30.10
-25.89
-20.69
-14.93
-9.11
-3.80
0.44
3.19
4.34
4.13
3.08
1.81
0.70
-0.30
-1.61
-3.74
-6.87
-10.60
-14.08
-16.39
-17.19
-16.91
-16.61
-17.36
-19.64
-23.01
-26.51
-29.27
-30.99
-31.89
-32.18
-31.51
-29.04
-24.01
-16.47
-7.64
0.70
7.20
11.70
15.16
18.71
22.63
25.96
27.05
24.89
20.07
14.87
12.12
13.78
19.91
28.66
37.23
43.10
45.00
43.22
39.22
34.87
31.72
30.52
31.06
32.41
33.36
32.80
30.11
25.29
18.95
12.13
6.05
1.71
-0.37
-0.42
0.69
1.63
1.16
-1.45
-6.16
-12.28
-18.80
-24.80
-29.55
-32.67
-33.94
-33.30
-31.01
-27.76
-24.55
-22.19
-20.78
-19.51
-16.98
-12.01
-4.45
4.63
13.35
19.87
23.14
23.22
20.90
17.19
12.90
8.53
4.37
0.73
-2.02
-3.56
-3.78
-2.85
-1.18
0.72
2.33
3.17
2.93
1.56
-0.89
-4.17
-8.05
-12.23
-16.50
-20.54
-23.90
-25.93
-25.90
-23.42
-18.81
-13.17
-8.03
-4.52
-2.67
-1.09
2.26
8.84
18.36
28.53
35.92
37.60
32.54
22.05
8.98
-3.63
-13.73
-20.71
-25.01
-27.43
-28.67
-29.23
-29.53
-30.01
-31.05
-32.71
-34.69
-36.27
-36.77
-35.81
-33.61
-30.93
-28.85
-28.31
-29.66
-32.41
-35.27
-36.66
-35.36
-31.16
-25.08
-19.02
-15.05
-14.52
-17.68
-23.73
-31.40
-39.65
-47.94
-56.33
-65.05
-74.17
-83.43
-92.39
-100.57
-107.70
-113.62
-118.08
-120.61
-120.47
-117.04
-110.36
-101.57
-92.75
-86.05
-82.57
-81.33
-79.22
-72.01
-55.91
-28.98
8.44
54.21
105.37
158.79
211.37
259.90
301.10
332.20
351.99
361.55
364.12
363.81
363.83
364.92
365.08
360.65
348.03
325.37
293.19
253.78
209.86
163.23
114.40
63.27
10.47
-41.50
-88.37
-125.36
-149.14
-159.35
-158.77
-152.12
-144.02
-137.41
-132.89
-129.38
-125.48
-120.56
-115.06
-110.03
-106.21
-103.46
-100.79
-96.93
-91.06
-83.24
-74.43
-65.96
-58.89
-53.66
-49.92
-46.86
-43.65
-39.80
-35.34
-30.74
-26.62
-23.41
-21.19
-19.62
-18.15
-16.30
-13.88
-11.08
-8.32
-6.05
-4.52
-3.69
-3.34
-3.17
-2.93
-2.46
-1.69
-0.58
0.86
2.49
4.01
5.04
5.17
4.22
2.33
-0.10
-2.45
-4.19
-5.03
-5.03
-4.50
-3.82
-3.25
-2.80
-2.30
-1.55
-0.50
0.67
1.61
2.05
1.90
1.35
0.74
0.32
0.17
0.10
-0.13
-0.69
-1.49
-2.28
-2.80
-2.91
-2.65
-2.17
-1.63
-1.11
-0.64
-0.20
0.17
0.41
0.53
0.62
0.86
1.37
2.16
3.10
3.92
4.39
4.38
3.92
3.14
2.21
1.25
0.34
-0.45
-1.11
-1.61
-1.94
-2.13
-2.26
-2.39
-2.57
-2.76
-2.89
-2.88
-2.72
-2.46
-2.25
-2.22
-2.40
-2.66
-2.78
-2.55
-1.90
-0.94
0.08
0.91
1.40
1.57
1.51
1.37
1.22
1.08
0.95
0.85
0.83
0.95
1.26
1.70
2.19
2.61
2.87
2.96
2.90
2.73
2.48
2.12
1.60
0.96
0.32
-0.10
-0.04
0.63
1.79
3.12
4.17
4.60
4.34
3.68
3.14
3.28
4.40
6.46
8.98
11.30
12.82
13.25
12.82
12.16
12.10
13.26
15.85
19.46
23.22
26.23
27.86
28.10
27.48
26.94
27.45
29.79
34.45
41.31
49.35
56.34
59.13
54.64
41.22
19.87
-5.69
-30.10
-48.46
-58.13
-59.54
-55.41
-49.14
-43.25
-38.65
-35.02
-31.73
-28.64
-26.16
-24.83
-24.71
-25.21
-25.37
-24.28
-21.71
-18.07
-14.31
-11.45
-10.04
-10.06
-10.92
-11.73
-11.73
-10.56
-8.41
-5.91
-3.82
-2.71
-2.68
-3.42
-4.33
-4.83
-4.62
-3.72
-2.45
-1.23
-0.39
-0.12
-0.36
-0.93
-1.53
-1.91
-1.90
-1.49
-0.83
-0.12
0.45
0.76
0.80
0.64
0.36
0.05
-0.22
-0.41
-0.48
-0.43
-0.31
-0.15
0.02
0.18
0.35
0.52
0.69
0.79
0.78
0.62
0.35
0.00
-0.32
-0.54
-0.61
-0.53
-0.36
-0.19
-0.13
-0.20
-0.35
-0.48
-0.46
-0.25
0.12
0.49
0.75
0.81
0.72
0.59
0.53
0.58
0.70
0.80
0.81
0.73
0.61
0.51
0.47
0.47
0.47
0.45
0.38
0.27
0.13
-0.01
-0.14
-0.21
-0.21
-0.15
-0.07
-0.00
0.03
0.03
0.05
0.09
0.11
0.06
-0.12
-0.41
-0.72
-0.92
-0.94
-0.77
-0.46
-0.11
0.19
0.40
0.51
0.51
0.43
0.32
0.23
0.23
0.32
0.45
0.56
0.55
0.40
0.14
-0.14
-0.35
-0.42
-0.33
-0.16
-0.02
-0.00
-0.14
-0.37
-0.60
-0.71
-0.63
-0.40
-0.12
0.08
0.14
0.04
-0.11
-0.22
-0.23
-0.14
0.00
0.12
0.17
0.15
0.07
-0.02
-0.12
-0.19
-0.21
-0.13
0.08
0.38
0.66
0.83
0.80
0.57
0.22
-0.13
-0.35
-0.40
-0.31
-0.15
0.01
0.13
0.17
0.11
-0.04
-0.27
-0.50
-0.66
-0.66
-0.51
-0.27
-0.05
0.06
0.02
-0.10
-0.18
-0.10
0.14
0.51
0.87
1.13
1.21
1.15
1.01
0.87
0.74
0.59
0.37
0.08
-0.25
-0.52
-0.64
-0.61
-0.51
-0.43
-0.46
-0.55
-0.64
-0.62
-0.46
-0.19
0.08
0.27
0.34
0.28
0.15
-0.00
-0.12
-0.18
-0.21
-0.21
-0.21
-0.20
-0.15
-0.01
0.20
0.45
0.60
0.55
0.29
-0.13
-0.55
-0.83
-0.88
-0.72
-0.43
-0.11
0.19
0.42
0.56
0.60
0.51
0.30
0.03
-0.23
-0.37
-0.32
-0.10
0.21
0.50
0.65
0.62
0.43
0.19
0.02
0.02
0.19
0.40
0.54
0.47
0.20
-0.17
-0.50
-0.67
-0.66
-0.53
-0.41
-0.36
-0.37
-0.34
-0.16
0.21
0.66
1.06
1.22
1.07
0.68
0.19
-0.19
-0.34
-0.27
-0.08
0.10
0.17
0.12
0.01
-0.10
-0.14
-0.11
-0.05
-0.00
-0.00
-0.06
-0.15
-0.26
-0.37
-0.45
-0.48
-0.45
-0.36
-0.20
-0.00
0.20
0.34
0.38
0.30
0.13
-0.06
-0.22
-0.28
-0.25
-0.14
-0.01
0.08
0.07
-0.06
-0.29
-0.55
-0.75
-0.79
-0.66
-0.39
-0.07
0.19
0.32
0.32
0.23
0.11
0.02
-0.03
-0.04
0.01
0.15
0.37
0.67
0.95
1.09
1.01
0.72
0.36
0.08
0.02
0.20
0.52
0.81
0.94
0.86
0.63
0.38
0.20
0.14
0.16
0.16
0.05
-0.19
-0.55
-0.96
-1.32
-1.53
-1.52
-1.28
-0.87
-0.37
0.10
0.44
0.60
0.57
0.40
0.18
-0.03
-0.19
-0.29
-0.35
-0.39
-0.41
-0.38
-0.32
-0.22
-0.11
-0.03
0.02
0.03
0.02
-0.00
-0.00
0.03
0.09
0.15
0.19
0.20
0.19
0.20
0.24
0.34
0.45
0.54
0.58
0.52
0.34
0.05
-0.30
-0.63
-0.82
-0.79
-0.54
-0.16
0.19
0.37
0.33
0.12
-0.17
-0.42
-0.59
-0.64
-0.55
-0.31
0.08
0.57
1.01
1.27
1.21
0.85
0.27
-0.34
-0.79
-0.96
-0.81
-0.43
0.05
0.46
0.69
0.70
0.52
0.25
-0.00
-0.17
-0.25
-0.26
-0.26
-0.25
-0.23
-0.19
-0.13
-0.07
-0.00
0.07
0.16
0.29
0.43
0.58
0.66
0.65
0.54
0.35
0.13
-0.09
-0.32
-0.56
-0.81
-1.01
-1.10
-1.00
-0.74
-0.41
-0.16
-0.07
-0.15
-0.29
-0.33
-0.21
0.06
0.35
0.54
0.57
0.50
0.44
0.44
0.52
0.62
0.66
0.65
0.65
0.69
0.75
0.78
0.70
0.52
0.31
0.21
0.29
0.52
0.77
0.87
0.71
0.25
-0.39
-1.06
-1.60
-1.88
-1.81
-1.40
-0.75
-0.04
0.54
0.85
0.86
0.60
0.20
-0.21
-0.54
-0.70
-0.65
-0.37
0.09
0.63
1.10
1.37
1.34
1.01
0.45
-0.19
-0.76
-1.12
-1.21
-1.07
-0.79
-0.49
-0.28
-0.19
-0.20
-0.25
-0.26
-0.23
-0.15
-0.09
-0.09
-0.14
-0.19
-0.19
-0.09
0.11
0.35
0.54
0.61
0.54
0.39
0.25
0.18
0.20
0.24
0.22
0.09
-0.12
-0.32
-0.42
-0.36
-0.16
0.09
0.26
0.29
0.16
-0.06
-0.29
-0.47
-0.56
-0.56
-0.47
-0.31
-0.07
0.19
0.39
0.48
0.40
0.20
-0.00
-0.10
-0.01
0.23
0.54
0.81
0.92
0.85
0.63
0.34
0.10
-0.01
0.04
0.19
0.35
0.39
0.24
-0.10
-0.55
-0.96
-1.19
-1.18
-0.94
-0.56
-0.15
0.17
0.36
0.43
0.41
0.38
0.36
0.36
0.34
0.29
0.19
0.04
-0.12
-0.28
-0.39
-0.43
-0.38
-0.24
-0.08
0.04
0.06
-0.06
-0.26
-0.47
-0.61
-0.64
-0.56
-0.44
-0.31
-0.22
-0.15
-0.09
-0.04
0.00
0.04
0.07
0.10
0.15
0.21
0.27
0.33
0.39
0.48
0.64
0.86
1.10
1.27
1.26
1.03
0.60
0.09
-0.36
-0.64
-0.70
-0.55
-0.25
0.06
0.30
0.38
0.28
0.03
-0.29
-0.58
-0.76
-0.80
-0.72
-0.59
-0.41
-0.21
-0.00
0.20
0.34
0.36
0.25
0.05
-0.13
-0.20
-0.14
-0.00
0.11
0.13
0.06
-0.02
-0.02
0.07
0.18
0.23
0.18
0.08
0.03
0.10
0.28
0.46
0.50
0.36
0.07
-0.20
-0.32
-0.24
0.01
0.30
0.49
0.56
0.51
0.42
0.35
0.29
0.23
0.13
-0.02
-0.19
-0.32
-0.41
-0.45
-0.50
-0.59
-0.71
-0.81
-0.81
-0.68
-0.45
-0.22
-0.08
-0.07
-0.16
-0.28
-0.35
-0.31
-0.15
0.09
0.35
0.57
0.68
0.66
0.53
0.37
0.27
0.28
0.40
0.53
0.60
0.55
0.41
0.24
0.07
-0.07
-0.22
-0.40
-0.58
-0.71
-0.70
-0.53
-0.22
0.09
0.27
0.21
-0.06
-0.41
-0.69
-0.77
-0.64
-0.38
-0.12
0.05
0.08
0.01
-0.11
-0.22
-0.30
-0.34
-0.33
-0.27
-0.22
-0.18
-0.17
-0.10
0.09
0.45
0.90
1.27
1.41
1.23
0.80
0.33
0.00
-0.08
0.05
0.25
0.37
0.34
0.20
0.04
-0.06
-0.08
-0.04
0.02
0.04
0.01
-0.11
-0.30
-0.55
-0.80
-1.00
-1.07
-1.03
-0.91
-0.75
-0.58
-0.38
-0.09
0.28
0.68
0.98
1.08
0.96
0.69
0.42
0.22
0.11
0.02
-0.12
-0.31
-0.47
-0.53
-0.45
-0.26
-0.04
0.16
0.33
0.48
0.63
0.72
0.72
0.57
0.30
-0.01
-0.25
-0.35
-0.31
-0.15
0.05
0.27
0.47
0.64
0.76
0.81
0.76
0.61
0.39
0.13
-0.12
-0.29
-0.38
-0.38
-0.35
-0.33
-0.35
-0.41
-0.45
-0.45
-0.39
-0.31
-0.26
-0.27
-0.34
-0.45
-0.53
-0.57
-0.54
-0.47
-0.38
-0.29
-0.19
-0.12
-0.09
-0.12
-0.19
-0.25
-0.24
-0.11
0.10
0.31
0.44
0.43
0.29
0.12
-0.00
-0.03
0.06
0.23
0.42
0.58
0.68
0.67
0.55
0.32
0.06
-0.15
-0.24
-0.20
-0.05
0.13
0.31
0.46
0.55
0.54
0.38
0.08
-0.31
-0.65
-0.82
-0.75
-0.49
-0.14
0.17
0.39
0.50
0.56
0.59
0.59
0.53
0.39
0.22
0.05
-0.05
-0.07
-0.04
0.02
0.06
0.06
0.01
-0.09
-0.22
-0.36
-0.48
-0.53
-0.47
-0.27
0.04
0.40
0.72
0.92
0.92
0.72
0.36
-0.04
-0.36
-0.53
-0.56
-0.51
-0.49
-0.58
-0.75
-0.93
-1.00
-0.90
-0.62
-0.26
0.06
0.23
0.24
0.12
-0.03
-0.09
-0.02
0.17
0.42
0.65
0.79
0.83
0.79
0.72
0.64
0.55
0.41
0.22
-0.00
-0.22
-0.35
-0.36
-0.24
-0.02
0.22
0.40
0.45
0.32
0.05
-0.29
-0.58
-0.72
-0.66
-0.44
-0.15
0.14
0.36
0.48
0.49
0.38
0.16
-0.16
-0.51
-0.78
-0.88
-0.78
-0.51
-0.19
0.05
0.12
0.01
-0.21
-0.44
-0.58
-0.61
-0.56
-0.48
-0.42
-0.38
-0.32
-0.22
-0.07
0.04
0.06
-0.02
-0.12
-0.11
0.11
0.52
1.00
1.37
1.50
1.39
1.16
0.93
0.79
0.74
0.70
0.63
0.48
0.29
0.07
-0.14
-0.34
-0.50
-0.59
-0.59
-0.49
-0.35
-0.24
-0.19
-0.23
-0.29
-0.29
-0.21
-0.07
0.05
0.08
-0.04
-0.27
-0.49
-0.60
-0.54
-0.37
-0.18
-0.07
-0.09
-0.19
-0.28
-0.29
-0.18
0.04
0.30
0.54
0.69
0.73
0.65
0.49
0.30
0.16
0.14
0.23
0.40
0.54
0.55
0.39
0.11
-0.22
-0.48
-0.61
-0.61
-0.55
-0.50
-0.49
-0.50
-0.43
-0.20
0.20
0.70
1.11
1.27
1.07
0.58
-0.02
-0.52
-0.74
-0.68
-0.39
-0.04
0.24
0.39
0.41
0.37
0.27
0.12
-0.13
-0.46
-0.80
-1.04
-1.06
-0.88
-0.60
-0.38
-0.33
-0.46
-0.66
-0.79
-0.73
-0.47
-0.07
0.33
0.65
0.82
0.83
0.71
0.50
0.25
0.02
-0.13
-0.20
-0.19
-0.14
-0.07
0.02
0.16
0.33
0.49
0.59
0.59
0.48
0.32
0.19
0.14
0.16
0.20
0.17
0.05
-0.12
-0.26
-0.30
-0.21
-0.01
0.19
0.31
0.28
0.14
-0.04
-0.16
-0.15
-0.07
-0.02
-0.08
-0.29
-0.57
-0.80
-0.85
-0.72
-0.50
-0.31
-0.25
-0.30
-0.36
-0.34
-0.21
-0.03
0.13
0.23
0.31
0.44
0.65
0.86
0.93
0.76
0.36
-0.10
-0.39
-0.38
-0.06
0.40
0.75
0.84
0.67
0.36
0.10
-0.03
-0.04
-0.03
-0.11
-0.30
-0.53
-0.68
-0.65
-0.42
-0.07
0.25
0.42
0.40
0.21
-0.06
-0.28
-0.37
-0.29
-0.07
0.20
0.40
0.46
0.36
0.14
-0.14
-0.39
-0.58
-0.65
-0.58
-0.34
0.08
0.59
1.08
1.38
1.38
1.06
0.51
-0.08
-0.54
-0.77
-0.74
-0.56
-0.35
-0.22
-0.22
-0.30
-0.38
-0.36
-0.23
0.00
0.27
0.50
0.67
0.73
0.68
0.52
0.24
-0.12
-0.48
-0.73
-0.77
-0.57
-0.18
0.28
0.69
0.93
0.96
0.80
0.54
0.25
0.02
-0.09
-0.09
-0.01
0.07
0.08
0.01
-0.13
-0.28
-0.36
-0.35
-0.24
-0.05
0.18
0.43
0.65
0.76
0.68
0.38
-0.10
-0.64
-1.09
-1.36
-1.42
-1.33
-1.17
-0.96
-0.69
-0.35
0.04
0.36
0.51
0.45
0.24
0.02
-0.09
-0.03
0.16
0.39
0.59
0.70
0.72
0.65
0.49
0.25
-0.03
-0.30
-0.49
-0.59
-0.62
-0.63
-0.69
-0.76
-0.81
-0.77
-0.64
-0.44
-0.22
-0.01
0.19
0.41
0.65
0.86
0.95
0.91
0.73
0.49
0.26
0.10
0.00
-0.07
-0.13
-0.16
-0.12
0.03
0.28
0.56
0.80
0.92
0.91
0.79
0.64
0.51
0.41
0.33
0.21
0.02
-0.22
-0.44
-0.55
-0.48
-0.27
-0.02
0.12
0.07
-0.14
-0.42
-0.62
-0.69
-0.62
-0.51
-0.41
-0.36
-0.30
-0.21
-0.10
-0.04
-0.11
-0.34
-0.68
-0.99
-1.11
-0.95
-0.54
-0.02
0.44
0.73
0.82
0.75
0.63
0.52
0.42
0.29
0.13
-0.04
-0.14
-0.12
0.03
0.20
0.29
0.23
0.03
-0.21
-0.33
-0.23
0.08
0.45
0.73
0.77
0.59
0.28
-0.02
-0.20
-0.24
-0.23
-0.26
-0.38
-0.56
-0.68
-0.67
-0.48
-0.19
0.05
0.14
0.01
-0.29
-0.65
-0.95
-1.12
-1.13
-0.99
-0.75
-0.43
-0.06
0.29
0.57
0.68
0.61
0.38
0.12
-0.00
0.12
0.48
0.93
1.29
1.44
1.37
1.15
0.92
0.74
0.60
0.45
0.27
0.09
-0.01
0.03
0.20
0.41
0.58
0.62
0.57
0.47
0.40
0.39
0.40
0.39
0.35
0.28
0.22
0.20
0.16
0.05
-0.21
-0.62
-1.11
-1.55
-1.81
-1.80
-1.53
-1.11
-0.69
-0.38
-0.25
-0.26
-0.32
-0.31
-0.15
0.16
0.57
0.94
1.14
1.09
0.82
0.40
-0.05
-0.41
-0.61
-0.66
-0.58
-0.43
-0.24
-0.03
0.17
0.32
0.35
0.21
-0.10
-0.49
-0.81
-0.93
-0.79
-0.42
0.04
0.44
0.63
0.59
0.35
0.03
-0.27
-0.47
-0.57
-0.58
-0.53
-0.44
-0.31
-0.13
0.09
0.30
0.43
0.39
0.15
-0.24
-0.63
-0.86
-0.84
-0.56
-0.15
0.26
0.55
0.70
0.74
0.71
0.66
0.58
0.48
0.38
0.31
0.27
0.24
0.20
0.16
0.16
0.26
0.49
0.79
1.03
1.07
0.84
0.36
-0.25
-0.82
-1.21
-1.34
-1.20
-0.85
-0.39
0.09
0.48
0.72
0.81
0.78
0.70
0.59
0.45
0.28
0.08
-0.11
-0.27
-0.34
-0.35
-0.30
-0.21
-0.05
0.19
0.49
0.79
0.96
0.91
0.61
0.18
-0.25
-0.53
-0.59
-0.48
-0.32
-0.19
-0.11
-0.06
-0.02
0.05
0.15
0.28
0.46
0.67
0.91
1.08
1.09
0.85
0.38
-0.21
-0.77
-1.15
-1.28
-1.20
-1.02
-0.86
-0.79
-0.79
-0.83
-0.82
-0.71
-0.50
-0.24
-0.03
0.08
0.04
-0.09
-0.26
-0.40
-0.45
-0.43
-0.35
-0.26
-0.16
-0.06
0.05
0.14
0.22
0.26
0.27
0.29
0.33
0.42
0.53
0.63
0.69
0.71
0.71
0.71
0.71
0.70
0.63
0.50
0.31
0.11
-0.07
-0.20
-0.27
-0.29
-0.25
-0.14
0.03
0.22
0.37
0.41
0.28
0.01
-0.34
-0.66
-0.88
-0.95
-0.86
-0.65
-0.35
-0.04
0.22
0.38
0.45
0.42
0.32
0.16
-0.03
-0.25
-0.43
-0.50
-0.38
-0.08
0.30
0.59
0.66
0.48
0.15
-0.16
-0.33
-0.36
-0.34
-0.38
-0.57
-0.82
-1.01
-1.02
-0.81
-0.44
-0.06
0.22
0.34
0.36
0.36
0.42
0.51
0.58
0.54
0.38
0.15
-0.06
-0.15
-0.12
-0.03
0.01
-0.05
-0.15
-0.20
-0.09
0.18
0.51
0.75
0.77
0.55
0.20
-0.14
-0.33
-0.34
-0.22
-0.07
0.03
0.08
0.13
0.23
0.36
0.47
0.45
0.24
-0.13
-0.54
-0.84
-0.92
-0.78
-0.51
-0.25
-0.09
-0.05
-0.09
-0.14
-0.17
-0.17
-0.16
-0.15
-0.13
-0.09
0.02
0.17
0.34
0.47
0.51
0.46
0.36
0.31
0.38
0.61
0.92
1.18
1.25
1.11
0.85
0.61
0.51
0.55
0.62
0.61
0.47
0.26
0.08
0.01
-0.01
-0.08
-0.31
-0.71
-1.18
-1.58
-1.75
-1.64
-1.30
-0.87
-0.49
-0.27
-0.23
-0.30
-0.36
-0.31
-0.10
0.20
0.46
0.59
0.53
0.33
0.11
-0.06
-0.13
-0.12
-0.06
0.03
0.19
0.45
0.77
1.10
1.29
1.23
0.89
0.33
-0.31
-0.87
-1.21
-1.32
-1.21
-0.99
-0.74
-0.54
-0.44
-0.44
-0.53
-0.64
-0.67
-0.58
-0.36
-0.08
0.13
0.15
-0.03
-0.32
-0.56
-0.65
-0.59
-0.50
-0.50
-0.64
-0.82
-0.86
-0.62
-0.11
0.52
1.01
1.19
1.03
0.71
0.46
0.44
0.68
1.00
1.21
1.18
0.92
0.58
0.34
0.31
0.45
0.62
0.68
0.52
0.18
-0.23
-0.55
-0.67
-0.54
-0.22
0.17
0.53
0.78
0.90
0.91
0.86
0.80
0.75
0.71
0.65
0.56
0.42
0.21
-0.07
-0.40
-0.74
-1.02
-1.18
-1.17
-1.04
-0.89
-0.85
-0.94
-1.11
-1.23
-1.16
-0.85
-0.37
0.15
0.55
0.74
0.73
0.59
0.40
0.21
0.04
-0.12
-0.22
-0.22
-0.08
0.19
0.50
0.74
0.81
0.68
0.40
0.07
-0.18
-0.30
-0.31
-0.29
-0.28
-0.31
-0.33
-0.29
-0.17
-0.01
0.13
0.20
0.19
0.14
0.09
0.11
0.21
0.38
0.57
0.69
0.68
0.48
0.16
-0.19
-0.44
-0.53
-0.45
-0.28
-0.12
0.02
0.15
0.31
0.48
0.61
0.64
0.53
0.34
0.15
0.03
-0.00
-0.00
-0.03
-0.12
-0.27
-0.43
-0.55
-0.58
-0.52
-0.35
-0.14
0.07
0.21
0.23
0.15
0.03
-0.06
-0.07
-0.03
0.04
0.06
0.04
-0.00
-0.01
0.02
0.08
0.09
0.02
-0.14
-0.36
-0.57
-0.70
-0.68
-0.50
-0.19
0.19
0.55
0.82
0.95
0.91
0.74
0.49
0.23
0.02
-0.10
-0.11
-0.04
0.06
0.15
0.19
0.18
0.15
0.12
0.10
0.07
0.01
-0.12
-0.34
-0.64
-0.97
-1.25
-1.39
-1.34
-1.09
-0.71
-0.31
0.01
0.17
0.21
0.19
0.20
0.25
0.31
0.33
0.28
0.18
0.07
0.04
0.09
0.23
0.40
0.53
0.63
0.69
0.75
0.79
0.81
0.76
0.62
0.40
0.14
-0.11
-0.32
-0.49
-0.63
-0.77
-0.87
-0.91
-0.83
-0.62
-0.35
-0.09
0.08
0.12
0.05
-0.10
-0.25
-0.32
-0.27
-0.09
0.17
0.44
0.64
0.70
0.65
0.52
0.38
0.26
0.15
0.02
-0.14
-0.31
-0.43
-0.45
-0.35
-0.18
-0.00
0.11
0.11
0.03
-0.12
-0.27
-0.39
-0.45
-0.46
-0.42
-0.35
-0.25
-0.10
0.12
0.41
0.74
1.04
1.22
1.18
0.91
0.46
-0.04
-0.41
-0.59
-0.55
-0.40
-0.25
-0.19
-0.20
-0.24
-0.25
-0.19
-0.08
0.03
0.11
0.13
0.10
0.04
-0.04
-0.10
-0.14
-0.14
-0.09
-0.03
-0.01
-0.06
-0.18
-0.30
-0.36
-0.30
-0.15
0.04
0.19
0.24
0.21
0.17
0.20
0.34
0.55
0.75
0.80
0.64
0.31
-0.08
-0.40
-0.52
-0.44
-0.22
0.03
0.23
0.34
0.38
0.38
0.32
0.21
0.06
-0.06
-0.08
0.05
0.31
0.57
0.73
0.69
0.48
0.20
-0.02
-0.10
-0.04
0.09
0.18
0.17
0.06
-0.10
-0.24
-0.31
-0.33
-0.34
-0.39
-0.51
-0.66
-0.79
-0.85
-0.84
-0.81
-0.78
-0.77
-0.72
-0.57
-0.29
0.07
0.40
0.60
0.59
0.43
0.23
0.07
0.00
-0.02
-0.08
-0.23
-0.44
-0.66
-0.80
-0.83
-0.72
-0.55
-0.36
-0.21
-0.12
-0.06
0.01
0.17
0.41
0.70
0.93
1.03
0.99
0.90
0.88
1.01
1.26
1.51
1.58
1.39
0.99
0.53
0.19
0.06
0.11
0.23
0.28
0.20
0.01
-0.19
-0.33
-0.39
-0.39
-0.41
-0.48
-0.58
-0.68
-0.74
-0.77
-0.81
-0.88
-0.97
-1.02
-0.95
-0.74
-0.46
-0.20
-0.03
0.02
0.03
0.07
0.20
0.39
0.60
0.75
0.78
0.68
0.51
0.31
0.19
0.21
0.41
0.75
1.11
1.34
1.33
1.04
0.56
0.01
-0.45
-0.76
-0.91
-0.99
-1.06
-1.17
-1.29
-1.37
-1.37
-1.27
-1.14
-1.01
-0.93
-0.88
-0.83
-0.75
-0.61
-0.45
-0.26
-0.06
0.16
0.36
0.52
0.58
0.50
0.28
0.02
-0.17
-0.18
0.01
0.33
0.68
0.95
1.09
1.14
1.11
1.04
0.94
0.79
0.58
0.36
0.19
0.13
0.16
0.25
0.32
0.32
0.26
0.22
0.25
0.36
0.46
0.45
0.24
-0.13
-0.55
-0.84
-0.91
-0.75
-0.46
-0.15
0.08
0.24
0.37
0.48
0.57
0.56
0.44
0.21
-0.02
-0.19
-0.24
-0.24
-0.25
-0.34
-0.51
-0.70
-0.83
-0.86
-0.81
-0.72
-0.65
-0.60
-0.55
-0.44
-0.24
0.04
0.31
0.46
0.45
0.26
-0.02
-0.26
-0.39
-0.35
-0.19
0.03
0.22
0.35
0.41
0.41
0.36
0.27
0.18
0.11
0.10
0.15
0.25
0.37
0.49
0.60
0.68
0.72
0.69
0.59
0.47
0.37
0.33
0.39
0.51
0.64
0.72
0.67
0.48
0.17
-0.21
-0.55
-0.75
-0.75
-0.58
-0.32
-0.07
0.08
0.14
0.14
0.14
0.16
0.19
0.18
0.09
-0.06
-0.21
-0.30
-0.29
-0.22
-0.15
-0.15
-0.23
-0.35
-0.44
-0.44
-0.34
-0.21
-0.14
-0.17
-0.26
-0.33
-0.30
-0.15
0.04
0.18
0.19
0.09
-0.03
-0.08
-0.04
0.04
0.05
-0.06
-0.28
-0.52
-0.66
-0.67
-0.56
-0.43
-0.36
-0.39
-0.50
-0.61
-0.64
-0.57
-0.40
-0.19
0.01
0.20
0.39
0.59
0.78
0.93
0.98
0.88
0.66
0.38
0.11
-0.07
-0.17
-0.18
-0.12
-0.01
0.14
0.31
0.47
0.56
0.55
0.48
0.37
0.29
0.26
0.26
0.25
0.22
0.18
0.14
0.13
0.11
0.03
-0.14
-0.38
-0.59
-0.64
-0.43
0.03
0.60
1.06
1.24
1.04
0.55
-0.04
-0.51
-0.72
-0.63
-0.34
-0.01
0.24
0.30
0.15
-0.18
-0.59
-0.99
-1.27
-1.36
-1.27
-1.07
-0.83
-0.61
-0.43
-0.28
-0.15
-0.06
-0.07
-0.20
-0.41
-0.61
-0.70
-0.61
-0.35
-0.01
0.30
0.52
0.65
0.73
0.81
0.88
0.91
0.88
0.75
0.57
0.39
0.26
0.22
0.24
0.31
0.35
0.36
0.31
0.25
0.21
0.19
0.17
0.11
-0.05
-0.33
-0.65
-0.91
-0.98
-0.80
-0.41
0.08
0.50
0.74
0.78
0.70
0.58
0.51
0.48
0.42
0.30
0.10
-0.09
-0.21
-0.21
-0.13
-0.04
-0.03
-0.11
-0.24
-0.37
-0.45
-0.49
-0.49
-0.49
-0.47
-0.43
-0.34
-0.19
-0.00
0.20
0.39
0.54
0.62
0.58
0.43
0.20
-0.02
-0.14
-0.07
0.19
0.57
0.94
1.15
1.08
0.70
0.09
-0.58
-1.09
-1.28
-1.12
-0.67
-0.10
0.44
0.81
0.94
0.85
0.59
0.25
-0.06
-0.27
-0.33
-0.30
-0.25
-0.28
-0.44
-0.72
-1.03
-1.26
-1.32
-1.20
-0.95
-0.65
-0.35
-0.09
0.12
0.32
0.50
0.61
0.62
0.49
0.27
0.06
-0.03
0.07
0.33
0.65
0.89
0.94
0.76
0.40
0.00
-0.32
-0.46
-0.41
-0.23
-0.00
0.20
0.34
0.41
0.44
0.41
0.31
0.13
-0.11
-0.34
-0.49
-0.50
-0.37
-0.15
0.05
0.16
0.15
0.03
-0.14
-0.28
-0.34
-0.30
-0.18
-0.03
0.12
0.27
0.44
0.65
0.87
1.01
0.95
0.62
0.06
-0.57
-1.06
-1.25
-1.11
-0.72
-0.25
0.14
0.37
0.43
0.36
0.19
-0.04
-0.29
-0.52
-0.67
-0.73
-0.75
-0.76
-0.80
-0.87
-0.89
-0.81
-0.58
-0.24
0.13
0.44
0.61
0.64
0.59
0.52
0.48
0.48
0.47
0.41
0.28
0.11
-0.05
-0.13
-0.06
0.17
0.51
0.89
1.19
1.30
1.17
0.82
0.34
-0.16
-0.56
-0.78
-0.81
-0.65
-0.37
-0.04
0.25
0.42
0.39
0.18
-0.15
-0.45
-0.61
-0.58
-0.40
-0.19
-0.09
-0.14
-0.29
-0.37
-0.28
0.03
0.44
0.79
0.92
0.81
0.56
0.35
0.33
0.55
0.92
1.30
1.53
1.48
1.10
0.47
-0.28
-0.94
-1.35
-1.44
-1.27
-1.00
-0.77
-0.69
-0.71
-0.73
-0.66
-0.50
-0.33
-0.21
-0.18
-0.20
-0.18
-0.12
-0.05
-0.06
-0.17
-0.32
-0.38
-0.24
0.06
0.42
0.62
0.55
0.23
-0.17
-0.46
-0.52
-0.35
-0.09
0.11
0.16
0.10
0.03
0.05
0.16
0.32
0.45
0.48
0.45
0.39
0.36
0.37
0.39
0.37
0.28
0.15
0.01
-0.10
-0.14
-0.12
-0.03
0.08
0.18
0.22
0.18
0.03
-0.14
-0.28
-0.31
-0.26
-0.17
-0.12
-0.14
-0.20
-0.21
-0.12
0.06
0.22
0.31
0.27
0.17
0.08
0.07
0.15
0.28
0.37
0.38
0.29
0.09
-0.18
-0.47
-0.71
-0.84
-0.79
-0.58
-0.30
-0.06
0.02
-0.08
-0.27
-0.44
-0.47
-0.34
-0.13
0.07
0.17
0.16
0.11
0.09
0.14
0.24
0.33
0.38
0.36
0.27
0.14
0.03
-0.07
-0.12
-0.12
-0.06
0.07
0.25
0.42
0.55
0.59
0.55
0.46
0.39
0.36
0.36
0.34
0.24
0.06
-0.17
-0.34
-0.39
-0.27
-0.05
0.19
0.35
0.37
0.28
0.15
0.03
-0.04
-0.06
-0.08
-0.14
-0.25
-0.37
-0.45
-0.43
-0.30
-0.09
0.14
0.30
0.36
0.34
0.26
0.19
0.13
0.08
0.02
-0.09
-0.21
-0.34
-0.44
-0.51
-0.56
-0.60
-0.62
-0.62
-0.56
-0.45
-0.29
-0.14
-0.04
-0.03
-0.18
-0.51
-1.00
-1.57
-2.09
-2.40
-2.43
-2.20
-1.84
-1.49
-1.27
-1.21
-1.27
-1.34
-1.36
-1.31
-1.26
-1.30
-1.54
-2.05
-2.81
-3.67
-4.43
-4.88
-4.89
-4.52
-3.97
-3.45
-3.15
-3.16
-3.47
-4.11
-5.03
-6.08
-6.92
-7.06
-6.05
-3.82
-0.72
2.52
5.15
6.69
7.15
6.91
6.47
6.11
5.85
5.52
4.99
4.28
3.59
3.16
3.08
3.29
3.60
3.78
3.72
3.40
2.93
2.48
2.15
1.97
1.93
1.94
1.94
1.87
1.70
1.43
1.08
0.69
0.33
0.08
-0.03
-0.04
-0.04
-0.11
-0.26
-0.41
-0.42
-0.22
0.16
0.57
0.81
0.80
0.57
0.30
0.14
0.16
0.30
0.42
0.35
0.04
-0.45
-0.99
-1.39
-1.54
-1.44
-1.19
-0.97
-0.96
-1.25
-1.73
-2.20
-2.38
-2.13
-1.49
-0.72
-0.15
-0.02
-0.38
-1.02
-1.71
-2.24
-2.59
-2.84
-3.06
-3.21
-3.13
-2.62
-1.63
-0.25
1.30
2.75
3.86
4.44
4.40
3.76
2.60
1.18
-0.17
-1.12
-1.40
-0.89
0.40
2.30
4.46
6.33
7.37
7.19
5.74
3.47
1.12
-0.57
-1.22
-0.91
-0.08
0.77
1.30
1.54
1.66
1.90
2.31
2.76
3.04
3.04
2.81
2.49
2.31
2.40
2.72
3.05
3.09
2.61
1.58
0.16
-1.33
-2.53
-3.23
-3.38
-3.11
-2.65
-2.21
-1.91
-1.76
-1.68
-1.54
-1.28
-0.93
-0.59
-0.38
-0.37
-0.57
-0.86
-1.12
-1.24
-1.16
-0.93
-0.60
-0.28
-0.03
0.08
0.05
-0.10
-0.30
-0.47
-0.57
-0.56
-0.46
-0.29
-0.08
0.15
0.38
0.53
0.55
0.44
0.25
0.07
0.08
0.33
0.69
0.90
0.64
-0.25
-1.66
-3.18
-4.30
-4.62
-4.05
-2.84
-1.42
-0.22
0.52
0.83
0.85
0.79
0.73
0.70
0.63
0.52
0.37
0.24
0.16
0.15
0.23
0.36
0.45
0.44
0.31
0.04
-0.26
-0.50
-0.56
-0.42
-0.12
0.23
0.51
0.70
0.78
0.79
0.76
0.68
0.52
0.32
0.12
-0.00
-0.00
0.09
0.21
0.29
0.28
0.20
0.09
-0.03
-0.12
-0.20
-0.24
-0.25
-0.19
-0.08
0.04
0.14
0.14
0.01
-0.24
-0.53
-0.75
-0.81
-0.67
-0.34
0.09
0.51
0.83
1.01
1.06
1.03
0.95
0.85
0.77
0.74
0.80
0.93
1.09
1.20
1.17
0.93
0.47
-0.13
-0.76
-1.28
-1.58
-1.64
-1.49
-1.22
-0.93
-0.67
-0.49
-0.39
-0.36
-0.42
-0.57
-0.76
-0.92
-0.97
-0.85
-0.59
-0.31
-0.09
-0.01
-0.06
-0.15
-0.18
-0.10
0.06
0.21
0.26
0.20
0.08
-0.01
0.02
0.14
0.27
0.32
0.24
0.08
-0.03
0.00
0.17
0.39
0.52
0.48
0.33
0.17
0.11
0.20
0.34
0.42
0.37
0.21
0.03
-0.06
-0.06
-0.00
0.01
-0.07
-0.21
-0.33
-0.34
-0.25
-0.12
-0.03
-0.02
-0.07
-0.10
-0.07
0.03
0.12
0.16
0.09
-0.07
-0.28
-0.45
-0.52
-0.46
-0.27
0.00
0.27
0.48
0.57
0.55
0.44
0.30
0.21
0.20
0.31
0.52
0.81
1.10
1.31
1.39
1.30
1.08
0.80
0.54
0.36
0.31
0.37
0.49
0.61
0.64
0.50
0.17
-0.24
-0.58
-0.67
-0.44
0.04
0.56
0.88
0.90
0.64
0.27
-0.04
-0.20
-0.27
-0.37
-0.61
-1.01
-1.45
-1.76
-1.81
-1.56
-1.15
-0.75
-0.51
-0.46
-0.51
-0.55
-0.44
-0.20
0.10
0.30
0.33
0.18
-0.03
-0.17
-0.14
0.01
0.20
0.27
0.15
-0.17
-0.60
-1.01
-1.31
-1.44
-1.42
-1.26
-1.00
-0.61
-0.09
0.55
1.21
1.72
1.96
1.83
1.39
0.74
0.07
-0.51
-0.90
-1.09
-1.11
-0.99
-0.76
-0.48
-0.20
-0.00
0.09
0.09
0.03
0.01
0.09
0.30
0.58
0.82
0.90
0.73
0.31
-0.25
-0.76
-1.02
-0.91
-0.49
0.09
0.58
0.76
0.60
0.20
-0.22
-0.46
-0.45
-0.25
0.00
0.19
0.30
0.36
0.43
0.51
0.53
0.41
0.16
-0.15
-0.39
-0.44
-0.27
0.04
0.37
0.64
0.79
0.82
0.77
0.67
0.54
0.41
0.31
0.25
0.20
0.10
-0.10
-0.42
-0.81
-1.15
-1.32
-1.23
-0.94
-0.55
-0.21
0.01
0.09
0.11
0.15
0.23
0.33
0.37
0.31
0.19
0.10
0.12
0.28
0.55
0.80
0.94
0.92
0.80
0.68
0.62
0.64
0.69
0.69
0.60
0.41
0.24
0.19
0.32
0.60
0.94
1.16
1.20
1.05
0.78
0.50
0.31
0.22
0.20
0.25
0.35
0.51
0.69
0.77
0.65
0.23
-0.45
-1.26
-1.98
-2.41
-2.47
-2.16
-1.60
-0.96
-0.38
0.03
0.28
0.39
0.44
0.48
0.51
0.50
0.40
0.19
-0.07
-0.30
-0.44
-0.47
-0.40
-0.35
-0.37
-0.51
-0.76
-1.03
-1.25
-1.34
-1.27
-1.08
-0.82
-0.57
-0.36
-0.16
0.05
0.28
0.50
0.62
0.57
0.34
0.01
-0.29
-0.47
-0.48
-0.36
-0.17
0.01
0.15
0.24
0.30
0.29
0.20
0.04
-0.18
-0.38
-0.49
-0.47
-0.32
-0.10
0.12
0.27
0.34
0.34
0.32
0.35
0.46
0.62
0.76
0.83
0.78
0.66
0.53
0.43
0.38
0.34
0.27
0.14
-0.03
-0.21
-0.37
-0.50
-0.60
-0.70
-0.78
-0.81
-0.76
-0.62
-0.42
-0.21
-0.04
0.07
0.15
0.28
0.48
0.76
1.04
1.19
1.11
0.79
0.32
-0.19
-0.60
-0.81
-0.83
-0.70
-0.47
-0.20
0.05
0.25
0.36
0.36
0.24
0.04
-0.16
-0.33
-0.41
-0.42
-0.36
-0.25
-0.11
0.07
0.23
0.36
0.40
0.38
0.31
0.24
0.20
0.21
0.22
0.20
0.11
-0.04
-0.20
-0.32
-0.35
-0.26
-0.04
0.26
0.56
0.78
0.83
0.71
0.49
0.26
0.12
0.07
0.07
0.05
-0.00
-0.07
-0.10
-0.09
-0.04
0.02
0.08
0.15
0.24
0.36
0.44
0.43
0.28
0.03
-0.22
-0.38
-0.41
-0.36
-0.32
-0.33
-0.40
-0.47
-0.43
-0.28
-0.05
0.14
0.20
0.09
-0.14
-0.39
-0.57
-0.62
-0.56
-0.42
-0.25
-0.08
0.07
0.20
0.26
0.25
0.17
0.09
0.04
0.05
0.07
0.06
-0.00
-0.08
-0.11
-0.01
0.17
0.38
0.48
0.41
0.20
-0.08
-0.34
-0.52
-0.63
-0.69
-0.74
-0.77
-0.75
-0.66
-0.49
-0.28
-0.06
0.14
0.32
0.50
0.67
0.82
0.90
0.87
0.70
0.44
0.16
-0.04
-0.08
0.03
0.24
0.46
0.59
0.60
0.50
0.37
0.27
0.24
0.27
0.30
0.27
0.17
0.03
-0.13
-0.24
-0.32
-0.36
-0.41
-0.49
-0.57
-0.63
-0.63
-0.56
-0.45
-0.35
-0.31
-0.38
-0.54
-0.75
-0.95
-1.06
-1.05
-0.87
-0.51
0.01
0.57
1.07
1.39
1.50
1.42
1.22
0.98
0.71
0.43
0.16
-0.07
-0.21
-0.24
-0.22
-0.24
-0.36
-0.61
-0.90
-1.14
-1.25
-1.18
-0.98
-0.72
-0.47
-0.28
-0.13
-0.01
0.14
0.31
0.50
0.66
0.76
0.77
0.73
0.66
0.61
0.58
0.57
0.55
0.53
0.50
0.44
0.31
0.10
-0.18
-0.43
-0.55
-0.48
-0.25
0.05
0.29
0.42
0.43
0.38
0.33
0.31
0.31
0.30
0.25
0.14
-0.03
-0.25
-0.46
-0.60
-0.58
-0.38
-0.04
0.31
0.55
0.58
0.39
0.04
-0.34
-0.66
-0.85
-0.90
-0.82
-0.67
-0.48
-0.29
-0.15
-0.09
-0.12
-0.22
-0.35
-0.47
-0.54
-0.51
-0.37
-0.10
0.25
0.63
0.92
1.03
0.89
0.52
0.05
-0.37
-0.58
-0.50
-0.19
0.24
0.64
0.89
0.95
0.83
0.61
0.38
0.24
0.25
0.36
0.50
0.53
0.38
0.07
-0.31
-0.60
-0.71
-0.66
-0.55
-0.49
-0.54
-0.68
-0.84
-0.95
-0.99
-0.93
-0.75
-0.44
0.03
0.59
1.10
1.39
1.35
1.02
0.55
0.17
0.04
0.20
0.52
0.83
0.96
0.88
0.63
0.32
0.03
-0.19
-0.35
-0.44
-0.43
-0.31
-0.10
0.11
0.22
0.14
-0.13
-0.50
-0.79
-0.88
-0.73
-0.40
-0.03
0.24
0.34
0.24
-0.02
-0.37
-0.69
-0.90
-0.94
-0.78
-0.48
-0.12
0.22
0.45
0.55
0.51
0.33
0.02
-0.39
-0.81
-1.09
-1.12
-0.84
-0.30
0.35
0.91
1.27
1.35
1.22
0.95
0.62
0.31
0.06
-0.09
-0.13
-0.03
0.17
0.41
0.61
0.71
0.65
0.45
0.17
-0.07
-0.19
-0.17
-0.05
0.07
0.11
0.03
-0.12
-0.21
-0.16
0.07
0.40
0.69
0.83
0.77
0.52
0.17
-0.16
-0.39
-0.50
-0.49
-0.42
-0.33
-0.27
-0.26
-0.30
-0.36
-0.42
-0.49
-0.57
-0.67
-0.79
-0.93
-1.05
-1.11
-1.06
-0.89
-0.59
-0.24
0.07
0.25
0.30
0.25
0.17
0.12
0.10
0.08
0.03
-0.03
-0.06
0.00
0.16
0.33
0.44
0.46
0.42
0.42
0.53
0.73
0.94
1.06
1.03
0.87
0.64
0.40
0.13
-0.21
-0.63
-1.04
-1.32
-1.36
-1.12
-0.71
-0.29
-0.01
0.07
0.01
-0.10
-0.17
-0.16
-0.08
0.02
0.13
0.23
0.32
0.40
0.46
0.51
0.56
0.59
0.60
0.54
0.39
0.15
-0.12
-0.36
-0.48
-0.46
-0.31
-0.08
0.17
0.40
0.57
0.68
0.72
0.70
0.62
0.49
0.37
0.26
0.20
0.17
0.14
0.08
-0.04
-0.23
-0.46
-0.72
-0.96
-1.15
-1.25
-1.21
-1.00
-0.62
-0.13
0.38
0.81
1.07
1.15
1.06
0.86
0.61
0.33
0.07
-0.12
-0.21
-0.17
0.00
0.24
0.45
0.55
0.51
0.34
0.12
-0.06
-0.14
-0.07
0.10
0.29
0.37
0.26
-0.05
-0.45
-0.80
-0.98
-0.92
-0.70
-0.40
-0.13
0.06
0.17
0.19
0.12
-0.02
-0.21
-0.39
-0.49
-0.50
-0.47
-0.46
-0.54
-0.71
-0.92
-1.08
-1.15
-1.13
-1.06
-0.96
-0.82
-0.63
-0.39
-0.16
-0.00
0.02
-0.07
-0.20
-0.28
-0.25
-0.07
0.21
0.55
0.86
1.08
1.15
1.04
0.78
0.47
0.25
0.22
0.42
0.75
1.08
1.30
1.32
1.18
0.94
0.69
0.48
0.36
0.30
0.27
0.24
0.18
0.13
0.12
0.20
0.34
0.50
0.57
0.51
0.30
0.00
-0.27
-0.46
-0.52
-0.49
-0.42
-0.33
-0.28
-0.27
-0.31
-0.40
-0.50
-0.57
-0.58
-0.52
-0.39
-0.21
-0.00
0.18
0.29
0.28
0.15
-0.06
-0.21
-0.20
-0.02
0.28
0.55
0.68
0.65
0.50
0.31
0.13
-0.07
-0.32
-0.62
-0.90
-1.07
-1.04
-0.81
-0.48
-0.18
-0.02
-0.07
-0.29
-0.59
-0.87
-1.02
-0.95
-0.66
-0.21
0.27
0.62
0.76
0.67
0.44
0.15
-0.11
-0.27
-0.32
-0.25
-0.08
0.15
0.36
0.48
0.40
0.11
-0.29
-0.64
-0.80
-0.65
-0.25
0.28
0.72
0.92
0.84
0.57
0.27
0.11
0.16
0.38
0.61
0.70
0.58
0.30
-0.05
-0.30
-0.40
-0.34
-0.22
-0.12
-0.11
-0.18
-0.28
-0.36
-0.38
-0.36
-0.34
-0.34
-0.37
-0.38
-0.32
-0.18
0.04
0.24
0.33
0.28
0.14
-0.01
-0.05
0.04
0.22
0.36
0.38
0.27
0.10
-0.02
0.01
0.17
0.38
0.56
0.62
0.56
0.39
0.17
-0.05
-0.19
-0.26
-0.23
-0.14
-0.04
0.04
0.09
0.11
0.12
0.14
0.13
0.09
-0.01
-0.12
-0.17
-0.11
0.06
0.30
0.52
0.65
0.67
0.59
0.46
0.32
0.18
0.06
-0.05
-0.12
-0.13
-0.06
0.09
0.28
0.44
0.47
0.32
-0.00
-0.42
-0.80
-1.06
-1.12
-1.01
-0.80
-0.57
-0.35
-0.18
-0.03
0.09
0.16
0.16
0.10
-0.01
-0.12
-0.14
-0.08
0.07
0.20
0.28
0.24
0.14
0.04
0.02
0.08
0.20
0.28
0.28
0.17
0.02
-0.12
-0.21
-0.26
-0.33
-0.43
-0.57
-0.69
-0.69
-0.53
-0.23
0.13
0.44
0.60
0.60
0.46
0.28
0.12
0.03
0.01
0.05
0.14
0.28
0.43
0.55
0.56
0.41
0.14
-0.15
-0.33
-0.32
-0.14
0.08
0.22
0.19
0.04
-0.11
-0.15
-0.01
0.25
0.52
0.68
0.69
0.57
0.37
0.15
-0.06
-0.27
-0.47
-0.63
-0.71
-0.66
-0.52
-0.34
-0.19
-0.09
-0.04
-0.00
0.05
0.11
0.15
0.17
0.17
0.20
0.28
0.39
0.45
0.40
0.21
-0.04
-0.23
-0.25
-0.04
0.33
0.69
0.88
0.82
0.56
0.23
-0.01
-0.06
0.05
0.21
0.30
0.24
0.06
-0.18
-0.38
-0.51
-0.56
-0.58
-0.60
-0.65
-0.73
-0.83
-0.93
-1.00
-0.98
-0.87
-0.69
-0.54
-0.49
-0.53
-0.60
-0.59
-0.41
-0.07
0.34
0.65
0.73
0.52
0.09
-0.39
-0.76
-0.87
-0.71
-0.36
0.03
0.30
0.36
0.23
0.03
-0.14
-0.20
-0.14
-0.02
0.11
0.23
0.34
0.44
0.51
0.53
0.49
0.40
0.30
0.23
0.21
0.22
0.24
0.25
0.25
0.27
0.34
0.48
0.66
0.87
1.02
1.04
0.91
0.63
0.28
-0.06
-0.31
-0.43
-0.43
-0.32
-0.12
0.13
0.41
0.65
0.76
0.70
0.46
0.11
-0.23
-0.51
-0.67
-0.77
-0.81
-0.81
-0.76
-0.64
-0.48
-0.33
-0.26
-0.25
-0.28
-0.26
-0.17
-0.05
0.04
0.04
-0.03
-0.10
-0.11
-0.03
0.08
0.17
0.19
0.15
0.11
0.12
0.20
0.30
0.38
0.42
0.46
0.51
0.58
0.62
0.54
0.33
0.06
-0.17
-0.27
-0.24
-0.13
-0.05
-0.06
-0.13
-0.17
-0.11
0.06
0.24
0.35
0.32
0.16
-0.03
-0.16
-0.20
-0.18
-0.18
-0.25
-0.39
-0.57
-0.71
-0.79
-0.78
-0.73
-0.65
-0.58
-0.50
-0.41
-0.30
-0.18
-0.09
-0.03
0.00
0.06
0.19
0.43
0.76
1.07
1.25
1.20
0.91
0.50
0.12
-0.10
-0.13
-0.02
0.12
0.20
0.21
0.18
0.17
0.18
0.21
0.23
0.22
0.23
0.29
0.39
0.50
0.57
0.58
0.55
0.49
0.41
0.24
-0.05
-0.48
-0.93
-1.24
-1.29
-1.04
-0.63
-0.27
-0.14
-0.31
-0.66
-1.00
-1.16
-1.10
-0.88
-0.67
-0.60
-0.69
-0.83
-0.88
-0.73
-0.40
0.02
0.40
0.64
0.72
0.67
0.56
0.43
0.31
0.18
0.08
0.02
0.04
0.14
0.28
0.39
0.45
0.45
0.44
0.43
0.41
0.35
0.25
0.14
0.12
0.25
0.49
0.72
0.79
0.60
0.19
-0.26
-0.55
-0.58
-0.37
-0.08
0.14
0.21
0.14
0.04
-0.06
-0.13
-0.21
-0.28
-0.30
-0.22
-0.02
0.28
0.59
0.78
0.77
0.54
0.12
-0.37
-0.82
-1.09
-1.12
-0.91
-0.54
-0.15
0.14
0.26
0.24
0.15
0.10
0.15
0.30
0.53
0.79
1.03
1.19
1.23
1.12
0.89
0.56
0.20
-0.18
-0.56
-0.91
-1.19
-1.32
-1.24
-0.95
-0.51
-0.03
0.36
0.57
0.61
0.53
0.41
0.28
0.15
-0.01
-0.17
-0.31
-0.37
-0.32
-0.19
-0.04
0.05
0.04
-0.08
-0.27
-0.45
-0.54
-0.49
-0.28
0.03
0.32
0.50
0.48
0.25
-0.13
-0.54
-0.81
-0.83
-0.58
-0.09
0.50
1.04
1.40
1.50
1.32
0.94
0.45
-0.01
-0.32
-0.41
-0.26
0.05
0.35
0.50
0.40
0.07
-0.36
-0.71
-0.86
-0.78
-0.51
-0.15
0.23
0.55
0.77
0.83
0.71
0.41
-0.01
-0.43
-0.75
-0.91
-0.92
-0.88
-0.86
-0.86
-0.86
-0.79
-0.59
-0.26
0.16
0.59
0.95
1.14
1.14
0.93
0.58
0.20
-0.08
-0.18
-0.10
0.08
0.23
0.26
0.18
0.06
-0.02
-0.03
-0.01
-0.04
-0.16
-0.33
-0.49
-0.54
-0.46
-0.31
-0.17
-0.12
-0.13
-0.15
-0.15
-0.11
-0.05
0.01
0.07
0.17
0.34
0.55
0.73
0.78
0.66
0.45
0.26
0.20
0.30
0.47
0.54
0.38
-0.02
-0.55
-1.01
-1.21
-1.08
-0.65
-0.10
0.37
0.61
0.56
0.29
-0.07
-0.37
-0.45
-0.28
0.11
0.57
0.94
1.10
1.02
0.73
0.36
-0.00
-0.27
-0.43
-0.48
-0.43
-0.29
-0.09
0.11
0.26
0.31
0.21
0.00
-0.25
-0.45
-0.56
-0.57
-0.51
-0.46
-0.48
-0.60
-0.78
-0.95
-1.03
-0.99
-0.82
-0.55
-0.23
0.11
0.43
0.71
0.88
0.90
0.75
0.48
0.20
0.02
0.02
0.17
0.36
0.47
0.41
0.20
-0.04
-0.19
-0.19
-0.06
0.12
0.25
0.29
0.28
0.30
0.38
0.50
0.57
0.54
0.40
0.24
0.14
0.17
0.28
0.41
0.46
0.41
0.28
0.12
-0.02
-0.15
-0.29
-0.45
-0.62
-0.73
-0.75
-0.65
-0.49
-0.35
-0.27
-0.29
-0.38
-0.52
-0.70
-0.92
-1.13
-1.26
-1.19
-0.87
-0.30
0.36
0.95
1.29
1.34
1.16
0.87
0.61
0.46
0.43
0.48
0.56
0.65
0.72
0.73
0.66
0.49
0.21
-0.12
-0.43
-0.65
-0.73
-0.70
-0.59
-0.46
-0.33
-0.22
-0.12
-0.05
-0.02
-0.09
-0.29
-0.59
-0.91
-1.13
-1.17
-1.01
-0.71
-0.35
-0.00
0.28
0.48
0.58
0.57
0.43
0.17
-0.15
-0.46
-0.64
-0.63
-0.43
-0.11
0.18
0.32
0.27
0.06
-0.18
-0.35
-0.36
-0.22
0.03
0.31
0.57
0.77
0.87
0.85
0.70
0.49
0.28
0.17
0.20
0.35
0.55
0.72
0.81
0.82
0.75
0.60
0.39
0.15
-0.06
-0.16
-0.10
0.10
0.34
0.50
0.48
0.29
-0.02
-0.31
-0.50
-0.57
-0.54
-0.47
-0.41
-0.35
-0.30
-0.25
-0.24
-0.29
-0.40
-0.55
-0.70
-0.82
-0.91
-0.99
-1.07
-1.13
-1.12
-0.98
-0.69
-0.27
0.17
0.53
0.74
0.78
0.67
0.46
0.21
-0.03
-0.20
-0.31
-0.35
-0.35
-0.33
-0.31
-0.31
-0.32
-0.31
-0.27
-0.19
-0.06
0.06
0.11
0.07
-0.06
-0.24
-0.41
-0.52
-0.55
-0.48
-0.32
-0.07
0.26
0.62
0.92
1.08
1.06
0.85
0.54
0.25
0.07
0.06
0.21
0.46
0.71
0.89
0.96
0.90
0.71
0.45
0.14
-0.15
-0.37
-0.49
-0.49
-0.40
-0.26
-0.15
-0.13
-0.23
-0.40
-0.56
-0.63
-0.55
-0.32
0.01
0.36
0.66
0.88
0.98
0.96
0.83
0.59
0.27
-0.06
-0.35
-0.54
-0.59
-0.51
-0.34
-0.13
0.09
0.29
0.48
0.67
0.87
1.05
1.20
1.28
1.25
1.12
0.90
0.60
0.25
-0.14
-0.54
-0.92
-1.24
-1.41
-1.37
-1.09
-0.64
-0.12
0.31
0.54
0.56
0.46
0.37
0.38
0.47
0.54
0.49
0.31
0.07
-0.10
-0.11
-0.01
0.08
0.04
-0.18
-0.51
-0.82
-0.96
-0.91
-0.69
-0.42
-0.19
-0.07
-0.08
-0.20
-0.41
-0.66
-0.90
-1.07
-1.12
-1.02
-0.78
-0.42
-0.01
0.37
0.66
0.80
0.79
0.65
0.41
0.14
-0.09
-0.24
-0.29
-0.22
-0.05
0.16
0.34
0.43
0.39
0.22
-0.03
-0.25
-0.36
-0.29
-0.05
0.30
0.67
0.97
1.17
1.25
1.22
1.09
0.91
0.67
0.41
0.11
-0.23
-0.63
-1.04
-1.37
-1.49
-1.32
-0.84
-0.15
0.56
1.15
1.51
1.62
1.53
1.28
0.92
0.52
0.16
-0.10
-0.23
-0.24
-0.16
-0.05
0.07
0.16
0.21
0.19
0.08
-0.10
-0.30
-0.45
-0.50
-0.44
-0.34
-0.28
-0.34
-0.52
-0.74
-0.91
-0.96
-0.88
-0.72
-0.52
-0.30
-0.05
0.24
0.52
0.73
0.79
0.67
0.42
0.17
0.03
0.03
0.16
0.33
0.43
0.42
0.33
0.18
0.04
-0.07
-0.15
-0.24
-0.35
-0.48
-0.58
-0.61
-0.50
-0.27
0.00
0.23
0.33
0.28
0.11
-0.09
-0.24
-0.30
-0.24
-0.08
0.12
0.30
0.39
0.33
0.13
-0.19
-0.55
-0.88
-1.13
-1.31
-1.40
-1.40
-1.31
-1.11
-0.83
-0.51
-0.21
0.01
0.13
0.19
0.22
0.23
0.23
0.21
0.16
0.07
-0.10
-0.32
-0.54
-0.67
-0.60
-0.26
0.32
0.98
1.56
1.88
1.88
1.60
1.19
0.78
0.49
0.34
0.31
0.33
0.31
0.24
0.10
-0.05
-0.17
-0.24
-0.24
-0.19
-0.09
0.06
0.25
0.43
0.52
0.44
0.15
-0.29
-0.76
-1.10
-1.21
-1.07
-0.77
-0.40
-0.07
0.17
0.30
0.33
0.29
0.21
0.13
0.12
0.22
0.45
0.77
1.08
1.29
1.30
1.13
0.80
0.41
0.04
-0.23
-0.37
-0.38
-0.27
-0.12
-0.00
0.01
-0.08
-0.25
-0.41
-0.48
-0.46
-0.39
-0.38
-0.48
-0.69
-0.92
-1.01
-0.88
-0.53
-0.06
0.37
0.61
0.62
0.42
0.10
-0.21
-0.45
-0.57
-0.53
-0.34
-0.00
0.42
0.79
1.02
1.02
0.80
0.48
0.17
-0.06
-0.19
-0.27
-0.36
-0.46
-0.56
-0.63
-0.67
-0.72
-0.78
-0.84
-0.86
-0.80
-0.63
-0.40
-0.18
-0.02
0.06
0.05
0.00
-0.05
-0.10
-0.09
0.01
0.21
0.49
0.75
0.87
0.77
0.47
0.13
-0.08
-0.05
0.21
0.57
0.83
0.84
0.57
0.15
-0.25
-0.46
-0.42
-0.18
0.12
0.33
0.34
0.13
-0.23
-0.58
-0.77
-0.69
-0.38
0.08
0.51
0.77
0.78
0.57
0.22
-0.13
-0.41
-0.60
-0.75
-0.90
-1.05
-1.12
-1.03
-0.72
-0.25
0.23
0.56
0.63
0.43
0.09
-0.23
-0.40
-0.37
-0.22
-0.07
-0.01
-0.08
-0.24
-0.46
-0.69
-0.88
-0.99
-0.99
-0.85
-0.61
-0.32
-0.07
0.08
0.12
0.09
0.07
0.12
0.27
0.47
0.65
0.77
0.80
0.74
0.64
0.51
0.40
0.33
0.33
0.42
0.61
0.86
1.08
1.21
1.18
0.97
0.64
0.30
0.07
0.03
0.17
0.40
0.57
0.57
0.40
0.15
-0.03
-0.04
0.13
0.40
0.60
0.61
0.40
0.05
-0.31
-0.55
-0.64
-0.60
-0.50
-0.40
-0.31
-0.23
-0.13
-0.03
0.03
0.04
-0.03
-0.12
-0.20
-0.20
-0.09
0.11
0.35
0.56
0.68
0.67
0.52
0.27
-0.05
-0.34
-0.53
-0.56
-0.43
-0.19
0.05
0.18
0.12
-0.15
-0.52
-0.87
-1.08
-1.05
-0.80
-0.44
-0.09
0.14
0.21
0.15
0.04
-0.05
-0.09
-0.07
-0.05
-0.02
0.02
0.12
0.32
0.54
0.69
0.67
0.43
0.06
-0.28
-0.48
-0.46
-0.30
-0.12
-0.03
-0.03
-0.08
-0.10
-0.09
-0.09
-0.15
-0.26
-0.33
-0.28
-0.07
0.19
0.36
0.32
0.10
-0.14
-0.21
0.01
0.46
0.92
1.18
1.16
0.93
0.66
0.50
0.47
0.50
0.46
0.31
0.07
-0.16
-0.33
-0.43
-0.51
-0.58
-0.64
-0.61
-0.43
-0.12
0.24
0.48
0.52
0.35
0.07
-0.18
-0.32
-0.34
-0.31
-0.32
-0.40
-0.52
-0.61
-0.62
-0.54
-0.42
-0.33
-0.29
-0.28
-0.28
-0.25
-0.17
-0.08
0.03
0.14
0.27
0.44
0.64
0.84
0.97
0.98
0.84
0.58
0.26
-0.05
-0.31
-0.47
-0.55
-0.55
-0.47
-0.33
-0.16
-0.00
0.11
0.15
0.13
0.07
0.01
-0.06
-0.11
-0.15
-0.14
-0.06
0.09
0.27
0.41
0.43
0.31
0.09
-0.14
-0.25
-0.19
-0.01
0.16
0.19
0.02
-0.29
-0.58
-0.69
-0.56
-0.26
0.04
0.15
0.03
-0.24
-0.48
-0.56
-0.47
-0.28
-0.13
-0.09
-0.10
-0.07
0.08
0.38
0.75
1.12
1.42
1.61
1.65
1.52
1.16
0.60
-0.07
-0.68
-1.05
-1.06
-0.75
-0.29
0.09
0.23
0.07
-0.30
-0.70
-0.99
-1.08
-0.94
-0.63
-0.20
0.27
0.69
0.97
1.03
0.87
0.56
0.23
-0.02
-0.13
-0.17
-0.21
-0.31
-0.43
-0.47
-0.35
-0.09
0.19
0.35
0.28
-0.00
-0.40
-0.77
-1.01
-1.06
-0.94
-0.70
-0.38
-0.04
0.25
0.46
0.59
0.65
0.66
0.65
0.58
0.46
0.28
0.07
-0.10
-0.21
-0.26
-0.30
-0.36
-0.47
-0.56
-0.57
-0.49
-0.31
-0.12
0.02
0.12
0.18
0.24
0.31
0.34
0.31
0.19
0.02
-0.11
-0.14
-0.03
0.19
0.47
0.72
0.84
0.76
0.45
-0.03
-0.53
-0.86
-0.87
-0.50
0.12
0.78
1.26
1.40
1.17
0.69
0.16
-0.28
-0.51
-0.55
-0.45
-0.28
-0.11
0.03
0.12
0.17
0.16
0.06
-0.14
-0.38
-0.60
-0.68
-0.57
-0.31
-0.02
0.16
0.12
-0.12
-0.47
-0.76
-0.87
-0.78
-0.55
-0.26
-0.00
0.19
0.33
0.40
0.42
0.36
0.24
0.08
-0.07
-0.16
-0.17
-0.12
-0.02
0.09
0.18
0.25
0.28
0.25
0.18
0.12
0.12
0.21
0.41
0.64
0.82
0.85
0.73
0.52
0.34
0.29
0.38
0.52
0.57
0.43
0.12
-0.25
-0.52
-0.57
-0.43
-0.18
0.03
0.14
0.16
0.13
0.08
-0.00
-0.14
-0.36
-0.62
-0.86
-1.02
-1.11
-1.12
-1.10
-1.05
-0.94
-0.78
-0.55
-0.31
-0.10
0.04
0.10
0.14
0.20
0.32
0.47
0.58
0.58
0.41
0.09
-0.28
-0.57
-0.67
-0.54
-0.25
0.07
0.32
0.44
0.44
0.36
0.25
0.15
0.08
0.04
0.08
0.19
0.37
0.57
0.71
0.76
0.73
0.65
0.56
0.48
0.36
0.15
-0.18
-0.55
-0.86
-0.99
-0.90
-0.63
-0.30
-0.06
0.03
-0.03
-0.14
-0.21
-0.15
0.05
0.35
0.65
0.88
0.99
0.99
0.91
0.78
0.62
0.45
0.24
0.01
-0.21
-0.37
-0.47
-0.49
-0.48
-0.48
-0.48
-0.48
-0.43
-0.31
-0.13
0.06
0.20
0.27
0.27
0.21
0.10
-0.04
-0.26
-0.54
-0.85
-1.12
-1.26
-1.23
-1.03
-0.74
-0.45
-0.20
-0.00
0.19
0.40
0.62
0.82
0.92
0.90
0.75
0.51
0.26
0.08
0.00
0.04
0.12
0.22
0.28
0.32
0.38
0.50
0.66
0.79
0.81
0.66
0.38
0.08
-0.11
-0.08
0.13
0.40
0.56
0.52
0.28
-0.04
-0.32
-0.47
-0.44
-0.24
0.07
0.44
0.77
0.97
0.99
0.80
0.45
0.07
-0.24
-0.39
-0.34
-0.15
0.08
0.29
0.39
0.37
0.22
-0.04
-0.34
-0.63
-0.83
-0.93
-0.95
-0.94
-0.92
-0.90
-0.85
-0.74
-0.58
-0.42
-0.29
-0.23
-0.23
-0.23
-0.19
-0.14
-0.12
-0.22
-0.43
-0.68
-0.82
-0.77
-0.49
-0.10
0.24
0.43
0.44
0.32
0.19
0.12
0.12
0.13
0.12
0.08
0.02
-0.04
-0.10
-0.17
-0.24
-0.30
-0.28
-0.16
0.07
0.36
0.62
0.80
0.87
0.85
0.75
0.59
0.39
0.19
0.06
0.06
0.19
0.36
0.45
0.32
-0.08
-0.69
-1.32
-1.78
-1.93
-1.75
-1.34
-0.82
-0.31
0.12
0.43
0.61
0.68
0.67
0.64
0.64
0.72
0.84
0.95
0.96
0.81
0.49
0.06
-0.35
-0.65
-0.73
-0.58
-0.25
0.14
0.46
0.61
0.54
0.31
0.02
-0.21
-0.33
-0.28
-0.09
0.20
0.54
0.88
1.14
1.26
1.21
1.00
0.66
0.27
-0.10
-0.39
-0.55
-0.58
-0.49
-0.29
-0.06
0.16
0.30
0.31
0.22
0.07
-0.08
-0.18
-0.20
-0.17
-0.14
-0.14
-0.21
-0.32
-0.44
-0.52
-0.54
-0.47
-0.33
-0.16
-0.01
0.07
0.04
-0.10
-0.33
-0.55
-0.68
-0.66
-0.51
-0.31
-0.18
-0.20
-0.34
-0.52
-0.60
-0.52
-0.31
-0.08
0.03
0.00
-0.12
-0.23
-0.22
-0.08
0.12
0.31
0.43
0.46
0.41
0.32
0.18
0.02
-0.12
-0.19
-0.15
-0.03
0.12
0.22
0.23
0.17
0.13
0.17
0.30
0.45
0.56
0.54
0.40
0.17
-0.04
-0.18
-0.20
-0.12
0.03
0.19
0.34
0.47
0.57
0.65
0.72
0.78
0.82
0.81
0.74
0.59
0.38
0.16
-0.03
-0.17
-0.22
-0.22
-0.19
-0.17
-0.19
-0.26
-0.39
-0.56
-0.70
-0.75
-0.69
-0.51
-0.30
-0.12
-0.04
-0.04
-0.07
-0.05
0.05
0.21
0.37
0.48
0.49
0.39
0.20
-0.05
-0.34
-0.58
-0.69
-0.60
-0.30
0.10
0.46
0.62
0.51
0.18
-0.22
-0.52
-0.66
-0.62
-0.46
-0.23
0.00
0.22
0.39
0.46
0.40
0.22
-0.02
-0.21
-0.28
-0.21
-0.03
0.20
0.41
0.55
0.58
0.50
0.34
0.15
-0.00
-0.05
0.01
0.13
0.20
0.16
-0.01
-0.29
-0.56
-0.72
-0.70
-0.52
-0.23
0.05
0.22
0.24
0.16
0.06
0.00
-0.02
-0.05
-0.14
-0.25
-0.31
-0.22
0.04
0.37
0.58
0.55
0.26
-0.15
-0.49
-0.61
-0.52
-0.32
-0.18
-0.17
-0.26
-0.33
-0.29
-0.13
0.09
0.21
0.12
-0.19
-0.64
-1.08
-1.32
-1.29
-0.99
-0.52
-0.00
0.40
0.61
0.63
0.52
0.41
0.40
0.56
0.82
1.09
1.22
1.15
0.90
0.58
0.27
0.07
-0.02
-0.03
-0.01
-0.01
-0.07
-0.20
-0.36
-0.46
-0.47
-0.33
-0.09
0.16
0.35
0.43
0.41
0.37
0.33
0.26
0.10
-0.17
-0.50
-0.77
-0.89
-0.79
-0.54
-0.25
-0.02
0.14
0.24
0.35
0.50
0.66
0.76
0.71
0.48
0.14
-0.19
-0.38
-0.37
-0.16
0.11
0.30
0.34
0.21
0.01
-0.15
-0.20
-0.13
-0.01
0.10
0.16
0.15
0.07
-0.06
-0.25
-0.47
-0.67
-0.80
-0.81
-0.71
-0.53
-0.31
-0.12
0.01
0.11
0.20
0.33
0.51
0.72
0.93
1.04
1.02
0.82
0.47
0.06
-0.30
-0.53
-0.58
-0.49
-0.31
-0.09
0.13
0.32
0.48
0.59
0.60
0.49
0.27
-0.01
-0.29
-0.49
-0.58
-0.55
-0.43
-0.28
-0.14
-0.06
-0.08
-0.20
-0.39
-0.58
-0.69
-0.66
-0.46
-0.13
0.27
0.64
0.92
1.04
1.00
0.80
0.44
-0.04
-0.57
-1.02
-1.27
-1.20
-0.83
-0.31
0.19
0.48
0.53
0.39
0.19
0.02
-0.09
-0.22
-0.40
-0.63
-0.82
-0.88
-0.78
-0.53
-0.24
0.00
0.17
0.30
0.43
0.59
0.72
0.72
0.52
0.15
-0.28
-0.56
-0.57
-0.32
0.09
0.48
0.74
0.83
0.79
0.70
0.62
0.55
0.47
0.35
0.20
0.03
-0.14
-0.31
-0.45
-0.51
-0.46
-0.31
-0.10
0.09
0.22
0.29
0.34
0.41
0.48
0.46
0.32
0.06
-0.23
-0.38
-0.31
-0.02
0.34
0.56
0.53
0.26
-0.06
-0.23
-0.14
0.16
0.48
0.60
0.40
-0.05
-0.55
-0.88
-0.92
-0.70
-0.37
-0.11
0.01
-0.01
-0.09
-0.13
-0.11
-0.08
-0.08
-0.15
-0.27
-0.36
-0.37
-0.28
-0.11
0.11
0.31
0.45
0.45
0.33
0.10
-0.14
-0.26
-0.17
0.16
0.60
0.99
1.15
1.04
0.69
0.24
-0.17
-0.44
-0.59
-0.64
-0.63
-0.58
-0.50
-0.39
-0.24
-0.06
0.12
0.24
0.24
0.09
-0.19
-0.51
-0.75
-0.80
-0.62
-0.26
0.15
0.48
0.65
0.64
0.51
0.34
0.17
0.02
-0.14
-0.31
-0.46
-0.49
-0.30
0.13
0.69
1.18
1.39
1.22
0.75
0.18
-0.26
-0.47
-0.48
-0.45
-0.50
-0.68
-0.88
-0.98
-0.90
-0.68
-0.42
-0.24
-0.20
-0.26
-0.34
-0.37
-0.29
-0.08
0.22
0.54
0.80
0.93
0.91
0.75
0.51
0.27
0.10
0.04
0.06
0.11
0.13
0.05
-0.13
-0.39
-0.64
-0.81
-0.84
-0.74
-0.56
-0.40
-0.30
-0.27
-0.27
-0.26
-0.25
-0.27
-0.35
-0.49
-0.64
-0.70
-0.59
-0.27
0.18
0.66
1.01
1.09
0.89
0.46
-0.04
-0.44
-0.64
-0.59
-0.36
-0.05
0.26
0.53
0.76
0.94
1.04
1.00
0.78
0.43
0.07
-0.14
-0.08
0.28
0.85
1.42
1.80
1.83
1.45
0.76
-0.03
-0.71
-1.11
-1.21
-1.06
-0.78
-0.50
-0.24
0.02
0.31
0.62
0.87
0.95
0.81
0.48
0.11
-0.15
-0.19
-0.04
0.20
0.38
0.43
0.34
0.17
-0.01
-0.21
-0.46
-0.76
-1.07
-1.27
-1.27
-1.07
-0.76
-0.52
-0.43
-0.50
-0.63
-0.70
-0.64
-0.49
-0.33
-0.21
-0.15
-0.11
-0.01
0.15
0.36
0.52
0.54
0.39
0.12
-0.16
-0.32
-0.32
-0.18
0.02
0.16
0.16
0.02
-0.20
-0.38
-0.44
-0.36
-0.15
0.09
0.31
0.47
0.58
0.67
0.71
0.68
0.51
0.18
-0.26
-0.69
-0.97
-1.01
-0.81
-0.48
-0.13
0.14
0.30
0.41
0.51
0.64
0.78
0.89
0.97
1.01
1.04
1.07
1.10
1.08
0.97
0.73
0.40
0.05
-0.24
-0.40
-0.44
-0.38
-0.28
-0.20
-0.15
-0.14
-0.14
-0.16
-0.22
-0.31
-0.40
-0.50
-0.57
-0.63
-0.68
-0.73
-0.75
-0.74
-0.69
-0.63
-0.61
-0.67
-0.75
-0.78
-0.64
-0.32
0.10
0.48
0.69
0.70
0.60
0.51
0.52
0.62
0.72
0.71
0.52
0.21
-0.13
-0.40
-0.55
-0.57
-0.48
-0.30
-0.05
0.24
0.48
0.57
0.48
0.23
-0.06
-0.24
-0.19
0.05
0.39
0.66
0.76
0.67
0.45
0.21
0.05
0.01
0.07
0.13
0.13
-0.00
-0.24
-0.51
-0.70
-0.73
-0.60
-0.43
-0.35
-0.45
-0.71
-1.02
-1.21
-1.18
-0.94
-0.58
-0.24
0.02
0.16
0.25
0.35
0.46
0.54
0.55
0.47
0.37
0.33
0.45
0.73
1.10
1.41
1.51
1.34
0.91
0.36
-0.16
-0.50
-0.58
-0.47
-0.26
-0.09
-0.02
-0.03
-0.04
0.05
0.27
0.56
0.79
0.85
0.67
0.34
-0.00
-0.20
-0.21
-0.08
0.06
0.09
-0.03
-0.27
-0.51
-0.67
-0.73
-0.75
-0.81
-0.94
-1.10
-1.21
-1.18
-0.98
-0.67
-0.34
-0.08
0.07
0.12
0.13
0.14
0.16
0.19
0.20
0.22
0.26
0.36
0.50
0.65
0.72
0.70
0.61
0.56
0.64
0.86
1.09
1.16
0.90
0.34
-0.34
-0.88
-1.07
-0.89
-0.51
-0.16
-0.03
-0.14
-0.38
-0.63
-0.81
-0.91
-0.97
-1.00
-0.93
-0.71
-0.32
0.16
0.59
0.81
0.74
0.40
-0.10
-0.55
-0.80
-0.74
-0.41
0.07
0.52
0.78
0.83
0.76
0.69
0.69
0.75
0.77
0.66
0.41
0.11
-0.14
-0.24
-0.17
-0.01
0.17
0.29
0.34
0.36
0.40
0.49
0.63
0.76
0.82
0.75
0.54
0.24
-0.03
-0.18
-0.18
-0.07
0.03
0.01
-0.17
-0.45
-0.72
-0.84
-0.76
-0.48
-0.11
0.22
0.43
0.47
0.41
0.30
0.22
0.16
0.05
-0.14
-0.43
-0.74
-0.97
-1.01
-0.85
-0.55
-0.25
-0.06
-0.02
-0.07
-0.14
-0.13
-0.03
0.15
0.30
0.34
0.24
0.02
-0.27
-0.52
-0.68
-0.69
-0.59
-0.44
-0.28
-0.17
-0.12
-0.12
-0.17
-0.26
-0.42
-0.65
-0.89
-1.08
-1.14
-1.00
-0.68
-0.23
0.29
0.81
1.25
1.58
1.70
1.58
1.22
0.70
0.16
-0.22
-0.38
-0.35
-0.23
-0.15
-0.17
-0.27
-0.37
-0.39
-0.35
-0.31
-0.31
-0.34
-0.37
-0.34
-0.24
-0.12
-0.04
-0.03
-0.05
-0.03
0.10
0.34
0.62
0.87
1.04
1.14
1.21
1.27
1.31
1.25
1.06
0.74
0.38
0.06
-0.11
-0.14
-0.06
0.04
0.09
0.05
-0.05
-0.10
-0.04
0.18
0.52
0.88
1.10
1.07
0.77
0.29
-0.21
-0.58
-0.76
-0.81
-0.81
-0.86
-1.01
-1.22
-1.42
-1.53
-1.52
-1.39
-1.17
-0.89
-0.55
-0.19
0.18
0.52
0.79
0.96
1.04
1.06
1.06
1.06
1.08
1.08
1.00
0.79
0.46
0.05
-0.34
-0.57
-0.58
-0.41
-0.18
-0.08
-0.24
-0.66
-1.23
-1.74
-2.01
-1.96
-1.60
-1.04
-0.37
0.29
0.87
1.29
1.50
1.46
1.22
0.87
0.53
0.27
0.14
0.12
0.17
0.26
0.34
0.39
0.36
0.24
0.00
-0.30
-0.59
-0.78
-0.80
-0.61
-0.26
0.17
0.56
0.82
0.88
0.73
0.45
0.12
-0.18
-0.40
-0.51
-0.52
-0.43
-0.26
-0.01
0.28
0.55
0.74
0.79
0.69
0.47
0.22
0.03
-0.03
0.01
0.09
0.13
0.07
-0.10
-0.33
-0.56
-0.72
-0.77
-0.69
-0.48
-0.13
0.30
0.74
1.07
1.22
1.16
0.90
0.54
0.17
-0.16
-0.41
-0.60
-0.75
-0.89
-1.04
-1.14
-1.16
-1.06
-0.85
-0.58
-0.36
-0.25
-0.27
-0.38
-0.49
-0.53
-0.46
-0.32
-0.15
-0.00
0.10
0.15
0.18
0.20
0.21
0.19
0.13
0.03
-0.10
-0.21
-0.29
-0.32
-0.29
-0.17
0.02
0.27
0.50
0.63
0.59
0.36
0.01
-0.33
-0.51
-0.47
-0.27
-0.02
0.11
0.05
-0.20
-0.51
-0.76
-0.85
-0.77
-0.56
-0.30
-0.05
0.17
0.37
0.53
0.64
0.65
0.55
0.35
0.13
-0.03
-0.05
0.07
0.28
0.48
0.56
0.49
0.28
0.03
-0.14
-0.14
0.03
0.29
0.55
0.74
0.86
0.94
1.02
1.10
1.14
1.08
0.89
0.61
0.29
0.00
-0.21
-0.37
-0.49
-0.59
-0.65
-0.63
-0.50
-0.25
0.06
0.37
0.59
0.66
0.56
0.34
0.07
-0.13
-0.24
-0.25
-0.23
-0.23
-0.27
-0.34
-0.40
-0.41
-0.39
-0.36
-0.34
-0.31
-0.23
-0.09
0.08
0.21
0.22
0.11
-0.04
-0.11
0.02
0.34
0.74
1.05
1.14
0.97
0.61
0.20
-0.15
-0.37
-0.48
-0.50
-0.50
-0.50
-0.52
-0.57
-0.65
-0.73
-0.76
-0.72
-0.59
-0.41
-0.27
-0.24
-0.33
-0.52
-0.72
-0.86
-0.90
-0.86
-0.76
-0.62
-0.45
-0.23
0.00
0.18
0.27
0.22
0.07
-0.12
-0.23
-0.21
-0.05
0.21
0.52
0.83
1.09
1.31
1.46
1.53
1.48
1.26
0.86
0.33
-0.24
-0.70
-0.90
-0.78
-0.40
0.10
0.53
0.75
0.73
0.52
0.25
0.03
-0.08
-0.08
-0.03
0.04
0.10
0.13
0.16
0.22
0.31
0.43
0.52
0.53
0.42
0.22
-0.02
-0.23
-0.36
-0.43
-0.48
-0.53
-0.55
-0.51
-0.37
-0.17
0.01
0.06
-0.08
-0.36
-0.65
-0.81
-0.73
-0.44
-0.05
0.28
0.45
0.43
0.28
0.09
-0.09
-0.23
-0.33
-0.40
-0.39
-0.28
-0.06
0.23
0.45
0.50
0.31
-0.07
-0.48
-0.72
-0.66
-0.33
0.16
0.60
0.87
0.94
0.90
0.83
0.81
0.76
0.61
0.31
-0.05
-0.31
-0.31
-0.02
0.43
0.81
0.94
0.74
0.29
-0.20
-0.58
-0.77
-0.78
-0.70
-0.61
-0.52
-0.44
-0.38
-0.37
-0.45
-0.62
-0.85
-1.03
-1.07
-0.91
-0.55
-0.05
0.49
0.94
1.22
1.26
1.06
0.68
0.24
-0.09
-0.21
-0.11
0.10
0.27
0.29
0.13
-0.13
-0.35
-0.46
-0.47
-0.46
-0.49
-0.59
-0.67
-0.67
-0.58
-0.50
-0.54
-0.76
-1.09
-1.36
-1.39
-1.13
-0.64
-0.12
0.24
0.37
0.32
0.20
0.09
0.06
0.07
0.15
0.34
0.67
1.15
1.65
2.00
2.04
1.73
1.22
0.72
0.42
0.36
0.44
0.49
0.41
0.20
-0.03
-0.18
-0.19
-0.12
-0.08
-0.17
-0.38
-0.66
-0.89
-1.00
-0.95
-0.78
-0.49
-0.13
0.25
0.60
0.85
0.97
0.98
0.93
0.88
0.84
0.74
0.55
0.27
-0.02
-0.20
-0.18
0.02
0.29
0.51
0.58
0.51
0.35
0.15
-0.07
-0.33
-0.59
-0.83
-0.97
-0.95
-0.76
-0.47
-0.15
0.10
0.24
0.24
0.10
-0.12
-0.41
-0.72
-1.02
-1.30
-1.50
-1.59
-1.53
-1.30
-0.93
-0.46
0.00
0.37
0.56
0.58
0.47
0.35
0.29
0.32
0.44
0.56
0.64
0.63
0.56
0.45
0.33
0.19
0.01
-0.21
-0.43
-0.58
-0.61
-0.49
-0.25
0.01
0.20
0.27
0.25
0.19
0.17
0.19
0.23
0.22
0.15
0.07
0.06
0.13
0.25
0.32
0.27
0.10
-0.11
-0.26
-0.28
-0.21
-0.14
-0.15
-0.24
-0.34
-0.40
-0.42
-0.46
-0.59
-0.80
-0.97
-0.95
-0.65
-0.08
0.58
1.09
1.27
1.07
0.59
0.06
-0.32
-0.43
-0.27
0.06
0.39
0.63
0.72
0.69
0.59
0.46
0.33
0.22
0.17
0.20
0.35
0.60
0.87
1.04
1.03
0.83
0.51
0.19
-0.00
-0.02
0.08
0.20
0.22
0.10
-0.13
-0.39
-0.59
-0.67
-0.67
-0.63
-0.63
-0.67
-0.70
-0.65
-0.47
-0.19
0.12
0.35
0.41
0.29
0.05
-0.20
-0.37
-0.41
-0.34
-0.22
-0.14
-0.13
-0.16
-0.19
-0.17
-0.08
0.03
0.13
0.16
0.12
0.01
-0.14
-0.30
-0.45
-0.56
-0.59
-0.49
-0.22
0.18
0.63
1.01
1.23
1.27
1.17
0.97
0.73
0.47
0.18
-0.11
-0.35
-0.47
-0.43
-0.25
-0.02
0.18
0.25
0.18
0.02
-0.14
-0.23
-0.25
-0.20
-0.12
-0.02
0.07
0.15
0.22
0.22
0.13
-0.04
-0.26
-0.45
-0.56
-0.57
-0.48
-0.32
-0.11
0.10
0.27
0.36
0.31
0.10
-0.20
-0.51
-0.71
-0.73
-0.60
-0.40
-0.25
-0.20
-0.24
-0.33
-0.38
-0.38
-0.33
-0.25
-0.14
-0.02
0.13
0.27
0.34
0.28
0.12
-0.08
-0.21
-0.20
-0.08
0.05
0.08
-0.04
-0.24
-0.41
-0.44
-0.29
-0.02
0.23
0.37
0.37
0.27
0.16
0.12
0.17
0.28
0.39
0.44
0.40
0.28
0.09
-0.12
-0.31
-0.43
-0.45
-0.36
-0.21
-0.03
0.13
0.25
0.34
0.42
0.49
0.52
0.51
0.48
0.49
0.57
0.71
0.85
0.89
0.75
0.47
0.10
-0.25
-0.55
-0.80
-1.03
-1.21
-1.26
-1.08
-0.66
-0.11
0.42
0.73
0.76
0.55
0.23
-0.05
-0.22
-0.26
-0.25
-0.24
-0.25
-0.30
-0.34
-0.36
-0.33
-0.20
0.01
0.28
0.56
0.79
0.90
0.87
0.71
0.47
0.21
0.00
-0.13
-0.20
-0.23
-0.25
-0.27
-0.25
-0.15
0.04
0.29
0.51
0.60
0.49
0.22
-0.14
-0.46
-0.66
-0.70
-0.59
-0.34
-0.00
0.39
0.77
1.06
1.18
1.12
0.90
0.57
0.20
-0.17
-0.49
-0.70
-0.75
-0.60
-0.31
0.01
0.20
0.15
-0.11
-0.46
-0.72
-0.77
-0.62
-0.38
-0.19
-0.16
-0.29
-0.45
-0.50
-0.36
-0.06
0.29
0.54
0.62
0.52
0.34
0.16
0.02
-0.08
-0.16
-0.21
-0.20
-0.10
0.06
0.20
0.20
0.02
-0.28
-0.54
-0.64
-0.50
-0.19
0.18
0.48
0.66
0.74
0.79
0.85
0.92
0.94
0.88
0.72
0.47
0.18
-0.11
-0.35
-0.51
-0.57
-0.54
-0.44
-0.35
-0.33
-0.45
-0.69
-0.97
-1.17
-1.20
-1.01
-0.62
-0.16
0.27
0.57
0.73
0.77
0.75
0.74
0.76
0.78
0.77
0.69
0.53
0.32
0.13
-0.00
-0.08
-0.14
-0.22
-0.34
-0.51
-0.66
-0.77
-0.80
-0.78
-0.73
-0.67
-0.63
-0.58
-0.51
-0.38
-0.21
-0.01
0.18
0.35
0.46
0.54
0.57
0.56
0.50
0.37
0.16
-0.09
-0.30
-0.40
-0.36
-0.21
-0.06
0.00
-0.08
-0.23
-0.33
-0.27
-0.01
0.37
0.73
0.92
0.89
0.71
0.47
0.27
0.11
-0.05
-0.24
-0.47
-0.67
-0.76
-0.68
-0.49
-0.29
-0.17
-0.19
-0.32
-0.47
-0.56
-0.55
-0.44
-0.29
-0.16
-0.08
-0.06
-0.11
-0.20
-0.32
-0.45
-0.51
-0.45
-0.25
0.09
0.48
0.84
1.07
1.13
1.04
0.84
0.59
0.31
0.03
-0.24
-0.47
-0.62
-0.65
-0.54
-0.29
0.03
0.38
0.68
0.89
0.96
0.89
0.71
0.47
0.23
0.07
0.05
0.20
0.48
0.80
1.07
1.18
1.09
0.82
0.45
0.06
-0.24
-0.41
-0.45
-0.41
-0.35
-0.28
-0.23
-0.17
-0.09
-0.01
0.06
0.09
0.02
-0.11
-0.29
-0.46
-0.56
-0.58
-0.53
-0.44
-0.36
-0.31
-0.28
-0.24
-0.18
-0.12
-0.12
-0.23
-0.43
-0.66
-0.79
-0.73
-0.45
-0.04
0.36
0.60
0.62
0.47
0.24
0.05
-0.06
-0.09
-0.10
-0.14
-0.20
-0.25
-0.26
-0.24
-0.24
-0.30
-0.42
-0.55
-0.62
-0.59
-0.48
-0.34
-0.22
-0.16
-0.14
-0.12
-0.06
0.05
0.19
0.33
0.46
0.56
0.62
0.61
0.54
0.44
0.35
0.32
0.39
0.54
0.70
0.83
0.86
0.79
0.65
0.50
0.38
0.31
0.28
0.24
0.21
0.20
0.27
0.43
0.63
0.77
0.76
0.54
0.19
-0.18
-0.42
-0.47
-0.37
-0.25
-0.21
-0.29
-0.45
-0.61
-0.69
-0.67
-0.61
-0.56
-0.56
-0.63
-0.71
-0.77
-0.73
-0.58
-0.34
-0.05
0.25
0.51
0.71
0.83
0.86
0.77
0.55
0.23
-0.14
-0.45
-0.62
-0.62
-0.47
-0.26
-0.09
-0.00
0.00
-0.02
-0.02
0.01
0.07
0.10
0.12
0.14
0.17
0.23
0.31
0.36
0.34
0.23
0.04
-0.17
-0.34
-0.42
-0.39
-0.28
-0.14
-0.04
0.01
-0.01
-0.03
-0.01
0.10
0.25
0.36
0.36
0.21
-0.02
-0.25
-0.39
-0.38
-0.23
0.01
0.29
0.54
0.70
0.73
0.62
0.38
0.08
-0.18
-0.33
-0.35
-0.27
-0.18
-0.16
-0.25
-0.40
-0.57
-0.69
-0.73
-0.66
-0.47
-0.21
0.09
0.35
0.50
0.49
0.35
0.14
-0.06
-0.19
-0.24
-0.22
-0.14
0.01
0.25
0.56
0.86
1.06
1.07
0.86
0.48
0.03
-0.37
-0.65
-0.77
-0.76
-0.67
-0.58
-0.54
-0.62
-0.79
-1.02
-1.20
-1.24
-1.11
-0.82
-0.46
-0.11
0.15
0.28
0.31
0.27
0.21
0.17
0.17
0.24
0.39
0.60
0.80
0.93
0.93
0.80
0.59
0.39
0.28
0.31
0.44
0.62
0.78
0.86
0.89
0.87
0.82
0.75
0.61
0.39
0.09
-0.21
-0.47
-0.64
-0.71
-0.72
-0.74
-0.80
-0.90
-1.00
-1.02
-0.93
-0.69
-0.35
0.01
0.26
0.33
0.19
-0.06
-0.29
-0.35
-0.18
0.16
0.51
0.68
0.59
0.30
-0.05
-0.25
-0.20
0.09
0.46
0.72
0.74
0.52
0.16
-0.19
-0.40
-0.45
-0.39
-0.28
-0.17
-0.03
0.17
0.45
0.76
0.99
1.06
0.91
0.58
0.18
-0.17
-0.38
-0.42
-0.36
-0.29
-0.28
-0.36
-0.50
-0.63
-0.68
-0.61
-0.45
-0.24
-0.10
-0.08
-0.22
-0.50
-0.82
-1.04
-1.08
-0.93
-0.65
-0.34
-0.08
0.15
0.37
0.60
0.82
0.92
0.87
0.67
0.43
0.30
0.36
0.57
0.76
0.80
0.62
0.31
0.03
-0.11
-0.08
0.02
0.06
-0.03
-0.21
-0.37
-0.41
-0.31
-0.13
0.02
0.08
0.05
-0.01
-0.05
-0.06
-0.07
-0.13
-0.23
-0.32
-0.33
-0.20
0.04
0.29
0.45
0.48
0.38
0.24
0.14
0.13
0.21
0.33
0.43
0.47
0.45
0.36
0.22
0.04
-0.14
-0.27
-0.30
-0.21
-0.02
0.18
0.28
0.25
0.11
-0.05
-0.16
-0.18
-0.14
-0.11
-0.16
-0.28
-0.42
-0.51
-0.54
-0.53
-0.56
-0.65
-0.77
-0.85
-0.80
-0.59
-0.29
-0.00
0.17
0.19
0.10
-0.01
-0.05
0.05
0.24
0.46
0.62
0.65
0.54
0.32
0.03
-0.27
-0.50
-0.63
-0.62
-0.48
-0.25
0.03
0.27
0.42
0.41
0.22
-0.09
-0.45
-0.69
-0.71
-0.47
-0.01
0.53
0.98
1.25
1.34
1.30
1.19
1.03
0.83
0.58
0.33
0.12
0.03
0.03
0.09
0.09
-0.02
-0.23
-0.46
-0.59
-0.57
-0.40
-0.19
-0.02
0.03
-0.04
-0.17
-0.27
-0.28
-0.19
-0.03
0.13
0.23
0.24
0.14
-0.04
-0.27
-0.50
-0.70
-0.84
-0.89
-0.81
-0.55
-0.14
0.33
0.75
0.98
0.96
0.71
0.33
-0.02
-0.25
-0.32
-0.27
-0.18
-0.12
-0.12
-0.18
-0.24
-0.25
-0.17
-0.02
0.17
0.34
0.47
0.55
0.62
0.67
0.67
0.55
0.28
-0.11
-0.47
-0.68
-0.65
-0.41
-0.10
0.14
0.18
0.03
-0.25
-0.53
-0.72
-0.76
-0.63
-0.35
0.03
0.44
0.76
0.88
0.75
0.38
-0.10
-0.54
-0.80
-0.83
-0.66
-0.40
-0.16
0.01
0.08
0.09
0.06
0.03
-0.02
-0.06
-0.10
-0.12
-0.11
-0.06
0.02
0.10
0.15
0.18
0.19
0.22
0.31
0.47
0.66
0.85
0.96
0.99
0.92
0.79
0.63
0.47
0.33
0.22
0.16
0.15
0.16
0.18
0.16
0.09
-0.01
-0.12
-0.20
-0.26
-0.32
-0.38
-0.47
-0.57
-0.68
-0.80
-0.92
-1.01
-1.06
-1.02
-0.87
-0.63
-0.38
-0.19
-0.11
-0.13
-0.18
-0.19
-0.15
-0.09
-0.08
-0.16
-0.31
-0.45
-0.48
-0.35
-0.12
0.12
0.29
0.38
0.42
0.47
0.56
0.65
0.68
0.64
0.55
0.49
0.49
0.54
0.54
0.42
0.16
-0.17
-0.43
-0.52
-0.40
-0.12
0.20
0.45
0.57
0.58
0.56
0.54
0.54
0.51
0.41
0.21
-0.07
-0.35
-0.56
-0.70
-0.80
-0.92
-1.09
-1.30
-1.46
-1.48
-1.31
-0.95
-0.46
0.06
0.53
0.86
1.00
0.93
0.69
0.35
0.04
-0.15
-0.17
-0.01
0.26
0.54
0.74
0.82
0.77
0.61
0.39
0.14
-0.07
-0.25
-0.35
-0.38
-0.34
-0.26
-0.15
-0.06
0.00
0.02
-0.01
-0.04
-0.04
0.03
0.17
0.34
0.49
0.56
0.53
0.39
0.18
-0.04
-0.24
-0.38
-0.48
-0.54
-0.58
-0.58
-0.53
-0.41
-0.21
0.01
0.18
0.23
0.12
-0.12
-0.39
-0.54
-0.50
-0.23
0.21
0.68
1.08
1.30
1.30
1.09
0.73
0.31
-0.06
-0.28
-0.29
-0.10
0.22
0.53
0.70
0.65
0.40
0.01
-0.41
-0.76
-0.98
-1.04
-0.93
-0.66
-0.31
-0.01
0.11
-0.01
-0.33
-0.70
-0.90
-0.85
-0.54
-0.15
0.18
0.32
0.30
0.22
0.18
0.19
0.23
0.24
0.24
0.28
0.46
0.81
1.26
1.63
1.76
1.57
1.10
0.49
-0.07
-0.46
-0.64
-0.63
-0.51
-0.32
-0.13
0.03
0.13
0.14
0.04
-0.16
-0.42
-0.71
-0.94
-1.06
-1.00
-0.73
-0.30
0.21
0.67
1.00
1.14
1.11
0.97
0.77
0.54
0.30
0.05
-0.18
-0.36
-0.46
-0.52
-0.57
-0.64
-0.72
-0.75
-0.69
-0.48
-0.15
0.22
0.51
0.62
0.50
0.21
-0.13
-0.40
-0.48
-0.37
-0.14
0.07
0.14
0.02
-0.26
-0.59
-0.89
-1.10
-1.19
-1.17
-1.05
-0.83
-0.53
-0.20
0.05
0.16
0.12
0.01
-0.04
0.09
0.40
0.82
1.19
1.37
1.31
1.02
0.60
0.15
-0.26
-0.58
-0.75
-0.74
-0.55
-0.23
0.13
0.39
0.48
0.37
0.13
-0.16
-0.37
-0.44
-0.36
-0.17
0.04
0.16
0.14
-0.05
-0.34
-0.65
-0.88
-0.97
-0.88
-0.67
-0.39
-0.08
0.18
0.36
0.42
0.38
0.27
0.16
0.13
0.23
0.42
0.62
0.70
0.60
0.35
0.06
-0.12
-0.11
0.07
0.31
0.48
0.50
0.38
0.22
0.12
0.14
0.27
0.42
0.50
0.45
0.32
0.16
0.03
-0.04
-0.04
-0.00
0.04
0.07
0.05
-0.04
-0.20
-0.43
-0.70
-0.95
-1.15
-1.25
-1.20
-0.98
-0.62
-0.17
0.27
0.61
0.80
0.84
0.81
0.75
0.70
0.59
0.40
0.11
-0.19
-0.37
-0.31
-0.02
0.41
0.79
1.00
0.95
0.67
0.24
-0.23
-0.61
-0.83
-0.83
-0.64
-0.32
0.02
0.31
0.49
0.58
0.59
0.55
0.46
0.32
0.15
-0.05
-0.23
-0.40
-0.57
-0.73
-0.87
-0.95
-0.90
-0.70
-0.41
-0.10
0.12
0.17
0.07
-0.11
-0.28
-0.36
-0.30
-0.10
0.17
0.46
0.67
0.72
0.60
0.33
-0.01
-0.30
-0.46
-0.45
-0.27
0.01
0.33
0.61
0.79
0.80
0.59
0.16
-0.42
-0.98
-1.32
-1.33
-0.99
-0.41
0.23
0.74
1.02
1.05
0.89
0.62
0.36
0.17
0.08
0.11
0.26
0.47
0.69
0.82
0.79
0.56
0.21
-0.12
-0.29
-0.23
0.03
0.34
0.54
0.54
0.37
0.16
0.02
-0.02
-0.01
-0.05
-0.19
-0.38
-0.53
-0.57
-0.49
-0.32
-0.15
-0.04
-0.02
-0.05
-0.13
-0.24
-0.35
-0.45
-0.48
-0.41
-0.27
-0.08
0.07
0.12
0.07
-0.05
-0.21
-0.35
-0.46
-0.51
-0.51
-0.44
-0.34
-0.24
-0.17
-0.16
-0.18
-0.20
-0.21
-0.22
-0.25
-0.30
-0.32
-0.28
-0.13
0.09
0.31
0.45
0.47
0.39
0.28
0.20
0.15
0.12
0.09
0.06
0.05
0.08
0.14
0.21
0.26
0.31
0.41
0.55
0.73
0.85
0.86
0.73
0.52
0.29
0.10
-0.01
-0.05
-0.05
0.02
0.18
0.43
0.72
0.95
1.01
0.85
0.53
0.17
-0.09
-0.15
-0.02
0.20
0.37
0.37
0.11
-0.37
-0.96
-1.55
-1.98
-2.18
-2.11
-1.80
-1.34
-0.85
-0.48
-0.31
-0.33
-0.47
-0.57
-0.54
-0.32
0.02
0.37
0.62
0.72
0.67
0.55
0.40
0.27
0.19
0.15
0.13
0.14
0.18
0.23
0.28
0.29
0.22
0.08
-0.11
-0.28
-0.34
-0.25
-0.07
0.12
0.23
0.22
0.15
0.09
0.13
0.27
0.46
0.62
0.71
0.74
0.74
0.75
0.77
0.73
0.60
0.36
0.04
-0.29
-0.55
-0.64
-0.51
-0.18
0.26
0.62
0.77
0.63
0.26
-0.20
-0.55
-0.68
-0.59
-0.41
-0.26
-0.23
-0.29
-0.35
-0.34
-0.21
0.01
0.24
0.38
0.37
0.18
-0.13
-0.48
-0.79
-0.97
-1.01
-0.89
-0.66
-0.37
-0.09
0.12
0.21
0.16
0.02
-0.14
-0.24
-0.21
-0.06
0.15
0.32
0.41
0.42
0.41
0.42
0.46
0.51
0.48
0.34
0.11
-0.14
-0.31
-0.34
-0.23
-0.04
0.14
0.24
0.26
0.21
0.13
0.02
-0.14
-0.34
-0.56
-0.70
-0.69
-0.46
-0.05
0.43
0.85
1.08
1.10
0.92
0.66
0.42
0.28
0.29
0.43
0.63
0.79
0.82
0.70
0.44
0.15
-0.11
-0.28
-0.36
-0.40
-0.45
-0.52
-0.59
-0.60
-0.55
-0.41
-0.20
0.05
0.36
0.66
0.90
0.98
0.83
0.46
-0.08
-0.65
-1.14
-1.43
-1.51
-1.40
-1.16
-0.85
-0.52
-0.21
0.06
0.29
0.48
0.65
0.77
0.81
0.76
0.64
0.51
0.46
0.54
0.72
0.94
1.10
1.16
1.12
1.01
0.88
0.72
0.53
0.34
0.21
0.26
0.53
0.94
1.34
1.50
1.31
0.79
0.08
-0.62
-1.23
-1.75
-2.21
-2.60
-2.81
-2.72
-2.22
-1.41
-0.49
0.27
0.68
0.70
0.44
0.09
-0.21
-0.35
-0.33
-0.15
0.12
0.43
0.73
0.98
1.17
1.27
1.30
1.27
1.21
1.13
1.05
0.97
0.86
0.71
0.54
0.41
0.34
0.35
0.40
0.36
0.16
-0.24
-0.78
-1.30
-1.64
-1.74
-1.61
-1.34
-1.04
-0.78
-0.60
-0.48
-0.46
-0.54
-0.74
-1.02
-1.25
-1.35
-1.21
-0.85
-0.36
0.09
0.40
0.48
0.39
0.23
0.09
0.02
0.00
-0.04
-0.18
-0.44
-0.77
-1.11
-1.36
-1.46
-1.44
-1.35
-1.28
-1.33
-1.51
-1.75
-1.98
-2.07
-1.99
-1.78
-1.53
-1.36
-1.34
-1.47
-1.67
-1.81
-1.72
-1.36
-0.74
0.01
0.69
1.15
1.31
1.19
0.94
0.72
0.65
0.74
0.93
1.11
1.22
1.28
1.35
1.44
1.57
1.66
1.62
1.41
1.06
0.68
0.43
0.44
0.70
1.09
1.40
1.45
1.19
0.71
0.24
0.00
0.08
0.40
0.76
0.94
0.88
0.68
0.49
0.47
0.64
0.88
1.04
0.99
0.73
0.34
-0.02
-0.27
-0.37
-0.35
-0.27
-0.21
-0.19
-0.25
-0.37
-0.52
-0.62
-0.62
-0.48
-0.22
0.07
0.27
0.31
0.18
-0.06
-0.29
-0.38
-0.28
-0.01
0.36
0.72
0.96
1.05
0.96
0.72
0.39
0.02
-0.30
-0.50
-0.57
-0.53
-0.46
-0.47
-0.64
-0.96
-1.35
-1.69
-1.87
-1.84
-1.62
-1.28
-0.90
-0.53
-0.20
0.09
0.34
0.57
0.76
0.88
0.91
0.83
0.63
0.32
-0.04
-0.39
-0.66
-0.78
-0.69
-0.39
0.09
0.64
1.12
1.44
1.52
1.42
1.20
0.96
0.76
0.61
0.50
0.41
0.33
0.28
0.30
0.39
0.51
0.61
0.62
0.49
0.22
-0.12
-0.42
-0.58
-0.54
-0.33
-0.06
0.19
0.37
0.50
0.65
0.81
0.95
0.97
0.80
0.43
-0.03
-0.41
-0.55
-0.41
-0.03
0.41
0.73
0.82
0.65
0.31
-0.05
-0.32
-0.46
-0.50
-0.51
-0.56
-0.66
-0.77
-0.86
-0.89
-0.88
-0.86
-0.86
-0.86
-0.83
-0.73
-0.58
-0.42
-0.29
-0.20
-0.16
-0.13
-0.08
-0.04
-0.03
-0.09
-0.22
-0.39
-0.53
-0.59
-0.54
-0.39
-0.19
0.02
0.24
0.46
0.67
0.81
0.80
0.60
0.23
-0.22
-0.60
-0.80
-0.78
-0.62
-0.42
-0.30
-0.29
-0.35
-0.41
-0.39
-0.31
-0.21
-0.17
-0.19
-0.24
-0.24
-0.14
0.06
0.32
0.59
0.80
0.93
0.99
0.98
0.90
0.78
0.62
0.45
0.28
0.11
-0.05
-0.17
-0.22
-0.14
0.04
0.30
0.53
0.68
0.70
0.63
0.53
0.45
0.42
0.37
0.27
0.08
-0.18
-0.45
-0.66
-0.73
-0.62
-0.35
0.01
0.38
0.70
0.92
1.04
1.06
1.00
0.84
0.60
0.29
-0.06
-0.37
-0.57
-0.61
-0.48
-0.24
0.01
0.16
0.15
-0.02
-0.28
-0.55
-0.75
-0.84
-0.85
-0.82
-0.78
-0.73
-0.67
-0.57
-0.45
-0.34
-0.27
-0.28
-0.34
-0.41
-0.43
-0.34
-0.13
0.16
0.43
0.60
0.59
0.42
0.12
-0.22
-0.54
-0.75
-0.80
-0.66
-0.33
0.12
0.57
0.86
0.86
0.54
0.01
-0.54
-0.88
-0.93
-0.69
-0.31
0.05
0.29
0.38
0.38
0.32
0.23
0.09
-0.13
-0.41
-0.67
-0.82
-0.78
-0.57
-0.25
0.09
0.37
0.55
0.64
0.66
0.63
0.59
0.55
0.52
0.48
0.43
0.35
0.24
0.14
0.09
0.12
0.21
0.34
0.43
0.44
0.32
0.09
-0.22
-0.52
-0.71
-0.72
-0.54
-0.21
0.16
0.44
0.57
0.56
0.45
0.34
0.26
0.18
0.09
-0.06
-0.23
-0.36
-0.42
-0.43
-0.42
-0.45
-0.54
-0.66
-0.72
-0.65
-0.43
-0.07
0.34
0.70
0.91
0.91
0.69
0.33
-0.07
-0.38
-0.53
-0.51
-0.40
-0.27
-0.19
-0.17
-0.20
-0.25
-0.31
-0.35
-0.35
-0.29
-0.14
0.08
0.33
0.51
0.59
0.55
0.46
0.38
0.35
0.38
0.47
0.60
0.78
1.00
1.21
1.34
1.31
1.11
0.76
0.37
0.06
-0.09
-0.09
-0.02
0.04
-0.00
-0.16
-0.39
-0.62
-0.79
-0.84
-0.78
-0.63
-0.44
-0.24
-0.07
0.07
0.17
0.22
0.21
0.14
0.05
-0.02
-0.02
0.08
0.22
0.34
0.37
0.25
0.00
-0.32
-0.65
-0.90
-1.02
-1.01
-0.87
-0.66
-0.43
-0.24
-0.11
-0.01
0.08
0.20
0.37
0.56
0.72
0.80
0.79
0.66
0.46
0.22
-0.02
-0.24
-0.44
-0.59
-0.68
-0.68
-0.58
-0.36
-0.07
0.23
0.47
0.61
0.62
0.51
0.29
0.00
-0.33
-0.64
-0.86
-0.92
-0.78
-0.48
-0.13
0.17
0.31
0.28
0.12
-0.12
-0.37
-0.60
-0.77
-0.80
-0.64
-0.27
0.27
0.88
1.38
1.64
1.64
1.40
1.04
0.69
0.41
0.22
0.10
0.01
-0.10
-0.21
-0.29
-0.30
-0.19
-0.01
0.18
0.25
0.09
-0.33
-0.94
-1.55
-1.99
-2.13
-1.97
-1.61
-1.20
-0.86
-0.64
-0.54
-0.52
-0.52
-0.47
-0.31
-0.03
0.36
0.79
1.17
1.42
1.54
1.55
1.51
1.46
1.40
1.28
1.04
0.67
0.20
-0.26
-0.60
-0.76
-0.72
-0.53
-0.28
-0.08
0.05
0.09
0.13
0.19
0.27
0.30
0.20
-0.07
-0.46
-0.87
-1.15
-1.19
-0.96
-0.53
-0.01
0.46
0.74
0.77
0.56
0.18
-0.24
-0.55
-0.67
-0.62
-0.50
-0.40
-0.36
-0.31
-0.17
0.11
0.47
0.80
0.96
0.90
0.67
0.38
0.16
0.07
0.10
0.20
0.31
0.40
0.45
0.44
0.37
0.24
0.07
-0.09
-0.21
-0.23
-0.16
0.00
0.18
0.31
0.32
0.19
-0.04
-0.28
-0.43
-0.41
-0.24
-0.01
0.18
0.27
0.24
0.15
0.07
0.03
0.03
0.00
-0.10
-0.29
-0.50
-0.62
-0.57
-0.34
-0.03
0.20
0.22
0.00
-0.36
-0.70
-0.90
-0.87
-0.68
-0.44
-0.28
-0.23
-0.24
-0.22
-0.08
0.15
0.38
0.49
0.39
0.12
-0.20
-0.41
-0.44
-0.28
-0.05
0.15
0.26
0.27
0.24
0.21
0.22
0.22
0.23
0.24
0.28
0.38
0.53
0.67
0.79
0.83
0.82
0.78
0.72
0.65
0.56
0.46
0.38
0.33
0.34
0.36
0.35
0.25
0.08
-0.09
-0.16
-0.10
0.06
0.18
0.17
-0.02
-0.30
-0.53
-0.60
-0.48
-0.23
0.01
0.17
0.24
0.28
0.36
0.48
0.57
0.50
0.23
-0.20
-0.65
-0.97
-1.05
-0.94
-0.73
-0.57
-0.50
-0.48
-0.44
-0.32
-0.16
-0.05
-0.03
-0.11
-0.20
-0.24
-0.21
-0.17
-0.20
-0.35
-0.57
-0.74
-0.76
-0.61
-0.33
-0.05
0.15
0.23
0.19
0.07
-0.06
-0.16
-0.20
-0.14
0.02
0.24
0.48
0.66
0.72
0.67
0.55
0.42
0.32
0.25
0.17
0.03
-0.15
-0.36
-0.51
-0.52
-0.38
-0.12
0.15
0.35
0.40
0.30
0.10
-0.15
-0.35
-0.45
-0.44
-0.30
-0.07
0.20
0.43
0.54
0.51
0.35
0.12
-0.11
-0.29
-0.41
-0.48
-0.51
-0.51
-0.43
-0.24
0.03
0.35
0.60
0.70
0.63
0.42
0.17
-0.00
-0.05
-0.00
0.09
0.13
0.11
0.04
-0.03
-0.09
-0.13
-0.19
-0.27
-0.33
-0.30
-0.15
0.11
0.38
0.59
0.68
0.64
0.56
0.49
0.47
0.49
0.52
0.52
0.46
0.30
0.06
-0.27
-0.62
-0.92
-1.08
-1.06
-0.89
-0.66
-0.49
-0.44
-0.50
-0.59
-0.62
-0.53
-0.33
-0.09
0.13
0.27
0.33
0.33
0.31
0.30
0.31
0.35
0.40
0.44
0.42
0.31
0.10
-0.17
-0.42
-0.58
-0.59
-0.45
-0.22
0.02
0.21
0.30
0.31
0.24
0.14
0.03
-0.07
-0.15
-0.18
-0.13
0.01
0.22
0.45
0.61
0.66
0.55
0.32
0.01
-0.31
-0.54
-0.62
-0.52
-0.28
0.06
0.38
0.62
0.70
0.63
0.44
0.20
-0.01
-0.11
-0.05
0.16
0.44
0.69
0.81
0.78
0.61
0.39
0.21
0.11
0.07
0.06
0.05
0.04
0.03
0.03
0.04
0.03
-0.01
-0.09
-0.19
-0.27
-0.32
-0.35
-0.36
-0.39
-0.42
-0.42
-0.37
-0.24
-0.05
0.14
0.31
0.41
0.44
0.43
0.39
0.31
0.19
0.00
-0.23
-0.44
-0.54
-0.47
-0.27
-0.05
0.05
-0.08
-0.42
-0.84
-1.15
-1.19
-0.92
-0.42
0.15
0.62
0.92
1.05
1.07
1.04
0.97
0.87
0.72
0.51
0.28
0.09
-0.02
-0.05
-0.01
0.02
0.02
-0.03
-0.08
-0.06
0.07
0.29
0.52
0.65
0.59
0.33
-0.08
-0.51
-0.84
-1.02
-1.03
-0.92
-0.69
-0.37
0.03
0.43
0.69
0.70
0.42
-0.07
-0.60
-1.01
-1.17
-1.10
-0.88
-0.64
-0.46
-0.39
-0.42
-0.54
-0.70
-0.80
-0.69
-0.32
0.30
0.98
1.49
1.63
1.38
0.87
0.32
-0.07
-0.26
-0.29
-0.27
-0.27
-0.27
-0.23
-0.11
0.04
0.17
0.21
0.19
0.16
0.22
0.38
0.60
0.80
0.88
0.83
0.68
0.50
0.34
0.20
0.05
-0.14
-0.38
-0.64
-0.86
-0.98
-0.96
-0.85
-0.70
-0.56
-0.47
-0.41
-0.33
-0.15
0.16
0.56
0.94
1.16
1.14
0.86
0.45
0.09
-0.07
-0.01
0.21
0.47
0.63
0.63
0.50
0.29
0.05
-0.15
-0.30
-0.34
-0.27
-0.11
0.09
0.23
0.25
0.15
-0.01
-0.12
-0.16
-0.12
-0.08
-0.11
-0.26
-0.48
-0.71
-0.87
-0.90
-0.79
-0.57
-0.29
-0.03
0.12
0.12
-0.04
-0.32
-0.61
-0.79
-0.80
-0.63
-0.37
-0.19
-0.19
-0.40
-0.73
-1.01
-1.10
-0.95
-0.63
-0.24
0.08
0.28
0.38
0.44
0.49
0.53
0.55
0.52
0.44
0.34
0.25
0.18
0.14
0.15
0.22
0.33
0.47
0.62
0.73
0.81
0.86
0.92
0.97
0.98
0.88
0.66
0.38
0.14
0.06
0.20
0.47
0.71
0.73
0.45
-0.08
-0.67
-1.11
-1.28
-1.21
-1.04
-0.93
-0.93
-0.96
-0.88
-0.61
-0.15
0.34
0.65
0.66
0.39
0.01
-0.25
-0.25
0.01
0.41
0.75
0.91
0.84
0.60
0.31
0.04
-0.19
-0.38
-0.55
-0.72
-0.89
-1.02
-1.07
-1.02
-0.87
-0.60
-0.26
0.12
0.45
0.70
0.83
0.84
0.77
0.64
0.47
0.29
0.12
0.00
-0.02
0.05
0.19
0.33
0.40
0.41
0.36
0.30
0.28
0.31
0.37
0.46
0.53
0.55
0.49
0.35
0.18
0.02
-0.07
-0.10
-0.13
-0.21
-0.39
-0.61
-0.78
-0.85
-0.77
-0.62
-0.46
-0.35
-0.27
-0.17
-0.04
0.11
0.23
0.28
0.28
0.28
0.35
0.49
0.67
0.78
0.72
0.47
0.08
-0.30
-0.54
-0.56
-0.37
-0.08
0.19
0.35
0.41
0.40
0.38
0.36
0.32
0.21
0.01
-0.22
-0.42
-0.51
-0.48
-0.38
-0.30
-0.32
-0.43
-0.56
-0.62
-0.55
-0.41
-0.30
-0.31
-0.45
-0.64
-0.73
-0.63
-0.37
-0.07
0.09
0.00
-0.31
-0.69
-0.96
-0.98
-0.74
-0.32
0.12
0.42
0.51
0.39
0.15
-0.06
-0.12
0.05
0.39
0.80
1.12
1.29
1.30
1.23
1.15
1.07
0.98
0.80
0.53
0.19
-0.12
-0.35
-0.50
-0.62
-0.76
-0.90
-0.98
-0.91
-0.64
-0.26
0.06
0.17
-0.01
-0.41
-0.82
-1.03
-0.91
-0.44
0.24
0.89
1.33
1.43
1.22
0.83
0.42
0.13
-0.00
-0.00
0.05
0.10
0.12
0.12
0.14
0.15
0.14
0.08
-0.00
-0.05
0.01
0.18
0.40
0.56
0.57
0.41
0.15
-0.11
-0.27
-0.29
-0.21
-0.10
-0.01
0.01
-0.02
-0.05
-0.07
-0.04
0.02
0.13
0.28
0.45
0.61
0.72
0.73
0.61
0.34
-0.01
-0.38
-0.69
-0.89
-0.92
-0.79
-0.54
-0.21
0.12
0.35
0.43
0.34
0.10
-0.21
-0.48
-0.64
-0.67
-0.57
-0.39
-0.17
0.10
0.40
0.70
0.93
0.99
0.80
0.36
-0.26
-0.88
-1.30
-1.40
-1.19
-0.76
-0.28
0.12
0.35
0.40
0.29
0.11
-0.08
-0.22
-0.30
-0.36
-0.45
-0.60
-0.82
-1.04
-1.16
-1.12
-0.88
-0.49
-0.06
0.29
0.45
0.40
0.20
-0.02
-0.16
-0.14
0.01
0.23
0.42
0.54
0.57
0.56
0.55
0.54
0.49
0.35
0.13
-0.18
-0.52
-0.86
-1.14
-1.33
-1.38
-1.25
-0.95
-0.54
-0.11
0.26
0.53
0.69
0.77
0.79
0.76
0.69
0.60
0.52
0.50
0.53
0.59
0.66
0.74
0.82
0.92
1.03
1.12
1.17
1.15
1.07
0.95
0.77
0.50
0.16
-0.22
-0.54
-0.70
-0.65
-0.42
-0.09
0.23
0.47
0.58
0.59
0.50
0.35
0.18
0.02
-0.12
-0.24
-0.34
-0.46
-0.57
-0.65
-0.65
-0.56
-0.45
-0.41
-0.52
-0.73
-0.93
-1.00
-0.85
-0.52
-0.15
0.10
0.17
0.06
-0.14
-0.31
-0.37
-0.29
-0.10
0.18
0.47
0.71
0.83
0.75
0.50
0.14
-0.21
-0.41
-0.40
-0.18
0.15
0.48
0.71
0.77
0.65
0.40
0.06
-0.27
-0.55
-0.72
-0.76
-0.69
-0.54
-0.34
-0.12
0.05
0.12
0.06
-0.14
-0.43
-0.69
-0.83
-0.79
-0.59
-0.29
0.02
0.29
0.48
0.56
0.54
0.40
0.17
-0.07
-0.23
-0.23
-0.06
0.20
0.41
0.47
0.35
0.10
-0.17
-0.36
-0.41
-0.35
-0.24
-0.11
0.00
0.13
0.27
0.41
0.48
0.43
0.26
0.01
-0.16
-0.14
0.13
0.58
1.02
1.27
1.22
0.88
0.39
-0.08
-0.37
-0.48
-0.43
-0.33
-0.19
-0.04
0.14
0.32
0.40
0.31
0.01
-0.39
-0.71
-0.78
-0.52
0.02
0.66
1.19
1.47
1.46
1.23
0.89
0.52
0.19
-0.08
-0.26
-0.33
-0.27
-0.08
0.18
0.43
0.52
0.35
-0.11
-0.77
-1.47
-1.98
-2.14
-1.91
-1.41
-0.82
-0.32
0.00
0.13
0.11
-0.00
-0.18
-0.39
-0.59
-0.74
-0.78
-0.69
-0.51
-0.31
-0.15
-0.05
-0.01
0.00
0.03
0.09
0.19
0.29
0.36
0.34
0.23
0.07
-0.06
-0.06
0.10
0.36
0.59
0.62
0.39
-0.05
-0.52
-0.84
-0.86
-0.56
-0.04
0.51
0.91
1.06
0.91
0.52
0.00
-0.54
-1.02
-1.37
-1.52
-1.46
-1.19
-0.77
-0.31
0.04
0.19
0.12
-0.06
-0.21
-0.19
0.04
0.41
0.77
1.01
1.07
0.98
0.80
0.62
0.48
0.39
0.34
0.32
0.34
0.40
0.47
0.55
0.59
0.56
0.46
0.30
0.13
0.02
0.01
0.16
0.43
0.77
1.05
1.14
0.95
0.49
-0.13
-0.76
-1.23
-1.45
-1.42
-1.21
-0.95
-0.70
-0.50
-0.30
-0.08
0.17
0.41
0.57
0.60
0.52
0.43
0.43
0.56
0.78
0.96
0.94
0.63
0.10
-0.50
-0.98
-1.21
-1.16
-0.93
-0.63
-0.40
-0.27
-0.22
-0.18
-0.11
0.02
0.16
0.27
0.33
0.37
0.42
0.51
0.61
0.65
0.55
0.31
-0.04
-0.35
-0.52
-0.45
-0.16
0.26
0.68
1.01
1.20
1.24
1.14
0.94
0.67
0.40
0.16
0.01
-0.00
0.10
0.27
0.41
0.45
0.33
0.07
-0.29
-0.66
-0.97
-1.15
-1.18
-1.04
-0.80
-0.54
-0.34
-0.27
-0.34
-0.50
-0.66
-0.72
-0.61
-0.38
-0.07
0.22
0.44
0.59
0.67
0.72
0.73
0.69
0.60
0.48
0.37
0.28
0.18
0.03
-0.23
-0.58
-0.95
-1.21
-1.26
-1.10
-0.79
-0.49
-0.30
-0.25
-0.28
-0.27
-0.13
0.14
0.45
0.66
0.70
0.53
0.23
-0.10
-0.36
-0.51
-0.52
-0.42
-0.22
0.09
0.46
0.82
1.11
1.23
1.15
0.88
0.47
-0.02
-0.54
-1.02
-1.38
-1.56
-1.53
-1.30
-0.97
-0.63
-0.34
-0.11
0.10
0.31
0.53
0.67
0.66
0.48
0.16
-0.19
-0.47
-0.61
-0.60
-0.47
-0.24
0.04
0.36
0.65
0.85
0.88
0.73
0.46
0.16
-0.05
-0.11
-0.03
0.10
0.20
0.19
0.11
0.02
-0.03
-0.02
-0.04
-0.16
-0.44
-0.80
-1.12
-1.23
-1.05
-0.60
-0.02
0.52
0.88
1.02
0.99
0.86
0.75
0.70
0.70
0.71
0.70
0.63
0.52
0.41
0.30
0.18
0.05
-0.12
-0.29
-0.42
-0.46
-0.38
-0.18
0.09
0.37
0.54
0.51
0.27
-0.10
-0.46
-0.65
-0.56
-0.24
0.17
0.51
0.66
0.63
0.52
0.44
0.41
0.40
0.31
0.11
-0.15
-0.40
-0.58
-0.67
-0.71
-0.74
-0.77
-0.75
-0.64
-0.42
-0.14
0.11
0.26
0.27
0.21
0.13
0.10
0.13
0.18
0.20
0.15
0.04
-0.10
-0.22
-0.30
-0.33
-0.33
-0.34
-0.40
-0.50
-0.62
-0.66
-0.54
-0.25
0.20
0.66
0.98
1.06
0.89
0.57
0.25
0.09
0.12
0.30
0.53
0.67
0.66
0.50
0.23
-0.05
-0.28
-0.41
-0.42
-0.31
-0.12
0.13
0.36
0.50
0.51
0.37
0.15
-0.06
-0.19
-0.21
-0.18
-0.16
-0.18
-0.23
-0.24
-0.17
-0.05
0.05
0.04
-0.13
-0.40
-0.63
-0.73
-0.65
-0.45
-0.23
-0.10
-0.11
-0.23
-0.38
-0.48
-0.46
-0.32
-0.13
0.02
0.09
0.05
-0.05
-0.14
-0.19
-0.20
-0.21
-0.27
-0.37
-0.47
-0.49
-0.41
-0.28
-0.19
-0.22
-0.37
-0.57
-0.68
-0.60
-0.32
0.08
0.47
0.72
0.78
0.68
0.47
0.24
0.05
-0.08
-0.13
-0.11
-0.04
0.06
0.14
0.21
0.27
0.35
0.44
0.51
0.50
0.37
0.14
-0.11
-0.30
-0.33
-0.20
0.02
0.21
0.32
0.33
0.26
0.19
0.14
0.10
0.07
0.09
0.17
0.33
0.53
0.68
0.70
0.56
0.31
0.07
-0.04
0.03
0.22
0.39
0.40
0.18
-0.17
-0.52
-0.70
-0.62
-0.31
0.09
0.41
0.54
0.47
0.26
0.05
-0.08
-0.09
0.02
0.18
0.34
0.44
0.45
0.36
0.20
0.02
-0.15
-0.23
-0.23
-0.16
-0.03
0.08
0.15
0.15
0.11
0.03
-0.05
-0.11
-0.13
-0.12
-0.11
-0.11
-0.13
-0.19
-0.28
-0.38
-0.44
-0.40
-0.26
-0.03
0.22
0.41
0.50
0.50
0.45
0.38
0.29
0.17
0.02
-0.14
-0.26
-0.33
-0.39
-0.53
-0.81
-1.18
-1.50
-1.58
-1.33
-0.80
-0.18
0.30
0.48
0.34
-0.02
-0.44
-0.78
-0.95
-0.90
-0.63
-0.11
0.62
1.45
2.16
2.52
2.39
1.77
0.85
-0.05
-0.66
-0.86
-0.69
-0.33
0.05
0.34
0.54
0.67
0.73
0.69
0.49
0.13
-0.30
-0.68
-0.89
-0.91
-0.78
-0.60
-0.43
-0.31
-0.21
-0.12
-0.00
0.15
0.33
0.51
0.70
0.86
0.97
1.02
1.02
0.97
0.84
0.62
0.27
-0.17
-0.63
-1.01
-1.20
-1.18
-0.99
-0.76
-0.58
-0.52
-0.54
-0.56
-0.51
-0.38
-0.18
0.03
0.19
0.28
0.30
0.27
0.18
0.02
-0.17
-0.37
-0.55
-0.67
-0.71
-0.67
-0.54
-0.31
0.01
0.38
0.71
0.91
0.87
0.57
0.08
-0.46
-0.92
-1.20
-1.27
-1.15
-0.90
-0.56
-0.16
0.28
0.70
1.05
1.26
1.32
1.26
1.10
0.90
0.70
0.52
0.34
0.18
0.08
0.08
0.21
0.45
0.71
0.87
0.83
0.56
0.12
-0.33
-0.64
-0.72
-0.59
-0.39
-0.26
-0.27
-0.39
-0.49
-0.49
-0.39
-0.29
-0.31
-0.48
-0.70
-0.82
-0.71
-0.40
-0.04
0.18
0.16
-0.04
-0.27
-0.34
-0.18
0.15
0.50
0.74
0.80
0.72
0.56
0.39
0.21
0.01
-0.20
-0.37
-0.42
-0.28
0.02
0.39
0.68
0.75
0.56
0.21
-0.13
-0.32
-0.30
-0.11
0.14
0.33
0.41
0.37
0.23
0.00
-0.27
-0.54
-0.76
-0.86
-0.79
-0.58
-0.28
0.02
0.25
0.38
0.45
0.50
0.56
0.60
0.59
0.51
0.40
0.34
0.39
0.55
0.74
0.85
0.81
0.59
0.28
-0.01
-0.18
-0.18
-0.02
0.24
0.49
0.59
0.47
0.12
-0.36
-0.78
-0.95
-0.79
-0.39
0.04
0.26
0.16
-0.20
-0.64
-0.97
-1.06
-0.94
-0.74
-0.61
-0.62
-0.75
-0.91
-1.00
-0.94
-0.75
-0.46
-0.15
0.11
0.32
0.47
0.58
0.66
0.71
0.72
0.67
0.54
0.33
0.08
-0.17
-0.39
-0.53
-0.56
-0.47
-0.28
-0.00
0.33
0.64
0.84
0.90
0.76
0.48
0.15
-0.12
-0.26
-0.25
-0.13
0.05
0.23
0.38
0.50
0.59
0.62
0.59
0.44
0.20
-0.11
-0.39
-0.58
-0.60
-0.46
-0.18
0.15
0.44
0.60
0.60
0.46
0.24
0.01
-0.15
-0.24
-0.28
-0.31
-0.33
-0.36
-0.35
-0.27
-0.11
0.06
0.11
-0.04
-0.38
-0.79
-1.07
-1.09
-0.82
-0.41
-0.08
0.02
-0.15
-0.46
-0.73
-0.82
-0.71
-0.49
-0.28
-0.19
-0.26
-0.44
-0.61
-0.68
-0.58
-0.31
0.07
0.45
0.77
0.97
1.09
1.15
1.19
1.22
1.21
1.14
1.04
0.96
0.92
0.93
0.93
0.87
0.70
0.45
0.16
-0.11
-0.33
-0.51
-0.67
-0.79
-0.84
-0.79
-0.65
-0.50
-0.45
-0.59
-0.89
-1.24
-1.46
-1.43
-1.11
-0.61
-0.07
0.36
0.60
0.67
0.59
0.42
0.19
-0.06
-0.27
-0.34
-0.19
0.17
0.64
1.05
1.26
1.22
1.03
0.82
0.74
0.81
0.97
1.10
1.13
1.05
0.90
0.73
0.55
0.34
0.10
-0.15
-0.36
-0.47
-0.44
-0.28
-0.07
0.12
0.22
0.18
0.01
-0.31
-0.72
-1.17
-1.56
-1.79
-1.78
-1.50
-0.97
-0.29
0.36
0.81
0.96
0.77
0.34
-0.16
-0.54
-0.69
-0.60
-0.34
-0.05
0.14
0.19
0.12
0.01
-0.05
-0.03
0.05
0.13
0.14
0.10
0.03
0.00
0.05
0.14
0.20
0.15
-0.07
-0.43
-0.82
-1.11
-1.18
-1.00
-0.60
-0.12
0.31
0.60
0.72
0.71
0.64
0.57
0.51
0.43
0.31
0.10
-0.15
-0.38
-0.49
-0.43
-0.21
0.12
0.41
0.55
0.46
0.17
-0.23
-0.59
-0.83
-0.89
-0.83
-0.73
-0.65
-0.60
-0.56
-0.48
-0.34
-0.15
0.09
0.34
0.57
0.75
0.84
0.82
0.68
0.48
0.28
0.15
0.08
0.03
-0.08
-0.29
-0.54
-0.71
-0.70
-0.46
-0.09
0.27
0.44
0.35
0.05
-0.33
-0.58
-0.61
-0.38
0.01
0.43
0.74
0.91
0.97
0.99
1.02
1.09
1.13
1.08
0.93
0.68
0.41
0.17
-0.01
-0.16
-0.32
-0.52
-0.72
-0.85
-0.80
-0.52
-0.07
0.43
0.80
0.90
0.71
0.30
-0.19
-0.62
-0.90
-1.00
-0.95
-0.81
-0.59
-0.32
-0.01
0.31
0.57
0.74
0.76
0.62
0.36
0.04
-0.24
-0.39
-0.39
-0.27
-0.09
0.08
0.21
0.29
0.36
0.43
0.52
0.62
0.73
0.84
0.91
0.91
0.81
0.61
0.39
0.23
0.20
0.28
0.39
0.42
0.27
-0.03
-0.38
-0.63
-0.71
-0.63
-0.45
-0.26
-0.17
-0.21
-0.38
-0.66
-0.99
-1.29
-1.47
-1.49
-1.32
-1.01
-0.63
-0.27
0.02
0.22
0.32
0.30
0.16
-0.07
-0.33
-0.52
-0.55
-0.36
-0.01
0.35
0.54
0.44
0.08
-0.40
-0.75
-0.79
-0.47
0.07
0.60
0.90
0.88
0.58
0.14
-0.29
-0.60
-0.76
-0.79
-0.73
-0.60
-0.42
-0.21
0.01
0.20
0.33
0.37
0.33
0.24
0.14
0.09
0.13
0.27
0.47
0.69
0.85
0.93
0.90
0.76
0.55
0.31
0.13
0.04
0.05
0.11
0.11
0.00
-0.21
-0.44
-0.59
-0.58
-0.43
-0.22
-0.02
0.13
0.22
0.28
0.29
0.22
0.08
-0.12
-0.32
-0.42
-0.37
-0.17
0.10
0.34
0.47
0.47
0.39
0.29
0.23
0.21
0.19
0.16
0.08
-0.02
-0.12
-0.19
-0.22
-0.24
-0.26
-0.30
-0.33
-0.31
-0.23
-0.13
-0.06
-0.05
-0.10
-0.15
-0.14
-0.03
0.13
0.28
0.32
0.22
0.04
-0.16
-0.29
-0.31
-0.26
-0.18
-0.11
-0.04
0.07
0.23
0.40
0.53
0.54
0.41
0.19
-0.01
-0.10
-0.07
0.06
0.18
0.19
0.06
-0.17
-0.41
-0.56
-0.57
-0.47
-0.35
-0.28
-0.31
-0.41
-0.52
-0.55
-0.49
-0.36
-0.21
-0.09
-0.00
0.11
0.29
0.55
0.83
1.06
1.17
1.10
0.89
0.57
0.24
-0.05
-0.24
-0.28
-0.18
-0.01
0.13
0.17
0.06
-0.17
-0.43
-0.61
-0.64
-0.49
-0.19
0.20
0.58
0.86
0.97
0.83
0.47
-0.03
-0.54
-0.94
-1.15
-1.20
-1.15
-1.08
-1.03
-0.96
-0.83
-0.61
-0.33
-0.04
0.18
0.32
0.41
0.49
0.60
0.73
0.82
0.81
0.70
0.50
0.30
0.15
0.05
0.00
-0.03
-0.06
-0.04
0.06
0.26
0.53
0.78
0.93
0.95
0.83
0.63
0.43
0.28
0.21
0.23
0.29
0.38
0.45
0.49
0.50
0.50
0.49
0.46
0.39
0.24
0.02
-0.23
-0.45
-0.57
-0.59
-0.54
-0.49
-0.47
-0.49
-0.53
-0.57
-0.59
-0.62
-0.67
-0.73
-0.76
-0.72
-0.60
-0.42
-0.26
-0.15
-0.11
-0.11
-0.09
-0.00
0.15
0.31
0.43
0.46
0.38
0.23
0.03
-0.18
-0.39
-0.59
-0.76
-0.84
-0.78
-0.57
-0.26
0.04
0.24
0.29
0.22
0.15
0.17
0.33
0.57
0.78
0.88
0.85
0.75
0.68
0.67
0.71
0.69
0.52
0.18
-0.25
-0.65
-0.88
-0.90
-0.76
-0.55
-0.37
-0.27
-0.24
-0.27
-0.32
-0.37
-0.42
-0.46
-0.47
-0.40
-0.22
0.08
0.43
0.75
0.92
0.85
0.54
0.08
-0.39
-0.73
-0.81
-0.62
-0.25
0.15
0.40
0.41
0.20
-0.12
-0.43
-0.59
-0.57
-0.38
-0.11
0.15
0.35
0.46
0.48
0.42
0.29
0.12
-0.08
-0.27
-0.42
-0.52
-0.55
-0.48
-0.34
-0.14
0.06
0.23
0.35
0.43
0.49
0.54
0.56
0.52
0.41
0.25
0.09
0.02
0.04
0.15
0.28
0.37
0.36
0.26
0.10
-0.05
-0.14
-0.16
-0.13
-0.10
-0.09
-0.12
-0.15
-0.17
-0.14
-0.09
-0.05
-0.03
-0.08
-0.17
-0.29
-0.38
-0.41
-0.32
-0.07
0.29
0.69
1.01
1.12
0.99
0.68
0.34
0.11
0.06
0.16
0.29
0.31
0.15
-0.17
-0.55
-0.87
-1.06
-1.09
-0.99
-0.82
-0.59
-0.28
0.08
0.46
0.77
0.91
0.86
0.62
0.29
-0.03
-0.25
-0.33
-0.26
-0.07
0.21
0.53
0.81
0.97
0.97
0.83
0.63
0.49
0.48
0.58
0.68
0.65
0.39
-0.09
-0.64
-1.08
-1.28
-1.22
-0.97
-0.66
-0.40
-0.23
-0.13
-0.06
0.00
0.04
0.03
-0.02
-0.09
-0.13
-0.14
-0.12
-0.10
-0.11
-0.14
-0.17
-0.19
-0.21
-0.24
-0.29
-0.35
-0.41
-0.43
-0.40
-0.32
-0.22
-0.14
-0.11
-0.13
-0.19
-0.27
-0.32
-0.33
-0.27
-0.14
0.05
0.28
0.51
0.69
0.77
0.75
0.62
0.44
0.27
0.15
0.10
0.11
0.16
0.23
0.31
0.40
0.49
0.56
0.60
0.58
0.49
0.29
-0.01
-0.39
-0.77
-1.05
-1.13
-1.00
-0.72
-0.39
-0.13
0.01
0.05
0.02
-0.04
-0.14
-0.30
-0.50
-0.68
-0.78
-0.71
-0.49
-0.23
-0.06
-0.03
-0.14
-0.28
-0.35
-0.30
-0.17
-0.03
0.07
0.15
0.27
0.47
0.73
0.96
1.07
1.01
0.82
0.57
0.37
0.25
0.21
0.23
0.26
0.25
0.16
-0.03
-0.30
-0.62
-0.90
-1.07
-1.10
-0.99
-0.78
-0.50
-0.21
0.09
0.37
0.58
0.69
0.65
0.47
0.21
-0.04
-0.18
-0.16
0.02
0.27
0.48
0.55
0.45
0.21
-0.06
-0.25
-0.26
-0.10
0.14
0.36
0.45
0.39
0.19
-0.08
-0.36
-0.58
-0.73
-0.77
-0.69
-0.48
-0.17
0.18
0.44
0.53
0.38
0.01
-0.47
-0.89
-1.12
-1.08
-0.79
-0.37
0.03
0.28
0.35
0.30
0.23
0.21
0.25
0.30
0.26
0.12
-0.04
-0.07
0.12
0.55
1.04
1.35
1.30
0.84
0.17
-0.45
-0.78
-0.76
-0.49
-0.20
-0.02
0.02
0.02
0.09
0.26
0.46
0.58
0.57
0.48
0.40
0.42
0.55
0.69
0.71
0.57
0.31
0.05
-0.12
-0.17
-0.13
-0.09
-0.08
-0.10
-0.10
-0.05
0.02
0.05
0.01
-0.06
-0.09
0.02
0.26
0.56
0.75
0.71
0.40
-0.08
-0.58
-0.94
-1.09
-1.05
-0.95
-0.87
-0.87
-0.92
-0.96
-0.93
-0.78
-0.52
-0.24
0.01
0.16
0.22
0.23
0.23
0.25
0.30
0.32
0.29
0.21
0.13
0.10
0.16
0.30
0.46
0.60
0.68
0.71
0.71
0.69
0.66
0.66
0.71
0.82
0.97
1.06
1.03
0.79
0.38
-0.12
-0.55
-0.79
-0.81
-0.64
-0.40
-0.21
-0.16
-0.24
-0.39
-0.55
-0.67
-0.74
-0.77
-0.79
-0.81
-0.82
-0.79
-0.74
-0.68
-0.63
-0.59
-0.55
-0.46
-0.33
-0.19
-0.08
-0.03
-0.04
-0.08
-0.11
-0.12
-0.11
-0.10
-0.12
-0.14
-0.13
-0.06
0.09
0.30
0.51
0.68
0.78
0.78
0.71
0.57
0.38
0.16
-0.06
-0.21
-0.25
-0.16
0.03
0.26
0.46
0.59
0.67
0.71
0.77
0.83
0.91
0.96
0.98
0.96
0.89
0.74
0.49
0.14
-0.25
-0.58
-0.73
-0.69
-0.52
-0.35
-0.30
-0.41
-0.63
-0.84
-0.97
-0.99
-0.95
-0.86
-0.73
-0.48
-0.09
0.42
0.89
1.17
1.13
0.80
0.35
-0.01
-0.15
-0.06
0.14
0.29
0.30
0.15
-0.10
-0.36
-0.54
-0.61
-0.55
-0.42
-0.24
-0.06
0.07
0.14
0.16
0.13
0.05
-0.10
-0.29
-0.49
-0.63
-0.60
-0.34
0.14
0.73
1.23
1.49
1.43
1.10
0.63
0.19
-0.10
-0.26
-0.34
-0.44
-0.61
-0.79
-0.90
-0.85
-0.67
-0.44
-0.26
-0.22
-0.29
-0.38
-0.40
-0.29
-0.11
0.07
0.19
0.24
0.27
0.32
0.40
0.45
0.45
0.38
0.27
0.20
0.19
0.27
0.38
0.48
0.53
0.50
0.41
0.27
0.13
0.05
0.07
0.16
0.27
0.31
0.23
0.07
-0.07
-0.11
-0.02
0.15
0.27
0.24
0.06
-0.20
-0.43
-0.53
-0.51
-0.46
-0.46
-0.55
-0.71
-0.88
-1.00
-1.00
-0.90
-0.71
-0.50
-0.30
-0.11
0.06
0.22
0.34
0.38
0.32
0.13
-0.15
-0.44
-0.64
-0.68
-0.55
-0.28
0.04
0.30
0.45
0.50
0.47
0.43
0.44
0.47
0.51
0.50
0.42
0.29
0.17
0.09
0.05
0.01
-0.09
-0.26
-0.46
-0.59
-0.57
-0.42
-0.21
-0.06
-0.03
-0.12
-0.27
-0.38
-0.39
-0.33
-0.26
-0.21
-0.19
-0.13
-0.00
0.22
0.48
0.68
0.74
0.63
0.42
0.22
0.13
0.21
0.39
0.59
0.68
0.62
0.44
0.23
0.08
0.03
0.04
0.03
-0.09
-0.36
-0.71
-0.98
-1.08
-0.96
-0.66
-0.30
-0.00
0.19
0.28
0.29
0.25
0.17
0.03
-0.15
-0.28
-0.28
-0.09
0.23
0.56
0.75
0.72
0.46
0.11
-0.18
-0.29
-0.20
0.01
0.22
0.32
0.27
0.12
-0.06
-0.15
-0.12
0.04
0.26
0.46
0.54
0.46
0.23
-0.08
-0.32
-0.39
-0.23
0.11
0.52
0.84
0.97
0.92
0.76
0.56
0.41
0.33
0.31
0.32
0.34
0.36
0.38
0.42
0.49
0.59
0.65
0.62
0.46
0.19
-0.12
-0.40
-0.60
-0.73
-0.86
-1.02
-1.19
-1.34
-1.37
-1.27
-1.11
-0.98
-0.98
-1.11
-1.26
-1.31
-1.18
-0.87
-0.47
-0.07
0.26
0.47
0.60
0.69
0.77
0.85
0.91
0.94
0.92
0.83
0.71
0.59
0.51
0.49
0.53
0.56
0.52
0.37
0.12
-0.16
-0.40
-0.55
-0.62
-0.63
-0.63
-0.64
-0.65
-0.64
-0.63
-0.64
-0.68
-0.75
-0.81
-0.79
-0.70
-0.58
-0.50
-0.54
-0.66
-0.76
-0.71
-0.44
0.02
0.53
0.93
1.12
1.10
0.98
0.88
0.88
0.98
1.08
1.09
0.95
0.67
0.35
0.11
0.01
0.07
0.23
0.39
0.46
0.41
0.25
0.04
-0.12
-0.20
-0.19
-0.13
-0.11
-0.17
-0.32
-0.48
-0.57
-0.55
-0.44
-0.32
-0.27
-0.29
-0.36
-0.39
-0.31
-0.13
0.04
0.12
0.06
-0.13
-0.35
-0.48
-0.47
-0.33
-0.15
-0.01
0.02
-0.02
-0.07
-0.08
-0.02
0.05
0.09
0.06
-0.01
-0.04
0.01
0.13
0.28
0.39
0.41
0.37
0.32
0.33
0.42
0.55
0.65
0.63
0.48
0.25
0.04
-0.05
0.03
0.23
0.43
0.49
0.33
-0.02
-0.44
-0.80
-1.02
-1.11
-1.12
-1.09
-1.01
-0.83
-0.52
-0.13
0.21
0.39
0.35
0.14
-0.13
-0.32
-0.38
-0.31
-0.19
-0.07
0.01
0.06
0.11
0.16
0.21
0.27
0.32
0.39
0.49
0.61
0.75
0.87
0.92
0.87
0.73
0.56
0.44
0.43
0.55
0.73
0.85
0.82
0.62
0.29
-0.08
-0.38
-0.58
-0.66
-0.65
-0.58
-0.47
-0.35
-0.24
-0.21
-0.26
-0.35
-0.41
-0.35
-0.14
0.15
0.40
0.52
0.44
0.20
-0.11
-0.41
-0.66
-0.84
-0.94
-0.95
-0.84
-0.59
-0.23
0.18
0.55
0.81
0.92
0.85
0.64
0.34
0.01
-0.28
-0.49
-0.58
-0.55
-0.41
-0.22
-0.05
0.04
0.05
-0.01
-0.09
-0.14
-0.15
-0.17
-0.25
-0.42
-0.63
-0.80
-0.80
-0.57
-0.12
0.45
0.97
1.31
1.38
1.20
0.84
0.45
0.12
-0.13
-0.29
-0.42
-0.51
-0.55
-0.50
-0.34
-0.09
0.21
0.46
0.57
0.47
0.16
-0.32
-0.80
-1.11
-1.09
-0.73
-0.12
0.53
1.02
1.23
1.17
0.94
0.65
0.37
0.14
-0.01
-0.04
0.06
0.25
0.43
0.48
0.34
0.06
-0.23
-0.37
-0.33
-0.16
-0.01
-0.02
-0.21
-0.49
-0.71
-0.77
-0.64
-0.42
-0.20
-0.07
-0.04
-0.06
-0.09
-0.09
-0.03
0.06
0.18
0.30
0.40
0.44
0.40
0.27
0.10
-0.06
-0.14
-0.13
-0.06
0.04
0.10
0.12
0.14
0.17
0.22
0.26
0.23
0.09
-0.14
-0.38
-0.50
-0.45
-0.23
0.07
0.32
0.45
0.47
0.45
0.43
0.45
0.44
0.33
0.10
-0.20
-0.45
-0.54
-0.42
-0.11
0.25
0.52
0.60
0.49
0.22
-0.10
-0.41
-0.65
-0.83
-0.94
-1.01
-1.02
-0.96
-0.84
-0.66
-0.45
-0.28
-0.19
-0.20
-0.25
-0.28
-0.20
0.00
0.28
0.54
0.68
0.68
0.58
0.46
0.39
0.35
0.30
0.20
0.05
-0.06
-0.03
0.18
0.53
0.87
1.07
1.05
0.82
0.49
0.16
-0.06
-0.13
-0.05
0.13
0.34
0.47
0.45
0.27
0.02
-0.16
-0.18
0.00
0.27
0.47
0.47
0.22
-0.18
-0.60
-0.91
-1.04
-1.00
-0.83
-0.54
-0.18
0.22
0.60
0.87
0.95
0.86
0.66
0.45
0.32
0.23
0.11
-0.16
-0.57
-1.02
-1.34
-1.39
-1.15
-0.75
-0.38
-0.18
-0.20
-0.33
-0.44
-0.42
-0.24
0.02
0.21
0.27
0.17
-0.01
-0.16
-0.19
-0.10
0.07
0.24
0.33
0.34
0.27
0.19
0.11
0.04
-0.04
-0.13
-0.21
-0.26
-0.22
-0.09
0.11
0.32
0.48
0.51
0.41
0.20
-0.04
-0.26
-0.41
-0.50
-0.52
-0.49
-0.39
-0.21
0.02
0.27
0.47
0.57
0.56
0.46
0.35
0.29
0.32
0.42
0.54
0.62
0.61
0.54
0.43
0.37
0.38
0.43
0.45
0.38
0.18
-0.10
-0.35
-0.45
-0.32
0.01
0.42
0.75
0.87
0.72
0.36
-0.08
-0.48
-0.75
-0.88
-0.88
-0.80
-0.69
-0.58
-0.52
-0.53
-0.61
-0.70
-0.71
-0.56
-0.26
0.14
0.51
0.77
0.86
0.82
0.66
0.42
0.11
-0.25
-0.61
-0.87
-0.98
-0.94
-0.79
-0.63
-0.54
-0.51
-0.48
-0.40
-0.25
-0.05
0.13
0.26
0.35
0.40
0.44
0.44
0.40
0.30
0.16
0.04
-0.03
-0.01
0.11
0.31
0.55
0.74
0.83
0.76
0.53
0.23
-0.06
-0.23
-0.23
-0.06
0.19
0.42
0.55
0.55
0.44
0.26
0.05
-0.18
-0.42
-0.66
-0.84
-0.91
-0.82
-0.60
-0.32
-0.09
-0.00
-0.04
-0.12
-0.14
-0.01
0.23
0.51
0.70
0.74
0.62
0.38
0.11
-0.14
-0.32
-0.40
-0.36
-0.19
0.05
0.25
0.32
0.23
0.03
-0.14
-0.18
-0.06
0.13
0.25
0.19
-0.06
-0.37
-0.60
-0.64
-0.52
-0.33
-0.21
-0.23
-0.36
-0.52
-0.61
-0.58
-0.42
-0.17
0.10
0.34
0.47
0.48
0.34
0.11
-0.14
-0.33
-0.40
-0.34
-0.16
0.05
0.24
0.35
0.33
0.20
0.01
-0.19
-0.32
-0.39
-0.42
-0.46
-0.50
-0.52
-0.45
-0.27
-0.05
0.10
0.08
-0.09
-0.32
-0.46
-0.43
-0.24
-0.01
0.15
0.22
0.22
0.21
0.26
0.34
0.42
0.46
0.49
0.54
0.66
0.86
1.11
1.34
1.47
1.44
1.24
0.91
0.51
0.13
-0.16
-0.35
-0.43
-0.46
-0.49
-0.55
-0.66
-0.80
-0.93
-0.98
-0.90
-0.65
-0.25
0.21
0.63
0.88
0.92
0.72
0.36
-0.05
-0.41
-0.61
-0.61
-0.42
-0.11
0.21
0.43
0.51
0.45
0.28
0.07
-0.11
-0.22
-0.19
-0.03
0.26
0.58
0.83
0.92
0.83
0.59
0.29
0.02
-0.15
-0.25
-0.29
-0.29
-0.26
-0.15
0.04
0.26
0.42
0.44
0.32
0.11
-0.11
-0.23
-0.25
-0.22
-0.22
-0.27
-0.37
-0.47
-0.52
-0.56
-0.61
-0.71
-0.82
-0.86
-0.77
-0.56
-0.30
-0.10
0.00
0.04
0.11
0.27
0.49
0.64
0.60
0.36
-0.01
-0.34
-0.50
-0.46
-0.32
-0.22
-0.28
-0.47
-0.71
-0.86
-0.85
-0.68
-0.42
-0.16
0.04
0.17
0.25
0.31
0.37
0.43
0.48
0.52
0.53
0.51
0.44
0.33
0.18
0.02
-0.12
-0.18
-0.16
-0.06
0.06
0.15
0.18
0.14
0.10
0.10
0.17
0.31
0.46
0.53
0.50
0.36
0.16
-0.06
-0.26
-0.43
-0.56
-0.64
-0.67
-0.64
-0.54
-0.39
-0.20
0.05
0.33
0.62
0.87
1.02
1.02
0.89
0.67
0.43
0.22
0.06
-0.08
-0.20
-0.31
-0.37
-0.34
-0.21
0.02
0.28
0.53
0.70
0.73
0.61
0.33
-0.05
-0.46
-0.77
-0.90
-0.85
-0.65
-0.42
-0.27
-0.23
-0.29
-0.38
-0.43
-0.39
-0.27
-0.07
0.20
0.51
0.80
1.02
1.09
0.97
0.70
0.40
0.17
0.07
0.10
0.14
0.11
-0.03
-0.21
-0.31
-0.25
-0.03
0.22
0.35
0.28
0.02
-0.31
-0.58
-0.68
-0.60
-0.40
-0.17
0.01
0.09
0.06
-0.08
-0.28
-0.50
-0.68
-0.76
-0.73
-0.58
-0.35
-0.06
0.22
0.44
0.56
0.58
0.51
0.41
0.29
0.15
-0.02
-0.20
-0.31
-0.27
-0.05
0.30
0.64
0.82
0.76
0.49
0.15
-0.12
-0.26
-0.30
-0.31
-0.36
-0.46
-0.55
-0.56
-0.43
-0.19
0.09
0.29
0.37
0.31
0.21
0.15
0.21
0.38
0.61
0.75
0.69
0.41
-0.01
-0.40
-0.63
-0.65
-0.51
-0.33
-0.19
-0.12
-0.07
0.03
0.20
0.37
0.43
0.33
0.08
-0.21
-0.38
-0.35
-0.12
0.22
0.58
0.85
0.99
1.00
0.88
0.66
0.34
-0.05
-0.51
-0.98
-1.37
-1.55
-1.46
-1.08
-0.54
-0.03
0.26
0.23
-0.09
-0.54
-0.91
-1.06
-0.94
-0.59
-0.12
0.35
0.72
0.94
1.01
0.96
0.83
0.69
0.56
0.47
0.38
0.25
0.06
-0.17
-0.37
-0.50
-0.53
-0.47
-0.37
-0.29
-0.28
-0.37
-0.56
-0.83
-1.09
-1.25
-1.23
-1.00
-0.64
-0.26
0.02
0.14
0.17
0.24
0.45
0.83
1.25
1.55
1.63
1.47
1.18
0.91
0.75
0.69
0.64
0.51
0.29
0.04
-0.16
-0.22
-0.14
-0.01
0.09
0.06
-0.10
-0.31
-0.47
-0.51
-0.45
-0.35
-0.32
-0.37
-0.50
-0.61
-0.62
-0.50
-0.31
-0.15
-0.13
-0.27
-0.49
-0.61
-0.50
-0.10
0.47
1.05
1.40
1.43
1.16
0.72
0.30
0.03
-0.07
-0.04
0.04
0.11
0.15
0.16
0.15
0.10
0.01
-0.15
-0.33
-0.47
-0.51
-0.41
-0.19
0.07
0.28
0.39
0.40
0.36
0.36
0.40
0.44
0.43
0.31
0.10
-0.13
-0.31
-0.42
-0.47
-0.53
-0.66
-0.88
-1.15
-1.42
-1.62
-1.68
-1.53
-1.15
-0.56
0.13
0.77
1.20
1.37
1.28
1.07
0.87
0.77
0.78
0.81
0.79
0.68
0.52
0.37
0.27
0.20
0.09
-0.14
-0.53
-1.04
-1.52
-1.80
-1.79
-1.48
-1.04
-0.66
-0.49
-0.54
-0.70
-0.76
-0.60
-0.22
0.28
0.70
0.90
0.85
0.63
0.35
0.14
0.07
0.16
0.38
0.67
0.94
1.13
1.19
1.12
0.92
0.65
0.36
0.12
0.02
0.12
0.40
0.76
1.04
1.06
0.75
0.18
-0.48
-1.02
-1.31
-1.31
-1.07
-0.68
-0.23
0.20
0.55
0.76
0.78
0.62
0.31
-0.03
-0.32
-0.50
-0.56
-0.55
-0.54
-0.57
-0.66
-0.76
-0.85
-0.88
-0.84
-0.74
-0.62
-0.49
-0.35
-0.20
-0.05
0.07
0.15
0.18
0.21
0.31
0.53
0.84
1.17
1.44
1.58
1.59
1.46
1.18
0.76
0.23
-0.30
-0.70
-0.83
-0.64
-0.21
0.27
0.60
0.66
0.46
0.12
-0.24
-0.53
-0.75
-0.89
-0.97
-0.96
-0.82
-0.60
-0.37
-0.23
-0.26
-0.44
-0.66
-0.77
-0.65
-0.28
0.24
0.78
1.21
1.43
1.43
1.22
0.87
0.44
0.04
-0.24
-0.36
-0.33
-0.19
-0.06
-0.03
-0.15
-0.40
-0.72
-1.00
-1.12
-1.03
-0.73
-0.32
0.08
0.34
0.39
0.27
0.06
-0.12
-0.20
-0.19
-0.14
-0.13
-0.19
-0.29
-0.38
-0.42
-0.37
-0.26
-0.10
0.10
0.34
0.63
0.92
1.13
1.16
0.96
0.52
-0.04
-0.57
-0.91
-0.94
-0.66
-0.15
0.40
0.85
1.10
1.16
1.12
1.04
0.97
0.86
0.66
0.37
0.03
-0.23
-0.28
-0.12
0.17
0.43
0.49
0.35
0.08
-0.15
-0.20
-0.06
0.18
0.36
0.38
0.23
-0.01
-0.24
-0.36
-0.37
-0.35
-0.36
-0.45
-0.57
-0.66
-0.64
-0.51
-0.30
-0.08
0.11
0.22
0.25
0.20
0.12
0.01
-0.08
-0.17
-0.25
-0.33
-0.42
-0.49
-0.53
-0.50
-0.42
-0.32
-0.25
-0.24
-0.25
-0.23
-0.12
0.07
0.27
0.38
0.33
0.15
-0.09
-0.28
-0.36
-0.37
-0.38
-0.43
-0.53
-0.58
-0.50
-0.26
0.07
0.38
0.55
0.54
0.38
0.18
0.03
-0.02
0.05
0.20
0.40
0.64
0.89
1.09
1.17
1.09
0.82
0.43
0.06
-0.17
-0.19
-0.05
0.12
0.16
-0.03
-0.39
-0.81
-1.11
-1.21
-1.09
-0.84
-0.53
-0.22
0.08
0.37
0.61
0.72
0.62
0.31
-0.11
-0.52
-0.77
-0.82
-0.70
-0.49
-0.25
-0.03
0.18
0.36
0.47
0.44
0.24
-0.08
-0.46
-0.77
-0.93
-0.94
-0.81
-0.61
-0.40
-0.22
-0.07
0.05
0.15
0.21
0.25
0.24
0.18
0.12
0.08
0.10
0.19
0.33
0.46
0.53
0.54
0.54
0.56
0.65
0.77
0.86
0.85
0.70
0.42
0.10
-0.15
-0.26
-0.22
-0.09
0.04
0.12
0.11
0.04
-0.03
-0.05
-0.02
0.05
0.11
0.14
0.15
0.17
0.21
0.25
0.23
0.11
-0.12
-0.42
-0.71
-0.92
-0.98
-0.87
-0.60
-0.21
0.24
0.68
1.03
1.22
1.20
0.94
0.50
-0.02
-0.50
-0.84
-0.99
-1.00
-0.91
-0.79
-0.64
-0.47
-0.26
-0.03
0.19
0.38
0.54
0.69
0.82
0.92
0.91
0.74
0.43
0.04
-0.29
-0.45
-0.39
-0.14
0.18
0.48
0.68
0.74
0.68
0.52
0.36
0.24
0.22
0.29
0.38
0.39
0.26
-0.01
-0.35
-0.62
-0.71
-0.60
-0.35
-0.11
0.02
0.03
-0.06
-0.18
-0.30
-0.40
-0.50
-0.59
-0.63
-0.57
-0.42
-0.21
-0.02
0.12
0.18
0.21
0.24
0.23
0.17
0.01
-0.24
-0.52
-0.73
-0.81
-0.76
-0.65
-0.56
-0.54
-0.53
-0.41
-0.13
0.29
0.68
0.90
0.83
0.54
0.18
-0.01
0.07
0.37
0.71
0.89
0.82
0.54
0.20
-0.06
-0.18
-0.18
-0.13
-0.11
-0.14
-0.20
-0.29
-0.41
-0.59
-0.82
-1.03
-1.15
-1.07
-0.78
-0.36
0.07
0.39
0.51
0.45
0.26
0.02
-0.18
-0.29
-0.27
-0.06
0.30
0.74
1.11
1.27
1.13
0.69
0.13
-0.36
-0.60
-0.53
-0.25
0.03
0.14
0.04
-0.16
-0.30
-0.24
0.02
0.35
0.57
0.56
0.33
0.03
-0.21
-0.25
-0.12
0.09
0.25
0.30
0.22
0.07
-0.07
-0.17
-0.23
-0.29
-0.37
-0.48
-0.56
-0.56
-0.44
-0.25
-0.06
0.03
-0.01
-0.14
-0.27
-0.29
-0.15
0.13
0.46
0.73
0.84
0.75
0.47
0.07
-0.35
-0.71
-0.95
-1.05
-1.00
-0.82
-0.57
-0.30
-0.06
0.12
0.26
0.37
0.48
0.57
0.62
0.59
0.48
0.32
0.17
0.11
0.14
0.23
0.29
0.25
0.08
-0.17
-0.40
-0.48
-0.31
0.11
0.65
1.17
1.53
1.65
1.57
1.34
1.04
0.69
0.34
0.03
-0.17
-0.19
-0.03
0.26
0.53
0.64
0.51
0.18
-0.26
-0.68
-0.96
-1.05
-0.93
-0.65
-0.28
0.09
0.38
0.51
0.47
0.26
-0.04
-0.33
-0.54
-0.59
-0.48
-0.29
-0.11
-0.06
-0.15
-0.35
-0.55
-0.67
-0.71
-0.70
-0.71
-0.75
-0.76
-0.70
-0.50
-0.22
0.06
0.24
0.26
0.18
0.09
0.07
0.12
0.17
0.11
-0.10
-0.42
-0.75
-0.99
-1.08
-1.04
-0.92
-0.77
-0.62
-0.49
-0.39
-0.33
-0.31
-0.32
-0.30
-0.19
0.05
0.37
0.70
0.98
1.17
1.23
1.20
1.07
0.88
0.67
0.51
0.44
0.47
0.57
0.66
0.67
0.59
0.44
0.26
0.10
-0.05
-0.18
-0.29
-0.38
-0.40
-0.29
-0.08
0.21
0.47
0.62
0.62
0.50
0.38
0.35
0.44
0.54
0.55
0.37
0.06
-0.26
-0.44
-0.40
-0.23
-0.08
-0.08
-0.26
-0.56
-0.86
-1.05
-1.09
-1.01
-0.83
-0.61
-0.40
-0.24
-0.16
-0.15
-0.18
-0.20
-0.17
-0.10
-0.03
-0.02
-0.08
-0.18
-0.25
-0.20
-0.03
0.21
0.42
0.53
0.52
0.41
0.28
0.20
0.17
0.20
0.22
0.21
0.16
0.11
0.07
0.00
-0.12
-0.29
-0.48
-0.59
-0.55
-0.33
0.01
0.35
0.57
0.63
0.58
0.50
0.44
0.40
0.31
0.09
-0.27
-0.67
-0.97
-1.02
-0.81
-0.40
0.05
0.38
0.54
0.53
0.45
0.39
0.37
0.35
0.29
0.14
-0.09
-0.32
-0.43
-0.36
-0.10
0.28
0.64
0.86
0.87
0.70
0.46
0.25
0.12
0.05
-0.02
-0.15
-0.33
-0.51
-0.60
-0.53
-0.33
-0.04
0.24
0.46
0.59
0.62
0.57
0.45
0.28
0.05
-0.18
-0.38
-0.49
-0.51
-0.45
-0.35
-0.27
-0.26
-0.32
-0.45
-0.61
-0.79
-0.94
-1.01
-0.95
-0.72
-0.32
0.14
0.54
0.77
0.81
0.72
0.61
0.57
0.60
0.66
0.70
0.69
0.66
0.65
0.65
0.60
0.46
0.24
-0.01
-0.17
-0.16
0.04
0.36
0.64
0.75
0.63
0.31
-0.12
-0.52
-0.79
-0.89
-0.81
-0.60
-0.31
-0.00
0.23
0.32
0.24
0.02
-0.25
-0.44
-0.45
-0.25
0.10
0.50
0.84
1.04
1.09
1.00
0.77
0.42
-0.01
-0.45
-0.81
-0.98
-0.94
-0.74
-0.51
-0.40
-0.45
-0.67
-0.96
-1.18
-1.25
-1.15
-0.91
-0.62
-0.36
-0.18
-0.09
-0.05
-0.06
-0.06
-0.05
0.01
0.08
0.14
0.12
-0.06
-0.37
-0.74
-1.05
-1.15
-0.96
-0.49
0.14
0.79
1.29
1.57
1.62
1.49
1.27
1.01
0.76
0.53
0.33
0.20
0.15
0.21
0.35
0.50
0.56
0.45
0.16
-0.24
-0.61
-0.84
-0.89
-0.85
-0.84
-0.93
-1.11
-1.25
-1.21
-0.92
-0.44
0.07
0.42
0.53
0.42
0.22
0.07
0.01
0.03
0.07
0.10
0.13
0.22
0.38
0.58
0.74
0.82
0.80
0.69
0.56
0.43
0.35
0.33
0.37
0.46
0.55
0.56
0.43
0.14
-0.25
-0.61
-0.81
-0.79
-0.59
-0.32
-0.12
-0.06
-0.13
-0.24
-0.28
-0.22
-0.08
0.06
0.09
0.01
-0.14
-0.28
-0.32
-0.26
-0.13
0.01
0.12
0.16
0.13
0.05
-0.05
-0.14
-0.20
-0.20
-0.13
-0.04
0.06
0.11
0.10
0.03
-0.10
-0.25
-0.37
-0.42
-0.37
-0.22
-0.01
0.21
0.38
0.48
0.52
0.55
0.56
0.54
0.46
0.34
0.20
0.11
0.10
0.13
0.14
0.07
-0.09
-0.29
-0.43
-0.45
-0.30
-0.07
0.16
0.29
0.29
0.18
0.02
-0.13
-0.26
-0.34
-0.37
-0.31
-0.13
0.14
0.41
0.54
0.46
0.17
-0.19
-0.45
-0.45
-0.18
0.24
0.61
0.77
0.65
0.31
-0.13
-0.52
-0.77
-0.80
-0.64
-0.31
0.09
0.47
0.72
0.79
0.70
0.52
0.35
0.22
0.13
0.05
-0.03
-0.11
-0.16
-0.16
-0.10
-0.03
0.01
-0.02
-0.14
-0.32
-0.53
-0.71
-0.80
-0.78
-0.67
-0.48
-0.27
-0.07
0.11
0.26
0.38
0.44
0.40
0.26
0.06
-0.12
-0.21
-0.18
-0.08
0.02
0.07
0.06
-0.01
-0.10
-0.20
-0.30
-0.41
-0.49
-0.52
-0.46
-0.29
-0.02
0.32
0.66
0.93
1.05
0.97
0.67
0.22
-0.25
-0.60
-0.71
-0.56
-0.23
0.15
0.49
0.73
0.87
0.92
0.86
0.67
0.34
-0.08
-0.48
-0.74
-0.77
-0.58
-0.25
0.10
0.36
0.47
0.47
0.42
0.37
0.34
0.30
0.19
0.02
-0.15
-0.25
-0.24
-0.11
0.05
0.16
0.14
-0.03
-0.28
-0.53
-0.72
-0.79
-0.74
-0.60
-0.40
-0.21
-0.07
0.00
0.00
-0.05
-0.12
-0.20
-0.26
-0.30
-0.27
-0.14
0.08
0.37
0.62
0.73
0.67
0.43
0.11
-0.18
-0.34
-0.32
-0.13
0.14
0.37
0.48
0.40
0.17
-0.11
-0.31
-0.37
-0.27
-0.11
0.02
0.04
-0.02
-0.09
-0.10
-0.03
0.04
-0.00
-0.20
-0.51
-0.79
-0.87
-0.70
-0.34
0.06
0.33
0.38
0.24
0.09
0.07
0.29
0.68
1.07
1.27
1.14
0.73
0.19
-0.28
-0.53
-0.53
-0.35
-0.12
0.04
0.09
0.05
-0.03
-0.07
-0.02
0.13
0.31
0.42
0.36
0.12
-0.23
-0.51
-0.58
-0.42
-0.16
0.02
-0.06
-0.38
-0.78
-1.02
-0.93
-0.49
0.13
0.72
1.06
1.09
0.87
0.54
0.25
0.10
0.12
0.26
0.44
0.59
0.63
0.55
0.37
0.09
-0.24
-0.60
-0.94
-1.19
-1.28
-1.15
-0.85
-0.47
-0.15
0.01
-0.02
-0.17
-0.35
-0.49
-0.60
-0.69
-0.78
-0.85
-0.85
-0.74
-0.51
-0.23
0.02
0.18
0.24
0.25
0.27
0.33
0.45
0.56
0.59
0.50
0.28
0.03
-0.15
-0.15
0.08
0.49
0.97
1.38
1.58
1.54
1.26
0.84
0.37
-0.02
-0.29
-0.40
-0.42
-0.38
-0.36
-0.38
-0.41
-0.38
-0.26
-0.02
0.26
0.50
0.59
0.50
0.30
0.09
-0.03
-0.01
0.11
0.25
0.33
0.32
0.23
0.13
0.05
-0.02
-0.10
-0.21
-0.34
-0.44
-0.44
-0.28
-0.01
0.27
0.44
0.39
0.11
-0.30
-0.72
-1.00
-1.06
-0.90
-0.59
-0.20
0.20
0.55
0.78
0.85
0.74
0.51
0.22
-0.02
-0.17
-0.22
-0.24
-0.30
-0.39
-0.44
-0.40
-0.25
-0.06
0.03
-0.04
-0.24
-0.45
-0.52
-0.42
-0.18
0.09
0.30
0.42
0.47
0.47
0.44
0.37
0.27
0.17
0.12
0.13
0.19
0.26
0.29
0.28
0.21
0.07
-0.17
-0.51
-0.92
-1.28
-1.46
-1.41
-1.12
-0.69
-0.25
0.10
0.32
0.46
0.55
0.63
0.67
0.66
0.55
0.35
0.11
-0.09
-0.18
-0.10
0.11
0.36
0.52
0.50
0.26
-0.12
-0.50
-0.76
-0.83
-0.74
-0.57
-0.42
-0.33
-0.30
-0.28
-0.22
-0.10
0.12
0.43
0.83
1.26
1.64
1.86
1.82
1.52
1.05
0.55
0.17
-0.03
-0.03
0.09
0.26
0.43
0.54
0.60
0.61
0.55
0.43
0.24
0.01
-0.26
-0.53
-0.74
-0.85
-0.82
-0.64
-0.39
-0.16
-0.05
-0.13
-0.36
-0.63
-0.83
-0.88
-0.78
-0.61
-0.45
-0.34
-0.27
-0.20
-0.10
0.01
0.07
0.06
-0.04
-0.19
-0.33
-0.43
-0.48
-0.49
-0.48
-0.44
-0.36
-0.26
-0.13
0.00
0.10
0.16
0.16
0.11
0.04
-0.03
-0.05
0.04
0.24
0.54
0.86
1.12
1.21
1.12
0.87
0.52
0.13
-0.26
-0.61
-0.89
-1.03
-1.00
-0.78
-0.43
-0.06
0.20
0.28
0.19
-0.04
-0.30
-0.53
-0.67
-0.68
-0.58
-0.40
-0.21
-0.05
0.04
0.10
0.17
0.27
0.39
0.49
0.54
0.57
0.64
0.81
1.04
1.23
1.26
1.06
0.72
0.40
0.25
0.31
0.50
0.63
0.56
0.26
-0.18
-0.61
-0.88
-0.94
-0.82
-0.59
-0.29
0.02
0.33
0.55
0.63
0.52
0.25
-0.09
-0.39
-0.59
-0.67
-0.68
-0.68
-0.70
-0.73
-0.75
-0.72
-0.63
-0.50
-0.34
-0.21
-0.16
-0.20
-0.34
-0.54
-0.74
-0.88
-0.91
-0.83
-0.62
-0.31
0.05
0.41
0.68
0.82
0.79
0.66
0.48
0.34
0.25
0.21
0.19
0.17
0.18
0.22
0.30
0.42
0.56
0.73
0.90
1.04
1.08
0.97
0.71
0.36
0.03
-0.15
-0.11
0.13
0.47
0.76
0.90
0.87
0.69
0.45
0.22
0.08
-0.01
-0.08
-0.18
-0.32
-0.47
-0.59
-0.63
-0.62
-0.61
-0.65
-0.74
-0.85
-0.91
-0.86
-0.68
-0.42
-0.17
-0.03
-0.02
-0.16
-0.40
-0.70
-1.00
-1.25
-1.38
-1.34
-1.13
-0.76
-0.33
0.08
0.40
0.60
0.66
0.65
0.61
0.60
0.63
0.70
0.79
0.89
0.97
1.00
0.94
0.79
0.56
0.28
0.01
-0.20
-0.34
-0.41
-0.45
-0.46
-0.44
-0.37
-0.22
0.02
0.29
0.54
0.72
0.82
0.84
0.81
0.69
0.44
0.03
-0.49
-0.95
-1.21
-1.14
-0.74
-0.16
0.34
0.58
0.49
0.14
-0.25
-0.48
-0.45
-0.17
0.21
0.52
0.63
0.51
0.25
-0.05
-0.28
-0.39
-0.39
-0.32
-0.21
-0.09
0.01
0.06
0.05
-0.03
-0.16
-0.30
-0.47
-0.65
-0.85
-1.06
-1.20
-1.19
-0.99
-0.63
-0.21
0.14
0.30
0.26
0.07
-0.16
-0.29
-0.28
-0.11
0.14
0.39
0.59
0.73
0.83
0.92
1.00
1.03
0.98
0.84
0.65
0.49
0.40
0.38
0.40
0.41
0.39
0.36
0.32
0.25
0.11
-0.13
-0.43
-0.68
-0.78
-0.67
-0.40
-0.07
0.17
0.29
0.26
0.15
-0.00
-0.16
-0.32
-0.45
-0.54
-0.54
-0.44
-0.25
0.01
0.27
0.49
0.63
0.68
0.63
0.49
0.28
0.03
-0.18
-0.28
-0.21
0.02
0.32
0.57
0.63
0.44
0.05
-0.41
-0.77
-0.93
-0.89
-0.75
-0.59
-0.48
-0.42
-0.39
-0.38
-0.39
-0.44
-0.53
-0.62
-0.64
-0.55
-0.32
-0.01
0.29
0.52
0.61
0.58
0.47
0.36
0.28
0.26
0.30
0.35
0.36
0.30
0.19
0.05
-0.10
-0.22
-0.32
-0.36
-0.34
-0.20
0.07
0.44
0.79
1.02
1.04
0.83
0.47
0.10
-0.18
-0.32
-0.33
-0.26
-0.15
0.01
0.24
0.53
0.82
0.99
0.94
0.64
0.22
-0.16
-0.34
-0.29
-0.12
-0.01
-0.08
-0.31
-0.55
-0.63
-0.46
-0.12
0.20
0.30
0.10
-0.29
-0.69
-0.92
-0.91
-0.71
-0.42
-0.15
0.10
0.31
0.48
0.54
0.43
0.11
-0.36
-0.81
-1.07
-1.05
-0.79
-0.43
-0.14
-0.03
-0.07
-0.17
-0.19
-0.09
0.11
0.29
0.34
0.20
-0.07
-0.36
-0.56
-0.62
-0.56
-0.47
-0.43
-0.44
-0.50
-0.51
-0.44
-0.25
0.07
0.49
0.92
1.30
1.55
1.64
1.60
1.45
1.25
1.04
0.81
0.55
0.28
0.02
-0.15
-0.22
-0.19
-0.10
-0.03
-0.04
-0.11
-0.19
-0.25
-0.26
-0.24
-0.23
-0.25
-0.32
-0.40
-0.44
-0.44
-0.41
-0.40
-0.45
-0.57
-0.71
-0.78
-0.70
-0.43
-0.06
0.32
0.57
0.63
0.51
0.32
0.14
0.04
0.02
0.05
0.11
0.17
0.25
0.35
0.43
0.46
0.42
0.30
0.13
-0.04
-0.16
-0.17
-0.06
0.16
0.45
0.74
0.93
0.97
0.83
0.54
0.18
-0.18
-0.44
-0.56
-0.54
-0.44
-0.38
-0.42
-0.58
-0.76
-0.80
-0.61
-0.16
0.40
0.88
1.10
1.00
0.64
0.17
-0.23
-0.46
-0.53
-0.48
-0.41
-0.36
-0.35
-0.38
-0.45
-0.54
-0.66
-0.76
-0.81
-0.73
-0.50
-0.16
0.20
0.49
0.61
0.57
0.41
0.20
-0.01
-0.18
-0.32
-0.42
-0.47
-0.42
-0.22
0.12
0.53
0.88
1.01
0.87
0.52
0.11
-0.15
-0.14
0.12
0.48
0.72
0.75
0.55
0.26
0.01
-0.10
-0.06
0.09
0.26
0.41
0.49
0.43
0.23
-0.11
-0.51
-0.83
-0.95
-0.82
-0.46
0.02
0.48
0.83
1.00
1.01
0.84
0.52
0.08
-0.40
-0.81
-1.07
-1.11
-0.94
-0.66
-0.39
-0.19
-0.10
-0.07
-0.02
0.07
0.15
0.14
-0.01
-0.27
-0.50
-0.55
-0.34
0.07
0.50
0.74
0.67
0.36
-0.04
-0.32
-0.39
-0.30
-0.16
-0.10
-0.14
-0.24
-0.33
-0.38
-0.40
-0.41
-0.40
-0.36
-0.24
-0.06
0.14
0.28
0.29
0.20
0.05
-0.08
-0.13
-0.12
-0.07
-0.03
-0.01
0.02
0.08
0.19
0.29
0.33
0.24
0.02
-0.27
-0.50
-0.59
-0.49
-0.24
0.09
0.40
0.65
0.80
0.86
0.82
0.69
0.48
0.29
0.19
0.21
0.31
0.40
0.38
0.22
-0.02
-0.22
-0.28
-0.20
-0.06
-0.00
-0.09
-0.26
-0.41
-0.39
-0.18
0.16
0.46
0.61
0.56
0.37
0.17
0.04
0.04
0.17
0.38
0.60
0.77
0.84
0.76
0.53
0.18
-0.20
-0.53
-0.70
-0.69
-0.49
-0.19
0.10
0.28
0.28
0.13
-0.11
-0.35
-0.52
-0.59
-0.56
-0.47
-0.36
-0.26
-0.20
-0.23
-0.33
-0.50
-0.69
-0.81
-0.83
-0.74
-0.56
-0.38
-0.25
-0.19
-0.19
-0.24
-0.26
-0.23
-0.08
0.17
0.48
0.77
0.94
0.89
0.63
0.23
-0.17
-0.42
-0.45
-0.28
-0.00
0.26
0.44
0.52
0.51
0.46
0.38
0.28
0.18
0.10
0.03
-0.03
-0.09
-0.16
-0.25
-0.31
-0.31
-0.26
-0.17
-0.09
-0.06
-0.07
-0.10
-0.10
-0.08
-0.07
-0.09
-0.15
-0.22
-0.26
-0.23
-0.17
-0.13
-0.19
-0.32
-0.46
-0.51
-0.40
-0.15
0.16
0.44
0.63
0.71
0.70
0.67
0.64
0.60
0.52
0.39
0.21
0.00
-0.19
-0.29
-0.26
-0.10
0.15
0.37
0.44
0.33
0.06
-0.26
-0.49
-0.54
-0.41
-0.20
-0.03
-0.01
-0.15
-0.41
-0.65
-0.77
-0.72
-0.53
-0.26
-0.01
0.18
0.35
0.51
0.70
0.87
0.98
0.95
0.77
0.48
0.17
-0.08
-0.21
-0.24
-0.20
-0.19
-0.26
-0.42
-0.63
-0.81
-0.91
-0.86
-0.70
-0.47
-0.23
-0.02
0.13
0.23
0.32
0.40
0.47
0.49
0.44
0.33
0.17
0.05
0.02
0.13
0.36
0.61
0.76
0.77
0.64
0.48
0.39
0.43
0.55
0.65
0.63
0.45
0.15
-0.21
-0.53
-0.76
-0.88
-0.89
-0.79
-0.61
-0.39
-0.18
-0.05
-0.04
-0.11
-0.18
-0.18
-0.06
0.13
0.30
0.34
0.22
0.03
-0.09
0.01
0.34
0.75
1.01
0.94
0.53
-0.06
-0.58
-0.85
-0.83
-0.62
-0.37
-0.18
-0.05
0.09
0.30
0.57
0.78
0.81
0.61
0.25
-0.13
-0.38
-0.43
-0.33
-0.19
-0.13
-0.18
-0.29
-0.38
-0.38
-0.32
-0.26
-0.21
-0.19
-0.12
0.07
0.37
0.66
0.80
0.64
0.20
-0.36
-0.84
-1.05
-0.93
-0.56
-0.10
0.32
0.58
0.69
0.66
0.56
0.40
0.23
0.06
-0.08
-0.19
-0.25
-0.26
-0.25
-0.20
-0.15
-0.11
-0.13
-0.23
-0.39
-0.56
-0.68
-0.70
-0.62
-0.48
-0.34
-0.25
-0.19
-0.15
-0.09
0.02
0.16
0.31
0.42
0.47
0.43
0.34
0.23
0.12
0.06
0.05
0.05
0.04
-0.03
-0.18
-0.39
-0.58
-0.66
-0.54
-0.21
0.26
0.75
1.07
1.14
0.95
0.62
0.32
0.16
0.19
0.32
0.46
0.51
0.46
0.38
0.31
0.28
0.28
0.26
0.21
0.15
0.13
0.20
0.36
0.53
0.62
0.56
0.31
-0.08
-0.49
-0.80
-0.94
-0.92
-0.83
-0.75
-0.76
-0.86
-1.03
-1.24
-1.47
-1.68
-1.84
-1.88
-1.73
-1.37
-0.87
-0.34
0.08
0.34
0.47
0.56
0.69
0.85
0.98
1.02
0.95
0.82
0.74
0.75
0.86
0.99
1.00
0.84
0.53
0.15
-0.15
-0.25
-0.16
0.10
0.40
0.69
0.92
1.08
1.18
1.18
1.05
0.80
0.51
0.32
0.28
0.38
0.49
0.44
0.17
-0.27
-0.71
-0.99
-1.00
-0.80
-0.49
-0.23
-0.12
-0.20
-0.45
-0.81
-1.20
-1.53
-1.68
-1.60
-1.29
-0.80
-0.24
0.28
0.65
0.86
0.90
0.86
0.79
0.74
0.69
0.62
0.47
0.24
-0.05
-0.33
-0.51
-0.57
-0.51
-0.42
-0.39
-0.43
-0.50
-0.49
-0.32
-0.00
0.34
0.55
0.50
0.18
-0.29
-0.70
-0.89
-0.79
-0.43
0.01
0.39
0.60
0.62
0.49
0.27
0.03
-0.20
-0.39
-0.48
-0.46
-0.30
0.01
0.41
0.79
1.03
1.02
0.76
0.33
-0.12
-0.47
-0.67
-0.73
-0.73
-0.70
-0.65
-0.54
-0.33
-0.03
0.28
0.52
0.60
0.55
0.41
0.29
0.27
0.36
0.49
0.56
0.46
0.15
-0.31
-0.77
-1.05
-1.03
-0.71
-0.25
0.18
0.42
0.40
0.17
-0.15
-0.44
-0.62
-0.66
-0.59
-0.42
-0.20
0.01
0.15
0.16
0.05
-0.12
-0.26
-0.26
-0.13
0.11
0.34
0.49
0.54
0.55
0.58
0.66
0.77
0.85
0.86
0.79
0.68
0.57
0.43
0.20
-0.15
-0.58
-0.96
-1.13
-0.99
-0.56
-0.00
0.49
0.75
0.74
0.57
0.40
0.34
0.42
0.55
0.61
0.54
0.34
0.10
-0.09
-0.19
-0.21
-0.23
-0.33
-0.49
-0.64
-0.66
-0.51
-0.25
-0.01
0.05
-0.14
-0.51
-0.90
-1.14
-1.14
-0.93
-0.64
-0.38
-0.23
-0.14
-0.04
0.16
0.49
0.93
1.35
1.65
1.72
1.52
1.11
0.62
0.21
-0.03
-0.08
-0.02
0.07
0.09
0.04
-0.06
-0.13
-0.12
-0.03
0.12
0.27
0.39
0.44
0.42
0.36
0.30
0.27
0.24
0.17
-0.00
-0.29
-0.65
-1.01
-1.24
-1.29
-1.15
-0.92
-0.73
-0.68
-0.83
-1.14
-1.50
-1.72
-1.67
-1.30
-0.68
0.03
0.64
1.02
1.15
1.11
1.03
0.99
0.98
0.97
0.92
0.86
0.84
0.91
1.02
1.08
0.98
0.67
0.23
-0.18
-0.37
-0.28
0.02
0.35
0.53
0.46
0.20
-0.13
-0.39
-0.53
-0.58
-0.64
-0.76
-0.94
-1.06
-1.04
-0.85
-0.52
-0.21
-0.03
-0.03
-0.18
-0.35
-0.41
-0.29
0.01
0.40
0.76
0.97
0.96
0.73
0.34
-0.13
-0.56
-0.85
-0.98
-0.94
-0.78
-0.59
-0.46
-0.42
-0.47
-0.54
-0.56
-0.46
-0.25
0.02
0.30
0.51
0.63
0.66
0.64
0.60
0.56
0.55
0.59
0.66
0.76
0.81
0.79
0.68
0.55
0.47
0.50
0.63
0.76
0.79
0.64
0.31
-0.11
-0.51
-0.81
-0.95
-0.90
-0.73
-0.53
-0.39
-0.39
-0.51
-0.66
-0.71
-0.56
-0.24
0.14
0.42
0.51
0.42
0.23
0.04
-0.10
-0.19
-0.25
-0.30
-0.30
-0.26
-0.20
-0.18
-0.20
-0.24
