1594927034.00
64.000000
-0.00
-0.00
-0.00
-0.00
-0.00
-0.00
-0.00
-0.00
-0.00
-0.00
0.00
0.01
0.01
-0.00
-0.03
-0.05
-0.05
0.00
0.13
0.36
0.66
1.01
1.37
1.72
2.06
2.40
2.79
3.24
3.80
4.42
5.06
5.66
6.20
6.68
7.15
7.68
8.31
9.14
10.09
11.04
11.88
12.56
13.14
13.76
14.65
15.96
17.91
20.32
22.90
25.38
27.58
29.57
31.68
34.32
37.81
42.54
48.15
54.10
59.83
64.97
69.58
74.14
79.34
85.71
93.76
103.00
112.62
121.73
129.77
136.75
143.30
150.74
157.78
166.67
177.99
191.83
206.97
220.49
228.06
225.06
208.12
176.40
132.27
79.56
22.59
-35.45
-93.01
-149.83
-206.02
-261.25
-314.66
-364.77
-410.69
-451.76
-487.42
-516.83
-538.58
-550.85
-551.81
-540.30
-516.10
-480.48
-435.68
-384.46
-329.53
-273.08
-216.66
-161.32
-107.93
-57.33
-10.67
30.86
66.32
95.30
118.03
135.34
148.35
158.10
165.23
169.86
171.77
170.71
166.72
160.29
152.33
143.82
135.54
127.82
120.48
113.09
105.22
96.50
86.68
75.67
63.75
51.95
42.13
36.55
37.04
43.93
55.56
68.73
79.86
86.44
87.80
85.15
80.25
74.52
68.58
62.37
55.79
49.09
42.95
38.09
34.74
32.46
30.39
27.63
23.74
19.01
14.28
10.62
8.75
8.80
10.20
12.09
13.65
14.38
14.17
13.19
11.59
9.46
6.80
3.61
0.11
-3.25
-5.81
-6.89
-6.20
-4.00
-1.16
1.19
2.16
1.50
-0.32
-2.40
-3.94
-4.66
-4.86
-5.04
-5.57
-6.42
-7.23
-7.63
-7.49
-6.99
-6.40
-5.83
-5.10
-3.92
-2.03
0.55
3.40
5.91
7.54
7.95
7.20
5.61
3.65
1.75
0.18
-0.99
-1.84
-2.43
-2.81
-2.96
-2.84
-2.47
-1.89
-1.25
-0.65
-0.15
0.34
0.96
1.80
2.86
3.92
4.67
4.86
4.50
3.94
3.78
4.57
6.51
9.29
12.17
14.26
15.02
14.21
12.09
9.10
5.67
2.03
-1.73
-5.51
-9.08
-12.06
-14.10
-15.02
-14.97
-14.32
-13.58
-13.06
-12.86
-12.77
-12.48
-11.72
-10.44
-8.83
-7.33
-6.37
-6.22
-6.84
-7.91
-8.92
-9.39
-9.02
-7.71
-5.60
-2.97
-0.10
2.75
5.34
7.47
8.91
9.42
8.90
7.40
5.17
2.63
0.21
-1.78
-3.21
-4.12
-4.68
-5.00
-5.16
-5.15
-4.97
-4.69
-4.42
-4.30
-4.38
-4.63
-4.97
-5.31
-5.65
-6.14
-6.99
-8.40
-10.44
-12.82
-15.03
-16.35
-16.04
-13.64
-9.14
-3.03
3.80
10.39
16.04
20.43
23.55
25.59
26.59
26.43
24.93
22.07
18.16
13.80
9.69
6.34
3.90
2.11
0.54
-1.23
-3.33
-5.64
-7.78
-9.42
-10.38
-10.81
-11.11
-11.79
-13.26
-15.66
-18.77
-22.01
-24.68
-26.07
-25.64
-23.18
-18.73
-12.66
-5.56
1.77
8.42
13.55
16.61
17.59
17.02
15.90
15.33
16.10
18.35
21.52
24.56
26.32
26.00
23.43
18.99
13.47
7.64
2.00
-3.25
-8.19
-12.92
-17.46
-21.73
-25.69
-29.49
-33.49
-38.07
-43.24
-48.44
-52.55
-54.26
-52.58
-47.29
-39.08
-29.25
-19.24
-10.12
-2.42
3.83
8.80
12.58
15.05
15.96
15.13
12.69
9.13
5.23
1.85
-0.35
-1.13
-0.70
0.46
1.80
2.97
3.87
4.49
4.71
4.13
2.24
-1.35
-6.45
-12.18
-17.15
-19.91
-19.52
-15.92
-9.85
-2.52
4.95
11.86
17.94
23.14
27.30
30.02
30.85
29.58
26.51
22.43
18.37
15.19
13.19
12.10
11.36
10.46
9.32
8.23
7.61
7.72
8.40
9.14
9.29
8.29
5.88
2.05
-3.01
-8.99
-15.42
-21.61
-26.68
-29.65
-29.73
-26.59
-20.47
-12.12
-2.62
6.88
15.39
22.14
26.67
28.82
28.69
26.68
23.34
19.30
15.13
11.36
8.38
6.50
5.90
6.57
8.29
10.61
12.93
14.71
15.60
15.58
14.88
13.85
12.69
11.28
9.31
6.47
2.83
-1.02
-4.00
-4.95
-3.16
1.36
7.79
14.90
21.41
26.36
29.14
29.49
27.36
22.86
16.46
9.00
1.66
-4.27
-7.77
-8.39
-6.36
-2.55
1.87
5.83
8.75
10.64
11.98
13.43
15.34
17.60
19.67
20.94
21.11
20.40
19.46
19.06
19.67
21.30
23.49
25.66
27.37
28.49
29.10
29.35
29.10
27.93
25.29
20.81
14.62
7.43
0.28
-5.82
-10.31
-13.20
-15.01
-16.38
-17.79
-19.36
-20.95
-22.36
-23.53
-24.67
-26.13
-28.14
-30.66
-33.27
-35.40
-36.56
-36.66
-36.00
-35.08
-34.22
-33.35
-31.99
-29.60
-25.96
-21.38
-16.67
-12.77
-10.27
-9.26
-9.36
-10.04
-10.94
-11.97
-13.30
-15.08
-17.25
-19.46
-21.22
-22.09
-21.90
-20.75
-19.01
-17.08
-15.30
-13.79
-12.56
-11.53
-10.64
-9.98
-9.69
-9.88
-10.44
-11.00
-10.89
-9.43
-6.22
-1.43
4.20
9.57
13.68
16.04
16.79
16.55
16.06
15.78
15.78
15.80
15.58
14.96
13.99
12.79
11.40
9.73
7.60
4.95
1.94
-0.97
-3.18
-4.22
-3.95
-2.67
-1.13
-0.23
-0.70
-2.81
-6.15
-9.77
-12.47
-13.29
-11.89
-8.68
-4.59
-0.64
2.41
4.31
5.19
5.31
4.85
3.78
2.09
-0.14
-2.60
-4.88
-6.62
-7.68
-8.18
-8.37
-8.55
-8.87
-9.39
-10.04
-10.70
-11.28
-11.66
-11.76
-11.55
-11.00
-10.15
-9.04
-7.66
-5.91
-3.64
-0.63
3.26
8.05
13.58
19.51
25.41
30.77
35.14
38.31
40.32
41.51
42.35
43.25
44.30
45.26
45.58
44.81
42.78
39.78
36.35
33.04
30.12
27.51
24.96
22.27
19.54
17.06
15.17
13.95
13.14
12.16
10.45
7.72
4.11
0.24
-3.15
-5.40
-6.29
-6.03
-5.14
-4.20
-3.61
-3.48
-3.65
-3.94
-4.23
-4.57
-5.11
-5.97
-7.09
-8.28
-9.27
-9.83
-9.89
-9.56
-9.03
-8.53
-8.20
-8.07
-8.07
-8.12
-8.17
-8.33
-8.76
-9.59
-10.72
-11.81
-12.31
-11.77
-10.02
-7.35
-4.39
-1.88
-0.32
0.18
-0.14
-0.82
-1.50
-2.07
-2.65
-3.48
-4.70
-6.29
-7.98
-9.41
-10.28
-10.49
-10.19
-9.69
-9.32
-9.25
-9.52
-10.05
-10.73
-11.56
-12.61
-13.93
-15.40
-16.67
-17.23
-16.59
-14.55
-11.28
-7.38
-3.60
-0.61
1.24
1.98
1.94
1.50
0.89
0.13
-0.93
-2.47
-4.50
-6.84
-9.16
-11.08
-12.42
-13.20
-13.64
-14.01
-14.49
-15.11
-15.85
-16.75
-17.92
-19.54
-21.69
-24.11
-26.24
-27.31
-26.66
-24.05
-19.80
-14.71
-9.73
-5.67
-2.94
-1.52
-1.09
-1.26
-1.74
-2.48
-3.58
-5.12
-7.07
-9.14
-10.93
-12.13
-12.66
-12.70
-12.63
-12.75
-13.11
-13.52
-13.67
-13.42
-12.87
-12.39
-12.33
-12.80
-13.47
-13.69
-12.72
-10.09
-5.84
-0.47
5.23
10.48
14.75
17.89
20.07
21.54
22.50
22.97
22.84
22.01
20.51
18.54
16.44
14.55
13.06
11.94
10.96
9.90
8.66
7.31
6.02
4.85
3.59
1.84
-0.77
-4.22
-7.97
-10.98
-12.17
-10.83
-6.98
-1.31
5.07
11.10
16.10
19.79
22.19
23.35
23.28
21.92
19.28
15.59
11.35
7.17
3.64
1.11
-0.47
-1.46
-2.38
-3.72
-5.68
-8.13
-10.73
-13.08
-15.00
-16.63
-18.38
-20.69
-23.73
-27.16
-30.20
-31.87
-31.38
-28.48
-23.54
-17.32
-10.65
-4.16
1.85
7.23
11.76
15.10
16.83
16.76
15.14
12.62
10.03
8.03
6.83
6.17
5.54
4.48
2.85
0.86
-1.01
-2.36
-3.05
-3.33
-3.68
-4.61
-6.36
-8.88
-11.79
-14.61
-16.89
-18.29
-18.54
-17.38
-14.61
-10.15
-4.13
2.94
10.34
17.16
22.64
26.25
27.88
27.74
26.32
24.18
21.80
19.44
17.14
14.83
12.46
10.04
7.68
5.46
3.41
1.44
-0.54
-2.56
-4.57
-6.54
-8.51
-10.69
-13.32
-16.51
-20.06
-23.38
-25.59
-25.81
-23.47
-18.52
-11.51
-3.42
4.60
11.52
16.73
20.02
21.60
21.87
21.23
19.99
18.35
16.46
14.45
12.48
10.69
9.16
7.85
6.67
5.46
4.13
2.70
1.25
-0.14
-1.51
-3.06
-5.08
-7.76
-11.02
-14.39
-17.06
-18.16
-17.06
-13.62
-8.25
-1.75
5.02
11.33
16.75
21.09
24.24
26.09
26.52
25.52
23.31
20.39
17.34
14.68
12.66
11.18
9.94
8.61
7.04
5.29
3.59
2.13
0.95
-0.17
-1.59
-3.66
-6.55
-10.15
-14.03
-17.56
-20.01
-20.84
-19.79
-16.90
-12.51
-7.06
-1.06
5.03
10.76
15.71
19.47
21.78
22.55
21.95
20.37
18.27
16.11
14.12
12.37
10.75
9.17
7.59
6.08
4.76
3.70
2.82
1.91
0.71
-0.97
-3.11
-5.54
-8.01
-10.31
-12.41
-14.33
-16.06
-17.43
-18.03
-17.36
-15.03
-11.02
-5.78
-0.10
5.14
9.23
11.87
13.13
13.31
12.71
11.48
9.62
7.13
4.12
0.93
-2.00
-4.30
-5.90
-7.06
-8.24
-9.88
-12.16
-14.89
-17.67
-20.06
-21.82
-22.98
-23.82
-24.67
-25.69
-26.79
-27.61
-27.61
-26.33
-23.60
-19.60
-14.83
-9.99
-5.73
-2.43
-0.23
0.86
0.85
-0.32
-2.63
-5.70
-8.78
-10.84
-10.97
-8.78
-4.63
0.55
5.72
10.15
13.66
16.60
19.45
22.52
25.75
28.76
31.15
32.60
33.02
32.42
30.86
28.38
25.07
21.21
17.35
14.27
12.84
13.67
16.90
22.07
28.25
34.29
39.08
41.95
42.64
41.41
38.83
35.57
32.15
28.89
25.85
22.98
20.27
17.73
15.36
13.12
10.79
8.08
4.83
1.09
-2.83
-6.50
-9.72
-12.64
-15.82
-19.87
-25.01
-30.83
-36.30
-40.17
-41.50
-40.13
-36.71
-32.37
-28.20
-24.78
-22.09
-19.72
-17.28
-14.71
-12.35
-10.73
-10.16
-10.54
-11.32
-11.74
-11.21
-9.62
-7.39
-5.28
-4.01
-3.92
-4.81
-6.06
-6.94
-6.95
-6.09
-4.76
-3.58
-3.08
-3.35
-4.05
-4.45
-3.75
-1.49
2.21
6.69
11.04
14.59
17.16
19.00
20.50
21.85
22.76
22.63
20.92
17.56
13.18
8.89
5.69
4.06
3.89
4.54
5.25
5.44
4.79
3.32
1.00
-2.70
-8.26
-15.44
-22.70
-27.40
-26.74
-18.93
-4.17
15.34
35.53
52.79
65.52
74.39
81.29
87.56
93.14
96.62
96.28
89.88
76.52
57.05
33.63
8.61
-16.32
-40.23
-62.50
-82.44
-100.80
-118.11
-134.26
-148.42
-160.03
-169.67
-179.11
-190.53
-195.88
-189.10
-169.03
-140.65
-110.64
-82.81
-57.46
-33.22
-8.77
16.04
38.43
55.05
63.87
65.48
62.69
59.02
57.23
58.50
62.46
66.59
68.42
67.00
63.25
59.11
56.14
55.07
55.30
55.75
54.56
50.33
42.88
33.41
23.95
16.31
11.39
8.96
7.78
5.97
2.19
-3.63
-10.11
-15.18
-17.25
-15.74
-11.43
-5.85
-0.60
3.48
6.63
9.76
13.96
19.37
25.20
29.92
31.98
30.53
25.92
19.46
12.90
7.56
3.74
0.77
-2.53
-7.02
-12.71
-18.76
-23.89
-27.15
-28.42
-28.52
-28.73
-30.11
-32.93
-36.52
-39.57
-40.74
-39.30
-35.33
-29.69
-23.36
-16.95
-10.53
-3.68
3.97
12.21
20.11
26.29
29.56
29.59
27.13
23.77
21.16
20.29
21.11
22.65
23.69
23.46
21.92
19.72
17.69
16.31
15.44
14.49
12.84
10.25
6.88
3.12
-0.66
-4.39
-8.20
-12.13
-15.85
-18.51
-19.04
-16.54
-10.72
-2.23
7.48
16.62
23.68
27.96
29.61
29.48
28.56
27.50
26.37
24.87
22.65
19.68
16.32
13.17
10.73
9.06
7.72
5.97
3.16
-0.90
-5.89
-11.05
-15.67
-19.45
-22.73
-26.31
-30.93
-36.64
-42.62
-47.27
-48.90
-46.56
-40.46
-31.94
-22.72
-14.15
-6.71
-0.12
6.18
12.33
17.77
21.46
22.55
21.03
17.84
14.56
12.67
12.78
14.38
16.17
16.82
15.71
13.21
10.42
8.51
8.03
8.57
9.01
8.19
5.54
1.38
-3.33
-7.46
-10.33
-11.95
-12.84
-13.46
-13.82
-13.27
-10.87
-5.95
1.36
9.92
17.98
23.94
27.04
27.63
26.93
26.28
26.42
27.11
27.42
26.37
23.70
20.00
16.50
14.24
13.49
13.54
13.11
11.15
7.48
2.88
-1.34
-4.15
-5.47
-6.28
-8.13
-12.20
-18.62
-26.25
-33.20
-37.57
-38.37
-35.85
-31.24
-26.01
-21.12
-16.69
-12.20
-7.09
-1.39
4.04
7.92
9.23
7.87
4.78
1.58
-0.26
-0.12
1.47
3.18
3.69
2.36
-0.44
-3.52
-5.61
-6.06
-5.18
-4.09
-3.99
-5.52
-8.51
-12.08
-15.28
-17.64
-19.35
-21.01
-22.95
-24.81
-25.51
-23.77
-18.80
-10.93
-1.60
7.15
13.64
17.14
18.09
17.75
17.36
17.54
18.00
17.90
16.50
13.69
10.12
6.90
4.91
4.36
4.58
4.46
3.08
0.27
-3.33
-6.61
-8.62
-9.23
-9.27
-10.08
-12.78
-17.50
-23.21
-28.07
-30.26
-28.91
-24.47
-18.39
-12.31
-7.21
-3.05
0.99
5.79
11.51
17.27
21.54
22.98
21.21
17.12
12.49
9.11
7.91
8.45
9.32
8.94
6.49
2.34
-2.16
-5.51
-6.92
-6.75
-6.26
-6.83
-9.12
-12.84
-16.93
-20.30
-22.49
-23.81
-25.05
-26.66
-28.35
-29.01
-27.28
-22.29
-14.35
-4.87
4.12
10.84
14.51
15.51
15.03
14.39
14.36
14.77
14.82
13.61
10.82
6.91
2.99
0.15
-1.06
-1.03
-0.78
-1.38
-3.31
-6.14
-8.88
-10.52
-10.80
-10.50
-11.01
-13.55
-18.38
-24.49
-29.99
-32.95
-32.34
-28.43
-22.57
-16.35
-10.79
-5.97
-1.22
4.22
10.46
16.74
21.73
24.28
24.13
22.02
19.36
17.48
16.91
17.18
17.10
15.56
12.14
7.39
2.52
-1.19
-3.13
-3.66
-3.85
-4.81
-7.04
-10.14
-13.08
-14.88
-15.31
-15.05
-15.34
-17.00
-19.85
-22.53
-23.14
-20.21
-13.59
-4.61
4.55
11.89
16.47
18.64
19.56
20.34
21.37
22.08
21.42
18.64
13.76
7.75
2.04
-2.14
-4.35
-5.18
-5.78
-7.24
-9.95
-13.41
-16.46
-17.99
-17.65
-16.08
-14.70
-14.97
-17.65
-22.45
-28.17
-33.27
-36.66
-38.06
-37.84
-36.53
-34.31
-30.80
-25.32
-17.44
-7.53
3.10
12.57
19.26
22.45
22.60
21.11
19.54
18.87
19.03
19.13
18.10
15.46
11.53
7.43
4.32
2.76
2.35
1.94
0.40
-2.72
-6.87
-10.81
-13.39
-14.34
-14.55
-15.63
-18.88
-24.40
-30.88
-36.05
-37.78
-35.09
-28.58
-19.90
-10.86
-2.56
4.89
12.02
19.27
26.35
32.18
35.39
35.14
31.71
26.49
21.42
18.08
16.93
17.13
17.07
15.31
11.36
5.93
0.59
-3.19
-4.77
-4.76
-4.62
-5.85
-9.23
-14.53
-20.70
-26.50
-31.17
-34.63
-37.27
-39.32
-40.39
-39.40
-35.04
-26.52
-14.17
0.31
14.44
25.91
33.37
36.89
37.66
37.27
36.79
36.40
35.47
33.27
29.62
25.15
21.05
18.42
17.53
17.67
17.48
15.75
12.12
7.30
2.64
-0.63
-2.23
-3.09
-4.90
-9.12
-16.04
-24.48
-32.07
-36.31
-35.68
-30.27
-21.56
-11.57
-1.82
7.17
15.85
24.83
34.08
42.59
48.73
51.20
49.80
45.67
40.83
37.18
35.52
35.25
34.82
32.75
28.51
22.82
17.30
13.49
12.02
12.27
12.77
12.09
9.55
5.56
1.28
-2.24
-4.65
-6.56
-9.01
-12.62
-16.96
-20.47
-21.03
-16.95
-7.84
5.22
20.21
35.17
49.16
62.41
76.00
90.76
106.42
121.37
133.40
140.84
143.53
142.99
141.60
141.31
142.51
143.82
142.87
137.66
127.68
114.22
99.80
86.95
77.27
70.86
66.61
62.98
58.65
53.02
46.34
39.47
33.36
28.65
25.24
22.27
18.31
11.92
2.26
-10.53
-25.48
-41.28
-56.79
-71.30
-84.45
-95.95
-105.46
-112.70
-117.93
-122.16
-126.97
-133.68
-142.58
-152.48
-161.17
-166.61
-168.19
-167.15
-165.84
-166.24
-168.61
-171.06
-170.39
-163.71
-150.04
-130.94
-109.83
-90.50
-75.47
-65.20
-58.26
-52.33
-45.61
-37.53
-28.74
-20.29
-12.77
-5.69
2.29
12.63
25.88
41.29
56.96
70.77
81.11
87.37
89.80
89.03
85.40
78.79
68.78
55.09
38.10
19.12
0.30
-15.92
-27.61
-34.13
-36.36
-36.18
-35.59
-35.91
-37.49
-40.14
-43.88
-49.35
-57.46
-68.58
-81.76
-94.58
-103.76
-106.54
-101.83
-90.59
-75.22
-58.20
-41.06
-24.02
-6.39
12.48
32.43
52.29
70.23
84.37
93.31
96.22
92.97
84.11
70.90
55.33
39.93
27.33
19.56
17.57
21.29
29.81
41.80
55.56
69.04
79.88
85.81
85.18
77.78
65.01
49.35
33.36
18.75
5.97
-5.50
-16.46
-27.24
-37.48
-46.56
-54.09
-60.33
-65.83
-70.86
-74.92
-76.76
-75.10
-69.55
-61.19
-52.23
-44.96
-40.57
-38.55
-37.03
-33.86
-27.90
-19.59
-10.59
-2.75
2.94
6.55
8.85
10.42
10.99
9.52
4.93
-2.94
-12.85
-22.45
-29.22
-31.46
-29.00
-23.05
-15.56
-8.23
-1.96
3.22
7.75
11.95
15.58
17.87
18.11
16.27
13.45
11.68
13.22
19.51
30.30
43.61
56.38
65.77
70.24
70.04
66.85
62.88
59.69
57.58
55.69
52.58
47.13
39.07
29.17
18.90
9.71
2.52
-2.50
-5.66
-7.32
-7.57
-6.16
-2.85
2.05
7.44
11.68
13.24
11.49
7.04
1.61
-2.75
-4.58
-3.65
-0.97
1.88
3.60
3.71
2.69
1.47
0.63
-0.02
-1.39
-4.42
-9.41
-15.67
-21.91
-27.10
-31.33
-35.91
-42.70
-52.81
-65.64
-78.77
-88.73
-92.45
-88.51
-77.70
-62.53
-46.03
-30.56
-17.16
-5.58
5.00
15.17
24.81
33.17
39.45
43.37
45.44
46.76
48.38
50.64
52.81
53.45
51.23
45.74
37.89
29.60
22.91
18.92
17.27
16.26
13.80
8.59
0.78
-8.03
-15.55
-19.92
-20.56
-18.06
-13.64
-8.24
-2.10
5.18
13.91
23.72
33.19
40.41
43.81
42.95
38.86
33.50
28.90
26.14
24.96
24.15
22.33
18.82
13.90
8.61
4.00
0.49
-2.39
-5.55
-9.70
-14.77
-19.95
-24.20
-26.93
-28.52
-30.08
-32.78
-36.94
-41.67
-45.06
-44.97
-40.08
-30.53
-17.97
-4.93
6.22
14.09
18.58
20.63
21.51
22.02
22.16
21.34
19.00
15.18
10.70
6.84
4.56
3.93
3.98
3.23
0.60
-3.91
-9.12
-13.27
-14.98
-14.12
-12.00
-10.86
-12.76
-18.51
-27.20
-36.47
-43.46
-46.09
-43.80
-37.64
-29.45
-20.90
-12.79
-5.01
2.90
10.91
18.06
22.83
24.01
21.55
16.76
11.80
8.60
7.87
8.81
9.66
8.70
5.21
-0.28
-6.30
-11.30
-14.49
-16.18
-17.53
-19.83
-23.85
-29.60
-36.46
-43.69
-50.81
-57.54
-63.48
-67.65
-68.58
-64.74
-55.35
-40.99
-23.68
-6.25
8.64
19.49
26.35
30.54
33.99
38.23
43.73
49.70
54.56
56.70
55.23
50.38
43.29
35.45
27.98
21.34
15.48
10.28
6.06
3.52
3.37
5.73
9.67
13.18
13.90
9.98
0.95
-11.95
-26.07
-38.29
-46.12
-48.35
-45.22
-37.81
-27.38
-14.85
-0.73
14.45
29.71
43.46
53.89
59.76
61.02
58.90
55.41
52.48
51.00
50.67
50.25
48.53
45.01
40.17
35.21
31.27
28.76
27.08
25.03
21.44
15.85
8.69
1.02
-5.93
-11.35
-14.97
-16.89
-17.16
-15.52
-11.49
-4.70
4.69
15.59
26.14
34.28
38.49
38.51
35.35
30.87
26.90
24.45
23.30
22.35
20.41
16.98
12.55
8.32
5.56
4.75
5.37
6.15
5.79
3.71
0.28
-3.40
-6.18
-7.58
-8.14
-9.14
-11.83
-16.57
-22.43
-27.42
-29.36
-26.96
-20.50
-11.67
-2.81
4.29
9.00
11.95
14.30
16.82
19.29
20.64
19.75
16.29
11.07
5.81
2.25
1.21
2.13
3.46
3.59
1.78
-1.38
-4.34
-5.54
-4.40
-1.71
0.71
1.06
-1.59
-6.69
-12.47
-16.83
-18.42
-17.19
-14.27
-11.25
-9.14
-7.96
-6.43
-2.64
4.64
15.06
26.74
37.13
44.40
48.19
49.54
50.35
52.13
54.77
56.54
55.23
49.40
38.79
23.75
4.14
-20.34
-49.33
-81.16
-112.51
-138.70
-155.15
-159.24
-151.53
-136.07
-117.83
-100.53
-85.89
-73.83
-62.87
-50.90
-36.08
-15.23
8.87
28.71
37.90
35.65
25.58
12.98
2.47
-3.54
-5.30
-5.43
-6.31
-8.89
-12.01
-14.26
-14.72
-13.48
-11.48
-9.90
-9.59
-9.72
-8.10
-2.56
7.56
20.82
33.80
42.73
45.26
41.26
33.22
25.09
20.16
19.38
21.25
23.07
22.70
19.74
15.57
12.69
13.10
16.80
21.46
23.63
20.76
12.74
1.95
-8.17
-14.84
-17.16
-16.14
-13.65
-11.18
-9.06
-6.75
-3.61
0.51
5.18
9.77
13.98
18.09
22.74
28.45
35.19
42.13
47.75
50.22
47.98
40.46
28.60
14.75
2.04
-6.67
-9.99
-8.55
-4.63
-1.17
-0.41
-3.05
-8.22
-14.23
-19.67
-24.34
-29.23
-36.00
-45.82
-58.58
-72.72
-85.71
-95.12
-99.46
-98.51
-92.88
-83.34
-70.44
-54.61
-36.82
-18.98
-3.71
6.73
11.78
13.35
15.12
20.85
32.42
48.81
66.49
81.24
89.96
91.88
88.21
81.10
72.42
63.16
53.59
43.75
33.84
24.31
15.66
8.13
1.66
-4.13
-9.65
-15.28
-21.20
-27.35
-33.42
-38.78
-42.80
-45.22
-46.47
-47.50
-49.29
-52.44
-56.82
-61.53
-65.06
-65.77
-62.35
-54.32
-41.60
-24.42
-3.09
22.24
51.97
86.76
126.52
169.32
210.30
243.52
263.63
267.25
253.42
223.49
180.30
127.50
69.31
9.72
-45.92
-91.88
-124.22
-142.84
-151.44
-155.73
-161.00
-170.08
-183.79
-199.18
-210.97
-214.17
-206.21
-187.37
-159.97
-127.29
-85.18
-37.09
8.65
44.63
68.31
80.67
83.77
80.15
72.88
65.17
58.34
53.21
49.93
47.70
45.57
42.58
39.06
36.32
35.67
36.66
38.56
40.64
42.25
42.80
41.93
39.80
36.74
32.73
26.98
19.31
10.37
1.33
-6.55
-12.19
-14.67
-13.52
-8.96
-2.20
5.23
11.93
16.86
19.59
20.31
19.63
18.06
15.72
12.29
7.60
1.93
-3.85
-8.70
-11.97
-13.79
-15.02
-16.79
-19.82
-23.99
-28.27
-31.25
-31.96
-30.35
-27.46
-24.89
-24.03
-25.47
-28.70
-32.41
-35.11
-35.77
-34.12
-30.47
-25.20
-18.44
-9.98
0.40
12.35
24.57
35.04
41.68
43.24
39.80
32.72
24.02
15.41
7.66
0.61
-6.30
-13.36
-20.15
-25.64
-28.82
-29.39
-28.07
-26.41
-25.96
-27.59
-31.06
-35.29
-39.03
-41.62
-43.29
-44.89
-47.09
-49.71
-51.58
-50.96
-46.45
-37.80
-26.17
-13.68
-2.46
6.20
12.28
16.64
20.39
24.10
27.43
29.39
29.04
26.15
21.45
16.46
12.69
10.94
10.90
11.40
11.07
9.08
5.56
1.37
-2.45
-5.44
-8.04
-11.36
-16.37
-23.07
-30.18
-35.49
-36.75
-32.77
-24.10
-12.74
-1.24
8.45
15.68
21.16
26.12
31.35
36.54
40.43
41.60
39.47
34.75
29.16
24.58
22.01
21.11
20.47
18.54
14.58
9.06
3.35
-1.06
-3.45
-4.34
-5.18
-7.64
-12.63
-19.86
-27.77
-34.23
-37.38
-36.39
-31.71
-24.62
-16.49
-8.19
0.19
8.99
18.34
27.65
35.59
40.68
42.10
40.18
36.30
32.27
29.39
27.86
26.87
25.16
21.95
17.37
12.41
8.41
6.18
5.53
5.35
4.24
1.23
-3.76
-9.94
-16.16
-21.48
-25.59
-28.66
-30.94
-32.26
-31.95
-29.04
-22.82
-13.44
-2.05
9.46
19.21
25.95
29.47
30.49
30.12
29.28
28.24
26.69
24.15
20.49
16.19
12.16
9.28
7.87
7.44
6.95
5.40
2.36
-1.80
-6.11
-9.54
-11.70
-13.05
-14.77
-17.99
-23.07
-29.22
-34.62
-37.18
-35.49
-29.47
-20.35
-10.10
-0.47
7.61
14.14
19.61
24.27
27.69
28.89
26.99
21.95
14.83
7.52
1.96
-0.79
-1.00
-0.01
0.54
-0.40
-2.87
-5.98
-8.54
-9.82
-9.99
-9.99
-11.00
-13.81
-18.43
-24.10
-29.60
-33.78
-35.91
-35.83
-33.70
-29.73
-23.96
-16.31
-6.76
4.20
15.41
25.27
32.27
35.59
35.48
33.08
29.92
27.16
25.08
23.16
20.56
16.83
12.18
7.49
3.76
1.58
0.68
0.13
-1.13
-3.75
-7.65
-12.19
-16.60
-20.55
-24.29
-28.39
-33.08
-37.80
-41.15
-41.37
-37.12
-28.27
-16.08
-2.78
9.30
18.65
24.87
28.58
30.82
32.30
33.09
32.74
30.82
27.34
22.96
18.70
15.46
13.51
12.37
11.06
8.73
5.12
0.73
-3.47
-6.54
-8.20
-9.07
-10.50
-13.80
-19.53
-27.04
-34.52
-39.67
-40.70
-37.03
-29.51
-19.86
-9.82
-0.44
8.12
16.21
23.98
30.90
35.84
37.67
36.03
31.68
26.32
21.83
19.35
18.76
18.88
18.18
15.71
11.55
6.72
2.54
-0.17
-1.50
-2.39
-4.04
-7.23
-11.98
-17.61
-23.14
-27.81
-31.34
-33.81
-35.28
-35.48
-33.75
-29.30
-21.75
-11.48
0.22
11.52
20.70
26.76
29.71
30.43
30.09
29.56
29.00
27.97
25.87
22.50
18.27
14.08
10.80
8.82
7.75
6.68
4.71
1.49
-2.59
-6.59
-9.56
-11.24
-12.26
-13.95
-17.55
-23.43
-30.65
-37.16
-40.60
-39.44
-33.60
-24.53
-14.37
-4.94
2.93
9.49
15.50
21.39
26.75
30.51
31.57
29.60
25.33
20.32
16.19
13.78
12.81
12.10
10.40
7.12
2.71
-1.68
-4.86
-6.41
-6.92
-7.69
-9.95
-14.22
-20.07
-26.35
-31.79
-35.56
-37.48
-37.85
-36.99
-34.92
-31.32
-25.71
-17.86
-8.18
2.27
11.92
19.28
23.50
24.60
23.49
21.53
19.80
18.70
17.83
16.37
13.73
9.93
5.68
2.06
-0.21
-1.14
-1.53
-2.41
-4.52
-7.82
-11.63
-15.17
-18.13
-21.02
-24.76
-29.92
-36.05
-41.55
-44.25
-42.40
-35.62
-25.06
-12.95
-1.51
7.93
15.17
20.84
25.69
29.94
33.10
34.34
33.08
29.52
24.59
19.62
15.75
13.34
11.89
10.33
7.77
3.96
-0.50
-4.53
-7.20
-8.41
-9.00
-10.45
-13.99
-19.86
-27.01
-33.41
-36.86
-35.98
-30.66
-22.03
-11.81
-1.43
8.35
17.56
26.50
35.17
42.95
48.78
51.73
51.62
49.21
45.97
43.35
42.08
41.79
41.22
39.04
34.65
28.61
22.45
17.94
16.14
16.90
18.89
20.26
19.50
16.09
10.67
4.64
-0.49
-3.73
-4.83
-4.14
-2.13
0.91
5.00
10.24
16.47
22.93
28.36
31.44
31.40
28.44
23.70
18.72
14.75
12.05
9.95
7.36
3.54
-1.44
-6.74
-11.25
-14.34
-16.28
-18.03
-20.59
-24.42
-29.17
-33.94
-37.88
-40.69
-42.72
-44.61
-46.68
-48.54
-49.08
-46.96
-41.28
-32.10
-20.62
-8.74
1.65
9.36
14.19
16.83
18.28
19.32
20.08
20.14
19.01
16.54
13.16
9.73
7.12
5.64
4.91
4.06
2.21
-0.97
-5.15
-9.47
-13.10
-15.71
-17.65
-19.75
-22.73
-26.74
-31.06
-34.39
-35.35
-33.09
-27.70
-20.18
-11.89
-4.06
2.63
8.09
12.54
16.08
18.43
19.05
17.56
14.12
9.55
5.09
1.83
0.19
-0.23
-0.44
-1.45
-3.76
-7.09
-10.66
-13.61
-15.57
-16.86
-18.35
-20.89
-24.88
-29.92
-34.89
-38.39
-39.30
-37.17
-32.34
-25.63
-17.93
-9.83
-1.56
6.79
14.91
22.06
27.20
29.49
28.80
25.85
21.99
18.60
16.37
15.10
13.89
11.81
8.50
4.39
0.41
-2.47
-3.95
-4.51
-5.18
-7.00
-10.50
-15.45
-21.01
-26.14
-30.02
-32.29
-32.92
-31.97
-29.31
-24.67
-17.79
-8.81
1.49
11.71
20.24
25.86
28.16
27.68
25.59
23.12
21.00
19.22
17.26
14.53
10.87
6.68
2.75
-0.24
-2.10
-3.31
-4.71
-7.02
-10.44
-14.63
-18.99
-23.06
-26.85
-30.64
-34.62
-38.38
-40.82
-40.46
-36.18
-27.69
-15.91
-2.68
9.85
19.97
26.80
30.46
31.68
31.45
30.52
29.20
27.41
24.96
21.82
18.29
14.91
12.22
10.40
9.14
7.83
5.90
3.21
0.12
-2.82
-5.22
-7.33
-9.92
-13.82
-19.24
-25.36
-30.37
-32.20
-29.38
-21.83
-10.94
0.94
11.48
19.23
23.93
26.30
27.40
27.97
28.09
27.31
25.21
21.76
17.48
13.33
10.12
8.13
6.97
5.78
3.79
0.75
-2.93
-6.42
-8.97
-10.46
-11.53
-13.33
-16.76
-21.94
-27.84
-32.65
-34.48
-32.22
-26.03
-17.19
-7.49
1.56
9.18
15.30
20.18
23.90
26.15
26.38
24.34
20.38
15.46
10.85
7.55
5.86
5.31
4.89
3.63
1.14
-2.33
-5.99
-8.95
-10.76
-11.69
-12.59
-14.46
-17.89
-22.65
-27.61
-31.19
-32.01
-29.48
-23.98
-16.54
-8.30
-0.03
8.04
15.95
23.50
30.00
34.37
35.72
33.84
29.53
24.27
19.60
16.37
14.51
13.22
11.58
9.17
6.22
3.39
1.32
0.14
-0.63
-1.81
-4.11
-7.79
-12.58
-17.76
-22.54
-26.21
-28.35
-28.74
-27.25
-23.74
-18.17
-10.65
-1.66
7.89
16.69
23.37
26.98
27.35
25.19
21.84
18.71
16.61
15.52
14.68
13.17
10.47
6.84
3.15
0.37
-1.01
-1.32
-1.54
-2.79
-5.75
-10.37
-15.94
-21.48
-26.17
-29.60
-31.63
-32.10
-30.59
-26.52
-19.46
-9.58
2.04
13.66
23.34
29.72
32.47
32.28
30.46
28.31
26.52
25.02
23.23
20.54
16.82
12.52
8.44
5.36
3.56
2.68
1.93
0.53
-1.99
-5.56
-9.76
-14.08
-18.21
-22.08
-25.64
-28.58
-30.22
-29.59
-25.86
-18.78
-9.02
1.89
12.03
19.71
24.12
25.43
24.69
23.19
21.83
20.85
19.83
18.16
15.53
12.14
8.69
5.94
4.27
3.43
2.72
1.40
-0.90
-3.97
-7.20
-10.07
-12.50
-14.98
-18.16
-22.24
-26.54
-29.48
-29.24
-24.59
-15.67
-4.08
7.73
17.40
23.63
26.42
26.84
26.21
25.43
24.60
23.29
21.04
17.81
14.09
10.65
8.10
6.48
5.25
3.62
1.06
-2.36
-6.04
-9.16
-11.25
-12.59
-14.11
-16.86
-21.35
-26.98
-32.13
-34.78
-33.33
-27.48
-18.31
-7.89
1.67
9.00
13.80
16.71
18.57
19.88
20.53
19.95
17.74
14.03
9.56
5.39
2.37
0.61
-0.46
-1.78
-4.10
-7.49
-11.36
-14.76
-17.04
-18.32
-19.48
-21.70
-25.73
-31.27
-36.92
-40.64
-40.67
-36.30
-28.19
-18.07
-7.89
0.91
7.84
13.21
17.61
21.29
23.92
24.79
23.35
19.71
14.74
9.76
5.93
3.66
2.47
1.33
-0.71
-3.94
-7.87
-11.53
-14.15
-15.71
-17.05
-19.40
-23.54
-29.23
-35.10
-39.06
-39.29
-35.06
-26.97
-16.65
-5.90
3.97
12.49
19.80
26.15
31.43
35.06
36.35
35.00
31.42
26.66
22.04
18.51
16.27
14.73
12.89
10.01
5.95
1.30
-3.01
-6.29
-8.53
-10.55
-13.53
-18.32
-24.83
-31.84
-37.40
-39.55
-37.22
-30.59
-20.95
-10.07
0.53
10.06
18.45
25.91
32.42
37.51
40.42
40.62
38.23
34.06
29.39
25.35
22.40
20.27
18.18
15.44
11.82
7.70
3.83
0.83
-1.27
-3.08
-5.64
-9.83
-15.92
-23.27
-30.49
-35.90
-38.15
-36.67
-31.82
-24.52
-15.83
-6.54
2.98
12.46
21.48
29.22
34.61
36.83
35.79
32.25
27.59
23.23
19.93
17.60
15.45
12.66
8.85
4.36
0.01
-3.36
-5.51
-6.85
-8.35
-10.95
-15.14
-20.76
-27.14
-33.42
-38.87
-42.99
-45.46
-45.84
-43.63
-38.29
-29.55
-17.74
-3.87
10.42
23.35
33.43
39.94
42.95
43.20
41.69
39.23
36.24
32.74
28.58
23.80
18.73
13.96
10.09
7.39
5.64
4.25
2.56
0.14
-3.09
-6.92
-11.18
-15.91
-21.34
-27.57
-34.13
-39.85
-43.09
-42.28
-36.67
-26.66
-13.74
0.16
13.27
24.50
33.44
40.04
44.25
45.88
44.77
41.13
35.78
30.03
25.29
22.54
21.87
22.45
22.87
21.79
18.51
13.31
7.23
1.63
-2.52
-5.13
-6.95
-9.27
-13.14
-18.89
-25.87
-32.69
-37.79
-40.00
-38.87
-34.61
-27.75
-18.87
-8.36
3.38
15.69
27.40
36.92
42.70
43.91
40.89
35.10
28.67
23.50
20.51
19.41
18.99
17.87
15.19
10.99
6.07
1.49
-2.01
-4.37
-6.12
-8.01
-10.62
-14.17
-18.49
-23.25
-28.14
-32.92
-37.31
-40.68
-42.12
-40.59
-35.34
-26.37
-14.63
-1.83
10.01
19.31
25.34
28.32
29.15
28.85
28.07
26.88
24.94
22.00
18.15
13.98
10.27
7.65
6.18
5.32
4.19
2.06
-1.28
-5.45
-9.66
-13.25
-16.11
-18.75
-22.08
-26.78
-32.73
-38.84
-43.36
-44.58
-41.66
-35.00
-26.02
-16.42
-7.42
0.66
8.20
15.68
22.98
29.19
33.01
33.48
30.65
25.70
20.45
16.48
14.39
13.65
12.99
11.27
8.10
4.07
0.33
-2.11
-3.04
-3.18
-3.71
-5.70
-9.52
-14.74
-20.43
-25.66
-29.84
-32.83
-34.59
-34.95
-33.45
-29.51
-22.81
-13.61
-2.94
7.74
16.87
23.42
27.06
28.15
27.50
25.91
23.86
21.49
18.64
15.19
11.24
7.09
3.23
0.05
-2.31
-4.01
-5.40
-6.74
-8.18
-9.69
-11.29
-13.29
-16.27
-20.96
-27.74
-36.26
-45.24
-52.81
-57.02
-56.61
-51.44
-42.50
-31.45
-19.94
-9.06
0.86
10.04
18.72
26.74
33.37
37.60
38.70
36.68
32.38
27.19
22.38
18.60
15.69
13.01
9.96
6.45
2.95
0.22
-1.22
-1.45
-1.27
-1.76
-3.90
-8.10
-14.09
-20.93
-27.44
-32.44
-35.14
-35.13
-32.37
-27.09
-19.70
-10.71
-0.82
9.05
17.87
24.68
28.87
30.40
29.77
27.87
25.55
23.37
21.42
19.47
17.22
14.60
11.78
9.16
7.06
5.52
4.24
2.70
0.42
-2.80
-6.78
-11.11
-15.41
-19.49
-23.33
-26.88
-29.75
-31.13
-30.02
-25.68
-18.11
-8.27
2.17
11.46
18.38
22.64
24.66
25.24
25.01
24.13
22.38
19.54
15.74
11.50
7.59
4.65
2.83
1.66
0.31
-1.99
-5.54
-10.01
-14.58
-18.38
-20.95
-22.50
-23.87
-26.00
-29.36
-33.57
-37.36
-39.16
-37.76
-33.00
-25.76
-17.55
-9.73
-2.94
3.00
8.65
14.32
19.64
23.61
25.19
23.95
20.40
15.87
11.89
9.55
9.14
10.19
11.91
13.64
15.06
16.19
17.06
17.37
16.49
13.62
8.32
0.80
-7.97
-16.53
-23.43
-27.70
-29.20
-28.41
-25.92
-22.00
-16.40
-8.72
1.13
12.42
23.61
32.61
37.75
38.58
36.07
32.08
28.31
25.49
23.15
20.10
14.97
7.37
-1.67
-9.84
-14.73
-15.09
-11.49
-6.18
-2.27
-3.10
-10.74
-25.06
-43.57
-62.50
-78.33
-88.67
-92.39
-89.37
-80.75
-68.23
-53.74
-39.26
-26.97
-19.01
-16.52
-18.67
-18.97
-11.33
5.67
26.72
44.01
53.09
54.64
52.97
52.93
57.03
63.49
67.75
65.40
54.88
38.49
20.88
6.46
-1.96
-4.04
-2.29
-0.39
-1.10
-4.90
-9.72
-12.60
-11.41
-5.88
2.14
9.37
12.94
12.74
9.56
5.24
1.72
0.24
1.21
4.36
8.82
13.37
16.67
17.57
15.87
12.30
8.08
4.10
0.11
-5.30
-13.64
-25.21
-38.39
-50.01
-57.35
-60.07
-60.69
-63.12
-69.94
-80.08
-88.55
-88.59
-75.09
-47.70
-11.51
24.90
53.02
67.73
68.63
58.92
42.67
22.67
-0.38
-26.78
-55.96
-85.32
-110.45
-126.80
-131.67
-125.52
-111.71
-95.28
-81.17
-73.04
-72.53
-78.95
-89.52
-99.53
-103.16
-94.72
-70.51
-30.49
20.76
74.88
122.30
155.73
173.06
178.16
178.86
183.06
194.89
213.00
231.51
243.48
244.25
233.39
214.03
190.50
165.74
140.26
112.93
82.96
51.65
22.48
-0.29
-13.99
-19.15
-19.60
-20.83
-27.33
-40.37
-57.25
-72.98
-82.84
-84.57
-79.12
-69.84
-60.49
-53.39
-48.49
-43.50
-35.79
-23.95
-8.67
7.38
20.48
27.22
26.14
18.55
8.80
2.06
1.95
8.87
19.95
30.38
35.72
34.15
27.03
18.61
12.78
10.87
11.34
11.24
8.03
0.86
-9.13
-23.34
-39.74
-53.81
-61.80
-63.49
-61.23
-57.61
-54.14
-50.56
-46.22
-40.42
-33.73
-28.01
-25.27
-26.45
-30.85
-37.36
-43.45
-46.92
-46.15
-41.19
-33.56
-25.25
-17.59
-10.84
-4.53
1.94
8.47
14.53
19.06
20.94
19.66
15.71
10.17
4.07
-1.86
-7.36
-11.96
-14.93
-15.32
-12.39
-6.11
2.42
11.13
17.78
20.82
20.11
16.82
12.88
10.00
8.94
9.28
9.83
9.46
7.71
5.01
2.39
0.74
0.11
-0.38
-2.16
-6.31
-12.96
-21.15
-29.24
-35.79
-40.15
-42.58
-43.77
-44.09
-43.08
-39.57
-32.32
-20.93
-6.46
8.71
21.72
30.39
34.11
33.93
31.93
30.14
29.51
29.58
29.03
26.58
21.89
15.83
10.04
6.03
4.28
3.98
3.53
1.46
-2.76
-8.50
-14.42
-19.37
-23.09
-26.27
-29.85
-34.06
-37.86
-39.22
-36.05
-27.37
-14.04
1.44
15.96
27.07
33.84
36.89
37.75
37.89
38.00
37.79
36.49
33.54
29.12
24.19
20.05
17.64
16.95
16.95
16.16
13.44
8.67
2.78
-2.79
-7.05
-10.13
-13.25
-17.89
-24.61
-32.38
-38.73
-40.79
-36.75
-26.86
-13.37
0.47
11.93
19.88
24.95
28.76
32.65
36.70
39.74
40.07
36.76
30.35
22.80
16.54
13.22
12.81
13.71
13.72
11.29
6.43
0.55
-4.31
-6.81
-7.06
-6.66
-7.84
-12.25
-20.05
-29.70
-38.59
-44.15
-44.93
-41.08
-33.98
-25.39
-16.56
-7.78
1.40
11.36
21.63
30.68
36.52
37.76
34.53
28.53
22.40
18.36
17.14
17.72
18.09
16.49
12.38
6.75
1.41
-2.12
-3.51
-3.76
-4.50
-7.03
-11.60
-17.47
-23.47
-28.80
-33.49
-38.13
-43.11
-47.94
-51.11
-50.58
-44.75
-33.39
-17.99
-1.35
13.57
24.72
31.62
35.17
36.97
38.24
39.17
39.03
36.79
32.09
25.66
19.16
14.44
12.46
12.77
13.76
13.51
10.84
5.92
0.06
-5.08
-8.59
-10.97
-13.87
-19.09
-27.38
-37.71
-47.48
-53.51
-53.53
-47.20
-36.11
-22.94
-10.04
1.42
11.60
21.27
30.80
39.53
45.94
48.52
46.82
41.83
35.67
30.63
27.95
27.32
27.16
25.61
21.63
15.62
9.19
4.27
1.99
2.02
2.69
1.92
-1.73
-8.38
-16.88
-25.47
-32.69
-37.94
-41.37
-43.28
-43.52
-41.26
-35.40
-25.23
-11.25
4.74
20.08
32.28
39.92
43.07
43.07
41.71
40.33
39.19
37.62
34.73
30.17
24.58
19.33
15.81
14.53
14.73
14.81
13.21
9.31
3.80
-1.78
-5.94
-8.18
-9.39
-11.41
-16.02
-23.89
-34.15
-44.51
-52.21
-55.13
-52.57
-45.43
-35.50
-24.62
-13.95
-3.68
6.49
16.63
26.08
33.49
37.49
37.53
34.30
29.61
25.53
23.36
23.05
23.35
22.71
20.19
16.04
11.55
8.19
6.76
6.76
6.73
5.08
1.05
-4.92
-11.43
-16.99
-21.03
-24.20
-27.99
-33.58
-40.89
-48.23
-52.92
-52.51
-46.07
-34.72
-21.06
-7.98
2.66
10.57
16.71
22.31
27.77
32.29
34.31
32.65
27.41
20.19
13.48
9.44
8.78
10.43
12.17
11.86
8.66
3.28
-2.43
-6.62
-8.57
-9.03
-9.71
-12.22
-17.15
-23.87
-30.90
-36.83
-41.02
-43.77
-45.79
-47.44
-48.16
-46.64
-41.40
-31.77
-18.48
-3.62
10.17
20.73
27.22
30.18
31.07
31.36
31.70
31.77
30.66
27.68
22.96
17.49
12.74
9.83
8.86
8.83
8.16
5.58
0.83
-5.21
-10.91
-14.90
-16.91
-18.03
-20.22
-25.09
-32.98
-42.42
-50.66
-54.79
-53.10
-45.81
-34.78
-22.47
-10.73
-0.15
9.83
19.96
30.21
39.37
45.52
47.19
44.31
38.49
32.34
28.18
26.88
27.54
28.12
26.72
22.63
16.64
10.55
6.06
3.82
3.09
2.27
-0.16
-4.90
-11.58
-19.11
-26.39
-32.82
-38.39
-43.24
-47.09
-49.05
-47.85
-42.37
-32.43
-19.09
-4.47
9.01
19.55
26.48
30.34
32.33
33.58
34.56
34.94
34.01
31.33
27.21
22.64
18.91
16.83
16.27
16.16
15.09
12.11
7.30
1.82
-2.78
-5.35
-5.99
-6.05
-7.54
-11.94
-19.32
-28.15
-35.77
-39.63
-38.40
-32.41
-23.29
-13.02
-2.94
6.66
16.23
26.18
36.11
44.68
50.14
51.35
48.45
42.98
37.18
32.95
30.90
30.21
29.18
26.35
21.32
14.99
9.09
5.14
3.53
3.35
2.90
0.64
-4.03
-10.55
-17.64
-24.13
-29.62
-34.44
-39.09
-43.43
-46.40
-46.26
-41.52
-31.76
-18.21
-3.34
10.06
19.98
25.79
28.17
28.58
28.29
27.81
26.80
24.55
20.71
15.69
10.57
6.65
4.68
4.40
4.59
3.75
0.83
-4.12
-10.08
-15.57
-19.51
-21.94
-23.97
-27.21
-32.75
-40.47
-48.83
-55.45
-58.13
-55.89
-49.31
-40.15
-30.32
-21.01
-12.27
-3.39
6.14
15.86
24.27
29.47
30.32
27.14
21.65
16.19
12.48
10.79
10.03
8.52
5.19
0.14
-5.36
-9.69
-11.83
-12.02
-11.63
-12.40
-15.47
-20.87
-27.60
-34.26
-39.79
-43.90
-46.92
-49.12
-50.19
-49.16
-44.75
-36.16
-23.65
-8.74
6.26
19.13
28.55
34.33
37.22
38.37
38.59
38.14
36.72
34.01
30.04
25.43
21.12
18.01
16.40
15.81
15.18
13.48
10.26
5.91
1.49
-1.94
-4.01
-5.43
-7.67
-12.12
-19.08
-27.28
-34.15
-36.92
-33.84
-25.05
-12.37
1.58
14.69
26.04
35.92
45.04
53.71
61.32
66.64
68.57
66.97
62.84
58.00
54.23
52.37
52.01
51.84
50.50
47.38
42.93
38.27
34.34
31.09
27.15
20.42
9.05
-7.52
-28.22
-50.55
-71.59
-88.93
-101.28
-108.48
-110.96
-109.19
-103.39
-93.62
-80.27
-64.53
-48.36
-34.08
-23.52
-17.28
-14.59
-13.69
-12.78
-10.86
-8.06
-5.24
-3.20
-2.05
-1.04
0.94
4.68
10.09
16.13
21.37
24.71
25.88
25.51
24.71
24.42
24.90
25.42
24.69
21.50
15.50
7.61
-0.14
-5.38
-6.49
-3.29
3.02
10.64
18.13
25.00
31.63
38.52
45.33
50.64
52.47
49.39
41.46
30.43
19.07
9.90
4.08
1.07
-0.78
-3.15
-6.75
-10.94
-14.24
-15.24
-13.51
-9.94
-6.17
-3.77
-3.39
-4.59
-6.41
-8.10
-9.66
-11.81
-15.38
-20.48
-26.01
-30.00
-30.45
-26.47
-18.80
-9.52
-1.19
4.13
5.50
3.21
-1.71
-8.13
-15.51
-23.69
-32.50
-41.36
-49.25
-55.08
-57.96
-57.70
-55.02
-51.82
-50.03
-50.47
-52.46
-54.37
-54.40
-51.36
-45.16
-36.92
-29.48
-25.39
-25.08
-26.55
-26.55
-21.96
-10.90
6.63
28.72
50.57
67.42
77.20
80.78
80.29
77.51
73.39
67.96
60.54
47.84
26.56
-3.92
-41.60
-83.32
-125.70
-165.21
-198.40
-209.67
-189.37
-142.44
-84.90
-31.53
10.10
37.75
52.11
56.02
54.29
51.35
49.40
50.45
55.09
61.33
65.68
65.63
61.46
55.96
51.25
46.49
41.92
37.26
31.25
22.49
11.05
-0.94
-10.11
-14.43
-13.62
-8.35
-0.38
7.80
13.82
16.38
15.38
11.62
5.94
-0.47
-5.14
-5.05
2.25
17.56
39.31
63.89
86.96
105.03
117.07
125.31
133.95
147.15
166.73
190.71
213.64
228.67
230.51
217.91
194.37
166.37
140.14
118.67
100.71
82.10
58.86
29.99
-1.71
-31.01
-53.29
-67.05
-74.66
-80.82
-89.92
-103.56
-119.72
-133.94
-141.95
-142.14
-136.56
-129.91
-126.90
-129.65
-136.56
-143.11
-144.28
-137.01
-121.38
-100.10
-76.84
-54.51
-34.48
-16.88
-1.56
11.07
19.95
23.84
22.06
15.00
4.04
-8.88
-21.96
-34.10
-45.15
-55.63
-66.27
-77.31
-88.14
-97.41
-103.58
-105.73
-103.98
-99.52
-93.95
-88.77
-84.97
-82.92
-82.65
-84.02
-86.75
-90.20
-93.11
-93.55
-89.42
-79.24
-62.96
-42.29
-20.08
0.36
16.46
27.12
32.89
35.37
36.18
36.28
35.87
35.25
34.71
34.70
35.91
39.05
44.26
50.85
57.46
62.79
67.11
71.12
75.42
80.23
85.38
90.02
92.68
91.89
87.08
80.46
74.83
72.21
73.44
78.30
85.58
93.34
99.78
104.05
108.26
114.12
121.43
128.28
132.43
132.28
127.31
118.20
95.62
59.14
17.01
-21.00
-51.06
-74.24
-92.11
-104.46
-109.65
-106.32
-93.22
-72.55
-49.63
-30.27
-17.79
-12.21
-11.28
-12.17
-12.84
-11.17
-6.86
-1.23
3.89
7.30
8.50
7.20
3.20
-3.32
-10.76
-17.60
-23.01
-26.82
-29.28
-30.50
-30.60
-29.79
-28.22
-25.67
-22.27
-18.62
-15.55
-13.60
-12.84
-13.03
-13.75
-14.46
-14.59
-13.95
-12.77
-11.65
-11.21
-11.83
-13.51
-15.76
-17.65
-18.14
-16.47
-12.48
-6.65
0.13
7.04
13.66
19.48
24.31
28.05
30.50
31.32
30.20
27.17
22.81
18.18
14.47
12.56
12.59
13.85
15.08
15.07
13.18
9.62
5.28
1.29
-1.47
-2.76
-3.03
-3.08
-3.67
-5.18
-7.63
-10.69
-14.04
-17.30
-20.17
-22.21
-22.88
-21.63
-18.15
-12.57
-5.57
1.69
7.99
12.30
14.18
13.79
11.81
9.12
6.50
4.42
2.91
1.70
0.40
-1.23
-3.10
-4.90
-6.24
-6.93
-7.00
-6.62
-5.96
-5.06
-3.89
-2.51
-1.26
-0.81
-1.86
-4.71
-8.85
-13.19
-16.39
-17.18
-14.75
-9.00
-0.64
9.06
18.75
27.27
33.57
36.91
37.17
35.07
31.92
29.10
27.62
27.90
29.82
32.20
33.31
31.87
27.92
22.85
18.74
17.54
20.45
27.40
35.97
41.93
40.81
29.65
7.85
-23.03
-60.07
-99.77
-134.22
-154.84
-157.15
-144.02
-122.75
-99.72
-78.08
-58.56
-41.13
-25.91
-14.03
-6.89
-4.90
-6.73
-9.85
-11.86
-11.43
-8.57
-4.19
-0.11
1.80
0.51
-3.61
-9.10
-14.12
-17.10
-16.78
-12.44
-4.49
5.56
15.64
24.06
30.04
33.76
36.10
38.09
40.46
43.19
45.70
47.32
47.72
46.87
44.92
42.00
38.39
34.56
31.12
28.53
26.76
25.26
23.19
19.91
15.52
10.79
6.84
4.25
2.89
1.86
0.07
-3.04
-7.09
-10.91
-13.31
-13.71
-12.70
-11.68
-11.92
-13.74
-16.09
-17.10
-15.17
-9.98
-2.82
3.97
8.31
9.40
7.93
5.49
3.54
2.61
2.11
0.80
-2.33
-7.37
-13.45
-19.20
-23.38
-25.42
-25.61
-24.90
-24.34
-24.57
-25.50
-26.46
-26.63
-25.56
-23.59
-21.91
-21.96
-24.73
-30.09
-36.72
-42.61
-45.91
-45.65
-41.98
-35.73
-27.79
-18.89
-9.75
-0.84
7.28
13.59
16.61
14.99
8.43
-1.87
-13.42
-23.28
-29.28
-31.04
-30.10
-29.00
-29.81
-32.99
-36.99
-39.09
-36.66
-28.70
-16.42
-2.79
8.86
16.51
20.19
21.88
24.19
29.02
36.62
45.77
54.79
62.73
69.96
77.87
87.81
99.83
112.22
121.97
126.13
123.25
113.93
100.54
86.08
72.65
60.69
49.13
36.45
21.90
6.22
-8.50
-19.83
-26.27
-28.09
-27.16
-26.02
-26.59
-29.43
-33.72
-37.96
-40.97
-42.43
-42.85
-42.85
-42.45
-40.87
-36.80
-29.26
-18.33
-5.39
7.29
17.44
23.72
26.18
26.00
24.81
23.72
22.85
21.43
18.63
14.12
8.45
2.92
-1.16
-3.21
-3.73
-3.92
-4.88
-6.87
-9.50
-12.04
-13.98
-15.50
-17.60
-21.48
-27.55
-34.75
-40.44
-41.82
-37.14
-26.46
-11.76
3.72
16.93
26.36
32.53
37.80
44.06
51.80
60.23
68.01
73.77
76.70
76.82
74.70
71.48
67.23
61.12
52.25
40.08
24.23
4.56
-18.52
-46.29
-73.63
-93.13
-100.88
-97.83
-87.12
-71.85
-54.33
-36.26
-18.98
-3.27
9.55
18.27
22.94
24.95
26.15
27.59
28.96
28.79
25.82
18.90
7.93
-5.62
-19.25
-30.75
-39.15
-44.65
-48.04
-49.67
-49.74
-48.35
-45.61
-41.84
-37.79
-34.38
-32.19
-31.11
-30.61
-29.65
-27.66
-24.51
-20.38
-15.63
-10.58
-5.44
-0.21
5.20
10.70
15.82
19.86
22.21
22.52
20.85
17.58
13.32
8.70
4.35
0.61
-2.41
-4.53
-5.55
-5.41
-4.34
-2.79
-1.51
-0.95
-1.47
-3.34
-6.23
-9.49
-12.66
-15.66
-18.83
-23.09
-28.65
-35.45
-43.08
-50.01
-54.05
-53.36
-47.32
-36.87
-24.70
-13.18
-4.34
0.74
3.18
5.73
11.10
20.94
35.60
53.98
75.60
99.63
119.40
127.91
121.82
103.54
79.10
59.01
44.24
34.59
29.29
27.14
25.92
24.66
22.52
18.83
13.54
6.81
0.56
-3.41
-4.28
-1.81
3.76
11.56
20.47
29.58
37.81
45.00
50.76
54.17
54.53
51.89
47.01
41.13
35.72
31.53
28.78
26.45
22.45
14.48
0.95
-18.67
-43.40
-70.84
-97.78
-120.76
-137.21
-146.16
-148.28
-145.31
-139.26
-131.45
-122.09
-110.62
-96.54
-79.85
-61.04
-41.02
-20.87
-1.58
15.86
30.58
41.88
48.81
51.16
49.92
46.98
44.19
42.70
42.38
42.43
41.95
39.45
34.36
27.65
21.14
16.24
13.39
11.53
9.12
4.67
-4.08
-18.28
-36.99
-57.67
-77.56
-94.18
-106.31
-113.21
-107.16
-85.77
-54.57
-23.38
0.76
14.48
21.76
25.97
29.20
32.16
34.01
33.50
30.60
26.51
22.63
20.05
18.54
17.61
16.88
15.25
12.06
7.66
2.87
-1.83
-6.28
-10.94
-15.79
-20.36
-24.56
-28.22
-30.67
-30.91
-28.18
-22.12
-13.25
-2.55
8.68
18.72
26.15
30.46
31.99
31.65
30.50
29.21
27.99
26.66
24.69
21.71
17.82
13.57
9.68
6.68
4.63
3.18
1.84
0.22
-1.87
-4.50
-7.78
-11.99
-17.50
-24.31
-31.69
-37.97
-41.04
-39.08
-31.39
-18.92
-4.03
10.44
22.20
30.43
35.85
40.24
45.51
52.82
61.99
71.47
78.79
81.40
77.63
67.36
52.25
35.09
18.85
5.56
-4.16
-10.89
-15.69
-19.47
-22.68
-25.61
-28.65
-32.29
-36.72
-41.27
-44.38
-44.09
-38.86
-28.40
-13.82
2.67
18.62
31.95
41.37
46.34
47.05
44.14
38.64
31.79
24.83
18.73
14.06
10.88
8.81
7.19
5.24
2.37
-1.70
-6.78
-12.35
-17.70
-22.26
-25.82
-28.68
-31.49
-34.93
-39.24
-43.97
-47.96
-49.77
-48.23
-42.98
-34.59
-24.31
-13.51
-3.37
5.43
12.51
17.65
20.55
21.00
19.02
14.99
9.72
4.15
-0.80
-4.59
-7.07
-8.44
-9.12
-9.53
-10.03
-10.96
-12.58
-15.12
-18.69
-23.17
-28.23
-33.34
-37.75
-40.58
-40.88
-37.88
-31.24
-21.28
-8.96
4.49
17.96
30.86
43.02
54.38
64.42
72.08
76.22
76.33
73.05
68.10
63.53
60.70
59.68
59.32
58.06
54.80
49.47
42.92
36.37
30.65
25.75
21.02
15.74
9.69
3.27
-2.95
-8.75
-14.60
-21.27
-28.99
-36.75
-42.40
-43.56
-38.96
-29.24
-16.85
-4.98
3.89
8.82
10.42
9.97
8.58
6.79
4.57
1.88
-1.13
-4.04
-6.34
-7.74
-8.26
-8.27
-8.27
-8.77
-10.10
-12.25
-14.96
-17.80
-20.42
-22.84
-25.35
-28.36
-31.98
-35.72
-38.47
-38.92
-36.03
-29.58
-20.30
-9.71
0.46
8.83
14.68
18.07
19.54
19.80
19.40
18.56
17.25
15.36
12.90
10.10
7.37
5.11
3.46
2.26
1.08
-0.50
-2.61
-5.09
-7.49
-9.46
-11.02
-12.63
-15.02
-18.65
-23.36
-28.23
-31.82
-32.77
-30.40
-24.95
-17.47
-9.30
-1.65
4.71
9.37
12.18
13.05
12.03
9.40
5.68
1.55
-2.44
-6.04
-9.33
-12.57
-15.94
-19.39
-22.66
-25.34
-27.08
-27.65
-27.02
-25.47
-23.68
-22.58
-23.03
-25.36
-29.05
-32.77
-34.82
-33.81
-29.21
-21.57
-12.20
-2.68
5.65
12.04
16.55
19.97
23.48
27.89
32.93
37.06
38.08
34.41
26.21
15.58
5.53
-1.64
-5.46
-7.16
-8.45
-10.16
-11.80
-12.43
-11.85
-11.30
-12.95
-18.38
-27.26
-37.22
-45.03
-48.15
-45.83
-39.12
-30.04
-20.47
-11.60
-3.86
2.77
8.44
13.18
16.88
19.35
20.29
19.51
17.08
13.44
9.30
5.42
2.37
0.31
-0.95
-1.73
-2.21
-2.30
-1.85
-0.88
0.12
0.36
-0.97
-4.12
-8.53
-12.90
-15.61
-15.41
-11.91
-5.67
2.16
10.34
17.98
24.63
30.03
33.89
35.77
35.36
32.78
28.74
24.38
20.74
18.28
16.63
14.91
12.32
8.66
4.49
0.83
-1.48
-2.29
-2.22
-2.33
-3.56
-6.39
-10.72
-16.12
-21.99
-27.55
-31.69
-33.02
-30.24
-22.91
-12.03
0.06
10.46
16.89
18.60
16.52
12.54
8.55
5.56
3.61
2.13
0.62
-0.97
-2.21
-2.57
-1.79
-0.11
1.81
3.18
3.43
2.45
0.64
-1.36
-3.06
-4.47
-6.08
-8.50
-12.01
-16.20
-20.03
-22.12
-21.47
-17.82
-11.69
-3.99
4.35
12.52
19.82
25.37
28.29
27.94
24.39
18.65
12.37
7.11
3.66
1.68
0.19
-1.75
-4.26
-6.49
-7.19
-5.50
-1.64
3.10
6.93
8.29
6.44
1.57
-5.50
-13.54
-21.08
-26.24
-27.00
-21.91
-11.09
3.21
17.05
26.34
28.69
24.59
17.04
9.88
5.83
5.32
6.74
7.86
7.30
5.22
2.87
1.55
1.65
2.51
2.90
1.83
-0.97
-4.92
-8.93
-12.05
-13.89
-14.77
-15.42
-16.48
-18.03
-19.35
-19.28
-16.67
-10.97
-2.58
7.27
16.88
24.65
29.54
31.36
30.70
28.61
26.11
23.84
21.87
19.95
17.76
15.28
12.82
10.82
9.61
9.15
9.03
8.70
7.76
6.13
4.06
1.97
0.22
-1.05
-1.95
-2.68
-3.29
-3.51
-2.69
0.00
5.25
13.16
23.00
33.31
42.25
48.15
50.16
48.56
44.68
40.40
37.31
36.10
36.16
35.97
33.92
29.05
21.60
12.66
3.33
-5.83
-14.64
-22.45
-27.67
-28.40
-24.04
-16.63
-10.60
-10.58
-18.37
-31.37
-43.55
-48.77
-44.27
-32.22
-18.18
-7.70
-3.33
-3.82
-5.82
-6.47
-5.12
-3.12
-2.44
-4.11
-7.78
-11.83
-14.23
-13.61
-10.06
-5.41
-2.63
-4.58
-12.42
-24.71
-37.79
-47.45
-50.93
-48.16
-41.44
-33.84
-27.43
-22.32
-17.13
-10.35
-1.56
8.18
16.93
22.94
25.42
24.74
22.14
19.07
16.63
15.26
14.68
14.30
13.54
12.23
10.68
9.48
9.11
9.72
10.95
12.14
12.63
12.07
10.53
8.44
6.48
5.31
5.49
7.35
10.91
15.93
21.95
28.38
34.67
40.34
45.02
48.43
50.47
51.26
51.07
50.17
48.55
45.76
41.05
33.79
23.93
12.22
0.05
-10.85
-18.92
-23.10
-23.16
-19.95
-15.41
-12.17
-12.56
-17.56
-26.05
-35.03
-40.93
-41.13
-35.25
-25.14
-13.84
-3.91
3.67
9.52
15.07
21.30
27.96
33.69
36.83
36.25
32.05
25.41
17.71
9.73
1.52
-6.85
-14.48
-19.59
-20.76
-18.41
-15.47
-16.19
-23.74
-37.92
-54.75
-68.32
-73.94
-70.54
-60.87
-49.51
-40.06
-33.46
-28.28
-22.43
-15.02
-6.98
-0.36
3.14
3.03
0.36
-2.82
-4.60
-4.03
-1.55
1.34
2.94
2.32
-0.21
-3.16
-4.73
-3.77
-0.41
3.91
7.26
8.20
6.47
3.08
-0.14
-1.41
0.24
4.76
11.23
18.43
25.30
31.28
36.27
40.38
43.61
45.71
46.26
44.95
41.87
37.55
32.73
28.15
24.19
20.87
17.92
15.01
11.93
8.68
5.64
3.58
3.51
6.26
11.94
19.71
27.96
34.99
39.73
42.02
42.23
40.70
37.24
31.37
22.92
12.58
1.84
-7.76
-15.55
-22.19
-29.16
-37.68
-47.80
-58.20
-66.98
-72.79
-75.58
-76.41
-76.56
-76.38
-74.91
-70.31
-61.03
-46.99
-30.02
-13.28
0.00
7.91
10.50
9.49
7.27
5.80
5.94
7.48
9.73
12.22
14.95
18.25
22.43
27.28
31.96
35.26
36.12
34.15
29.91
24.61
19.70
16.19
14.31
13.53
12.91
11.66
9.53
6.82
4.21
2.24
0.98
-0.06
-1.71
-4.62
-8.82
-13.62
-17.76
-19.91
-19.20
-15.56
-9.74
-2.92
3.70
9.33
13.67
16.80
18.83
19.76
19.44
17.78
14.94
11.37
7.75
4.63
2.19
0.20
-1.92
-4.64
-8.10
-12.02
-15.87
-19.22
-22.12
-24.99
-28.42
-32.59
-37.00
-40.41
-41.37
-38.85
-32.84
-24.46
-15.48
-7.52
-1.47
2.75
5.86
8.56
11.05
12.88
13.33
11.95
8.96
5.21
1.78
-0.55
-1.67
-2.16
-2.88
-4.49
-7.12
-10.41
-13.74
-16.66
-19.19
-21.70
-24.61
-27.88
-30.82
-32.12
-30.43
-24.90
-15.76
-4.37
7.19
16.88
23.43
26.67
27.39
26.77
25.73
24.59
23.12
20.88
17.73
13.96
10.18
7.00
4.61
2.71
0.69
-2.00
-5.51
-9.57
-13.62
-17.21
-20.23
-22.92
-25.55
-28.09
-29.92
-29.95
-27.08
-20.70
-11.23
-0.05
10.88
19.72
25.35
27.65
27.35
25.58
23.30
20.98
18.54
15.74
12.46
8.98
5.90
3.84
3.04
3.26
3.76
3.75
2.69
0.60
-2.13
-5.01
-7.80
-10.64
-13.88
-17.62
-21.39
-24.12
-24.44
-21.38
-14.87
-5.95
3.58
11.84
17.61
20.67
21.66
21.58
21.17
20.56
19.40
17.29
14.21
10.68
7.60
5.71
5.19
5.52
5.81
5.29
3.74
1.53
-0.68
-2.43
-3.79
-5.33
-7.67
-10.92
-14.41
-16.83
-16.72
-13.18
-6.30
2.80
12.33
20.59
26.47
29.75
30.96
30.93
30.29
29.23
27.49
24.80
21.17
17.10
13.42
10.89
9.81
9.78
10.02
9.71
8.47
6.45
4.11
1.84
-0.38
-2.90
-6.06
-9.64
-12.65
-13.55
-10.94
-4.25
5.76
17.23
27.86
35.85
40.49
42.17
41.98
40.97
39.72
38.11
35.64
31.85
26.57
20.06
12.84
5.49
-1.55
-8.08
-14.07
-19.59
-24.75
-29.68
-34.51
-39.35
-44.28
-49.19
-53.69
-57.13
-58.69
-57.66
-53.73
-47.06
-38.37
-28.71
-19.21
-10.87
-4.40
-0.18
1.75
1.61
-0.14
-2.93
-6.18
-9.37
-12.10
-14.16
-15.55
-16.48
-17.39
-18.79
-21.16
-24.71
-29.24
-34.22
-38.83
-42.21
-43.66
-42.78
-39.51
-34.06
-26.80
-18.18
-8.67
1.23
10.92
19.62
26.53
30.95
32.54
31.52
28.62
24.78
20.83
17.12
13.53
9.68
5.26
0.27
-4.95
-9.84
-14.00
-17.37
-20.29
-23.30
-26.75
-30.54
-33.97
-35.88
-35.13
-31.04
-23.68
-13.88
-2.86
8.18
18.44
27.53
35.25
41.32
45.30
46.72
45.38
41.58
36.09
29.94
23.95
18.53
13.64
9.04
4.55
0.25
-3.56
-6.57
-8.82
-10.77
-13.22
-16.96
-22.25
-28.58
-34.62
-38.69
-39.35
-35.98
-28.99
-19.54
-9.03
1.38
11.08
19.82
27.39
33.37
37.16
38.31
36.83
33.36
29.00
24.81
21.39
18.67
16.08
12.99
9.13
4.78
0.62
-2.69
-4.92
-6.52
-8.41
-11.55
-16.42
-22.70
-29.27
-34.61
-37.40
-36.91
-33.20
-26.86
-18.65
-9.27
0.79
11.08
20.90
29.27
35.12
37.69
36.94
33.63
29.11
24.75
21.37
18.94
16.81
14.14
10.53
6.16
1.77
-1.82
-4.23
-5.70
-7.06
-9.20
-12.74
-17.68
-23.44
-29.08
-33.65
-36.38
-36.84
-34.81
-30.23
-23.23
-14.13
-3.62
7.26
17.18
24.90
29.57
31.02
29.83
27.02
23.66
20.45
17.49
14.43
10.84
6.55
1.89
-2.46
-5.88
-8.13
-9.58
-11.03
-13.31
-16.89
-21.73
-27.28
-32.84
-37.77
-41.57
-43.84
-44.11
-41.81
-36.50
-28.05
-16.95
-4.27
8.46
19.67
28.16
33.40
35.57
35.36
33.62
31.02
27.88
24.19
19.93
15.20
10.40
6.07
2.66
0.23
-1.60
-3.53
-6.28
-10.26
-15.52
-21.68
-28.15
-34.21
-39.13
-42.24
-42.88
-40.55
-34.99
-26.39
-15.41
-3.11
9.16
20.12
28.84
34.93
38.50
40.08
40.22
39.31
37.45
34.64
31.03
27.08
23.45
20.72
19.03
17.89
16.37
13.56
9.02
2.92
-4.20
-11.72
-19.36
-27.04
-34.63
-41.66
-47.15
-49.92
-49.07
-44.35
-36.29
-26.00
-14.76
-3.81
5.77
13.07
17.38
18.55
17.35
15.52
15.29
18.48
25.57
35.39
45.57
53.62
57.94
58.30
55.46
50.38
43.48
34.57
23.17
9.21
-6.70
-23.31
-39.10
-52.67
-62.99
-69.34
-71.35
-69.07
-63.00
-54.18
-43.93
-33.62
-24.23
-16.14
-9.18
-2.71
4.00
11.54
20.11
29.40
38.71
47.10
53.64
57.62
58.61
56.44
51.25
43.46
33.89
23.71
14.21
6.41
0.67
-3.54
-7.45
-12.45
-19.37
-27.95
-36.76
-43.73
-46.91
-45.22
-38.89
-29.20
-17.93
-6.67
3.62
12.58
20.13
26.03
29.78
30.85
29.07
24.93
19.61
14.62
11.16
9.61
9.32
9.03
7.51
4.16
-0.73
-6.14
-10.82
-14.00
-15.84
-17.40
-20.01
-24.57
-31.09
-38.69
-45.93
-51.23
-53.46
-52.36
-48.42
-42.52
-35.38
-27.34
-18.47
-8.92
0.99
10.57
18.80
24.80
28.41
30.35
32.96
37.41
42.39
44.96
42.67
35.09
23.83
11.61
1.15
-5.86
-9.16
-9.76
-8.76
-7.05
-5.18
-3.53
-2.68
-3.58
-8.19
-16.76
-28.62
-41.02
-49.18
-47.69
-32.96
-5.27
30.68
67.34
97.09
114.66
118.79
111.85
98.29
82.78
68.83
58.26
50.87
45.73
40.60
33.02
21.07
3.95
-18.21
-44.85
-75.34
-108.61
-141.99
-171.15
-190.91
-197.93
-193.02
-181.15
-168.37
-157.64
-146.54
-128.79
-99.09
-57.72
-11.78
28.17
53.95
64.36
65.36
65.90
72.36
84.99
98.71
107.09
106.87
99.83
91.29
86.63
88.04
93.29
97.19
94.66
83.50
65.63
46.11
30.56
22.36
21.07
22.74
22.01
14.88
0.72
-17.33
-33.89
-43.84
-44.53
-36.76
-24.00
-10.43
0.93
9.24
15.47
21.12
26.83
31.84
34.49
33.53
29.12
23.04
17.92
15.93
17.65
21.95
26.68
30.08
31.66
32.39
33.85
37.14
41.95
46.48
48.16
44.83
35.72
21.73
5.04
-11.82
-27.03
-39.95
-50.93
-60.52
-68.78
-74.85
-77.34
-75.10
-68.27
-58.78
-50.04
-45.70
-48.09
-57.06
-69.74
-81.60
-88.38
-87.76
-80.11
-67.89
-54.27
-41.69
-31.50
-24.47
-21.84
-25.57
-37.61
-58.39
-85.37
-113.53
-136.31
-148.31
-147.39
-135.57
-117.79
-99.55
-84.53
-73.25
-63.74
-52.57
-36.98
-16.09
9.02
36.32
63.82
90.13
114.49
135.11
149.59
154.73
147.27
124.84
86.90
35.41
-24.64
-84.74
-136.74
-172.49
-187.27
-181.27
-159.25
-128.49
-95.72
-64.88
-35.24
-8.22
15.82
34.92
46.47
49.28
45.13
38.60
34.91
39.81
49.96
62.01
71.99
77.62
79.53
80.29
82.65
87.94
99.21
111.44
123.67
135.32
145.47
151.91
151.47
142.06
103.48
69.42
44.43
35.76
45.24
67.93
94.16
114.03
121.78
117.59
109.57
99.59
91.09
84.04
76.08
64.82
49.68
32.37
15.74
4.94
-1.88
-5.28
-7.00
-8.91
-12.32
-17.54
-24.04
-30.78
-34.96
-37.76
-39.28
-40.42
-42.46
-46.41
-52.31
-58.95
-64.17
-64.75
-60.21
-50.92
-38.83
-26.48
-15.94
-8.09
-2.53
1.72
6.01
10.13
13.21
14.05
12.01
7.47
1.61
-4.09
-8.63
-11.20
-12.05
-12.09
-11.90
-10.89
-7.44
0.04
11.86
26.25
40.83
52.36
58.15
57.55
52.70
47.38
45.11
47.51
53.66
62.27
70.99
77.28
79.47
77.39
71.80
63.37
52.25
29.76
-5.72
-47.90
-86.69
-115.07
-131.26
-137.21
-137.37
-135.02
-131.83
-126.89
-119.33
-109.40
-98.49
-87.93
-79.20
-73.11
-69.40
-67.02
-63.42
-56.90
-47.51
-36.85
-26.87
-18.92
-13.13
-8.48
-3.52
3.52
13.04
23.86
33.96
41.80
46.87
49.54
50.63
50.89
51.38
53.19
57.25
63.86
72.10
79.68
83.62
81.60
73.13
59.92
44.83
30.35
17.57
6.29
-3.89
-12.58
-18.33
-19.49
-15.44
-7.33
2.21
10.30
15.03
16.17
14.92
12.93
11.35
10.36
9.33
7.46
4.35
0.30
-3.95
-7.65
-10.44
-12.49
-14.28
-16.24
-18.44
-20.62
-22.47
-24.02
-25.71
-28.16
-31.76
-36.31
-40.83
-43.86
-44.02
-40.60
-33.90
-24.98
-15.17
-5.58
3.11
10.61
16.79
21.58
24.93
26.84
27.61
27.85
28.26
29.24
30.76
32.40
33.69
34.37
34.09
32.90
31.34
30.19
29.99
30.77
32.03
32.93
32.55
29.25
22.25
12.39
1.75
-7.33
-13.21
-15.23
-13.67
-9.53
-5.67
-4.54
-7.28
-13.99
-24.53
-38.85
-56.57
-76.46
-96.50
-116.62
-136.79
-156.40
-174.52
-190.40
-203.93
-215.24
-224.43
-219.12
-193.56
-152.12
-106.35
-66.11
-34.97
-12.12
4.88
18.49
30.40
39.18
43.01
41.75
36.65
30.00
24.17
21.36
23.12
30.19
40.81
53.29
67.29
82.16
97.50
112.25
124.82
133.77
138.29
137.55
131.77
122.28
110.92
99.27
87.86
76.23
63.50
49.02
32.52
15.06
-1.00
-12.92
-18.79
-18.57
-13.86
-6.99
0.10
6.36
11.79
16.83
21.46
24.95
26.00
23.65
18.05
10.67
3.79
-0.63
-1.88
-0.89
0.45
0.32
-2.09
-6.20
-10.53
-13.65
-15.13
-15.81
-17.25
-20.69
-26.20
-32.51
-37.50
-39.30
-37.15
-31.67
-24.48
-17.25
-11.05
-6.02
-1.76
2.12
5.49
7.65
7.72
5.26
0.69
-4.86
-9.98
-13.63
-15.71
-17.05
-18.94
-22.31
-27.23
-32.79
-37.61
-40.66
-41.97
-42.67
-44.40
-48.21
-53.73
-59.06
-61.43
-58.45
-49.25
-34.91
-17.91
-0.99
13.95
26.50
37.46
48.06
58.91
69.62
79.02
85.94
90.10
92.41
94.53
97.72
101.75
104.55
103.15
95.30
80.85
62.06
42.50
25.20
11.06
-1.33
-14.39
-29.65
-46.33
-61.47
-71.39
-73.72
-68.62
-58.77
-48.04
-39.67
-35.22
-34.55
-36.61
-40.49
-45.90
-52.67
-59.68
-64.34
-63.25
-53.99
-36.86
-15.50
4.28
17.17
20.86
17.12
10.66
6.42
7.08
11.80
17.02
18.63
14.26
4.50
-7.55
-17.68
-22.43
-20.45
-12.76
-2.08
8.46
16.70
22.12
25.59
28.57
31.94
35.40
37.60
36.97
32.82
25.84
17.97
11.52
8.03
7.49
8.43
8.69
6.70
2.25
-3.43
-8.44
-11.37
-12.23
-12.49
-14.20
-18.73
-25.70
-32.96
-37.39
-36.46
-29.45
-17.81
-4.49
7.48
16.17
21.34
24.07
25.75
27.17
28.03
27.35
24.34
19.09
12.72
7.01
3.41
2.26
2.68
2.97
1.66
-1.72
-6.47
-11.13
-14.41
-16.04
-16.91
-18.55
-22.08
-27.40
-32.96
-36.40
-35.59
-29.83
-20.17
-8.96
1.30
9.05
14.16
17.69
20.87
24.23
27.20
28.57
27.42
23.86
19.20
15.30
13.64
14.40
16.37
17.63
16.60
12.93
7.64
2.70
-0.13
-0.27
1.29
2.49
1.29
-3.12
-9.85
-16.56
-20.57
-20.23
-15.53
-8.01
0.26
7.74
14.01
19.61
25.18
30.73
35.36
37.87
37.56
34.81
31.04
27.98
26.67
26.88
27.32
26.46
23.60
19.31
15.11
12.58
12.32
13.43
13.96
11.95
6.52
-1.65
-10.74
-18.71
-24.41
-28.06
-31.07
-35.17
-41.54
-50.17
-59.87
-68.69
-74.59
-76.22
-73.46
-67.52
-60.66
-55.48
-53.81
-55.67
-59.07
-60.71
-57.49
-47.90
-32.71
-14.43
3.97
20.45
34.41
46.17
55.98
63.30
66.83
65.34
58.64
48.02
35.74
24.02
14.19
6.42
0.23
-4.88
-9.00
-11.80
-13.06
-13.14
-13.17
-14.69
-18.96
-26.33
-35.99
-46.15
-54.76
-60.44
-63.11
-63.87
-64.11
-64.35
-63.46
-58.92
-48.11
-30.15
-6.86
17.62
38.61
52.77
59.35
59.91
56.91
52.27
46.79
40.55
33.98
28.35
25.49
26.89
32.63
41.08
49.45
55.01
56.17
52.97
46.89
40.03
34.16
29.99
27.06
24.20
20.35
15.20
9.43
4.39
1.24
0.24
0.55
0.68
-0.70
-4.03
-8.72
-13.52
-17.35
-19.90
-21.72
-23.58
-25.75
-27.56
-27.61
-24.46
-17.49
-7.42
3.88
14.13
21.61
25.76
27.21
27.31
27.30
27.63
27.81
26.86
24.06
19.57
14.46
10.27
8.13
8.07
8.92
9.00
7.01
2.84
-2.38
-6.88
-9.37
-9.82
-9.60
-10.61
-14.12
-19.80
-25.73
-29.24
-28.26
-22.50
-13.57
-4.13
3.41
8.03
10.28
11.64
13.47
16.02
18.37
19.11
17.32
13.26
8.35
4.52
3.12
4.20
6.49
8.14
7.77
5.19
1.51
-1.52
-2.52
-1.22
1.37
3.59
4.08
2.44
-0.57
-3.42
-4.52
-2.93
1.43
8.05
16.17
25.15
34.40
43.14
50.08
53.40
51.27
42.68
28.16
9.82
-9.33
-26.55
-40.55
-51.92
-62.58
-74.63
-89.01
-104.85
-119.71
-130.49
-134.85
-132.28
-124.35
-114.24
-105.49
-100.67
-100.26
-102.28
-102.90
-97.96
-84.66
-62.69
-34.31
-3.38
26.15
51.48
71.31
85.49
94.33
98.15
97.34
92.71
85.72
78.29
72.02
67.42
63.65
59.01
51.94
41.94
29.91
17.81
7.64
0.50
-3.79
-6.45
-8.89
-12.00
-15.84
-19.84
-23.39
-26.27
-28.63
-30.49
-31.37
-30.15
-25.50
-16.60
-3.76
11.39
26.42
39.04
47.95
53.17
55.86
57.53
59.18
60.83
61.66
60.70
57.64
53.14
48.66
45.76
45.17
46.35
47.76
47.71
45.34
41.03
36.14
32.11
29.46
27.34
23.93
17.49
7.54
-4.68
-16.52
-25.09
-28.59
-27.09
-22.50
-17.48
-14.29
-13.92
-15.96
-19.17
-22.50
-25.72
-29.48
-34.75
-42.04
-50.90
-59.98
-67.59
-72.60
-75.01
-75.95
-77.01
-79.38
-83.14
-87.25
-90.09
-90.46
-88.40
-85.29
-83.12
-83.34
-85.92
-89.20
-90.52
-87.44
-78.66
-64.19
-44.83
-21.44
5.32
34.72
65.36
94.72
119.47
136.48
144.05
142.71
134.97
124.40
114.14
105.87
99.47
93.52
86.39
77.24
66.45
55.35
45.44
37.44
30.83
24.08
15.53
4.32
-9.06
-22.95
-35.25
-44.46
-50.23
-53.34
-54.99
-55.97
-56.22
-54.99
-51.49
-45.74
-38.95
-33.24
-30.54
-31.67
-35.83
-40.97
-44.79
-45.97
-44.73
-42.54
-41.00
-40.71
-40.71
-38.83
-32.90
-22.08
-7.53
7.96
21.24
30.22
34.66
35.94
36.16
36.83
38.26
39.69
40.18
39.53
38.58
38.85
41.60
46.92
53.45
58.88
61.01
58.82
52.95
45.38
38.48
33.89
31.75
30.91
29.72
27.11
23.23
19.38
17.21
17.69
20.45
23.90
26.14
25.96
23.40
19.68
16.39
14.49
13.73
12.97
11.02
7.66
3.98
1.91
3.23
8.36
15.93
23.25
27.61
27.55
23.44
17.19
11.13
6.81
4.23
2.21
-0.73
-5.33
-11.18
-17.02
-21.56
-24.28
-25.77
-27.24
-29.72
-33.36
-37.37
-40.50
-41.85
-41.57
-40.91
-41.58
-44.80
-50.41
-56.75
-61.23
-61.44
-56.25
-46.44
-34.26
-22.50
-13.18
-6.87
-2.75
0.61
4.16
7.79
10.46
11.02
9.08
5.38
1.54
-0.86
-1.04
0.43
2.08
2.38
0.60
-2.80
-6.51
-9.13
-10.14
-10.25
-11.07
-14.15
-20.01
-27.68
-34.93
-39.32
-39.25
-34.64
-26.81
-17.71
-8.93
-1.20
5.61
11.96
17.95
22.95
25.89
25.88
22.81
17.60
11.89
7.26
4.51
3.24
2.19
-0.01
-4.04
-9.47
-15.05
-19.42
-21.94
-23.18
-24.64
-27.93
-33.86
-41.98
-50.65
-57.68
-61.36
-61.05
-57.36
-51.60
-45.09
-38.56
-31.93
-24.76
-16.84
-8.65
-1.23
4.49
8.48
11.82
16.36
23.68
34.14
46.48
58.33
67.37
72.42
73.78
72.86
71.20
69.48
67.20
63.13
56.22
46.36
34.62
22.71
12.27
4.07
-2.11
-7.05
-11.27
-14.45
-15.55
-13.38
-7.46
1.39
11.09
19.15
23.67
24.13
21.46
17.57
14.39
13.00
13.29
14.16
14.22
12.65
9.53
5.86
2.92
1.50
1.40
1.53
0.56
-2.28
-6.67
-11.44
-15.20
-17.25
-18.06
-18.90
-20.97
-24.42
-28.09
-29.87
-27.85
-21.39
-11.55
-0.69
8.71
15.07
18.29
19.42
19.92
20.65
21.48
21.52
19.87
16.39
11.89
7.83
5.52
5.29
6.24
6.70
5.09
0.85
-5.37
-12.08
-17.91
-22.47
-26.64
-32.07
-40.06
-50.66
-62.34
-72.30
-77.59
-76.26
-68.17
-55.08
-39.88
-25.47
-13.92
-5.94
-1.20
0.84
0.36
-3.12
-10.17
-20.79
-33.84
-47.09
-57.95
-64.54
-66.47
-64.86
-61.50
-57.83
-54.14
-49.53
-42.71
-32.98
-20.91
-8.23
3.07
11.81
18.07
23.03
28.07
33.80
39.73
44.66
47.64
48.72
48.97
49.93
52.62
56.80
60.95
63.00
61.43
56.07
48.10
39.55
32.25
27.00
23.35
20.08
16.08
11.07
5.74
1.34
-1.11
-1.61
-1.22
-1.61
-4.10
-9.06
-15.71
-22.54
-28.06
-31.38
-32.44
-31.69
-29.51
-25.86
-20.29
-12.29
-1.84
10.21
22.19
32.12
38.41
40.52
39.09
35.66
32.03
29.37
27.89
26.81
25.06
21.94
17.62
13.04
9.40
7.41
6.77
6.35
4.80
1.27
-4.14
-10.46
-16.46
-21.37
-25.16
-28.31
-31.13
-33.20
-33.31
-30.00
-22.43
-11.05
2.32
15.18
25.30
31.64
34.46
34.97
34.55
33.98
33.20
31.66
28.88
24.92
20.53
16.78
14.48
13.71
13.70
13.17
11.10
7.28
2.46
-2.02
-5.02
-6.35
-7.01
-8.72
-12.88
-19.68
-27.70
-34.39
-37.22
-34.85
-27.77
-17.92
-7.67
1.26
8.40
14.30
19.80
25.14
29.62
32.00
31.32
27.60
22.03
16.46
12.52
10.75
10.45
10.09
8.26
4.44
-0.72
-5.80
-9.42
-11.10
-11.54
-12.22
-14.62
-19.41
-26.19
-33.68
-40.43
-45.40
-48.35
-49.54
-49.22
-47.30
-43.27
-36.54
-27.03
-15.63
-4.11
5.38
11.19
12.80
10.98
7.41
3.88
1.42
0.03
-1.12
-2.86
-5.32
-7.64
-8.23
-5.49
1.33
11.69
23.97
36.18
46.71
54.88
61.02
65.96
70.34
74.23
77.13
78.57
78.65
78.33
79.08
82.01
87.14
93.09
97.85
99.83
98.86
96.24
93.99
93.57
94.93
96.64
96.72
93.89
88.25
81.02
73.68
66.92
60.20
52.07
41.05
26.61
9.42
-8.83
-26.19
-41.28
-53.79
-64.47
-74.56
-85.01
-95.87
-106.09
-113.88
-117.45
-115.84
-109.32
-99.21
-87.16
-74.40
-61.36
-47.82
-33.56
-18.97
-5.31
5.83
13.17
16.51
16.74
15.40
13.84
12.54
11.04
8.46
4.29
-1.11
-6.59
-10.92
-13.64
-15.57
-18.46
-24.21
-33.74
-46.52
-60.80
-74.44
-86.01
-95.42
-103.81
-112.76
-123.25
-135.11
-146.87
-156.41
-161.93
-162.92
-160.74
-158.44
-159.90
-168.10
-183.27
-201.84
-216.86
-219.84
-203.63
-165.00
-105.87
-33.02
43.39
111.90
162.11
187.04
185.18
161.33
125.58
90.09
64.68
53.38
53.57
58.20
60.07
55.51
45.65
34.81
27.50
25.96
29.68
36.59
44.96
54.56
66.29
80.93
97.98
115.23
129.26
136.76
135.99
127.44
113.66
98.17
83.96
72.32
62.50
52.43
39.90
23.87
4.92
-15.00
-33.64
-49.43
-62.04
-72.34
-81.83
-91.87
-103.13
-115.28
-127.03
-136.52
-141.86
-141.85
-136.42
-126.49
-113.38
-97.96
-80.18
-59.16
-34.15
-5.38
25.41
55.48
82.12
103.70
119.96
131.53
138.99
142.17
140.26
132.64
119.82
103.77
87.48
73.81
64.33
58.74
55.20
51.36
45.60
37.71
28.76
20.40
13.85
9.22
5.52
1.39
-4.01
-10.28
-15.93
-18.93
-17.88
-12.72
-4.90
3.25
9.68
13.44
15.03
15.85
17.29
19.82
22.66
24.32
23.56
20.20
15.37
11.00
8.74
9.02
10.78
12.03
10.98
7.01
0.94
-5.44
-10.45
-13.45
-15.17
-17.15
-20.94
-27.19
-35.46
-44.45
-52.75
-59.38
-64.05
-66.91
-68.18
-67.92
-66.09
-62.85
-58.81
-55.09
-52.96
-53.29
-55.98
-59.92
-63.20
-63.77
-60.17
-52.13
-40.64
-27.63
-15.03
-3.94
5.96
16.31
28.99
44.91
63.00
80.43
93.74
100.43
100.21
95.06
88.07
81.84
77.44
74.40
71.75
69.19
67.60
68.70
73.88
83.22
95.20
107.24
116.76
122.16
123.16
120.60
115.62
108.83
100.06
88.60
73.92
56.31
37.07
18.08
0.84
-14.30
-28.35
-42.98
-59.38
-77.35
-95.29
-110.93
-122.65
-130.35
-135.27
-139.00
-142.25
-144.28
-143.27
-137.42
-126.21
-110.94
-94.23
-78.94
-66.97
-58.71
-53.23
-49.01
-44.82
-40.27
-35.79
-32.18
-29.94
-28.98
-28.69
-28.41
-27.96
-27.81
-28.72
-31.05
-34.13
-36.36
-35.76
-31.05
-22.43
-11.79
-1.95
4.49
6.29
3.93
-0.76
-5.41
-8.11
-7.94
-4.94
0.30
7.13
15.04
23.61
32.18
39.66
44.67
45.96
43.13
37.05
29.65
23.29
19.71
19.28
20.84
22.31
21.79
18.55
13.31
7.75
3.62
1.69
1.35
0.94
-1.26
-6.15
-13.41
-21.67
-29.26
-34.92
-38.25
-39.55
-39.35
-37.83
-34.73
-29.41
-21.33
-10.68
1.51
13.49
23.49
30.42
34.24
35.93
36.98
38.63
41.29
44.57
47.72
50.26
52.31
54.45
57.24
60.59
63.57
64.79
63.11
58.39
51.56
44.23
37.77
32.51
27.51
21.12
12.08
0.49
-11.90
-22.26
-27.77
-26.82
-19.80
-8.84
3.06
13.20
20.10
23.71
24.99
25.16
24.94
24.24
22.42
18.83
13.28
6.30
-1.13
-8.26
-14.96
-21.89
-30.02
-39.89
-51.14
-62.47
-72.26
-79.47
-84.31
-88.12
-92.60
-98.75
-106.08
-112.64
-115.88
-113.72
-105.55
-92.35
-76.09
-58.81
-41.87
-25.76
-10.49
3.77
16.37
26.31
32.92
36.51
38.57
41.22
46.21
53.85
62.64
69.84
72.73
70.00
62.32
52.04
42.05
34.42
29.46
25.90
21.66
15.19
6.39
-3.23
-11.15
-15.01
-13.56
-7.00
3.38
16.05
29.80
43.77
56.98
67.61
73.11
70.94
60.02
41.72
19.81
-0.76
-15.83
-23.59
-25.08
-23.27
-21.44
-21.57
-23.82
-26.90
-29.25
-30.09
-29.92
-30.13
-32.14
-36.63
-43.11
-50.21
-56.25
-59.99
-60.93
-59.21
-55.07
-48.53
-39.30
-27.12
-12.26
4.12
20.06
33.32
42.16
45.97
45.44
42.27
38.42
35.33
33.47
32.28
30.75
28.04
23.97
19.16
14.57
10.96
8.40
6.28
3.68
-0.13
-5.40
-11.86
-18.98
-26.27
-33.29
-39.61
-44.48
-46.88
-45.75
-40.52
-31.37
-19.47
-6.58
5.46
15.30
22.41
27.00
29.68
31.06
31.40
30.60
28.40
24.75
20.06
15.09
10.71
7.39
4.92
2.23
-2.08
-9.18
-19.35
-31.58
-43.74
-53.09
-57.29
-55.29
-47.81
-36.98
-25.54
-15.84
-9.13
-5.49
-4.21
-4.27
-4.62
-4.15
-1.65
3.99
13.32
25.84
39.81
52.72
62.11
66.48
65.52
59.83
50.32
37.89
23.42
8.04
-6.59
-18.50
-25.95
-28.09
-25.34
-19.34
-12.50
-7.21
-5.21
-7.13
-12.50
-19.97
-27.85
-34.45
-38.66
-39.96
-38.27
-33.66
-26.07
-15.41
-1.86
13.81
30.12
45.24
57.59
66.44
72.06
75.39
77.39
78.43
78.10
75.45
69.67
60.61
49.10
36.69
25.15
15.87
9.32
5.00
1.81
-1.25
-4.58
-7.89
-10.53
-12.21
-13.41
-15.34
-19.20
-25.23
-32.20
-37.71
-39.20
-35.20
-26.12
-14.09
-1.93
8.08
15.03
19.39
22.34
24.84
26.95
27.88
26.61
22.72
16.89
10.74
6.11
4.18
4.83
6.69
7.90
7.04
3.88
-0.61
-4.81
-7.37
-8.00
-7.55
-7.63
-9.66
-14.21
-20.76
-27.92
-34.05
-37.93
-39.07
-37.65
-34.12
-28.87
-21.97
-13.34
-3.04
8.36
19.64
29.18
35.52
37.88
36.56
32.85
28.53
25.03
22.89
21.59
20.16
17.74
14.21
10.24
6.86
4.71
3.68
2.91
1.34
-1.62
-5.83
-10.48
-14.70
-18.13
-21.16
-24.62
-29.08
-34.22
-38.74
-40.80
-38.85
-32.51
-22.81
-11.83
-1.79
5.84
10.70
13.40
14.88
15.69
15.74
14.45
11.39
6.75
1.39
-3.44
-6.80
-8.55
-9.46
-10.75
-13.40
-17.58
-22.58
-27.20
-30.48
-32.33
-33.61
-35.76
-39.94
-46.45
-54.45
-62.19
-67.74
-69.68
-67.62
-62.13
-54.32
-45.27
-35.71
-25.86
-15.84
-6.13
2.22
7.81
9.48
7.03
1.50
-5.16
-10.83
-14.26
-15.48
-15.62
-15.96
-17.15
-18.72
-19.42
-18.01
-14.05
-8.13
-1.65
3.94
7.67
9.24
8.94
7.36
5.07
2.62
0.58
-0.39
0.47
3.75
9.63
17.74
26.95
35.56
41.68
43.93
41.89
36.38
29.12
22.07
16.66
13.25
11.25
9.60
7.40
4.38
0.86
-2.63
-5.85
-9.16
-13.51
-20.02
-29.48
-41.90
-56.36
-71.23
-84.67
-95.19
-102.05
-105.31
-105.42
-103.07
-98.79
-92.78
-84.70
-73.40
-56.62
-31.22
5.81
55.53
115.20
177.89
233.79
273.36
290.62
285.27
262.06
228.34
190.96
154.23
119.82
88.02
59.10
33.93
13.32
-2.88
-16.21
-28.99
-43.13
-58.91
-74.75
-87.90
-95.60
-96.27
-90.08
-78.77
-64.89
-50.89
-38.48
-28.29
-20.06
-13.14
-6.99
-1.56
2.77
5.42
6.04
4.71
2.04
-1.12
-3.95
-5.94
-6.99
-7.34
-7.37
-7.39
-7.52
-7.75
-8.03
-8.38
-9.02
-10.35
-12.70
-16.07
-19.84
-22.77
-23.28
-20.07
-12.69
-1.98
10.17
21.40
29.80
34.42
35.51
34.11
31.35
27.84
23.59
18.27
11.75
4.44
-2.73
-8.78
-13.14
-15.93
-17.83
-19.55
-21.28
-22.54
-22.41
-20.27
-16.37
-12.14
-9.67
-10.76
-15.94
-24.07
-32.55
-38.41
-39.53
-35.47
-27.56
-18.07
-9.08
-1.53
4.94
11.51
19.11
27.63
35.72
41.44
43.08
39.99
32.78
22.82
11.66
0.65
-8.96
-15.53
-16.96
-11.38
1.79
20.70
40.99
56.98
63.79
59.23
44.68
24.30
3.17
-14.61
-27.11
-34.43
-37.72
-38.03
-35.72
-30.61
-22.61
-12.26
-0.86
9.81
18.19
23.64
26.62
28.44
30.62
34.15
39.01
44.20
48.22
49.81
48.57
45.03
40.40
35.87
32.02
28.61
24.85
19.95
13.66
6.41
-1.03
-8.08
-14.77
-21.71
-29.54
-38.27
-46.95
-53.84
-57.12
-55.66
-49.49
-39.72
-28.09
-16.26
-5.43
3.75
10.99
16.15
19.06
19.60
17.83
14.13
9.17
3.69
-1.66
-6.54
-10.99
-15.24
-19.48
-23.64
-27.42
-30.53
-33.00
-35.30
-38.16
-42.13
-47.18
-52.48
-56.75
-58.69
-57.51
-53.16
-46.29
-38.07
-30.03
-23.69
-20.07
-18.87
-17.77
-12.57
1.31
26.55
61.83
101.43
137.03
161.13
170.25
166.13
154.17
140.29
127.80
116.36
103.32
86.27
65.08
42.21
21.14
4.28
-8.33
-18.74
-29.58
-42.38
-56.74
-70.64
-81.67
-88.22
-90.20
-88.65
-85.09
-80.57
-75.33
-68.85
-60.56
-50.39
-39.19
-28.51
-20.00
-14.79
-12.96
-13.59
-15.31
-17.04
-18.51
-20.25
-22.95
-26.78
-30.96
-34.03
-34.63
-32.28
-27.73
-22.53
-18.27
-15.97
-15.96
-18.32
-23.46
-32.07
-44.19
-58.09
-69.68
-73.38
-64.29
-40.65
-5.21
35.48
73.57
103.11
122.05
132.16
137.05
139.64
140.52
138.17
130.54
116.91
98.75
79.09
61.07
46.35
34.65
24.21
13.16
0.70
-12.42
-24.47
-33.76
-39.61
-42.80
-45.14
-48.58
-54.09
-61.18
-67.98
-72.06
-71.53
-65.91
-56.29
-44.83
-33.72
-24.28
-16.58
-9.69
-2.46
5.61
13.97
21.29
26.20
28.20
27.98
27.34
28.23
31.74
37.52
43.85
48.48
49.70
47.19
42.08
36.31
31.63
28.75
27.12
25.41
22.19
16.63
8.93
0.31
-7.31
-11.69
-10.89
-3.79
9.37
26.83
45.70
62.62
74.81
80.92
81.72
79.96
79.64
84.68
97.53
118.02
143.28
168.54
188.84
200.95
204.47
201.73
196.61
192.51
190.70
189.83
186.66
177.69
160.95
137.11
109.36
82.08
58.78
40.21
23.94
5.18
-21.11
-58.21
-106.70
-165.06
-231.44
-304.90
-385.16
-470.62
-556.39
-633.61
-691.49
-721.25
-719.84
-691.47
-645.82
-593.95
-544.20
-500.16
-461.14
-424.62
-388.72
-353.31
-319.55
-288.63
-260.67
-234.66
-209.14
-183.14
-156.63
-130.61
-106.27
-84.31
-64.41
-45.30
-25.35
-3.26
21.40
48.07
75.56
102.68
128.82
154.15
179.67
206.84
237.03
270.84
307.36
343.81
375.92
399.11
409.96
407.58
393.83
372.53
347.86
322.89
298.97
276.02
253.48
231.11
209.16
188.06
168.03
148.96
130.71
113.52
98.15
85.57
76.49
70.95
68.26
67.35
67.14
66.88
66.16
64.75
62.48
59.19
54.86
49.70
44.13
38.62
33.48
28.78
24.34
19.96
15.51
11.13
7.04
3.49
0.51
-2.11
-4.85
-8.26
-12.74
-18.24
-24.16
-29.37
-32.54
-32.55
-28.88
-21.82
-12.30
-1.57
9.19
19.10
27.64
34.59
39.79
43.13
44.61
44.41
42.97
40.86
38.67
36.75
35.07
33.27
30.83
27.33
22.66
17.10
11.22
5.58
0.47
-4.29
-9.26
-15.02
-21.80
-29.14
-36.00
-41.04
-43.26
-42.40
-39.06
-34.33
-29.23
-24.32
-19.63
-14.89
-10.06
-5.50
-1.85
0.28
0.78
0.05
-1.22
-2.41
-3.33
-4.21
-5.49
-7.46
-10.11
-13.15
-16.20
-19.02
-21.66
-24.46
-27.89
-32.31
-37.82
-44.12
-50.46
-55.84
-59.26
-59.93
-57.52
-52.12
-44.19
-34.37
-23.40
-12.12
-1.41
7.79
14.75
19.05
20.79
20.52
19.00
16.93
14.68
12.32
9.67
6.62
3.22
-0.25
-3.48
-6.25
-8.65
-11.04
-13.96
-17.87
-22.95
-29.03
-35.62
-42.06
-47.72
-52.05
-54.57
-54.87
-52.58
-47.49
-39.71
-29.79
-18.69
-7.66
2.14
9.87
15.21
18.23
19.33
18.93
17.32
14.70
11.23
7.17
2.98
-0.83
-3.84
-5.92
-7.36
-8.73
-10.69
-13.66
-17.71
-22.58
-27.93
-33.51
-39.26
-45.06
-50.47
-54.64
-56.43
-54.88
-49.65
-41.25
-30.83
-19.67
-8.73
1.61
11.38
20.59
28.94
35.79
40.40
42.28
41.43
38.30
33.69
28.48
23.59
19.84
17.83
17.71
19.00
20.66
21.36
19.98
15.96
9.54
1.46
-7.21
-15.38
-22.00
-26.10
-26.83
-23.69
-16.85
-7.17
3.94
14.98
24.77
32.78
38.97
43.65
47.12
49.60
51.22
52.13
52.58
52.82
53.07
53.39
53.67
53.70
53.24
52.08
50.16
47.47
44.12
40.19
35.76
30.83
25.31
19.19
12.65
6.14
0.40
-3.74
-5.61
-4.95
-2.09
2.22
7.09
11.80
15.96
19.49
22.43
24.68
25.97
25.98
24.57
21.92
18.54
15.07
11.99
9.43
7.21
4.96
2.44
-0.34
-3.10
-5.50
-7.38
-8.86
-10.39
-12.53
-15.68
-19.87
-24.62
-29.07
-32.19
-33.15
-31.59
-27.66
-21.93
-15.14
-7.93
-0.76
6.04
12.15
17.15
20.55
22.04
21.63
19.77
17.20
14.65
12.53
10.81
9.16
7.17
4.71
1.98
-0.59
-2.63
-4.05
-5.12
-6.37
-8.27
-11.04
-14.62
-18.70
-22.86
-26.70
-29.75
-31.54
-31.62
-29.61
-25.38
-19.18
-11.63
-3.57
4.07
10.53
15.35
18.40
19.84
19.99
19.21
17.84
16.13
14.27
12.36
10.49
8.71
7.02
5.34
3.52
1.38
-1.25
-4.43
-8.07
-12.06
-16.24
-20.56
-25.08
-29.88
-34.91
-39.86
-44.12
-46.96
-47.68
-45.98
-42.00
-36.31
-29.68
-22.83
-16.26
-10.28
-5.05
-0.70
2.58
4.62
5.33
4.81
3.38
1.54
-0.17
-1.42
-2.10
-2.44
-2.85
-3.70
-5.16
-7.16
-9.38
-11.54
-13.60
-15.76
-18.32
-21.40
-24.72
-27.62
-29.26
-28.97
-26.52
-22.18
-16.59
-10.44
-4.27
1.65
7.18
12.16
16.23
18.89
19.73
18.69
16.29
13.45
11.19
10.21
10.55
11.68
12.85
13.48
13.52
13.35
13.50
14.26
15.44
16.42
16.42
14.92
11.86
7.72
3.36
-0.33
-2.71
-3.53
-2.90
-1.10
1.66
5.27
9.72
14.83
20.13
24.88
28.25
29.71
29.25
27.31
24.65
21.90
19.33
16.82
14.02
10.71
6.92
2.98
-0.65
-3.69
-6.17
-8.48
-11.15
-14.62
-19.02
-24.16
-29.55
-34.63
-38.90
-41.92
-43.29
-42.65
-39.71
-34.39
-26.89
-17.83
-8.13
1.17
9.13
15.17
19.11
21.12
21.63
21.16
20.14
18.86
17.43
15.87
14.19
12.47
10.85
9.42
8.20
7.04
5.68
3.91
1.61
-1.14
-4.14
-7.24
-10.31
-13.26
-15.87
-17.71
-18.20
-16.76
-13.11
-7.43
-0.37
7.11
14.00
19.55
23.38
25.44
25.98
25.28
23.65
21.38
18.72
15.97
13.41
11.27
9.66
8.49
7.51
6.39
4.83
2.70
0.09
-2.73
-5.46
-7.97
-10.38
-13.08
-16.40
-20.33
-24.31
-27.31
-28.18
-26.19
-21.34
-14.44
-6.76
0.53
6.67
11.49
15.14
17.82
19.53
20.13
19.47
17.64
14.99
12.14
9.68
8.03
7.28
7.16
7.22
7.04
6.44
5.52
4.59
3.90
3.39
2.64
1.02
-1.92
-6.09
-10.76
-14.70
-16.73
-16.19
-13.20
-8.55
-3.31
1.59
5.67
8.83
11.11
12.43
12.50
11.01
7.89
3.55
-1.25
-5.66
-9.16
-11.75
-13.88
-16.09
-18.64
-21.27
-23.38
-24.33
-23.92
-22.52
-21.06
-20.58
-21.90
-25.17
-29.79
-34.57
-38.08
-39.11
-37.04
-31.91
-24.32
-15.11
-5.13
4.95
14.51
22.86
29.21
32.77
33.13
30.54
25.95
20.70
16.03
12.56
10.17
8.21
5.99
3.21
0.08
-2.85
-5.14
-6.72
-7.97
-9.49
-11.78
-14.97
-18.80
-22.72
-26.12
-28.46
-29.31
-28.39
-25.50
-20.64
-13.99
-5.97
2.77
11.43
19.14
25.15
29.01
30.69
30.62
29.54
28.21
27.12
26.27
25.21
23.38
20.44
16.52
12.19
8.12
4.69
1.77
-1.17
-4.73
-9.24
-14.58
-20.26
-25.64
-30.23
-33.67
-35.66
-35.84
-33.79
-29.20
-22.14
-13.21
-3.50
5.68
13.11
18.09
20.50
20.80
19.79
18.26
16.73
15.34
13.92
12.26
10.32
8.26
6.43
5.08
4.22
3.51
2.49
0.79
-1.62
-4.48
-7.37
-10.05
-12.57
-15.18
-18.00
-20.75
-22.64
-22.59
-19.66
-13.59
-4.99
4.73
13.92
21.26
26.12
28.66
29.50
29.32
28.51
27.14
25.01
22.11
18.78
15.64
13.32
12.14
11.94
12.17
12.14
11.18
9.15
6.38
3.45
0.82
-1.35
-3.23
-4.90
-6.26
-7.04
-6.34
-3.04
3.52
13.16
24.85
37.12
48.90
59.54
68.39
75.21
79.67
80.93
77.89
69.82
56.98
41.17
24.99
10.57
-0.35
-7.05
-10.25
-11.59
-12.87
-17.34
-25.95
-35.01
-42.94
-49.99
-56.33
-62.19
-67.64
-72.31
-75.48
-76.03
-73.28
-67.75
-60.29
-51.84
-43.42
-35.71
-28.80
-22.26
-15.19
-7.20
0.99
8.21
13.42
16.02
16.19
14.83
13.02
11.63
10.69
9.39
6.98
3.22
-1.62
-6.83
-11.69
-15.68
-18.55
-20.36
-21.51
-22.37
-23.13
-23.82
-24.16
-23.72
-22.00
-18.67
-13.69
-7.44
-0.39
7.05
14.57
21.87
28.44
33.56
36.50
36.84
34.77
31.07
26.75
22.57
18.74
14.98
10.84
6.18
1.31
-3.12
-6.57
-9.05
-11.17
-13.87
-17.94
-23.57
-30.22
-36.83
-42.17
-45.22
-45.40
-42.58
-36.98
-29.12
-19.76
-9.83
-0.34
7.72
13.57
16.82
17.61
16.57
14.68
12.94
12.07
12.22
12.97
13.58
13.35
12.01
9.75
7.15
4.80
2.97
1.54
0.01
-2.13
-5.22
-9.23
-13.85
-18.58
-22.92
-26.42
-28.64
-29.09
-27.33
-23.06
-16.41
-8.10
0.53
7.88
12.59
14.12
12.92
10.28
7.74
6.40
6.47
7.28
7.75
7.04
4.99
2.08
-0.92
-3.51
-5.82
-8.46
-12.12
-16.97
-22.46
-27.52
-31.06
-32.59
-32.43
-31.46
-30.57
-30.02
-29.33
-27.52
-23.61
-17.03
-7.82
3.52
16.12
28.83
40.12
48.28
51.87
50.29
44.20
35.41
26.20
18.48
13.04
9.54
6.99
4.34
1.02
-2.96
-7.27
-11.52
-15.45
-19.06
-22.39
-25.58
-28.68
-31.55
-33.90
-35.21
-34.96
-32.68
-28.18
-21.57
-13.26
-3.93
5.62
14.57
22.18
27.97
31.72
33.44
33.24
31.30
27.83
23.27
18.35
14.06
11.45
11.16
13.15
16.52
19.88
21.71
20.95
17.31
11.20
3.53
-4.76
-12.88
-20.28
-26.40
-30.58
-32.02
-30.05
-24.56
-16.28
-6.70
2.40
9.57
14.17
16.50
17.38
17.66
17.76
17.62
16.88
15.36
13.18
10.82
8.87
7.65
7.04
6.55
5.56
3.74
1.19
-1.58
-3.98
-5.74
-7.13
-8.81
-11.30
-14.55
-17.70
-19.34
-18.17
-13.66
-6.37
2.21
10.34
16.76
21.00
23.42
24.71
25.43
25.69
25.24
23.77
21.23
18.02
14.86
12.44
11.04
10.39
9.78
8.50
6.20
3.13
-0.03
-2.55
-4.14
-5.11
-6.29
-8.47
-11.81
-15.64
-18.53
-18.85
-15.53
-8.53
1.12
11.74
21.71
29.93
36.10
40.55
43.77
46.13
47.71
48.46
48.48
48.14
48.04
48.79
50.72
53.73
57.37
61.06
64.36
67.12
69.45
71.59
73.65
75.45
76.62
76.90
76.47
76.08
76.76
79.53
85.01
93.08
102.97
113.49
123.33
131.35
136.58
137.88
134.08
123.94
106.24
80.05
45.39
3.71
-41.74
-86.33
-125.83
-157.18
-179.21
-192.89
-200.62
-204.99
-208.09
-210.80
-213.33
-216.98
-223.23
-232.79
-245.39
-259.49
-272.28
-280.83
-282.18
-274.31
-258.65
-237.95
-214.93
-192.06
-171.24
-153.02
-137.76
-124.83
-113.43
-105.59
-102.95
-104.90
-109.62
-115.09
-119.65
-123.69
-127.64
-118.28
-87.74
-35.46
32.48
106.86
176.30
239.67
294.23
337.18
368.18
382.05
371.38
338.89
294.70
250.08
211.87
180.14
153.30
131.29
115.35
104.80
99.58
97.77
95.78
90.41
79.66
64.52
47.42
30.70
16.02
4.70
-3.66
-10.73
-18.04
-26.76
-36.91
-48.13
-61.14
-77.18
-96.38
-117.86
-139.36
-157.37
-168.16
-168.77
-158.24
-138.35
-112.83
-85.63
-60.04
-38.24
-21.12
-8.92
-1.76
0.17
-3.11
-10.81
-20.73
-29.71
-34.41
-32.47
-23.66
-10.21
3.86
14.43
19.00
17.93
14.30
12.36
15.29
23.49
34.37
43.74
48.11
46.41
40.54
34.20
30.85
32.08
37.17
44.04
50.79
56.67
62.16
68.05
74.23
79.14
80.41
76.26
66.81
54.34
42.48
34.46
31.42
31.83
32.39
29.83
22.69
12.01
0.73
-7.96
-12.39
-13.16
-12.70
-13.83
-18.24
-25.70
-34.32
-41.58
-45.61
-45.92
-43.30
-38.86
-33.22
-25.99
-16.14
-2.81
13.66
31.27
47.00
58.01
63.01
62.90
60.33
58.33
58.68
61.04
63.27
62.86
58.44
50.60
41.56
33.85
28.74
25.46
21.71
15.17
4.84
-8.30
-21.84
-33.25
-41.38
-46.97
-52.14
-58.85
-67.38
-76.00
-81.55
-81.05
-73.32
-59.60
-43.03
-27.23
-14.63
-5.72
0.73
6.33
11.85
16.64
19.21
18.37
14.07
7.95
2.76
0.88
2.80
6.81
9.87
9.52
5.01
-2.88
-11.82
-19.16
-23.49
-25.47
-27.46
-31.84
-39.41
-49.15
-59.53
-68.53
-74.43
-76.57
-75.70
-73.35
-70.50
-66.82
-61.39
-54.67
-47.88
-42.54
-39.98
-41.15
-46.23
-54.27
-63.13
-63.20
-49.87
-26.57
-2.06
17.00
29.25
36.92
41.52
45.96
50.87
54.03
53.04
47.22
37.79
27.52
18.64
12.35
8.68
6.14
1.95
-5.50
-15.45
-25.12
-31.43
-32.75
-29.32
-22.61
-14.80
-8.05
-3.19
0.32
3.61
7.27
10.67
12.53
11.79
8.16
2.20
-4.43
-9.44
-10.58
-6.55
2.54
15.42
30.22
45.04
58.50
70.04
79.69
87.36
92.41
93.64
90.05
81.76
70.41
58.94
50.43
46.80
48.03
52.34
57.23
60.71
62.01
61.56
60.22
58.36
55.54
50.66
42.81
31.89
18.80
5.12
-7.68
-18.91
-28.82
-38.31
-48.16
-58.54
-68.84
-78.00
-85.16
-90.34
-94.43
-98.86
-104.59
-111.49
-118.02
-121.62
-119.69
-110.60
-94.32
-72.36
-47.02
-20.59
5.26
29.52
51.42
69.93
83.64
91.16
91.97
86.93
78.24
68.82
61.10
56.04
52.97
50.08
45.72
39.26
31.49
24.10
18.63
15.61
14.24
12.92
10.21
5.65
-0.07
-5.56
-9.64
-12.08
-13.70
-15.73
-18.80
-22.26
-24.30
-22.70
-16.15
-5.02
8.59
21.83
32.42
39.54
43.84
46.69
49.04
50.69
50.43
46.95
39.91
30.40
20.66
13.04
8.83
7.61
7.53
6.29
2.36
-4.33
-12.55
-20.64
-27.51
-33.31
-39.23
-46.66
-56.23
-67.30
-78.21
-86.96
-92.14
-93.47
-91.69
-88.01
-83.34
-77.70
-70.25
-59.54
-44.39
-24.67
-1.68
22.09
43.84
61.43
74.03
82.15
86.97
89.42
89.75
87.64
82.94
76.24
69.07
63.35
60.44
60.35
61.63
62.01
59.47
53.16
43.67
32.76
22.45
14.16
8.36
4.62
2.34
1.18
1.34
3.28
7.12
12.19
16.96
19.54
18.60
13.91
6.48
-1.98
-9.82
-16.24
-21.40
-26.08
-30.93
-36.06
-40.97
-44.88
-47.30
-48.39
-48.86
-49.62
-51.20
-53.55
-56.09
-58.07
-59.08
-59.20
-58.98
-58.94
-59.08
-58.67
-56.41
-50.99
-41.85
-29.61
-16.02
-3.37
6.41
12.50
15.37
16.41
17.17
18.46
20.06
21.01
20.31
17.61
13.48
9.13
5.71
3.63
2.42
1.11
-1.09
-4.25
-7.71
-10.47
-11.89
-12.18
-12.28
-13.26
-15.56
-18.50
-20.45
-19.53
-14.53
-5.59
5.91
18.07
29.37
39.25
48.09
56.49
64.57
71.46
75.72
76.09
72.44
66.04
59.19
54.19
52.30
53.15
54.95
55.43
52.89
46.98
38.74
29.90
21.93
15.15
8.61
0.62
-10.26
-24.46
-40.91
-57.36
-71.15
-80.16
-83.47
-81.48
-75.57
-67.66
-59.93
-54.54
-53.50
-58.40
-69.78
-86.38
-104.71
-119.68
-126.18
-121.24
-105.21
-81.74
-56.19
-33.55
-16.58
-5.29
2.22
8.11
12.90
15.66
14.86
9.58
0.17
-11.68
-23.52
-32.94
-38.37
-40.43
-40.53
-39.74
-38.13
-35.02
-29.73
-22.11
-12.89
-3.66
2.08
1.67
-5.28
-16.76
-29.72
-41.63
-51.07
-57.81
-62.28
-67.21
-74.52
-84.28
-95.09
-105.68
-116.36
-128.60
-144.36
-151.29
-140.95
-112.06
-70.76
-24.32
23.13
69.49
112.95
150.75
179.79
195.95
197.98
188.94
175.08
163.70
157.00
153.97
151.47
146.35
135.75
119.68
100.93
83.35
69.37
58.82
50.21
42.06
33.90
26.09
18.92
12.44
6.19
-0.66
-8.85
-18.03
-27.03
-34.47
-39.99
-44.09
-47.32
-49.63
-50.20
-48.01
-42.28
-33.26
-22.36
-11.81
-3.63
1.33
3.41
3.49
1.99
-1.58
-8.61
-20.53
-37.78
-59.10
-81.58
-101.60
-116.05
-123.41
-124.12
-120.17
-114.24
-108.75
-105.24
-103.98
-103.82
-102.06
-94.74
-77.48
-47.15
-3.70
48.85
102.95
150.00
183.55
201.56
206.45
203.10
195.89
186.65
174.58
158.07
136.87
113.10
90.49
72.49
60.47
53.24
47.81
41.21
32.00
20.78
9.92
2.45
0.85
5.96
16.44
28.97
39.18
42.94
37.81
23.84
3.65
-18.47
-38.02
-51.69
-58.19
-58.27
-53.96
-47.50
-40.34
-32.92
-24.99
-16.31
-7.11
1.87
9.78
16.27
21.68
26.88
32.54
38.61
44.10
47.37
46.77
41.41
31.64
19.00
5.77
-5.78
-14.17
-19.22
-22.05
-24.60
-28.72
-35.34
-44.08
-53.39
-61.20
-65.80
-66.37
-63.13
-56.97
-48.98
-40.00
-30.59
-21.16
-12.33
-5.03
-0.23
1.56
0.69
-1.57
-3.55
-3.96
-2.51
-0.08
1.78
1.81
-0.32
-3.74
-6.83
-7.96
-6.31
-2.24
2.95
7.61
10.36
10.54
8.27
4.25
-0.61
-5.47
-9.66
-12.60
-13.73
-12.48
-8.41
-1.51
7.53
17.26
25.75
31.29
33.06
31.44
27.92
24.29
21.83
20.70
20.01
18.49
15.34
10.73
5.76
1.84
-0.23
-0.61
-0.37
-0.82
-2.81
-6.34
-10.65
-14.85
-18.42
-21.50
-24.61
-28.06
-31.44
-33.72
-33.55
-30.03
-23.21
-14.18
-4.72
3.51
9.56
13.23
14.77
14.43
12.32
8.40
2.72
-4.29
-11.74
-18.41
-23.28
-26.30
-28.53
-31.90
-38.31
-48.80
-62.69
-77.28
-88.29
-91.36
-84.13
-67.38
-44.97
-22.33
-4.55
5.53
8.36
7.39
8.65
16.76
32.50
52.38
71.95
88.25
100.02
106.30
105.46
95.31
74.35
43.90
8.84
-23.42
-45.95
-55.36
-53.07
-44.08
-34.21
-28.17
-26.41
-27.37
-28.80
-29.29
-28.89
-28.46
-28.60
-29.03
-28.78
-26.66
-22.08
-15.35
-7.57
-0.22
5.51
9.19
11.13
11.92
11.02
7.74
1.35
-8.57
-21.78
-37.36
-53.91
-70.09
-85.09
-98.79
-111.46
-123.40
-134.65
-144.90
-153.73
-161.00
-166.87
-171.73
-175.92
-179.24
-180.89
-179.63
-174.36
-164.66
-151.09
-134.72
-116.44
-96.07
-72.06
-42.03
-3.83
43.32
98.19
157.49
216.38
269.25
310.64
336.31
344.07
334.57
311.35
279.94
246.28
214.95
188.13
165.73
146.44
128.78
111.86
95.34
79.02
62.63
46.00
29.54
14.49
2.69
-4.23
-5.64
-2.47
3.17
8.77
12.53
14.08
14.54
15.97
20.25
28.18
38.90
50.23
59.51
64.75
65.39
62.48
57.97
53.73
50.76
48.94
47.49
45.60
42.91
39.64
36.17
32.57
28.37
22.81
15.32
5.97
-4.30
-13.92
-21.28
-25.26
-25.66
-23.09
-18.56
-13.06
-7.22
-1.31
4.37
9.20
12.12
11.97
8.04
0.52
-9.40
-20.00
-29.68
-37.57
-43.71
-48.71
-53.11
-56.96
-59.74
-60.73
-59.57
-56.57
-52.67
-49.00
-46.45
-45.39
-45.67
-46.70
-47.60
-47.21
-44.12
-36.98
-24.94
-8.20
11.76
32.42
50.80
64.31
71.36
71.55
65.49
54.48
40.10
24.01
7.76
-7.33
-20.33
-30.81
-38.85
-44.88
-49.39
-52.74
-55.10
-56.54
-57.19
-57.34
-57.31
-57.42
-57.87
-58.71
-59.85
-61.07
-61.88
-61.63
-59.51
-54.81
-47.18
-36.70
-23.95
-9.80
4.62
18.16
29.69
38.31
43.49
45.22
43.86
39.96
34.11
26.89
18.97
11.17
4.37
-0.80
-4.18
-6.24
-7.83
-9.76
-12.41
-15.68
-19.18
-22.58
-25.86
-29.35
-33.35
-37.90
-42.39
-45.67
-46.33
-43.26
-36.15
-25.77
-13.75
-2.06
7.66
14.61
18.86
21.05
21.76
21.27
19.40
15.92
10.81
4.54
-2.07
-8.16
-13.24
-17.41
-21.25
-25.50
-30.61
-36.55
-42.95
-49.42
-55.95
-62.75
-69.71
-75.65
-77.99
-73.43
-59.26
-34.86
-2.41
33.63
68.15
96.78
116.76
126.63
125.74
114.08
92.67
64.23
33.24
4.96
-16.24
-28.30
-31.86
-29.35
-23.55
-16.46
-9.05
-1.74
4.99
10.30
13.27
13.40
10.85
6.35
0.79
-5.08
-10.71
-15.70
-19.52
-21.45
-20.74
-16.92
-9.94
-0.26
11.36
23.95
36.55
48.13
57.63
64.03
66.62
65.47
61.51
56.36
51.78
48.95
48.06
48.22
48.01
46.17
42.20
36.49
30.10
24.17
19.31
15.38
11.57
6.99
1.17
-5.60
-12.31
-17.69
-20.87
-21.68
-20.67
-18.63
-16.09
-13.06
-9.20
-4.19
1.75
7.75
12.62
15.41
15.92
14.75
13.00
11.67
11.19
11.20
10.93
9.71
7.33
4.22
1.15
-1.16
-2.48
-3.17
-4.00
-5.75
-8.85
-13.25
-18.45
-23.66
-28.07
-30.97
-31.82
-30.30
-26.26
-19.77
-11.19
-1.20
9.18
18.72
26.20
30.76
32.13
30.68
27.27
22.85
18.11
13.25
8.08
2.35
-3.93
-10.35
-16.22
-20.91
-24.10
-25.94
-26.83
-27.18
-27.15
-26.72
-25.83
-24.63
-23.63
-23.45
-24.48
-26.44
-28.30
-28.57
-25.91
-19.72
-10.51
0.22
10.53
18.72
23.93
26.23
26.36
25.30
23.74
21.91
19.74
17.08
14.05
11.14
9.06
8.28
8.73
9.76
10.42
9.97
8.06
4.93
1.17
-2.73
-6.81
-11.59
-17.72
-25.28
-33.47
-40.78
-45.43
-45.98
-41.96
-34.20
-24.58
-15.23
-7.68
-2.45
0.75
2.62
3.81
4.54
4.54
3.38
1.02
-2.05
-3.94
-3.58
-1.87
-1.43
-4.46
-11.25
-20.07
-28.36
-34.00
-36.10
-35.25
-32.74
-29.75
-26.75
-23.83
-21.05
-18.57
-16.74
-16.00
-16.80
-19.18
-22.19
-23.88
-21.84
-14.39
-1.52
14.71
30.80
43.11
49.49
50.13
47.05
42.78
38.81
35.16
30.84
24.60
16.15
6.47
-2.63
-9.42
-13.19
-14.51
-14.70
-15.42
-17.76
-21.93
-27.05
-31.39
-32.98
-29.77
-21.70
-9.60
4.48
18.72
31.08
40.13
45.30
46.55
43.96
37.90
29.55
20.68
13.43
9.22
7.71
6.59
2.52
-7.14
-22.07
-38.65
-51.68
-56.91
-53.28
-43.38
-32.13
-23.26
-20.50
-24.90
-34.52
-45.75
-55.25
-61.50
-65.01
-67.32
-69.47
-71.07
-69.95
-63.56
-50.93
-33.82
-16.23
-2.35
5.66
8.80
10.32
14.12
22.22
33.75
45.57
54.16
57.55
56.15
52.33
48.87
47.76
49.38
52.44
54.70
54.04
49.28
40.41
28.59
15.76
4.48
-2.42
-2.38
6.19
23.21
46.65
72.80
97.33
116.55
128.56
133.46
132.75
128.19
120.77
110.60
97.18
80.20
60.05
37.86
15.09
-6.94
-27.40
-45.89
-62.38
-76.87
-89.30
-99.53
-107.50
-113.37
-117.64
-121.04
-124.46
-128.67
-134.00
-139.99
-145.19
-147.29
-143.67
-132.31
-112.75
-86.68
-57.55
-29.51
-5.88
11.95
24.76
34.71
43.98
53.49
62.49
69.13
71.49
68.55
60.41
48.00
32.20
13.37
-8.52
-33.05
-58.38
-80.96
-96.19
-100.18
-91.52
-72.38
-48.00
-24.78
-7.89
0.56
1.87
-0.25
-1.59
0.95
8.62
20.96
36.47
53.28
69.62
84.12
95.89
104.49
109.74
111.53
109.78
104.68
96.94
88.00
79.68
73.49
69.97
68.49
67.67
66.27
63.99
61.52
59.84
59.38
59.43
58.57
55.42
49.42
41.10
31.68
22.31
13.55
5.42
-2.25
-9.26
-14.99
-18.62
-19.77
-18.95
-17.64
-17.80
-21.01
-27.68
-36.77
-46.13
-53.28
-56.28
-54.40
-48.09
-38.60
-27.51
-16.42
-6.82
0.03
3.22
2.48
-1.58
-7.59
-13.89
-19.25
-23.37
-26.79
-30.46
-35.21
-41.52
-49.46
-58.80
-68.92
-78.49
-85.43
-87.41
-82.87
-71.86
-56.22
-38.82
-22.33
-8.16
3.67
13.77
22.46
29.31
33.64
35.37
35.51
35.86
38.15
43.01
49.50
55.50
58.62
57.14
50.58
39.86
27.03
14.70
5.20
-0.08
-1.04
1.23
5.03
8.52
10.01
7.60
-0.81
-16.85
-40.43
-68.63
-95.87
-115.59
-123.03
-117.60
-103.15
-86.06
-71.82
-62.41
-55.69
-47.38
-34.35
-17.17
-0.27
10.38
10.76
1.23
-13.46
-26.60
-32.87
-30.69
-22.34
-12.02
-3.33
2.33
5.50
7.16
7.36
5.01
-0.87
-9.48
-17.55
-20.51
-14.77
0.04
20.53
40.82
55.34
61.32
59.87
54.89
50.79
50.32
53.65
59.01
64.20
68.05
70.74
73.15
75.78
78.08
78.64
75.99
69.67
60.63
50.95
42.86
37.62
34.99
33.49
31.03
26.01
17.99
7.85
-2.74
-12.13
-19.44
-24.77
-29.03
-33.34
-38.43
-44.33
-50.31
-55.28
-58.12
-58.05
-54.85
-48.90
-40.97
-31.97
-22.62
-13.49
-4.92
2.76
9.16
13.97
17.18
19.33
21.47
24.75
29.95
37.03
45.04
52.42
57.59
59.55
58.17
54.02
48.06
41.15
33.78
25.97
17.47
8.11
-1.94
-12.05
-21.32
-28.86
-34.14
-36.97
-37.45
-35.65
-31.47
-24.77
-15.58
-4.46
7.34
18.15
26.40
31.07
32.07
30.15
26.71
23.31
20.88
19.37
17.96
15.64
11.79
6.46
0.50
-4.94
-8.83
-11.22
-13.29
-16.47
-21.55
-28.42
-36.29
-44.35
-52.30
-60.00
-67.72
-75.26
-80.96
-81.66
-74.04
-56.48
-30.11
1.17
32.58
59.07
76.80
84.15
81.80
71.54
54.93
33.10
4.41
-27.15
-53.47
-67.61
-68.10
-58.27
-43.81
-30.27
-21.08
-16.86
-15.16
-13.19
-9.55
-4.72
-0.50
0.96
-1.66
-7.64
-15.35
-22.18
-26.32
-27.49
-26.60
-24.79
-22.83
-20.85
-18.16
-14.09
-7.98
-0.21
7.86
14.63
19.16
21.72
22.13
21.55
21.51
23.41
27.72
33.81
40.53
46.91
52.54
57.48
62.14
66.46
69.81
71.04
69.04
63.50
55.12
45.35
35.58
26.56
17.77
7.84
-4.59
-19.81
-36.58
-52.43
-64.62
-71.28
-72.07
-68.25
-61.93
-55.05
-48.61
-42.64
-36.57
-29.95
-22.96
-16.38
-11.21
-8.05
-6.72
-6.23
-5.32
-3.06
0.54
4.46
7.22
7.67
5.63
2.08
-1.33
-3.12
-2.83
-1.28
-0.17
-1.15
-4.95
-11.00
-17.60
-22.69
-24.75
-23.35
-19.14
-13.26
-6.66
0.33
8.00
16.71
26.33
35.83
43.58
48.07
48.69
46.12
42.07
38.41
36.24
35.40
34.67
32.66
28.68
23.15
17.38
12.78
10.00
8.59
7.29
4.74
0.29
-5.80
-12.50
-18.66
-23.64
-27.50
-30.72
-33.64
-35.98
-36.86
-35.11
-29.96
-21.58
-11.24
-0.84
7.83
13.75
16.99
18.44
19.22
19.95
20.49
20.12
18.14
14.36
9.38
4.35
0.31
-2.31
-4.01
-5.81
-8.70
-13.04
-18.34
-23.59
-27.86
-30.93
-33.52
-36.94
-42.25
-49.54
-57.66
-64.55
-68.09
-67.05
-61.60
-53.07
-43.16
-33.14
-23.45
-13.78
-3.79
6.27
15.38
22.05
25.18
24.66
21.58
17.73
14.83
13.62
13.65
13.62
12.24
8.98
4.38
-0.33
-3.93
-6.02
-7.24
-8.93
-12.33
-17.94
-25.22
-32.84
-39.35
-43.74
-45.73
-45.57
-43.63
-39.94
-34.21
-25.97
-15.06
-2.03
11.81
24.68
34.98
41.84
45.34
46.39
46.15
45.43
44.39
42.58
39.51
35.08
29.76
24.51
20.24
17.23
14.97
12.48
8.79
3.63
-2.54
-8.74
-14.13
-18.56
-22.70
-27.55
-33.71
-40.70
-46.95
-50.27
-48.86
-42.21
-31.34
-18.31
-5.28
6.43
16.65
26.01
35.15
43.96
51.39
55.98
56.72
53.76
48.47
42.88
38.69
36.49
35.52
34.25
31.32
26.30
19.90
13.59
8.72
5.74
3.90
1.74
-2.13
-8.28
-16.24
-24.74
-32.47
-38.69
-43.38
-46.91
-49.36
-50.20
-48.33
-42.61
-32.60
-19.05
-3.82
10.79
22.88
31.57
37.16
40.71
43.32
45.53
47.03
47.01
44.81
40.47
34.88
29.49
25.56
23.51
22.72
21.82
19.51
15.27
9.55
3.58
-1.44
-4.99
-7.58
-10.42
-14.71
-20.99
-28.86
-37.18
-44.67
-50.42
-54.14
-55.97
-55.93
-53.68
-48.51
-39.74
-27.30
-12.13
3.92
18.60
30.07
37.54
41.33
42.68
42.95
43.02
42.97
42.24
40.23
36.80
32.45
28.21
25.02
23.19
22.17
20.80
18.01
13.41
7.59
1.74
-2.93
-6.01
-8.13
-10.63
-14.83
-21.28
-29.52
-38.19
-45.71
-50.94
-53.51
-53.70
-51.92
-48.33
-42.67
-34.46
-23.50
-10.32
3.68
16.59
26.72
33.21
36.29
37.12
37.08
37.09
37.19
36.75
35.04
31.78
27.47
23.10
19.64
17.40
15.88
14.04
10.89
6.14
0.31
-5.45
-10.03
-13.02
-14.97
-17.19
-21.01
-27.11
-35.07
-43.48
-50.43
-54.36
-54.55
-51.25
-45.27
-37.48
-28.36
-18.01
-6.46
5.89
17.98
28.31
35.53
39.05
39.27
37.46
35.09
33.17
31.77
30.26
27.83
24.15
19.61
15.16
11.76
9.75
8.60
7.20
4.48
0.00
-5.82
-11.92
-17.26
-21.43
-24.97
-29.03
-34.67
-42.10
-50.33
-57.41
-61.23
-60.46
-55.07
-46.25
-35.71
-24.83
-14.17
-3.46
7.69
19.10
29.71
37.93
42.45
42.95
40.42
36.70
33.61
32.06
31.69
31.24
29.42
25.70
20.57
15.30
11.13
8.52
6.87
4.91
1.48
-3.80
-10.33
-16.90
-22.42
-26.71
-30.48
-34.90
-40.60
-47.02
-52.45
-54.65
-51.96
-44.09
-32.36
-19.02
-6.23
4.80
14.04
22.24
30.15
37.79
44.29
48.37
49.14
46.70
42.25
37.56
34.17
32.58
32.08
31.20
28.55
23.67
17.22
10.71
5.61
2.49
0.74
-1.08
-4.38
-9.81
-16.93
-24.61
-31.69
-37.64
-42.68
-47.30
-51.61
-54.92
-55.86
-52.94
-45.30
-33.30
-18.51
-3.19
10.58
21.51
29.41
34.99
39.27
42.89
45.76
47.21
46.56
43.64
39.15
34.41
30.72
28.63
27.63
26.45
23.85
19.36
13.54
7.73
3.20
0.40
-1.37
-3.53
-7.48
-13.77
-21.87
-30.49
-38.23
-44.25
-48.53
-51.51
-53.46
-54.05
-52.35
-47.23
-38.06
-25.29
-10.47
4.17
16.63
25.75
31.52
34.84
36.88
38.39
39.42
39.43
37.88
34.71
30.58
26.60
23.75
22.28
21.57
20.40
17.68
13.12
7.34
1.64
-2.80
-5.58
-7.35
-9.51
-13.39
-19.55
-27.47
-35.76
-42.75
-47.24
-48.84
-47.90
-45.02
-40.58
-34.54
-26.54
-16.43
-4.69
7.38
17.99
25.61
29.55
30.29
29.19
27.75
26.89
26.55
25.94
24.13
20.75
16.22
11.56
7.80
5.35
3.81
2.23
-0.33
-4.20
-8.97
-13.75
-17.74
-20.83
-23.73
-27.59
-33.23
-40.52
-48.18
-54.13
-56.36
-53.83
-46.87
-36.94
-25.94
-15.28
-5.50
3.72
12.90
22.07
30.43
36.62
39.46
38.66
35.08
30.47
26.58
24.30
23.28
22.25
19.89
15.65
10.07
4.45
0.07
-2.61
-4.15
-5.86
-9.03
-14.22
-21.06
-28.47
-35.25
-40.60
-44.38
-46.83
-48.14
-48.05
-45.82
-40.59
-31.83
-19.87
-5.98
7.96
20.12
29.35
35.42
38.98
40.99
42.15
42.59
41.94
39.80
36.10
31.37
26.51
22.44
19.50
17.30
14.94
11.52
6.73
1.06
-4.49
-8.91
-11.98
-14.45
-17.73
-23.05
-30.65
-39.45
-47.34
-52.11
-52.44
-48.38
-41.15
-32.30
-22.93
-13.31
-3.09
8.06
19.78
30.89
39.72
44.95
46.24
44.41
41.12
38.06
36.18
35.30
34.42
32.40
28.75
23.83
18.76
14.64
11.87
9.89
7.51
3.61
-2.14
-9.12
-16.13
-22.12
-26.81
-30.90
-35.47
-41.19
-47.68
-53.42
-56.32
-54.64
-47.90
-37.04
-24.06
-11.07
0.56
10.49
19.23
27.40
35.06
41.50
45.57
46.43
44.15
39.86
35.27
31.94
30.41
30.08
29.49
27.30
23.00
17.21
11.34
6.74
3.97
2.43
0.77
-2.36
-7.59
-14.55
-22.14
-29.20
-35.04
-39.67
-43.47
-46.55
-48.39
-47.84
-43.62
-35.11
-22.81
-8.44
5.70
17.62
26.31
31.96
35.54
38.13
40.26
41.67
41.66
39.70
35.95
31.30
27.04
24.17
22.91
22.49
21.67
19.34
15.19
9.78
4.30
-0.13
-3.11
-5.19
-7.65
-11.71
-17.93
-25.86
-34.20
-41.41
-46.34
-48.64
-48.57
-46.56
-42.71
-36.74
-28.18
-16.96
-3.82
9.61
21.30
29.59
33.80
34.43
32.88
30.74
29.10
28.12
27.24
25.65
22.91
19.21
15.37
12.22
10.16
8.81
7.24
4.56
0.44
-4.72
-9.95
-14.37
-17.77
-20.75
-24.46
-29.83
-36.86
-44.44
-50.62
-53.45
-51.81
-45.93
-37.12
-27.14
-17.31
-8.09
0.84
9.94
19.14
27.48
33.52
36.08
35.01
31.37
27.02
23.74
22.34
22.37
22.43
21.04
17.52
12.27
6.57
1.84
-1.18
-2.82
-4.28
-6.86
-11.34
-17.56
-24.58
-31.21
-36.66
-40.80
-43.99
-46.49
-48.04
-47.74
-44.48
-37.52
-27.02
-14.16
-0.78
11.36
21.13
28.27
33.29
36.90
39.56
41.20
41.33
39.54
35.90
31.08
26.16
22.08
19.17
16.99
14.57
11.08
6.31
0.87
-4.15
-7.77
-9.78
-10.96
-12.76
-16.57
-22.99
-31.41
-40.12
-46.97
-50.26
-49.36
-44.80
-37.80
-29.54
-20.61
-10.92
-0.14
11.68
23.66
34.25
41.88
45.70
46.01
44.15
41.76
39.98
38.90
37.71
35.40
31.51
26.43
21.34
17.45
15.33
14.52
13.79
11.88
8.22
3.13
-2.38
-7.34
-11.57
-15.81
-21.36
-29.20
-39.07
-49.35
-57.43
-60.82
-58.24
-50.16
-38.54
-25.82
-13.86
-3.42
5.74
14.18
21.98
28.51
32.64
33.59
31.49
27.54
23.54
21.09
20.78
21.97
23.25
23.23
21.38
18.29
15.34
13.92
14.64
17.08
20.05
22.52
24.24
25.94
28.95
34.42
42.61
52.70
62.97
71.59
77.25
79.59
79.29
77.64
75.88
74.56
73.25
70.80
65.75
57.30
45.96
33.21
20.65
9.20
-1.27
-11.66
-22.91
-35.60
-49.18
-62.10
-72.64
-79.83
-83.78
-85.33
-85.51
-84.93
-84.11
-82.95
-80.96
-78.03
-75.02
-73.41
-74.35
-77.94
-82.94
-88.66
-93.43
-94.48
-89.12
-76.21
-55.99
-29.31
2.75
38.70
73.14
101.49
122.41
137.02
146.45
151.54
153.23
152.43
149.13
137.21
112.46
76.56
35.43
-5.54
-42.98
-75.10
-101.79
-125.31
-156.64
-204.49
-268.85
-342.12
-414.37
-475.63
-516.94
-532.58
-482.22
-359.42
-202.78
-63.82
33.15
92.13
127.54
151.52
169.74
182.71
182.98
167.71
143.46
121.43
108.96
107.08
112.61
120.72
127.24
125.03
111.74
92.25
74.78
64.62
62.44
65.88
71.58
76.56
76.22
69.01
58.01
48.38
43.40
43.52
47.46
54.00
61.48
67.30
69.70
68.34
63.56
55.36
43.87
30.03
15.70
2.84
-7.62
-15.55
-21.07
-24.28
-25.36
-24.56
-22.27
-19.23
-16.50
-15.01
-15.21
-16.80
-18.81
-20.12
-19.85
-17.88
-14.91
-12.21
-10.97
-11.83
-14.59
-18.21
-21.24
-22.38
-20.58
-15.64
-8.22
0.56
9.51
17.70
24.64
30.11
33.99
36.06
36.04
33.78
29.60
24.29
18.95
14.58
11.74
10.30
9.59
8.78
7.31
5.13
2.69
0.57
-0.90
-1.83
-2.70
-4.09
-6.42
-9.75
-13.83
-18.25
-22.52
-26.14
-28.55
-29.12
-27.27
-22.74
-15.76
-7.10
2.13
10.67
17.52
22.06
24.17
24.08
22.27
19.34
15.90
12.42
9.24
6.46
4.01
1.72
-0.61
-3.11
-5.73
-8.33
-10.70
-12.60
-13.82
-14.28
-14.19
-14.03
-14.55
-16.42
-19.85
-24.35
-28.62
-30.89
-29.60
-24.02
-14.69
-3.34
7.85
16.97
23.09
26.50
28.47
30.51
33.45
36.97
39.71
40.11
37.13
30.87
22.75
15.22
10.82
11.06
15.79
22.86
28.92
29.41
19.45
-4.84
-44.56
-96.83
-154.62
-207.81
-245.96
-260.76
-249.56
-216.24
-169.41
-118.68
-71.23
-30.48
3.77
33.39
60.98
87.55
112.28
133.53
150.32
162.74
171.33
176.87
174.23
161.22
140.13
116.24
93.63
73.94
58.86
47.80
40.70
37.06
36.45
36.75
35.02
29.00
18.45
5.24
-7.94
-18.38
-24.78
-26.74
-26.10
-25.87
-28.68
-35.57
-46.13
-59.73
-76.10
-95.63
-113.26
-123.78
-124.30
-115.78
-101.55
-84.92
-68.33
-53.20
-40.24
-29.35
-20.78
-15.31
-13.52
-15.11
-18.82
-23.02
-26.14
-27.16
-26.78
-25.28
-23.72
-22.86
-22.45
-21.46
-18.68
-13.35
-5.45
4.38
15.08
25.15
33.36
39.15
42.58
44.19
44.93
46.22
48.13
51.24
55.33
59.17
61.06
59.64
54.77
47.83
41.17
37.02
36.34
38.05
40.01
40.50
39.33
37.55
36.21
35.40
33.89
29.93
21.93
9.74
-4.49
-16.80
-23.18
-21.17
-10.97
4.69
21.28
33.15
35.67
27.61
11.71
-7.11
-24.33
-37.36
-45.52
-49.64
-51.82
-54.31
-57.68
-60.62
-61.47
-59.16
-52.89
-41.51
-25.03
-6.94
5.59
4.67
-14.92
-54.39
-110.10
-173.58
-232.67
-267.93
-262.85
-219.48
-158.36
-101.35
-59.27
-32.21
-15.25
-0.54
14.17
26.97
35.37
40.49
48.11
65.37
97.34
139.06
183.42
221.10
243.24
244.47
225.91
194.93
161.31
132.88
113.15
102.12
96.37
91.41
83.60
72.15
59.02
46.84
37.04
29.37
23.27
17.87
12.92
8.69
6.11
6.54
10.86
19.01
29.81
41.39
50.80
54.92
51.22
39.08
20.45
-0.87
-20.81
-36.50
-46.67
-53.23
-56.61
-57.03
-55.03
-51.48
-47.71
-45.31
-45.56
-48.78
-54.28
-60.93
-67.14
-70.98
-70.55
-64.47
-52.39
-35.24
-15.11
5.60
23.99
37.85
46.42
50.28
50.66
48.63
44.71
39.03
31.65
23.09
14.20
5.88
-1.34
-7.29
-12.10
-15.87
-18.66
-20.61
-22.15
-24.10
-27.46
-32.91
-40.38
-48.84
-56.71
-62.55
-65.89
-67.59
-69.40
-73.04
-79.19
-86.82
-93.44
-96.08
-92.54
-82.41
-67.24
-49.73
-32.64
-18.04
-7.17
-0.57
1.98
1.75
1.39
4.47
14.29
32.08
55.85
80.68
100.55
110.95
110.64
101.81
88.56
74.69
62.23
51.47
41.93
33.45
26.55
21.90
19.51
18.45
17.19
14.35
9.46
3.16
-3.28
-8.58
-11.93
-13.16
-12.52
-10.45
-7.65
-5.04
-3.73
-4.53
-7.48
-11.61
-15.34
-17.26
-17.00
-15.52
-14.71
-16.31
-20.91
-27.62
-34.42
-39.38
-41.45
-40.97
-39.25
-37.76
-37.52
-38.92
-41.99
-46.45
-51.55
-55.48
-55.29
-47.88
-31.63
-7.81
19.40
44.49
62.89
72.39
73.86
70.41
65.70
62.28
61.09
61.86
63.84
66.16
67.30
65.72
60.56
52.09
41.58
30.63
20.57
12.01
4.76
-2.62
-11.46
-22.16
-34.03
-46.00
-57.28
-67.70
-77.35
-81.60
-77.09
-64.08
-46.81
-30.39
-18.25
-11.71
-10.49
-12.96
-16.76
-20.37
-23.01
-24.39
-24.50
-23.57
-22.08
-20.78
-20.24
-20.64
-22.10
-24.06
-25.40
-25.05
-23.40
-20.69
-17.97
-16.12
-15.15
-14.71
-14.05
-12.57
-9.92
-5.93
-0.39
6.80
15.58
25.36
34.59
41.42
44.48
43.71
40.61
37.73
37.55
41.78
50.90
62.70
74.41
83.04
86.57
84.57
78.24
69.68
60.87
52.83
45.32
37.47
28.41
17.94
6.65
-4.47
-14.74
-24.16
-33.34
-42.91
-52.71
-61.70
-68.25
-70.86
-69.05
-63.81
-57.29
-51.96
-49.47
-49.85
-51.67
-52.61
-50.79
-45.78
-38.90
-32.62
-29.22
-29.59
-32.68
-36.03
-37.12
-34.58
-28.68
-20.80
-12.32
-3.69
5.54
16.11
27.94
39.57
48.50
52.30
49.94
42.45
32.77
24.61
21.01
23.17
30.20
39.70
49.02
56.32
61.08
63.85
65.39
65.86
64.65
60.77
53.70
44.00
33.24
23.50
16.31
12.05
9.81
7.93
4.82
-0.27
-7.10
-14.61
-21.69
-27.74
-33.09
-38.65
-45.49
-54.09
-64.10
-74.37
-83.41
-90.09
-93.99
-95.41
-94.59
-91.08
-83.38
-69.41
-47.85
-19.60
11.57
39.81
59.22
66.26
61.26
48.17
32.68
19.72
11.90
9.33
10.62
14.35
20.02
27.94
38.23
49.89
60.45
67.17
68.30
63.88
55.54
45.70
36.26
27.78
19.54
10.30
0.21
-8.66
-13.12
-10.59
-0.60
14.44
29.85
40.34
41.59
32.65
15.91
-4.56
-25.02
-43.23
-58.68
-71.80
-83.29
-93.95
-103.32
-109.93
-112.30
-109.50
-100.75
-85.35
-62.61
-30.19
7.28
40.73
63.37
74.16
75.96
72.60
67.04
61.39
56.86
53.78
53.04
55.40
59.88
63.25
62.70
54.33
37.23
14.08
-10.27
-30.12
-41.45
-44.11
-41.53
-38.44
-38.55
-42.47
-48.46
-54.20
-57.78
-57.29
-52.44
-43.76
-31.78
-16.99
0.19
18.47
35.55
49.06
57.71
61.60
62.27
62.02
62.70
65.07
68.54
71.65
73.10
72.36
69.61
65.52
60.81
55.86
50.89
46.09
41.97
39.35
39.04
41.17
44.90
48.54
50.06
48.03
42.18
33.53
23.82
14.71
6.92
0.03
-7.12
-15.68
-25.84
-36.55
-45.71
-51.00
-50.76
-44.68
-33.71
-19.54
-3.95
11.57
25.69
37.01
43.91
44.84
38.98
26.90
10.81
-6.01
-20.18
-29.36
-32.97
-32.12
-28.94
-25.58
-23.39
-22.66
-22.90
-23.44
-24.07
-25.32
-28.23
-33.74
-41.94
-51.78
-61.12
-67.47
-68.77
-64.12
-53.87
-39.46
-22.87
-6.12
9.02
21.32
30.00
34.63
35.02
30.92
22.09
8.66
-8.51
-27.43
-45.32
-59.47
-68.33
-72.08
-72.41
-71.45
-70.46
-69.14
-66.07
-59.86
-50.39
-39.39
-29.78
-24.60
-25.51
-31.96
-41.18
-49.13
-51.87
-46.91
-33.95
-14.84
7.31
29.24
48.42
63.16
72.51
76.11
74.39
69.03
63.02
60.15
63.55
74.15
89.89
106.20
117.72
120.11
111.44
92.33
64.99
32.00
-4.33
-42.03
-78.78
-111.56
-137.06
-152.62
-157.56
-153.70
-144.85
-135.25
-127.54
-122.00
-116.81
-109.36
-97.95
-83.03
-67.15
-53.93
-46.35
-45.34
-49.70
-56.78
-63.97
-69.74
-74.03
-77.97
-82.92
-89.62
-97.65
-106.15
-114.91
-124.74
-137.04
-152.93
-172.35
-193.74
-214.62
-231.67
-243.50
-251.51
-259.01
-268.60
-280.01
-289.59
-291.60
-280.58
-251.60
-204.49
-144.09
-77.89
-12.19
50.06
109.02
166.37
223.85
285.80
354.14
426.92
498.74
563.16
614.45
648.35
662.63
657.80
641.46
621.26
601.49
582.28
562.02
539.28
513.06
482.60
419.89
314.79
180.46
45.63
-66.41
-147.69
-201.35
-234.50
-253.92
-264.58
-265.79
-257.95
-244.66
-231.61
-222.75
-218.12
-214.84
-210.63
-202.77
-187.75
-165.72
-140.71
-118.62
-103.66
-96.62
-95.59
-97.56
-99.61
-97.86
-90.54
-78.77
-65.91
-55.50
-49.72
-49.36
-53.73
-60.75
-66.85
-69.00
-65.76
-57.41
-45.01
-29.70
-12.55
5.33
22.79
38.72
51.92
61.32
66.38
67.51
65.89
63.00
59.98
57.23
54.27
50.27
44.70
37.82
30.68
24.70
20.86
19.18
18.64
17.55
14.44
8.65
0.51
-8.97
-18.57
-27.37
-34.89
-40.91
-45.07
-46.73
-44.99
-39.06
-28.75
-14.86
0.79
15.80
27.98
35.99
39.78
40.36
39.26
37.67
36.04
33.98
30.81
26.12
20.19
13.87
8.25
4.07
1.37
-0.48
-2.43
-5.20
-9.07
-13.77
-18.70
-23.31
-27.32
-30.65
-33.08
-34.06
-32.56
-27.50
-18.16
-4.87
10.81
26.36
39.17
47.48
51.04
51.14
49.86
48.88
48.69
48.43
46.62
42.20
35.45
28.01
22.18
19.68
20.74
24.04
27.52
29.47
29.19
27.10
24.25
21.59
19.54
18.02
16.97
16.49
16.80
17.77
18.65
18.61
17.13
14.32
10.72
6.98
3.25
-1.11
-7.45
-17.80
-33.49
-54.55
-79.77
-106.78
-132.19
-152.13
-163.41
-164.87
-158.68
-148.76
-139.17
-132.64
-129.69
-128.42
-125.75
-119.43
-109.44
-98.62
-89.50
-82.57
-76.09
-67.19
-53.30
-33.51
-9.27
20.86
52.04
77.17
92.61
100.05
103.02
103.37
100.76
94.09
83.20
68.91
54.13
42.43
35.96
34.33
35.18
35.75
34.46
30.95
25.39
19.09
13.62
9.55
6.06
1.73
-4.38
-11.82
-18.92
-23.86
-24.92
-21.31
-13.66
-3.60
7.33
17.77
26.92
34.70
41.22
46.39
49.65
50.05
46.90
40.46
31.99
23.46
16.58
11.86
8.48
4.92
-0.14
-6.96
-14.53
-21.18
-25.44
-27.13
-27.64
-29.37
-34.42
-43.37
-54.68
-65.13
-71.13
-70.18
-61.83
-47.64
-30.21
-11.91
6.00
23.48
40.91
58.05
73.60
85.37
91.37
90.87
84.93
75.96
66.67
58.83
52.59
46.76
39.86
31.16
21.16
11.45
3.73
-1.20
-3.89
-6.05
-9.64
-15.93
-24.92
-35.36
-45.36
-53.11
-57.46
-58.09
-55.21
-49.16
-40.18
-28.37
-13.95
2.33
19.01
34.10
45.74
52.83
55.51
55.02
53.12
51.22
49.76
48.20
45.66
41.60
36.33
30.93
26.56
23.66
21.66
19.17
14.89
8.35
0.22
-8.01
-14.87
-19.74
-23.28
-27.03
-32.66
-40.99
-51.48
-62.35
-71.19
-75.95
-75.71
-70.82
-62.46
-51.87
-39.78
-26.21
-10.99
5.47
21.71
35.38
44.19
47.01
44.50
38.95
33.21
29.41
28.11
28.38
28.67
27.85
25.87
23.53
21.92
21.47
21.56
20.91
18.31
13.36
6.78
0.04
-5.42
-9.01
-11.46
-14.42
-19.62
-27.93
-38.70
-49.94
-59.03
-63.82
-63.46
-58.47
-50.26
-40.20
-29.06
-16.87
-3.43
10.92
24.99
36.90
44.86
48.07
47.06
43.57
39.66
36.77
35.15
33.99
32.08
28.73
24.15
19.40
15.73
13.71
12.81
11.66
8.79
3.57
-3.48
-10.87
-16.96
-20.98
-23.41
-25.81
-29.88
-36.42
-44.80
-53.02
-58.53
-59.46
-55.36
-47.26
-36.95
-26.03
-15.21
-4.30
7.20
19.19
30.54
39.36
43.98
43.81
39.81
34.10
29.03
25.98
24.90
24.48
23.13
19.91
15.02
9.66
5.27
2.58
1.20
-0.20
-3.01
-7.87
-14.28
-20.92
-26.44
-30.42
-33.54
-37.07
-41.88
-47.55
-52.27
-53.52
-49.32
-39.30
-25.00
-9.17
5.50
17.47
26.70
34.19
40.94
47.07
51.63
53.20
50.89
45.05
37.35
30.02
24.87
22.32
21.34
20.08
16.96
11.58
4.83
-1.57
-6.15
-8.52
-9.69
-11.47
-15.55
-22.51
-31.51
-40.60
-47.60
-51.06
-50.69
-47.23
-41.76
-34.90
-26.60
-16.29
-3.64
10.75
25.12
37.05
44.47
46.58
44.19
39.38
34.42
30.74
28.36
26.15
22.79
17.68
11.34
5.25
0.87
-1.24
-1.76
-2.28
-4.34
-8.50
-14.13
-19.76
-24.14
-27.02
-29.33
-32.54
-37.49
-43.64
-49.03
-51.09
-47.89
-39.16
-26.46
-12.46
0.33
10.53
18.15
24.18
29.60
34.51
38.01
38.74
35.91
29.98
22.64
16.19
12.37
11.45
12.13
12.30
10.24
5.52
-0.77
-6.69
-10.58
-12.03
-12.07
-12.61
-15.36
-20.92
-28.62
-36.75
-43.49
-47.64
-48.95
-47.89
-45.05
-40.56
-34.04
-24.91
-13.03
0.69
14.33
25.45
32.12
33.73
31.19
26.56
22.01
18.84
17.01
15.45
12.95
9.00
4.15
-0.32
-3.20
-4.20
-4.21
-4.84
-7.41
-12.24
-18.41
-24.29
-28.62
-31.27
-33.40
-36.66
-41.99
-48.75
-54.79
-57.27
-54.10
-44.95
-31.49
-16.59
-2.90
8.05
16.26
22.72
28.45
33.59
37.34
38.40
35.98
30.44
23.31
16.70
12.27
10.37
9.91
9.00
6.08
0.77
-5.95
-12.22
-16.46
-18.26
-18.71
-19.79
-23.34
-30.00
-38.84
-47.69
-54.05
-56.23
-53.84
-47.73
-39.23
-29.40
-18.62
-6.63
6.77
21.06
34.77
45.77
52.33
53.84
51.19
46.42
41.67
38.16
35.77
33.31
29.49
23.77
16.76
9.97
4.92
2.18
1.07
-0.01
-2.62
-7.43
-13.94
-20.83
-26.88
-31.74
-36.11
-41.09
-47.16
-53.47
-57.88
-57.73
-51.19
-38.25
-20.85
-2.06
15.22
29.34
40.17
48.63
55.66
61.35
64.89
65.05
61.27
54.23
45.79
38.30
33.38
31.14
30.18
28.43
24.34
17.72
9.81
2.58
-2.42
-4.91
-6.04
-7.75
-11.76
-18.72
-27.99
-37.83
-46.25
-51.74
-53.64
-52.06
-47.45
-40.13
-30.11
-17.27
-1.87
14.90
30.86
43.47
50.75
52.16
48.85
43.19
37.63
33.62
31.15
29.13
26.35
22.30
17.51
13.24
10.53
9.50
9.18
7.99
4.72
-0.77
-7.42
-13.53
-17.87
-20.54
-23.03
-27.38
-34.83
-44.77
-54.69
-61.10
-61.17
-54.10
-41.46
-26.34
-11.81
0.33
10.01
18.35
26.47
34.45
41.08
44.55
43.49
37.88
29.08
19.15
9.67
0.77
-8.74
-20.44
-35.01
-51.33
-66.66
-77.69
-82.02
-79.17
-70.59
-58.61
-45.12
-30.83
-15.31
2.21
21.80
42.37
62.10
79.23
93.06
104.16
113.88
123.53
133.46
142.66
149.30
151.60
148.70
140.98
129.55
115.61
99.70
81.52
60.56
36.82
11.55
-12.90
-33.75
-48.79
-57.36
-60.55
-60.71
-60.46
-61.56
-64.44
-68.31
-71.92
-74.52
-76.47
-79.16
-84.12
-91.91
-101.40
-109.88
-114.03
-111.42
-101.65
-86.44
-68.75
-51.29
-35.46
-21.08
-7.16
7.00
20.85
32.73
40.68
43.73
42.49
39.03
35.91
34.83
35.76
37.10
36.65
32.99
26.31
18.39
11.61
7.71
6.75
7.16
6.59
3.18
-3.59
-12.70
-22.14
-29.92
-34.86
-36.82
-36.27
-33.68
-29.08
-22.06
-12.27
-0.05
13.16
25.05
33.29
36.51
34.91
30.11
24.45
19.81
16.82
14.88
12.85
9.94
6.37
3.20
1.66
2.24
4.18
5.72
5.04
1.26
-5.12
-12.45
-18.88
-23.41
-26.36
-29.15
-33.20
-38.92
-45.19
-49.72
-49.98
-44.56
-33.84
-19.84
-5.37
7.25
16.86
23.62
28.43
32.03
34.52
35.30
33.74
29.82
24.38
18.95
14.90
12.75
11.79
10.51
7.50
2.29
-4.28
-10.43
-14.42
-15.52
-14.58
-13.69
-15.19
-20.44
-29.18
-39.45
-48.47
-53.81
-54.29
-50.27
-43.07
-34.06
-24.05
-13.02
-0.69
12.80
26.28
37.75
45.25
47.77
45.83
41.32
36.63
33.42
31.90
30.92
28.84
24.60
18.43
11.73
6.24
2.88
1.15
-0.63
-4.26
-10.56
-18.96
-27.79
-35.30
-40.66
-44.21
-46.93
-49.36
-50.92
-49.98
-44.66
-33.95
-18.53
-0.72
16.37
30.08
39.15
43.93
45.96
46.95
47.91
48.68
48.19
45.28
39.58
31.84
23.76
17.21
13.20
11.43
10.39
8.29
4.04
-2.14
-8.96
-14.78
-18.81
-21.69
-25.18
-31.07
-39.83
-49.96
-58.32
-61.48
-57.39
-46.37
-30.92
-14.42
0.47
12.79
23.17
32.78
42.12
50.36
55.72
56.67
52.99
46.08
38.45
32.43
29.09
27.77
26.57
23.57
17.91
10.27
2.46
-3.51
-6.64
-7.48
-7.81
-9.79
-14.77
-22.79
-32.46
-41.72
-48.71
-52.41
-52.79
-50.23
-45.03
-37.08
-25.95
-11.51
5.49
23.11
38.68
49.78
55.11
55.11
51.68
47.23
43.54
41.08
38.96
35.85
30.86
24.18
17.03
10.98
6.99
4.85
3.35
0.99
-3.13
-8.80
-14.91
-20.17
-24.09
-27.37
-31.47
-37.55
-45.35
-52.94
-57.29
-55.74
-47.29
-33.27
-16.60
-0.46
13.07
23.58
31.97
39.30
45.84
50.71
52.43
50.01
43.79
35.54
27.74
22.46
20.26
20.00
19.51
16.88
11.48
4.31
-2.58
-7.32
-9.30
-9.51
-10.05
-12.93
-19.04
-27.80
-37.44
-45.82
-51.35
-53.40
-52.24
-48.40
-42.26
-33.75
-22.61
-8.83
6.73
22.21
35.18
43.51
46.32
44.34
39.69
34.87
31.61
30.15
29.35
27.63
23.95
18.41
12.17
6.78
3.18
1.24
-0.12
-2.21
-5.78
-10.73
-16.12
-20.98
-24.96
-28.68
-33.29
-39.51
-46.85
-53.39
-56.42
-53.59
-44.19
-29.62
-12.79
3.12
16.03
25.45
32.25
37.62
42.14
45.28
45.90
43.17
37.29
29.70
22.48
17.39
14.92
14.10
13.07
10.17
4.91
-1.86
-8.31
-12.80
-14.82
-15.33
-16.28
-19.60
-26.11
-35.15
-44.78
-52.64
-56.99
-57.24
-53.94
-48.04
-40.33
-30.98
-19.73
-6.46
8.11
22.29
33.76
40.57
42.03
39.09
33.99
29.16
26.13
24.88
24.10
22.13
18.00
11.96
5.35
-0.21
-3.74
-5.47
-6.62
-8.67
-12.50
-18.07
-24.50
-30.80
-36.46
-41.66
-46.84
-51.95
-55.94
-56.93
-52.95
-42.99
-27.78
-9.73
7.97
22.62
32.95
39.32
43.16
45.95
48.28
49.65
48.94
45.34
39.04
31.33
24.11
18.87
15.95
14.36
12.37
8.58
2.70
-4.34
-10.86
-15.52
-18.23
-20.24
-23.55
-29.67
-38.59
-48.54
-56.53
-59.69
-56.54
-47.58
-34.89
-20.99
-7.74
4.30
15.57
26.72
37.64
47.16
53.49
55.31
52.54
46.58
39.78
34.24
30.92
29.23
27.54
24.27
18.79
11.76
4.84
-0.35
-3.15
-4.24
-5.32
-8.19
-13.81
-21.97
-31.40
-40.49
-47.94
-53.13
-55.90
-56.10
-53.25
-46.64
-35.72
-20.71
-2.97
15.17
31.03
42.54
48.92
50.74
49.59
47.25
44.88
42.64
39.96
36.14
31.03
25.21
19.82
15.89
13.67
12.40
10.71
7.41
2.22
-4.14
-10.27
-15.03
-18.29
-21.22
-25.62
-32.77
-42.53
-52.97
-61.01
-63.70
-59.55
-49.13
-34.70
-19.13
-4.59
8.03
19.09
29.26
38.63
46.27
50.65
50.63
46.33
39.34
32.20
27.15
25.06
25.02
24.97
22.91
18.08
11.33
4.67
0.03
-1.92
-2.15
-2.75
-5.65
-11.66
-20.13
-29.37
-37.64
-44.03
-48.59
-51.76
-53.62
-53.41
-49.78
-41.52
-28.45
-11.88
5.64
21.24
32.81
39.65
42.49
42.97
42.64
42.25
41.59
39.88
36.52
31.64
26.14
21.30
17.99
16.15
14.78
12.49
8.34
2.38
-4.28
-10.08
-13.91
-15.88
-17.41
-20.55
-26.86
-36.32
-47.08
-55.98
-59.96
-57.34
-48.58
-35.87
-21.95
-8.85
2.75
13.38
23.72
33.67
42.01
46.97
47.32
43.28
36.64
30.00
25.51
23.76
23.63
23.00
20.04
14.27
6.79
-0.25
-5.00
-6.90
-7.03
-7.43
-9.96
-15.32
-22.82
-30.86
-37.97
-43.49
-47.72
-51.17
-53.81
-54.60
-51.87
-44.16
-31.22
-14.54
3.07
18.50
29.50
35.43
37.17
36.46
34.93
33.33
31.42
28.45
23.91
17.96
11.50
5.78
1.61
-1.05
-3.17
-6.04
-10.52
-16.48
-22.84
-28.12
-31.37
-32.87
-34.10
-36.97
-42.60
-50.49
-58.42
-63.29
-62.55
-55.38
-42.98
-27.87
-12.66
1.07
13.01
23.72
33.60
42.23
48.38
50.64
48.49
42.76
35.47
29.05
25.14
23.89
23.98
23.48
20.93
16.13
10.21
4.88
1.43
-0.18
-1.29
-3.86
-9.38
-18.14
-29.02
-39.97
-48.85
-54.25
-55.76
-53.73
-48.72
-41.03
-30.65
-17.49
-1.87
15.00
31.10
44.12
52.37
55.39
54.27
51.06
47.86
45.72
44.31
42.28
38.30
31.99
24.27
16.93
11.59
8.74
7.36
5.63
1.94
-4.20
-11.98
-19.85
-26.59
-31.99
-36.79
-41.86
-47.23
-51.62
-52.80
-48.65
-38.36
-22.98
-5.13
12.03
26.06
35.98
42.28
46.29
49.21
51.39
52.28
50.96
46.94
40.72
33.71
27.62
23.57
21.45
20.01
17.60
13.12
6.60
-0.76
-7.31
-11.92
-14.73
-17.17
-21.15
-28.04
-37.71
-48.30
-56.85
-60.57
-58.01
-49.70
-37.73
-24.62
-12.19
-0.84
10.14
21.55
33.28
43.89
51.25
53.75
51.31
45.58
39.26
34.66
32.57
31.98
30.85
27.41
21.21
13.38
6.00
0.83
-1.68
-2.59
-3.81
-7.02
-12.83
-20.56
-28.75
-36.04
-41.82
-46.24
-49.68
-52.03
-52.38
-49.26
-41.40
-28.58
-12.12
5.44
21.20
33.02
40.15
43.30
44.02
43.78
43.27
42.19
39.80
35.59
29.81
23.55
18.23
14.78
13.07
11.94
9.88
5.89
0.10
-6.30
-11.72
-15.16
-16.90
-18.51
-21.98
-28.61
-38.11
-48.43
-56.48
-59.50
-56.23
-47.39
-35.17
-22.08
-9.81
1.30
11.86
22.44
32.69
41.14
45.92
45.86
41.35
34.39
27.66
23.21
21.44
21.06
19.97
16.61
10.88
4.14
-1.53
-4.68
-5.31
-4.88
-5.53
-8.85
-15.16
-23.40
-31.80
-38.85
-43.89
-47.12
-48.98
-49.49
-47.95
-43.17
-34.26
-21.34
-5.90
9.52
22.32
30.80
34.70
35.17
34.03
32.81
32.03
31.17
29.17
25.29
19.68
13.38
7.90
4.25
2.41
1.27
-0.66
-4.41
-9.93
-16.11
-21.44
-25.08
-27.47
-30.18
-34.94
-42.44
-51.60
-59.78
-63.81
-61.53
-52.76
-39.35
-24.22
-9.91
2.32
12.68
22.15
31.35
39.77
45.95
48.24
45.99
40.11
32.84
26.71
23.26
22.30
22.11
20.53
16.21
9.43
1.94
-4.06
-7.27
-8.07
-8.44
-10.89
-17.09
-26.96
-38.62
-49.24
-56.34
-58.71
-56.70
-51.54
-44.39
-35.75
-25.31
-12.55
2.37
18.16
32.58
43.26
48.74
49.17
46.13
41.97
38.59
36.61
35.32
33.31
29.42
23.55
16.72
10.56
6.28
3.99
2.60
0.52
-3.43
-9.44
-16.69
-23.95
-30.43
-36.20
-41.93
-48.10
-54.19
-58.51
-58.73
-52.97
-40.92
-24.19
-5.78
11.16
24.55
33.89
40.06
44.38
47.72
49.95
50.24
47.85
42.85
36.31
29.95
25.29
22.80
21.74
20.48
17.53
12.36
5.69
-0.92
-5.94
-8.81
-10.40
-12.65
-17.50
-25.86
-36.92
-48.31
-57.05
-60.73
-58.50
-51.19
-40.66
-28.80
-16.70
-4.47
8.24
21.40
33.98
44.17
50.15
51.17
47.97
42.66
37.64
34.47
33.18
32.40
30.36
25.97
19.50
12.42
6.58
3.16
1.93
1.41
-0.28
-4.40
-10.98
-18.90
-26.66
-33.29
-38.81
-43.93
-49.14
-53.93
-56.64
-55.12
-47.79
-34.72
-17.79
-0.06
15.56
27.28
34.91
39.50
42.47
44.66
45.98
45.63
42.90
37.85
31.54
25.65
21.62
19.84
19.35
18.32
15.11
9.24
1.68
-5.59
-10.69
-12.95
-13.34
-14.07
-17.38
-24.39
-34.51
-45.56
-54.74
-59.75
-59.67
-55.04
-47.21
-37.53
-26.72
-14.76
-1.44
12.88
26.88
38.49
45.79
47.91
45.60
40.88
36.13
32.95
31.45
30.48
28.42
24.29
18.28
11.70
6.23
2.89
1.50
0.75
-1.03
-4.89
-10.83
-17.81
-24.50
-30.13
-34.95
-39.84
-45.48
-51.50
-56.26
-57.40
-53.02
-42.72
-27.97
-11.53
3.77
16.13
25.24
31.94
37.34
41.89
45.14
46.07
43.91
38.87
32.24
25.95
21.59
19.61
19.08
18.25
15.56
10.58
4.19
-1.84
-5.96
-7.75
-8.29
-9.55
-13.45
-20.72
-30.62
-41.11
-49.80
-54.94
-55.92
-53.20
-47.69
-40.13
-30.77
-19.44
-6.10
8.50
22.73
34.38
41.60
43.71
41.53
37.09
32.66
29.68
28.24
27.22
25.20
21.34
15.89
10.04
5.20
2.13
0.50
-0.87
-3.27
-7.40
-13.05
-19.29
-25.13
-30.17
-34.79
-39.79
-45.56
-51.55
-56.16
-57.27
-53.24
-43.83
-30.38
-15.39
-1.36
10.07
18.61
24.97
30.11
34.41
37.37
38.01
35.68
30.65
24.23
18.27
14.22
12.42
11.94
11.11
8.47
3.59
-2.78
-9.09
-13.92
-16.82
-18.60
-20.91
-25.32
-32.47
-41.64
-50.93
-58.05
-61.24
-59.92
-54.65
-46.61
-36.85
-25.86
-13.52
0.27
15.02
29.26
40.93
48.27
50.70
49.10
45.53
42.13
40.09
39.15
37.97
35.09
29.86
22.93
15.86
10.29
6.90
5.09
3.29
-0.08
-5.79
-13.42
-21.77
-29.54
-36.12
-41.66
-46.64
-51.02
-53.87
-53.53
-48.37
-37.73
-22.52
-4.99
12.09
26.49
37.23
44.54
49.44
52.90
55.25
56.13
54.82
50.99
45.08
38.23
31.94
27.23
24.16
21.78
18.71
13.98
7.65
0.78
-5.15
-9.09
-11.26
-13.11
-16.68
-23.53
-33.72
-45.62
-56.29
-62.72
-62.99
-56.99
-46.29
-33.17
-19.55
-6.34
6.61
19.71
32.79
44.68
53.53
57.82
57.25
53.01
47.35
42.52
39.61
38.21
36.77
33.67
28.20
20.96
13.58
7.78
4.38
2.86
1.64
-1.00
-5.98
-12.99
-20.73
-27.84
-33.75
-39.02
-44.78
-51.70
-59.12
-64.94
-66.39
-61.36
-49.55
-32.75
-14.09
3.43
18.02
29.52
38.86
47.07
54.28
59.65
61.90
60.35
55.52
49.11
43.28
39.60
38.25
38.09
37.38
34.86
30.47
25.31
21.01
18.75
18.42
18.66
17.57
13.76
7.25
-0.41
-6.76
-9.53
-7.74
-2.13
5.25
12.06
16.71
18.91
19.50
19.72
20.23
20.72
20.11
17.43
12.52
6.35
0.63
-3.09
-4.35
-3.97
-3.71
-5.12
-8.77
-13.89
-18.90
-22.30
-23.69
-23.95
-24.76
-27.57
-32.76
-39.39
-45.71
-50.24
-52.61
-53.89
-55.96
-60.34
-67.24
-75.20
-81.63
-83.98
-80.87
-72.61
-60.88
-47.68
-34.45
-21.60
-8.80
4.20
16.86
27.73
34.99
37.55
35.64
30.96
25.94
22.68
21.93
22.87
23.69
22.72
19.26
13.96
8.43
4.18
1.79
0.59
-0.91
-4.03
-9.19
-15.73
-22.31
-27.85
-32.19
-36.11
-40.66
-46.17
-51.69
-55.17
-54.39
-48.08
-36.67
-22.20
-7.43
5.41
15.38
22.87
29.01
34.66
39.78
43.45
44.44
42.17
37.12
30.85
25.23
21.56
19.89
19.05
17.38
13.69
7.95
1.29
-4.63
-8.60
-10.60
-11.89
-14.34
-19.43
-27.48
-37.45
-47.32
-55.02
-59.20
-59.60
-56.79
-51.59
-44.43
-35.21
-23.47
-9.05
7.24
23.57
37.54
47.14
51.62
51.77
49.48
46.79
44.84
43.50
41.70
38.33
33.02
26.50
20.20
15.46
12.71
11.27
9.71
6.75
1.86
-4.44
-11.05
-17.05
-22.36
-27.71
-34.10
-41.70
-49.46
-55.16
-56.32
-51.43
-40.77
-26.31
-10.82
3.41
15.33
25.23
34.01
42.22
49.49
54.54
56.01
53.28
46.96
38.76
30.73
24.26
19.49
15.39
10.51
4.01
-3.78
-11.40
-17.05
-19.59
-19.24
-17.60
-16.87
-18.72
-23.60
-30.49
-37.50
-42.71
-45.02
-44.31
-41.14
-36.13
-29.48
-20.88
-9.87
3.54
18.40
32.81
44.52
51.77
54.00
52.11
47.98
43.63
40.28
38.02
36.02
33.40
29.80
25.68
21.98
19.32
17.46
15.30
11.45
5.19
-3.05
-11.78
-19.22
-24.28
-27.27
-29.68
-33.24
-38.81
-45.67
-51.66
-54.13
-51.20
-42.71
-30.24
-16.31
-3.14
8.21
17.97
27.03
35.95
44.27
50.53
53.12
51.30
45.81
38.68
32.35
28.46
27.10
26.82
25.61
22.04
16.02
8.86
2.47
-1.79
-3.85
-4.96
-6.97
-11.21
-17.89
-26.00
-33.96
-40.46
-44.98
-47.78
-49.26
-49.40
-47.50
-42.48
-33.53
-20.81
-5.75
9.36
22.10
30.91
35.51
36.88
36.69
36.37
36.47
36.58
35.80
33.49
29.76
25.56
22.16
20.41
20.18
20.42
19.75
17.31
13.24
8.57
4.65
2.25
1.01
-0.45
-3.74
-9.70
-17.68
-25.59
-30.63
-30.59
-24.84
-14.57
-2.15
10.05
20.62
29.43
37.18
44.42
50.85
55.28
56.32
53.32
46.92
38.86
31.17
25.15
20.73
16.75
11.73
4.88
-3.46
-11.99
-19.21
-24.22
-27.27
-29.59
-32.70
-37.70
-44.79
-53.25
-61.87
-69.43
-75.18
-78.80
-80.15
-78.99
-74.88
-67.29
-55.94
-41.21
-24.35
-7.30
7.86
19.56
27.22
31.36
33.19
33.90
34.06
33.48
31.63
28.19
23.55
18.68
14.73
12.25
10.87
9.50
6.95
2.67
-3.01
-9.10
-14.56
-19.02
-23.00
-27.60
-33.76
-41.48
-49.47
-55.57
-57.44
-53.69
-44.48
-31.40
-16.72
-2.38
10.62
22.24
32.86
42.54
50.56
55.68
56.88
54.00
48.11
41.11
34.93
30.66
28.08
25.91
22.60
17.31
10.33
3.05
-2.89
-6.47
-7.99
-8.90
-11.10
-15.94
-23.57
-32.98
-42.43
-50.30
-55.60
-58.02
-57.59
-54.34
-48.06
-38.53
-25.82
-10.68
5.37
20.39
32.54
40.74
44.89
45.83
44.87
43.16
41.22
38.89
35.74
31.58
26.75
22.02
18.20
15.60
13.81
11.85
8.82
4.37
-1.11
-6.67
-11.41
-15.04
-18.13
-21.84
-27.16
-34.25
-42.10
-48.67
-51.74
-49.82
-42.83
-32.12
-19.74
-7.50
3.63
13.66
23.02
31.80
39.33
44.35
45.75
43.36
38.19
32.16
27.17
24.25
23.05
22.19
20.11
15.98
10.11
3.79
-1.43
-4.69
-6.23
-7.29
-9.38
-13.49
-19.62
-26.90
-34.03
-39.94
-44.12
-46.52
-47.22
-45.98
-42.24
-35.37
-25.12
-12.09
2.22
15.75
26.56
33.50
36.47
36.39
34.66
32.49
30.41
28.26
25.54
21.94
17.67
13.36
9.74
7.12
5.14
2.97
-0.21
-4.70
-10.06
-15.37
-19.77
-23.06
-25.91
-29.58
-35.06
-42.35
-50.11
-56.05
-57.81
-54.03
-45.01
-32.46
-18.73
-5.72
5.64
15.45
24.17
31.92
38.06
41.54
41.55
38.21
32.69
26.79
22.08
19.19
17.56
15.84
12.80
7.98
1.99
-3.88
-8.36
-11.03
-12.57
-14.38
-17.93
-23.94
-32.07
-41.03
-49.16
-55.04
-57.90
-57.62
-54.41
-48.50
-39.97
-28.85
-15.36
-0.28
14.99
28.68
39.20
45.62
48.03
47.41
45.20
42.61
40.12
37.43
33.91
29.17
23.47
17.69
12.91
9.67
7.67
5.87
3.11
-1.25
-6.99
-13.29
-19.25
-24.63
-29.87
-35.73
-42.43
-49.16
-54.12
-55.17
-50.83
-41.02
-27.22
-11.81
2.91
15.48
25.56
33.59
40.15
45.36
48.77
49.67
47.72
43.38
37.84
32.64
28.95
26.98
25.94
24.52
21.64
17.01
11.31
5.69
1.23
-1.83
-4.16
-7.01
-11.55
-18.19
-26.36
-34.51
-40.72
-43.33
-41.54
-35.54
-26.19
-14.58
-1.54
12.45
27.04
41.55
54.71
64.85
70.59
71.46
68.28
62.92
57.40
53.00
49.78
46.72
42.55
36.58
29.13
21.33
14.51
9.34
5.49
1.90
-2.56
-8.34
-15.03
-21.60
-27.18
-31.75
-36.20
-41.82
-49.23
-57.71
-65.15
-68.86
-66.78
-58.49
-45.41
-30.17
-15.37
-2.61
7.77
16.36
23.83
30.25
34.95
36.95
35.71
31.58
25.88
20.32
16.26
14.05
12.89
11.31
8.04
2.76
-3.73
-9.86
-14.17
-16.13
-16.41
-16.63
-18.47
-22.94
-29.92
-38.24
-46.24
-52.43
-55.90
-56.45
-54.25
-49.51
-42.29
-32.54
-20.35
-6.44
7.81
20.52
29.96
35.25
36.68
35.52
33.42
31.48
29.90
27.94
24.76
19.97
14.10
8.37
4.02
1.51
0.27
-1.04
-3.73
-8.28
-14.09
-19.85
-24.34
-27.31
-29.68
-33.09
-38.78
-46.69
-55.14
-61.32
-62.57
-57.58
-46.96
-32.92
-18.13
-4.55
7.12
17.31
26.76
35.62
43.08
47.73
48.45
45.22
39.35
32.97
28.04
25.36
24.28
23.17
20.38
15.30
8.64
2.08
-2.70
-5.04
-5.69
-6.48
-9.34
-15.37
-24.26
-34.45
-43.93
-51.02
-54.86
-55.50
-53.27
-48.40
-40.79
-30.19
-16.63
-0.97
15.09
29.40
40.11
46.33
48.43
47.79
46.05
44.38
42.97
41.23
38.39
34.09
28.78
23.46
19.12
16.12
13.95
11.51
7.81
2.53
-3.84
-10.17
-15.50
-19.66
-23.42
-28.11
-34.74
-43.15
-51.74
-57.99
-59.44
-54.89
-44.91
-31.50
-17.13
-3.63
8.35
19.20
29.50
39.22
47.37
52.50
53.50
50.44
44.75
38.62
34.00
31.65
30.80
29.71
26.70
21.16
13.89
6.72
1.42
-1.27
-2.05
-2.70
-5.05
-10.07
-17.46
-25.97
-34.08
-40.81
-45.86
-49.37
-51.24
-50.86
-47.20
-39.31
-27.09
-11.66
4.82
19.83
31.35
38.57
41.95
42.78
42.46
41.83
40.91
39.15
35.95
31.20
25.50
19.91
15.44
12.48
10.56
8.62
5.68
1.40
-3.68
-8.48
-12.07
-14.43
-16.58
-20.10
-26.22
-34.86
-44.39
-52.12
-55.46
-53.10
-45.50
-34.53
-22.45
-10.84
-0.16
10.03
20.20
30.06
38.38
43.52
44.37
41.12
35.35
29.32
24.88
22.54
21.40
19.74
16.15
10.39
3.58
-2.51
-6.45
-8.02
-8.33
-9.20
-12.14
-17.67
-25.17
-33.35
-40.99
-47.44
-52.60
-56.48
-58.68
-58.26
-54.07
-45.28
-32.10
-15.93
0.95
16.18
28.07
36.08
40.76
43.22
44.46
44.87
44.17
41.89
37.87
32.56
26.96
22.08
18.46
15.84
13.33
9.97
5.29
-0.37
-6.14
-11.00
-14.52
-17.21
-20.34
-25.34
-32.83
-42.21
-51.58
-58.41
-60.59
-57.27
-49.11
-37.79
-25.12
-12.25
0.50
13.31
26.13
38.10
47.67
53.31
54.35
51.43
46.36
41.32
37.77
35.91
34.66
32.46
28.25
22.10
15.20
9.18
5.15
3.06
1.72
-0.48
-4.69
-11.09
-18.94
-27.03
-34.44
-40.83
-46.26
-50.67
-53.40
-53.26
-48.94
-39.75
-26.16
-9.92
6.54
20.88
31.71
38.82
42.96
45.27
46.54
46.92
45.96
43.20
38.63
32.89
27.08
22.23
18.77
16.30
13.89
10.59
6.05
0.67
-4.56
-8.71
-11.49
-13.55
-16.28
-21.02
-28.32
-37.46
-46.53
-53.14
-55.41
-52.69
-45.71
-36.00
-25.10
-13.96
-2.77
8.63
20.07
30.67
38.97
43.61
44.00
40.79
35.67
30.64
27.09
25.17
23.91
21.88
18.08
12.54
6.33
0.98
-2.46
-4.05
-4.87
-6.45
-9.87
-15.35
-22.21
-29.39
-36.17
-42.35
-48.10
-53.31
-57.19
-58.34
-55.24
-47.07
-34.33
-18.80
-2.99
10.87
21.53
28.90
33.74
36.97
39.08
39.93
39.05
36.12
31.35
25.58
19.87
15.15
11.71
9.12
6.52
3.10
-1.39
-6.58
-11.59
-15.59
-18.38
-20.61
-23.63
-28.71
-36.25
-45.31
-53.77
-59.11
-59.49
-54.48
-45.07
-33.06
-20.12
-7.20
5.54
18.25
30.68
41.77
49.93
53.81
53.11
48.89
43.17
38.06
34.67
32.73
30.86
27.61
22.31
15.56
8.85
3.65
0.55
-1.11
-2.89
-6.30
-12.07
-19.93
-28.80
-37.41
-44.84
-50.57
-54.35
-55.81
-54.38
-49.39
-40.45
-27.80
-12.49
3.79
19.09
31.79
40.93
46.41
48.85
49.26
48.50
46.98
44.64
41.28
36.85
31.73
26.63
22.29
18.97
16.30
13.40
9.49
4.29
-1.71
-7.57
-12.47
-16.39
-20.22
-25.33
-32.66
-41.96
-51.54
-58.80
-61.30
-57.81
-48.86
-36.34
-22.56
-9.23
3.04
14.53
25.65
36.23
45.24
51.20
53.05
50.86
45.86
40.06
35.20
32.06
30.15
28.18
24.94
19.97
13.85
7.80
3.03
-0.05
-1.99
-3.97
-7.18
-12.19
-18.77
-26.12
-33.28
-39.61
-44.86
-48.88
-51.29
-51.28
-47.78
-40.00
-27.91
-12.66
3.70
18.74
30.59
38.39
42.49
44.03
44.26
43.89
42.92
40.80
37.10
31.92
26.05
20.63
16.60
14.12
12.51
10.61
7.45
2.81
-2.68
-7.87
-11.80
-14.37
-16.42
-19.41
-24.53
-31.98
-40.72
-48.68
-53.62
-54.06
-49.78
-41.75
-31.50
-20.43
-9.31
1.75
12.75
23.31
32.37
38.57
40.87
39.27
34.91
29.71
25.47
23.00
21.85
20.68
18.16
13.79
8.15
2.61
-1.54
-3.86
-4.97
-6.21
-8.78
-13.20
-19.11
-25.60
-31.91
-37.76
-43.33
-48.77
-53.64
-56.75
-56.48
-51.49
-41.48
-27.55
-11.90
2.94
15.05
23.60
28.95
32.06
33.88
34.76
34.53
32.81
29.52
25.16
20.67
17.03
14.64
13.12
11.49
8.70
4.28
-1.37
-7.17
-11.93
-15.01
-16.86
-18.78
-22.39
-28.64
-37.21
-46.45
-53.90
-57.29
-55.51
-48.88
-38.84
-27.13
-15.02
-2.99
8.97
20.84
31.93
40.94
46.47
47.76
45.22
40.37
35.23
31.38
29.28
28.17
26.64
23.54
18.65
12.82
7.43
3.52
1.16
-0.56
-3.02
-7.27
-13.47
-20.99
-28.76
-35.85
-41.80
-46.47
-49.65
-50.79
-49.00
-43.47
-33.91
-20.93
-6.03
8.77
21.64
31.41
37.88
41.65
43.70
44.79
45.10
44.33
42.06
38.17
33.14
27.88
23.29
19.83
17.16
14.48
10.92
6.14
0.55
-4.92
-9.30
-12.26
-14.41
-17.13
-21.90
-29.41
-38.99
-48.66
-55.82
-58.29
-55.20
-47.30
-36.39
-24.40
-12.59
-1.29
9.79
20.74
30.96
39.14
43.88
44.53
41.63
36.82
32.12
28.94
27.46
26.68
25.16
21.87
16.82
11.04
5.92
2.39
0.34
-1.28
-3.80
-7.99
-13.66
-19.84
-25.46
-30.11
-34.27
-38.85
-44.34
-50.12
-54.38
-54.88
-49.98
-39.54
-25.15
-9.45
4.99
16.55
24.92
30.76
34.95
37.97
39.59
39.22
36.48
31.67
25.82
20.34
16.36
14.17
13.03
11.58
8.60
3.75
-2.24
-8.01
-12.26
-14.67
-16.10
-18.21
-22.62
-30.02
-39.78
-50.10
-58.67
-63.57
-63.82
-59.64
-51.99
-42.07
-30.76
-18.45
-5.25
8.54
22.05
33.86
42.47
46.95
47.46
45.25
42.09
39.37
37.52
35.91
33.45
29.39
23.83
17.75
12.44
8.70
6.39
4.50
1.73
-2.75
-8.92
-16.03
-23.10
-29.58
-35.61
-41.63
-47.77
-53.27
-56.53
-55.63
-49.27
-37.51
-21.92
-5.02
10.72
23.68
33.45
40.61
45.96
49.93
52.30
52.43
49.93
45.09
39.03
33.29
29.13
26.87
25.71
24.18
20.95
15.58
8.71
1.79
-3.79
-7.48
-9.88
-12.50
-16.91
-23.97
-33.27
-43.25
-51.66
-56.50
-56.70
-52.36
-44.48
-34.36
-23.01
-10.79
2.26
15.99
29.53
41.36
49.74
53.56
52.95
49.34
44.81
41.09
38.78
37.14
34.85
30.83
25.03
18.49
12.68
8.62
6.25
4.48
1.93
-2.21
-7.77
-13.82
-19.36
-24.16
-28.93
-34.81
-42.39
-50.96
-58.44
-62.10
-59.77
-50.89
-36.85
-20.30
-4.06
10.02
21.45
30.79
38.77
45.54
50.41
52.29
50.50
45.47
38.71
32.28
27.82
25.71
24.97
23.83
20.80
15.46
8.75
2.38
-2.11
-4.28
-5.00
-6.06
-9.19
-15.24
-23.78
-33.39
-42.32
-49.16
-53.22
-54.43
-52.94
-48.78
-41.77
-31.72
-18.82
-3.99
11.10
24.43
34.26
39.73
41.13
39.75
37.23
34.81
32.89
30.96
28.16
23.92
18.44
12.64
7.67
4.19
1.95
-0.02
-2.85
-7.10
-12.40
-17.72
-22.07
-25.27
-28.23
-32.41
-38.82
-47.16
-55.56
-61.21
-61.60
-55.72
-44.50
-30.33
-15.86
-2.88
8.14
17.87
27.04
35.64
42.66
46.56
46.30
42.12
35.67
29.24
24.69
22.46
21.46
19.81
15.98
9.75
2.33
-4.31
-8.57
-10.18
-10.39
-11.26
-14.69
-21.41
-30.73
-40.84
-49.61
-55.45
-57.74
-56.66
-52.73
-46.26
-37.14
-25.07
-10.19
6.49
23.00
36.92
46.33
50.54
50.37
47.70
44.52
41.99
40.07
37.84
34.31
29.16
23.01
17.13
12.67
9.91
8.09
5.85
2.02
-3.70
-10.62
-17.55
-23.68
-29.05
-34.53
-40.99
-48.37
-55.26
-59.22
-57.85
-50.02
-36.54
-19.89
-3.13
11.44
22.90
31.71
38.89
45.09
50.09
52.98
52.87
49.64
44.15
37.95
32.60
28.82
26.27
23.80
20.20
14.95
8.47
1.94
-3.34
-6.76
-8.76
-10.78
-14.57
-21.26
-30.74
-41.45
-50.89
-56.59
-57.06
-52.29
-43.54
-32.54
-20.64
-8.38
4.38
17.66
30.73
42.03
49.66
52.45
50.62
45.79
40.30
36.02
33.55
32.12
30.27
26.85
21.66
15.57
9.93
5.65
2.74
0.24
-3.09
-8.03
-14.46
-21.49
-28.06
-33.63
-38.48
-43.29
-48.42
-53.24
-56.06
-54.84
-48.13
-35.98
-20.12
-3.30
11.75
23.41
31.41
36.59
40.12
42.70
44.28
44.24
42.02
37.68
32.07
26.52
22.19
19.49
17.85
16.00
12.73
7.60
1.20
-5.07
-9.78
-12.37
-13.52
-14.97
-18.52
-25.09
-34.10
-43.52
-50.72
-53.59
-51.34
-44.69
-35.23
-24.54
-13.61
-2.58
8.73
20.12
30.68
38.88
43.31
43.44
40.03
34.87
30.00
26.70
24.98
23.71
21.44
17.26
11.36
4.89
-0.63
-4.23
-5.98
-6.99
-8.69
-12.13
-17.44
-23.90
-30.39
-36.06
-40.63
-44.32
-47.24
-49.00
-48.58
-44.73
-36.66
-24.63
-10.16
4.50
17.10
26.20
31.55
33.95
34.63
34.57
34.03
32.56
29.52
24.67
18.48
12.16
7.02
3.79
2.21
1.08
-0.99
-4.79
-9.99
-15.40
-19.64
-22.21
-23.87
-26.42
-31.58
-39.86
-49.95
-58.98
-63.77
-62.29
-54.53
-42.41
-28.67
-15.54
-3.94
6.54
16.74
26.86
36.02
42.57
45.11
43.40
38.67
33.06
28.53
25.96
24.78
23.46
20.52
15.41
8.76
2.08
-3.12
-6.16
-7.55
-8.75
-11.38
-16.51
-24.08
-32.96
-41.44
-47.89
-51.34
-51.61
-49.03
-43.98
-36.57
-26.58
-13.88
1.01
16.68
30.97
41.73
47.67
48.92
46.94
43.81
41.13
39.38
37.85
35.35
31.09
25.22
18.83
13.30
9.37
6.74
4.26
0.69
-4.49
-10.80
-17.08
-22.31
-26.39
-30.16
-34.88
-41.11
-48.03
-53.52
-54.95
-50.50
-40.05
-25.35
-9.16
5.94
18.47
28.29
36.11
42.63
47.83
51.04
51.36
48.50
43.17
36.91
31.42
27.78
25.88
24.59
22.39
18.29
12.33
5.57
-0.47
-4.69
-7.00
-8.45
-10.75
-15.37
-22.85
-32.43
-42.30
-50.31
-54.79
-55.07
-51.49
-44.93
-36.18
-25.64
-13.31
0.72
15.69
30.02
41.66
48.92
51.17
49.21
44.93
40.38
36.86
34.46
32.30
29.26
24.83
19.40
14.13
10.12
7.70
6.17
4.19
0.58
-4.95
-11.64
-18.11
-23.27
-27.06
-30.47
-34.77
-40.55
-47.00
-51.97
-52.87
-47.95
-37.26
-22.70
-7.17
6.72
17.55
25.38
31.14
35.72
39.21
40.94
40.06
36.35
30.62
24.49
19.65
16.94
15.89
14.99
12.55
7.71
0.92
-6.27
-12.01
-15.20
-16.15
-16.38
-17.93
-22.24
-29.51
-38.57
-47.40
-53.99
-57.08
-56.42
-52.51
-46.08
-37.59
-27.15
-14.70
-0.61
13.96
27.15
36.91
41.92
42.14
38.95
34.51
30.72
28.42
27.11
25.52
22.52
17.80
12.12
6.77
2.83
0.47
-1.12
