1603314547.00
64.000000
-0.00
-0.00
-0.00
-0.00
-0.00
-0.00
-0.00
-0.00
-0.00
-0.00
0.00
0.01
0.01
-0.00
-0.03
-0.05
-0.05
0.00
0.13
0.36
0.66
1.01
1.37
1.72
2.06
2.40
2.79
3.24
3.80
4.42
5.06
5.66
6.20
6.68
7.15
7.68
8.31
9.14
10.09
11.04
11.88
12.56
13.14
13.76
14.65
15.96
17.91
20.32
22.90
25.38
27.58
29.57
31.68
34.32
37.81
42.54
48.15
54.11
59.84
64.98
69.59
74.14
79.34
85.70
93.76
103.01
112.66
121.78
129.81
136.74
143.19
150.49
157.37
166.12
177.36
191.19
206.38
219.99
227.64
224.67
207.71
175.91
131.69
78.94
21.99
-35.97
-93.46
-150.27
-206.58
-262.06
-315.78
-366.16
-412.20
-453.20
-488.67
-517.90
-539.69
-552.33
-553.99
-543.36
-519.93
-484.71
-439.82
-388.13
-332.67
-276.03
-220.09
-165.94
-114.16
-65.11
-19.38
22.15
58.42
88.50
111.93
128.94
140.48
147.93
152.65
155.59
157.12
157.07
155.05
150.72
143.84
134.36
122.46
108.98
95.69
85.28
80.64
83.57
93.75
108.47
123.53
134.83
139.93
138.62
132.49
123.72
114.06
104.35
94.80
85.48
76.70
69.05
62.77
57.69
53.33
49.13
44.59
39.53
34.15
28.87
24.24
20.70
18.41
17.21
16.56
15.82
14.45
12.27
9.48
6.55
4.04
2.34
1.54
1.34
1.28
0.87
-0.15
-1.75
-3.64
-5.47
-6.94
-7.87
-8.16
-7.71
-6.49
-4.58
-2.34
-0.36
0.75
0.61
-0.65
-2.47
-4.11
-5.02
-5.09
-4.60
-4.07
-3.87
-4.13
-4.65
-5.14
-5.41
-5.43
-5.32
-5.22
-5.19
-5.10
-4.73
-3.95
-2.78
-1.47
-0.35
0.34
0.58
0.52
0.43
0.48
0.67
0.90
1.03
1.03
1.00
1.10
1.41
1.91
2.43
2.83
3.05
3.20
3.46
4.00
4.87
5.90
6.88
7.60
7.99
8.17
8.30
8.47
8.61
8.54
8.02
6.90
5.26
3.15
0.77
-1.71
-4.12
-6.29
-8.05
-9.25
-9.85
-9.95
-9.80
-9.63
-9.54
-9.51
-9.44
-9.18
-8.74
-8.15
-7.50
-6.84
-6.17
-5.54
-5.01
-4.70
-4.64
-4.79
-4.95
-4.90
-4.51
-3.80
-2.94
-2.14
-1.55
-1.25
-1.22
-1.35
-1.53
-1.68
-1.79
-1.94
-2.24
-2.79
-3.61
-4.60
-5.57
-6.33
-6.74
-6.75
-6.43
-5.88
-5.27
-4.78
-4.60
-4.83
-5.46
-6.30
-7.10
-7.72
-8.27
-9.09
-10.60
-13.07
-16.45
-20.32
-24.08
-27.14
-29.19
-30.33
-30.91
-31.28
-31.58
-31.66
-31.18
-29.92
-27.93
-25.61
-23.53
-22.26
-22.21
-23.61
-26.52
-30.74
-35.60
-39.69
-41.00
-37.44
-27.70
-12.06
7.41
27.54
45.20
58.47
67.06
71.94
74.48
75.56
75.24
73.13
68.98
63.21
56.82
50.92
46.20
42.54
39.28
35.64
31.28
26.63
22.55
19.96
19.22
19.96
21.18
21.76
20.89
18.45
15.04
11.77
9.92
10.52
14.21
21.00
30.17
40.15
48.90
54.53
55.94
53.36
48.13
42.17
37.07
33.33
30.08
25.89
19.79
11.81
2.95
-5.67
-13.42
-20.37
-27.07
-34.16
-41.52
-48.18
-52.81
-54.36
-52.80
-48.90
-43.68
-36.70
-28.06
-18.70
-10.17
-4.53
-2.00
-2.41
-5.42
-10.20
-15.75
-21.24
-26.01
-29.68
-32.07
-33.12
-33.02
-31.99
-30.21
-27.89
-25.46
-23.21
-21.21
-19.27
-17.02
-14.30
-11.13
-7.74
-4.49
-1.77
0.26
1.71
2.92
4.26
5.90
7.72
9.35
10.43
10.90
10.99
11.19
11.91
13.35
15.35
17.44
18.81
18.97
17.92
16.09
13.97
11.80
9.71
7.72
5.88
3.67
0.69
-3.20
-7.94
-13.59
-20.21
-27.45
-34.47
-40.14
-44.20
-46.58
-47.09
-45.54
-42.03
-36.79
-29.70
-20.47
-6.55
10.94
27.96
39.77
42.97
38.16
27.17
11.95
-5.12
-21.67
-37.02
-50.86
-62.70
-68.80
-67.01
-57.77
-43.43
-29.78
-17.15
-5.41
5.46
16.26
26.62
35.45
41.64
44.68
44.75
42.67
38.18
31.28
22.55
13.16
4.24
-3.38
-9.36
-13.71
-16.60
-19.03
-21.70
-24.71
-27.90
-31.39
-35.64
-41.06
-47.36
-51.50
-50.44
-41.98
-26.43
-6.68
13.25
29.83
41.07
47.86
51.56
52.85
51.98
48.97
43.97
37.53
30.65
23.58
17.31
12.55
9.31
7.20
5.57
3.93
2.19
0.60
-0.43
-0.44
0.51
1.93
3.22
4.04
4.51
5.25
7.04
10.36
15.15
20.51
25.06
27.65
27.87
26.24
24.04
22.62
22.84
24.87
28.12
31.78
35.16
37.90
39.75
40.33
39.06
35.34
28.89
20.06
9.80
-0.56
-9.74
-16.97
-22.10
-25.60
-28.15
-30.37
-32.52
-34.45
-35.72
-35.81
-34.46
-31.78
-28.24
-24.42
-20.70
-17.17
-13.65
-10.02
-6.39
-3.17
-0.94
-0.11
-0.74
-2.51
-4.85
-7.25
-9.41
-11.20
-12.62
-13.58
-13.99
-13.76
-12.91
-11.69
-10.46
-9.67
-9.62
-10.38
-11.71
-13.27
-14.66
-15.52
-15.67
-15.20
-14.45
-13.81
-13.59
-13.94
-14.84
-16.20
-17.65
-18.81
-19.44
-19.54
-19.28
-18.83
-18.30
-17.74
-17.12
-16.04
-14.04
-10.94
-7.02
-2.86
1.04
4.42
7.34
10.04
13.31
17.95
24.48
32.89
42.87
53.94
65.38
76.03
81.46
77.57
63.24
41.79
18.95
-0.41
-13.80
-21.04
-23.61
-23.34
-21.01
-16.88
-11.25
-5.07
0.18
3.21
3.04
0.04
-4.14
-6.94
-6.30
-1.80
5.09
11.90
16.54
18.34
18.04
17.02
16.52
16.85
17.37
17.10
15.46
12.80
10.09
8.43
8.46
10.19
12.99
15.88
17.98
18.80
18.43
17.35
16.07
14.80
13.41
11.56
9.06
6.05
3.00
0.52
-1.06
-1.83
-2.29
-3.12
-4.83
-7.55
-11.00
-14.72
-18.25
-21.38
-24.10
-26.59
-29.04
-31.56
-34.14
-36.66
-38.97
-40.94
-42.48
-43.54
-44.12
-44.19
-43.77
-42.84
-41.45
-39.64
-37.50
-35.09
-32.50
-29.74
-26.85
-23.87
-20.89
-18.10
-15.66
-13.68
-12.17
-11.06
-10.31
-9.94
-10.15
-11.17
-13.13
-15.86
-18.92
-21.69
-23.56
-24.07
-22.93
-20.00
-15.20
-8.65
-0.70
7.97
16.49
24.00
29.90
34.04
36.59
37.95
38.40
38.15
37.23
35.75
33.83
31.58
29.07
26.25
23.05
19.45
15.59
11.62
7.71
3.91
0.11
-3.79
-7.77
-11.59
-14.98
-17.75
-19.78
-20.91
-20.69
-18.40
-13.32
-5.33
4.73
15.12
23.82
29.37
31.46
30.95
29.22
27.42
25.91
24.37
22.22
19.15
15.36
11.35
7.59
4.26
1.27
-1.56
-4.31
-6.82
-8.74
-9.75
-9.74
-8.86
-7.49
-6.08
-5.01
-4.45
-4.35
-4.43
-4.41
-4.06
-3.33
-2.35
-1.37
-0.63
-0.24
-0.19
-0.32
-0.49
-0.55
-0.44
-0.12
0.44
1.27
2.33
3.51
4.68
5.69
6.45
7.01
7.47
7.93
8.45
8.98
9.44
9.74
9.80
9.59
9.06
8.12
6.72
4.87
2.68
0.40
-1.71
-3.42
-4.58
-5.18
-5.29
-5.09
-4.74
-4.40
-4.16
-4.03
-4.01
-4.06
-4.16
-4.28
-4.39
-4.44
-4.36
-4.12
-3.76
-3.36
-3.06
-2.96
-3.08
-3.29
-3.40
-3.21
-2.59
-1.51
-0.10
1.44
2.89
4.08
4.94
5.51
5.92
6.29
6.68
7.08
7.47
7.85
8.28
8.83
9.55
10.40
11.29
12.11
12.76
13.22
13.51
13.66
13.67
13.48
13.06
12.39
11.51
10.54
9.62
8.84
8.19
7.57
6.83
5.87
4.69
3.45
2.35
1.56
1.13
0.93
0.76
0.49
0.11
-0.19
-0.13
0.55
1.99
4.15
6.85
9.83
12.87
15.76
18.39
20.74
22.81
24.67
26.36
27.90
29.20
30.08
30.28
29.55
27.72
24.84
21.11
16.85
12.34
7.77
3.18
-1.36
-5.72
-9.67
-13.00
-15.61
-17.57
-19.14
-20.58
-21.98
-23.14
-23.64
-22.99
-20.87
-17.24
-12.51
-7.33
-2.58
0.94
2.67
2.40
0.36
-2.81
-6.21
-8.87
-9.98
-9.09
-6.23
-1.94
2.92
7.42
10.85
12.88
13.57
13.24
12.19
10.62
8.63
6.31
3.86
1.58
-0.25
-1.52
-2.36
-3.07
-3.97
-5.22
-6.84
-8.66
-10.54
-12.33
-13.90
-15.09
-15.69
-15.53
-14.53
-12.86
-10.90
-9.18
-8.24
-8.43
-9.87
-12.40
-15.68
-19.23
-22.63
-25.56
-27.88
-29.59
-30.78
-31.54
-31.88
-31.81
-31.31
-30.46
-29.41
-28.34
-27.38
-26.53
-25.66
-24.55
-22.98
-20.83
-18.10
-14.91
-11.45
-7.84
-4.18
-0.44
3.48
7.71
12.38
17.51
22.97
28.50
33.69
38.17
41.65
43.98
45.11
44.99
43.54
40.70
36.53
31.30
25.43
19.37
13.51
8.16
3.64
0.32
-1.48
-1.63
-0.40
1.57
3.51
4.80
5.31
5.47
6.05
7.80
11.17
16.10
22.07
28.29
33.94
38.35
41.23
42.72
43.27
43.40
43.48
43.59
43.55
43.11
42.17
40.90
39.69
39.02
39.19
40.22
41.78
43.30
44.16
43.88
42.20
39.19
35.22
30.91
27.13
24.69
23.95
24.46
24.83
23.14
17.72
7.96
-5.26
-19.86
-33.32
-43.68
-50.11
-52.94
-53.14
-51.77
-49.49
-46.61
-43.30
-39.77
-36.34
-33.29
-30.79
-28.89
-27.59
-26.91
-26.95
-27.79
-29.36
-31.27
-32.76
-32.85
-30.65
-25.72
-18.28
-9.25
0.03
8.18
14.11
17.31
17.81
16.17
13.32
10.27
7.95
6.83
6.86
7.46
7.75
6.87
4.23
-0.47
-7.26
-15.90
-25.84
-36.08
-45.31
-52.22
-56.11
-57.28
-56.90
-56.47
-57.08
-58.93
-61.36
-63.44
-64.60
-64.92
-65.07
-65.81
-67.45
-69.70
-71.77
-72.79
-72.19
-70.00
-66.81
-63.51
-60.97
-59.59
-59.18
-59.03
-58.18
-55.86
-51.71
-45.84
-38.61
-30.37
-21.33
-11.65
-1.52
8.63
18.18
26.51
33.25
38.47
42.66
46.53
50.76
55.73
61.39
67.29
72.74
76.88
78.87
78.12
74.40
68.09
60.12
51.83
44.50
38.96
35.39
33.29
31.81
30.12
27.66
24.30
20.28
16.11
12.44
9.85
8.73
9.17
10.94
13.61
16.82
20.35
24.21
28.35
32.50
36.03
38.03
37.68
34.59
28.93
21.43
13.13
5.09
-1.81
-6.99
-10.20
-11.56
-11.54
-10.88
-10.37
-10.65
-11.95
-14.07
-16.47
-18.55
-19.93
-20.51
-20.46
-20.04
-19.51
-19.02
-18.69
-18.58
-18.67
-18.82
-18.83
-18.40
-17.32
-15.50
-13.00
-10.01
-6.82
-3.70
-0.91
1.39
3.16
4.49
5.53
6.41
7.16
7.68
7.78
7.26
5.99
3.96
1.31
-1.73
-4.80
-7.55
-9.71
-11.24
-12.40
-13.67
-15.65
-18.74
-22.98
-27.98
-33.02
-37.30
-40.19
-41.44
-41.24
-40.11
-38.74
-37.66
-37.09
-36.88
-36.64
-35.98
-34.68
-32.81
-30.59
-28.27
-26.08
-24.13
-22.53
-21.42
-20.99
-21.33
-22.37
-23.92
-25.68
-27.40
-28.89
-30.01
-30.56
-30.23
-28.67
-25.54
-20.66
-14.12
-6.26
2.32
10.89
18.73
25.31
30.30
33.53
34.92
34.40
31.87
27.38
21.28
14.28
7.29
1.15
-3.59
-6.83
-8.76
-9.67
-9.76
-9.27
-8.45
-7.69
-7.30
-7.40
-7.74
-7.85
-7.18
-5.37
-2.29
2.08
7.80
14.95
23.49
33.06
42.88
51.86
58.96
63.53
65.48
65.25
63.55
61.06
58.32
55.61
53.04
50.62
48.30
46.08
43.99
42.12
40.60
39.52
38.87
38.53
38.21
37.52
36.09
33.76
30.66
27.29
24.35
22.60
22.59
24.50
28.04
32.45
36.71
39.76
40.71
39.21
35.33
29.62
22.82
15.72
8.96
2.95
-2.16
-6.50
-10.39
-14.30
-18.74
-24.10
-30.43
-37.40
-44.35
-50.49
-55.15
-57.84
-58.47
-57.30
-54.84
-51.71
-48.39
-45.12
-41.89
-38.48
-34.44
-29.47
-23.63
-17.34
-11.18
-5.63
-0.92
2.94
6.03
8.84
11.78
14.93
18.03
20.72
22.71
23.90
24.32
24.03
23.92
24.87
27.42
31.56
36.84
42.68
48.49
53.62
57.46
60.54
63.65
67.43
72.12
77.68
83.99
90.89
98.03
99.10
89.71
69.25
41.61
12.38
-14.17
-35.83
-51.69
-61.52
-65.74
-64.54
-58.93
-50.89
-43.19
-37.91
-36.17
-37.97
-42.39
-48.17
-53.27
-55.99
-55.63
-52.67
-48.42
-44.45
-42.14
-41.55
-42.74
-44.82
-46.67
-47.39
-46.68
-44.71
-41.85
-38.39
-34.51
-30.44
-26.10
-21.46
-16.63
-11.77
-7.00
-2.32
2.37
7.12
11.73
16.03
19.80
22.84
25.00
26.21
26.49
25.95
24.75
23.06
21.06
18.93
16.83
14.84
13.02
11.38
9.91
8.65
7.56
6.61
5.74
4.87
3.92
2.87
1.76
0.67
-0.29
-1.02
-1.46
-1.63
-1.61
-1.50
-1.45
-1.55
-1.87
-2.41
-3.08
-3.78
-4.35
-4.74
-4.89
-4.87
-4.70
-4.38
-3.88
-3.13
-2.07
-0.71
0.88
2.61
4.35
6.01
7.52
8.86
9.97
10.80
11.28
11.34
10.95
10.14
9.08
7.98
7.02
6.19
5.23
3.69
1.20
-2.29
-6.39
-10.37
-13.49
-15.39
-16.15
-16.32
-16.49
-17.01
-17.88
-18.82
-19.54
-19.89
-19.91
-19.69
-19.24
-18.43
-17.03
-14.86
-11.96
-8.49
-4.77
-1.04
2.48
5.58
8.09
9.79
10.56
10.42
9.60
8.46
7.36
6.56
6.11
5.88
5.73
5.56
5.39
5.26
5.15
4.90
4.31
3.23
1.73
0.12
-1.17
-1.76
-1.47
-0.39
1.22
2.99
4.59
5.77
6.45
6.81
7.37
8.95
12.31
17.76
24.91
32.68
39.73
45.07
48.39
50.10
51.00
51.92
53.44
55.83
58.91
61.91
63.39
61.50
54.55
41.87
24.37
4.46
-14.72
-30.37
-40.95
-46.44
-47.93
-46.93
-44.82
-42.56
-40.74
-39.70
-39.57
-40.21
-41.19
-41.92
-41.85
-40.69
-38.53
-35.80
-33.07
-30.86
-29.46
-28.85
-28.82
-29.09
-29.45
-29.79
-29.94
-29.67
-28.63
-26.48
-23.06
-18.52
-13.27
-7.83
-2.61
2.32
7.15
12.17
17.59
23.35
29.05
34.16
38.12
40.19
39.22
33.70
22.40
5.35
-15.25
-35.21
-49.45
-54.09
-48.08
-33.66
-15.33
2.08
15.15
22.53
24.46
21.81
15.33
5.73
-5.90
-17.70
-27.30
-32.59
-32.46
-27.22
-18.32
-7.99
1.53
8.64
12.51
13.26
11.76
9.24
6.86
5.35
4.77
4.63
4.18
2.83
0.42
-2.68
-5.73
-7.98
-8.95
-8.58
-7.11
-4.93
-2.36
0.39
3.15
5.71
7.73
8.93
9.18
8.66
7.78
7.01
6.65
6.80
7.33
8.14
9.21
10.69
12.72
15.31
18.20
20.87
22.59
22.57
20.14
14.96
7.22
-2.22
-12.00
-20.59
-26.81
-30.16
-30.94
-30.01
-28.30
-26.51
-24.88
-23.41
-21.99
-20.63
-19.40
-18.31
-17.28
-16.07
-14.49
-12.46
-10.11
-7.64
-5.25
-2.99
-0.74
1.75
4.72
8.28
12.30
16.38
19.98
22.53
23.68
23.38
21.90
19.70
17.28
15.04
13.26
12.01
11.23
10.74
10.31
9.69
8.70
7.23
5.27
2.88
0.14
-2.81
-5.72
-8.24
-9.96
-10.50
-9.67
-7.58
-4.61
-1.26
2.00
4.85
7.06
8.41
8.64
7.49
4.85
0.94
-3.66
-8.15
-11.74
-13.97
-14.85
-14.80
-14.42
-14.21
-14.35
-14.68
-14.81
-14.22
-12.43
-9.07
-3.93
2.99
11.35
20.43
29.16
36.35
40.98
42.51
41.03
37.18
31.84
25.91
20.00
14.46
9.48
5.12
1.45
-1.55
-3.99
-6.02
-7.84
-9.52
-11.02
-12.18
-12.88
-13.06
-12.81
-12.35
-11.89
-11.53
-11.21
-10.77
-9.97
-8.64
-6.77
-4.49
-2.13
-0.18
0.80
0.36
-1.69
-5.10
-9.19
-12.97
-15.46
-16.04
-14.70
-11.93
-8.56
-5.35
-2.70
-0.67
0.93
2.26
3.40
4.28
4.83
5.05
5.11
5.19
5.45
5.90
6.41
6.72
6.61
5.91
4.64
2.90
0.85
-1.37
-3.66
-5.97
-8.27
-10.42
-12.27
-13.59
-14.22
-14.06
-13.11
-11.49
-9.39
-7.05
-4.75
-2.76
-1.23
-0.19
0.47
0.92
1.30
1.63
1.91
2.06
2.09
2.06
2.03
2.06
2.16
2.27
2.32
2.30
2.21
2.09
1.99
1.96
2.00
2.11
2.24
2.30
2.19
1.84
1.23
0.41
-0.54
-1.50
-2.42
-3.25
-4.04
-4.85
-5.73
-6.72
-7.75
-8.75
-9.56
-10.07
-10.25
-10.13
-9.80
-9.36
-8.84
-8.24
-7.49
-6.54
-5.41
-4.14
-2.82
-1.55
-0.43
0.47
1.12
1.62
2.20
3.29
5.33
8.65
13.24
18.58
23.76
27.74
29.72
29.39
27.07
23.55
19.73
16.35
13.80
12.10
11.18
11.00
11.65
13.23
15.64
18.48
21.12
22.88
23.33
22.36
20.25
17.37
14.06
10.48
6.69
2.75
-1.19
-4.87
-8.06
-10.59
-12.43
-13.68
-14.44
-14.86
-15.03
-14.99
-14.79
-14.47
-14.10
-13.77
-13.59
-13.63
-13.88
-14.21
-14.44
-14.38
-13.90
-13.05
-11.97
-10.85
-9.89
-9.17
-8.70
-8.40
-8.16
-7.86
-7.41
-6.76
-5.89
-4.82
-3.58
-2.24
-0.89
0.38
1.50
2.40
3.07
3.50
3.69
3.59
3.11
2.21
0.87
-0.81
-2.61
-4.26
-5.50
-6.19
-6.30
-5.91
-5.11
-3.98
-2.55
-0.81
1.16
3.18
4.91
5.96
6.02
5.06
3.34
1.39
-0.25
-1.17
-1.27
-0.69
0.24
1.27
2.25
3.17
4.13
5.14
6.10
6.83
7.13
6.94
6.30
5.45
4.65
4.12
3.94
4.03
4.18
4.21
3.94
3.37
2.60
1.82
1.23
0.95
0.98
1.25
1.66
2.17
2.83
3.74
4.99
6.49
8.06
9.44
10.40
10.92
11.14
11.28
11.55
11.97
12.47
12.92
13.32
13.76
14.44
15.40
16.50
17.33
17.42
16.43
14.29
11.26
7.79
4.36
1.34
-1.06
-2.83
-4.02
-4.71
-4.99
-4.95
-4.72
-4.48
-4.43
-4.75
-5.52
-6.64
-7.90
-9.01
-9.77
-10.13
-10.19
-10.07
-9.83
-9.42
-8.69
-7.57
-6.15
-4.69
-3.49
-2.80
-2.65
-2.87
-3.17
-3.30
-3.12
-2.58
-1.77
-0.77
0.33
1.49
2.71
4.03
5.50
7.18
9.07
11.03
12.77
13.88
13.91
12.55
9.70
5.59
0.67
-4.44
-9.11
-12.86
-15.40
-16.73
-17.09
-16.86
-16.49
-16.31
-16.50
-17.01
-17.67
-18.25
-18.58
-18.58
-18.25
-17.62
-16.71
-15.49
-13.92
-12.04
-9.95
-7.92
-6.23
-5.11
-4.63
-4.65
-4.89
-5.02
-4.84
-4.35
-3.75
-3.27
-3.12
-3.28
-3.61
-3.85
-3.74
-3.13
-1.99
-0.43
1.34
3.09
4.59
5.66
6.25
6.38
6.16
5.69
5.03
4.22
3.29
2.32
1.42
0.71
0.24
-0.05
-0.29
-0.62
-1.14
-1.84
-2.66
-3.49
-4.26
-4.95
-5.57
-6.11
-6.52
-6.65
-6.37
-5.59
-4.28
-2.55
-0.57
1.42
3.24
4.72
5.82
6.51
6.83
6.89
6.81
6.73
6.75
6.88
7.07
7.22
7.25
7.18
7.10
7.17
7.55
8.35
9.59
11.22
13.07
14.98
16.76
18.25
19.40
20.19
20.63
20.68
20.26
19.31
17.77
15.66
13.07
10.10
6.86
3.50
0.17
-2.93
-5.63
-7.82
-9.52
-10.83
-11.87
-12.69
-13.21
-13.28
-12.76
-11.61
-9.94
-7.95
-5.87
-3.87
-2.03
-0.38
1.12
2.45
3.59
4.52
5.23
5.78
6.25
6.75
7.35
8.11
9.00
9.95
10.86
11.69
12.43
13.13
13.86
14.64
15.46
16.24
16.93
17.47
17.90
18.29
18.69
19.13
19.61
20.05
20.43
20.72
20.93
21.10
21.24
21.30
21.19
20.69
19.54
17.47
14.32
10.08
4.95
-0.65
-6.20
-11.16
-15.14
-17.95
-19.58
-20.11
-19.65
-18.25
-15.97
-12.97
-9.48
-5.81
-2.23
1.11
4.16
6.86
9.01
10.32
10.48
9.35
7.09
4.09
0.81
-2.40
-5.35
-8.03
-10.42
-12.46
-13.99
-14.91
-15.21
-15.01
-14.50
-13.89
-13.29
-12.76
-12.32
-11.96
-11.70
-11.54
-11.46
-11.41
-11.31
-11.14
-10.90
-10.63
-10.39
-10.23
-10.13
-10.07
-10.02
-9.92
-9.76
-9.50
-9.16
-8.72
-8.22
-7.71
-7.29
-7.06
-7.08
-7.31
-7.68
-8.02
-8.16
-7.97
-7.37
-6.34
-4.95
-3.34
-1.65
-0.07
1.29
2.36
3.12
3.56
3.71
3.62
3.42
3.30
3.48
4.06
4.98
6.01
6.82
7.14
6.91
6.28
5.52
4.89
4.47
4.18
3.85
3.35
2.63
1.75
0.81
-0.11
-0.98
-1.76
-2.41
-2.90
-3.15
-3.19
-3.04
-2.77
-2.44
-2.07
-1.66
-1.16
-0.55
0.15
0.91
1.65
2.28
2.73
2.96
3.03
3.04
3.15
3.49
4.09
4.90
5.76
6.54
7.13
7.52
7.78
8.00
8.26
8.56
8.85
9.05
9.09
8.96
8.71
8.37
8.01
7.64
7.29
7.00
6.85
6.88
7.11
7.50
7.94
8.33
8.61
8.78
8.85
8.82
8.69
8.40
7.96
7.41
6.83
6.35
5.98
5.70
5.34
4.73
3.76
2.43
0.86
-0.75
-2.22
-3.49
-4.58
-5.65
-6.84
-8.23
-9.83
-11.57
-13.38
-15.21
-17.08
-18.94
-20.69
-22.12
-23.01
-23.24
-22.84
-22.02
-21.02
-20.07
-19.28
-18.63
-18.08
-17.54
-16.96
-16.30
-15.45
-14.27
-12.67
-10.66
-8.38
-6.09
-4.03
-2.38
-1.18
-0.32
0.34
0.95
1.57
2.18
2.71
3.05
3.17
3.11
3.02
3.05
3.35
3.92
4.68
5.45
6.04
6.29
6.21
5.93
5.64
5.54
5.69
6.04
6.42
6.65
6.64
6.48
6.37
6.57
7.25
8.39
9.86
11.41
12.85
14.10
15.24
16.46
17.96
19.84
22.06
24.43
26.69
28.60
30.00
30.89
31.37
31.72
32.28
33.46
35.56
38.63
42.26
45.52
47.13
45.79
40.72
32.03
20.83
8.86
-2.02
-10.52
-16.24
-19.58
-21.35
-22.30
-22.84
-23.03
-22.81
-22.20
-21.41
-20.74
-20.38
-20.31
-20.32
-20.15
-19.66
-18.92
-18.12
-17.43
-16.87
-16.29
-15.45
-14.14
-12.33
-10.26
-8.35
-7.07
-6.69
-7.19
-8.19
-9.15
-9.51
-8.92
-7.28
-4.75
-1.65
1.64
4.77
7.42
9.33
10.35
10.42
9.57
7.93
5.72
3.21
0.74
-1.40
-2.96
-3.86
-4.21
-4.25
-4.33
-4.67
-5.38
-6.39
-7.57
-8.83
-10.11
-11.36
-12.49
-13.39
-13.87
-13.87
-13.44
-12.76
-12.07
-11.54
-11.20
-10.95
-10.58
-9.89
-8.79
-7.28
-5.55
-3.89
-2.63
-2.10
-2.44
-3.64
-5.46
-7.58
-9.63
-11.33
-12.49
-13.01
-12.83
-11.98
-10.56
-8.75
-6.82
-5.03
-3.62
-2.63
-1.98
-1.49
-0.99
-0.43
0.06
0.36
0.35
0.10
-0.23
-0.47
-0.50
-0.37
-0.17
0.01
0.15
0.32
0.55
0.87
1.22
1.55
1.82
2.00
2.09
2.04
1.76
1.20
0.36
-0.64
-1.62
-2.41
-2.95
-3.31
-3.64
-4.09
-4.70
-5.43
-6.14
-6.70
-7.07
-7.31
-7.53
-7.83
-8.19
-8.54
-8.71
-8.60
-8.12
-7.35
-6.40
-5.45
-4.62
-3.98
-3.51
-3.11
-2.69
-2.20
-1.63
-1.05
-0.54
-0.19
-0.05
-0.12
-0.37
-0.73
-1.12
-1.45
-1.66
-1.76
-1.81
-1.87
-1.99
-2.14
-2.29
-2.37
-2.30
-2.00
-1.37
-0.33
1.15
2.97
4.86
6.47
7.46
7.63
6.95
5.56
3.71
1.68
-0.28
-1.98
-3.30
-4.19
-4.65
-4.73
-4.53
-4.16
-3.75
-3.36
-3.05
-2.77
-2.43
-1.85
-0.90
0.52
2.38
4.68
7.36
10.34
13.48
16.60
19.56
22.23
24.58
26.59
28.40
30.12
31.75
33.09
33.90
34.07
33.68
32.94
32.15
31.82
32.28
33.59
35.27
36.58
36.89
35.80
33.23
29.43
25.17
21.38
18.90
17.84
17.68
17.59
16.50
13.38
6.16
-5.71
-20.90
-36.46
-49.88
-59.84
-65.62
-66.75
-63.00
-54.66
-42.51
-28.70
-14.05
0.10
12.43
22.24
29.40
33.97
36.11
36.16
33.33
28.32
22.89
17.52
12.53
8.17
4.67
2.14
0.46
-0.49
-0.26
1.54
4.77
8.45
10.45
8.15
0.03
-13.00
-27.49
-38.85
-44.07
-43.20
-38.98
-35.08
-34.03
-35.90
-38.69
-39.93
-38.37
-34.83
-31.34
-29.56
-29.63
-30.43
-30.38
-28.49
-24.72
-19.82
-15.11
-11.46
-9.11
-7.58
-6.25
-4.66
-2.62
-0.24
2.29
4.70
6.93
8.94
10.80
12.26
12.94
12.44
10.45
6.83
1.53
-5.09
-12.57
-18.31
-19.90
-16.31
-8.66
0.54
9.00
14.29
16.73
17.10
16.31
14.80
12.60
10.09
7.52
5.16
3.01
1.26
0.11
0.01
1.20
3.56
6.63
9.55
11.34
10.79
7.33
1.16
-6.59
-14.36
-20.71
-24.48
-25.05
-20.74
-11.74
-0.32
10.12
17.04
19.60
18.23
14.09
8.53
2.85
-2.30
-6.56
-9.72
-11.99
-13.19
-13.24
-12.20
-10.21
-7.39
-4.14
-0.75
2.67
6.13
9.58
12.73
15.25
16.68
16.90
16.08
14.70
13.43
12.79
12.93
13.46
13.71
13.04
11.14
8.07
4.37
0.84
-1.76
-3.02
-3.10
-2.57
-2.09
-2.13
-2.80
-3.97
-5.35
-6.70
-7.88
-8.77
-9.19
-8.93
-7.83
-6.00
-3.86
-2.03
-1.03
-1.03
-1.74
-2.56
-2.83
-2.11
-0.33
2.19
4.93
7.25
8.68
8.96
8.23
6.92
5.75
5.36
6.12
8.00
10.59
13.34
15.75
17.47
18.28
18.23
17.68
17.42
18.46
21.50
26.35
31.65
35.25
35.16
30.62
22.63
13.59
6.18
2.19
1.86
4.14
7.40
10.36
12.36
13.29
13.16
11.88
9.34
5.62
1.11
-3.69
-8.43
-13.04
-17.59
-21.99
-25.82
-28.45
-29.45
-28.91
-27.53
-26.23
-25.61
-25.64
-25.77
-25.34
-24.09
-22.35
-20.74
-19.78
-19.51
-19.46
-18.99
-17.57
-15.12
-11.95
-8.67
-5.87
-3.88
-2.73
-2.08
-1.53
-0.72
0.43
1.76
2.99
3.89
4.42
4.71
4.97
5.33
5.76
6.10
6.18
5.88
5.24
4.42
3.57
2.77
1.97
1.05
-0.07
-1.32
-2.47
-3.21
-3.33
-2.83
-1.89
-0.86
-0.03
0.40
0.38
-0.04
-0.77
-1.68
-2.63
-3.40
-3.73
-3.42
-2.38
-0.68
1.46
3.77
5.91
7.55
8.47
8.69
8.39
7.99
7.88
8.26
9.03
9.86
10.34
10.17
9.32
7.93
6.24
4.44
2.65
0.95
-0.63
-2.08
-3.49
-5.02
-6.80
-8.83
-10.83
-12.33
-12.83
-12.06
-10.11
-7.44
-4.75
-2.68
-1.69
-1.91
-3.19
-5.20
-7.47
-9.56
-11.08
-11.76
-11.54
-10.52
-8.95
-7.14
-5.37
-3.86
-2.68
-1.84
-1.24
-0.76
-0.26
0.31
0.98
1.69
2.38
2.99
3.47
3.78
3.90
3.77
3.38
2.78
2.12
1.61
1.40
1.54
1.92
2.26
2.35
2.07
1.48
0.82
0.27
-0.04
-0.18
-0.28
-0.44
-0.68
-0.95
-1.16
-1.31
-1.48
-1.77
-2.27
-2.98
-3.76
-4.46
-4.94
-5.12
-4.99
-4.56
-3.88
-2.99
-1.96
-0.84
0.33
1.53
2.76
3.99
5.10
5.96
6.45
6.54
6.36
6.11
5.99
6.10
6.37
6.62
6.65
6.36
5.81
5.15
4.55
4.11
3.80
3.51
3.16
2.76
2.38
2.08
1.84
1.52
0.94
-0.01
-1.29
-2.74
-4.12
-5.27
-6.18
-6.90
-7.56
-8.25
-8.95
-9.62
-10.20
-10.63
-10.80
-10.63
-9.96
-8.71
-6.89
-4.67
-2.30
-0.11
1.65
2.85
3.44
3.51
3.21
2.74
2.28
2.00
1.98
2.20
2.55
2.93
3.27
3.60
3.98
4.46
5.01
5.52
5.85
5.91
5.75
5.51
5.40
5.56
5.92
6.24
6.09
5.11
3.15
0.44
-2.37
-4.40
-4.87
-3.35
-0.06
4.22
8.37
11.27
12.10
10.64
7.26
2.79
-1.66
-4.99
-6.42
-5.61
-2.79
1.37
5.97
10.12
13.21
14.95
15.41
14.85
13.62
11.97
10.08
8.01
5.80
3.60
1.65
0.30
-0.18
0.29
1.48
2.90
4.05
4.54
4.29
3.46
2.34
1.13
-0.13
-1.53
-3.22
-5.21
-7.33
-9.20
-10.42
-10.66
-9.81
-7.96
-5.31
-2.05
1.61
5.30
8.43
10.22
10.07
7.84
4.13
0.09
-3.08
-4.62
-4.43
-2.90
-0.52
2.40
5.75
9.36
12.81
15.42
16.57
16.03
14.14
11.58
9.03
6.87
5.13
3.61
2.10
0.56
-0.92
-2.20
-3.20
-3.97
-4.64
-5.36
-6.19
-7.09
-7.90
-8.44
-8.64
-8.61
-8.59
-8.82
-9.38
-10.16
-10.86
-11.22
-11.15
-10.76
-10.25
-9.82
-9.53
-9.29
-8.97
-8.47
-7.79
-7.00
-6.22
-5.52
-4.96
-4.54
-4.25
-4.04
-3.92
-3.87
-3.88
-3.96
-4.06
-4.15
-4.16
-4.07
-3.89
-3.67
-3.43
-3.19
-2.97
-2.82
-2.84
-3.14
-3.78
-4.67
-5.65
-6.47
-6.91
-6.91
-6.56
-6.19
-6.24
-7.25
-9.58
-13.30
-17.98
-22.67
-26.13
-27.23
-25.49
-21.39
-16.28
-11.78
-9.17
-8.78
-9.98
-11.50
-12.12
-11.19
-8.81
-5.65
-2.57
-0.15
1.38
2.12
2.36
2.36
2.37
2.60
3.29
4.61
6.64
9.25
12.06
14.54
16.18
16.67
16.06
14.71
13.14
11.80
10.91
10.42
10.13
9.82
9.38
8.78
8.12
7.47
6.89
6.35
5.80
5.15
4.27
3.09
1.64
0.11
-1.11
-1.63
-1.24
-0.05
1.51
2.84
3.48
3.34
2.81
2.55
3.29
5.49
9.26
14.32
20.12
25.95
31.00
34.51
35.98
35.38
33.21
30.41
27.92
26.22
25.22
24.32
22.95
20.89
18.52
16.48
15.24
14.74
14.34
13.27
11.00
7.59
3.62
-0.10
-2.93
-4.57
-5.17
-5.13
-4.93
-5.00
-5.60
-6.85
-8.67
-10.93
-13.45
-16.03
-18.53
-20.78
-22.67
-23.98
-24.54
-24.21
-22.97
-21.02
-18.72
-16.53
-14.79
-13.68
-13.13
-12.87
-12.57
-12.01
-11.10
-9.89
-8.48
-6.89
-5.15
-3.30
-1.48
0.07
1.14
1.61
1.52
0.99
0.10
-1.20
-2.96
-5.07
-7.14
-8.54
-8.68
-7.26
-4.53
-1.15
2.09
4.67
6.57
8.16
9.88
11.98
14.36
16.63
18.23
18.69
17.69
15.14
11.10
5.90
0.09
-5.54
-10.16
-13.23
-14.67
-14.89
-14.49
-14.03
-13.77
-13.55
-12.91
-11.51
-9.54
-7.65
-6.64
-6.82
-7.87
-9.08
-9.59
-8.83
-7.05
-5.49
-5.60
-8.18
-12.71
-17.56
-21.20
-22.39
-20.52
-15.83
-9.36
-2.45
3.51
7.41
8.55
6.43
1.87
-2.98
-4.63
-0.67
8.03
16.76
19.37
14.18
2.57
-11.83
-24.20
-30.49
-28.73
-19.05
-3.05
17.11
39.60
59.66
72.53
76.18
71.60
60.98
46.56
30.03
13.04
-2.63
-15.54
-24.21
-27.63
-26.02
-21.76
-16.71
-12.44
-9.61
-8.02
-7.15
-6.18
-4.35
-1.49
1.92
5.18
7.54
8.59
8.22
6.70
4.38
1.72
-0.95
-3.51
-5.89
-8.09
-10.08
-11.72
-12.96
-13.72
-13.91
-13.74
-13.72
-14.38
-16.04
-18.59
-21.51
-24.04
-25.49
-25.33
-23.74
-21.62
-19.96
-19.08
-18.41
-16.66
-12.52
-5.30
4.89
16.72
28.13
37.30
43.60
47.48
49.89
51.68
53.63
56.88
62.27
69.76
78.05
84.53
85.55
77.29
57.23
24.13
-17.02
-56.47
-85.03
-99.26
-101.54
-96.80
-89.34
-81.49
-73.90
-66.40
-59.66
-55.15
-53.92
-55.09
-55.57
-51.43
-39.85
-20.75
3.10
26.69
44.97
54.96
56.94
53.72
48.74
44.34
41.16
39.10
36.96
34.00
30.12
25.73
21.44
17.65
14.51
11.83
9.56
7.53
5.75
4.18
2.71
1.22
-0.35
-1.94
-3.52
-4.95
-6.20
-7.07
-7.53
-7.68
-7.73
-7.83
-8.16
-9.07
-11.09
-14.54
-19.12
-24.22
-28.96
-32.37
-33.27
-30.70
-24.32
-14.64
-3.00
9.15
20.22
28.82
32.90
31.15
24.31
15.02
7.29
1.76
-1.93
-4.57
-7.25
-11.13
-17.01
-25.47
-36.74
-50.45
-65.02
-77.31
-85.24
-89.14
-91.20
-93.06
-95.35
-98.26
-102.19
-107.99
-116.12
-127.13
-139.16
-149.14
-153.24
-148.64
-134.68
-112.94
-86.48
-58.34
-30.57
-3.08
22.91
47.83
72.97
99.61
128.15
157.39
184.48
205.55
217.13
217.29
206.95
189.10
167.52
145.45
124.70
105.76
88.36
72.33
57.84
45.62
36.11
29.02
23.43
18.24
12.77
6.94
1.22
-3.82
-7.69
-10.45
-12.61
-14.85
-17.69
-21.20
-25.03
-28.58
-31.33
-32.89
-33.22
-32.58
-31.43
-30.18
-29.08
-28.15
-27.21
-26.03
-24.38
-22.19
-19.54
-16.64
-13.72
-11.00
-8.63
-6.64
-4.97
-3.56
-2.35
-1.38
-0.74
-0.51
-0.68
-1.13
-1.63
-1.99
-2.09
-2.00
-1.85
-1.81
-1.96
-2.29
-2.75
-3.25
-3.75
-4.19
-4.56
-4.86
-5.11
-5.33
-5.52
-5.61
-5.45
-4.87
-3.74
-2.02
0.24
2.92
5.87
8.97
12.11
15.18
18.10
20.81
23.28
25.52
27.55
29.31
30.70
31.56
31.80
31.45
30.70
29.82
29.05
28.50
28.06
27.54
26.77
25.69
24.37
22.94
21.53
20.15
18.78
17.31
15.69
13.88
11.91
9.84
7.71
5.58
3.52
1.55
-0.27
-1.93
-3.39
-4.67
-5.76
-6.74
-7.74
-8.87
-10.20
-11.63
-12.92
-13.74
-13.84
-13.09
-11.60
-9.59
-7.37
-5.23
-3.31
-1.66
-0.21
1.14
2.47
3.78
5.02
6.08
6.85
7.27
7.36
7.22
7.00
6.83
6.82
6.99
7.31
7.71
8.11
8.47
8.81
9.15
9.56
10.02
10.44
10.72
10.78
10.62
10.37
10.23
10.38
10.90
11.74
12.74
13.65
14.28
14.48
14.19
13.48
12.41
11.06
9.42
7.47
5.20
2.65
-0.07
-2.86
-5.61
-8.21
-10.43
-11.85
-11.87
-9.91
-5.71
0.51
7.99
15.68
22.62
28.27
32.54
35.68
37.93
39.24
39.25
37.40
33.21
26.61
18.02
8.28
-1.61
-10.79
-18.70
-25.13
-30.13
-33.77
-36.14
-37.31
-37.46
-36.87
-35.96
-35.19
-34.85
-34.99
-35.42
-35.84
-36.00
-35.80
-35.26
-34.54
-33.87
-33.37
-33.07
-32.82
-32.40
-31.61
-30.34
-28.49
-26.06
-23.06
-19.56
-15.62
-11.39
-7.11
-3.07
0.49
3.66
6.68
9.70
12.76
15.75
18.60
21.26
23.70
25.90
28.13
30.50
32.80
34.61
35.54
35.50
34.59
32.94
30.66
28.42
26.80
25.92
25.43
24.89
24.05
22.94
21.77
20.88
21.38
24.02
28.68
34.36
39.89
44.59
48.38
51.62
49.64
40.06
24.00
5.33
-12.37
-27.71
-40.87
-52.44
-62.59
-71.10
-76.90
-78.62
-75.56
-68.02
-57.01
-43.83
-29.81
-16.15
-4.10
5.81
13.44
18.83
21.90
22.61
21.04
17.34
11.73
4.54
-3.18
-10.21
-15.65
-19.09
-20.62
-20.63
-19.67
-18.32
-16.97
-15.47
-13.24
-9.61
-4.21
2.76
10.41
17.19
21.22
20.87
15.45
5.47
-7.45
-20.94
-32.54
-40.22
-42.83
-40.31
-33.52
-23.95
-13.33
-3.25
4.99
10.41
12.33
10.29
4.15
-5.80
-18.64
-32.74
-45.90
-55.57
-59.17
-54.63
-40.87
-18.54
9.63
38.99
63.88
79.09
81.48
70.94
50.39
24.76
-0.63
-21.61
-35.71
-42.10
-41.02
-33.42
-20.83
-5.46
9.84
21.77
27.27
24.60
14.08
-1.88
-19.49
-34.92
-45.29
-49.20
-46.98
-40.35
-31.43
-22.15
-13.83
-7.26
-3.02
-1.50
-2.79
-5.49
-8.17
-9.70
-9.99
-9.58
-8.79
-7.56
-6.59
-4.99
-2.41
0.76
3.79
5.92
6.64
6.38
5.21
3.37
1.40
-0.20
-1.10
-0.91
0.76
4.13
9.04
14.77
20.31
24.73
27.14
26.92
24.09
19.29
13.49
7.73
2.84
-0.39
-0.79
2.35
8.48
15.66
21.49
24.10
22.80
18.07
11.29
4.12
-2.28
-7.45
-11.61
-14.84
-16.88
-17.42
-16.28
-13.61
-9.94
-6.12
-3.06
-1.32
-0.91
-1.36
-1.87
-1.72
-0.45
1.95
4.95
7.66
9.20
9.05
7.18
4.00
0.21
-3.34
-5.92
-7.04
-6.60
-4.84
-2.30
0.31
2.28
3.14
2.82
1.63
0.18
-0.95
-1.32
-0.79
0.53
2.44
4.75
7.22
9.57
11.33
11.90
10.80
7.91
3.54
-1.61
-6.73
-11.17
-14.63
-17.14
-18.87
-20.01
-20.62
-20.65
-20.03
-18.74
-16.86
-14.54
-11.98
-9.43
-7.22
-5.61
-4.61
-3.97
-3.24
-1.88
0.56
4.21
8.77
13.57
17.77
20.70
21.91
21.18
18.60
14.62
9.96
5.42
1.68
-0.77
-1.56
-0.65
1.56
4.52
7.71
10.84
13.72
16.25
18.46
20.70
23.18
25.75
27.98
29.48
29.99
29.37
27.62
23.17
16.07
8.12
1.57
-2.42
-4.14
-4.77
-5.61
-7.52
-10.69
-14.55
-18.37
-22.18
-25.81
-28.46
-28.95
-26.35
-20.56
-12.35
-2.96
6.41
14.49
20.65
25.36
29.63
34.05
38.07
40.40
39.44
34.06
23.12
6.61
-13.85
-35.30
-54.21
-67.24
-71.56
-65.73
-46.89
-17.69
13.82
38.88
52.89
56.10
51.09
42.19
30.49
16.20
-1.03
-20.71
-41.01
-59.48
-72.41
-77.30
-73.26
-61.39
-44.11
-25.20
-8.36
3.80
9.96
9.64
2.95
-9.00
-23.84
-37.72
-46.49
-46.65
-36.55
-17.36
6.96
30.80
49.08
58.80
59.55
52.69
40.35
24.72
7.73
-8.87
-23.45
-34.07
-39.02
-37.33
-29.37
-16.64
-1.19
14.93
30.08
43.03
53.28
60.86
65.79
67.73
66.15
60.58
50.91
37.50
21.11
3.33
-13.48
-26.89
-34.94
-36.47
-31.51
-21.39
-7.67
5.61
13.81
15.10
11.22
5.51
0.61
-2.53
-4.33
-5.78
-7.65
-10.04
-11.82
-12.06
-10.54
-7.61
-3.87
0.14
3.99
7.22
9.68
11.49
12.64
12.80
11.77
9.63
6.73
3.47
0.08
-3.14
-5.81
-7.68
-8.72
-9.09
-9.15
-9.32
-10.01
-11.44
-13.46
-15.61
-17.40
-18.60
-19.22
-19.51
-19.83
-20.49
-21.56
-22.90
-24.14
-24.95
-25.17
-24.81
-24.05
-23.05
-21.85
-20.34
-18.33
-15.72
-12.57
-9.08
-5.53
-2.07
1.29
4.69
8.25
11.99
15.76
19.33
22.50
25.15
27.30
29.04
30.50
31.77
32.88
33.79
34.29
34.08
32.82
30.35
26.82
22.78
19.01
16.26
14.96
15.10
16.23
17.60
18.34
17.65
14.90
9.81
2.53
-6.24
-15.41
-23.80
-30.64
-35.81
-39.85
-43.59
-47.71
-52.32
-57.09
-61.45
-64.96
-67.56
-69.37
-70.52
-71.02
-70.77
-69.67
-67.53
-63.88
-57.86
-48.51
-35.28
-18.75
-0.73
16.21
29.74
38.76
43.65
45.85
46.94
47.83
48.59
48.81
48.18
46.87
45.30
43.86
42.47
40.63
37.80
33.67
28.47
22.94
17.95
14.16
11.77
10.44
9.53
8.38
6.62
4.30
1.79
-0.41
-2.00
-2.97
-3.61
-4.35
-5.48
-7.06
-8.86
-10.50
-11.65
-12.15
-12.07
-11.58
-10.88
-10.06
-9.16
-8.16
-7.13
-6.15
-5.32
-4.67
-4.17
-3.73
-3.29
-2.88
-2.55
-2.38
-2.35
-2.41
-2.43
-2.33
-2.08
-1.71
-1.29
-0.87
-0.48
-0.13
0.19
0.51
0.84
1.14
1.33
1.32
1.02
0.41
-0.43
-1.34
-2.20
-2.90
-3.47
-4.01
-4.66
-5.54
-6.68
-8.05
-9.53
-10.99
-12.28
-13.27
-13.84
-13.94
-13.59
-12.87
-11.92
-10.91
-9.95
-9.10
-8.34
-7.58
-6.73
-5.75
-4.65
-3.52
-2.47
-1.57
-0.75
0.13
1.27
2.79
4.71
6.91
9.24
11.60
14.04
16.69
19.69
22.99
26.30
29.14
30.97
31.42
30.41
28.12
24.98
21.48
18.06
15.05
12.63
10.85
9.61
8.74
8.03
7.22
6.13
4.66
2.83
0.77
-1.30
-3.15
-4.52
-5.23
-5.14
-4.24
-2.65
-0.64
1.48
3.35
4.76
5.61
6.01
6.13
6.10
6.01
5.82
5.45
4.86
4.08
3.22
2.41
1.78
1.33
1.04
0.83
0.63
0.42
0.18
-0.09
-0.44
-0.91
-1.45
-1.97
-2.30
-2.34
-2.09
-1.72
-1.43
-1.40
-1.62
-1.98
-2.32
-2.55
-2.74
-3.04
-3.60
-4.52
-5.76
-7.27
-8.97
-10.78
-12.55
-14.08
-15.11
-15.47
-15.14
-14.32
-13.31
-12.45
-11.88
-11.54
-11.20
-10.62
-9.61
-8.11
-6.22
-4.05
-1.74
0.60
2.88
5.00
6.89
8.50
9.88
11.11
12.30
13.49
14.63
15.60
16.27
16.60
16.57
16.22
15.54
14.49
13.01
11.11
8.91
6.64
4.54
2.72
1.19
-0.17
-1.49
-2.80
-4.03
-5.06
-5.80
-6.20
-6.32
-6.18
-5.78
-5.08
-4.03
-2.68
-1.13
0.45
1.90
3.16
4.23
5.16
5.99
6.73
7.36
7.85
8.20
8.40
8.44
8.33
8.06
7.67
7.15
6.55
5.91
5.36
5.08
5.26
6.08
7.58
9.59
11.78
13.70
14.94
15.26
14.66
13.42
11.99
10.85
10.42
10.85
12.01
13.48
14.76
15.37
15.05
13.80
11.81
9.37
6.73
4.05
1.38
-1.25
-3.76
-6.01
-7.84
-9.15
-9.98
-10.45
-10.76
-11.01
-11.19
-11.23
-11.03
-10.56
-9.91
-9.23
-8.63
-8.12
-7.60
-6.95
-6.14
-5.30
-4.69
-4.57
-5.09
-6.18
-7.55
-8.81
-9.59
-9.71
-9.18
-8.17
-6.94
-5.72
-4.66
-3.85
-3.32
-3.07
-3.09
-3.28
-3.54
-3.71
-3.65
-3.33
-2.84
-2.34
-2.02
-1.99
-2.26
-2.75
-3.30
-3.78
-4.09
-4.16
-3.98
-3.57
-2.95
-2.17
-1.28
-0.36
0.52
1.29
1.89
2.32
2.61
2.84
3.11
3.47
3.92
4.38
4.74
4.91
4.82
4.53
4.15
3.82
3.66
3.71
3.94
4.19
4.30
4.16
3.71
3.02
2.24
1.53
0.96
0.53
0.11
-0.39
-1.04
-1.78
-2.52
-3.17
-3.73
-4.29
-4.95
-5.76
-6.65
-7.42
-7.91
-8.01
-7.80
-7.41
-6.98
-6.55
-6.02
-5.22
-4.03
-2.43
-0.56
1.37
3.13
4.56
5.61
6.33
6.80
7.10
7.31
7.44
7.47
7.37
7.12
6.70
6.15
5.54
4.89
4.27
3.71
3.23
2.81
2.40
1.94
1.37
0.69
-0.04
-0.70
-1.17
-1.38
-1.30
-0.96
-0.49
-0.01
0.33
0.39
0.10
-0.55
-1.48
-2.53
-3.54
-4.41
-5.08
-5.57
-5.95
-6.23
-6.43
-6.50
-6.37
-6.01
-5.45
-4.73
-3.93
-3.09
-2.23
-1.34
-0.40
0.57
1.51
2.31
2.88
3.16
3.17
3.01
2.78
2.55
2.28
1.92
1.41
0.77
0.12
-0.39
-0.64
-0.57
-0.25
0.21
0.71
1.17
1.55
1.83
1.98
1.97
1.81
1.52
1.18
0.87
0.61
0.41
0.23
0.02
-0.27
-0.69
-1.26
-1.98
-2.85
-3.85
-4.95
-6.07
-7.13
-8.05
-8.76
-9.16
-9.23
-8.95
-8.37
-7.59
-6.74
-5.96
-5.32
-4.84
-4.48
-4.15
-3.81
-3.46
-3.14
-2.91
-2.82
-2.89
-3.14
-3.56
-4.10
-4.66
-5.08
-5.17
-4.80
-3.96
-2.83
-1.68
-0.77
-0.24
-0.05
-0.04
-0.04
0.06
0.24
0.46
0.66
0.87
1.13
1.45
1.76
1.96
1.98
1.82
1.56
1.29
1.06
0.88
0.67
0.42
0.16
-0.05
-0.12
-0.02
0.25
0.66
1.20
1.87
2.66
3.53
4.41
5.16
5.68
5.92
5.92
5.77
5.60
5.50
5.49
5.53
5.55
5.49
5.35
5.15
4.94
4.76
4.58
4.39
4.14
3.84
3.52
3.24
3.01
2.83
2.66
2.44
2.18
1.85
1.50
1.13
0.79
0.47
0.21
-0.03
-0.25
-0.50
-0.83
-1.30
-1.93
-2.71
-3.54
-4.29
-4.80
-4.96
-4.69
-3.98
-2.87
-1.45
0.14
1.76
3.24
4.48
5.45
6.19
6.82
7.46
8.17
8.90
9.56
10.05
10.33
10.39
10.29
10.05
9.65
9.09
8.37
7.54
6.70
5.90
5.19
4.54
3.93
3.31
2.68
2.07
1.54
1.09
0.71
0.26
-0.39
-1.32
-2.50
-3.77
-4.93
-5.81
-6.39
-6.74
-7.00
-7.28
-7.63
-8.02
-8.46
-8.95
-9.54
-10.25
-11.03
-11.77
-12.35
-12.64
-12.54
-12.00
-11.03
-9.69
-8.15
-6.61
-5.26
-4.16
-3.22
-2.28
-1.21
0.00
1.18
2.10
2.59
2.59
2.24
1.76
1.35
1.14
1.13
1.25
1.38
1.50
1.60
1.76
2.05
2.50
3.10
3.76
4.41
4.99
5.47
5.87
6.23
6.55
6.84
7.09
7.25
7.32
7.25
7.00
6.57
5.95
5.17
4.28
3.33
2.33
1.31
0.29
-0.68
-1.53
-2.13
-2.34
-2.05
-1.21
0.13
1.82
3.65
5.44
7.05
8.45
9.67
10.82
11.99
13.31
14.86
16.66
18.72
20.96
23.27
25.54
27.68
29.63
31.44
33.20
35.05
37.04
39.15
41.28
43.27
44.95
46.25
47.19
47.89
48.48
49.03
49.45
49.45
48.55
46.12
41.57
34.51
24.92
13.20
0.12
-13.37
-26.34
-38.14
-48.41
-57.17
-64.66
-71.24
-77.21
-82.70
-87.62
-91.64
-94.34
-95.31
-94.29
-91.23
-86.41
-80.27
-73.41
-66.42
-59.74
-53.60
-47.94
-42.54
-37.04
-31.20
-24.94
-18.42
-11.97
-5.94
-0.62
3.84
7.43
10.15
12.00
12.88
12.65
11.22
8.68
5.35
1.68
-1.84
-4.90
-7.38
-9.35
-10.94
-12.21
-13.15
-13.67
-13.72
-13.35
-12.65
-11.75
-10.71
-9.59
-8.38
-7.08
-5.71
-4.29
-2.85
-1.46
-0.21
0.84
1.66
2.33
3.00
3.90
5.21
6.97
9.09
11.31
13.31
14.83
15.75
16.11
16.10
15.98
15.91
15.92
15.92
15.77
15.43
14.97
14.57
14.36
14.35
14.37
14.16
13.55
12.56
11.43
10.50
10.00
10.01
10.36
10.77
10.95
10.77
10.28
9.64
9.07
8.72
8.60
8.58
8.46
8.05
7.31
6.37
5.42
4.68
4.24
4.01
3.77
3.30
2.48
1.36
0.12
-1.03
-1.88
-2.33
-2.36
-2.04
-1.44
-0.66
0.20
1.05
1.81
2.43
2.90
3.26
3.56
3.88
4.28
4.78
5.33
5.82
6.11
6.09
5.72
5.09
4.37
3.74
3.31
3.11
3.05
3.04
3.01
2.93
2.84
2.78
2.73
2.65
2.46
2.13
1.72
1.38
1.23
1.33
1.62
1.88
1.91
1.59
0.95
0.14
-0.62
-1.19
-1.55
-1.78
-2.04
-2.42
-2.95
-3.58
-4.23
-4.86
-5.45
-5.99
-6.45
-6.80
-6.96
-6.88
-6.50
-5.79
-4.76
-3.46
-2.02
-0.63
0.53
1.34
1.82
2.04
2.18
2.33
2.52
2.70
2.82
2.86
2.89
2.97
3.13
3.37
3.62
3.78
3.82
3.74
3.59
3.41
3.27
3.17
3.08
2.93
2.66
2.25
1.74
1.19
0.72
0.44
0.42
0.65
1.01
1.35
1.50
1.38
1.00
0.52
0.10
-0.14
-0.22
-0.28
-0.47
-0.89
-1.54
-2.29
-3.02
-3.61
-4.00
-4.13
-3.97
-3.49
-2.71
-1.76
-0.83
-0.12
0.24
0.26
0.12
0.02
0.13
0.49
0.99
1.46
1.79
1.93
1.94
1.91
1.91
1.95
2.02
2.08
2.13
2.19
2.27
2.36
2.45
2.50
2.53
2.51
2.43
2.24
1.92
1.47
0.95
0.43
0.00
-0.32
-0.56
-0.76
-0.95
-1.09
-1.13
-1.01
-0.75
-0.42
-0.11
0.07
0.05
-0.16
-0.48
-0.81
-1.03
-1.07
-0.91
-0.59
-0.13
0.43
1.05
1.68
2.25
2.69
2.94
3.04
3.06
3.08
3.14
3.19
3.14
2.92
2.57
2.18
1.89
1.75
1.70
1.62
1.42
1.11
0.83
0.68
0.70
0.80
0.82
0.64
0.29
-0.10
-0.37
-0.43
-0.31
-0.15
-0.07
-0.10
-0.20
-0.30
-0.33
-0.35
-0.41
-0.59
-0.89
-1.26
-1.62
-1.91
-2.10
-2.18
-2.11
-1.83
-1.32
-0.55
0.41
1.47
2.55
3.56
4.47
5.30
6.07
6.84
7.66
8.60
9.66
10.83
12.04
13.25
14.42
15.56
16.73
18.01
19.50
21.26
23.32
25.61
28.03
30.47
32.86
35.23
37.77
40.72
44.24
48.35
52.81
57.26
61.37
65.04
68.44
71.98
76.03
80.77
86.04
91.37
96.10
99.49
100.87
99.73
95.85
89.49
81.38
72.54
63.95
56.04
48.49
40.34
30.45
18.08
3.32
-12.90
-29.12
-43.87
-56.07
-65.23
-71.35
-74.82
-76.20
-76.15
-75.32
-74.26
-73.34
-72.76
-72.58
-72.75
-73.25
-73.98
-74.78
-75.39
-75.51
-74.95
-73.66
-71.78
-69.51
-66.98
-64.20
-61.06
-57.49
-53.51
-49.30
-45.09
-41.08
-37.30
-33.62
-29.85
-25.83
-21.52
-17.00
-12.42
-7.91
-3.59
0.49
4.26
7.62
10.47
12.73
14.36
15.41
15.99
16.18
16.09
15.78
15.30
14.75
14.17
13.54
12.80
11.79
10.38
8.54
6.37
4.08
1.94
0.13
-1.27
-2.30
-3.06
-3.66
-4.19
-4.72
-5.35
-6.21
-7.45
-9.16
-11.32
-13.79
-16.33
-18.70
-20.71
-22.31
-23.58
-24.65
-25.66
-26.68
-27.63
-28.36
-28.69
-28.52
-27.89
-26.94
-25.86
-24.83
-23.95
-23.23
-22.63
-22.03
-21.35
-20.54
-19.63
-18.71
-17.86
-17.12
-16.42
-15.67
-14.78
-13.76
-12.71
-11.80
-11.15
-10.74
-10.43
-10.03
-9.42
-8.65
-7.87
-7.30
-7.08
-7.25
-7.73
-8.39
-9.14
-9.92
-10.71
-11.46
-12.15
-12.74
-13.31
-14.00
-14.99
-16.38
-18.16
-20.21
-22.32
-24.33
-26.24
-28.17
-30.34
-32.97
-36.13
-39.73
-43.45
-46.80
-49.20
-50.06
-48.88
-45.39
-39.63
-32.05
-23.41
-14.63
-6.54
0.31
5.71
9.77
12.73
14.84
16.36
17.58
18.95
21.07
24.55
29.69
36.29
43.52
50.15
54.98
57.24
56.85
54.38
50.77
46.92
43.39
40.36
37.70
35.22
32.89
30.87
29.45
28.87
29.18
30.20
31.52
32.72
33.49
33.76
33.59
33.05
32.06
30.41
27.99
24.95
21.77
19.11
17.52
17.22
17.97
19.32
20.79
22.11
23.22
24.20
25.06
25.71
26.05
25.99
25.60
25.02
24.40
23.88
23.50
23.16
22.79
22.40
22.06
21.89
22.03
22.51
23.25
24.07
24.54
24.18
22.57
19.51
15.14
9.92
4.53
-0.30
-4.05
-6.79
-8.90
-10.94
-13.43
-16.70
-20.74
-25.26
-29.70
-33.42
-36.42
-38.81
-40.70
-42.23
-43.74
-45.47
-47.74
-50.30
-52.32
-53.67
-54.05
-53.09
-50.76
-47.92
-45.80
-46.10
-49.47
-55.09
-62.42
-69.99
-75.60
-77.46
-75.41
-70.53
-65.55
-62.74
-63.15
-68.51
-79.00
-92.67
-106.32
-117.16
-123.00
-124.11
-121.68
-104.55
-69.47
-22.59
24.64
63.46
86.75
99.11
104.48
105.38
103.07
97.76
89.12
78.23
67.57
59.53
56.04
56.55
59.47
62.92
63.74
60.07
52.54
43.50
35.37
29.85
26.58
24.59
23.18
21.24
18.37
15.13
12.36
10.43
9.36
8.37
6.98
5.26
3.27
1.21
-0.53
-1.58
-1.91
-1.68
-1.37
-1.27
-1.39
-1.62
-1.82
-1.75
-1.29
-0.57
0.14
0.50
0.38
-0.01
-0.30
-0.17
0.47
1.42
2.30
2.77
2.68
2.16
1.49
0.99
0.84
1.05
1.47
1.91
2.23
2.39
2.43
2.38
2.26
2.02
1.58
0.93
0.12
-0.69
-1.37
-1.85
-2.16
-2.41
-2.72
-3.19
-3.79
-4.45
-5.08
-5.67
-6.24
-6.85
-7.51
-8.12
-8.47
-8.36
-7.66
-6.44
-5.00
-3.73
-2.90
-2.56
-2.44
-2.15
-1.39
-0.08
1.57
3.23
4.59
5.57
6.29
6.96
7.74
8.63
9.49
10.17
10.60
10.79
10.86
10.88
10.89
10.82
10.60
10.18
9.60
8.99
8.51
8.34
8.59
9.23
10.15
11.10
11.83
12.17
12.12
11.86
11.65
11.71
12.10
12.68
13.21
13.44
13.14
12.22
10.73
8.82
6.72
4.65
2.78
1.17
-0.24
-1.52
-2.71
-3.78
-4.60
-5.05
-5.07
-4.73
-4.16
-3.52
-2.93
-2.35
-1.69
-0.83
0.29
1.65
3.12
4.60
6.03
7.42
8.80
10.14
11.39
12.40
13.08
13.44
13.58
13.61
13.57
13.44
13.18
12.83
12.56
12.59
13.10
14.06
15.27
16.35
17.01
17.05
16.53
15.67
14.87
14.55
15.05
16.55
18.96
21.96
25.05
27.71
29.44
29.85
28.64
25.67
21.00
15.01
8.37
1.86
-3.94
-8.82
-12.99
-16.82
-20.63
-24.40
-27.87
-30.72
-32.76
-34.01
-34.55
-34.45
-33.65
-32.15
-30.01
-27.55
-25.15
-23.15
-21.65
-20.51
-19.37
-17.86
-15.69
-12.76
-9.21
-5.33
-1.52
1.76
4.17
5.47
5.62
4.64
2.66
-0.10
-3.37
-6.69
-9.61
-11.70
-12.75
-12.80
-12.10
-11.01
-9.80
-8.65
-7.59
-6.63
-5.79
-5.13
-4.68
-4.46
-4.44
-4.63
-5.09
-5.93
-7.19
-8.81
-10.51
-11.86
-12.34
-11.55
-9.31
-5.74
-1.24
3.62
8.23
12.07
14.81
16.35
16.77
16.32
15.25
13.81
12.13
10.18
7.82
4.90
1.46
-2.17
-5.41
-7.55
-8.07
-6.91
-4.54
-1.81
0.41
1.49
1.27
-0.01
-1.93
