1607751901.00
64.000000
-0.00
-0.00
-0.00
-0.00
-0.00
-0.00
-0.00
-0.00
-0.00
-0.00
0.00
0.01
0.01
-0.00
-0.03
-0.05
-0.05
0.00
0.13
0.36
0.66
1.01
1.37
1.72
2.06
2.40
2.79
3.24
3.80
4.42
5.06
5.66
6.20
6.68
7.15
7.68
8.31
9.14
10.09
11.04
11.88
12.56
13.14
13.76
14.65
15.96
17.91
20.32
22.90
25.38
27.58
29.57
31.68
34.32
37.81
42.54
48.15
54.10
59.83
64.97
69.58
74.14
79.34
85.71
93.76
103.00
112.62
121.73
129.77
136.75
143.30
150.75
157.77
166.64
177.95
191.79
206.97
220.57
228.25
225.36
208.53
176.87
132.76
80.05
23.07
-34.94
-92.44
-149.16
-205.23
-260.37
-313.74
-363.88
-409.83
-450.91
-486.50
-515.72
-537.20
-549.18
-549.89
-538.27
-514.08
-478.50
-433.66
-382.18
-326.70
-269.46
-212.19
-156.15
-102.38
-51.73
-5.19
36.37
72.29
102.30
126.53
145.51
159.93
170.50
177.84
182.36
184.33
184.00
181.63
177.56
172.22
166.01
159.27
152.26
145.10
137.89
130.66
123.45
116.33
109.37
102.64
96.19
90.06
84.26
78.80
73.70
68.96
64.59
60.60
57.00
53.78
50.93
48.44
46.33
44.59
43.23
42.22
41.56
41.19
41.06
41.04
41.01
40.80
40.23
39.11
37.29
34.67
31.19
26.88
21.80
16.10
10.02
3.80
-2.29
-7.99
-13.07
-17.37
-20.78
-23.27
-24.86
-25.64
-25.72
-25.24
-24.32
-23.10
-21.66
-20.07
-18.38
-16.60
-14.78
-12.97
-11.18
-9.42
-7.64
-5.82
-3.91
-1.91
0.23
2.42
4.62
6.78
8.93
11.08
13.30
15.63
18.13
20.86
23.65
26.38
28.99
31.45
33.80
36.11
38.39
40.70
43.06
45.03
46.30
46.70
46.25
45.10
43.51
41.70
39.88
38.19
35.91
32.50
27.59
21.06
12.95
3.32
-8.02
-21.58
-36.04
-51.79
-69.26
-88.69
-109.84
-131.94
-153.94
-174.87
-193.87
-210.33
-225.09
-238.73
-251.35
-262.33
-270.37
-273.82
-271.24
-261.50
-238.30
-198.78
-143.12
-75.02
-0.77
72.91
140.69
199.21
247.05
284.00
309.28
322.71
324.41
315.50
298.47
277.53
255.47
234.21
214.49
195.34
175.56
153.55
128.81
102.81
78.32
57.81
42.40
30.88
19.48
3.27
-21.40
-56.95
-102.83
-155.95
-212.24
-268.29
-322.38
-374.50
-425.24
-477.06
-531.41
-587.18
-640.16
-683.32
-707.66
-703.87
-664.54
-574.48
-432.87
-254.60
-66.12
105.22
241.49
337.89
399.14
433.37
447.70
444.95
427.29
398.54
364.70
332.16
305.35
285.42
270.76
258.21
243.48
224.26
201.08
176.87
155.19
138.47
127.06
119.53
113.61
106.35
96.18
83.31
69.60
57.37
48.21
42.48
39.37
37.54
35.25
31.50
26.20
20.33
15.17
11.75
10.42
10.84
12.23
13.53
13.93
13.07
11.38
9.60
8.49
8.41
9.22
10.24
10.57
10.18
8.05
4.48
0.44
-2.82
-4.29
-3.64
-1.38
1.46
3.85
5.11
5.48
5.81
7.13
10.36
16.15
24.82
35.98
48.10
58.19
62.45
57.32
41.43
16.70
-11.88
-37.97
-56.31
-64.65
-64.21
-58.26
-50.46
-43.08
-36.65
-30.64
-24.51
-18.27
-12.46
-7.61
-3.63
-0.13
3.62
8.32
14.15
20.74
27.36
33.29
38.17
42.25
46.01
50.32
55.89
62.93
71.03
79.14
85.96
90.12
92.62
93.81
94.22
94.31
94.21
93.73
92.33
89.45
84.78
78.49
70.83
62.48
54.14
46.23
38.80
31.52
23.95
15.93
7.76
-0.04
-6.60
-11.21
-13.68
-14.41
-14.33
-14.46
-15.48
-17.48
-20.11
-22.58
-24.09
-24.26
-23.17
-21.40
-19.79
-19.10
-19.84
-22.37
-26.78
-32.69
-38.87
-43.09
-42.55
-35.01
-20.12
-0.04
21.02
38.42
48.96
52.04
49.49
44.11
38.22
32.72
27.25
21.14
14.24
7.18
0.92
-3.86
-7.32
-10.23
-13.56
-18.11
-24.01
-30.79
-37.63
-43.68
-48.50
-52.12
-55.09
-58.06
-61.57
-65.64
-69.89
-73.66
-76.42
-78.01
-78.74
-79.25
-80.12
-81.69
-83.89
-86.40
-88.86
-91.15
-93.45
-96.00
-99.05
-102.57
-106.24
-109.55
-111.99
-113.21
-113.14
-111.94
-109.90
-107.27
-104.22
-100.79
-97.02
-92.98
-88.81
-84.65
-80.61
-76.66
-72.69
-68.59
-64.36
-60.09
-55.96
-52.20
-48.92
-46.14
-43.80
-41.84
-40.22
-38.93
-37.93
-37.15
-36.42
-35.52
-34.29
-32.59
-30.33
-27.54
-24.24
-20.47
-16.27
-11.72
-6.92
-2.01
2.78
7.22
11.09
14.23
16.61
18.35
19.66
20.74
21.74
22.63
23.34
23.68
23.50
22.75
21.63
20.55
20.09
20.72
22.62
25.47
28.54
30.92
31.95
31.43
29.71
27.42
25.21
23.48
22.28
21.51
20.92
20.27
19.29
17.70
15.25
11.78
7.32
2.15
-3.34
-8.69
-13.47
-17.25
-19.64
-20.31
-19.09
-16.14
-11.90
-7.02
-2.13
2.32
6.13
9.31
11.90
13.85
15.01
15.15
14.16
12.13
9.42
6.55
4.07
2.34
1.44
1.21
1.34
1.62
1.96
2.44
3.15
4.10
5.14
5.99
6.37
6.10
5.12
3.54
1.43
-1.07
-3.90
-7.01
-10.32
-13.78
-17.39
-21.27
-25.63
-30.71
-36.66
-43.42
-50.71
-58.06
-64.90
-70.80
-75.45
-78.74
-80.65
-81.19
-80.33
-78.04
-74.29
-69.06
-62.29
-53.90
-43.82
-32.05
-18.77
-4.27
10.98
26.49
41.71
56.05
69.00
80.09
89.04
95.78
100.44
103.21
104.27
103.65
101.41
97.62
92.57
86.69
80.40
73.90
67.18
59.99
52.16
43.72
34.99
26.50
18.71
11.90
6.08
1.12
-3.08
-6.54
-9.29
-11.39
-13.10
-14.74
-16.52
-18.41
-20.08
-21.10
-21.17
-20.25
-18.59
-16.50
-14.14
-11.49
-8.37
-4.68
-0.58
3.51
7.00
9.41
10.52
10.51
9.85
9.14
9.01
9.93
12.14
15.57
19.84
24.34
28.38
31.37
32.95
33.02
31.78
29.47
26.46
23.02
19.39
15.76
12.28
9.08
6.21
3.63
1.21
-1.17
-3.55
-5.87
-7.98
-9.73
-11.13
-12.38
-13.89
-15.97
-18.75
-21.98
-25.11
-27.51
-28.72
-28.61
-27.31
-25.11
-22.24
-18.87
-15.08
-10.96
-6.66
-2.41
1.59
5.18
8.32
11.01
13.27
15.12
16.59
17.74
18.72
19.69
20.84
22.27
23.93
25.65
27.18
28.29
28.83
28.82
28.36
27.65
26.88
26.16
25.53
24.92
24.23
23.26
21.85
19.85
17.26
14.15
10.72
7.19
3.73
0.39
-2.87
-6.20
-9.73
-13.57
-17.72
-22.03
-26.29
-30.16
-33.23
-35.15
-35.62
-34.56
-32.14
-28.67
-24.55
-20.03
-15.26
-10.27
-5.14
-0.06
4.61
8.45
11.16
12.68
13.20
13.09
12.72
12.40
12.33
12.62
13.36
14.55
16.17
18.03
19.80
21.10
21.56
21.02
19.49
17.21
14.53
11.77
9.16
6.74
4.47
2.23
-0.05
-2.39
-4.76
-7.16
-9.58
-12.05
-14.59
-17.16
-19.70
-22.10
-24.27
-26.15
-27.68
-28.78
-29.41
-29.54
-29.18
-28.41
-27.24
-25.63
-23.46
-20.58
-16.93
-12.53
-7.48
-1.97
3.82
9.62
15.11
19.98
23.97
27.02
29.23
30.83
32.03
32.98
33.69
34.03
33.92
33.26
32.08
30.41
28.37
26.05
23.53
20.92
18.26
15.52
12.69
9.77
6.86
4.13
1.74
-0.19
-1.74
-3.09
-4.51
-6.26
-8.40
-10.90
-13.66
-16.58
-19.65
-22.82
-26.05
-29.08
-31.57
-33.17
-33.56
-32.63
-30.44
-27.20
-23.16
-18.56
-13.58
-8.36
-3.05
2.22
7.24
11.83
15.81
19.10
21.72
23.76
25.28
26.32
26.84
26.82
26.28
25.34
24.20
23.07
22.14
21.47
21.01
20.60
20.07
19.23
17.97
16.30
14.29
12.06
9.73
7.45
5.27
3.24
1.33
-0.50
-2.36
-4.40
-6.74
-9.47
-12.62
-16.09
-19.67
-23.07
-25.91
-27.88
-28.81
-28.68
-27.64
-25.84
-23.47
-20.56
-17.12
-13.11
-8.57
-3.64
1.40
6.23
10.48
13.86
16.25
17.71
18.44
18.77
18.96
19.20
19.51
19.82
20.07
20.19
20.17
19.96
19.46
18.58
17.22
15.43
13.35
11.17
9.07
7.09
5.20
3.35
1.46
-0.50
-2.52
-4.61
-6.84
-9.29
-12.10
-15.29
-18.76
-22.23
-25.25
-27.35
-28.19
-27.64
-25.89
-23.28
-20.20
-16.92
-13.53
-10.04
-6.41
-2.69
0.98
4.44
7.55
10.19
12.25
13.71
14.57
14.89
14.80
14.47
14.09
13.81
13.74
13.89
14.16
14.39
14.35
13.81
12.63
10.78
8.39
5.73
3.09
0.77
-1.11
-2.58
-3.86
-5.24
-7.01
-9.39
-12.38
-15.88
-19.63
-23.27
-26.44
-28.82
-30.23
-30.65
-30.17
-28.95
-27.10
-24.62
-21.41
-17.40
-12.59
-7.18
-1.51
4.04
9.06
13.25
16.44
18.55
19.70
20.11
20.08
19.88
19.71
19.60
19.52
19.40
19.20
18.86
18.38
17.68
16.57
14.91
12.67
9.96
7.07
4.31
1.94
-0.05
-1.86
-3.77
-6.06
-8.85
-12.12
-15.69
-19.41
-23.07
-26.47
-29.37
-31.45
-32.39
-31.91
-29.96
-26.69
-22.45
-17.70
-12.87
-8.21
-3.75
0.63
5.04
9.49
13.82
17.67
20.69
22.67
23.60
23.66
23.16
22.40
21.63
20.97
20.44
20.00
19.56
19.06
18.44
17.63
16.58
15.20
13.42
11.23
8.75
6.26
4.02
2.25
0.87
-0.43
-2.13
-4.61
-7.99
-12.05
-16.35
-20.46
-24.09
-27.12
-29.49
-31.10
-31.77
-31.36
-29.87
-27.49
-24.56
-21.35
-17.95
-14.24
-9.98
-5.07
0.42
6.19
11.83
16.88
21.01
24.04
25.99
27.08
27.65
28.01
28.39
28.82
29.21
29.38
29.17
28.47
27.26
25.53
23.35
20.85
18.21
15.67
13.44
11.59
10.04
8.60
7.01
5.12
2.86
0.29
-2.50
-5.37
-8.22
-10.98
-13.66
-16.31
-19.03
-21.96
-25.09
-28.30
-31.24
-33.51
-34.74
-34.73
-33.56
-31.50
-28.87
-25.86
-22.50
-18.68
-14.29
-9.31
-3.90
1.68
7.12
12.14
16.49
19.94
22.39
23.85
24.48
24.62
24.64
24.87
25.46
26.32
27.19
27.71
27.62
26.80
25.37
23.54
21.58
19.64
17.73
15.72
13.50
11.08
8.59
6.22
4.14
2.34
0.68
-1.02
-2.84
-4.73
-6.57
-8.26
-9.78
-11.22
-12.72
-14.33
-16.05
-17.81
-19.56
-21.33
-23.11
-24.86
-26.42
-27.50
-27.86
-27.33
-25.94
-23.81
-21.08
-17.76
-13.77
-9.03
-3.59
2.30
8.15
13.42
17.63
20.54
22.17
22.74
22.60
22.09
21.44
20.83
20.27
19.75
19.21
18.63
18.00
17.27
16.40
15.29
13.89
12.14
10.10
7.84
5.48
3.14
0.89
-1.25
-3.32
-5.36
-7.37
-9.25
-10.83
-11.92
-12.41
-12.41
-12.30
-12.57
-13.67
-15.74
-18.53
-21.47
-24.03
-25.96
-27.52
-29.32
-31.96
-35.67
-40.10
-44.36
-47.42
-48.32
-46.58
-42.33
-36.45
-30.49
-26.36
-25.75
-29.33
-36.20
-43.87
-48.82
-47.52
-37.62
-18.61
7.96
38.92
70.35
98.53
120.73
135.71
143.63
145.50
142.50
135.37
124.36
109.57
91.59
71.86
52.37
35.08
21.09
10.38
2.07
-4.88
-11.10
-16.55
-20.80
-23.54
-24.90
-25.56
-26.37
-28.06
-30.79
-34.28
-37.93
-41.15
-43.66
-45.53
-47.03
-48.46
-49.90
-51.19
-51.97
-51.92
-50.84
-48.74
-45.79
-42.21
-38.16
-33.74
-29.05
-24.21
-19.44
-15.00
-11.07
-7.78
-5.15
-3.22
-2.13
-2.07
-3.18
-5.36
-8.20
-11.04
-13.23
-14.34
-14.41
-13.80
-13.04
-12.57
-12.63
-13.32
-14.70
-16.86
-19.90
-23.82
-28.46
-33.47
-38.44
-42.98
-46.83
-49.88
-52.20
-54.03
-55.70
-57.50
-59.61
-61.96
-64.23
-65.89
-66.41
-65.33
-62.33
-57.25
-50.11
-41.20
-31.08
-20.41
-9.72
1.02
12.47
25.62
41.36
59.93
80.70
102.28
122.89
140.81
154.63
163.34
166.53
164.38
157.83
148.52
138.53
129.85
123.82
120.80
120.07
120.26
119.65
116.71
110.45
100.50
87.19
71.48
54.67
38.08
22.80
9.40
-2.02
-11.74
-20.16
-27.60
-34.19
-39.91
-44.77
-48.90
-52.67
-56.57
-61.09
-66.53
-72.84
-79.60
-86.13
-91.68
-95.62
-97.56
-97.36
-95.06
-90.81
-84.84
-77.49
-69.22
-60.69
-52.56
-45.35
-39.24
-34.02
-29.25
-24.45
-19.34
-13.96
-8.57
-3.46
1.13
5.17
8.82
12.26
15.62
18.81
21.63
23.78
25.03
25.33
24.84
23.85
22.64
21.38
20.07
18.60
16.88
14.86
12.63
10.30
7.97
5.65
3.31
0.88
-1.66
-4.31
-7.06
-9.87
-12.72
-15.59
-18.50
-21.41
-24.20
-26.68
-28.63
-29.83
-30.17
-29.66
-28.39
-26.47
-23.98
-20.97
-17.46
-13.48
-9.20
-4.82
-0.62
3.06
5.98
8.03
9.27
9.93
10.37
10.92
11.72
12.74
13.80
14.65
15.19
15.50
15.76
16.12
16.60
17.06
17.27
17.07
16.44
15.47
14.28
12.96
11.44
9.67
7.61
5.29
2.86
0.48
-1.77
-3.89
-5.95
-8.04
-10.18
-12.39
-14.67
-17.02
-19.42
-21.74
-23.80
-25.31
-26.08
-26.01
-25.14
-23.60
-21.52
-19.02
-16.15
-13.00
-9.72
-6.53
-3.65
-1.23
0.66
2.05
3.03
3.71
4.25
4.77
5.45
6.40
7.67
9.17
10.73
12.10
13.03
13.36
13.11
12.43
11.64
11.01
10.71
10.67
10.65
10.35
9.55
8.22
6.48
4.47
2.28
-0.14
-2.86
-5.88
-9.09
-12.30
-15.35
-18.21
-20.96
-23.67
-26.25
-28.39
-29.68
-29.76
-28.52
-26.19
-23.25
-20.21
-17.43
-15.04
-12.88
-10.75
-8.52
-6.26
-4.23
-2.73
-1.98
-2.02
-2.75
-3.99
-5.58
-7.37
-9.32
-11.38
-13.48
-15.57
-17.57
-19.46
-21.25
-23.04
-25.00
-27.37
-30.34
-34.01
-38.25
-42.66
-46.69
-49.83
-51.70
-52.17
-51.23
-48.89
-45.16
-39.97
-33.29
-25.22
-16.04
-6.13
4.05
14.06
23.52
32.07
39.38
45.17
49.28
51.74
52.80
52.94
52.69
52.59
52.96
53.90
55.26
56.73
57.90
58.40
57.93
56.34
53.72
50.32
46.56
42.83
39.49
36.72
34.55
32.90
31.62
30.54
29.53
28.48
27.32
26.04
24.61
23.01
21.24
19.27
17.09
14.70
12.14
9.46
6.75
4.10
1.59
-0.73
-2.89
-4.96
-7.06
-9.25
-11.53
-13.82
-15.93
-17.67
-18.86
-19.42
-19.32
-18.60
-17.28
-15.40
-12.99
-10.15
-7.07
-4.01
-1.29
0.86
2.35
3.25
3.74
4.01
4.25
4.55
4.92
5.36
5.84
6.33
6.78
7.09
7.16
6.93
6.33
5.40
4.16
2.64
0.89
-1.01
-2.87
-4.45
-5.51
-5.99
-6.16
-6.60
-8.07
-11.18
-16.15
-22.64
-29.91
-37.09
-43.40
-48.34
-51.53
-52.75
-51.90
-49.14
-45.10
-40.78
-37.33
-35.59
-35.85
-37.89
-41.25
-45.50
-50.31
-55.16
-59.18
-61.11
-59.64
-54.07
-44.63
-32.48
-19.20
-6.17
5.73
16.03
24.27
29.75
31.70
29.72
24.22
16.47
8.12
0.62
-5.20
-9.13
-11.35
-12.05
-11.34
-9.46
-6.90
-4.49
-3.08
-3.23
-4.88
-7.46
-10.14
-12.23
-13.36
-13.51
-12.85
-11.53
-9.53
-6.38
-1.10
7.75
21.80
42.25
69.38
102.01
137.38
171.68
200.83
221.47
231.65
231.02
220.62
202.29
178.22
150.63
121.66
93.31
67.20
44.33
24.90
8.31
-6.54
-20.77
-35.10
-49.71
-64.34
-78.50
-91.75
-103.71
-114.07
-122.62
-129.22
-133.83
-136.56
-137.56
-136.87
-134.32
-129.53
-122.21
-112.38
-100.57
-87.69
-74.77
-62.62
-51.58
-41.56
-32.23
-23.32
-14.74
-6.68
0.55
6.69
11.64
15.49
18.43
20.64
22.17
23.07
23.45
23.53
23.63
24.04
24.82
25.73
26.33
26.23
25.35
23.97
22.60
21.70
21.35
21.26
20.86
19.63
17.25
13.69
9.14
3.94
-1.49
-6.63
-10.85
-13.55
-14.28
-12.99
-10.03
-6.12
-2.08
1.46
4.21
6.26
7.86
9.20
10.21
10.56
10.01
8.63
7.07
6.31
7.33
10.61
15.89
22.30
28.82
34.70
39.72
44.07
47.98
51.51
54.37
56.12
56.34
54.81
51.60
47.00
41.34
35.02
28.39
21.80
15.63
10.18
5.70
2.20
-0.48
-2.71
-4.89
-7.28
-9.84
-12.17
-13.65
-13.72
-12.15
-9.12
-5.17
-0.88
3.36
7.48
11.81
16.74
22.51
29.16
36.46
44.11
51.79
59.21
66.05
71.96
76.60
79.77
81.52
82.19
82.28
82.34
82.73
83.60
84.79
85.89
86.22
84.85
80.71
73.01
61.47
46.63
29.77
12.54
-3.48
-17.12
-27.96
-36.21
-42.68
-48.70
-56.06
-66.49
-81.28
-100.40
-122.52
-145.27
-166.20
-183.86
-198.47
-211.94
-227.03
-245.99
-269.19
-294.69
-318.53
-336.04
-343.54
-339.34
-323.98
-299.53
-268.85
-234.90
-200.63
-168.82
-141.73
-120.30
-103.31
-87.42
-67.92
-40.97
-5.39
36.48
79.37
117.22
145.13
160.95
165.52
161.74
153.24
143.27
133.96
126.63
122.27
121.79
126.14
135.36
148.31
162.76
176.27
187.42
196.18
203.23
208.65
211.09
207.98
197.06
178.21
154.24
130.04
110.22
97.36
90.98
88.56
87.19
84.81
80.72
75.12
68.61
61.98
56.44
53.49
54.58
60.24
69.76
81.38
93.10
103.39
111.51
117.30
120.57
120.82
117.51
110.58
100.72
89.35
77.93
67.36
57.47
47.29
35.55
21.38
4.66
-14.03
-33.74
-53.53
-72.61
-90.15
-104.96
-115.43
-119.68
-116.30
-105.04
-87.35
-66.14
-45.00
-27.04
-13.96
-5.72
-1.00
1.89
4.19
6.30
8.00
8.91
8.67
6.76
2.15
-6.71
-21.32
-42.02
-67.15
-93.17
-115.81
-131.70
-139.62
-140.59
-136.86
-130.56
-122.67
-113.00
-100.88
-86.02
-68.85
-50.33
-31.46
-13.00
4.50
20.46
34.27
45.50
54.22
61.18
67.58
74.76
83.69
94.65
107.10
119.74
130.90
138.97
142.90
142.41
137.98
130.54
121.01
110.13
98.42
86.38
74.72
64.17
55.18
47.65
40.95
34.35
27.49
20.55
14.02
8.33
3.58
-0.47
-4.10
-7.41
-10.36
-12.91
-15.24
-17.71
-20.58
-23.76
-26.79
-29.01
-30.05
-30.04
-29.64
-29.71
-30.97
-33.67
-37.53
-41.92
-45.92
-48.52
-48.61
-45.15
-37.43
-25.44
-10.15
6.47
21.84
33.48
39.78
40.49
36.57
29.71
21.52
13.03
4.60
-3.85
-12.39
-20.89
-29.08
-36.80
-44.20
-51.56
-58.99
-66.11
-72.01
-75.63
-76.25
-73.84
-69.16
-63.33
-57.37
-51.86
-46.83
-41.96
-36.87
-31.38
-25.56
-19.69
-14.11
-9.08
-4.69
-0.90
2.37
5.13
7.19
8.14
7.49
4.82
0.01
-6.77
-15.11
-24.53
-34.48
-44.23
-52.71
-58.49
-60.09
-56.51
-47.79
-35.15
-20.69
-6.61
5.55
15.30
23.08
29.70
35.68
41.05
45.37
48.17
49.19
48.53
46.45
43.09
38.32
31.79
23.24
12.78
1.11
-10.64
-21.23
-29.72
-35.85
-40.06
-43.23
-46.34
-50.05
-54.58
-59.72
-65.08
-70.21
-74.75
-78.44
-81.09
-82.64
-83.21
-83.07
-82.42
-81.29
-79.29
-75.79
-70.07
-61.71
-50.87
-38.39
-25.66
-14.33
-5.83
-1.08
-0.19
-2.43
-6.52
-11.00
-14.89
-18.08
-21.32
-25.84
-32.72
-42.34
-54.05
-66.33
-77.25
-85.09
-88.85
-88.44
-84.72
-79.16
-73.53
-69.48
-68.25
-70.31
-75.28
-81.95
-88.71
-93.91
-96.22
-95.05
-90.49
-83.15
-73.63
-62.15
-48.35
-31.69
-11.82
11.09
36.46
63.53
91.70
120.50
149.32
177.11
202.38
223.47
239.23
249.43
254.91
257.30
258.35
259.48
261.50
264.62
268.47
272.13
274.19
272.90
266.50
253.51
232.99
204.71
169.23
127.95
83.07
37.38
-6.11
-44.79
-77.00
-102.33
-121.56
-136.25
-148.37
-159.17
-168.50
-174.81
-175.91
-169.99
-156.38
-136.07
-111.52
-86.42
-64.19
-46.84
-34.58
-26.37
-20.54
-15.52
-10.32
-4.80
-0.60
0.16
-4.16
-14.17
-29.65
-49.24
-70.37
-89.39
-102.56
-110.29
-115.08
-120.41
-129.64
-145.67
-169.27
-197.47
-223.45
-238.70
-241.85
-233.84
-215.51
-186.21
-145.88
-95.89
-38.93
21.37
80.20
122.63
136.25
117.69
74.25
17.10
-43.52
-100.54
-150.23
-192.02
-239.84
-305.89
-392.87
-492.43
-594.46
-692.36
-784.44
-871.92
-883.38
-780.34
-579.33
-342.16
-125.81
43.49
165.65
251.13
312.20
358.89
386.27
389.74
365.70
328.26
290.61
260.64
240.53
230.09
228.18
223.90
208.11
178.23
139.01
94.07
48.73
1.94
-48.18
-101.36
-159.42
-219.41
-273.00
-308.97
-321.32
-311.35
-286.53
-255.19
-223.15
-195.32
-173.12
-155.10
-137.96
-119.92
-100.48
-80.18
-58.83
-35.74
-11.66
11.92
33.34
51.39
65.20
74.75
80.66
84.53
88.15
92.74
98.47
104.49
109.58
112.64
113.44
112.49
111.09
110.64
112.04
115.34
119.80
124.41
128.29
131.20
133.47
135.80
138.96
143.47
149.64
157.61
167.32
178.19
188.87
197.17
200.73
197.89
188.53
174.14
157.13
139.78
123.38
108.18
93.88
80.38
68.03
57.31
48.31
40.52
33.19
26.18
20.46
18.06
21.15
30.99
47.18
67.77
89.98
111.31
130.34
147.03
162.57
178.93
198.13
221.42
248.48
276.97
302.88
321.55
329.36
325.04
310.24
288.81
265.44
244.08
227.04
214.90
206.93
201.76
197.83
193.61
187.76
179.33
167.92
153.64
136.90
118.12
97.61
75.73
53.20
31.18
11.28
-4.85
-15.77
-20.54
-18.89
-11.36
0.40
13.72
25.32
32.23
32.80
27.29
17.63
6.46
-4.15
-13.56
-22.62
-32.92
-45.77
-61.45
-79.14
-97.36
-114.71
-130.29
-143.94
-156.01
-167.09
-177.80
-188.91
-201.43
-216.73
-236.04
-259.68
-286.11
-311.78
-331.78
-341.62
-338.96
-324.42
-301.00
-272.39
-241.23
-208.39
-173.63
-136.87
-99.24
-62.94
-30.15
-1.88
22.59
45.08
67.29
89.83
111.95
132.18
149.26
162.96
174.27
185.21
198.18
214.88
235.04
255.40
270.08
272.52
258.38
228.09
187.37
145.28
110.45
87.69
76.49
72.20
69.04
63.09
53.60
42.40
31.95
23.51
16.44
8.75
-1.64
-15.69
-32.82
-51.05
-67.95
-81.57
-91.28
-97.74
-102.37
-106.43
-110.29
-113.14
-113.41
-109.67
-101.41
-89.45
-75.72
-62.45
-51.36
-43.08
-37.04
-31.94
-26.45
-19.80
-12.07
-4.06
3.16
8.81
12.67
15.23
17.34
19.83
23.09
26.94
30.73
33.65
35.03
34.56
32.19
28.14
22.66
16.03
8.63
0.91
-6.61
-13.46
-19.37
-24.38
-28.81
-33.16
-37.80
-42.87
-48.08
-52.86
-56.48
-58.40
-58.33
-56.33
-52.68
-47.78
-42.04
-35.78
-29.31
-22.91
-16.84
-11.29
-6.40
-2.33
0.77
2.70
3.44
3.21
2.63
2.52
3.70
6.63
11.24
16.95
22.89
28.22
32.36
35.06
36.28
36.09
34.63
32.10
28.85
25.36
22.10
19.39
17.26
15.38
13.26
10.42
6.63
2.00
-3.10
-8.23
-13.13
-17.84
-22.62
-27.76
-33.29
-38.84
-43.71
-47.18
-48.75
-48.37
-46.30
-42.96
-38.72
-33.84
-28.55
-23.17
-18.16
-14.02
-11.15
-9.65
-9.30
-9.61
-10.01
-10.07
-9.61
-8.73
-7.76
-7.03
-6.78
-7.09
-7.88
-9.10
-10.76
-12.98
-15.81
-19.20
-22.86
-26.33
-29.16
-31.08
-32.09
-32.45
-32.62
-33.14
-34.53
-37.19
-41.28
-46.59
-52.57
-58.33
-62.88
-65.34
-65.22
-62.44
-57.35
-50.56
-42.78
-34.72
-26.98
-19.99
-13.94
-8.73
-4.04
0.52
5.27
10.19
15.02
19.32
22.77
25.36
27.55
30.12
34.03
40.14
48.91
60.22
73.22
86.46
98.12
106.44
110.28
109.38
104.39
96.62
87.52
78.29
69.61
61.70
54.54
48.17
42.86
39.09
37.44
38.21
41.27
45.96
51.34
56.47
60.97
65.07
69.56
75.34
82.94
92.10
101.67
109.66
113.65
111.29
100.88
81.89
55.33
23.82
-8.99
-39.16
-63.45
-79.95
-88.27
-89.25
-84.33
-75.07
-62.86
-49.00
-34.83
-22.02
-12.51
-8.16
-10.30
-19.11
-33.37
-50.58
-67.46
-80.78
-88.18
-88.66
-82.58
-71.48
-57.54
-43.05
-30.00
-19.78
-13.04
-9.95
-10.42
-14.56
-22.83
-35.73
-53.26
-74.21
-95.97
-114.85
-127.16
-130.30
-123.57
-108.28
-87.09
-63.04
-38.57
-15.11
6.97
27.92
48.06
67.21
84.36
97.53
104.07
101.30
87.52
62.86
29.84
-6.98
-42.03
-70.35
-88.90
-97.08
-96.29
-88.86
-76.91
-61.82
-44.35
-25.30
-6.05
11.20
23.96
30.00
27.96
17.67
0.08
-22.89
-48.69
-74.44
-97.33
-115.03
-126.18
-130.62
-129.48
-124.95
-119.75
-116.47
-116.67
-120.26
-125.34
-128.75
-127.25
-118.85
-103.73
-84.27
-64.20
-47.29
-36.12
-31.60
-32.96
-38.26
-44.87
-49.87
-50.31
-43.62
-28.18
-3.87
27.53
62.60
96.97
126.38
147.68
159.46
162.05
157.09
146.77
133.18
117.91
102.04
86.38
71.78
59.27
49.87
44.21
42.17
42.75
44.34
45.20
44.01
40.08
33.38
24.34
13.61
2.06
-9.32
-19.38
-27.13
-32.02
-34.20
-34.45
-33.89
-33.57
-34.14
-35.68
-37.70
-39.41
-39.94
-38.65
-35.47
-30.95
-26.07
-21.92
-19.13
-17.65
-16.81
-15.68
-13.42
-9.66
-4.49
1.67
8.19
14.37
19.52
23.15
25.19
26.10
26.73
27.91
30.03
32.72
35.08
36.12
35.27
32.71
29.23
25.90
23.61
22.78
23.40
25.14
27.62
30.40
33.05
35.00
35.58
34.08
30.00
23.20
14.08
3.50
-7.31
-17.04
-24.51
-28.94
-30.05
-28.07
-23.56
-17.24
-9.74
-1.54
7.03
15.65
23.91
31.24
37.03
40.81
42.36
41.75
39.28
35.31
30.19
24.26
17.89
11.55
5.84
1.42
-1.15
-1.59
0.02
3.21
7.13
10.86
13.60
14.93
15.03
14.53
14.36
15.21
17.30
20.11
22.51
23.17
21.02
15.71
7.72
-1.70
-10.99
-18.71
-23.93
-26.37
-26.26
-24.08
-20.36
-15.49
-9.73
-3.33
3.54
10.81
18.57
27.04
36.30
46.02
55.33
62.86
67.17
67.27
62.93
54.64
43.29
29.67
14.31
-2.35
-19.60
-36.18
-50.30
-60.24
-64.97
-64.61
-60.33
-53.87
-46.77
-39.92
-33.45
-27.12
-20.75
-14.57
-9.23
-5.47
-3.79
-4.16
-6.02
-8.54
-11.00
-13.05
-14.76
-16.43
-18.30
-20.32
-22.19
-23.49
-23.98
-23.70
-22.88
-21.71
-20.22
-18.24
-15.53
-12.06
-8.11
-4.22
-0.98
1.20
2.32
2.71
2.85
3.00
3.02
2.31
0.06
-4.27
-10.65
-18.28
-25.91
-32.35
-37.16
-40.88
-44.92
-50.84
-59.56
-70.80
-83.03
-94.09
-102.01
-105.86
-106.16
-104.74
-104.28
-107.49
-116.28
-130.96
-149.69
-168.42
-181.70
-184.15
-172.17
-145.21
-105.85
-58.73
-8.74
40.63
88.10
134.41
181.23
229.67
279.11
326.68
367.71
397.16
411.32
409.15
392.85
367.15
337.74
309.50
285.40
266.40
252.24
242.19
235.40
230.51
225.26
216.55
201.39
178.24
148.01
113.98
80.59
51.59
28.41
9.73
-7.73
-27.56
-51.96
-80.84
-112.29
-143.49
-172.13
-197.26
-219.56
-241.06
-264.67
-293.60
-330.50
-376.25
-428.54
-481.29
-525.65
-552.44
-555.52
-534.21
-493.64
-442.49
-389.47
-340.31
-296.67
-257.30
-220.21
-184.56
-150.95
-120.54
-93.70
-69.40
-45.51
-19.90
8.82
41.04
76.27
113.65
152.00
189.51
223.61
251.21
269.45
276.72
273.32
261.45
244.59
226.39
209.80
196.54
187.14
181.30
178.17
176.63
175.45
173.40
169.38
162.56
152.47
139.06
122.77
104.51
85.48
66.88
49.70
34.51
21.51
10.64
1.74
-5.32
-10.68
-14.44
-16.67
-17.50
-17.07
-15.52
-13.06
-9.88
-6.15
-1.99
2.46
7.07
11.71
16.21
20.36
23.89
26.48
27.87
27.94
26.77
24.65
22.00
19.18
16.48
14.00
11.81
9.97
8.59
7.75
7.37
7.22
6.99
6.42
5.42
4.13
2.80
1.59
0.54
-0.56
-1.96
-3.93
-6.49
-9.46
-12.47
-15.15
-17.20
-18.51
-19.09
-18.99
-18.25
-16.86
-14.74
-11.83
-8.18
-3.93
0.65
5.18
9.31
12.79
15.48
17.32
18.32
18.52
17.99
16.93
15.62
14.41
13.57
13.15
13.04
13.01
12.88
12.70
12.71
13.15
14.09
15.31
16.39
16.88
16.52
15.35
13.63
11.68
9.76
7.91
6.06
3.99
1.58
-1.20
-4.21
-7.23
-9.95
-12.14
-13.62
-14.35
-14.35
-13.67
-12.33
-10.32
-7.61
-4.26
-0.42
3.67
7.69
11.47
14.93
18.18
21.36
24.51
27.50
30.03
31.81
32.67
32.73
32.33
31.87
31.71
32.03
32.82
33.97
35.32
36.70
37.90
38.79
39.24
39.31
39.20
39.24
39.78
41.00
42.80
44.80
46.44
47.08
46.30
44.09
40.96
37.88
36.01
36.25
38.81
43.03
47.49
50.49
50.59
47.11
40.28
31.14
21.06
11.31
2.61
-5.01
-12.15
-19.74
-28.72
-39.69
-52.75
-67.36
-82.50
-97.04
-110.15
-121.79
-132.87
-144.92
-159.18
-175.66
-192.50
-206.17
-212.52
-208.00
-190.85
-161.60
-122.88
-78.72
-33.72
7.75
42.17
67.38
82.89
89.88
90.77
88.57
85.94
84.51
84.50
84.94
84.18
80.61
73.39
62.63
49.28
34.58
19.52
4.65
-9.77
-23.44
-35.76
-45.85
-52.75
-55.78
-54.70
-49.84
-42.03
-32.57
-23.04
-15.00
-9.63
-7.32
-7.64
-9.53
-11.77
-13.43
-14.04
-13.35
-11.07
-6.81
-0.17
8.93
19.87
31.26
41.26
48.05
50.48
48.45
42.84
35.33
27.76
21.56
17.57
16.29
18.68
26.53
42.17
67.18
101.33
141.87
184.01
222.27
252.02
270.60
277.51
273.95
261.72
243.11
220.82
197.75
176.46
158.60
144.74
134.69
127.98
123.31
119.40
115.34
110.76
105.52
99.46
92.23
83.19
71.48
54.74
31.10
0.34
-35.59
-73.57
-110.70
-145.11
-176.06
-203.51
-229.35
-255.14
-281.30
-306.45
-328.52
-345.69
-356.86
-361.59
-349.06
-311.91
-250.45
-174.43
-96.57
-26.22
32.76
80.29
117.95
147.74
169.89
184.62
192.33
194.72
193.98
192.30
191.21
191.34
192.67
193.37
191.41
183.02
169.67
153.34
136.74
122.12
110.59
102.24
95.80
89.98
80.15
63.66
40.52
13.61
-13.52
-38.48
-60.45
-79.73
-96.71
-117.98
-148.13
-187.80
-233.20
-279.36
-322.96
-362.88
-399.23
-432.41
-471.13
-522.02
-586.60
-660.72
-738.50
-815.84
-891.13
-963.83
-980.41
-910.14
-757.00
-558.83
-360.31
-189.92
-57.03
40.57
109.49
157.01
181.99
185.90
176.50
167.13
170.10
190.62
225.37
265.65
302.23
322.96
322.40
303.38
274.65
245.04
219.40
198.75
182.45
170.18
158.30
144.22
127.33
109.08
91.33
75.06
60.90
49.61
42.21
37.72
35.09
33.22
32.52
33.19
34.83
37.09
39.66
42.42
44.72
45.99
45.99
44.87
42.70
39.29
35.01
29.98
24.20
17.72
10.89
4.27
-1.40
-5.75
-8.97
-10.55
-10.91
-10.98
-11.62
-12.93
-14.14
-13.90
-11.09
-5.56
3.57
15.77
29.45
43.05
56.11
69.57
85.79
108.35
137.28
175.33
223.21
278.13
333.48
380.40
410.40
418.64
405.96
368.07
310.42
243.53
178.65
123.15
79.17
45.33
19.99
2.68
-7.19
-9.71
-7.64
-5.69
-8.35
-17.92
-33.28
-52.65
-73.79
-95.35
-116.39
-138.18
-163.25
-194.08
-228.56
-264.83
-301.00
-334.38
-361.19
-375.74
-372.93
-350.42
-310.44
-259.76
-208.16
-164.57
-133.85
-115.82
-106.29
-100.33
-94.72
-88.55
-83.03
-78.52
-74.40
-69.23
-61.87
-52.41
-42.43
-34.35
-30.22
-30.89
-35.88
-43.76
-52.63
-61.04
-68.54
-75.68
-83.56
-92.79
-103.40
-114.72
-125.55
-134.56
-140.62
-143.08
-141.56
-138.23
-134.17
-129.92
-125.48
-120.53
-114.72
-107.85
-100.03
-91.68
-83.39
-75.38
-67.79
-60.59
-53.69
-47.02
-40.56
-34.37
-28.63
-23.57
-19.14
-15.32
-12.09
-9.38
-7.14
-5.29
-3.76
-2.48
-1.44
-0.50
0.39
1.24
1.99
2.64
3.21
3.74
4.31
4.96
5.78
6.73
7.76
8.79
9.83
10.97
12.41
14.36
16.95
20.18
23.85
27.66
31.27
34.55
37.62
40.82
44.62
49.39
55.21
61.82
68.74
75.49
81.88
88.15
94.95
103.10
113.21
125.41
139.30
154.07
168.89
183.21
197.06
210.93
225.76
242.70
262.85
286.85
314.27
343.16
370.07
390.72
401.34
399.95
387.18
365.95
340.24
313.60
288.11
264.20
241.21
218.29
194.99
171.43
148.14
125.73
104.69
85.33
67.73
51.81
37.33
24.06
11.85
0.71
-9.25
-18.00
-25.63
-32.43
-38.64
-44.33
-49.28
-53.13
-55.64
-56.82
-57.03
-56.80
-56.65
-56.92
-57.67
-58.75
-59.91
-60.95
-61.80
-62.52
-63.20
-63.86
-64.40
-64.53
-63.91
-62.25
-59.48
-55.83
-51.78
-47.83
-44.30
-41.18
-38.15
-34.71
-30.40
-25.04
-18.78
-12.02
-5.25
1.22
7.33
13.22
19.09
24.93
30.45
35.14
38.50
40.25
40.51
39.82
38.96
38.77
39.85
42.40
46.04
49.88
52.82
53.95
52.99
50.53
47.88
46.73
48.52
54.03
63.10
74.59
86.62
96.89
103.25
104.26
99.72
90.71
79.17
67.13
55.96
46.04
36.96
28.11
19.21
10.46
2.34
-4.68
-10.39
-14.73
-17.68
-19.25
-19.58
-19.10
-18.44
-18.03
-17.76
-16.76
-13.80
-7.95
0.78
11.35
22.16
31.97
40.61
49.07
58.77
70.58
84.09
97.73
109.49
117.94
122.83
125.04
126.02
126.88
128.00
128.92
128.83
127.04
123.33
118.02
111.89
105.98
101.51
99.74
101.70
107.84
117.52
128.76
138.52
143.49
141.11
130.45
112.46
89.32
63.50
36.82
10.16
-16.17
-41.79
-65.83
-87.14
-104.98
-119.68
-132.83
-146.68
-163.11
-182.78
-204.86
-227.60
-249.20
-268.82
-286.99
-305.44
-326.59
-352.99
-386.91
-429.62
-480.57
-536.34
-590.55
-634.85
-661.43
-665.82
-648.71
-615.70
-575.01
-534.26
-498.08
-467.51
-441.20
-417.32
-394.95
-374.13
-355.15
-337.57
-320.02
-300.72
-278.34
-252.61
-224.39
-195.30
-166.90
-140.13
-115.01
-90.78
-66.24
-40.38
-12.67
16.69
46.89
76.86
105.65
132.76
158.24
182.65
206.73
231.21
256.68
283.72
312.95
344.80
378.91
413.52
445.17
469.34
481.75
479.96
464.30
437.84
405.14
370.71
337.65
307.36
279.99
255.33
233.34
214.18
197.86
183.82
170.97
158.06
144.29
129.60
114.71
100.69
88.40
78.21
69.83
62.61
55.85
49.16
42.55
36.41
31.24
27.38
24.82
23.15
21.77
20.16
18.23
16.38
15.29
15.36
16.36
17.23
16.39
12.40
4.45
-7.33
-21.89
-37.62
-52.68
-65.40
-74.48
-79.17
-79.45
-76.04
-70.33
-64.02
-58.72
-55.51
-54.81
-56.41
-59.68
-63.82
-68.04
-71.64
-74.11
-75.20
-74.95
-73.63
-71.65
-69.37
-66.97
-64.42
-61.51
-57.99
-53.71
-48.66
-42.96
-36.84
-30.62
-24.67
-19.37
-15.06
-11.81
-9.43
-7.49
-5.54
-3.39
-1.21
0.53
1.40
1.29
0.59
0.01
0.21
1.38
3.18
4.85
5.75
5.70
5.16
5.06
6.23
9.01
12.94
16.97
19.86
20.78
19.66
17.16
14.39
12.40
11.73
12.30
13.50
14.57
14.90
14.31
13.05
11.69
11.23
13.20
19.57
32.10
51.30
75.39
100.24
120.35
130.84
129.44
117.29
98.29
77.25
57.88
41.68
28.17
16.07
4.54
-6.29
-15.64
-22.86
-28.01
-31.92
-35.61
-39.61
-43.56
-46.22
-46.22
-42.79
-36.30
-28.21
-20.38
-14.22
-10.00
-6.78
-2.79
3.79
14.17
28.49
45.72
63.75
79.77
90.94
95.11
91.62
81.47
66.98
51.00
35.84
22.74
11.88
2.85
-4.68
-10.66
-14.82
-17.10
-17.99
-18.39
-19.22
-21.01
-23.55
-26.14
-28.00
-28.74
-28.51
-27.94
-27.73
-28.36
-29.87
-31.95
-34.11
-35.94
-37.21
-37.91
-38.17
-38.16
-38.00
-37.64
-36.93
-35.64
-33.64
-30.93
-27.68
-24.20
-20.83
-17.88
-15.59
-14.03
-13.20
-12.94
-13.02
-13.21
-13.31
-13.28
-13.23
-13.35
-13.88
-14.96
-16.61
-18.70
-20.96
-23.04
-24.58
-25.28
-24.96
-23.60
-21.36
-18.46
-15.10
-11.44
-7.61
-3.78
-0.16
3.02
5.60
7.56
9.02
10.19
11.20
12.12
12.95
13.67
14.30
14.93
15.63
16.41
17.22
17.96
18.48
18.67
18.43
17.69
16.45
14.74
12.72
10.59
8.60
6.99
5.88
5.23
4.81
4.18
2.82
0.30
-3.54
-8.40
-13.58
-18.17
-21.33
-22.56
-21.77
-19.30
-15.72
-11.66
-7.62
-3.90
-0.56
2.43
5.09
7.41
9.29
10.70
11.79
12.85
14.30
16.46
19.40
22.89
26.45
29.62
32.10
33.79
34.80
35.23
35.17
34.61
33.57
32.10
30.37
28.63
27.14
26.05
25.31
24.71
23.95
22.75
20.97
18.71
16.16
13.55
11.01
8.55
6.14
3.76
1.50
-0.51
-2.13
-3.33
-4.18
-4.81
-5.32
-5.74
-6.05
-6.27
-6.46
-6.72
-7.21
-8.01
-9.11
-10.40
-11.67
-12.62
-12.98
-12.48
-10.98
-8.53
-5.40
-2.05
1.09
3.72
5.84
7.75
9.93
12.89
16.90
21.84
27.23
32.45
36.95
40.45
43.12
45.49
48.53
53.17
59.94
68.63
78.24
87.12
93.53
96.40
95.95
94.25
94.34
99.22
110.64
128.47
150.71
174.18
195.61
212.54
224.43
231.64
234.98
235.26
233.07
228.61
221.55
210.94
195.25
173.71
145.80
111.85
73.31
32.55
-7.73
-45.03
-77.50
-109.22
-141.43
-173.27
-201.96
-224.13
-237.64
-242.56
-240.68
-234.41
-225.82
-215.46
-203.36
-189.43
-173.83
-157.02
-139.99
-123.77
-109.33
-97.27
-87.17
-78.20
-69.38
-59.97
-49.85
-39.80
-31.64
-27.62
-29.76
-38.66
-53.61
-72.68
-93.33
-112.09
-127.53
-139.82
-150.29
-160.39
-170.80
-181.51
-192.20
-202.30
-210.58
-215.00
-212.29
-198.92
-173.09
-136.22
-93.41
-51.92
-18.01
6.19
22.81
37.47
54.51
73.96
90.96
98.61
91.77
70.13
40.36
12.46
-5.09
-9.23
-3.24
5.51
9.96
6.28
-5.94
-24.98
-49.11
-76.85
-106.03
-132.45
-150.03
-152.47
-136.69
-104.34
-61.65
-16.81
23.27
55.31
79.90
98.16
112.95
125.80
136.48
144.01
147.81
148.16
146.08
142.63
138.66
134.82
130.88
126.41
121.01
114.78
108.15
101.92
96.77
93.04
90.90
90.27
91.34
94.35
98.69
102.01
100.23
88.94
65.79
32.44
-5.55
-40.53
-66.01
-79.18
-81.56
-77.32
-70.81
-64.57
-58.97
-53.47
-47.85
-42.80
-39.60
-39.00
-40.48
-42.54
-43.22
-40.91
-35.30
-27.20
-18.11
-9.58
-2.68
2.56
6.69
10.51
14.59
18.65
21.84
22.85
20.48
14.05
3.80
-9.36
-23.99
-38.16
-50.65
-60.96
-69.09
-75.42
-81.01
-85.65
-88.91
-90.05
-88.17
-82.71
-73.87
-62.72
-51.03
-40.69
-33.05
-28.67
-26.96
-26.45
-25.70
-23.72
-20.38
-16.33
-12.55
-9.77
-8.86
-10.48
-14.89
-21.19
-26.82
-27.86
-20.49
-2.93
23.18
52.51
78.01
93.41
96.23
88.50
75.00
60.56
47.83
37.26
27.90
19.09
11.20
5.47
2.91
3.37
5.52
7.52
7.81
5.85
2.21
-1.80
-4.75
-5.73
-4.77
-2.69
-0.74
0.01
-0.97
-3.48
-6.76
-9.74
-11.53
-11.72
-10.52
-8.68
-7.25
-7.24
-9.10
-12.66
-17.01
-20.85
-23.01
-22.92
-21.01
-18.68
-17.68
-19.43
-24.31
-31.29
-38.30
-43.16
-44.44
-42.44
-39.13
-37.34
-39.22
-45.39
-54.39
-63.17
-68.65
-68.47
-61.69
-48.63
-30.53
-9.67
10.01
23.13
24.43
11.16
-13.02
-38.55
-53.46
-48.79
-23.15
16.50
58.37
91.92
111.81
119.16
118.81
115.51
111.40
106.07
98.55
89.26
80.49
74.91
74.22
77.68
82.47
85.34
83.98
78.30
70.40
63.61
61.11
64.48
72.60
81.55
85.86
80.50
63.29
36.01
4.08
-25.54
-47.06
-57.96
-59.47
-55.34
-49.82
-45.81
-44.26
-44.56
-45.49
-45.98
-45.53
-44.08
-41.83
-38.98
-35.70
-31.92
-27.68
-23.09
-18.54
-14.68
-12.09
-11.04
-11.29
-12.07
-12.58
-12.49
-12.11
-12.39
-14.33
-18.33
-23.93
-29.90
-34.48
-35.99
-33.34
-26.48
-16.60
-5.87
3.36
9.42
12.00
12.55
13.50
17.07
24.24
34.25
45.21
54.90
61.68
64.72
64.07
60.20
53.78
45.68
36.98
28.92
22.59
18.57
16.66
16.37
17.04
18.26
19.97
22.16
24.92
28.26
32.31
36.87
41.90
47.33
52.99
58.60
63.65
67.64
70.18
71.26
70.74
68.89
66.20
63.16
60.01
56.61
52.38
46.18
40.17
34.93
30.74
27.72
25.73
24.51
23.56
22.43
20.89
19.14
17.24
15.68
14.96
15.24
16.19
17.00
16.76
14.91
11.64
7.37
3.00
-0.65
-3.45
-5.70
-8.02
-10.73
-13.72
-16.71
-20.21
-25.44
-33.86
-45.86
-59.74
-71.70
-77.43
-74.29
-62.84
-46.81
-31.06
-19.22
-12.33
-9.19
-7.92
-7.42
-7.80
-9.58
-12.62
-15.54
-16.27
-13.21
-6.24
3.21
12.86
20.63
25.15
26.23
24.68
21.86
19.32
18.20
18.81
20.57
22.19
22.38
20.37
16.25
10.74
4.65
-1.65
-8.46
-16.46
-26.09
-37.12
-48.67
-59.71
-69.62
-78.53
-87.04
-95.55
-103.78
-110.65
-115.01
-116.23
-114.77
-112.01
-109.59
-108.80
-110.06
-113.11
-117.24
-121.74
-126.05
-129.79
-132.74
-134.80
-135.91
-135.96
-134.73
-131.98
-127.67
-122.15
-116.19
-110.75
-106.50
-103.52
-101.37
-99.31
-96.82
-93.67
-89.98
-85.96
-81.94
-78.16
-74.81
-71.73
-68.22
-63.02
-54.74
-42.38
-25.93
-6.43
14.36
34.54
52.68
67.90
79.78
88.14
92.99
94.62
93.77
91.55
89.16
87.56
87.12
87.54
87.96
87.33
84.79
80.11
73.95
67.60
62.45
59.23
57.55
55.92
52.37
45.45
35.13
22.92
11.30
2.58
-2.10
-3.15
-2.22
-1.25
-1.53
-3.22
-5.51
-7.19
-7.37
-5.89
-3.27
-0.38
1.98
3.36
3.70
3.15
1.95
0.30
-1.73
-4.11
-6.76
-9.48
-11.93
-13.64
-14.17
-13.27
-11.07
-8.02
-4.75
-1.76
0.75
3.01
5.40
8.20
11.30
14.17
16.23
17.13
17.02
16.41
15.88
15.66
15.48
14.67
12.56
8.89
4.05
-1.13
-5.65
-8.76
-10.23
-10.22
-9.11
-7.31
-5.13
-2.88
-0.96
0.26
0.53
-0.10
-1.31
-2.57
-3.47
-3.87
-3.93
-3.91
-3.92
-3.84
-3.39
-2.30
-0.54
1.74
4.23
6.72
9.12
11.48
13.87
16.29
18.67
20.79
22.42
23.38
23.59
23.10
22.07
20.75
19.37
18.13
17.10
16.21
15.34
14.32
13.08
11.61
9.94
8.01
5.78
3.13
0.11
-3.07
-6.02
-8.30
-9.64
-10.06
-9.81
-9.27
-8.69
-8.08
-7.23
-5.85
-3.81
-1.26
1.39
3.62
5.05
5.61
5.54
5.26
5.15
5.40
5.95
6.69
7.51
8.39
9.39
10.58
11.98
13.46
14.86
15.97
16.65
16.85
16.63
16.10
15.37
14.53
13.58
12.51
11.27
9.86
8.30
6.70
5.11
3.47
1.68
-0.47
-3.10
-6.21
-9.57
-12.77
-15.27
-16.63
-16.70
-15.59
-13.73
-11.61
-9.58
-7.76
-6.07
-4.40
-2.71
-1.13
0.22
1.26
2.10
2.96
4.00
5.28
6.62
7.80
8.64
9.16
9.54
10.02
10.79
11.81
12.86
13.66
13.94
13.65
12.92
11.96
11.01
10.16
9.38
8.53
7.50
6.30
5.00
3.71
2.48
1.23
-0.17
-1.87
-3.92
-6.26
-8.71
-11.04
-13.06
-14.66
-15.82
-16.60
-17.07
-17.26
-17.15
-16.67
-15.72
-14.24
-12.20
-9.69
-6.82
-3.70
-0.45
2.87
6.15
9.27
12.03
14.30
16.00
17.20
18.12
18.95
19.83
20.67
21.26
21.39
20.94
20.02
18.88
17.74
16.71
15.73
14.61
13.26
11.73
10.19
8.82
7.68
6.66
5.47
3.88
1.79
-0.70
-3.37
-5.96
-8.36
-10.62
-12.90
-15.41
-18.26
-21.52
-25.18
-29.23
-33.64
-38.26
-42.78
-46.74
-49.60
-51.04
-51.03
-49.85
-47.99
-45.91
-43.94
-42.20
-40.75
-39.66
-38.98
-38.78
-39.02
-39.51
-39.81
-39.33
-37.32
-33.13
-26.49
-17.72
-7.82
1.82
9.87
15.52
18.72
20.06
20.38
20.52
20.98
22.09
24.01
26.81
30.41
34.42
38.23
41.09
42.52
42.54
41.63
40.66
40.34
41.00
42.35
43.65
44.03
42.91
40.19
36.34
32.19
28.68
26.55
26.21
27.72
30.78
34.92
39.55
44.11
48.24
51.85
55.20
58.63
62.52
66.99
71.96
77.20
82.54
87.98
93.79
100.32
107.89
116.56
126.06
135.81
145.14
153.39
160.25
165.79
170.46
174.75
178.91
182.80
186.06
188.68
191.42
195.89
204.04
217.45
236.29
258.99
282.38
302.45
315.52
319.15
312.81
297.87
277.14
254.00
231.52
211.80
195.69
183.01
172.86
164.11
155.77
147.09
137.64
127.36
116.63
106.05
96.45
88.39
82.13
77.58
74.45
72.43
71.26
70.70
69.98
67.78
62.07
50.47
30.91
2.20
-35.53
-81.08
-132.55
-188.21
-246.85
-308.04
-371.99
-439.52
-511.85
-589.95
-673.50
-759.55
-841.88
-911.51
-959.06
-977.84
-966.59
-929.92
-876.29
-814.77
-752.17
-691.88
-634.64
-580.30
-529.35
-483.36
-443.77
-410.58
-381.85
-354.55
-326.01
-295.08
-262.45
-230.02
-200.65
-176.03
-155.62
-136.65
-115.38
-88.91
-56.35
-18.96
20.68
58.05
89.75
115.16
136.76
158.62
184.25
215.35
251.93
293.02
333.65
368.18
392.10
403.55
403.44
394.46
380.31
364.72
350.38
333.09
306.03
263.31
203.31
129.35
47.80
-34.09
-110.01
-153.13
-144.43
-80.41
22.16
137.29
244.52
334.45
405.57
456.46
492.97
514.45
519.03
506.98
482.36
451.42
419.18
389.31
362.81
339.68
315.76
287.53
254.06
217.81
183.17
153.92
131.89
116.74
107.28
99.44
89.60
76.03
59.48
42.29
26.85
14.59
5.74
-0.05
-4.75
-10.12
-16.88
-24.42
-31.24
-35.88
-37.61
-36.74
-34.31
-32.35
-32.66
-36.22
-42.81
-51.25
-60.10
-68.42
-76.31
-84.88
-95.98
-111.28
-131.58
-156.30
-183.73
-211.62
-238.01
-261.98
-283.76
-304.54
-326.10
-350.50
-379.46
-413.41
-450.42
-485.44
-510.88
-518.74
-503.64
-465.34
-409.47
-345.51
-283.32
-229.77
-187.31
-154.91
-130.43
-112.70
-101.93
-98.59
-101.84
-108.69
-114.72
-115.55
-108.39
-92.43
-68.60
-38.69
-4.73
30.96
65.74
96.72
121.34
138.22
147.59
151.00
150.35
146.73
140.07
129.65
115.25
98.04
80.85
67.24
60.32
61.79
71.75
89.19
112.54
139.98
169.29
197.93
223.46
244.56
261.92
278.31
297.74
324.05
359.62
404.59
456.57
510.50
558.82
592.49
602.83
584.21
536.29
464.73
379.82
293.11
214.05
147.92
96.03
57.15
29.45
11.54
2.42
0.93
5.33
13.66
24.18
36.22
50.16
67.14
88.18
113.42
141.83
171.25
199.01
222.56
240.17
251.08
255.50
254.22
248.02
237.49
222.80
203.93
180.97
154.39
125.13
94.51
63.96
34.51
6.63
-19.83
-45.50
-70.98
-96.53
-121.82
-146.01
-168.13
-187.75
-205.42
-222.67
-241.42
-263.07
-287.63
-313.66
-338.89
-361.36
-380.14
-395.13
-406.40
-413.66
-416.34
-414.29
-408.94
-403.39
-401.77
-407.60
-422.23
-444.67
-472.69
-504.88
-541.18
-582.04
-626.29
-669.29
-703.15
-719.04
-710.87
-678.21
-626.94
-566.54
-506.29
-452.09
-405.56
-365.22
-328.73
-294.66
-262.99
-235.12
-211.46
-190.79
-170.87
-149.93
-127.48
-104.33
-81.93
-61.39
-44.65
-31.65
-20.53
-8.81
4.98
20.82
37.67
54.44
70.58
83.33
91.96
97.55
101.75
105.42
108.09
108.99
107.86
105.41
99.35
90.46
83.05
83.35
96.38
123.30
160.65
201.05
257.68
328.38
401.72
464.88
512.55
547.01
571.97
588.57
594.88
591.77
576.53
548.98
511.45
467.02
417.31
362.29
302.37
239.06
174.67
108.50
40.14
-30.90
-105.74
-185.52
-269.24
-351.64
-423.20
-472.81
-494.01
-485.81
-453.55
-407.37
-358.56
-315.19
-280.03
-250.94
-223.47
-193.64
-158.15
-114.87
-63.53
-6.61
50.84
100.31
131.73
136.77
114.08
71.15
22.43
-16.07
-32.36
-20.56
16.27
68.60
123.73
173.98
216.98
254.14
287.36
317.63
347.67
378.54
409.67
437.19
460.49
479.42
493.22
499.01
493.04
476.17
449.75
415.09
370.78
321.12
272.18
229.81
196.38
147.76
72.93
-23.12
-104.55
-168.00
-217.60
-263.12
-305.27
-340.09
-360.43
-355.68
-321.10
-262.45
-198.50
-147.33
-122.68
-129.65
-165.81
-222.92
-287.60
-347.65
-394.31
-423.75
-429.48
-405.61
-350.02
-268.44
-173.61
-79.89
0.72
59.92
92.78
101.23
91.39
71.20
47.67
26.44
12.60
12.77
29.92
61.21
101.07
143.26
183.13
217.77
245.93
268.01
290.40
317.34
348.00
378.13
403.56
422.46
434.92
441.97
444.75
451.05
465.46
486.71
509.04
527.26
539.40
546.14
548.94
505.29
397.36
239.20
66.94
-88.24
-212.17
-303.45
-365.96
-405.29
-427.68
-432.82
-422.77
-403.36
-381.62
-360.83
-339.36
-312.59
-276.34
-229.82
-171.46
-105.76
-42.77
1.18
15.29
-1.12
-38.38
-80.37
-110.41
-113.65
-85.27
-31.89
31.90
91.06
135.00
159.50
165.88
158.59
144.41
128.14
111.23
92.09
68.77
39.82
4.80
-36.01
-82.16
-132.57
-186.64
-244.38
-306.22
-371.81
-439.33
-504.65
-561.13
-600.84
-616.81
-605.74
-569.66
-515.63
-453.03
-390.36
-332.75
-281.33
-234.74
-191.21
-149.97
-111.43
-76.23
-44.50
-15.82
9.91
31.87
48.50
58.63
62.53
62.87
64.15
71.22
87.37
112.77
144.24
176.29
203.04
220.28
226.71
224.04
215.95
206.43
198.30
192.38
187.68
182.17
173.87
161.61
145.32
125.86
104.72
83.67
64.70
49.92
41.11
39.05
42.75
49.14
53.87
53.22
45.87
34.01
22.66
17.38
22.02
37.28
60.90
88.96
117.34
142.42
161.26
171.39
171.16
160.49
141.47
118.21
95.41
76.67
63.42
55.06
49.78
45.58
40.73
33.65
22.65
5.58
-19.87
-55.21
-99.95
-151.11
-203.50
-250.97
-287.77
-309.26
-313.10
-299.44
-270.61
-230.41
-183.57
-135.11
-89.67
-50.90
-19.38
5.60
25.36
41.29
54.98
68.27
83.05
100.91
122.57
150.60
185.43
224.85
264.75
301.11
331.47
355.13
372.65
385.27
399.37
419.53
446.81
478.72
511.35
541.37
566.66
585.96
598.02
607.72
616.99
623.28
620.82
604.79
574.74
534.83
491.62
415.93
298.69
151.58
2.21
-123.85
-214.92
-271.47
-299.52
-304.39
-296.20
-277.06
-250.02
-220.41
-194.90
-178.18
-171.27
-171.48
-175.29
-180.84
-183.13
-180.50
-175.01
-171.19
-173.45
-183.72
-200.58
-219.29
-232.79
-230.26
-204.96
-158.00
-99.00
-42.09
-0.03
20.70
21.52
9.67
-4.28
-12.84
-13.83
-9.40
-2.55
5.21
14.44
26.25
40.29
55.14
68.08
76.20
78.06
74.50
68.18
61.65
56.85
54.37
53.61
52.98
50.65
45.51
37.76
28.59
18.92
9.55
0.95
-6.74
-13.63
-20.04
-26.13
-31.48
-35.31
-38.46
-41.54
-44.77
-47.59
-49.33
-49.67
-48.53
-45.83
-41.49
-39.64
-43.43
-53.45
-67.65
-83.45
-99.48
-115.62
-132.15
-149.28
-175.80
-217.82
-275.26
-341.95
-410.44
-475.59
-534.93
-587.06
-630.71
-678.44
-738.68
-810.41
-883.76
-947.48
-994.93
-1024.41
-1036.84
-1034.51
-1038.18
-1063.44
-1113.13
-1177.63
-1244.73
-1307.75
-1366.58
-1424.52
-1373.15
-1158.19
-799.83
-380.20
18.74
354.34
617.47
813.62
952.28
1044.11
1083.42
1070.97
1019.12
949.05
880.06
822.37
778.43
747.44
728.15
705.60
668.98
616.88
557.16
499.64
450.31
411.16
382.10
362.40
342.34
314.57
277.68
236.18
196.18
161.44
133.34
112.08
97.57
85.31
71.90
56.71
41.29
28.83
21.07
18.27
19.90
25.12
31.37
36.40
39.09
39.48
38.18
35.54
31.71
26.77
21.04
14.77
8.18
1.33
-5.74
-12.97
-20.43
-28.22
-36.45
-44.96
-53.68
-62.56
-71.56
-80.63
-89.70
-98.75
-107.84
-117.07
-126.12
-134.79
-142.94
-150.46
-157.14
-162.65
-166.48
-167.78
-168.35
-168.67
-168.99
-169.38
-169.83
-170.25
-170.56
-170.66
-170.50
-170.01
-168.73
-166.26
-162.23
-156.28
-148.10
-137.46
-124.22
-108.49
-90.62
-70.87
-49.82
-28.28
-7.22
12.34
29.39
43.09
52.84
58.34
59.85
57.90
53.31
47.01
39.96
32.99
26.79
21.83
18.32
16.48
16.37
17.97
21.19
25.90
31.80
38.53
45.63
52.62
59.17
65.10
70.40
75.21
79.71
83.96
87.89
91.36
94.16
96.31
98.06
99.92
102.44
106.02
110.58
115.58
120.12
123.27
124.55
124.10
122.74
121.66
122.03
124.48
128.95
134.90
141.61
148.73
156.44
165.48
176.97
192.12
212.07
237.48
267.99
301.59
334.47
361.48
377.59
379.56
367.27
343.84
314.38
284.11
256.61
233.08
212.82
194.39
176.71
159.50
143.09
127.76
113.28
98.95
84.02
68.23
52.12
36.96
24.10
14.38
7.76
3.29
-0.31
-4.09
-8.44
-12.99
-17.03
-19.86
-21.17
-21.10
-20.08
-18.68
-17.43
-16.67
-16.44
-16.57
-16.71
-16.45
-15.57
-14.06
-12.10
-10.00
-7.96
-6.02
-4.05
-1.80
1.02
4.59
8.96
13.95
19.21
24.20
28.39
31.43
33.29
34.35
35.20
36.56
38.99
42.68
47.37
52.41
56.90
60.04
61.37
60.98
59.44
57.50
55.66
53.83
51.42
47.73
42.57
36.81
32.29
31.41
36.27
48.00
66.39
89.99
116.39
142.53
165.19
181.57
190.11
191.30
188.00
184.80
186.30
195.10
210.39
228.02
242.19
247.81
242.49
227.14
205.01
179.96
154.87
131.07
108.75
87.74
68.20
50.59
35.28
22.05
9.87
-2.78
-17.32
-34.60
-54.67
-76.75
-99.65
-122.00
-142.58
-160.54
-175.51
-187.59
-197.33
-205.48
-212.64
-218.89
-223.60
-225.46
-222.91
-214.91
-201.62
-184.65
-166.77
-150.94
-139.32
-132.31
-128.73
-126.36
-123.32
-119.26
-115.78
-116.16
-124.35
-143.96
-176.85
-221.95
-274.52
-326.26
-366.56
-385.06
-374.88
-335.43
-273.64
-202.47
-137.49
-92.15
-74.22
-84.54
-118.20
-167.86
-226.93
-291.69
-360.98
-434.08
-508.09
-576.63
-630.85
-662.38
-667.09
-646.87
-608.86
-562.33
-514.99
-470.72
-429.40
-389.21
-349.11
-310.23
-275.28
-246.74
-225.11
-208.35
-192.89
-175.43
-154.52
-130.96
-107.35
-86.51
-70.21
-58.37
-49.38
-40.92
-31.08
-19.17
-5.85
7.36
18.87
27.80
34.22
38.98
43.21
47.73
52.84
58.30
63.67
68.64
73.25
77.87
82.95
88.84
95.57
102.97
110.84
119.11
127.99
137.81
148.85
161.10
174.26
187.81
201.20
214.11
226.58
238.91
251.69
265.68
281.67
300.16
320.90
342.40
361.97
376.14
381.74
376.90
361.70
338.12
309.17
278.07
247.30
218.44
192.22
168.90
148.33
130.11
113.58
97.99
82.87
68.19
54.29
41.64
30.35
19.95
9.54
-1.77
-14.17
-26.82
-37.77
-44.56
-44.82
-37.05
-20.85
3.15
33.58
68.69
106.76
146.20
185.87
225.45
265.56
307.42
351.54
396.19
436.57
465.75
476.99
466.83
437.14
394.78
349.23
309.00
278.96
259.72
248.98
243.71
241.83
242.47
245.15
248.68
250.85
248.84
240.26
224.06
200.75
172.16
140.53
107.61
74.13
39.87
4.08
-33.71
-73.24
-113.58
-153.61
-192.69
-230.69
-267.53
-302.24
-332.52
-355.01
-366.45
-365.06
-351.36
-328.01
-298.64
-266.62
-234.48
-204.18
-177.68
-157.10
-144.09
-138.73
-138.78
-140.10
-138.21
-130.14
-115.70
-97.29
-78.78
-63.72
-54.07
-49.82
-49.52
-51.11
-52.70
-52.96
-51.23
-47.39
-41.72
-34.70
-26.62
-17.49
-7.03
5.00
18.43
32.42
45.47
55.89
62.37
64.63
63.68
61.63
60.80
62.48
66.12
69.21
68.17
59.87
43.05
19.03
-8.72
-35.92
-59.03
-76.23
-87.76
-95.59
-102.79
-112.91
-129.09
-153.00
-183.78
-217.65
-248.67
-270.50
-278.35
-270.56
-248.86
-217.60
-181.93
-146.08
-112.20
-80.40
-49.77
-19.69
9.36
35.76
57.76
74.48
86.54
95.59
103.22
109.87
114.80
117.21
117.54
118.03
121.69
130.42
143.43
157.23
167.39
170.72
166.99
158.85
150.47
145.43
145.35
149.50
155.65
161.27
164.43
164.26
160.83
154.72
146.67
137.16
126.11
112.74
95.72
73.44
44.52
8.30
-34.51
-81.44
-128.31
-169.80
-200.62
-216.95
-217.81
-205.40
-184.48
-160.72
-138.81
-121.12
-107.60
-96.67
-86.60
-76.62
-67.01
-58.54
-51.71
-46.34
-41.98
-38.65
-37.18
-39.00
-45.13
-55.18
-66.93
-76.87
-81.54
-78.79
-68.36
-51.47
-29.90
-5.12
21.90
50.22
78.18
103.25
122.45
133.50
135.91
131.37
123.24
115.34
110.58
110.18
113.59
119.11
124.48
127.46
126.08
118.94
105.54
86.64
64.33
41.63
21.65
6.30
-4.37
-12.13
-19.72
-29.54
-42.86
-59.48
-78.22
-97.66
-116.76
-135.12
-152.88
-170.42
-188.10
-205.87
-223.09
-238.53
-250.42
-256.84
-256.15
-247.49
-231.13
-208.45
-181.82
-154.13
-128.24
-106.15
-88.48
-74.11
-60.62
-45.44
-27.01
-5.74
15.95
34.44
46.26
49.34
43.70
31.20
14.72
-2.85
-19.49
-34.32
-47.37
-58.90
-68.96
-77.20
-82.92
-85.69
-85.67
-83.82
-81.65
-80.73
-82.03
-85.68
-90.91
-96.25
-99.94
-100.14
-95.24
-84.20
-67.02
-45.23
-22.04
-1.90
10.78
13.21
5.53
-8.79
-24.14
-34.75
-36.93
-30.51
-18.66
-6.46
1.22
1.55
-5.40
-16.93
-28.69
-35.99
-35.06
-23.85
-2.41
27.29
62.05
98.12
131.87
160.18
180.66
191.78
193.17
185.92
172.59
156.67
141.67
129.95
122.11
117.04
112.79
107.60
100.56
91.69
81.52
70.69
59.78
49.36
40.11
32.78
27.98
25.83
25.92
27.32
29.03
30.26
30.69
30.44
29.92
29.60
29.77
30.46
31.40
32.15
32.29
31.58
30.14
28.49
27.34
27.29
28.56
30.78
33.20
34.98
35.63
35.29
34.59
34.24
34.53
35.16
35.37
34.44
32.04
28.38
23.99
19.32
14.47
9.23
3.42
-2.83
-8.91
-13.95
-17.20
-18.32
-17.56
-15.47
-12.71
-9.72
-6.81
-4.20
-2.20
-1.04
-0.73
-0.65
0.40
3.78
10.34
19.73
30.41
40.16
46.98
49.97
49.59
47.31
44.73
42.79
41.37
39.65
36.64
31.81
25.28
17.69
9.81
2.23
-4.72
-10.86
-16.05
-20.24
-23.53
-26.41
-29.60
-33.69
-38.79
-44.32
-49.26
-52.61
-53.95
-53.54
-52.20
-50.81
-49.99
-49.97
-50.68
-51.87
-53.34
-54.78
-55.76
-55.68
-53.93
-50.12
-44.31
-36.91
-28.57
-19.97
-11.60
-3.69
3.74
10.79
17.48
23.60
28.60
31.66
31.90
28.73
22.30
13.64
4.54
-2.96
-7.20
-7.46
-4.25
1.04
6.62
11.11
13.82
14.87
14.79
14.09
12.97
11.31
9.03
6.34
3.85
2.26
1.92
2.43
2.71
1.45
-2.23
-8.25
-15.55
-22.55
-27.83
-30.64
-31.15
-30.09
-28.45
-27.07
-26.52
-27.12
-28.88
-31.38
-33.65
-34.31
-31.97
-25.90
-16.41
-4.94
6.37
15.52
21.31
23.71
23.54
21.94
19.86
17.83
16.07
14.72
14.01
14.21
15.47
17.61
20.16
22.45
23.92
24.29
23.60
22.23
20.65
19.29
18.38
17.95
17.85
17.77
17.45
16.68
15.46
13.90
12.11
10.16
7.99
5.49
2.65
-0.37
-3.21
-5.46
-6.87
-7.52
-7.78
-8.14
-8.96
-10.20
-11.44
-12.06
-11.50
-9.57
-6.54
-3.02
0.25
2.78
4.48
5.68
6.94
8.78
11.38
14.51
17.58
19.90
20.96
20.58
18.97
16.52
13.72
11.09
9.07
8.09
8.34
9.66
11.52
13.12
13.80
13.30
12.00
10.65
10.04
10.52
11.84
13.37
14.47
14.80
14.36
13.41
12.14
10.64
8.85
6.71
4.29
1.65
-1.16
-4.19
-7.52
-11.12
-14.70
-17.76
-19.70
-20.12
-18.95
-16.49
-13.22
-9.64
-6.18
-3.04
-0.35
1.79
3.32
4.20
4.48
4.40
4.24
4.31
4.79
5.66
6.70
7.68
8.42
8.86
9.03
8.99
8.75
8.27
7.55
6.60
5.50
4.33
3.13
1.87
0.46
-1.20
-3.18
-5.48
-8.01
-10.65
-13.29
-15.85
-18.34
-20.79
-23.16
-25.32
-27.00
-27.84
-27.59
-26.17
-23.75
-20.62
-17.15
-13.59
-10.13
-6.94
-4.13
-1.82
0.00
1.48
2.88
4.53
6.65
9.22
11.97
14.49
16.37
17.30
17.22
16.22
14.49
12.27
9.75
7.01
4.10
1.00
-2.21
-5.39
-8.32
-10.77
-12.56
-13.69
-14.26
-14.47
-14.57
-14.68
-14.85
-15.09
-15.37
-15.73
-16.25
-17.05
-18.17
-19.54
-20.85
-21.58
-21.21
-19.35
-16.02
-11.60
-6.72
-2.02
2.08
5.47
8.27
10.67
12.81
14.69
16.18
17.16
17.50
17.21
16.49
15.70
15.28
15.62
16.85
18.78
20.89
22.41
22.47
20.33
15.48
7.90
-1.92
-12.89
-23.59
-32.56
-38.72
-41.79
-42.33
-41.58
-41.04
-42.01
-45.13
-50.23
-56.26
-61.61
-64.44
-63.33
-57.66
-47.95
-35.67
-22.78
-11.13
-1.90
4.58
8.59
10.62
11.02
10.02
7.78
4.70
1.40
-1.43
-3.32
-4.21
-4.45
-4.60
-5.17
-6.39
-8.25
-10.56
-13.08
-15.55
-17.70
-19.19
-19.69
-18.87
-16.58
-12.88
-8.04
-2.43
3.57
9.61
15.47
20.96
25.97
30.40
34.15
37.10
39.10
39.93
39.44
37.62
34.77
31.42
28.12
25.20
22.64
20.26
18.05
16.43
16.20
18.15
22.58
28.91
35.74
41.35
44.21
43.57
39.53
32.92
24.97
17.00
10.26
5.81
4.34
6.07
10.61
16.95
23.78
29.77
34.02
36.18
36.38
34.97
32.25
28.42
23.69
18.46
13.38
9.17
6.34
4.87
4.04
2.57
-0.99
-7.74
-18.02
-31.18
-45.71
-59.60
-70.97
-78.66
-82.59
-83.77
-83.98
-85.15
-88.77
-95.23
-103.42
-110.61
-113.00
-106.81
-89.68
-61.81
-26.26
11.89
47.11
75.13
93.94
103.89
106.79
104.97
100.43
94.55
88.27
82.19
76.66
71.76
67.24
62.65
57.61
52.12
46.67
42.12
39.25
38.42
39.31
40.95
42.07
41.52
38.70
33.57
26.69
18.86
10.97
3.80
-2.09
-6.45
-9.39
-11.34
-12.97
-14.82
-17.06
-19.41
-21.28
-22.09
-21.62
-20.22
-18.63
-17.72
-18.01
-19.51
-21.67
-23.62
-24.51
-23.83
-21.49
-17.81
-13.35
-8.66
-4.05
0.48
5.30
11.00
18.19
27.08
37.07
46.59
53.45
55.60
52.23
44.45
35.08
27.53
24.34
25.99
30.69
35.31
36.79
33.41
25.28
13.90
1.39
-10.25
-19.56
-25.52
-27.52
-25.31
-19.26
-10.35
-0.21
9.36
16.90
21.81
24.51
26.16
28.15
31.46
36.20
41.52
45.90
47.81
46.32
41.62
35.10
28.92
25.19
25.20
28.64
33.59
37.15
36.47
29.83
17.25
0.33
-18.61
-37.42
-54.86
-70.58
-84.61
-96.75
-106.18
-111.68
-112.23
-107.78
-99.58
-90.00
-81.71
-76.68
-75.49
-77.09
-79.38
-80.00
-77.28
-70.66
-60.71
-48.82
-36.76
-26.26
-18.64
-14.44
-13.21
-13.66
-14.05
-13.05
-10.34
-6.75
-3.83
-2.82
-3.85
-5.87
-7.13
-6.32
-3.20
1.23
5.38
7.91
8.36
7.14
5.12
3.04
1.21
-0.40
-1.93
-3.41
-4.76
-5.88
-6.80
-7.61
-8.27
-8.54
-8.02
-6.41
-3.71
-0.21
3.65
7.45
10.95
14.02
16.47
18.00
18.24
16.92
14.18
10.50
6.64
3.35
1.09
-0.08
-0.42
-0.33
-0.15
-0.01
0.10
0.17
0.10
-0.31
-1.23
-2.55
-3.82
-4.36
-3.49
-0.85
3.46
8.85
14.39
19.12
22.34
23.88
24.15
24.02
24.41
25.96
28.71
32.03
34.89
36.16
34.95
30.84
24.01
15.25
5.74
-3.08
-10.01
-14.36
-16.16
-16.11
-15.29
-14.74
-15.13
-16.60
-18.81
-21.12
-22.85
-23.56
-23.08
-21.58
-19.39
-16.89
-14.31
-11.83
-9.60
-7.79
-6.65
-6.34
-6.86
-8.02
-9.57
-11.35
-13.29
-15.41
-17.57
-19.45
-20.63
-20.84
-20.16
-19.03
-17.98
-17.44
-17.43
-17.72
-17.99
-18.10
-18.14
-18.32
-18.78
-19.49
-20.34
-21.25
-22.24
-23.38
-24.66
-25.87
-26.60
-26.49
-25.39
-23.55
-21.44
-19.46
-17.68
-15.70
-12.69
-7.64
0.43
12.19
27.72
46.26
66.01
84.35
98.44
105.95
105.87
98.76
86.53
71.75
56.85
43.58
32.73
24.36
18.00
13.00
8.72
4.66
0.54
-3.70
-7.96
-12.08
-15.80
-18.74
-20.50
-20.80
-19.61
-17.31
-14.58
-12.12
-10.37
-9.38
-8.90
-8.57
-8.10
-7.34
-6.29
-5.02
-3.70
-2.57
-1.93
-2.02
-2.83
-4.11
-5.37
-6.09
-5.96
-4.96
-3.29
-1.27
0.79
2.63
4.00
4.72
4.61
3.67
2.16
0.54
-0.63
-0.95
-0.47
0.32
0.67
-0.11
-2.29
-5.56
-9.31
-12.88
-15.97
-18.60
-20.97
-23.14
-24.88
-25.74
-25.36
-23.74
-21.28
-18.67
-16.57
-15.41
-15.33
-16.20
-17.73
-19.55
-21.22
-22.36
-22.66
-22.01
-20.44
-18.13
-15.18
-11.63
-7.49
-2.90
1.76
5.88
8.86
10.30
10.27
9.25
7.93
6.94
6.58
6.78
7.13
7.19
6.65
5.54
4.21
3.19
2.99
3.87
5.70
7.99
10.10
11.49
11.93
11.59
10.84
10.07
9.50
9.11
8.84
8.66
8.72
9.28
10.51
12.42
14.76
17.11
19.07
20.41
21.13
21.47
21.79
22.41
23.46
24.84
26.15
26.89
26.68
25.40
23.33
21.09
19.37
18.61
18.86
19.83
20.94
21.61
21.41
20.11
17.71
14.41
10.53
6.48
2.64
-0.77
-3.72
-6.42
-9.22
-12.47
-16.39
-20.90
-25.72
-30.30
-34.11
-36.72
-37.92
-37.85
-36.87
-35.48
-34.11
-33.02
-32.32
-31.97
-31.89
-31.91
-31.83
-31.30
-29.98
-27.63
-24.26
-20.21
-16.07
-12.36
-9.34
-6.85
-4.37
-1.33
2.58
7.27
12.24
16.77
20.29
22.46
23.31
23.11
22.17
20.76
19.06
17.19
15.25
13.37
11.65
10.11
8.75
7.50
6.29
5.09
3.90
2.65
1.21
-0.66
-3.20
-6.58
-10.76
-15.46
-20.12
-24.10
-26.89
-28.22
-28.16
-27.05
-25.24
-23.01
-20.44
-17.48
-14.20
-10.80
-7.63
-5.02
-3.09
-1.64
-0.34
1.19
3.13
5.42
7.84
10.20
12.47
14.74
17.18
19.85
22.66
25.30
27.35
28.44
28.35
27.09
24.82
21.89
18.69
15.49
12.43
9.48
6.46
3.23
-0.32
-4.15
-8.08
-11.89
-15.31
-18.19
-20.46
-22.17
-23.50
-24.60
-25.55
-26.29
-26.65
-26.42
-25.44
-23.77
-21.62
-19.29
-16.99
-14.75
-12.42
-9.82
-6.85
-3.57
-0.16
3.19
6.34
9.23
11.82
13.97
15.52
16.30
16.28
15.65
14.79
14.12
13.96
14.41
15.30
16.33
17.09
17.24
16.62
15.23
13.32
11.23
9.31
7.83
6.84
6.25
5.86
5.50
5.07
4.56
4.01
3.44
2.92
2.52
2.21
1.95
1.56
0.81
-0.52
-2.50
-4.96
-7.58
-9.89
-11.55
-12.35
-12.33
-11.54
-10.04
-7.82
-4.87
-1.30
2.61
6.38
9.51
11.62
12.64
12.76
12.36
11.75
11.13
10.49
9.74
8.88
7.96
7.17
6.59
6.12
5.48
4.32
2.38
-0.32
-3.49
-6.68
-9.46
-11.59
-12.97
-13.69
-13.88
-13.63
-13.09
-12.44
-11.99
-12.12
-13.17
-15.29
-18.36
-21.97
-25.53
-28.48
-30.36
-31.03
-30.53
-29.02
-26.67
-23.63
-20.07
-16.18
-12.26
-8.53
-5.12
-1.95
1.17
4.36
7.58
10.52
12.84
14.23
14.67
14.41
13.91
13.65
13.94
14.89
16.36
18.12
19.84
21.27
22.23
22.68
22.58
21.94
20.75
19.07
17.00
14.77
12.65
10.84
9.37
8.09
6.80
5.41
4.00
2.82
2.06
1.75
1.59
1.08
-0.24
-2.55
-5.57
-8.75
-11.38
-12.99
-13.53
-13.30
-12.77
-12.42
-12.78
-14.46
-18.21
-24.61
-33.51
-43.58
-52.32
-56.83
-55.03
-46.79
-34.17
-20.63
-9.62
-3.29
-1.93
-4.44
-9.08
-14.22
-18.57
-20.91
-20.04
-15.06
-5.86
6.39
19.43
30.56
37.73
40.34
39.36
36.80
34.84
34.98
37.64
42.23
47.51
52.10
54.82
55.02
52.60
47.92
41.74
34.96
28.33
22.30
16.99
12.17
7.54
2.89
-1.78
-6.29
-10.31
-13.57
-15.86
-17.12
-17.44
-16.99
-16.02
-14.83
-13.77
-13.25
-13.63
-15.18
-17.96
-21.78
-26.15
-30.41
-33.84
-35.81
-35.95
-34.22
-30.97
-26.89
-22.97
-20.23
-19.43
-20.75
-23.63
-26.89
-29.13
-29.20
-26.67
-21.89
-15.82
-9.65
-4.32
-0.27
2.57
4.53
6.06
7.50
9.05
10.81
12.93
15.51
18.63
22.17
25.79
29.07
31.66
33.49
34.59
35.01
34.51
32.63
28.93
23.35
16.45
9.27
2.94
-1.80
-4.80
-6.35
-6.87
-6.56
-5.48
-3.73
-1.75
-0.28
-0.02
-1.30
-3.76
-6.51
-8.45
-8.80
-7.41
-4.70
-1.44
1.64
4.17
6.20
8.12
10.46
13.54
17.32
21.35
24.85
26.96
27.06
24.96
20.94
15.62
9.70
3.86
-1.35
-5.43
-7.99
-8.70
-7.53
-4.81
-1.45
1.29
2.10
0.16
-4.65
-11.65
-19.55
-27.06
-33.25
-37.89
-41.36
-44.34
-47.47
-51.09
-54.99
-58.45
-60.19
-58.71
-52.60
-41.20
-25.12
-6.45
11.65
25.88
33.93
35.21
30.95
23.57
15.70
9.37
5.71
5.09
7.44
12.42
19.39
27.32
34.74
40.07
42.09
40.59
36.58
32.04
29.33
30.16
35.00
42.80
51.47
58.65
62.46
61.92
56.81
47.39
34.28
18.52
1.82
-13.48
-24.98
-31.18
-32.26
-30.15
-27.75
-27.70
-31.27
-38.00
-46.10
-53.35
-57.92
-58.74
-55.59
-48.89
-39.70
-29.65
-20.73
-14.84
-13.11
-15.34
-19.90
-24.20
-25.61
-22.26
-13.71
-0.92
14.14
29.15
42.11
51.71
57.57
60.09
60.21
58.99
57.31
55.63
53.94
51.84
48.86
44.64
39.11
32.65
25.90
19.55
14.04
9.35
4.96
0.04
-6.17
-14.05
-23.43
-33.71
-44.06
-53.70
-62.02
-68.55
-72.89
-74.75
-74.06
-71.16
-66.83
-62.15
-58.07
-54.96
-52.51
-49.84
-46.05
-40.66
-33.88
-26.51
-19.44
-13.32
-8.26
-3.92
0.24
4.70
9.72
15.36
21.55
28.11
34.73
41.06
46.71
51.38
54.90
57.31
58.67
59.01
58.24
56.16
52.67
47.77
41.81
35.31
28.90
23.15
18.39
14.73
12.01
9.88
7.80
5.13
1.32
-3.93
-10.42
-17.39
-23.81
-28.74
-31.83
-33.39
-34.17
-34.93
-35.97
-37.00
-37.47
-36.99
-35.76
-34.58
-34.51
-36.26
-39.79
-44.29
-48.41
-50.89
-51.04
-49.00
-45.55
-41.72
-38.42
-36.19
-35.34
-36.04
-38.29
-41.51
-44.10
-43.37
-36.19
-20.28
4.38
34.94
66.38
93.36
112.29
122.56
126.25
126.68
126.44
126.41
125.74
122.90
116.81
107.22
94.49
79.08
61.32
41.82
22.14
4.96
-6.59
-10.20
-5.67
4.58
16.10
23.89
23.90
14.18
-4.90
-31.10
-60.97
-90.68
-116.55
-135.65
-146.22
-147.98
-142.10
-130.83
-116.93
-102.76
-89.80
-78.40
-67.91
-57.27
-45.54
-32.43
-18.47
-4.83
7.20
16.63
23.10
26.94
28.98
30.15
31.12
32.08
32.67
32.23
30.00
25.55
19.05
11.28
3.54
-2.80
-6.58
-7.34
-5.21
-1.06
3.77
7.81
9.85
9.45
7.34
5.19
5.06
8.44
15.37
24.23
32.11
35.96
33.71
25.00
11.26
-4.90
-20.39
-32.34
-38.63
-38.30
-31.78
-21.00
-8.94
1.15
6.79
7.05
2.78
-3.94
-10.66
-15.46
-17.35
-16.21
-12.44
-6.68
0.41
8.05
15.44
21.86
26.83
30.28
32.50
34.04
35.46
37.21
39.46
42.21
45.27
48.37
51.21
53.37
54.18
52.73
48.26
40.79
31.67
23.70
20.20
23.65
34.25
49.41
64.53
74.82
77.25
71.69
60.58
47.57
35.97
27.66
22.90
20.84
20.08
19.10
16.48
10.98
1.95
-10.40
-24.86
-39.56
-52.57
-62.69
-69.73
-74.35
-77.54
-79.93
-81.73
-82.72
-82.66
-81.37
-78.75
-74.59
-68.52
-60.32
-50.16
-38.87
-27.79
-18.26
-11.24
-7.16
-5.94
-7.27
-10.59
-14.78
-17.94
-17.35
-10.26
4.99
27.84
55.13
81.79
102.49
113.43
113.55
104.73
90.77
75.93
63.71
56.22
54.15
57.15
64.04
72.81
80.47
83.39
78.31
63.88
41.86
17.10
-4.00
-16.01
-16.94
-9.19
1.59
9.02
8.71
-0.29
-15.63
-33.37
-49.76
-62.52
-71.01
-75.61
-76.99
-75.68
-72.04
-66.44
-59.59
-52.49
-46.28
-41.90
-39.71
-39.45
-40.39
-41.70
-42.97
-44.35
-46.40
-49.63
-53.90
-58.31
-61.36
-61.53
-57.87
-50.42
-40.19
-28.91
-18.53
-10.72
-6.48
-5.90
-8.05
-11.34
-14.00
-14.76
-13.26
-10.12
-6.55
-3.71
-2.16
-1.67
-1.38
-0.33
2.12
5.96
10.65
15.42
19.55
22.66
24.68
25.84
26.37
26.45
26.01
24.79
22.51
19.09
14.81
10.36
6.61
4.27
3.52
3.90
4.52
4.47
3.39
1.51
-0.44
-1.79
-2.32
-2.36
-2.54
-3.41
-5.05
-6.96
-8.39
-8.58
-7.19
-4.28
-0.15
4.88
10.33
15.36
18.51
18.01
12.62
2.78
-8.91
-18.21
-20.97
-15.03
-1.43
16.02
32.42
43.83
48.59
47.36
42.14
35.12
28.08
22.40
19.12
18.86
21.42
25.51
28.97
29.58
26.04
18.53
8.51
-1.83
-10.42
-15.79
-17.33
-15.25
-10.50
-4.49
1.10
4.86
5.97
4.46
1.08
-2.97
-6.48
-8.61
-8.97
-7.71
-5.36
-2.76
-0.96
-0.93
-3.37
-8.36
-15.25
-22.74
-29.26
-33.43
-34.57
-32.82
-29.17
-25.04
-21.87
-20.85
-22.59
-26.96
-33.06
-39.19
-43.20
-43.07
-37.71
-27.46
-14.25
-0.97
9.46
15.07
15.47
11.80
6.25
1.21
-1.48
-1.00
2.41
7.71
13.65
19.23
23.99
27.90
31.02
33.23
34.10
33.26
30.79
27.53
24.94
24.57
27.35
33.12
40.63
47.84
52.60
53.23
48.97
40.05
27.65
13.60
-0.05
-11.50
-19.61
-24.14
-25.69
-25.39
-24.51
-24.07
-24.69
-26.66
-29.96
-34.32
-39.11
-43.38
-45.93
-45.64
-41.99
-35.32
-27.04
-19.15
-13.55
-11.21
-11.72
-13.48
-14.37
-12.81
-8.43
-2.28
3.62
7.11
6.65
2.05
-5.32
-12.46
-15.44
-10.38
5.05
30.45
62.24
94.47
120.63
135.95
138.94
131.60
118.18
103.31
90.24
80.14
72.34
65.15
56.85
46.23
32.86
17.22
0.76
-14.34
-25.57
-31.09
-30.65
-26.18
-21.41
-20.62
-26.91
-40.87
-60.32
-81.23
-99.31
-111.41
-116.21
-113.99
-106.03
-94.03
-79.88
-65.53
-52.84
-43.11
-36.62
-32.42
-28.70
-23.57
-15.95
-6.11
4.40
13.53
19.65
22.11
21.21
17.68
12.19
5.23
-2.46
-9.42
-13.38
-12.04
-4.34
8.59
23.38
35.59
41.46
39.33
30.02
16.13
0.98
-12.36
-21.49
-24.66
-21.18
-11.71
1.39
14.28
22.80
23.96
17.14
4.34
-10.76
-24.34
-33.83
-38.57
-39.41
-37.90
-35.32
-32.33
-29.02
-25.37
-21.68
-18.54
-16.57
-16.04
-16.53
-17.07
-16.46
-13.76
-8.69
-1.81
5.71
12.45
17.16
18.99
17.61
13.29
7.13
1.29
-1.13
3.22
16.66
39.16
67.79
97.29
121.80
136.90
140.94
135.05
122.10
105.22
86.87
68.73
52.00
37.62
26.16
17.52
10.93
5.32
-0.12
-5.56
-10.66
-15.17
-19.35
-24.09
-30.48
-39.14
-49.73
-60.96
-70.92
-77.76
-80.16
-77.58
-70.41
-59.80
-47.47
-35.36
-25.29
-18.47
-15.28
-15.17
-16.90
-19.07
-20.66
-21.38
-21.57
-21.84
-22.43
-22.97
-22.52
-20.05
-15.15
-8.28
-0.84
5.37
8.78
8.65
5.47
0.89
-2.68
-2.95
1.30
9.55
19.56
28.15
32.44
30.89
23.64
12.16
-1.40
-14.92
-26.48
-34.39
-37.33
-34.71
-27.12
-16.54
-5.83
2.20
5.79
4.71
0.05
-6.46
-13.02
-18.27
-21.21
-21.22
-18.02
-11.89
-3.78
4.85
12.40
17.72
20.48
21.16
20.61
19.63
18.55
17.23
15.30
12.52
9.14
5.90
3.69
3.20
4.44
6.82
9.42
11.44
12.57
13.00
13.18
13.38
13.54
13.20
11.86
9.28
5.63
1.35
-3.10
-7.55
-12.18
-17.35
-23.28
-29.78
-36.28
-41.98
-46.34
-49.38
-51.69
-54.17
-57.47
-61.71
-66.20
-69.65
-70.40
-66.79
-57.56
-42.14
-21.10
3.70
29.30
52.24
69.52
79.59
82.71
80.74
76.14
70.99
66.30
62.15
58.22
54.50
51.52
50.05
50.50
52.46
54.81
56.30
56.34
55.31
54.38
54.66
56.53
59.41
62.00
63.08
62.05
59.01
54.32
48.13
40.09
29.59
16.37
0.89
-15.66
-31.81
-46.39
-58.94
-69.52
-78.35
-85.45
-90.62
-93.66
-94.77
-94.55
-93.74
-92.75
-91.42
-89.15
-85.38
-80.04
-73.64
-67.13
-61.35
-56.57
-52.23
-46.95
-38.95
-26.67
-9.37
12.30
36.29
59.58
79.08
92.64
99.63
100.93
98.39
94.01
89.19
84.65
80.42
76.28
71.97
67.24
61.83
55.35
47.30
37.24
25.07
11.26
-3.05
-16.33
-27.03
-34.22
-38.00
-39.50
-40.48
-42.56
-46.54
-52.17
-58.31
-63.51
-66.67
-67.38
-65.91
-62.94
-59.24
-55.43
-52.05
-49.38
-47.53
-46.21
-44.76
-42.15
-37.42
-30.11
-20.72
-10.77
-2.29
2.88
3.89
1.29
-3.07
-6.79
-7.72
-4.80
1.72
10.51
19.76
27.91
34.12
38.33
41.02
42.82
44.21
45.30
46.00
46.03
45.11
43.06
39.81
35.39
30.01
24.08
18.20
12.98
8.86
5.88
3.56
1.07
-2.45
-7.48
-13.81
-20.56
-26.43
-30.27
-31.53
-30.55
-28.48
-27.04
-28.02
-32.89
-42.15
-54.85
-68.32
-78.56
-81.33
-73.67
-55.17
-28.43
1.70
29.73
51.33
64.54
69.83
69.29
65.48
60.41
55.23
50.29
45.43
40.25
34.29
27.10
18.45
8.43
-2.35
-12.77
-21.34
-26.65
-27.74
-24.60
-18.24
-10.43
-3.15
2.08
4.65
4.93
3.89
2.62
1.83
1.72
2.10
2.72
3.49
4.52
5.90
7.45
8.62
8.58
6.59
2.47
-3.19
-9.15
-13.96
-16.50
-16.48
-14.42
-11.36
-8.25
-5.55
-3.19
-0.79
1.88
4.71
7.26
9.04
9.89
10.11
10.34
11.16
12.79
14.99
17.20
18.84
19.58
19.50
18.86
18.01
17.14
16.34
15.62
14.99
14.49
14.11
13.74
13.13
12.09
10.58
8.93
7.75
7.77
9.49
12.91
17.46
22.16
26.03
28.35
28.94
28.01
25.98
23.22
19.90
16.06
11.68
6.87
1.84
-3.17
-7.97
-12.40
-16.28
-19.29
-20.96
-20.81
-18.54
-14.30
-8.70
-2.70
2.66
6.57
8.63
8.86
7.53
5.06
1.86
-1.57
-4.72
-6.97
-7.72
-6.53
-3.33
1.52
7.36
13.41
18.99
23.74
27.49
30.22
31.90
32.50
32.05
30.63
28.39
25.37
21.51
16.59
10.41
2.93
-5.57
-14.62
-23.70
-32.44
-40.64
-48.16
-54.84
-60.41
-64.64
-67.29
-68.14
-66.96
-63.40
-57.18
-48.34
-37.54
-26.05
-15.51
-7.40
-2.48
-0.58
-0.71
-1.58
-2.08
-1.51
0.19
2.74
5.64
8.38
10.69
12.51
14.00
15.35
16.67
17.85
18.64
18.78
18.17
16.99
15.58
14.24
13.05
11.77
10.01
7.50
4.32
0.89
-2.22
-4.60
-6.14
-7.13
-7.98
-9.06
-10.54
-12.33
-14.24
-16.10
-17.84
-19.40
-20.72
-21.69
-22.16
-22.06
-21.40
-20.33
-19.03
-17.71
-16.53
-15.59
-14.92
-14.51
-14.30
-14.12
-13.75
-12.82
-11.02
-8.23
-4.70
-1.00
2.16
4.29
5.32
5.65
5.91
6.64
8.02
9.82
11.61
13.02
13.87
14.22
14.15
13.65
12.63
10.96
8.58
5.65
2.39
-0.83
-3.69
-5.99
-7.64
-8.73
-9.43
-9.97
-10.57
-11.48
-12.88
-14.93
-17.69
-21.02
-24.53
-27.50
-29.05
-28.38
-25.13
-19.64
-12.94
-6.50
-1.70
0.63
0.58
-0.97
-2.66
-3.29
-2.26
0.24
3.43
6.32
8.21
8.86
8.53
7.82
7.37
7.72
9.07
11.30
13.94
16.19
17.17
16.18
13.04
8.25
2.84
-1.98
-5.26
-6.66
-6.51
-5.62
-4.82
-4.60
-4.87
-5.03
-4.30
-2.09
1.67
6.49
11.67
16.61
21.15
25.51
29.97
34.48
38.40
40.71
40.49
37.44
32.11
25.67
19.44
14.33
10.67
8.35
7.14
7.01
8.10
10.53
14.11
18.20
21.88
24.26
24.92
24.00
22.12
19.99
18.09
16.51
15.05
13.51
11.85
10.33
9.25
8.76
8.67
8.45
7.50
5.41
2.19
-1.73
-5.64
-8.89
-11.05
-12.11
-12.35
-12.25
-12.38
-13.22
-15.18
-18.50
-23.20
-29.00
-35.40
-41.76
-47.56
-52.52
-56.65
-60.16
-63.19
-65.68
-67.32
-67.74
-66.70
-64.24
-60.66
-56.26
-51.21
-45.41
-38.66
-30.83
-22.06
-12.77
-3.51
5.30
13.56
21.53
29.64
38.29
47.58
57.19
66.37
74.23
79.92
83.01
83.60
82.28
79.96
77.45
75.25
73.36
71.31
68.40
64.04
58.07
50.95
43.67
37.36
32.83
30.11
28.41
26.40
22.70
16.43
7.41
-3.81
-16.23
-28.69
-40.11
-49.65
-56.78
-61.35
-63.52
-63.63
-62.04
-59.01
-54.83
-49.84
-44.62
-39.82
-35.94
-33.08
-30.77
-28.30
-25.02
-20.72
-15.67
-10.49
-5.79
-2.02
0.72
2.66
4.25
6.06
8.65
12.49
17.76
24.31
31.69
39.31
46.61
53.12
58.41
61.84
62.55
59.52
51.89
39.40
22.55
2.69
-18.31
-38.37
-55.65
-68.74
-76.86
-79.83
-78.04
-72.31
-63.73
-53.42
-42.36
-31.23
-20.53
-10.51
-1.46
6.26
12.24
16.16
18.03
18.31
17.81
17.45
17.94
19.52
21.96
24.68
27.05
28.64
29.24
28.90
27.75
26.09
24.18
22.26
20.44
18.62
16.50
13.75
10.16
5.88
1.41
-2.56
-5.38
-6.69
-6.58
-5.46
-3.92
-2.52
-1.68
-1.54
-2.07
-3.06
-4.20
-5.25
-6.05
-6.59
-7.01
-7.60
-8.64
-10.34
-12.68
-15.35
-17.87
-19.74
-20.64
-20.61
-19.99
-19.29
-19.03
-19.52
-20.83
-22.78
-25.01
-27.07
-28.46
-28.76
-27.70
-25.26
-21.66
-17.32
-12.71
-8.20
-4.05
-0.37
2.83
5.54
7.81
9.71
11.33
12.78
14.14
15.45
16.71
17.84
18.70
19.09
18.83
17.91
16.54
15.15
14.25
14.20
14.97
16.12
17.04
17.22
16.49
15.11
13.60
12.46
12.00
12.21
12.84
13.51
13.82
13.43
12.23
10.24
7.71
5.02
2.56
0.58
-0.92
-2.18
-3.56
-5.44
-8.05
-11.36
-15.03
-18.55
-21.26
-22.75
-22.88
-21.88
-20.24
-18.50
-16.97
-15.66
-14.32
-12.60
-10.29
-7.44
-4.36
-1.52
0.53
1.33
0.63
-1.54
-4.79
-8.47
-11.80
-14.07
-14.83
-13.96
-11.60
-8.07
-3.80
0.69
4.74
7.68
8.93
8.32
6.18
3.29
0.55
-1.32
-2.08
-1.96
-1.44
-1.02
-1.01
-1.52
-2.51
-3.87
-5.47
-7.15
-8.79
-10.33
-11.83
-13.39
-15.05
-16.68
-17.91
-18.32
-17.53
-15.53
-12.62
-9.39
-6.41
-4.05
-2.33
-0.99
0.36
2.05
4.28
7.06
10.15
13.19
15.75
17.43
18.06
17.73
16.88
16.08
15.82
16.24
17.11
17.92
18.22
17.81
16.82
15.64
14.62
13.91
13.42
12.95
12.35
11.59
10.77
10.06
9.50
9.06
8.57
7.85
6.76
5.19
3.12
0.57
-2.34
-5.41
-8.34
-10.68
-12.01
-12.09
-11.10
-9.64
-8.65
-8.95
-10.86
-14.00
-17.35
-19.80
-20.59
-19.68
-17.68
-15.50
-13.90
-13.20
-13.27
-13.73
-14.21
-14.52
-14.70
-14.97
-15.57
-16.64
-18.09
-19.62
-20.81
-21.35
-21.23
-20.76
-20.45
-20.75
-21.79
-23.31
-24.79
-25.63
-25.49
-24.22
-21.93
-18.66
-14.27
-8.27
-0.06
10.88
24.49
39.86
55.31
68.66
77.84
81.42
78.91
70.69
57.78
41.53
23.50
5.40
-10.97
-23.92
-32.24
-35.52
-34.24
-29.63
-23.30
-16.83
-11.49
-8.05
-6.75
-7.40
-9.45
-12.16
-14.75
-16.48
-16.72
-14.93
-10.70
-3.80
5.67
17.32
30.44
44.19
57.72
70.19
80.69
88.19
91.54
89.72
82.12
68.91
51.08
30.39
8.96
-11.22
-28.68
-42.73
-53.38
-61.13
-66.61
-70.38
-72.79
-74.12
-74.57
-74.24
-73.04
-70.58
-66.24
-59.50
-50.25
-38.99
-26.67
-14.37
-2.85
7.58
17.03
25.72
33.73
40.85
46.68
50.81
53.07
53.63
53.03
51.98
51.17
50.96
51.29
51.64
51.37
49.97
47.39
43.99
40.35
36.97
34.05
31.58
29.43
27.58
26.17
25.29
24.87
24.55
23.80
22.09
19.18
15.12
10.20
4.82
-0.67
-6.01
-11.04
-15.67
-19.83
-23.54
-26.88
-30.05
-33.32
-36.99
-41.26
-46.13
-51.35
-56.46
-60.96
-64.52
-67.02
-68.53
-69.12
-68.68
-66.87
-63.35
-58.00
-51.19
-43.70
-36.45
-30.12
-24.88
-20.41
-16.14
-11.65
-6.87
-2.13
2.13
5.57
8.15
10.02
11.42
12.42
12.89
12.55
11.15
8.59
5.04
0.86
-3.42
-7.15
-9.63
-10.16
-8.22
-3.67
3.12
11.28
19.70
27.37
33.58
38.02
40.69
41.61
40.81
38.25
33.97
28.10
20.94
12.80
4.00
-5.13
-14.16
-22.54
-29.66
-35.12
-38.87
-41.23
-42.78
-43.87
-44.32
-43.24
-39.14
-30.53
-16.54
2.55
25.25
49.08
71.33
89.69
102.75
110.15
112.33
110.09
104.21
95.16
83.18
68.35
50.72
30.24
6.82
-19.76
-49.55
-81.99
-115.57
-147.67
-174.71
-192.83
-198.65
-190.05
-166.74
-130.40
-84.57
-34.13
15.41
58.76
91.73
111.75
118.24
112.35
96.39
73.04
44.51
12.11
-23.76
-63.07
-105.26
-148.37
-188.67
-221.04
-239.99
-241.09
-222.31
-184.81
-132.99
-73.64
-14.36
38.07
79.07
106.91
122.38
127.93
126.72
121.85
116.01
111.35
109.23
110.10
113.29
117.27
120.22
120.81
118.80
115.15
111.38
108.86
108.10
108.52
108.75
107.22
102.87
95.59
86.29
76.57
67.97
61.35
56.45
52.03
46.58
39.03
29.41
18.80
8.96
1.52
-2.73
-4.07
-3.63
-2.84
-2.82
-3.98
-6.07
-8.32
-9.91
-10.23
-8.96
-6.01
-1.39
4.72
11.85
19.17
25.56
30.02
32.20
32.74
33.12
35.11
39.93
47.64
57.19
66.84
75.03
80.92
84.59
86.64
87.74
88.26
88.13
87.09
84.90
81.57
77.38
72.71
67.86
62.77
56.62
47.66
33.49
11.78
-18.46
-55.98
-97.07
-136.60
-169.72
-193.56
-207.97
-215.08
-217.89
-218.91
-219.42
-219.59
-219.15
-217.94
-216.05
-213.49
-209.85
-204.23
-195.56
-183.17
-167.31
-149.23
-130.98
-114.69
-101.80
-92.50
-85.68
-79.46
-71.98
-62.25
-50.29
-36.95
-23.20
-9.59
3.88
17.54
31.51
45.45
58.55
69.89
78.84
85.28
89.44
91.62
91.81
89.73
85.10
78.00
69.07
59.34
49.84
41.07
32.94
24.86
16.27
6.87
-3.30
-14.16
-25.84
-38.60
-52.50
-66.82
-79.92
-89.42
-92.87
-88.58
-76.06
-56.14
-30.70
-2.23
26.56
53.07
75.18
91.66
102.33
108.07
110.44
111.08
111.10
110.98
110.61
109.77
108.31
106.30
103.85
100.97
97.49
93.26
88.26
82.78
77.22
71.93
66.96
62.03
56.63
50.22
42.63
34.09
25.21
16.72
9.16
2.69
-2.80
-7.51
-11.40
-14.09
-15.08
-14.24
-12.07
-9.89
-9.34
-11.66
-17.01
-24.18
-30.96
-34.98
-34.67
-29.81
-21.64
-12.23
-3.74
2.38
5.71
6.82
6.81
6.84
7.71
9.70
12.64
16.13
19.67
22.75
24.70
24.71
22.02
16.22
7.73
-2.11
-11.31
-18.01
-21.26
-21.48
-20.20
-19.19
-19.38
-20.39
-20.87
-19.51
-16.00
-11.39
-7.52
-5.93
-6.87
-9.11
-10.59
-9.62
-5.78
-0.07
5.69
10.09
12.90
15.23
18.95
25.57
35.58
48.07
61.21
72.92
81.38
85.29
83.61
75.53
60.62
39.34
13.49
-13.84
-38.95
-58.62
-71.01
-75.97
-74.64
-68.71
-59.87
-49.60
-39.28
-30.32
-24.05
-21.38
-22.41
-26.30
-31.51
-36.29
-39.31
-40.12
-39.13
-37.54
-36.73
-37.64
-40.30
-43.73
-46.38
-46.78
-44.34
-39.59
-34.01
-29.25
-26.46
-25.88
-26.94
-28.77
-30.69
-32.47
-34.15
-35.70
-36.72
-36.47
-34.20
-29.60
-23.09
-15.82
-9.32
-4.89
-3.17
-3.96
-6.30
-8.91
-10.71
-11.13
-10.35
-9.21
-8.69
-9.57
-11.93
-15.16
-18.17
-19.88
-19.61
-17.31
-13.48
-8.96
-4.84
-2.36
-2.70
-6.56
-13.61
-22.18
-29.43
-32.46
-29.59
-21.41
-10.73
-1.40
3.40
2.50
-2.87
-9.83
-15.20
-16.64
-13.22
-5.18
6.55
20.83
36.44
52.12
66.58
78.67
87.58
93.07
95.39
95.07
92.63
88.38
82.32
74.24
63.96
51.61
37.80
23.63
10.52
-0.05
-7.02
-9.86
-8.81
-4.80
0.80
6.51
10.94
13.06
12.27
8.40
1.78
-6.93
-16.75
-26.58
-35.42
-42.65
-48.06
-51.91
-54.63
-56.55
-57.72
-57.85
-56.54
-53.59
-49.17
-43.85
-38.42
-33.53
-29.39
-25.66
-21.53
-16.11
-8.93
-0.31
8.65
16.45
21.87
24.49
24.83
24.09
23.40
23.36
23.84
24.28
24.16
23.33
22.15
21.10
20.53
20.43
20.58
20.80
21.18
21.96
23.17
24.25
23.95
20.79
13.88
3.80
-7.10
-15.34
-17.59
-12.17
0.03
15.72
30.43
40.19
42.85
38.60
29.35
17.70
5.86
-4.87
-14.01
-21.49
-27.22
-30.90
-32.27
-31.26
-28.28
-24.03
-19.36
-14.97
-11.21
-8.16
-5.71
-3.75
-2.22
-1.02
-0.00
1.12
2.66
4.86
7.69
10.83
13.76
15.87
16.73
16.23
14.61
12.35
10.08
8.24
6.99
6.15
5.32
4.15
2.62
1.27
1.12
3.18
7.96
14.94
22.66
29.15
32.71
32.46
28.65
22.30
14.68
6.91
-0.19
-5.99
-9.92
-11.54
-10.77
-8.13
-4.65
-1.61
-0.11
-0.61
-2.92
-6.33
-9.85
-12.50
-13.48
-12.28
-8.74
-3.19
3.53
10.26
15.70
18.84
19.20
17.00
13.02
8.37
4.07
0.82
-1.22
-2.31
-2.92
-3.46
-4.09
-4.74
-5.22
-5.42
-5.36
-5.24
-5.35
-5.90
-7.02
-8.64
-10.62
-12.67
-14.50
-15.88
-16.79
-17.48
-18.39
-20.02
-22.62
-26.02
-29.61
-32.48
-33.79
-33.00
-30.08
-25.45
-19.84
-14.07
-8.87
-4.74
-1.86
-0.09
0.92
1.61
2.39
3.51
5.09
7.09
9.39
11.87
14.43
16.94
19.26
21.17
22.47
22.95
22.53
21.24
19.25
16.77
14.15
11.68
9.67
8.27
7.53
7.27
7.22
7.07
6.56
5.53
3.83
1.34
-2.14
-6.75
-12.43
-18.83
-25.28
-31.03
-35.40
-38.12
-39.24
-39.04
-37.72
-35.27
-31.52
-26.32
-19.85
-12.60
-5.33
1.33
7.05
11.79
15.74
18.96
21.35
22.71
22.95
22.26
21.14
20.24
20.07
20.83
22.29
23.95
25.21
25.58
24.82
23.00
20.54
17.98
15.84
14.44
13.78
13.48
12.99
11.73
9.31
5.72
1.34
-3.15
-7.00
-9.58
-10.63
-10.35
-9.29
-8.20
-7.78
-8.39
-9.88
-11.69
-13.00
-13.10
-11.68
-8.89
-5.28
-1.62
1.38
3.26
3.78
2.94
0.96
-1.72
-4.44
-6.48
-7.24
-6.45
-4.26
-1.16
2.25
5.54
8.55
11.33
13.95
16.33
18.25
19.44
19.81
19.53
18.98
18.51
18.31
18.30
18.21
17.75
16.68
14.90
12.42
9.25
5.41
0.99
-3.83
-8.66
-13.11
-16.80
-19.57
-21.47
-22.78
-23.80
-24.72
-25.40
-25.46
-24.36
-21.69
-17.33
-11.65
-5.33
0.82
6.19
10.41
13.38
15.09
15.52
14.68
12.76
10.33
8.18
7.18
7.80
9.86
12.52
14.60
15.18
13.92
11.34
8.55
6.80
6.96
9.17
12.71
16.22
18.01
16.34
9.91
-1.86
-18.30
-37.18
-54.95
-67.52
-71.58
-65.98
-52.43
-34.97
-18.58
-7.31
-2.93
-4.77
-10.49
-17.37
-23.40
-27.67
-30.02
-30.55
-29.37
-26.57
-22.47
-17.70
-13.09
-9.24
-6.21
-3.49
-0.25
4.12
9.64
15.53
20.60
23.73
24.29
22.53
19.31
15.78
12.89
11.09
10.23
9.87
9.48
8.77
7.76
6.78
6.16
6.18
6.83
7.81
8.65
8.85
8.13
6.69
5.15
4.46
5.44
8.34
12.58
16.83
19.38
18.66
13.69
4.34
-8.52
-22.95
-36.15
-44.97
-46.79
-40.59
-27.53
-10.81
5.30
17.05
22.45
21.73
16.93
10.74
5.48
2.39
1.65
2.72
4.85
7.37
9.79
11.81
13.24
13.96
14.02
13.68
13.39
13.70
15.09
17.69
21.23
24.98
28.07
29.74
29.62
27.82
24.80
21.10
17.19
13.36
9.78
6.52
3.70
1.40
-0.38
-1.81
-3.09
-4.37
-5.64
-6.69
-7.25
-7.08
-6.05
-4.19
-1.75
0.56
1.46
-0.56
-6.69
-16.95
-29.69
-41.89
-50.29
-52.73
-48.99
-40.83
-30.95
-21.93
-15.30
-11.42
-9.86
-9.74
-9.93
-9.05
-5.78
0.74
10.19
20.94
30.46
36.19
36.63
31.83
23.22
13.06
3.60
-3.37
-6.89
-6.80
-3.85
0.60
4.90
7.60
8.06
6.56
4.17
2.13
1.37
2.17
4.28
7.23
10.57
13.98
17.03
19.12
19.56
17.80
13.77
8.05
1.62
-4.49
-9.51
-13.10
-15.20
-15.92
-15.43
-14.03
-12.15
-10.35
-9.22
-9.07
-9.82
-10.89
-11.43
-10.64
-8.27
-4.80
-1.28
1.18
2.06
1.77
1.52
2.65
5.74
10.34
15.13
18.53
19.46
17.59
13.27
7.33
0.97
-4.34
-6.97
-5.61
0.03
8.64
17.47
23.20
23.33
17.18
6.30
-6.31
-17.38
-24.68
-27.57
-26.88
-24.14
-20.84
-17.94
-15.77
-14.28
-13.31
-12.81
-12.68
-12.70
-12.44
-11.44
-9.40
-6.45
-3.08
-0.05
1.97
2.59
1.89
0.29
-1.45
-2.46
-1.93
0.54
4.79
9.99
14.74
17.59
17.38
13.89
7.84
0.82
-5.37
-9.35
-10.67
-9.90
-8.23
-6.98
-7.12
-9.15
-13.03
-18.22
-23.55
-27.21
-27.08
-21.51
-10.23
5.09
21.20
34.43
42.03
42.98
37.93
28.44
16.21
2.82
-9.94
-19.95
-24.97
-23.64
-16.48
-6.14
3.32
8.11
6.30
-1.46
-12.46
-23.11
-30.47
-33.12
-31.26
-26.44
-20.64
-15.68
-12.65
-11.76
-12.37
-13.41
-13.73
-12.54
-9.55
-4.90
1.06
7.94
15.28
22.57
29.07
33.97
36.56
36.44
33.69
28.96
23.42
18.67
16.41
17.95
23.67
32.75
43.22
52.68
59.16
61.88
61.44
59.30
56.99
55.44
54.79
54.62
54.36
53.57
51.94
49.16
44.91
38.97
31.41
22.79
14.08
6.43
0.84
-2.11
-2.37
-0.47
2.38
4.40
3.35
-3.09
-16.49
-36.84
-62.03
-88.13
-110.32
-124.49
-128.58
-123.15
-111.06
-96.15
-81.96
-70.77
-63.39
-59.43
-57.88
-57.36
-56.44
-53.79
-48.47
-40.32
-30.19
-19.69
-10.63
-4.32
-1.07
-0.19
-0.26
0.21
2.25
6.07
10.94
15.48
18.07
17.65
14.28
9.26
4.75
2.85
4.54
9.13
14.50
17.96
17.64
13.30
6.40
-0.59
-5.34
-6.53
-4.15
0.76
6.87
13.11
19.01
24.56
29.88
34.94
39.40
42.74
44.49
44.41
42.71
39.98
36.98
34.37
32.50
31.29
30.40
29.55
28.75
28.32
28.72
30.14
32.38
34.73
36.35
36.49
34.77
31.16
25.82
18.84
10.18
-0.29
-12.47
-25.87
-39.60
-52.50
-63.50
-71.92
-77.63
-80.95
-82.44
-82.53
-81.20
-78.02
-72.39
-64.01
-53.32
-41.62
-30.65
-21.94
-16.08
-12.47
-9.56
-5.66
0.24
8.11
17.10
25.96
33.39
38.15
39.10
35.40
27.17
15.97
4.70
-3.21
-5.38
-1.62
5.86
13.53
18.29
18.86
16.20
12.52
10.08
10.02
12.11
15.30
18.49
21.01
22.78
24.06
25.02
25.61
25.61
24.82
23.26
21.26
19.32
17.97
17.52
17.84
18.40
18.31
16.56
12.33
5.29
-4.13
-14.74
-24.91
-33.11
-38.47
-41.09
-41.85
-41.87
-41.85
-41.78
-40.98
-38.65
-34.42
-28.58
-22.02
-15.75
-10.38
-5.89
-1.73
2.81
8.14
14.21
20.53
26.41
31.21
34.38
35.49
34.21
30.63
25.52
20.44
17.34
17.83
22.25
29.36
36.72
41.69
42.66
39.58
33.87
27.55
22.26
18.77
16.95
16.32
16.47
17.15
18.05
18.44
17.08
12.63
4.40
-7.11
-19.99
-31.52
-39.17
-41.50
-38.61
-31.88
-23.24
-14.59
-7.39
-2.68
-1.11
-2.76
-6.84
-11.62
-14.80
-14.42
-9.75
-1.79
7.08
14.04
16.96
15.00
8.76
-0.13
-9.53
-17.21
-21.37
-20.93
-16.02
-8.00
0.88
8.19
12.27
12.67
10.17
6.20
2.08
-1.45
-4.24
-6.54
-8.56
-10.38
-12.07
-13.87
-16.29
-19.93
-25.18
-31.85
-39.03
-45.30
-49.17
-49.76
-47.15
-42.42
-37.22
-32.95
-30.07
-27.71
-24.13
-17.55
-7.21
6.17
20.58
33.47
42.64
46.83
45.88
40.53
32.25
23.06
15.34
11.30
12.26
17.97
26.51
34.88
40.17
40.59
35.97
27.56
17.29
7.04
-1.79
-8.30
-12.09
-13.20
-12.16
-10.02
-8.11
-7.61
-9.11
-12.36
-16.36
-19.80
-21.48
-20.89
-18.30
-14.67
-11.29
-9.24
-8.91
-9.84
-10.93
-10.85
-8.69
-4.36
1.36
7.13
11.53
13.43
12.27
8.15
1.87
-5.08
-10.74
-13.12
-10.92
-4.04
6.12
17.09
26.07
30.95
30.85
26.35
19.07
11.07
4.19
-0.35
-2.16
-1.62
0.38
2.70
4.35
4.64
3.27
0.37
-3.53
-7.63
-10.92
-12.54
-11.97
-9.28
-5.32
-1.50
0.45
-0.82
-5.64
-12.80
-19.63
-22.77
-19.52
-9.11
6.72
24.26
39.17
48.29
50.72
47.83
42.32
36.84
33.05
31.37
31.42
32.56
34.05
35.08
34.74
32.29
27.67
21.87
16.75
14.23
15.19
18.76
22.47
23.21
18.68
8.38
-6.15
-21.98
-36.00
-45.84
-50.53
-50.37
-46.59
-40.79
-34.52
-29.00
-25.00
-22.73
-21.91
-21.86
-21.71
-20.72
-18.63
-15.79
-13.14
-11.77
-12.54
-15.65
-20.61
-26.44
-32.10
-36.84
-40.29
-42.40
-43.07
-41.99
-38.55
-32.21
-22.82
-11.11
1.26
12.07
19.26
21.73
19.76
14.90
9.25
4.78
2.69
3.35
6.58
11.94
18.74
26.04
32.44
36.35
36.50
32.51
25.20
16.43
8.42
2.96
0.80
1.55
4.00
6.77
8.82
9.68
9.43
8.41
6.90
5.03
2.79
0.09
-3.01
-6.43
-10.08
-13.90
-17.93
-22.20
-26.62
-30.93
-34.74
-37.56
-38.98
-38.76
-36.90
-33.73
-29.86
-26.00
-22.75
-20.30
-18.27
-15.84
-12.13
-6.63
0.40
8.00
14.75
19.22
20.44
18.14
12.93
6.25
0.23
-2.84
-1.09
6.06
17.48
30.55
41.91
48.79
50.05
46.51
40.41
34.32
30.06
28.19
28.14
28.83
29.33
29.17
28.27
26.63
23.99
19.78
13.50
5.19
-4.28
-13.31
-20.16
-23.73
-24.07
-22.37
-20.28
-19.06
-18.97
-19.15
-18.30
-15.39
-10.38
-4.28
1.32
4.96
5.95
4.59
2.04
-0.26
-1.17
-0.27
2.00
4.64
6.56
7.04
5.92
3.58
0.61
-2.47
-5.42
-8.19
-10.79
-13.07
-14.65
-15.14
-14.32
-12.28
-9.50
-6.66
-4.43
-3.23
-3.22
-4.36
-6.50
-9.34
-12.32
-14.67
-15.47
-14.04
-10.36
-5.21
-0.02
3.79
5.36
4.78
2.88
0.78
-0.60
-0.80
0.37
3.01
7.29
13.30
20.69
28.46
35.08
38.95
38.99
35.23
28.73
21.26
14.62
9.96
7.51
6.70
6.59
6.33
5.52
4.21
2.63
0.95
-0.82
-2.84
-5.20
-7.79
-10.36
-12.62
-14.38
-15.72
-16.87
-18.12
-19.68
-21.54
-23.57
-25.46
-26.80
-27.06
-25.73
-22.44
-17.20
-10.40
-2.84
4.54
10.91
15.73
18.88
20.47
20.82
20.25
19.12
17.86
16.96
16.88
17.88
20.03
23.04
26.41
29.51
31.68
32.33
31.21
28.41
24.45
20.04
15.81
12.00
8.44
4.66
0.25
-4.88
-10.57
-16.47
-22.23
-27.50
-31.87
-34.87
-36.10
-35.59
-33.96
-32.42
-32.28
-34.41
-38.79
-44.52
-50.10
-53.89
-54.54
-51.20
-43.66
-32.42
-18.68
-4.24
8.85
18.86
24.87
27.05
26.57
25.10
24.20
24.84
27.11
30.39
33.64
35.92
36.63
35.72
33.59
30.85
28.08
25.64
23.62
21.89
20.15
18.05
15.29
11.64
7.03
1.68
-4.03
-9.58
-14.46
-18.36
-21.18
-22.96
-23.91
-24.30
-24.43
-24.63
-25.14
-26.10
-27.41
-28.76
-29.76
-30.08
-29.59
-28.39
-26.72
-24.79
-22.67
-20.35
-17.77
-14.94
-12.00
-9.12
-6.32
-3.44
-0.12
4.04
9.17
15.04
21.00
26.23
30.07
32.19
32.75
32.26
31.40
30.72
30.50
30.63
30.64
29.87
27.67
23.75
18.31
12.06
6.04
1.25
-1.65
-2.55
-1.84
-0.29
1.16
1.68
0.65
-2.18
-6.65
-12.25
-18.26
-23.90
-28.47
-31.40
-32.36
-31.22
-28.20
-23.79
-18.74
-13.78
-9.46
-5.98
-3.22
-0.90
1.18
3.06
4.65
5.83
6.54
6.82
6.78
6.62
6.63
7.17
8.62
11.23
14.91
19.17
23.18
26.04
27.13
26.26
23.80
20.42
16.92
13.99
12.04
11.16
11.20
11.81
12.53
12.99
12.98
12.56
12.01
11.59
11.40
11.22
10.64
9.23
6.85
3.73
0.36
-2.76
-5.24
-6.94
-7.94
-8.40
-8.61
-8.91
-9.73
-11.42
-14.15
-17.75
-21.62
-24.88
-26.54
-25.74
-22.00
-15.45
-6.95
1.93
9.34
13.73
14.38
11.71
7.04
2.07
-1.80
-3.80
-3.78
-1.98
1.36
5.91
11.17
16.18
19.66
20.33
17.59
11.78
4.26
-3.10
-8.64
-11.35
-11.09
-8.43
-4.20
0.77
5.79
10.11
12.87
13.15
10.26
4.07
-4.83
-15.15
-25.31
-33.88
-39.95
-43.22
-43.94
-42.61
-39.74
-35.82
-31.15
-26.02
-20.61
-15.03
-9.29
-3.42
2.50
8.21
13.31
17.38
20.09
21.41
21.58
21.01
20.20
19.51
19.19
19.34
19.93
20.75
21.46
21.53
20.49
18.14
14.68
10.70
7.01
4.28
2.74
2.14
1.85
1.15
-0.41
-2.93
-6.08
-9.36
-12.26
-14.53
-16.16
-17.43
-18.66
-20.14
-21.97
-24.02
-26.00
-27.63
-28.62
-28.82
-28.26
-27.04
-25.27
-23.08
-20.47
-17.39
-13.69
-9.14
-3.49
3.36
11.28
19.82
28.23
35.66
41.47
45.42
47.73
48.90
49.38
49.35
48.71
47.11
44.29
40.19
35.05
29.24
23.19
17.13
11.18
5.32
-0.40
-5.72
-10.14
-13.05
-14.03
-13.08
-10.82
-8.35
-6.94
-7.56
-10.65
-16.02
-23.12
-31.23
-39.67
-47.79
-54.89
-60.14
-62.73
-62.17
-58.52
-52.49
-45.20
-37.68
-30.56
-23.79
-16.91
-9.41
-1.10
7.69
16.27
23.84
29.82
33.89
36.07
36.58
35.79
34.24
32.67
31.85
32.32
34.07
36.34
37.85
37.33
34.10
28.39
21.30
14.21
8.27
3.98
1.29
-0.03
-0.16
0.90
3.02
5.67
7.87
8.40
6.31
1.43
-5.50
-13.14
-20.01
-25.05
-27.85
-28.64
-28.08
-26.90
-25.62
-24.53
-23.60
-22.63
-21.33
-19.48
-16.90
-13.54
-9.47
-4.93
-0.29
3.98
7.42
9.72
10.77
10.78
10.13
9.30
8.69
8.56
8.97
9.82
10.91
11.90
12.52
12.53
11.87
10.61
8.95
7.10
5.22
3.41
1.71
0.17
-1.17
-2.18
-2.78
-2.97
-2.91
-2.90
-3.34
-4.52
-6.55
-9.28
-12.33
-15.30
-17.88
-19.94
-21.51
-22.64
-23.28
-23.33
-22.65
-21.19
-19.00
-16.21
-12.92
-9.24
-5.29
-1.29
2.46
5.64
8.03
9.64
10.70
11.52
12.32
13.21
14.14
15.03
15.85
16.61
17.32
17.99
18.54
18.83
18.75
18.28
17.52
16.60
15.64
14.65
13.59
12.31
10.70
8.70
6.34
3.71
0.94
-1.82
-4.41
-6.72
-8.71
-10.48
-12.27
-14.38
-17.10
-20.50
-24.30
-27.88
-30.56
-31.81
-31.54
-30.15
-28.37
-27.03
-26.73
-27.80
-30.16
-33.37
-36.62
-38.81
-38.75
-35.45
-28.64
-18.91
-7.70
3.13
11.96
17.85
20.84
21.75
21.86
22.45
24.44
28.22
33.52
39.55
45.15
48.98
49.77
46.63
39.34
28.63
16.17
4.32
-4.55
-8.76
-7.98
-3.28
3.33
9.64
14.04
15.83
15.19
12.73
9.17
5.09
0.88
-3.11
-6.63
-9.50
-11.66
-13.14
-14.04
-14.49
-14.68
-14.83
-15.08
-15.52
-15.95
-16.05
-15.45
-14.00
-11.76
-9.06
-6.28
-3.61
-1.04
1.70
4.90
8.69
12.97
17.43
21.61
25.02
27.26
28.08
27.31
24.85
20.73
15.06
8.15
0.65
-6.46
-11.95
-14.67
-14.03
-10.34
-4.79
0.78
4.53
5.22
2.46
-3.28
-10.95
-19.25
-26.82
-32.42
-35.12
-34.58
-31.16
-26.02
-20.72
-16.68
-14.63
-14.37
-14.93
-15.09
-13.89
-10.95
-6.50
-1.16
4.31
9.27
13.26
16.06
17.63
18.09
17.69
16.72
15.47
14.28
13.39
13.08
13.60
15.00
17.10
19.33
20.78
20.44
17.62
12.27
5.09
-2.57
-9.19
-13.46
-14.57
-12.36
-7.35
-0.68
6.01
10.94
12.67
10.50
4.76
-3.29
-11.95
-19.61
-25.19
-28.24
-28.83
-27.30
-24.32
-20.67
-17.27
-14.98
-14.27
-15.01
-16.49
-17.71
-17.75
-16.20
-13.22
-9.43
-5.57
-2.23
0.37
2.38
4.15
6.07
8.32
10.85
13.41
15.61
17.11
17.79
17.69
17.06
16.25
15.52
15.01
14.71
14.47
14.18
13.81
13.48
13.31
13.42
13.83
14.45
15.10
15.60
15.79
15.53
14.66
13.02
10.52
7.18
3.23
-0.87
-4.53
-7.23
-8.71
-9.16
-9.13
-9.35
-10.36
-12.28
-14.76
-17.22
-19.25
-20.81
-22.16
-23.37
-24.02
-23.19
-19.89
-13.76
-5.50
3.28
10.67
15.28
16.66
15.30
12.14
8.23
4.46
1.66
0.63
1.96
5.73
11.20
16.98
21.45
23.46
22.77
20.03
16.45
13.22
11.08
10.13
9.94
9.85
9.25
7.78
5.43
2.47
-0.74
-3.83
-6.56
-8.86
-10.85
-12.78
-14.93
-17.49
-20.42
-23.43
-26.06
-27.79
-28.32
-27.65
-26.05
-23.98
-21.84
-19.87
-18.20
-16.73
-15.19
-13.08
-9.77
-4.64
2.57
11.49
21.13
30.09
37.00
41.06
42.21
41.02
38.44
35.50
33.07
31.82
32.14
34.06
37.12
40.33
42.38
42.07
38.69
32.27
23.55
13.65
3.80
-4.95
-11.91
-16.88
-20.20
-22.77
-25.82
-30.39
-36.86
-44.58
-52.07
-57.58
-59.90
-58.85
-55.32
-50.74
-46.36
-42.78
-39.88
-37.08
-33.80
-29.74
-25.01
-19.93
-14.88
-10.10
-5.76
-2.02
0.96
3.03
4.29
5.26
6.76
9.65
14.40
20.64
27.22
32.53
35.16
34.46
30.75
25.13
19.09
13.95
10.69
9.73
11.00
13.95
17.67
21.00
22.83
22.43
19.69
15.14
9.81
4.82
1.06
-1.10
-1.84
-1.78
-1.70
-2.29
-3.95
-6.74
-10.38
-14.42
-18.35
-21.77
-24.37
-25.90
-26.21
-25.19
-22.88
-19.55
-15.69
-11.93
-8.90
-7.05
-6.52
-7.11
-8.33
-9.44
-9.61
-8.10
-4.46
1.19
8.19
15.37
21.46
25.48
27.09
26.58
24.80
22.72
21.15
20.53
20.94
22.06
23.44
24.53
24.76
23.68
21.04
16.84
11.45
5.56
0.04
-4.26
-6.81
-7.61
-7.23
-6.63
-6.82
-8.54
-11.94
-16.64
-21.81
-26.53
-30.07
-32.08
-32.66
-32.25
-31.33
-30.20
-28.89
-27.14
-24.66
-21.26
-17.00
-12.17
-7.24
-2.76
0.71
2.69
2.97
1.74
-0.33
-2.21
-2.91
-1.92
0.43
3.20
5.32
6.22
6.28
6.74
9.05
14.16
22.04
31.73
42.01
52.00
61.45
70.56
79.31
86.90
91.79
92.34
87.59
77.95
64.97
50.71
36.86
24.22
12.87
2.56
-6.76
-14.94
-21.88
-27.92
-33.84
-40.52
-48.39
-57.10
-65.55
-72.33
-76.33
-77.14
-75.04
-70.79
-65.24
-59.14
-53.04
-47.38
-42.51
-38.60
-35.57
-32.98
-30.16
-26.33
-20.88
-13.54
-4.49
5.69
16.07
25.58
33.18
38.05
39.86
38.84
35.76
31.69
27.64
24.23
21.60
19.45
17.27
14.62
11.37
7.69
4.05
0.95
-1.24
-2.46
-2.95
-3.14
-3.46
-4.14
-5.16
-6.24
-7.08
-7.50
-7.57
-7.57
-7.87
-8.77
-10.37
-12.53
-14.96
-17.25
-19.08
-20.21
-20.60
-20.29
-19.36
-17.84
-15.67
-12.71
-8.90
-4.38
0.47
5.12
9.09
12.13
14.36
16.13
17.88
19.90
22.20
24.45
26.12
26.65
25.58
22.81
18.66
14.04
10.27
8.82
10.79
16.41
24.75
33.84
41.29
45.11
44.42
39.79
32.94
26.00
20.64
17.49
16.00
14.86
12.53
7.88
0.50
-9.24
-20.29
-31.27
-40.62
-46.97
-49.41
-47.81
-42.91
-36.27
-29.83
-25.27
-23.36
-23.71
-24.92
-25.28
-23.45
-19.10
-12.85
-5.97
0.25
4.94
7.81
9.08
9.25
8.89
8.60
8.93
10.23
12.57
15.65
18.75
21.10
22.02
21.31
19.36
16.93
14.88
13.82
13.81
14.38
14.74
14.15
12.16
8.79
4.49
-0.13
-4.50
-8.29
-11.48
-14.38
-17.41
-21.02
-25.44
-30.55
-35.86
-40.41
-43.05
-42.75
-39.00
-32.18
-23.57
-15.10
-8.62
-5.26
-4.95
-6.52
-8.22
-8.42
-6.18
-1.38
5.37
13.10
20.71
27.20
31.80
34.15
34.46
33.51
32.36
31.88
32.38
33.46
34.27
33.92
31.97
28.56
24.35
20.13
16.51
13.76
11.71
10.00
8.21
6.03
3.34
0.14
-3.44
-7.21
-10.95
-14.53
-18.00
-21.58
-25.66
-30.48
-36.00
-41.76
-46.97
-50.87
-53.03
-53.45
-52.48
-50.56
-47.95
-44.68
-40.62
-35.78
-30.32
-24.54
-18.68
-12.75
-6.65
-0.30
6.13
12.21
17.40
21.30
23.86
25.41
26.51
27.81
29.76
32.50
35.78
38.98
41.26
41.84
40.24
36.51
31.32
25.78
20.99
17.66
15.88
15.10
14.50
13.31
11.16
8.14
4.73
1.60
-0.60
-1.44
-0.83
0.92
3.23
5.34
6.57
6.36
4.44
0.79
-4.30
-10.24
-16.10
-20.81
-23.42
-23.46
-21.17
-17.40
-13.27
-9.81
-7.57
-6.54
-6.31
-6.27
-5.85
-4.62
-2.36
0.95
5.09
9.69
14.34
18.62
22.16
24.67
25.85
25.43
23.26
19.48
14.54
9.16
4.04
-0.29
-3.63
-6.00
-7.55
-8.35
-8.46
-7.99
-7.21
-6.55
-6.43
-7.11
-8.51
-10.23
-11.73
-12.63
-12.93
-13.05
-13.71
-15.56
-18.89
-23.40
-28.22
-32.27
-34.62
-34.91
-33.40
-30.83
-28.05
-25.66
-23.70
-21.54
-18.07
-12.05
-2.62
10.22
25.28
40.36
52.75
60.14
61.45
57.22
49.40
40.58
33.08
28.18
25.95
25.54
25.79
25.74
24.95
23.53
21.85
20.41
19.54
19.32
19.39
18.81
16.26
10.44
0.78
-12.13
-26.39
-39.42
-48.87
-53.45
-53.36
-49.95
-44.97
-39.90
-35.61
-32.51
-30.79
-30.63
-32.07
-34.78
-37.87
-40.04
-40.00
-37.04
-31.32
-23.87
-16.20
-9.68
-5.07
-2.17
-0.07
2.42
6.15
11.33
17.40
23.32
28.08
30.98
31.84
30.97
28.96
26.56
24.48
23.23
23.00
23.61
24.58
25.25
25.09
23.86
21.63
18.73
15.55
12.49
9.99
8.53
8.54
10.27
13.48
17.35
20.63
21.97
20.45
15.90
9.07
1.28
-5.97
-11.58
-15.13
-16.93
-17.80
-18.68
-20.28
-22.83
-26.14
-29.73
-33.18
-36.22
-38.70
-40.48
-41.28
-40.79
-38.76
-35.23
-30.63
-25.62
-20.82
-16.58
-12.92
-9.64
-6.50
-3.40
-0.41
2.39
4.98
7.34
9.52
11.46
13.01
14.05
14.56
14.63
14.45
14.23
14.11
14.20
14.51
15.06
15.78
16.50
16.94
16.84
15.98
14.28
11.73
8.34
4.18
-0.51
-5.16
-9.02
-11.37
-11.90
-10.98
-9.61
-9.00
-10.01
-12.75
-16.58
-20.38
-23.11
-24.11
-23.25
-20.81
-17.27
-13.13
-8.81
-4.61
-0.66
3.16
7.09
11.37
16.05
20.84
25.28
28.83
31.23
32.57
33.18
33.45
33.50
33.17
32.00
29.55
25.62
20.46
14.68
9.01
3.96
-0.31
-4.00
-7.40
-10.68
-13.66
-15.96
-17.14
-17.00
-15.62
-13.25
-10.13
-6.44
-2.46
1.34
4.22
5.36
4.12
0.40
-5.25
-11.69
-17.44
-21.03
-21.29
-17.66
-10.30
-0.20
11.07
21.77
30.46
36.40
39.70
41.03
41.20
40.74
39.76
38.06
35.34
31.39
26.23
20.15
13.61
7.21
1.58
-2.73
-5.43
-6.57
-6.53
-5.87
-5.19
-4.92
-5.32
-6.49
-8.42
-10.99
-13.94
-16.91
-19.44
-21.16
-21.93
-21.84
-21.27
-20.65
-20.28
-20.16
-20.08
-19.64
-18.58
-16.88
-14.79
-12.68
-10.80
-9.16
-7.57
-5.75
-3.53
-0.98
1.63
3.99
5.90
7.38
8.67
9.98
11.43
12.90
14.08
14.66
14.52
13.78
12.81
11.93
11.22
10.48
9.33
7.50
5.01
2.20
-0.45
-2.61
-4.19
-5.39
-6.51
-7.82
-9.40
-11.20
-13.11
-15.05
-17.08
-19.37
-22.23
-26.01
-30.97
-37.01
-43.54
-49.56
-53.95
-55.88
-55.31
-52.94
-49.83
-46.90
-44.38
-41.68
-37.74
-31.67
-23.23
-12.94
-1.75
9.43
20.09
30.14
39.61
48.43
56.29
62.91
68.31
72.88
77.06
80.76
82.93
81.73
75.80
65.65
54.52
47.71
50.40
65.11
90.04
119.51
146.29
164.68
172.70
172.24
167.44
162.19
158.51
156.12
153.49
149.22
143.03
135.85
129.33
124.98
123.64
125.22
128.84
133.27
137.44
140.61
142.42
142.63
140.97
137.21
131.45
124.36
116.96
109.99
103.23
95.21
83.68
66.75
43.69
15.94
-13.32
-40.38
-62.51
-79.24
-92.65
-106.38
-123.71
-145.95
-171.15
-194.61
-210.45
-213.87
-202.75
-178.05
-142.99
-101.75
-59.33
-20.38
11.20
32.90
44.50
48.32
48.75
50.63
57.05
66.03
72.73
72.32
63.38
49.49
37.52
34.45
43.70
63.12
81.98
88.33
74.34
39.74
-8.91
-62.44
-113.55
-158.99
-199.13
-241.86
-293.78
-356.85
-427.29
-498.11
-563.45
-621.10
-672.14
-718.97
-771.20
-835.93
-914.83
-1002.99
-1091.37
-1171.64
-1239.19
-1293.18
-1285.65
-1184.00
-979.89
-698.95
-388.59
-93.74
158.54
359.28
511.03
621.60
692.44
725.58
725.79
702.26
666.80
630.05
598.57
574.94
559.20
544.35
524.03
495.02
458.87
420.45
384.93
355.38
332.83
316.97
303.38
288.03
268.54
245.14
219.59
194.05
168.85
143.62
117.97
90.25
59.23
24.85
-11.55
-48.09
-82.66
-113.90
-141.36
-165.37
-186.99
-206.09
-220.29
-224.36
-212.69
-181.02
-129.90
-65.34
2.69
63.89
110.99
141.39
157.15
161.74
159.44
152.73
142.37
128.40
111.87
95.58
77.87
60.68
46.55
39.23
41.30
53.59
74.90
102.72
133.95
165.06
192.65
201.98
183.08
135.10
66.97
-8.45
-80.43
-142.39
-189.22
-222.99
-245.69
-257.28
-257.26
-246.29
-226.43
-201.37
-174.81
-149.77
-128.19
-110.61
-95.69
-80.52
-63.11
-43.09
-21.50
0.40
21.66
41.74
60.88
79.63
100.50
124.62
151.09
177.28
200.29
217.96
229.41
235.23
236.49
237.62
241.99
250.76
263.01
276.73
290.01
301.44
310.45
299.60
259.41
189.21
98.16
0.57
-91.43
-171.00
-236.09
-283.89
-319.22
-343.27
-356.56
-360.11
-354.62
-340.94
-319.42
-291.11
-257.08
-219.51
-178.06
-133.08
-85.94
-36.78
14.08
66.42
119.48
171.55
219.20
260.38
293.14
315.94
330.68
340.38
348.63
358.49
372.09
390.57
416.01
449.78
475.77
479.03
447.23
376.68
274.72
156.70
39.95
-60.76
-137.17
-188.53
-217.43
-229.30
-229.17
-220.53
-205.82
-187.51
-168.52
-152.12
-140.70
-132.89
-126.10
-117.39
-105.10
-89.78
-74.26
-62.37
-57.45
-60.85
-70.46
-83.32
-96.21
-106.93
-115.08
-122.26
-131.05
-144.20
-162.74
-185.30
-210.31
-235.94
-260.97
-284.55
-307.08
-330.18
-357.56
-392.54
-430.35
-466.77
-496.22
-511.27
-502.80
-464.63
-396.50
-306.92
-207.53
-110.67
-26.54
37.86
81.25
108.59
125.96
138.02
144.73
147.71
149.41
152.59
156.99
163.66
177.11
200.79
236.10
279.22
328.19
381.46
438.16
493.62
523.96
513.57
460.27
411.72
390.05
404.08
439.24
485.13
528.02
561.06
585.05
602.60
591.23
535.59
439.31
321.67
225.61
152.16
93.05
42.29
-10.21
-67.03
-127.20
-186.90
-234.37
-256.97
-254.01
-230.04
-192.52
-149.42
-107.93
-67.75
-27.69
11.42
46.10
68.36
75.20
69.68
56.53
41.48
29.33
22.41
20.78
22.47
22.88
20.88
18.08
17.01
20.42
30.16
45.73
64.85
83.77
97.47
103.11
99.66
87.34
67.62
42.79
14.75
-14.58
-43.56
-70.84
-94.32
-111.79
-121.63
-122.91
-115.90
-102.17
-83.94
-63.80
-44.28
-27.42
-14.49
-6.09
-1.92
-1.23
-3.07
-6.24
-10.13
-14.00
-16.87
-17.63
-15.21
-9.39
-0.42
11.08
24.24
37.34
48.75
57.26
62.13
63.24
60.41
53.64
43.32
30.05
13.20
-7.30
-30.55
-54.86
-77.76
-98.18
-115.42
-128.98
-138.74
-148.69
-161.75
-178.29
-196.55
-212.35
-225.42
-236.24
-245.10
-252.80
-267.76
-295.51
-336.05
-384.46
-430.97
-473.90
-513.61
-550.14
-584.33
-628.51
-689.87
-766.60
-849.87
-924.73
-990.79
-1050.89
-1105.46
-1152.15
-1199.41
-1247.58
-1287.60
-1306.29
-1288.42
-1242.18
-1182.15
-1120.47
-969.23
-695.32
-330.96
45.64
315.58
489.90
595.86
655.58
695.65
726.39
738.30
725.98
694.18
656.19
633.17
627.06
634.24
651.01
672.87
685.65
681.28
661.43
635.81
621.39
621.16
633.42
654.83
678.76
690.48
678.48
639.08
577.13
505.90
432.57
362.37
299.03
243.52
192.19
142.54
95.14
53.17
21.72
0.64
-12.42
-20.22
-25.44
-30.76
-37.25
-44.37
-50.88
-55.25
-58.04
-60.22
-62.16
-63.46
-62.80
-58.74
-50.43
-38.02
-22.48
-5.30
12.07
28.51
43.38
56.54
68.29
79.00
88.79
97.19
103.02
104.85
101.57
92.96
79.90
64.06
47.17
30.46
14.61
-0.02
-12.91
-23.18
-29.81
-32.24
-30.73
-26.39
-20.70
-14.77
-8.98
-2.85
4.50
13.69
24.75
36.98
49.48
61.61
73.22
84.69
96.59
109.32
122.86
136.80
150.37
162.78
173.35
181.72
187.84
191.95
194.38
195.28
194.58
191.95
187.13
179.99
170.71
159.62
146.99
133.08
118.13
102.47
86.50
70.48
54.47
38.49
22.79
7.93
-5.40
-16.84
-26.77
-36.26
-46.45
-57.68
-68.91
-77.86
-81.89
-78.96
-68.40
-51.05
-28.98
-5.00
17.90
37.04
50.61
58.03
59.94
57.72
52.66
45.46
36.09
24.32
10.13
-6.04
-23.38
-41.14
-58.75
-75.92
-92.50
-108.61
-124.52
-140.73
-157.58
-174.94
-192.11
-208.18
-222.77
-236.36
-250.10
-265.06
-281.58
-299.25
-317.28
-334.95
-351.26
-364.26
-370.38
-364.99
-343.99
-305.90
-252.89
-189.92
-122.38
-53.84
14.58
82.48
147.39
203.15
240.72
251.35
230.16
178.48
104.09
19.21
-62.57
-129.21
-172.21
-187.83
-177.12
-145.27
-99.93
-49.30
-0.17
43.01
78.11
104.40
121.61
129.67
128.96
120.75
107.23
90.95
73.97
57.30
40.97
24.33
6.93
-10.78
-27.47
-41.29
-50.60
-54.73
-54.38
-51.32
-47.67
-44.98
-43.80
-43.66
-43.70
-43.29
-42.42
-41.70
-42.01
-44.03
-47.92
-53.25
-59.21
-64.74
-68.74
-69.88
-66.61
-57.22
-40.40
-15.80
15.52
51.19
88.23
123.96
156.61
185.12
208.34
224.28
230.30
224.18
205.54
176.70
142.20
107.31
76.23
51.29
33.25
22.25
18.48
21.81
30.94
42.66
52.38
55.90
51.44
40.85
28.84
21.00
21.36
30.95
47.62
67.00
84.03
94.47
96.05
88.99
75.92
61.02
48.47
40.72
37.58
36.29
32.84
23.59
6.54
-18.13
-48.25
-80.12
-109.09
-130.13
-139.04
-133.79
-115.57
-88.80
-59.72
-34.27
-15.98
-5.21
0.29
3.80
7.89
13.48
19.88
25.61
29.34
30.61
29.76
27.38
23.51
16.97
5.62
-12.62
-38.18
-68.58
-98.14
-119.05
-123.88
-108.57
-74.60
-29.27
16.43
51.57
69.11
68.05
52.97
31.34
9.97
-7.37
-20.41
-30.80
-40.03
-48.08
-53.55
-55.07
-52.69
-48.14
-43.87
-41.32
-39.71
-36.19
-27.04
-9.55
16.60
49.13
84.02
116.81
143.87
162.98
173.60
176.65
174.32
169.50
164.91
161.99
159.91
155.50
144.30
122.53
89.10
46.68
1.05
-40.83
-73.22
-93.28
-101.43
-100.38
-93.57
-83.87
-73.15
-62.71
-53.81
-48.05
-46.97
-51.25
-60.18
-71.46
-82.04
-89.21
-91.69
-89.93
-85.86
-81.94
-80.40
-82.64
-88.90
-98.07
-107.67
-113.85
-112.02
-98.00
-69.61
-28.07
21.50
71.32
113.37
142.12
156.11
157.62
150.65
138.34
121.43
98.60
68.34
31.07
-9.89
-48.97
-80.49
-100.68
-108.76
-106.43
-96.38
-80.83
-60.94
-37.16
-10.05
19.10
48.57
76.97
104.14
131.25
159.96
190.68
221.10
245.90
258.01
251.22
222.84
175.11
114.69
50.55
-8.82
-57.46
-92.69
-114.72
-125.55
-127.84
-124.39
-117.86
-110.63
-104.55
-100.74
-99.40
-99.90
-101.28
-102.64
-103.49
-103.85
-104.02
-104.38
-105.33
-107.33
-110.98
-116.98
-125.81
-137.23
-149.89
-161.09
-167.05
-163.77
-148.19
-119.41
-79.47
-33.33
12.31
51.02
78.89
96.02
106.24
115.22
127.56
144.30
162.39
176.33
181.02
174.43
158.45
137.67
117.15
100.38
88.69
82.09
80.32
83.33
90.94
102.07
114.50
125.56
133.06
135.79
133.64
127.10
116.73
103.30
87.64
70.54
52.03
30.85
4.34
-30.53
-75.32
-128.42
-184.57
-236.20
-275.96
-299.21
-305.10
-295.84
-274.76
-244.39
-205.71
-158.93
-105.27
-48.35
5.88
50.73
81.37
96.67
99.38
94.61
87.38
80.70
74.89
68.18
57.54
39.99
13.30
-23.04
-66.89
-112.98
-153.25
-178.68
-182.05
-160.54
-117.07
-59.67
1.01
54.85
94.91
118.37
125.87
119.89
103.07
77.49
44.73
6.69
-33.81
-73.08
-107.27
-133.46
-150.25
-157.52
-155.55
-143.97
-121.64
-87.33
-41.04
15.26
77.50
140.47
199.01
248.93
287.32
312.52
324.08
322.91
311.14
291.55
266.55
237.09
202.34
160.58
110.89
54.84
-2.89
-55.50
-96.40
-121.72
-131.62
-130.09
-123.21
-117.03
-115.72
-120.94
-132.12
-147.13
-163.12
-177.10
-186.43
-189.34
-185.55
-176.56
-165.71
-157.41
-155.83
-163.46
-179.78
-200.83
-219.97
-229.64
-223.55
-198.56
-155.61
-99.37
-37.11
23.13
74.56
113.32
139.41
156.24
169.00
182.15
197.45
213.42
226.74
234.64
236.64
234.60
231.04
227.03
221.36
211.52
195.86
175.26
153.14
133.59
119.13
109.13
100.30
88.40
70.35
45.55
15.92
-15.01
-43.39
-65.97
-80.85
-87.84
-88.46
-85.81
-83.86
-86.34
-95.37
-110.40
-128.07
-143.12
-150.33
-146.38
-131.10
-107.61
-81.08
-57.06
-39.99
-32.22
-34.00
-43.86
-59.12
-76.40
-92.12
-103.13
-107.38
-104.55
-96.21
-85.48
-76.00
-70.71
-70.72
-74.73
-79.06
-78.60
-68.42
-45.58
-10.65
31.97
75.15
111.48
135.97
147.90
150.73
149.88
149.63
150.67
149.71
141.33
121.09
88.09
45.69
0.17
-41.86
-75.55
-98.56
-110.40
-111.01
-100.01
-76.92
-42.30
1.27
49.05
95.25
134.69
164.31
183.61
194.23
198.69
199.19
196.84
191.38
181.51
165.43
141.52
109.08
68.80
23.02
-24.57
-69.66
-108.29
-137.60
-156.26
-164.27
-162.66
-153.13
-137.96
-120.05
-102.67
-89.09
-81.70
-81.24
-86.60
-95.09
-103.43
-108.91
-110.18
-107.52
-102.54
-97.65
-95.36
-97.69
-105.33
-116.98
-129.04
-136.04
-132.14
-113.16
-78.61
-32.29
18.61
66.18
104.61
132.06
150.49
163.72
174.64
183.33
186.90
181.13
162.96
132.43
93.19
51.42
13.96
-13.65
-28.05
-28.18
-14.92
9.47
41.39
76.16
108.47
133.42
147.87
151.58
147.33
139.84
133.65
131.07
130.81
128.49
118.36
95.85
59.60
12.06
-41.25
-93.58
-138.66
-172.07
-191.58
-197.04
-189.92
-172.96
-149.78
-124.44
-100.77
-81.62
-68.38
-60.78
-57.34
-56.10
-55.45
-54.61
-53.57
-52.81
-52.82
-54.11
-57.40
-63.95
-75.19
-91.77
-112.24
-132.38
-145.91
-146.42
-129.91
-96.29
-49.32
5.11
61.15
114.41
161.82
200.54
226.99
237.03
227.49
198.10
152.69
98.77
45.55
1.35
-28.47
-42.36
-42.21
-32.01
-16.49
0.12
14.71
25.62
32.61
36.57
38.84
40.42
41.47
41.11
37.86
30.35
17.97
1.12
-18.90
-40.31
-61.10
-79.18
-92.39
-98.72
-96.84
-86.74
-70.21
-50.75
-32.85
-20.73
-17.23
-23.04
-36.61
-54.54
-72.53
-86.27
-92.42
-89.28
-77.31
-59.05
-38.55
-20.28
-7.73
-2.38
-3.33
-7.93
-13.00
-16.09
-16.21
-13.70
-9.49
-4.24
2.12
10.24
20.66
33.16
46.53
58.82
68.23
73.68
75.23
73.78
70.53
66.46
62.12
57.77
53.65
50.10
47.60
46.55
47.11
49.26
52.91
57.92
64.06
70.71
76.70
80.46
80.37
75.28
65.00
50.36
33.05
15.10
-1.60
-15.70
-26.47
-33.81
-38.11
-40.10
-40.73
-40.98
-41.63
-43.13
-45.49
-48.34
-51.08
-53.07
-53.80
-53.00
-50.60
-46.75
-41.71
-35.87
-29.73
-23.90
-18.97
-15.43
-13.58
-13.40
-14.65
-16.86
-19.45
-21.76
-23.05
-22.45
-19.06
-12.18
-1.53
12.50
28.94
46.41
63.38
78.46
90.56
98.88
102.89
102.28
97.09
87.73
75.05
60.10
43.96
27.51
11.30
-4.31
-19.02
-32.43
-43.87
-52.67
-58.34
-60.85
-60.74
-59.08
-57.10
-55.85
-55.86
-57.08
-59.04
-61.09
-62.76
-63.94
-64.85
-65.79
-66.94
-68.08
-68.63
-67.88
-65.32
-60.87
-55.03
-48.64
-42.54
-37.17
-32.35
-27.37
-21.25
-13.16
-2.87
9.10
21.61
33.22
42.70
49.35
53.28
55.24
56.52
58.45
62.23
68.47
76.96
86.52
95.08
100.19
99.79
93.01
80.57
64.64
48.11
33.62
22.81
16.12
13.03
12.59
13.85
16.02
18.44
20.42
21.27
20.41
17.61
12.97
6.97
0.24
-6.52
-12.64
-17.45
-20.21
-20.24
-17.16
-11.11
-2.90
6.29
15.50
24.50
34.02
45.38
59.50
75.99
92.60
105.55
110.65
104.69
86.66
58.09
22.69
-14.73
-49.44
-77.68
-97.03
-106.47
-106.13
-97.16
-81.69
-62.76
-44.03
-29.11
-20.60
-19.28
-23.74
-30.88
-37.10
-39.71
-37.87
-32.77
-26.86
-22.59
-21.36
-23.18
-27.16
-32.23
-37.73
-43.33
-48.57
-52.27
-52.48
-47.14
-34.99
-16.24
7.42
33.51
59.66
83.90
104.52
119.48
126.17
121.81
104.73
75.42
37.10
-4.77
-44.06
-75.62
-96.55
-106.33
-106.24
-98.15
-83.75
-64.17
-40.23
-12.80
16.88
47.34
77.20
105.21
130.30
151.28
166.74
175.38
176.42
170.21
157.98
141.19
120.56
95.63
65.16
28.47
-13.26
-56.42
-95.64
-125.52
-142.41
-145.65
-137.43
-121.71
-102.74
-83.73
-66.36
-51.01
-37.47
-25.70
-16.26
-10.18
-8.32
-10.71
-16.19
-22.66
-27.90
-30.55
-30.69
-29.76
-29.81
-32.62
-39.02
-48.63
-60.11
-71.49
-80.48
-84.69
-82.03
-71.23
-52.64
-28.51
-2.55
21.49
41.46
58.05
74.33
93.83
118.03
144.47
167.00
178.14
172.36
148.73
111.51
68.43
27.72
-4.43
-25.17
-34.46
-33.74
-24.68
-8.77
12.32
36.11
59.19
77.79
88.83
90.83
84.25
71.02
53.66
34.32
14.20
-6.30
-27.18
-48.21
-68.82
-88.15
-105.47
-120.34
-132.66
-142.38
-149.32
-153.00
-152.80
-148.34
-139.69
-127.62
-113.43
-98.63
-84.61
-72.37
-62.41
-54.79
-49.25
-45.20
-41.78
-37.85
-32.09
-23.35
-11.02
4.49
21.63
38.08
51.44
60.07
63.63
63.14
60.44
57.56
55.95
56.26
58.39
61.86
66.04
70.33
74.15
76.83
77.70
76.17
71.98
65.36
57.05
48.16
39.87
33.02
27.85
23.93
20.38
16.41
11.70
6.64
1.98
-1.56
-3.75
-4.91
-5.67
-6.48
-7.34
-7.80
-7.12
-4.70
-0.21
6.32
14.57
23.92
33.54
42.54
50.17
56.17
60.78
64.59
68.18
71.84
75.48
78.85
81.79
84.38
86.96
89.86
93.24
96.99
100.92
104.86
108.88
113.15
117.70
122.22
125.90
127.72
126.79
122.69
115.81
107.04
97.46
87.83
78.35
68.78
58.66
47.73
35.99
23.66
10.99
-1.84
-14.83
-27.99
-41.34
-54.78
-68.07
-80.91
-92.97
-103.93
-113.45
-121.21
-126.94
-130.52
-132.04
-131.84
-130.38
-127.98
-124.65
-120.03
-113.51
-104.67
-93.55
-80.92
-68.07
-56.28
-46.35
-38.28
-31.30
-24.28
-16.11
-6.11
5.77
18.86
31.63
41.88
47.17
45.61
36.80
22.17
4.79
-11.64
-24.04
-30.88
-32.34
-29.72
-24.57
-17.96
-10.43
-2.22
6.26
14.19
20.59
24.66
26.26
25.93
24.65
23.48
23.01
23.10
22.97
21.63
18.42
13.43
7.42
1.50
-3.46
-7.16
-9.87
-12.16
-14.63
-17.85
-22.43
-29.11
-38.43
-50.18
-62.93
-73.91
-79.77
-77.76
-66.95
-48.66
-26.03
-2.79
17.89
34.28
46.03
53.71
58.30
60.77
62.13
63.30
65.06
67.65
70.56
72.54
71.88
67.09
57.42
43.23
25.99
7.91
-8.60
-21.59
-30.14
-34.55
-36.13
-36.66
-37.56
-39.42
-41.81
-43.68
-44.02
-42.44
-39.42
-36.02
-33.30
-31.80
-31.26
-30.81
-29.39
-26.27
-21.43
-15.52
-9.61
-4.81
-1.90
-1.15
-2.08
-3.36
-2.74
2.46
14.58
34.35
59.97
86.97
109.32
121.37
119.88
105.02
80.11
50.20
20.39
-5.41
-24.71
-36.25
-39.67
-35.44
-25.04
-10.96
3.63
15.62
22.63
23.52
18.52
8.96
-3.16
-15.74
-27.08
-36.07
-42.21
-45.25
-44.90
-40.67
-32.24
-19.90
-4.99
10.41
24.17
34.91
42.38
46.96
48.96
48.04
43.46
34.83
22.85
9.19
-4.51
-17.82
-32.00
-49.17
-70.55
-94.92
-118.48
-136.33
-144.83
-143.51
-135.32
-125.11
-117.26
-113.76
-113.79
-114.83
-114.37
-111.23
-105.75
-98.99
-91.53
-82.93
-71.93
-57.42
-39.48
-19.77
-1.16
13.37
21.77
23.55
19.56
11.33
0.43
-11.87
-24.38
-35.85
-45.10
-51.56
-55.91
-60.46
-68.58
-83.47
-106.62
-136.89
-170.43
-201.84
-225.79
-238.52
-238.73
-227.51
-207.66
-182.74
-156.18
-130.77
-108.52
-90.71
-77.99
-70.41
-67.29
-67.28
-68.57
-69.29
-68.06
-64.25
-57.97
-49.72
-39.89
-28.48
-15.27
-0.19
16.43
33.89
51.56
69.26
87.35
106.14
125.02
141.98
153.82
157.42
151.20
136.15
115.80
94.95
77.91
67.06
62.36
61.93
63.26
64.24
63.72
61.54
58.04
53.59
48.51
43.07
37.71
32.98
29.27
26.62
24.57
22.36
19.44
15.76
11.98
9.12
8.15
9.54
13.17
18.44
24.60
31.00
37.14
42.54
46.56
48.45
47.61
43.80
37.40
29.14
19.81
9.85
-0.71
-12.05
-24.05
-36.01
-46.69
-54.83
-59.67
-61.32
-60.57
-58.44
-55.67
-52.43
-48.39
-43.05
-36.10
-27.68
-18.50
-9.91
-3.51
-0.73
-2.16
-7.16
-13.89
-19.94
-23.13
-22.22
-17.15
-8.82
1.56
12.88
24.38
35.59
46.09
55.49
63.43
69.63
74.06
76.83
78.07
77.82
76.03
72.68
67.93
62.19
56.03
50.06
44.69
40.11
36.31
33.15
30.47
28.10
25.75
23.11
19.83
15.66
10.57
4.77
-1.44
-7.82
-14.26
-20.87
-27.81
-35.16
-42.85
-50.59
-57.87
-64.04
-68.46
-70.58
-70.07
-66.85
-61.14
-53.56
-45.03
-36.54
-29.01
-23.01
-18.77
-16.22
-15.05
-14.79
-14.90
-14.77
-13.84
-11.76
-8.62
-5.04
-1.98
-0.24
-0.07
-1.35
-3.50
-5.55
-6.27
-4.31
1.43
11.47
25.66
43.25
62.70
82.40
101.45
120.00
138.77
158.05
177.10
194.38
208.37
217.51
221.04
219.42
214.21
207.15
198.98
188.98
175.65
157.65
133.24
100.89
60.05
11.61
-42.28
-99.06
-156.41
-212.11
-257.07
-280.80
-276.97
-248.09
-203.42
-152.99
-103.42
-57.98
-17.55
18.37
49.59
75.41
95.15
109.04
118.30
124.04
126.20
124.50
118.85
108.78
93.68
73.30
48.04
18.67
-11.04
-38.32
-61.39
-79.26
-91.91
-99.98
-104.34
-105.93
-105.70
-104.66
-104.05
-104.50
-105.54
-106.20
-105.69
-103.52
-99.86
-95.44
-91.18
-88.30
-87.94
-90.72
-96.76
-104.88
-111.97
-113.21
-103.65
-80.55
-45.64
-4.89
33.52
62.48
78.63
83.14
80.17
74.25
68.20
62.47
56.29
49.21
41.85
35.64
31.74
30.20
29.84
29.01
26.16
20.82
13.72
6.27
-0.11
-4.66
-7.64
-10.10
-13.31
-18.27
-25.16
-33.28
-41.36
-48.02
-52.33
-53.78
-52.56
-49.01
-43.54
-36.49
-27.97
-18.11
-7.19
4.29
15.58
25.79
34.15
40.15
43.63
44.81
44.12
42.14
39.39
36.30
33.13
30.02
27.02
24.10
21.26
18.48
15.85
13.52
11.67
10.40
9.70
9.47
9.47
9.45
9.26
8.97
8.75
8.82
9.29
10.02
10.77
11.13
10.72
9.46
7.67
6.00
5.17
5.68
7.60
10.71
14.46
18.22
21.60
24.57
27.49
30.88
35.34
41.49
50.12
61.29
74.05
86.28
95.18
98.31
94.63
85.13
70.61
53.83
37.44
22.90
10.33
-0.98
-11.58
-21.35
-29.54
-35.33
-38.08
-38.04
-36.08
-33.15
-29.94
-26.77
-23.67
-20.68
-17.97
-15.59
-13.71
-12.47
-11.83
-11.63
-11.58
-11.39
-10.93
-10.17
-9.08
-7.80
-6.52
-5.38
-4.46
-3.77
-3.28
-3.06
-3.25
-3.98
-5.28
-6.99
-8.81
-10.37
-11.37
-11.70
-11.45
-10.82
-10.06
-9.37
-8.83
-8.43
-8.09
-7.72
-7.20
-6.52
-5.64
-4.59
-3.43
-2.18
-0.87
0.41
1.58
2.52
3.14
3.38
3.31
2.97
2.50
2.01
1.58
1.29
1.15
1.16
1.25
1.38
1.45
1.40
1.16
0.66
-0.11
-1.15
-2.36
-3.64
-4.82
-5.74
-6.27
-6.40
-6.23
-5.94
-5.69
-5.55
-5.45
-5.25
-4.77
-3.91
-2.61
-0.88
1.30
3.89
6.86
10.06
13.24
16.16
18.61
20.46
21.70
22.33
22.36
21.79
20.67
19.15
17.43
15.76
14.34
13.22
12.27
11.27
9.96
8.15
5.82
3.07
0.08
-2.97
-5.98
-8.91
-11.74
-14.37
-16.62
-18.33
-19.35
-19.76
-19.79
-19.76
-19.93
-20.41
-21.07
-21.63
-21.72
-21.08
-19.64
-17.51
-14.93
-12.12
-9.26
-6.47
-3.85
-1.51
0.37
1.61
2.05
1.69
0.65
-0.84
-2.55
-4.27
-5.87
-7.27
-8.45
-9.33
-9.87
-10.05
-9.90
-9.55
-9.13
-8.72
-8.33
-7.95
-7.57
-7.19
-6.90
-6.73
-6.71
-6.82
-7.09
-7.51
-8.08
-8.76
-9.45
-10.06
-10.45
-10.59
-10.44
-10.01
-9.27
-8.20
-6.82
-5.17
-3.34
-1.42
0.54
2.50
4.35
5.93
7.12
7.85
8.13
8.11
7.97
7.88
7.96
8.30
8.87
9.56
10.24
10.72
10.88
10.70
10.16
9.32
8.26
7.06
5.84
4.73
3.85
3.24
2.85
2.54
2.17
1.73
1.32
1.11
1.18
1.45
1.72
1.80
1.62
1.30
1.17
1.61
2.93
5.20
8.23
11.64
15.02
18.10
20.86
23.54
26.39
29.55
32.79
35.59
37.35
37.63
36.43
34.00
30.80
27.13
23.15
19.00
14.87
11.13
8.07
5.63
3.27
0.23
-4.01
-9.16
-14.07
-17.22
-17.47
-14.68
-9.86
-4.66
-0.57
1.65
2.10
1.43
0.28
-1.01
-2.50
-4.33
-6.43
-8.43
-9.83
-10.30
-9.86
-8.95
-8.24
-8.33
-9.54
-11.70
-14.36
-16.91
-18.89
-20.09
-20.63
-20.73
-20.61
-20.38
-19.99
-19.33
-18.35
-17.17
-16.12
-15.66
-16.10
-17.48
-19.41
-21.11
-21.70
-20.43
-17.08
-12.01
-6.08
-0.29
4.51
7.86
9.65
9.94
8.92
6.87
4.22
1.65
-0.03
-0.17
1.45
4.48
8.01
10.92
12.27
11.55
8.81
4.53
-0.52
-5.46
-9.53
-12.25
-13.52
-13.69
-13.41
-13.32
-13.91
-15.26
-17.07
-18.75
-19.60
-18.85
-15.94
-10.63
-3.19
5.50
14.15
21.36
26.01
27.57
26.14
22.34
17.03
11.12
5.37
0.36
-3.55
-6.24
-7.79
-8.55
-9.03
-9.67
-10.73
-12.17
-13.69
-14.88
-15.43
-15.12
-13.87
-11.61
-8.25
-3.75
1.67
7.53
13.28
18.55
23.38
28.14
33.20
38.53
43.50
47.14
48.56
47.37
43.68
37.88
30.35
21.32
11.06
0.23
-10.01
-18.22
-23.21
-24.65
-23.19
-20.34
-17.84
-17.12
-18.93
-23.21
-29.32
-36.30
-43.22
-49.30
-54.09
-57.45
-59.45
-60.22
-59.76
-58.05
-55.04
-50.99
-46.52
-42.43
-39.44
-37.80
-37.28
-37.34
-37.60
-38.00
-38.82
-40.38
-42.69
-45.33
-47.46
-48.20
-46.84
-43.19
-37.50
-30.37
-22.45
-14.13
-5.40
3.96
14.06
24.63
35.03
44.58
53.03
60.81
69.00
78.78
90.85
104.99
119.99
134.10
145.55
153.03
155.91
154.27
148.66
140.01
129.31
117.51
105.54
94.21
84.21
75.96
69.44
64.14
59.29
54.14
48.25
41.57
34.28
