1594049696.00
64.000000
-0.00
-0.00
-0.00
-0.00
-0.00
-0.00
-0.00
-0.00
-0.00
-0.00
0.00
0.01
0.01
-0.00
-0.03
-0.05
-0.05
0.00
0.13
0.36
0.66
1.01
1.37
1.72
2.06
2.40
2.79
3.24
3.80
4.42
5.06
5.66
6.20
6.68
7.15
7.68
8.31
9.14
10.09
11.04
11.88
12.56
13.14
13.76
14.65
15.96
17.91
20.32
22.90
25.38
27.58
29.57
31.68
34.32
37.81
42.54
48.15
54.10
59.83
64.97
69.59
74.15
79.35
85.71
93.76
102.99
112.61
121.74
129.80
136.81
143.35
150.73
157.65
166.38
177.53
191.25
206.35
219.94
227.65
224.78
207.94
176.20
131.96
79.11
22.03
-36.01
-93.45
-150.10
-206.14
-261.38
-314.99
-365.47
-411.80
-453.14
-488.81
-517.94
-539.27
-551.23
-552.25
-541.31
-518.10
-483.57
-439.54
-388.41
-332.83
-275.31
-217.97
-162.47
-110.02
-61.30
-16.83
23.10
58.25
88.37
113.15
132.39
146.10
154.71
159.07
160.33
159.62
157.80
155.23
151.79
147.09
140.73
132.39
121.91
109.40
95.62
82.31
72.12
67.93
71.60
82.90
99.10
115.83
128.63
134.70
133.60
126.97
117.24
106.41
95.44
84.47
73.57
62.96
53.27
45.24
39.26
35.16
32.27
29.68
26.73
23.22
19.47
16.15
13.95
13.14
13.46
14.21
14.56
13.97
12.43
10.41
8.59
7.48
7.12
7.16
6.98
6.09
4.33
1.93
-0.70
-3.08
-4.78
-5.50
-5.04
-3.47
-1.17
1.14
2.61
2.59
1.01
-1.61
-4.32
-6.23
-6.89
-6.46
-5.44
-4.41
-3.69
-3.34
-3.39
-3.93
-5.24
-7.53
-10.68
-14.14
-17.09
-18.69
-18.49
-16.58
-13.43
-9.71
-5.97
-2.51
0.50
2.96
4.68
5.48
5.26
4.10
2.24
0.05
-2.13
-4.00
-5.26
-5.69
-5.18
-3.77
-1.79
0.33
2.11
3.29
3.89
4.16
4.46
5.10
6.21
7.67
9.21
10.48
11.20
11.20
10.45
9.06
7.26
5.34
3.59
2.33
1.64
1.50
1.72
1.96
1.83
1.05
-0.47
-2.54
-4.77
-6.77
-8.26
-9.18
-9.70
-10.06
-10.47
-11.06
-11.85
-12.75
-13.63
-14.32
-14.63
-14.51
-14.13
-13.94
-14.47
-16.10
-18.81
-22.10
-25.07
-26.66
-25.96
-22.44
-16.18
-7.89
1.10
9.21
15.06
17.93
18.05
16.43
14.41
13.07
12.80
13.20
13.47
12.85
11.07
8.29
5.02
1.90
-0.52
-1.88
-2.05
-1.16
0.39
2.17
3.68
4.58
4.76
4.33
3.51
2.57
1.73
0.56
-0.97
-2.75
-4.58
-6.23
-7.61
-8.96
-10.67
-13.16
-16.62
-20.73
-24.92
-28.56
-31.20
-32.73
-33.28
-33.02
-32.02
-30.18
-27.30
-23.29
-18.30
-12.61
-6.55
-0.36
5.81
11.81
17.48
22.65
27.16
31.00
34.29
37.31
40.30
43.32
46.18
48.42
49.52
49.02
46.67
42.57
37.12
30.96
24.78
19.17
14.47
10.79
8.01
5.85
3.87
1.61
-1.38
-5.37
-10.35
-16.04
-21.87
-27.13
-31.09
-33.18
-33.05
-30.67
-26.29
-20.47
-13.93
-7.44
-1.68
2.90
6.11
8.01
8.87
9.05
8.94
8.84
8.90
9.05
9.17
9.15
9.00
8.80
8.65
8.56
8.39
7.93
6.95
5.44
3.60
1.83
0.47
-0.33
-0.70
-0.98
-1.62
-2.90
-4.82
-6.99
-8.90
-10.22
-10.92
-11.12
-10.89
-10.13
-8.44
-5.33
-0.31
6.46
13.99
20.75
25.46
27.69
27.91
27.25
27.00
28.21
30.82
33.61
34.96
33.78
30.28
25.45
20.77
17.87
18.42
23.29
32.03
42.84
52.95
59.28
58.43
47.92
25.57
-6.07
-39.72
-66.95
-83.10
-88.74
-87.28
-83.02
-78.93
-76.13
-73.75
-70.55
-65.30
-56.97
-46.40
-32.64
-16.22
0.97
16.55
28.89
36.44
38.62
36.04
30.42
24.16
18.78
15.16
13.71
15.36
19.15
23.59
27.72
31.57
35.90
40.73
45.27
48.18
47.78
40.53
23.00
-6.39
-46.64
-94.18
-144.32
-191.70
-230.67
-246.88
-230.83
-184.12
-119.21
-51.49
8.20
54.32
85.01
100.61
102.82
92.98
73.62
50.02
26.54
7.39
-5.10
-10.80
-11.00
-7.55
-3.17
0.01
1.20
0.85
0.11
-0.11
0.42
1.70
3.68
5.51
6.35
5.90
4.45
2.83
1.63
1.04
0.99
1.31
1.40
0.76
-0.80
-3.10
-5.66
-8.06
-10.14
-11.74
-12.75
-13.14
-12.98
-12.36
-11.45
-10.42
-9.49
-8.92
-8.81
-9.12
-9.64
-10.19
-10.60
-10.86
-11.00
-11.10
-11.17
-11.15
-10.98
-10.62
-10.12
-9.64
-9.34
-9.28
-9.33
-9.17
-8.35
-6.50
-3.39
1.00
6.52
12.86
19.58
26.13
31.97
36.62
39.77
41.38
41.66
41.05
40.10
39.32
39.07
39.41
40.20
41.08
41.64
41.56
40.68
39.08
36.93
34.47
31.81
28.98
25.88
22.45
18.75
14.97
11.45
8.53
6.41
5.10
4.37
3.86
3.22
2.24
0.83
-0.89
-2.74
-4.53
-6.10
-7.43
-8.53
-9.46
-10.31
-11.10
-11.88
-12.68
-13.49
-14.22
-14.69
-14.65
-13.87
-12.30
-10.08
-7.54
-5.09
-3.07
-1.65
-0.79
-0.34
-0.11
0.09
0.37
0.79
1.33
1.89
2.35
2.55
2.39
1.89
1.17
0.44
-0.08
-0.31
-0.33
-0.32
-0.49
-0.94
-1.64
-2.44
-3.24
-3.99
-4.78
-5.76
-7.02
-8.54
-10.19
-11.72
-12.87
-13.41
-13.23
-12.27
-10.64
-8.49
-6.11
-3.76
-1.67
0.06
1.42
2.51
3.44
4.31
5.17
6.01
6.77
7.39
7.81
8.00
7.95
7.66
7.18
6.62
6.09
5.69
5.42
5.23
4.99
4.63
4.15
3.57
2.96
2.35
1.71
0.96
0.04
-1.08
-2.38
-3.82
-5.35
-6.90
-8.31
-9.37
-9.83
-9.51
-8.38
-6.62
-4.48
-2.24
-0.06
1.98
3.90
5.64
7.07
8.04
8.40
8.18
7.60
6.94
6.46
6.27
6.28
6.29
6.08
5.59
4.88
4.15
3.58
3.30
3.28
3.39
3.44
3.28
2.83
2.08
1.10
-0.04
-1.28
-2.63
-4.12
-5.73
-7.36
-8.82
-9.85
-10.22
-9.77
-8.52
-6.63
-4.35
-1.93
0.41
2.53
4.35
5.81
6.87
7.49
7.68
7.55
7.28
7.06
7.03
7.18
7.39
7.47
7.28
6.82
6.18
5.50
4.87
4.30
3.73
3.08
2.36
1.63
0.93
0.27
-0.41
-1.21
-2.23
-3.49
-4.89
-6.28
-7.48
-8.35
-8.82
-8.90
-8.59
-7.89
-6.73
-5.07
-2.94
-0.47
2.12
4.61
6.83
8.76
10.41
11.78
12.84
13.51
13.71
13.44
12.74
11.73
10.57
9.41
8.39
7.57
6.89
6.24
5.46
4.47
3.33
2.20
1.21
0.40
-0.36
-1.30
-2.62
-4.38
-6.48
-8.76
-11.08
-13.28
-15.24
-16.76
-17.57
-17.38
-16.00
-13.50
-10.16
-6.49
-3.00
-0.06
2.16
3.72
4.79
5.54
6.09
6.45
6.55
6.37
5.88
5.13
4.22
3.26
2.39
1.71
1.30
1.12
1.06
0.96
0.64
0.02
-0.91
-2.07
-3.33
-4.62
-5.90
-7.18
-8.50
-9.87
-11.31
-12.78
-14.18
-15.38
-16.17
-16.33
-15.67
-14.07
-11.59
-8.41
-4.88
-1.34
1.85
4.50
6.49
7.81
8.49
8.51
7.86
6.55
4.72
2.59
0.46
-1.45
-3.04
-4.43
-5.84
-7.50
-9.48
-11.72
-13.95
-15.90
-17.40
-18.39
-18.98
-19.30
-19.49
-19.60
-19.63
-19.53
-19.29
-18.96
-18.63
-18.38
-18.19
-17.89
-17.13
-15.51
-12.67
-8.47
-3.08
3.12
9.64
16.07
22.17
27.88
33.28
38.48
43.51
48.34
52.87
56.98
60.53
63.35
65.26
66.09
65.73
64.13
61.40
57.73
53.30
48.32
42.91
37.22
31.39
25.57
19.88
14.40
9.13
4.02
-0.97
-5.84
-10.55
-14.98
-19.04
-22.62
-25.66
-28.12
-29.95
-31.08
-31.45
-30.97
-29.59
-27.34
-24.34
-20.83
-17.13
-13.57
-10.41
-7.79
-5.77
-4.30
-3.32
-2.77
-2.55
-2.57
-2.78
-3.13
-3.58
-4.11
-4.72
-5.36
-6.02
-6.72
-7.47
-8.34
-9.33
-10.44
-11.62
-12.77
-13.82
-14.71
-15.43
-16.01
-16.52
-17.06
-17.73
-18.56
-19.50
-20.34
-20.84
-20.80
-20.03
-18.45
-15.99
-12.68
-8.64
-4.10
0.60
4.99
8.64
11.28
12.94
13.90
14.57
15.33
16.44
18.10
20.22
22.57
25.05
27.77
31.03
35.14
40.15
45.92
52.23
58.46
63.84
67.92
70.75
72.74
74.23
75.32
75.82
75.73
74.40
71.03
65.20
57.35
48.67
40.62
34.64
31.89
33.37
38.36
44.60
49.08
48.87
41.80
26.65
3.48
-27.46
-60.96
-89.69
-108.34
-116.59
-117.57
-114.46
-108.57
-99.34
-88.25
-73.88
-56.99
-40.46
-27.70
-21.01
-20.92
-26.57
-36.66
-48.33
-59.30
-68.90
-77.42
-85.12
-91.44
-94.95
-93.97
-87.33
-74.88
-57.47
-37.50
-17.80
-0.63
13.05
23.53
31.76
38.62
44.57
49.61
53.12
54.47
53.44
50.46
46.38
42.13
38.43
35.69
33.94
32.86
31.92
30.60
28.58
25.94
23.05
20.49
18.73
17.81
17.33
16.60
15.09
12.75
10.12
8.08
7.53
8.85
11.84
15.75
19.68
22.96
25.41
27.32
29.31
32.03
35.85
40.69
46.05
51.08
54.91
56.92
56.95
55.42
53.16
51.12
49.93
49.49
48.77
45.99
39.03
26.14
6.48
-19.42
-49.59
-80.85
-109.39
-131.51
-144.69
-148.43
-144.60
-136.92
-129.66
-126.07
-127.34
-132.71
-140.31
-148.39
-155.93
-162.46
-167.34
-169.27
-166.55
-158.00
-143.89
-126.26
-108.34
-93.22
-82.66
-76.56
-73.15
-69.90
-64.48
-55.55
-43.06
-27.98
-11.82
4.00
18.49
31.20
41.90
50.31
55.97
58.46
57.73
54.38
49.57
44.65
40.70
38.18
36.96
36.55
36.43
36.21
35.72
34.94
33.97
32.98
32.12
31.48
31.05
30.68
30.13
29.18
27.70
25.75
23.51
21.30
19.43
18.24
17.99
18.87
20.98
24.28
28.56
33.47
38.59
43.48
47.81
51.33
53.89
55.41
55.91
55.44
54.10
52.02
49.34
46.18
42.61
38.69
34.44
29.91
25.17
20.29
15.39
10.59
6.00
1.68
-2.34
-6.06
-9.52
-12.75
-15.77
-18.59
-21.25
-23.75
-26.14
-28.51
-30.96
-33.52
-36.11
-38.47
-40.14
-40.64
-39.60
-36.92
-32.85
-27.86
-22.50
-17.23
-12.32
-7.88
-3.96
-0.61
2.12
4.19
5.59
6.38
6.68
6.60
6.28
5.83
5.31
4.75
4.14
3.44
2.68
1.92
1.25
0.72
0.28
-0.20
-0.90
-1.88
-3.10
-4.38
-5.50
-6.33
-6.87
-7.26
-7.68
-8.29
-9.09
-9.95
-10.63
-10.83
-10.26
-8.71
-5.97
-1.96
3.19
9.21
15.73
22.41
28.92
35.01
40.51
45.45
49.87
53.74
56.93
59.21
60.45
60.61
59.84
58.38
56.68
55.02
53.37
51.44
49.01
46.12
43.07
40.27
38.01
36.96
37.25
38.42
39.52
39.81
39.09
37.73
36.33
35.41
36.34
39.55
44.19
48.42
50.72
50.87
49.93
49.54
51.09
56.98
67.80
82.00
96.44
108.50
117.40
123.90
129.26
134.44
142.37
154.71
171.11
188.82
204.27
214.21
215.97
207.67
173.94
110.42
26.80
-57.49
-126.57
-175.21
-206.22
-224.65
-233.91
-234.93
-225.23
-205.67
-178.29
-148.21
-120.82
-99.34
-84.29
-74.45
-68.22
-62.74
-56.74
-50.88
-47.32
-47.38
-50.48
-54.71
-58.10
-59.58
-58.11
-53.98
-48.44
-43.49
-40.54
-39.80
-40.53
-41.60
-42.01
-40.46
-36.30
-29.67
-21.68
-13.76
-7.03
-2.03
1.34
3.58
5.56
7.97
11.00
14.28
17.14
18.99
19.53
18.77
16.94
14.42
11.45
8.12
4.31
-0.12
-5.13
-10.39
-15.30
-19.30
-21.97
-23.25
-23.23
-22.02
-19.61
-15.93
-10.99
-5.00
1.45
7.51
12.33
15.41
16.80
17.00
16.67
16.30
16.08
15.92
15.60
14.90
13.80
12.45
10.99
9.35
7.39
5.12
2.76
0.59
-1.20
-2.67
-4.02
-5.52
-7.86
-11.45
-16.07
-20.97
-25.41
-29.02
-31.86
-34.24
-36.48
-39.78
-44.84
-51.16
-57.05
-60.72
-61.09
-58.12
-52.52
-45.39
-39.55
-37.21
-38.72
-42.58
-46.85
-50.33
-52.67
-54.04
-54.96
-58.59
-68.37
-86.12
-111.40
-142.04
-174.93
-206.41
-232.73
-237.06
-209.80
-154.37
-85.35
-18.06
38.72
82.26
112.62
130.83
138.49
136.73
126.46
110.22
91.90
75.20
62.41
54.27
50.85
51.94
55.52
59.35
62.51
65.09
67.72
70.90
74.70
79.19
84.59
89.99
94.14
96.41
96.43
94.56
91.95
89.80
89.51
92.36
98.34
106.42
114.92
121.13
122.45
116.92
102.71
79.02
46.80
8.74
-31.07
-63.71
-84.36
-94.18
-94.14
-87.32
-77.59
-68.30
-61.55
-58.04
-57.64
-60.62
-66.95
-75.72
-85.76
-95.11
-101.25
-102.01
-96.43
-85.19
-70.96
-56.63
-44.10
-34.30
-26.92
-20.89
-15.13
-9.14
-3.13
1.91
5.26
7.01
7.84
8.85
11.20
15.50
21.54
28.35
34.48
38.86
41.28
42.14
42.16
41.95
41.65
41.03
39.72
37.46
34.33
30.72
26.95
23.19
19.37
15.29
10.81
5.97
1.08
-3.33
-6.63
-8.32
-8.17
-6.36
-3.40
0.07
3.50
6.57
9.20
11.42
13.20
14.39
14.82
14.37
13.11
11.27
9.18
7.08
5.07
3.14
1.17
-0.94
-3.27
-5.83
-8.60
-11.49
-14.39
-17.10
-19.50
-21.52
-23.22
-24.81
-26.50
-28.40
-30.42
-32.36
-33.98
-35.18
-36.00
-36.58
-36.98
-37.02
-36.24
-34.16
-30.43
-25.08
-18.50
-11.32
-4.13
2.74
9.21
15.31
20.94
25.85
29.61
31.96
32.85
32.60
31.65
30.39
29.01
27.51
25.81
23.91
21.95
20.16
18.72
17.61
16.59
15.35
13.60
11.29
8.60
5.95
3.76
2.36
1.82
1.88
2.10
1.89
0.68
-1.90
-5.93
-11.08
-16.64
-21.72
-25.47
-27.37
-27.38
-25.84
-23.33
-20.34
-17.16
-13.92
-10.66
-7.55
-4.84
-2.84
-1.70
-1.32
-1.36
-1.40
-1.10
-0.37
0.65
1.70
2.54
3.00
3.09
2.87
2.46
1.98
1.56
1.27
1.17
1.22
1.33
1.35
1.12
0.52
-0.57
-2.18
-4.34
-6.99
-9.95
-12.98
-15.75
-17.97
-19.37
-19.74
-18.87
-16.62
-12.98
-8.10
-2.39
3.61
9.36
14.45
18.74
22.21
24.90
26.74
27.64
27.55
26.59
25.12
23.61
22.41
21.62
21.02
20.27
19.08
17.40
15.41
13.37
11.39
9.42
7.23
4.62
1.61
-1.60
-4.64
-7.24
-9.31
-11.07
-12.89
-15.14
-17.99
-21.31
-24.72
-27.69
-29.73
-30.48
-29.80
-27.68
-24.25
-19.69
-14.20
-8.07
-1.64
4.67
10.45
15.38
19.30
22.21
24.17
25.29
25.66
25.34
24.43
23.05
21.38
19.60
17.83
16.15
14.61
13.20
11.95
10.80
9.66
8.38
6.85
4.99
2.84
0.49
-1.93
-4.34
-6.73
-9.11
-11.59
-14.24
-17.14
-20.27
-23.50
-26.57
-29.08
-30.56
-30.60
-29.00
-25.83
-21.37
-16.03
-10.16
-4.06
2.10
8.16
13.92
19.08
23.31
26.34
28.09
28.69
28.47
27.79
26.96
26.12
25.28
24.31
23.12
21.64
19.88
17.94
15.91
13.86
11.84
9.81
7.69
5.41
2.94
0.37
-2.12
-4.37
-6.29
-7.94
-9.56
-11.43
-13.78
-16.69
-20.04
-23.51
-26.68
-29.08
-30.28
-29.97
-28.03
-24.55
-19.76
-13.98
-7.54
-0.83
5.75
11.80
17.03
21.31
24.61
26.98
28.46
29.05
28.73
27.59
25.89
24.07
22.60
21.72
21.46
21.66
22.09
22.49
22.70
22.66
22.43
22.16
21.81
21.31
20.71
20.11
19.59
19.12
18.71
18.35
18.17
17.81
16.92
15.28
12.91
9.85
6.19
2.37
-0.90
-2.56
-2.38
-0.50
2.89
7.49
12.60
16.93
18.89
16.66
8.92
-5.85
-27.85
-55.29
-84.74
-112.51
-135.78
-152.90
-163.51
-160.91
-141.09
-105.46
-60.61
-14.61
25.48
54.30
70.69
74.51
67.66
53.22
35.59
19.29
9.18
8.01
15.63
29.78
47.06
64.38
78.32
85.86
84.70
73.71
52.99
24.22
-9.21
-43.06
-72.89
-95.67
-109.92
-115.51
-113.42
-105.56
-94.41
-82.20
-70.57
-59.99
-50.33
-41.12
-32.03
-23.00
-14.39
-6.53
0.63
7.40
14.17
20.90
27.16
32.46
36.72
40.21
43.41
46.56
49.41
51.26
51.35
49.22
44.97
39.18
32.60
25.88
19.47
13.57
8.25
3.49
-0.77
-4.64
-8.21
-11.50
-14.44
-16.80
-18.30
-18.62
-17.54
-14.95
-10.94
-5.81
-0.13
5.45
10.30
14.01
16.47
17.83
18.39
18.37
17.94
17.18
16.18
15.08
14.02
13.09
12.25
11.39
10.43
9.34
8.20
7.09
6.05
4.97
3.75
2.27
0.53
-1.40
-3.48
-5.74
-8.33
-11.44
-15.15
-19.29
-23.43
-26.94
-29.23
-29.89
-28.83
-26.33
-22.84
-18.80
-14.48
-9.88
-4.85
0.67
6.47
11.99
16.51
19.45
20.61
20.29
19.15
17.86
16.80
15.96
15.05
13.73
11.92
9.89
8.16
7.15
6.90
7.07
7.07
6.45
5.01
2.98
0.74
-1.32
-3.04
-4.54
-6.12
-7.99
-10.19
-12.69
-15.42
-18.25
-21.00
-23.36
-25.16
-26.16
-26.08
-24.71
-22.21
-19.17
-16.29
-14.08
-12.40
-10.94
-9.01
-5.85
-1.18
4.28
9.01
11.59
11.58
9.98
8.22
8.18
11.62
19.59
31.50
44.99
56.67
63.05
61.36
49.22
26.08
-6.22
-43.39
-80.22
-111.92
-134.82
-146.79
-142.24
-119.99
-85.78
-49.49
-18.22
6.05
24.43
38.51
48.81
54.62
53.83
46.94
34.33
18.45
2.67
-10.24
-18.84
-23.02
-23.72
-22.77
-21.44
-19.80
-17.33
-13.40
-8.10
-2.22
3.30
7.83
10.87
12.47
13.07
13.45
14.03
14.55
14.33
12.82
9.87
5.62
0.62
-4.46
-8.82
-11.91
-13.70
-14.59
-15.12
-15.78
-16.96
-18.76
-21.04
-23.36
-25.18
-26.11
-25.91
-24.55
-22.08
-18.62
-14.30
-9.32
-3.95
1.54
6.78
11.44
15.25
18.08
19.94
20.97
21.36
21.31
21.05
20.76
20.58
20.57
20.69
20.82
20.84
20.65
20.19
19.45
18.38
16.92
15.01
12.68
10.04
7.29
4.59
2.05
-0.36
-2.75
-5.27
-8.00
-10.95
-14.02
-17.03
-19.68
-21.65
-22.60
-22.26
-20.50
-17.43
-13.34
-8.64
-3.73
1.03
5.43
9.37
12.80
15.69
17.94
19.51
20.40
20.75
20.76
20.63
20.48
20.31
20.07
19.72
19.33
19.04
18.96
19.11
19.34
19.45
19.29
18.86
18.31
17.83
17.56
17.51
17.57
17.60
17.47
17.18
16.87
16.88
17.71
19.96
24.07
30.21
38.12
47.23
56.93
66.78
76.72
86.92
97.60
108.67
119.65
129.82
138.50
145.49
151.28
156.89
163.47
171.64
180.99
189.98
196.44
198.30
194.34
184.43
169.30
150.01
127.74
103.82
79.83
57.46
37.84
20.74
4.17
-14.99
-39.54
-70.36
-105.50
-140.74
-171.23
-193.42
-206.18
-210.73
-209.46
-204.61
-197.32
-187.62
-175.05
-159.43
-141.33
-122.00
-102.96
-85.40
-69.99
-56.87
-45.82
-36.59
-29.10
-23.52
-20.12
-19.03
-20.10
-22.90
-26.66
-30.39
-33.10
-34.23
-33.80
-32.45
-31.10
-30.52
-31.22
-33.05
-35.28
-37.03
-37.73
-37.35
-36.23
-34.70
-32.78
-30.84
-29.05
-27.30
-25.47
-23.76
-22.77
-23.09
-24.75
-27.01
-29.96
-33.42
-36.53
-38.02
-36.97
-33.39
-28.00
-21.65
-14.95
-10.18
-8.87
-10.55
-13.03
-14.30
-14.14
-14.39
-17.92
-27.25
-46.07
-75.75
-114.04
-156.24
-198.12
-237.64
-274.37
-307.68
-318.38
-293.30
-233.45
-154.23
-73.90
-3.89
52.08
94.73
125.97
147.79
159.24
158.69
147.25
129.58
111.55
97.56
89.42
87.10
88.68
90.80
91.15
89.63
87.90
87.46
88.51
90.20
91.79
93.21
93.78
93.10
91.52
90.02
89.43
89.95
91.42
93.63
96.52
99.58
102.33
104.75
107.30
110.49
114.59
119.64
125.50
131.88
137.97
142.54
144.31
142.31
136.12
125.92
112.34
96.06
77.59
57.37
36.02
14.62
-5.55
-23.50
-39.20
-53.67
-68.43
-84.70
-102.58
-121.00
-138.15
-152.35
-162.72
-169.34
-173.04
-174.82
-175.44
-174.97
-172.74
-167.66
-158.79
-145.82
-129.37
-110.87
-92.09
-74.65
-59.68
-47.81
-39.27
-34.16
-32.39
-33.51
-36.62
-40.50
-43.97
-46.00
-45.79
-42.85
-37.10
-28.96
-19.36
-9.47
-0.43
6.67
11.56
14.97
18.27
22.62
28.37
35.02
41.64
47.29
50.71
51.47
50.46
49.50
50.27
53.56
59.11
65.90
72.41
76.10
75.32
70.56
64.13
58.58
55.25
53.78
52.13
46.76
32.23
4.38
-37.21
-88.42
-142.11
-190.26
-225.70
-243.58
-232.40
-189.04
-123.65
-55.38
-0.63
33.24
46.58
44.07
33.65
20.78
7.95
-3.29
-11.35
-14.71
-12.91
-6.73
1.79
10.80
18.90
24.50
26.98
27.17
27.02
28.20
31.26
35.72
40.70
45.13
47.59
47.23
44.35
40.23
36.32
33.57
32.29
32.32
33.03
33.35
32.49
30.30
27.42
24.82
23.36
23.50
25.34
28.52
32.39
36.36
40.16
43.84
47.58
51.45
55.34
59.08
62.62
66.23
70.59
76.48
84.52
94.79
106.68
119.06
130.73
140.87
149.35
156.72
163.73
170.87
177.92
183.89
187.32
186.74
181.06
169.69
152.67
130.61
104.93
77.77
51.83
29.65
12.50
-0.39
-11.98
-26.31
-46.82
-74.64
-107.95
-142.59
-173.69
-197.41
-212.02
-217.93
-216.85
-210.92
-201.96
-191.21
-179.43
-167.00
-153.96
-140.14
-125.41
-109.86
-94.00
-78.52
-64.13
-51.29
-40.25
-31.18
-24.29
-19.75
-17.48
-16.98
-17.32
-17.49
-16.81
-15.18
-13.09
-11.30
-10.44
-10.85
-12.43
-14.69
-16.96
-18.74
-19.83
-20.41
-20.84
-21.51
-22.67
-24.27
-25.94
-27.21
-27.77
-27.62
-27.03
-26.44
-26.37
-27.36
-29.67
-33.02
-36.55
-39.22
-40.10
-38.72
-35.09
-29.69
-23.76
-18.28
-13.38
-8.43
-2.69
4.04
11.30
18.33
24.36
27.82
27.97
25.55
22.58
21.04
21.78
24.39
27.76
30.48
29.69
23.71
13.33
1.43
-9.00
-16.45
-21.17
-24.40
-28.15
-37.01
-54.95
-83.42
-120.84
-163.89
-208.49
-249.94
-282.93
-287.73
-252.77
-182.99
-97.96
-17.67
47.31
95.24
128.27
150.45
163.81
165.86
154.93
133.25
107.01
83.33
67.17
59.13
58.27
61.98
65.63
66.02
62.93
58.74
56.37
57.35
61.66
68.58
76.83
84.18
89.15
91.53
92.16
91.89
91.09
89.90
88.97
89.17
90.90
94.21
98.75
103.73
107.92
110.13
109.92
108.21
106.97
108.46
114.31
124.58
137.20
148.10
152.34
145.86
127.16
98.10
63.55
29.92
2.83
-14.83
-23.95
-28.79
-35.44
-49.39
-73.26
-105.75
-142.01
-175.61
-200.67
-213.59
-213.53
-202.06
-182.29
-157.95
-132.90
-110.68
-94.20
-84.87
-82.04
-83.08
-84.48
-83.19
-77.66
-68.24
-56.57
-45.24
-36.18
-29.78
-25.15
-20.99
-16.51
-11.62
-6.72
-2.22
0.68
1.51
1.32
2.16
5.69
12.04
20.02
27.82
33.99
36.34
34.05
28.67
23.40
20.91
21.86
24.99
27.81
27.37
18.33
-4.19
-42.11
-93.37
-152.80
-213.19
-266.23
-304.05
-306.42
-263.33
-183.96
-92.31
-10.55
50.83
91.05
114.32
124.61
123.11
108.39
81.11
46.20
11.57
-16.02
-32.32
-36.99
-32.58
-22.59
-11.64
-2.84
3.51
9.35
16.81
26.68
38.32
50.29
61.21
69.17
73.00
73.08
71.10
68.87
67.47
67.02
67.10
67.16
66.38
64.26
60.98
57.26
53.73
50.52
47.27
43.41
38.60
32.69
25.86
18.60
11.48
4.90
-1.07
-6.47
-11.40
-15.81
-19.61
-22.80
-25.60
-28.33
-31.26
-34.38
-37.38
-39.66
-40.62
-39.88
-37.47
-33.77
-29.31
-24.58
-19.87
-15.25
-10.73
-6.42
-2.53
0.61
2.77
3.91
4.30
4.43
4.88
6.09
8.25
11.29
14.89
18.62
22.06
24.93
27.18
29.05
31.06
33.83
37.94
43.63
50.74
58.76
67.08
75.29
83.32
91.29
99.31
107.19
114.38
120.29
124.58
127.51
129.87
132.68
136.88
143.21
152.27
164.64
180.62
199.63
219.45
236.13
244.68
240.58
221.58
188.68
145.99
99.43
54.88
16.73
-12.66
-32.70
-43.92
-47.69
-46.24
-42.79
-41.30
-45.65
-58.34
-79.57
-107.08
-136.83
-164.44
-186.42
-200.87
-207.36
-206.40
-198.90
-185.96
-168.94
-149.59
-129.86
-111.62
-96.18
-84.23
-75.85
-70.75
-68.37
-67.97
-68.54
-68.90
-67.89
-64.70
-59.18
-51.82
-43.58
-35.37
-27.80
-20.99
-14.82
-9.17
-4.07
0.31
3.86
6.63
8.85
10.80
12.56
14.02
14.89
14.97
14.30
13.18
12.04
11.15
10.47
9.70
8.44
6.42
3.61
0.19
-3.58
-7.46
-11.31
-15.08
-18.79
-22.49
-26.19
-29.82
-33.25
-36.27
-38.67
-40.28
-41.00
-40.81
-39.69
-37.61
-34.55
-30.58
-25.98
-21.25
-17.01
-13.85
-12.02
-11.44
-11.63
-12.02
-12.10
-11.62
-10.57
-9.14
-7.59
-6.18
-5.22
-5.06
-6.02
-8.24
-11.55
-15.31
-18.70
-20.95
-21.68
-21.04
-19.51
-17.65
-15.84
-14.25
-13.05
-12.51
-13.02
-14.89
-18.03
-21.87
-25.41
-27.58
-27.60
-25.20
-20.58
-14.25
-6.78
1.29
9.49
17.34
24.31
29.95
34.01
36.53
37.93
38.85
39.96
41.66
43.95
46.48
48.75
50.33
51.05
50.96
50.22
48.97
47.26
45.10
42.55
39.69
36.60
33.31
29.80
26.01
21.94
17.69
13.42
9.20
4.91
0.23
-5.27
-11.85
-19.40
-27.39
-35.00
-41.37
-45.88
-48.38
-49.10
-48.51
-47.10
-45.30
-43.40
-41.59
-39.93
-38.40
-36.89
-35.36
-33.96
-33.06
-33.09
-34.29
-36.50
-39.13
-41.34
-42.45
-42.11
-40.38
-37.53
-33.83
-29.51
-24.84
-20.20
-16.02
-12.61
-9.94
-7.61
-5.09
-1.98
1.71
5.64
9.33
12.42
14.84
16.72
18.18
19.32
20.15
20.76
21.35
22.20
23.59
25.65
28.40
31.80
35.80
40.41
45.52
50.88
56.05
60.47
63.63
65.25
65.32
64.05
61.82
59.00
55.92
52.81
49.78
46.83
43.83
40.62
37.06
33.06
28.57
23.64
18.29
12.61
6.76
1.00
-4.31
-8.86
-12.48
-15.30
-17.74
-20.35
-23.58
-27.54
-31.91
-36.02
-39.06
-40.36
-39.61
-36.88
-32.63
-27.44
-21.86
-16.29
-10.99
-6.14
-1.90
1.55
4.10
5.81
6.93
7.83
8.80
9.93
11.09
11.97
12.39
12.35
12.09
11.95
12.14
12.65
13.27
13.71
13.83
13.61
13.17
12.57
11.77
10.64
9.08
7.14
5.01
2.93
1.09
-0.46
-1.74
-2.81
-3.62
-3.98
-3.60
-2.27
0.04
3.07
6.35
9.33
11.59
12.93
13.41
13.25
12.69
11.90
10.91
9.75
8.46
7.22
6.19
5.50
5.06
4.62
3.90
2.70
1.11
-0.59
-1.99
-2.80
-2.96
-2.65
-2.19
-1.83
-1.75
-2.00
-2.64
-3.85
-5.84
-8.79
-12.71
-17.43
-22.61
-27.89
-32.96
-37.54
-41.27
-43.74
-44.51
-43.34
-40.31
-35.81
-30.37
-24.49
-18.46
-12.43
-6.53
-1.05
3.66
7.26
9.61
10.81
11.13
10.91
10.35
9.60
8.72
7.77
6.78
5.74
4.56
3.20
1.67
0.14
-1.18
-2.12
-2.67
-2.96
-3.16
-3.47
-4.00
-4.87
-6.22
-8.14
-10.71
-13.82
-17.23
-20.53
-23.26
-25.01
-25.43
-24.37
-21.88
-18.18
-13.67
-8.73
-3.66
1.43
6.56
11.78
17.07
22.20
26.79
30.35
32.44
32.75
31.15
27.73
22.80
16.77
10.21
3.81
-1.73
-5.86
-8.32
-9.21
-8.96
-8.21
-7.67
-7.84
-8.85
-10.47
-12.26
-13.82
-14.92
-15.49
-15.60
-15.42
-15.02
-14.29
-13.09
-11.48
-9.79
-8.47
-7.80
-7.62
-7.64
-7.16
-5.10
-0.54
6.65
15.68
25.12
33.55
40.17
44.30
46.29
47.56
49.84
53.94
59.25
64.33
67.57
68.24
65.48
59.77
53.28
49.03
49.07
53.44
60.05
64.80
62.69
47.19
13.86
-36.78
-98.73
-162.54
-217.99
-256.65
-274.02
-259.97
-213.56
-146.74
-78.14
-21.65
17.41
38.92
46.58
42.54
28.97
8.00
-16.41
-38.58
-53.15
-57.56
-52.46
-40.99
-27.26
-14.34
-5.01
-0.32
0.75
0.52
1.03
3.18
6.91
11.69
17.19
22.56
27.20
31.22
35.21
39.49
43.84
47.73
50.52
51.88
51.41
48.94
44.76
39.56
33.98
28.38
22.91
17.55
12.30
7.00
1.46
-4.38
-10.38
-16.20
-21.36
-25.31
-27.68
-28.41
-27.75
-26.22
-24.33
-22.39
-20.45
-18.46
-16.34
-14.23
-12.37
-10.99
-10.19
-9.81
-9.55
-9.11
-8.37
-7.44
-6.61
-6.10
-5.95
-5.93
-5.61
-4.53
-2.38
0.87
5.04
9.79
14.72
19.48
23.84
27.72
31.09
33.91
36.03
37.22
37.33
36.37
34.54
32.23
29.91
27.97
26.57
25.71
25.33
25.53
26.42
28.12
30.65
33.91
37.65
41.45
44.89
47.65
49.90
51.83
53.63
55.45
57.55
60.07
62.86
65.57
67.68
69.43
71.03
72.71
74.79
77.83
82.25
87.76
93.58
98.58
102.79
106.19
108.76
110.79
113.30
117.82
125.46
136.48
149.54
162.93
172.87
174.57
164.29
141.33
108.25
69.27
28.63
-17.15
-65.45
-110.29
-145.70
-170.41
-186.55
-195.03
-196.80
-190.14
-175.74
-154.57
-129.08
-102.51
-77.73
-56.37
-38.91
-25.74
-17.09
-13.38
-13.55
-16.46
-21.04
-26.18
-30.60
-33.27
-34.14
-33.86
-33.58
-33.51
-33.77
-34.58
-36.29
-39.11
-42.97
-47.68
-52.74
-57.69
-61.76
-64.74
-66.96
-68.96
-70.92
-72.46
-72.93
-71.72
-68.70
-64.14
-58.66
-52.88
-47.10
-41.18
-34.85
-27.97
-20.76
-13.69
-7.17
-1.36
3.92
8.85
13.41
17.21
19.62
20.13
18.68
15.80
12.38
9.36
7.34
6.47
6.50
6.98
7.53
7.92
8.01
7.71
6.93
5.61
3.83
1.87
0.11
-1.13
-1.74
-1.93
-2.13
-2.83
-4.33
-6.65
-9.42
-12.11
-14.07
-14.84
-14.13
-11.96
-8.58
-4.42
0.01
4.21
7.80
10.54
12.35
13.33
13.67
13.54
13.10
12.41
11.46
10.21
8.60
6.59
4.11
1.22
-1.94
-5.05
-7.71
-9.49
-10.16
-9.78
-8.71
-7.49
-6.59
-6.27
-6.48
-6.98
-7.43
-7.67
-7.69
-7.75
-8.23
-9.51
-11.79
-15.02
-18.85
-22.68
-25.78
-27.54
-27.55
-25.73
-22.34
-17.90
-13.03
-8.31
-4.16
-0.74
1.99
4.22
6.23
8.24
10.35
12.53
14.58
16.27
17.45
18.17
18.69
19.48
20.96
23.36
26.55
30.00
32.98
34.75
34.81
33.06
29.77
25.48
20.75
16.02
11.53
7.31
3.24
-0.74
-4.68
-8.52
-12.22
-15.82
-19.44
-23.13
-26.76
-29.94
-32.08
-32.64
-31.40
-28.61
-24.87
-20.93
-17.28
-14.00
-10.85
-7.51
-3.90
-0.31
2.72
4.65
5.24
4.67
3.43
2.08
1.02
0.36
0.02
-0.15
-0.22
-0.11
0.34
1.34
2.98
5.17
7.65
9.97
11.68
12.41
12.04
10.74
8.94
7.12
5.70
4.75
3.98
2.83
0.75
-2.58
-6.93
-11.62
-15.70
-18.30
-18.95
-17.68
-14.91
-11.15
-6.84
-2.29
2.18
6.14
8.99
10.20
9.56
7.37
4.29
1.14
-1.40
-2.91
-3.28
-2.49
-0.67
1.95
4.90
7.55
9.18
9.34
7.99
5.54
2.65
-0.08
-2.36
-4.13
-5.53
-6.60
-7.27
-7.42
-7.05
-6.42
-6.04
-6.51
-8.22
-11.12
-14.69
-18.03
-20.21
-20.49
-18.59
-14.67
-9.29
-3.11
3.27
9.47
15.35
20.90
26.08
30.83
34.96
38.31
40.76
42.29
42.96
42.87
42.12
40.78
38.90
36.47
33.44
29.68
24.98
19.17
12.22
4.39
-3.70
-11.21
-17.30
-21.46
-23.69
-24.46
-24.49
-24.47
-24.86
-25.79
-27.23
-29.11
-31.42
-34.16
-37.26
-40.41
-43.18
-45.01
-45.46
-44.34
-41.78
-38.11
-33.76
-29.02
-24.00
-18.58
-12.59
-5.93
1.19
8.26
14.64
19.74
23.24
25.22
26.05
26.19
25.92
25.29
24.15
22.35
19.90
17.02
14.01
11.11
8.44
5.95
3.59
1.41
-0.47
-1.99
-3.21
-4.42
-5.98
-8.20
-11.10
-14.45
-17.90
-21.09
-23.90
-26.38
-28.69
-30.88
-32.77
-33.95
-33.90
-32.22
-28.76
-23.71
-17.52
-10.72
-3.78
2.98
9.35
15.20
20.37
24.69
28.02
30.32
31.72
32.45
32.75
32.76
32.50
31.86
30.78
29.23
27.37
25.44
23.71
22.31
21.22
20.24
19.08
17.45
15.23
12.46
9.34
6.14
3.18
0.68
-1.25
-2.64
-3.71
-4.78
-6.27
-8.47
-11.46
-14.98
-18.43
-21.06
-22.21
-21.54
-19.15
-15.55
-11.46
-7.55
-4.21
-1.55
0.54
2.16
3.36
4.05
4.23
4.03
3.79
3.87
4.40
5.17
5.66
5.28
3.74
1.25
-1.55
-3.84
-5.01
-4.88
-3.79
-2.50
-1.87
-2.70
-5.52
-10.54
-17.56
-25.96
-34.80
-42.95
-49.37
-53.46
-55.11
-54.75
-53.02
-50.37
-46.84
-41.96
-35.19
-26.36
-16.09
-5.73
3.02
8.77
11.04
10.30
7.69
4.50
1.70
-0.15
-0.85
-0.30
1.58
4.72
8.87
13.52
18.05
21.86
24.50
25.59
24.85
22.10
17.40
11.22
4.47
-1.72
-6.36
-8.98
-9.76
-9.33
-8.38
-7.31
-6.05
-4.23
-1.46
2.29
6.64
10.87
14.15
15.94
16.11
15.01
13.30
11.76
11.00
11.44
13.19
16.20
20.28
25.14
30.39
35.55
40.07
43.57
45.94
47.42
48.45
49.42
50.39
51.06
50.84
49.24
46.18
42.15
38.13
35.32
34.68
36.65
40.94
46.70
52.66
57.53
60.16
59.68
55.64
48.08
37.57
25.14
12.04
-0.65
-12.20
-22.29
-30.75
-37.26
-41.29
-42.26
-40.02
-35.09
-28.70
-22.27
-16.86
-12.80
-9.75
-7.09
-4.40
-1.75
0.43
1.64
1.62
0.57
-0.95
-2.25
-2.72
-2.02
-0.06
3.00
6.85
10.95
14.61
17.04
17.54
15.82
12.09
7.03
1.51
-3.76
-8.41
-12.34
-15.49
-17.68
-18.68
-18.41
-17.22
-15.87
-15.27
-15.99
-18.00
-20.72
-23.27
-24.98
-25.58
-25.23
-24.25
-22.93
-21.37
-19.45
-16.88
-13.46
-9.13
-4.24
0.46
4.06
5.85
5.78
4.55
3.37
3.31
4.78
7.33
9.98
11.83
12.55
12.43
12.06
11.80
11.51
10.67
8.76
5.70
2.02
-1.36
-3.54
-4.06
-3.06
-1.18
0.75
1.97
2.00
0.64
-2.17
-6.37
-11.82
-18.15
-24.67
-30.44
-34.44
-36.05
-35.21
-32.53
-28.98
-25.52
-22.71
-20.67
-19.09
-17.59
-15.85
-13.74
-11.30
-8.67
-5.95
-3.26
-0.67
1.71
3.75
5.33
6.36
6.88
7.04
7.08
7.28
7.77
8.50
9.24
9.66
9.48
8.60
7.11
5.24
3.25
1.30
-0.60
-2.59
-4.86
-7.57
-10.65
-13.77
-16.45
-18.18
-18.68
-17.97
-16.38
-14.26
-11.79
-8.94
-5.42
-0.96
4.50
10.74
17.25
23.34
28.36
31.84
33.59
33.77
32.80
31.20
29.45
27.80
26.36
25.20
24.49
24.43
25.09
26.18
27.02
26.76
24.72
20.75
15.28
9.07
3.02
-2.09
-5.74
-7.65
-7.88
-6.70
-4.62
-2.33
-0.62
-0.18
-1.35
-3.99
-7.62
-11.61
-15.35
-18.36
-20.30
-21.11
-20.75
-19.03
-15.69
-10.52
-3.66
4.55
13.67
23.23
32.33
40.08
45.86
49.35
50.50
49.22
45.83
41.19
36.49
32.18
28.76
27.16
28.52
33.53
41.06
49.03
55.10
57.35
53.58
43.21
28.05
11.46
-3.11
-14.88
-24.75
-34.61
-46.64
-64.43
-90.24
-123.36
-160.02
-194.55
-222.56
-240.21
-244.57
-224.83
-178.13
-113.73
-49.23
-2.20
26.47
40.25
44.49
44.14
44.54
48.27
55.67
65.49
75.48
83.29
85.85
82.14
73.61
63.24
52.49
41.91
31.94
23.27
16.80
12.04
8.31
4.95
1.22
-4.62
-14.04
-27.12
-42.34
-57.18
-69.85
-79.20
-84.94
-87.64
-88.81
-89.92
-91.38
-92.42
-91.45
-87.26
-79.30
-67.92
-54.32
-40.37
-27.82
-17.70
-10.01
-3.89
1.83
8.29
16.18
25.46
35.32
44.51
51.78
56.42
58.61
59.19
59.27
59.63
60.41
61.14
61.10
59.81
57.26
54.07
51.08
48.96
48.21
49.26
52.65
58.78
67.35
76.94
85.45
90.81
92.19
90.78
89.36
90.85
96.29
103.70
108.53
106.02
93.33
71.00
42.76
13.93
-10.58
-27.89
-37.62
-41.25
-40.55
-37.04
-31.73
-25.26
-18.19
-11.06
-4.50
0.73
1.67
-3.39
-13.75
-26.08
-36.34
-42.41
-44.83
-45.74
-47.28
-50.07
-52.44
-51.78
-46.64
-37.88
-29.06
-23.49
-22.98
-26.91
-32.67
-36.80
-36.86
-32.53
-25.40
-17.38
-11.75
-11.03
-15.89
-25.12
-35.90
-44.91
-50.60
-51.96
-49.47
-44.78
-39.70
-35.49
-32.51
-30.17
-27.75
-24.81
-21.37
-18.03
-14.92
-12.45
-11.03
-11.04
-12.39
-14.50
-16.28
-16.18
-12.89
-5.70
5.03
17.88
30.66
41.54
49.47
54.37
57.14
59.00
61.29
65.05
70.62
75.01
75.12
68.70
55.87
39.22
22.42
9.19
2.18
1.91
6.70
13.86
20.68
25.36
28.04
28.91
28.27
26.16
22.07
15.53
7.13
-1.62
-8.93
-13.70
-16.21
-17.73
-20.04
-24.20
-30.68
-38.73
-46.95
-54.27
-60.50
-66.48
-73.30
-78.35
-79.29
-75.17
-66.78
-55.76
-43.30
-29.78
-15.24
0.15
15.58
29.07
38.35
42.17
40.94
36.18
30.14
24.95
21.98
21.44
22.00
21.74
19.19
13.97
6.78
-0.40
-5.46
-6.70
-3.39
3.82
13.38
23.49
32.39
38.51
40.53
37.42
28.81
15.48
-0.63
-16.68
-29.72
-37.63
-39.75
-36.96
-31.22
-24.81
-19.65
-16.82
-16.50
-18.01
-20.08
-21.19
-19.90
-15.37
-7.65
2.22
12.52
21.32
27.12
29.23
27.97
24.36
19.73
15.18
11.39
8.50
6.35
4.62
2.95
0.90
-2.03
-6.30
-12.11
-19.10
-26.36
-32.60
-36.61
-37.79
-36.59
-34.33
-32.77
-33.44
-36.98
-43.01
-50.41
-57.95
-64.59
-69.58
-72.00
-70.61
-64.09
-51.65
-33.88
-12.97
7.76
24.92
36.25
41.20
40.89
37.23
32.08
26.60
21.14
15.62
9.94
4.33
-0.68
-4.44
-6.54
-7.08
-6.77
-6.63
-7.58
-9.94
-13.37
-17.00
-19.87
-21.41
-21.72
-21.38
-21.21
-21.79
-23.20
-25.02
-26.52
-27.06
-26.30
-24.39
-21.74
-18.82
-15.84
-12.68
-9.04
-4.56
0.87
7.08
13.68
20.23
26.31
31.60
35.83
38.74
40.12
39.92
38.33
35.70
32.38
28.57
24.21
19.09
13.06
6.57
0.57
-3.87
-5.99
-5.64
-3.18
0.50
4.14
6.24
5.50
1.06
-7.23
-18.62
-31.48
-43.43
-52.36
-57.21
-58.50
-57.46
-55.55
-53.88
-52.85
-52.16
-50.34
-46.20
-39.37
-30.99
-21.73
-12.09
-2.38
6.87
15.12
23.37
32.31
41.81
49.87
56.27
61.63
66.95
72.68
78.98
88.29
102.18
120.41
138.94
156.09
171.38
185.33
198.18
210.05
223.89
241.00
259.86
274.14
281.21
281.06
275.84
267.64
239.04
183.02
105.34
38.46
-11.47
-45.70
-71.73
-91.99
-108.19
-121.88
-131.44
-136.04
-136.55
-137.70
-140.28
-143.14
-144.26
-143.02
-139.86
-133.51
-123.64
-111.30
-100.65
-92.85
-87.61
-83.79
-80.95
-78.91
-76.06
-71.27
-64.44
-57.79
-52.09
-47.47
-43.64
-40.69
-38.87
-37.67
-36.66
-35.71
-35.48
-35.68
-35.72
-35.01
-33.47
-31.41
-28.93
-26.07
-22.78
-19.28
-15.53
-11.59
-7.68
-4.10
-0.98
1.82
4.76
8.33
12.76
17.89
23.14
27.74
30.94
32.17
31.03
27.26
20.76
11.65
0.42
-12.07
-24.67
-36.33
-46.31
-54.41
-60.91
-66.36
-71.28
-75.96
-80.33
-84.01
-86.51
-87.42
-86.65
-84.45
-81.28
-77.62
-73.62
-69.10
-63.65
-57.04
-49.44
-41.56
-34.29
-28.36
-23.97
-20.64
-17.53
-13.76
-8.86
-2.94
3.38
9.31
14.21
17.88
20.66
23.20
26.17
29.94
34.35
38.80
42.55
45.01
45.96
45.64
44.49
42.91
41.10
39.01
36.52
33.61
30.43
27.29
24.43
21.93
19.65
17.45
15.29
13.44
12.42
12.77
14.82
18.52
23.44
28.94
34.37
39.30
43.55
47.12
50.09
52.50
54.32
55.54
56.20
56.49
56.66
56.96
57.53
58.35
59.22
59.96
60.46
60.82
61.35
62.44
64.40
67.25
70.65
74.00
76.55
77.74
77.42
75.96
74.19
73.12
73.58
75.96
80.08
85.28
90.78
95.97
100.76
105.63
111.53
119.40
129.81
142.58
156.64
170.10
180.48
185.00
181.08
166.98
142.51
109.65
72.52
36.51
6.83
-13.19
-23.12
-25.30
-23.66
-22.04
-22.85
-26.69
-32.88
-40.36
-48.50
-57.27
-66.80
-76.98
-87.12
-96.22
-103.39
-108.28
-111.08
-112.46
-113.06
-113.23
-112.95
-111.94
-109.89
-106.69
-102.49
-97.69
-92.79
-88.20
-84.11
-80.42
-76.71
-72.44
-67.15
-60.74
-53.52
-46.21
-39.60
-34.32
-30.67
-28.54
-27.60
-27.44
-27.74
-28.31
-29.19
-30.62
-32.89
-36.27
-40.78
-46.11
-51.69
-56.82
-60.90
-63.66
-65.26
-66.21
-67.10
-68.33
-69.94
-71.64
-73.00
-73.61
-73.26
-71.99
-69.95
-67.25
-64.05
-60.67
-57.98
-57.06
-58.78
-63.41
-70.47
-78.69
-86.37
-91.83
-93.74
-91.75
-85.63
-75.00
-59.39
-38.99
-15.22
9.01
29.98
44.27
49.15
44.08
30.71
11.95
-9.27
-30.79
-51.09
-68.77
-82.11
-90.25
-92.57
-89.08
-80.73
-69.57
-58.35
-49.88
-46.21
-41.55
-32.23
-16.99
2.95
25.24
47.57
67.91
84.62
96.80
104.87
109.81
112.35
112.82
111.28
107.41
100.97
92.38
83.35
75.37
70.29
69.65
74.10
82.99
94.17
104.60
111.42
112.98
109.28
101.35
91.03
80.69
72.63
68.17
66.93
67.02
65.84
61.09
51.66
38.32
23.82
11.90
5.56
5.59
10.44
16.87
20.92
18.82
7.72
-14.23
-44.76
-76.99
-102.15
-113.29
-107.70
-87.11
-56.82
-24.39
2.31
16.98
16.71
2.86
-18.80
-40.02
-53.43
-55.48
-48.23
-35.18
-20.44
-7.53
0.63
2.49
-2.32
-12.81
-26.26
-38.22
-43.43
-38.08
-20.09
6.14
33.46
55.52
68.92
73.08
68.81
57.25
39.57
17.73
-5.31
-25.44
-38.90
-44.05
-41.87
-35.11
-26.82
-19.54
-13.94
-10.23
-8.06
-7.02
-6.82
-7.40
-8.71
-10.60
-12.74
-14.66
-16.13
-16.90
-16.99
-16.72
-16.67
-17.40
-19.16
-21.74
-24.56
-27.01
-28.41
-28.59
-27.56
-25.65
-23.33
-21.09
-19.24
-17.90
-17.15
-16.97
-17.35
-18.25
-19.58
-21.11
-22.37
-22.78
-21.73
-18.92
-14.37
-8.49
-1.86
4.86
11.18
16.77
21.44
25.02
27.35
28.28
27.81
26.23
24.03
21.73
19.80
18.46
17.70
17.37
17.27
17.18
16.98
16.58
15.97
15.20
14.36
13.50
12.62
11.59
10.27
8.55
6.44
4.01
1.38
-1.37
-4.20
-7.11
-9.98
-12.55
-14.44
-15.27
-14.77
-12.89
-9.81
-5.89
-1.56
2.77
6.76
10.17
12.85
14.72
15.76
16.00
15.56
14.62
13.39
12.08
10.86
9.80
8.87
7.91
6.71
5.13
3.15
0.88
-1.45
-3.65
-5.66
-7.54
-9.46
-11.50
-13.65
-15.77
-17.77
-19.65
-21.59
-23.82
-26.40
-29.11
-31.38
-32.55
-31.99
-29.41
-24.87
-18.75
-11.61
-3.94
3.80
11.30
18.26
24.44
29.58
33.50
36.16
37.69
38.38
38.61
38.67
38.68
38.55
38.08
37.08
35.52
33.52
31.31
29.06
26.91
24.90
23.05
21.41
20.03
18.93
18.04
17.15
16.00
14.32
11.95
8.96
5.65
2.53
0.20
-0.83
-0.32
1.68
4.89
8.94
13.58
18.71
24.36
30.44
36.65
42.51
47.49
51.25
53.83
55.67
57.42
59.81
63.33
68.11
73.93
80.37
86.94
93.22
98.90
103.87
108.44
113.36
119.63
127.82
137.43
146.40
151.29
148.29
134.49
108.93
72.44
27.00
-24.80
-79.64
-133.17
-180.16
-215.45
-235.50
-239.13
-228.19
-206.70
-179.28
-149.78
-120.69
-93.68
-70.22
-51.68
-38.28
-29.24
-23.15
-18.55
-14.46
-10.51
-6.81
-3.49
-0.52
3.34
9.47
18.54
30.24
43.53
57.21
70.26
81.97
86.60
80.48
63.78
40.63
16.10
-6.48
-25.65
-40.68
-51.12
-56.89
-57.89
-55.05
-50.34
-46.15
-44.17
-44.64
-46.21
-46.69
-44.28
-37.78
-27.36
-14.48
-0.55
13.05
25.05
34.75
41.79
45.72
46.28
43.27
36.93
28.19
18.34
8.31
-0.67
-7.15
-10.06
-9.17
-5.69
-1.93
-0.58
-4.49
-15.82
-34.79
-58.98
-84.04
-105.49
-120.19
-126.95
-126.32
-114.90
-94.76
-72.51
-55.19
-46.02
-43.62
-44.19
-45.68
-45.39
-42.50
-38.46
-34.80
-31.99
-29.43
-25.35
-19.23
-11.35
-2.40
6.33
13.07
17.20
19.60
21.98
25.73
31.18
37.95
45.47
53.12
60.08
66.08
71.20
75.54
78.97
81.16
82.16
82.44
82.41
81.83
80.10
76.50
70.72
63.11
54.66
46.75
40.47
36.10
32.96
30.13
27.03
23.76
20.89
18.90
17.91
17.64
17.56
17.27
16.72
16.11
15.70
15.55
15.47
15.10
14.14
12.49
10.30
7.87
5.52
3.47
1.77
0.38
-0.81
-1.90
-2.97
-4.08
-5.32
-6.83
-8.77
-11.28
-14.40
-18.13
-22.41
-27.16
-32.23
-37.29
-41.81
-45.09
-46.58
-46.08
-43.94
-40.93
-37.89
-35.21
-32.73
-29.78
-25.64
-19.93
-12.92
-5.52
0.95
5.13
5.91
2.83
-3.73
-12.52
-21.67
-29.23
-33.76
-34.80
-32.91
-29.37
-25.61
-22.71
-21.10
-20.35
-19.38
-16.82
-11.52
-3.04
7.88
19.35
28.72
33.43
31.93
24.33
12.45
-0.75
-12.19
-19.67
-22.48
-21.37
-17.98
-14.08
-10.93
-9.01
-8.23
-8.26
-8.90
-10.15
-12.04
-14.50
-17.23
-19.59
-20.78
-20.04
-17.01
-12.10
-6.41
-1.45
1.44
1.69
-0.26
-3.16
-5.54
-6.31
-5.48
-3.65
-1.48
0.64
2.61
4.62
6.52
7.94
8.41
7.12
3.82
-0.87
-5.97
-10.69
-14.36
-17.16
-19.44
-21.30
-23.26
-25.27
-26.50
-26.15
-24.08
-20.46
-16.67
-14.29
-14.47
-18.62
-26.77
-36.94
-46.06
-51.60
-51.94
-48.60
-45.19
-38.54
-29.10
-19.54
-11.56
-4.24
-0.19
3.22
6.85
10.06
11.69
12.60
12.81
13.04
14.04
15.80
18.16
19.71
19.26
16.52
11.43
4.70
-2.12
-7.67
-11.54
-13.55
-14.19
-13.46
-10.59
-5.14
2.79
12.57
22.93
32.15
39.18
43.42
45.12
45.10
43.98
41.94
39.10
35.55
31.52
27.63
24.46
22.44
21.62
21.49
21.13
19.74
16.85
12.47
7.09
1.29
-4.37
-9.50
-13.77
-17.04
-19.25
-20.62
-21.62
-22.88
-24.94
-27.93
-31.47
-34.75
-36.89
-37.22
-35.51
-31.94
-27.03
-21.38
-15.49
-9.75
-4.33
0.66
5.21
9.27
12.81
15.81
18.35
20.63
22.83
25.07
27.33
29.55
31.74
33.98
36.29
38.51
40.17
40.55
38.98
35.09
29.03
21.39
13.12
5.21
-1.53
-6.62
-9.98
-11.91
-12.96
-13.72
-14.49
-15.13
-15.15
-13.96
-11.27
-7.27
-2.65
1.77
5.35
7.94
9.84
11.62
13.84
16.77
20.38
24.36
28.40
32.28
35.92
39.26
42.16
44.32
45.36
45.02
43.41
41.00
38.49
36.49
35.22
34.39
33.34
31.38
28.13
23.69
18.53
13.32
8.62
4.69
1.52
-1.10
-3.36
-5.35
-7.00
-8.18
-8.77
-8.82
-8.50
-8.07
-7.77
-7.70
-7.79
-7.93
-7.99
-7.96
-7.97
-8.18
-8.70
-9.48
-10.31
-10.96
-11.23
-11.18
-11.06
-11.23
-11.95
-13.23
-14.77
-16.11
-16.85
-16.88
-16.45
-16.05
-16.16
-16.99
-18.39
-19.87
-20.90
-21.11
-20.52
-19.40
-18.06
-16.62
-14.86
-12.36
-8.81
-4.29
0.65
5.21
8.78
11.17
12.69
13.87
15.07
16.26
17.00
16.78
15.34
12.88
9.97
7.24
5.10
3.57
2.30
0.86
-1.07
-3.45
-6.00
-8.28
-9.97
-11.05
-11.76
-12.57
-13.84
-15.73
-18.15
-20.79
-23.31
-25.53
-27.33
-28.68
-29.46
-29.38
-28.13
-25.43
-21.30
-16.11
-10.52
-5.28
-0.99
2.09
4.06
5.36
6.41
7.49
8.56
9.28
9.32
8.53
7.11
5.53
4.32
3.74
3.64
3.54
2.90
1.47
-0.61
-2.82
-4.58
-5.62
-6.08
-6.49
-7.43
-9.28
-12.01
-15.21
-18.30
-20.83
-22.56
-23.51
-23.72
-23.20
-21.88
-19.68
-16.66
-13.16
-9.73
-6.99
-5.37
-4.89
-5.12
-5.31
-4.71
-2.91
0.01
3.47
6.73
9.23
10.84
11.83
12.59
13.28
13.70
13.36
11.86
9.18
5.83
2.56
0.08
-1.38
-2.10
-2.69
-3.70
-5.34
-7.42
-9.49
-11.25
-12.71
-14.21
-16.06
-18.32
-20.54
-21.97
-21.90
-19.97
-16.44
-12.00
-7.49
-3.53
-0.31
2.34
4.80
7.31
9.86
12.18
13.92
14.82
14.92
14.57
14.25
14.34
14.84
15.39
15.46
14.71
13.22
11.48
10.14
9.57
9.68
9.90
9.55
8.24
6.08
3.61
1.43
-0.15
-1.29
-2.55
-4.43
-7.09
-10.16
-12.92
-14.58
-14.68
-13.23
-10.70
-7.84
-5.31
-3.46
-2.29
-1.46
-0.56
0.67
2.20
3.73
4.91
5.57
5.85
6.15
6.83
7.92
9.00
9.40
8.56
6.40
3.44
0.54
-1.54
-2.54
-2.76
-2.85
-3.36
-4.43
-5.76
-6.82
-7.27
-7.17
-6.97
-7.23
-8.31
-10.18
-12.45
-14.54
-16.01
-16.68
-16.60
-15.98
-14.95
-13.49
-11.50
-8.81
-5.42
-1.47
2.61
6.33
9.20
10.98
11.74
11.81
11.63
11.46
11.33
11.03
10.36
9.29
8.06
7.12
6.81
7.23
8.03
8.66
8.59
7.58
5.81
3.73
1.81
0.27
-1.04
-2.56
-4.64
-7.32
-10.20
-12.56
-13.71
-13.40
-11.88
-9.77
-7.70
-6.01
-4.60
-3.08
-1.09
1.49
4.47
7.43
9.99
11.97
13.41
14.53
15.51
16.43
17.13
17.41
17.13
16.38
15.47
14.85
14.79
15.24
15.78
15.82
14.97
13.25
11.11
9.20
7.97
7.40
7.04
6.22
4.54
1.97
-1.08
-4.01
-6.37
-8.02
-9.08
-9.83
-10.41
-10.74
-10.51
-9.36
-7.12
-3.92
-0.27
3.23
6.06
8.04
9.34
10.32
11.28
12.26
13.04
13.30
12.91
12.01
11.03
10.42
10.38
10.79
11.27
11.34
10.73
9.46
7.81
6.14
4.71
3.54
2.41
1.01
-0.85
-3.15
-5.71
-8.26
-10.65
-12.81
-14.79
-16.59
-18.05
-18.85
-18.67
-17.32
-14.86
-11.66
-8.18
-4.88
-1.95
0.61
3.01
5.43
7.91
10.26
12.13
13.18
13.29
12.64
11.67
10.84
10.42
10.33
10.25
9.80
8.81
7.34
5.72
4.29
3.20
2.36
1.43
0.08
-1.82
-4.12
-6.47
-8.49
-10.02
-11.20
-12.38
-13.91
-15.85
-17.90
-19.44
-19.84
-18.76
-16.30
-12.95
-9.28
-5.67
-2.23
1.20
4.75
8.36
11.64
14.08
15.30
15.30
14.48
13.53
13.07
13.32
14.08
14.79
14.94
14.29
13.00
11.50
10.24
9.38
8.74
7.92
6.59
4.71
2.54
0.50
-1.15
-2.48
-3.93
-6.05
-9.18
-13.16
-17.34
-20.76
-22.64
-22.66
-21.09
-18.59
-15.81
-13.11
-10.43
-7.47
-3.95
0.08
4.24
7.93
10.64
12.19
12.81
13.00
13.32
14.04
15.06
15.93
16.17
15.51
14.10
12.45
11.13
10.41
10.14
9.81
8.89
7.12
4.71
2.16
-0.03
-1.63
-2.82
-4.08
-5.88
-8.43
-11.61
-14.96
-17.96
-20.21
-21.61
-22.21
-22.14
-21.41
-19.91
-17.48
-14.04
-9.78
-5.08
-0.48
3.58
6.86
9.39
11.36
13.01
14.45
15.64
16.39
16.55
16.09
15.18
14.15
13.31
12.77
12.38
11.80
10.71
9.00
6.83
4.56
2.55
0.94
-0.40
-1.73
-3.36
-5.42
-7.85
-10.45
-13.01
-15.40
-17.61
-19.69
-21.64
-23.29
-24.34
-24.42
-23.29
-20.95
-17.73
-14.09
-10.47
-7.08
-3.82
-0.41
3.32
7.27
11.02
13.94
15.55
15.76
14.88
13.56
12.43
11.89
11.94
12.32
12.68
12.84
12.85
12.89
13.08
13.31
13.22
12.39
10.62
8.04
5.16
2.64
0.94
0.08
-0.39
-1.22
-3.05
-6.08
-10.01
-14.08
-17.48
-19.63
-20.38
-19.99
-18.87
-17.35
-15.48
-13.10
-9.99
-6.11
-1.70
2.75
6.79
10.13
12.77
14.88
16.65
18.16
19.28
19.87
19.93
19.68
19.47
19.67
20.41
21.48
22.42
22.66
21.84
19.96
17.36
14.60
12.19
10.38
9.06
7.84
6.30
4.22
1.63
-1.16
-3.80
-6.14
-8.28
-10.56
-13.24
-16.32
-19.39
-21.82
-22.95
-22.52
-20.72
-18.17
-15.50
-13.07
-10.82
-8.36
-5.32
-1.67
2.23
5.75
8.36
9.91
10.68
11.18
11.83
12.69
13.47
13.68
13.04
11.65
9.97
8.61
7.99
8.15
8.68
8.97
8.53
7.20
5.17
2.91
0.83
-0.89
-2.39
-3.96
-5.83
-8.02
-10.33
-12.46
-14.18
-15.49
-16.56
-17.62
-18.73
-19.67
-20.01
-19.28
-17.21
-13.93
-9.90
-5.77
-2.09
0.89
3.27
5.33
7.32
9.25
10.93
12.03
12.39
12.09
11.47
10.92
10.68
10.70
10.70
10.35
9.53
8.39
7.28
6.55
6.34
6.49
6.58
6.19
5.04
3.18
0.86
-1.55
-3.72
-5.56
-7.19
-8.85
-10.77
-13.00
-15.36
-17.51
-19.05
-19.77
-19.68
-18.96
-17.81
-16.27
-14.24
-11.52
-8.05
-4.00
0.18
3.92
6.82
8.75
9.87
10.57
11.21
11.96
12.77
13.37
13.53
13.17
12.41
11.50
10.70
10.11
9.61
8.96
7.96
6.56
4.93
3.38
2.17
1.38
0.80
0.06
-1.20
-3.09
-5.44
-7.81
-9.83
-11.38
-12.71
-14.28
-16.41
-19.04
-21.62
-23.43
-23.86
-22.77
-20.49
-17.61
-14.60
-11.64
-8.59
-5.21
-1.40
2.63
6.40
9.35
11.16
11.78
11.56
11.05
10.82
11.17
12.04
13.00
13.56
13.43
12.66
11.65
10.88
10.59
10.65
10.58
9.90
8.42
6.34
4.14
2.33
1.07
0.13
-0.98
-2.68
-5.08
-7.91
-10.66
-12.84
-14.27
-15.10
-15.69
-16.31
-16.92
-17.16
-16.48
-14.52
-11.33
-7.41
-3.52
-0.32
1.93
3.41
4.57
5.84
7.36
8.90
10.07
10.57
10.42
9.86
9.30
8.99
8.96
9.00
8.84
8.36
7.65
6.92
6.42
6.23
6.21
6.07
5.45
4.17
2.25
-0.02
-2.26
-4.14
-5.57
-6.71
-7.91
-9.48
-11.45
-13.56
-15.35
-16.32
-16.23
-15.20
-13.59
-11.80
-10.06
-8.30
-6.26
-3.76
-0.82
2.17
4.69
6.35
7.09
7.23
7.32
7.76
8.65
9.70
10.45
10.54
9.97
8.98
7.96
7.19
6.71
6.35
5.87
5.09
4.04
2.87
1.76
0.85
0.12
-0.62
-1.62
-3.04
-4.89
-6.97
-8.95
-10.53
-11.61
-12.32
-12.95
-13.68
-14.42
-14.80
-14.30
-12.58
-9.68
-6.10
-2.52
0.50
2.76
4.44
5.93
7.49
9.09
10.43
11.14
11.08
10.43
9.63
9.13
9.17
9.60
10.02
9.95
9.16
7.72
6.00
4.48
3.54
3.23
3.26
3.13
2.37
0.76
-1.53
-4.02
-6.20
-7.81
-8.97
-10.14
-11.71
-13.81
-16.11
-17.98
-18.79
-18.26
-16.55
-14.20
-11.75
-9.53
-7.53
-5.53
-3.34
-1.01
1.17
2.75
3.41
3.15
2.32
1.45
1.01
1.13
1.60
1.94
1.78
1.02
-0.10
-1.16
-1.83
-2.05
-2.07
-2.30
-3.01
-4.19
-5.54
-6.64
-7.15
-7.12
-6.90
-7.04
-7.97
-9.73
-11.94
-13.94
-15.08
-15.03
-13.91
-12.14
-10.18
-8.27
-6.34
-4.14
-1.49
1.51
4.46
6.79
8.15
8.51
8.19
7.68
7.36
7.33
7.38
7.18
6.54
5.50
4.32
3.36
2.87
2.80
2.90
2.79
2.21
1.13
-0.25
-1.61
-2.72
-3.60
-4.50
-5.82
-7.86
-10.56
-13.54
-16.12
-17.68
-17.87
-16.77
-14.84
-12.60
-10.42
-8.36
-6.24
-3.80
-0.97
2.04
4.80
6.89
8.13
8.61
8.71
8.81
9.06
9.34
9.35
8.83
7.83
6.70
5.92
5.82
6.32
6.94
6.98
5.99
3.97
1.41
-1.01
-2.75
-3.76
-4.47
-5.55
-7.50
-10.37
-13.73
-16.83
-18.94
-19.68
-19.09
-17.52
-15.40
-12.98
-10.30
-7.25
-3.76
0.01
3.68
6.72
8.78
9.79
10.01
9.93
10.01
10.44
11.12
11.64
11.59
10.70
9.02
6.89
4.73
2.90
1.50
0.44
-0.46
-1.32
-2.13
-2.79
-3.25
-3.66
-4.36
-5.76
-7.99
-10.86
-13.76
-15.92
-16.75
-16.09
-14.26
-11.87
-9.51
-7.43
-5.54
-3.48
-0.90
2.29
5.89
9.46
12.53
14.76
16.03
16.42
16.14
15.47
14.59
13.64
12.71
11.88
11.25
10.95
10.98
11.18
11.16
10.48
8.84
6.30
3.25
0.30
-1.99
-3.41
-4.21
-4.87
-5.93
-7.66
-9.99
-12.54
-14.80
-16.37
-16.99
-16.63
-15.40
-13.44
-10.90
-7.91
-4.59
-1.09
2.39
5.59
8.33
10.49
12.05
13.11
13.78
14.12
14.10
13.63
12.67
11.35
9.96
8.89
8.42
8.58
9.08
9.43
9.18
8.17
6.58
4.85
3.43
2.54
2.07
1.63
0.82
-0.61
-2.61
-4.91
-7.24
-9.46
-11.65
-13.97
-16.45
-18.82
-20.53
-20.94
-19.62
-16.60
-12.35
-7.65
-3.21
0.63
3.96
7.14
10.50
14.06
17.44
20.11
21.63
22.00
21.62
21.13
21.04
21.43
21.93
21.95
21.08
19.33
17.16
15.22
13.99
13.48
13.23
12.56
11.04
8.66
5.84
3.23
1.30
0.19
-0.37
-0.88
-1.74
-3.10
-4.83
-6.66
-8.35
-9.85
-11.32
-12.96
-14.82
-16.74
-18.35
-19.21
-18.98
-17.61
-15.28
-12.37
-9.21
-6.06
-3.05
-0.25
2.30
4.51
6.27
7.47
8.09
8.26
8.22
8.31
8.75
9.53
10.39
10.90
10.70
9.68
8.08
6.34
4.82
3.64
2.58
1.26
-0.59
-2.92
-5.40
-7.53
-9.01
-9.84
-10.42
-11.22
-12.51
-14.15
-15.59
-16.19
-15.57
-13.78
-11.34
-8.89
-6.84
-5.19
-3.57
-1.50
1.20
4.31
7.25
9.39
10.39
10.34
9.68
9.02
8.77
9.06
9.62
10.06
10.02
9.43
8.49
7.57
7.01
6.89
7.02
7.02
6.54
5.47
3.93
2.24
0.69
-0.57
-1.65
-2.80
-4.26
-6.08
-8.09
-9.98
-11.47
-12.48
-13.15
-13.76
-14.45
-15.11
-15.32
-14.60
-12.63
-9.49
-5.65
-1.77
1.59
4.18
6.07
7.53
8.81
9.97
10.90
11.38
11.30
10.69
9.79
8.90
8.28
8.00
7.97
7.95
7.70
7.12
6.27
5.32
4.47
3.79
3.15
2.34
1.18
-0.37
-2.16
-3.94
-5.49
-6.76
-7.93
-9.34
-11.19
-13.44
-15.70
-17.36
-17.83
-16.85
-14.69
-11.94
-9.33
-7.29
-5.80
-4.40
-2.56
0.00
3.09
6.05
8.22
9.22
9.19
8.70
8.40
8.60
9.14
9.52
9.25
8.22
6.78
5.56
5.07
5.40
6.08
6.42
5.83
4.19
1.84
-0.56
-2.41
-3.47
-3.90
-4.22
-4.98
-6.47
-8.64
-11.01
-13.01
-14.17
-14.36
-13.83
-12.95
-12.02
-11.02
-9.65
-7.51
-4.48
-0.79
2.96
6.07
8.12
9.11
9.40
9.52
9.81
10.32
10.78
10.91
10.54
9.83
9.12
8.78
8.89
9.19
9.23
8.56
7.11
5.14
3.23
1.90
1.37
1.40
1.45
0.98
-0.31
-2.30
-4.61
-6.77
-8.58
-10.19
-11.97
-14.20
-16.77
-19.14
-20.47
-20.09
-17.82
-14.10
-9.81
-5.82
-2.63
-0.23
1.77
3.79
5.97
8.01
9.42
9.81
9.15
7.87
6.61
5.90
5.93
6.42
6.81
6.59
5.57
3.95
2.23
0.90
0.19
-0.05
-0.25
-0.86
-2.10
-3.91
-5.93
-7.74
-9.13
-10.20
-11.26
-12.68
-14.54
-16.62
-18.39
-19.35
-19.20
-18.06
-16.33
-14.42
-12.54
-10.62
-8.41
-5.75
-2.77
0.11
2.36
3.67
4.09
4.01
3.98
4.40
5.32
6.44
7.29
7.57
7.30
6.79
6.52
6.76
7.46
8.17
8.32
7.53
5.82
3.61
1.52
0.06
-0.68
-1.04
-1.63
-2.96
-5.18
-8.04
-10.92
-13.22
-14.52
-14.75
-14.14
-12.96
-11.41
-9.49
-7.10
-4.17
-0.91
2.21
4.58
5.75
5.67
4.75
3.69
3.15
3.39
4.22
5.05
5.35
4.88
3.80
2.59
1.72
1.38
1.38
1.28
0.71
-0.48
-2.08
-3.65
-4.86
-5.67
-6.42
-7.65
-9.76
-12.73
-16.04
-18.88
-20.46
-20.42
-18.95
-16.66
-14.19
-11.93
-9.85
-7.57
-4.72
-1.18
2.74
6.42
9.23
10.86
11.42
11.41
11.45
11.90
12.76
13.71
14.31
14.33
13.78
12.98
12.26
11.77
11.34
10.58
9.17
7.03
4.36
1.60
-0.85
-2.85
-4.61
-6.52
-8.89
-11.77
-14.88
-17.71
-19.78
-20.83
-20.94
-20.37
-19.35
-17.91
-15.88
-13.01
-9.22
-4.74
-0.16
3.82
6.72
8.47
9.41
10.10
10.98
12.18
13.44
14.28
14.37
13.66
12.39
11.01
9.86
9.06
8.37
7.38
5.74
3.32
0.34
-2.70
-5.30
-7.24
-8.68
-10.12
-12.10
-14.93
-18.49
-22.26
-25.60
-28.03
-29.33
-29.57
-28.83
-27.11
-24.25
-20.13
-14.81
-8.66
-2.29
3.65
8.74
12.89
16.21
18.97
21.33
23.27
24.66
25.33
25.29
24.73
23.98
23.38
23.09
23.00
22.75
21.95
20.32
17.90
14.99
12.06
9.53
7.48
5.72
3.78
1.30
-1.82
-5.27
-8.49
-10.92
-12.28
-12.67
-12.32
-11.40
-9.76
-6.98
-2.65
3.35
10.54
18.06
24.92
30.45
34.49
37.35
39.50
41.33
42.83
43.77
43.78
42.73
40.81
38.48
36.27
34.49
33.08
31.67
29.83
27.32
24.25
20.99
17.98
15.43
13.21
10.95
8.24
4.97
1.34
-2.19
-5.12
-7.22
-8.70
-10.07
-11.92
-14.58
-17.94
-21.44
-24.28
-25.74
-25.49
-23.65
-20.78
-17.48
-14.16
-10.94
-7.63
-4.03
-0.19
3.54
6.62
8.66
9.64
9.94
10.20
10.93
12.20
13.65
14.64
14.68
13.69
12.05
10.42
9.38
9.12
9.38
9.65
9.51
8.88
8.10
7.75
8.30
9.76
11.71
13.44
14.40
14.41
13.78
12.97
12.28
11.60
10.43
8.26
4.90
0.81
-3.14
-5.95
-6.99
-6.26
-4.29
-1.84
0.51
2.61
4.67
7.02
9.79
12.78
15.56
17.73
19.25
20.45
21.87
23.92
26.54
29.11
30.76
30.70
28.60
24.78
19.95
14.95
10.35
6.28
2.51
-1.33
-5.49
-9.95
-14.47
-18.77
-22.66
-26.24
-29.77
-33.59
-37.84
-42.41
-46.91
-50.77
-53.42
-54.50
-53.93
-51.92
-48.85
-45.12
-41.02
-36.76
-32.55
-28.75
-25.86
-24.37
-24.47
-25.73
-27.17
-27.48
-25.66
-21.42
-15.38
-8.80
-2.99
1.24
3.76
5.02
5.61
5.86
5.70
4.78
2.85
-0.03
-3.45
-6.82
-9.72
-12.09
-14.23
-16.55
-19.26
-22.22
-25.01
-27.20
-28.58
-29.28
-29.63
-29.89
-30.02
-29.72
-28.52
-26.08
-22.36
-17.64
-12.40
-7.21
-2.57
1.09
3.47
4.43
4.03
2.52
0.27
-2.35
-5.05
-7.61
-9.90
-11.70
-12.82
-13.19
-13.00
-12.64
-12.56
-13.03
-13.96
-14.94
-15.49
-15.38
-14.75
-14.05
-13.72
-14.00
-14.76
-15.62
-16.19
-16.33
-16.12
-15.81
-15.50
-15.03
-13.92
-11.61
-7.71
-2.31
3.98
10.24
15.66
19.83
22.89
25.33
27.64
29.93
31.86
32.84
32.43
30.64
27.97
25.21
22.96
21.42
20.25
18.84
16.75
13.93
10.81
8.00
5.95
4.65
3.69
2.48
0.61
-1.92
-4.79
-7.52
-9.85
-11.82
-13.77
-16.04
-18.81
-21.96
-25.22
-28.31
-31.16
-33.91
-36.74
-39.67
-42.35
-44.11
-44.16
-41.93
-37.35
-30.95
-23.63
-16.37
-9.87
-4.43
-0.01
3.62
6.59
8.91
10.47
11.22
11.37
11.35
11.71
12.85
14.85
17.34
19.66
21.16
21.52
20.82
19.54
18.29
17.45
17.00
16.55
15.56
13.73
11.16
8.31
5.76
3.86
2.50
1.17
-0.77
-3.69
-7.41
-11.28
-14.38
-15.97
-15.72
-13.85
-10.90
-7.41
-3.76
-0.01
3.95
8.16
12.42
16.27
19.13
20.66
20.87
20.25
19.50
19.19
19.50
20.13
20.49
20.09
18.84
17.04
15.24
13.88
13.01
12.34
11.42
9.93
7.90
5.64
3.56
1.93
0.67
-0.60
-2.36
-4.89
-8.15
-11.74
-15.13
-17.89
-19.92
-21.39
-22.62
-23.73
-24.53
-24.54
-23.23
-20.31
-15.96
-10.78
-5.54
-0.88
2.87
5.78
8.13
10.18
12.00
13.44
14.24
14.33
13.86
13.26
12.99
13.30
14.07
14.84
15.09
14.48
13.09
11.31
9.68
8.52
7.78
7.05
5.78
3.65
0.67
-2.73
-6.00
-8.75
-10.96
-12.98
-15.26
-18.03
-21.05
-23.66
-25.00
-24.43
-21.82
-17.66
-12.75
-7.87
-3.44
0.56
4.41
8.33
12.21
15.64
18.08
19.28
19.39
18.98
18.71
18.97
19.64
20.17
19.95
18.65
16.46
14.01
12.01
10.87
10.47
10.24
9.47
7.70
4.93
1.61
-1.65
-4.41
-6.60
-8.59
-10.83
-13.62
-16.87
-20.09
-22.60
-23.80
-23.41
-21.52
-18.47
-14.61
-10.14
-5.08
0.59
6.69
12.72
17.95
21.70
23.64
23.95
23.32
22.55
22.23
22.41
22.69
22.43
21.25
19.19
16.75
14.60
13.20
12.56
12.29
11.85
10.86
9.28
7.39
5.56
3.99
2.62
1.16
-0.70
-3.15
-6.09
-9.24
-12.14
-14.39
-15.72
-16.06
-15.51
-14.22
-12.29
-9.69
-6.30
-2.15
2.50
7.09
10.94
13.55
14.79
14.99
14.77
14.66
14.90
15.34
15.64
15.53
15.00
14.33
13.87
13.80
13.94
13.81
12.95
11.16
8.63
5.90
3.54
1.81
0.56
-0.71
-2.50
-5.06
-8.17
-11.30
-13.83
-15.42
-16.13
-16.34
-16.48
-16.72
-16.91
-16.60
-15.36
-13.01
-9.80
-6.33
-3.24
-0.91
0.65
1.75
2.80
4.01
5.31
6.40
7.04
7.17
7.02
6.91
7.13
7.64
8.15
8.21
7.56
6.26
4.70
3.43
2.85
2.97
3.40
3.52
2.84
1.17
-1.27
-4.03
-6.65
-8.88
-10.76
-12.48
-14.13
-15.57
-16.42
-16.21
-14.63
-11.74
-7.99
-4.07
-0.60
2.08
3.97
5.35
6.52
7.59
8.43
8.78
8.51
7.73
6.81
6.21
6.20
6.76
7.48
7.84
7.42
6.19
4.44
2.64
1.23
0.34
-0.21
-0.77
-1.69
-3.07
-4.81
-6.59
-8.12
-9.31
-10.27
-11.29
-12.57
-14.10
-15.60
-16.57
-16.56
-15.35
-13.09
-10.19
-7.14
-4.26
-1.61
0.88
3.30
5.56
7.35
8.33
8.35
7.59
6.50
5.63
5.39
5.80
6.55
7.11
7.12
6.48
5.43
4.40
3.72
3.46
3.31
2.82
1.60
-0.45
-3.14
-6.10
-8.97
-11.58
-13.89
-15.91
-17.57
-18.76
-19.32
-19.18
-18.38
-17.06
-15.36
-13.35
-10.97
-8.08
-4.58
-0.39
4.35
9.25
13.67
16.91
18.45
18.22
16.63
14.47
12.51
11.22
10.51
9.93
8.98
7.41
5.36
3.19
1.24
-0.47
-2.19
-4.28
-6.88
-9.78
-12.52
-14.58
-15.73
-16.19
-16.53
-17.42
-19.26
-21.96
-24.93
-27.33
-28.38
-27.73
-25.57
-22.49
-19.15
-16.00
-13.07
-10.08
-6.68
-2.78
1.33
5.07
7.90
9.61
10.37
10.67
11.02
11.68
12.55
13.30
13.64
13.56
13.36
13.43
14.00
14.87
15.49
15.21
13.70
11.12
8.13
5.51
3.79
2.90
2.31
1.27
-0.71
-3.62
-6.95
-9.95
-11.97
-12.72
-12.31
-11.08
-9.39
-7.45
-5.26
-2.75
0.07
2.95
5.44
7.00
7.38
6.71
5.53
4.60
4.48
5.22
6.35
7.10
6.80
5.26
2.84
0.27
-1.74
-2.87
-3.31
-3.63
-4.40
-5.93
-8.12
-10.54
-12.74
-14.52
-16.04
-17.62
-19.43
-21.24
-22.44
-22.28
-20.36
-16.86
-12.54
-8.30
-4.79
-2.05
0.40
3.18
6.59
10.43
14.02
16.63
17.86
17.80
16.95
15.93
15.16
14.72
14.37
13.77
12.71
11.21
9.52
7.98
6.84
6.06
5.38
4.37
2.71
0.35
-2.48
-5.38
-8.00
-10.27
-12.36
-14.49
-16.69
-18.66
-19.82
-19.56
-17.56
-14.01
-9.55
-5.00
-1.05
1.99
4.22
6.05
7.89
9.93
12.08
14.01
15.39
16.15
16.51
16.97
17.91
19.43
21.17
22.47
22.82
22.05
20.50
18.78
17.39
16.41
15.43
13.89
11.42
8.10
4.38
0.85
-2.15
-4.64
-6.93
-9.31
-11.79
-13.98
-15.20
-14.83
-12.57
-8.67
-3.83
1.05
5.23
8.42
10.77
12.71
14.66
16.75
18.75
20.26
20.99
20.99
20.60
20.34
20.54
21.14
21.67
21.48
20.15
17.65
14.46
11.35
8.95
7.45
6.53
5.54
3.87
1.30
-1.93
-5.22
-8.02
-10.15
-11.84
-13.52
-15.46
-17.49
-18.94
-19.03
-17.29
-13.86
-9.49
-5.12
-1.44
1.41
3.80
6.25
9.00
11.84
14.23
15.63
15.84
15.14
14.16
13.51
13.53
14.12
14.80
15.05
14.51
13.20
11.41
9.58
8.00
6.66
5.29
3.54
1.27
-1.40
-4.08
-6.39
-8.15
-9.59
-11.17
-13.35
-16.28
-19.68
-22.93
-25.36
-26.57
-26.59
-25.80
-24.62
-23.25
-21.55
-19.12
-15.65
-11.13
-5.98
-0.89
3.52
6.96
9.59
11.81
14.03
16.33
18.45
19.89
20.25
19.48
17.93
16.17
14.78
14.01
13.67
13.30
12.41
10.78
8.53
6.02
3.68
1.72
0.06
-1.62
-3.69
-6.37
-9.59
-13.01
-16.10
-18.40
-19.66
-19.91
-19.38
-18.33
-16.89
-14.96
-12.36
-8.99
-5.02
-0.90
2.84
5.84
8.04
9.71
11.23
12.81
14.40
15.72
16.47
16.47
15.82
14.78
13.72
12.82
12.07
11.26
10.14
8.62
6.79
4.96
3.44
2.36
1.61
0.83
-0.29
-1.87
-3.77
-5.67
-7.28
-8.61
-9.91
-11.55
-13.68
-16.06
-18.06
-18.95
-18.17
-15.72
-12.08
-8.03
-4.24
-0.99
1.82
4.56
7.55
10.79
13.98
16.70
18.65
19.81
20.38
20.58
20.51
20.02
18.85
16.81
14.01
10.88
7.99
5.83
4.57
3.96
3.47
2.48
0.55
-2.41
-6.11
-10.10
-13.92
-17.36
-20.50
-23.59
-26.79
-30.01
-32.80
-34.58
-34.93
-33.91
-32.06
-30.21
-28.95
-28.41
-28.13
-27.35
-25.47
-22.40
-18.64
-15.00
-12.16
-10.38
-9.42
-8.71
-7.77
-6.45
-5.00
-3.90
-3.53
-3.91
-4.71
-5.41
-5.62
-5.28
-4.62
-4.05
-3.78
-3.75
-3.62
-3.02
-1.79
-0.18
1.28
1.95
1.42
-0.25
-2.59
-4.85
-6.34
-6.64
-5.75
-4.01
-1.87
0.35
2.58
4.99
7.74
10.82
13.86
16.29
17.59
17.54
16.42
14.80
13.30
12.24
11.52
10.73
9.47
7.64
5.49
3.52
2.14
1.44
1.08
0.51
-0.69
-2.61
-4.93
-7.13
-8.81
-9.91
-10.78
-11.96
-13.84
-16.46
-19.37
-21.81
-23.12
-22.97
-21.50
-19.22
-16.64
-14.06
-11.39
-8.29
-4.55
-0.30
3.89
7.25
9.26
9.91
9.80
9.82
10.69
12.57
15.03
17.29
18.70
19.08
18.73
18.23
17.98
17.97
17.76
16.75
14.58
11.38
7.74
4.44
2.06
0.73
0.04
-0.69
-2.07
-4.39
-7.47
-10.78
-13.70
-15.74
-16.68
-16.58
-15.61
-13.96
-11.71
-8.83
-5.28
-1.14
3.29
7.56
11.17
13.85
15.62
16.83
17.90
19.09
20.33
21.29
21.57
20.99
19.71
18.12
16.63
15.42
14.37
13.19
11.66
9.74
7.63
5.65
3.99
2.59
1.21
-0.48
-2.66
-5.27
-8.08
-10.76
-13.14
-15.19
-17.06
-18.84
-20.39
-21.39
-21.38
-20.02
-17.29
-13.54
-9.34
-5.28
-1.68
1.43
4.24
6.97
9.64
12.06
13.83
14.66
14.53
13.75
12.86
12.40
12.62
13.34
14.03
14.16
13.44
11.97
10.16
8.46
7.11
6.05
4.96
3.56
1.73
-0.40
-2.51
-4.30
-5.68
-6.78
-7.96
-9.57
-11.74
-14.25
-16.59
-18.08
-18.19
-16.79
-14.17
-10.89
-7.54
-4.46
-1.63
1.15
4.10
7.16
10.05
12.34
13.73
14.19
14.04
13.76
13.70
13.97
14.29
14.30
13.74
12.64
11.36
10.33
9.81
9.65
9.40
8.57
6.94
4.71
2.40
0.58
-0.55
-1.25
-2.16
-3.88
-6.64
-10.11
-13.54
-16.11
-17.27
-16.95
-15.49
-13.42
-11.17
-8.94
-6.72
-4.45
-2.17
-0.07
1.57
2.58
3.00
3.15
3.41
4.12
5.28
6.65
7.78
8.34
8.26
7.82
7.47
7.58
8.22
9.07
9.53
9.06
7.44
4.88
1.98
-0.58
-2.33
-3.23
-3.67
-4.16
-5.06
-6.44
-8.02
-9.45
-10.60
-11.61
-12.83
-14.42
-16.19
-17.55
-17.75
-16.30
-13.26
-9.20
-4.97
-1.24
1.70
4.01
6.01
7.91
9.63
10.91
11.48
11.26
10.48
9.55
8.88
8.71
8.99
9.48
9.84
9.83
9.37
8.57
7.68
6.88
6.27
5.70
4.91
3.68
1.94
-0.14
-2.24
-4.02
-5.37
-6.40
-7.46
-8.86
-10.69
-12.70
-14.35
-15.08
-14.59
-12.97
-10.67
-8.25
-6.07
-4.18
-2.38
-0.43
1.63
3.44
4.49
4.48
3.55
2.27
1.39
1.39
2.27
3.49
4.36
4.39
3.58
2.34
1.29
0.85
1.01
1.41
1.50
0.90
-0.42
-2.15
-3.83
-5.09
-5.82
-6.26
-6.81
-7.78
-9.19
-10.78
-12.06
-12.57
-12.10
-10.76
-8.87
-6.79
-4.76
-2.76
-0.67
1.65
4.11
6.39
8.08
8.83
8.66
7.93
7.24
7.08
7.58
8.43
9.08
9.09
8.35
7.16
6.00
5.20
4.68
4.06
2.88
0.94
-1.51
-3.90
-5.63
-6.44
-6.57
-6.64
-7.29
-8.84
-11.07
-13.37
-15.03
-15.54
-14.84
-13.28
-11.39
-9.54
-7.87
-6.20
-4.26
-1.87
0.83
3.47
5.56
6.80
7.19
7.11
7.06
7.40
8.13
8.89
9.19
8.69
7.45
5.90
4.64
4.06
4.18
4.62
4.86
4.55
3.69
2.62
1.80
1.50
1.61
1.70
1.27
-0.02
-2.15
-4.75
-7.25
-9.17
-10.24
-10.43
-9.88
-8.75
-7.13
-5.01
-2.40
0.61
3.69
6.32
7.94
8.19
7.13
5.30
3.51
2.46
2.36
2.89
3.38
3.24
2.25
0.70
-0.88
-2.09
-2.86
-3.51
-4.50
-6.05
-8.03
-10.02
-11.56
-12.50
-13.09
-13.85
-15.28
-17.52
-20.18
-22.50
-23.70
-23.35
-21.55
-18.87
-16.02
-13.46
-11.27
-9.12
-6.63
-3.59
-0.19
3.05
5.53
6.87
7.06
6.53
5.90
5.64
5.86
6.27
6.41
5.94
4.84
3.51
2.46
2.03
2.13
2.27
1.84
0.47
-1.77
-4.39
-6.77
-8.51
-9.65
-10.60
-11.83
-13.54
-15.48
-16.99
-17.38
-16.27
-13.81
-10.59
-7.29
-4.36
-1.77
0.82
3.77
7.19
10.74
13.82
15.88
16.72
16.56
15.93
15.43
15.36
15.70
16.12
16.23
15.82
14.97
13.94
13.00
12.25
11.53
10.50
8.87
6.62
4.03
1.58
-0.39
-1.81
-3.00
-4.43
-6.38
-8.73
-10.99
-12.48
-12.68
-11.51
-9.33
-6.71
-4.18
-1.95
0.08
2.14
4.36
6.58
8.43
9.46
9.49
8.68
7.49
6.50
6.08
6.23
6.60
6.69
6.19
5.09
3.67
2.30
1.17
0.20
-0.96
-2.67
-5.10
-8.08
-11.23
-14.06
-16.24
-17.68
-18.54
-19.04
-19.28
-19.14
-18.37
-16.68
-13.97
-10.42
-6.46
-2.56
0.97
4.10
6.95
9.72
12.46
14.96
16.84
17.76
17.61
16.55
15.04
13.59
12.55
11.99
11.63
11.04
9.89
8.06
5.70
3.20
0.89
-1.09
-2.87
-4.79
-7.17
-10.11
-13.41
-16.61
-19.21
-20.93
-21.78
-22.02
-21.89
-21.40
-20.30
-18.19
-14.85
-10.45
-5.60
-1.19
2.08
3.90
4.49
4.47
4.48
4.91
5.81
6.90
7.85
8.44
8.62
8.51
8.19
7.63
6.69
5.24
3.30
1.18
-0.69
-1.87
-2.20
-1.87
-1.38
-1.30
-2.04
-3.67
-5.99
-8.62
-11.14
-13.26
-14.79
-15.61
-15.58
-14.57
-12.51
-9.44
-5.61
-1.44
2.56
5.92
8.38
9.95
10.89
11.62
12.49
13.63
14.87
15.84
16.20
15.83
14.93
13.90
13.11
12.65
12.32
11.70
10.49
8.71
6.72
5.03
4.03
3.67
3.50
2.86
1.26
-1.37
-4.65
-7.91
-10.53
-12.19
-12.92
-12.99
-12.65
-11.97
-10.78
-8.81
-5.96
-2.37
1.50
5.10
8.06
10.26
11.92
13.37
14.90
16.53
18.02
19.01
19.22
18.66
17.63
16.61
16.01
15.94
16.13
16.11
15.39
13.75
11.38
8.72
6.29
4.33
2.80
1.39
-0.19
-2.07
-4.13
-6.11
-7.83
-9.30
-10.67
-12.07
-13.42
-14.37
-14.43
-13.20
-10.64
-7.08
-3.16
0.49
3.49
5.84
7.76
9.58
11.44
13.22
14.60
15.25
15.01
14.07
12.82
11.76
11.20
11.14
11.30
11.30
10.87
10.03
9.04
8.27
7.89
7.75
7.49
6.71
5.28
3.43
1.57
0.11
-0.84
-1.58
-2.60
-4.32
-6.79
-9.58
-11.93
-13.10
-12.67
-10.76
-7.93
-4.88
-2.13
0.15
2.16
4.22
6.47
8.70
10.50
11.42
11.29
10.30
8.96
7.82
7.25
7.24
7.50
7.63
7.34
6.54
5.42
4.26
3.22
2.33
1.42
0.31
-1.07
-2.62
-4.09
-5.25
-6.02
-6.58
-7.30
-8.47
-10.22
-12.35
-14.45
-15.97
-16.59
-16.22
-15.09
-13.54
-11.85
-10.11
-8.22
-6.01
-3.49
-0.88
1.37
2.86
3.41
3.16
2.57
2.11
2.08
2.42
2.77
2.76
2.20
1.26
0.34
-0.14
-0.02
0.47
0.78
0.41
-0.86
-2.85
-4.99
-6.73
-7.79
-8.34
-8.91
-10.06
-12.05
-14.69
-17.37
-19.39
-20.27
-19.95
-18.74
-17.06
-15.18
-13.16
-10.81
-7.96
-4.64
-1.11
2.10
4.51
5.87
6.23
5.92
5.41
5.02
4.84
4.72
4.44
3.84
3.00
2.18
1.69
1.67
1.94
2.08
1.64
0.42
-1.44
-3.48
-5.21
-6.39
-7.21
-8.14
-9.59
-11.70
-14.10
-16.17
-17.27
-17.15
-15.96
-14.20
-12.38
-10.79
-9.40
-7.88
-5.89
-3.29
-0.29
2.62
4.88
6.15
6.49
6.30
6.16
6.40
6.97
7.46
7.43
6.76
5.68
4.76
4.39
4.60
4.91
4.70
3.55
1.56
-0.71
-2.59
-3.72
-4.25
-4.77
-5.93
-8.01
-10.71
-13.28
-14.87
-14.93
-13.47
-11.02
-8.29
-5.78
-3.61
-1.47
1.06
4.24
7.90
11.51
14.39
16.06
16.46
15.92
14.99
14.11
13.45
12.81
11.84
10.27
8.13
5.75
3.59
2.04
1.11
0.48
-0.39
-1.95
-4.31
-7.22
-10.21
-12.83
-14.96
-16.77
-18.65
-20.83
-23.18
-25.24
-26.30
-25.82
-23.65
-20.12
-15.88
-11.58
-7.63
-4.05
-0.54
3.19
7.19
11.17
14.59
16.96
18.12
18.33
18.14
18.07
18.30
18.62
18.56
17.71
16.02
13.79
11.48
9.50
7.89
6.41
4.66
2.40
-0.28
-3.04
-5.38
-7.05
-8.13
-9.07
-10.49
-12.78
-15.92
-19.39
-22.36
-24.04
-24.06
-22.57
-20.16
-17.40
-14.56
-11.46
-7.69
-3.00
2.42
7.88
12.49
15.59
17.06
17.33
17.15
17.15
17.54
18.13
18.47
18.25
17.42
16.27
15.18
14.43
13.95
13.37
12.24
10.30
7.66
4.80
2.32
0.63
-0.32
-1.04
-2.25
-4.47
-7.78
-11.71
-15.47
-18.33
-19.86
-20.09
-19.34
-17.95
-16.09
-13.65
-10.46
-6.44
-1.87
2.77
6.91
10.21
12.70
14.70
16.58
18.54
20.45
21.94
22.65
22.45
21.53
20.33
19.26
18.53
18.01
17.36
16.25
14.57
12.50
10.37
8.52
7.00
5.59
3.90
1.63
-1.23
-4.34
-7.16
-9.33
-10.83
-12.05
-13.58
-15.83
-18.73
-21.75
-24.08
-25.01
-24.21
-21.88
-18.55
-14.81
-11.08
-7.42
-3.71
0.21
4.27
8.14
11.34
13.46
14.42
14.52
14.30
14.31
14.74
15.42
15.85
15.59
14.49
12.87
11.31
10.36
10.16
10.41
10.45
9.68
7.86
5.22
2.34
-0.17
-1.99
-3.22
-4.30
-5.67
-7.57
-9.92
-12.37
-14.58
-16.37
-17.73
-18.80
-19.59
-19.93
-19.49
-17.92
-15.08
-11.19
-6.78
-2.54
0.98
3.55
5.29
6.58
7.77
8.99
10.08
10.69
10.54
9.64
8.34
7.17
6.55
6.54
6.77
6.64
5.67
3.77
1.28
-1.19
-3.12
-4.35
-5.10
-5.79
-6.78
-8.16
-9.77
-11.31
-12.59
-13.66
-14.73
-16.04
-17.52
-18.81
-19.28
-18.36
-15.79
-11.84
-7.18
-2.64
1.16
4.03
6.17
8.02
9.84
11.65
13.13
13.90
13.77
12.92
11.83
11.04
10.86
11.25
11.76
11.85
11.15
9.68
7.76
5.86
4.34
3.24
2.25
0.96
-0.87
-3.21
-5.74
-7.99
-9.68
-10.85
-11.88
-13.26
-15.27
-17.76
-20.12
-21.49
-21.20
-19.09
-15.59
-11.53
-7.65
-4.34
-1.49
1.28
4.24
7.32
10.09
11.98
12.67
12.23
11.14
10.06
9.48
9.52
9.92
10.15
9.76
8.59
6.82
4.92
3.37
2.37
1.77
1.13
0.03
-1.67
-3.76
-5.82
-7.48
-8.78
-10.08
-11.87
-14.40
-17.42
-20.27
-22.06
-22.17
-20.43
-17.22
-13.28
-9.33
-5.83
-2.85
-0.16
2.53
5.26
7.82
9.78
10.83
10.97
10.58
10.22
10.34
10.95
11.68
11.96
11.44
10.16
8.57
7.17
6.28
5.79
5.30
4.37
2.77
0.63
-1.72
-3.89
-5.65
-7.04
-8.36
-10.01
-12.28
-15.15
-18.21
-20.84
-22.46
-22.83
-22.11
-20.77
-19.21
-17.48
-15.28
-12.18
-7.99
-3.03
1.97
6.17
9.02
10.50
11.01
11.18
11.48
12.03
12.65
13.08
13.13
12.90
12.65
12.71
13.12
13.61
13.68
12.85
10.96
8.31
5.55
3.33
2.02
1.48
1.22
0.62
-0.70
-2.76
-5.30
-7.93
-10.32
-12.36
-14.08
-15.54
-16.68
-17.24
-16.85
-15.21
-12.25
-8.25
-3.78
0.53
4.23
7.19
9.67
12.01
14.42
16.79
18.72
19.75
19.69
18.71
17.33
16.20
15.73
15.94
16.46
16.78
16.51
15.55
14.09
12.44
10.81
9.14
7.18
4.68
1.63
-1.71
-4.93
-7.62
-9.70
-11.31
-12.85
-14.58
-16.57
-18.63
-20.38
-21.44
-21.56
-20.71
-19.01
-16.66
-13.84
-10.63
-7.06
-3.12
1.07
5.18
8.77
11.38
12.85
13.33
13.32
13.39
13.92
14.92
16.05
16.88
17.12
16.77
16.15
15.62
15.37
15.24
14.83
13.71
11.71
9.04
6.23
3.88
2.28
1.33
0.53
-0.66
-2.52
-4.95
-7.56
-9.89
-11.75
-13.23
-14.56
-15.88
-17.00
-17.52
-16.96
-15.08
-12.00
-8.22
-4.34
-0.77
2.35
5.13
7.75
10.22
12.39
13.94
14.62
14.44
13.61
12.52
11.56
10.98
10.83
10.97
11.12
11.01
10.48
9.53
8.33
7.13
6.08
5.16
4.17
2.88
1.18
-0.79
-2.70
-4.21
-5.22
-5.88
-6.62
-7.80
-9.54
-11.64
-13.61
-15.00
-15.57
-15.37
-14.65
-13.62
-12.29
-10.48
-7.98
-4.69
-0.86
3.02
6.32
8.62
9.86
10.31
10.48
10.80
11.43
12.17
12.60
12.39
11.40
9.83
8.11
6.63
5.53
4.65
3.61
2.09
0.09
-2.11
-4.02
-5.26
-5.81
-6.04
-6.55
-7.80
-9.86
-12.29
-14.41
-15.73
-16.26
-16.53
-17.30
-19.01
-21.44
-23.77
-24.93
-24.16
-21.41
-17.32
-12.92
-9.06
-6.11
-3.91
-2.00
-0.06
1.90
3.51
4.33
4.15
3.22
2.19
1.77
2.37
3.86
5.61
6.88
7.18
6.58
5.55
4.72
4.42
4.55
4.68
4.31
3.25
1.68
0.07
-1.16
-1.84
-2.19
-2.69
-3.78
-5.62
-7.94
-10.15
-11.54
-11.66
-10.47
-8.38
-5.91
-3.50
-1.22
1.11
3.77
6.83
9.99
12.71
14.47
15.06
14.68
13.86
13.10
12.63
12.29
11.66
10.37
8.35
5.89
3.55
1.84
0.93
0.58
0.24
-0.59
-2.16
-4.31
-6.55
-8.37
-9.51
-10.05
-10.40
-11.02
-12.20
-13.88
-15.72
-17.29
-18.34
-18.82
-18.88
-18.60
-17.94
-16.67
-14.52
-11.38
-7.45
-3.25
0.61
3.60
5.49
6.33
6.43
6.11
5.61
4.98
4.16
3.05
1.64
0.05
-1.48
-2.76
-3.74
-4.60
-5.62
-7.05
-8.89
-10.84
-12.38
-12.99
-12.51
-11.18
-9.68
-8.75
-8.87
-10.08
-11.94
-13.75
-14.90
-15.08
-14.34
-12.91
-11.02
-8.73
-5.92
-2.45
1.61
5.97
10.09
13.47
15.83
17.20
17.96
18.53
19.23
20.06
20.77
21.09
20.87
20.23
19.42
18.70
18.06
17.25
15.92
13.86
11.24
8.53
6.35
5.05
4.52
4.20
3.27
1.18
-2.16
-6.25
-10.29
-13.51
-15.57
-16.61
-17.04
-17.22
-17.14
-16.49
-14.78
-11.78
-7.69
-3.09
1.22
4.68
7.11
8.74
10.02
11.33
12.77
14.13
15.03
15.20
14.60
13.52
12.42
11.73
11.57
11.74
11.79
11.31
10.15
8.46
6.59
4.80
3.09
1.20
-1.20
-4.30
-8.04
-12.11
-16.07
-19.53
-22.25
-24.13
-25.21
-25.56
-25.17
-23.95
-21.73
-18.36
-13.95
-8.90
-3.89
0.38
3.52
5.63
7.25
8.98
11.12
13.46
15.39
16.39
16.28
15.43
14.48
13.98
13.98
14.04
13.51
11.94
9.35
6.28
3.43
1.34
0.07
-0.76
-1.77
-3.45
-5.93
-8.93
-11.95
-14.54
-16.50
-17.91
-18.90
-19.52
-19.55
-18.59
-16.34
-12.75
-8.20
-3.37
1.08
4.73
7.56
9.88
12.07
14.37
16.68
18.67
19.96
20.36
19.98
19.20
18.51
18.23
18.37
18.65
18.64
18.01
16.69
14.96
13.22
11.76
10.60
9.46
7.95
5.82
3.15
0.31
-2.27
-4.35
-6.06
-7.80
-9.96
-12.61
-15.40
-17.65
-18.67
-18.07
-16.00
-12.98
-9.63
-6.39
-3.32
-0.24
3.07
6.57
9.89
12.42
13.72
13.67
12.59
11.10
9.79
8.89
8.24
7.40
6.02
4.06
1.88
0.01
-1.11
-1.44
-1.34
-1.42
-2.17
-3.72
-5.81
-7.96
-9.73
-10.95
-11.78
-12.53
-13.46
-14.60
-15.80
-16.77
-17.24
-17.12
-16.40
-15.23
-13.68
-11.74
-9.37
-6.46
-3.04
0.73
4.51
7.84
10.38
12.02
12.90
13.34
13.67
14.02
14.29
14.23
13.65
12.60
11.36
10.34
9.83
9.80
9.92
9.71
8.82
7.21
5.20
3.26
1.78
0.81
0.05
-1.02
-2.81
-5.41
-8.55
-11.70
-14.36
-16.32
-17.63
-18.55
-19.23
-19.59
-19.31
-17.96
-15.27
-11.33
-6.62
-1.83
2.42
5.74
8.15
9.92
11.38
12.74
13.93
14.74
14.99
14.72
14.20
13.82
13.83
14.14
14.35
13.97
12.68
10.58
8.11
5.85
4.20
3.19
2.48
1.55
0.03
-2.11
-4.55
-6.85
-8.65
-9.98
-11.16
-12.63
-14.54
-16.57
-17.95
-17.72
-15.26
-10.57
-4.41
2.02
7.57
11.51
13.73
14.59
14.66
14.36
13.82
12.95
11.67
10.03
8.33
6.99
6.36
6.52
7.20
7.89
8.10
7.54
6.31
4.80
3.49
2.64
2.20
1.81
1.08
-0.20
-1.89
-3.62
-5.03
-6.04
-6.90
-8.09
-10.01
-12.74
-15.95
-19.02
-21.39
-22.73
-23.08
-22.71
-21.89
-20.69
-18.96
-16.46
-13.04
-8.87
-4.47
-0.53
2.36
4.00
4.64
4.88
5.27
6.08
7.13
7.95
8.11
7.50
6.47
5.59
5.35
5.82
6.65
7.24
7.11
6.19
4.82
3.54
2.75
2.42
2.13
1.29
-0.54
-3.33
-6.65
-9.83
-12.38
-14.19
-15.56
-16.83
-18.10
-19.03
-19.02
-17.52
-14.46
-10.29
-5.83
-1.83
1.34
3.80
5.93
8.14
10.46
12.61
14.13
14.73
14.51
13.97
13.71
14.15
15.27
16.58
17.43
17.30
16.10
14.19
12.13
10.41
9.24
8.46
7.70
6.64
5.14
3.29
1.30
-0.61
-2.38
-4.14
-6.16
-8.65
-11.55
-14.52
-16.92
-18.14
-17.84
-16.16
-13.62
-10.81
-8.12
-5.52
-2.66
0.80
4.90
9.21
12.94
15.34
16.02
15.17
13.46
11.71
10.51
10.00
9.91
9.83
9.53
9.02
8.58
8.41
8.45
8.33
7.52
5.76
3.20
0.45
-1.77
-3.01
-3.33
-3.31
-3.71
-5.05
-7.37
-10.30
-13.21
-15.54
-17.07
-17.80
-17.92
-17.52
-16.54
-14.82
-12.22
-8.81
-4.95
-1.23
1.80
3.81
4.88
5.43
6.02
7.01
8.42
9.88
10.86
11.01
10.36
9.29
8.38
8.02
8.21
8.56
8.49
7.60
5.84
3.58
1.36
-0.32
-1.33
-1.88
-2.39
-3.24
-4.57
-6.26
-8.04
-9.61
-10.88
-11.89
-12.80
-13.65
-14.32
-14.49
-13.80
-12.05
-9.35
-6.09
-2.86
-0.07
2.18
4.10
6.07
8.35
10.84
13.12
14.64
15.10
14.57
13.52
12.57
12.12
12.20
12.44
12.28
11.36
9.68
7.59
5.64
4.25
3.52
3.17
2.75
1.85
0.37
-1.53
-3.48
-5.23
-6.78
-8.41
-10.46
-13.09
-16.04
-18.64
-20.10
-19.85
-17.83
-14.54
-10.83
-7.46
-4.86
-2.97
-1.45
0.10
1.81
3.50
4.84
5.53
5.55
5.14
4.68
4.48
4.62
4.86
4.84
4.28
3.19
1.82
0.60
-0.19
-0.56
-0.82
-1.41
-2.59
-4.32
-6.24
-7.88
-8.98
-9.63
-10.31
-11.60
-13.88
-17.05
-20.51
-23.33
-24.64
-23.98
-21.45
-17.62
-13.23
-8.85
-4.70
-0.72
3.20
6.94
10.11
12.22
13.00
12.60
11.60
10.76
10.60
11.19
12.09
12.66
12.40
11.25
9.59
8.03
7.03
6.62
6.42
5.85
4.48
2.31
-0.24
-2.59
-4.36
-5.65
-6.92
-8.77
-11.43
-14.60
-17.45
-19.05
-18.80
-16.79
-13.69
-10.40
-7.56
-5.24
-3.01
-0.29
3.15
6.97
10.40
12.60
13.19
12.42
11.05
9.96
9.65
10.09
10.76
11.07
10.63
9.47
7.95
6.50
5.37
4.48
3.53
2.19
0.32
-1.88
-4.02
-5.73
-6.91
-7.82
-9.00
-10.88
-13.48
-16.33
-18.58
-19.41
-18.44
-15.86
-12.35
-8.71
-5.43
-2.63
-0.05
2.65
5.62
8.65
11.26
12.96
13.48
12.95
11.89
10.91
10.51
10.79
11.42
11.83
11.55
10.43
8.75
7.06
5.76
4.91
4.10
2.81
0.74
-1.97
-4.74
-6.97
-8.40
-9.34
-10.42
-12.19
-14.68
-17.32
-19.15
-19.36
-17.68
-14.52
-10.71
-7.08
-4.06
-1.60
0.66
3.04
5.61
8.06
9.95
10.91
10.92
10.21
9.25
8.42
7.93
7.74
7.64
7.36
6.78
5.88
4.83
3.85
3.05
2.29
1.26
-0.43
-2.97
-6.18
-9.59
-12.66
-15.11
-17.04
-18.87
-20.92
-23.14
-24.98
-25.64
-24.49
-21.46
-17.09
-12.27
-7.79
-3.99
-0.73
2.44
5.83
9.36
12.53
14.71
15.50
15.03
13.88
12.79
12.33
12.55
13.08
13.33
12.88
11.67
9.96
8.17
6.62
5.35
4.16
2.67
0.64
-1.99
-5.00
-7.99
-10.59
-12.64
-14.28
-15.84
-17.55
-19.36
-20.78
-21.12
-19.76
-16.57
-12.01
-6.89
-2.01
2.21
5.83
9.18
12.57
15.94
18.90
20.93
21.76
21.51
20.67
19.85
19.43
19.36
19.18
18.34
16.51
13.84
10.84
8.22
6.42
5.42
4.77
3.79
2.06
-0.43
-3.31
-6.06
-8.41
-10.49
-12.73
-15.60
-19.16
-22.97
-26.21
-28.01
-27.87
-25.85
-22.49
-18.55
-14.58
-10.78
-6.95
-2.73
2.11
7.44
12.77
17.41
20.82
22.88
23.90
24.46
25.03
25.74
26.26
26.01
24.56
21.91
18.55
15.20
12.51
10.61
9.11
7.25
4.36
0.21
-4.89
-10.25
-15.14
-19.16
-22.36
-25.16
-28.04
-31.28
-34.79
-38.13
-40.69
-41.96
-41.73
-40.09
-37.26
-33.42
-28.55
-22.47
-15.05
-6.47
2.76
11.88
20.28
27.69
34.23
40.18
45.64
50.29
53.55
54.83
53.96
51.31
47.63
43.79
40.37
37.56
35.17
32.81
30.17
27.16
23.95
20.91
18.38
16.42
14.70
12.62
9.60
5.44
0.46
-4.65
-9.20
-12.91
-16.09
-19.40
-23.35
-27.96
-32.61
-36.31
-38.24
-38.11
-36.28
-33.44
-30.26
-26.96
-23.40
-19.20
-14.17
-8.52
-2.85
2.05
5.57
7.55
8.37
8.69
9.22
10.33
11.92
13.54
14.62
14.77
14.00
12.64
11.15
9.82
8.65
7.37
5.76
3.75
1.61
-0.25
-1.43
-1.85
-1.76
-1.64
-1.92
-2.81
-4.29
-6.21
-8.51
-11.23
-14.46
-18.17
-21.97
-25.22
-27.15
-27.21
-25.25
-21.67
-17.17
-12.50
-8.19
-4.37
-0.93
2.31
5.29
7.72
9.17
9.38
8.46
6.97
5.72
5.44
6.45
8.51
10.93
12.94
13.98
14.00
13.38
12.71
12.45
12.66
13.03
13.00
12.19
10.54
8.36
6.06
3.93
1.92
-0.27
-2.91
-5.95
-8.96
-11.22
-12.06
-11.15
-8.70
-5.36
-1.94
0.97
3.14
4.78
6.32
8.13
10.40
13.09
16.05
19.26
22.89
27.24
32.57
38.89
45.95
53.28
60.37
66.87
72.60
77.54
81.71
85.05
87.33
88.25
87.56
85.32
81.97
78.27
74.97
72.48
70.65
68.79
66.09
61.98
56.49
50.15
43.70
37.65
32.12
26.82
21.38
15.65
9.79
4.33
-0.05
-2.87
-4.06
-4.10
-3.93
-4.61
-6.97
-11.28
-17.26
-24.34
-32.04
-40.24
-49.00
-58.32
-67.77
-76.52
-83.62
-88.61
-91.83
-94.31
-97.27
-101.41
-106.54
-111.64
-115.44
-117.07
-116.41
-114.08
-110.97
-107.73
-104.56
-101.17
-97.14
-92.22
-86.48
-80.23
-73.72
-66.94
-59.61
-51.37
-42.11
-32.19
-22.40
-13.71
-6.76
-1.51
2.73
7.09
12.59
19.51
27.22
34.33
39.36
41.50
41.02
39.17
37.59
37.46
38.96
41.29
43.13
43.44
41.84
38.58
34.17
28.89
22.64
15.20
6.66
-2.28
-10.36
-16.20
-18.91
-18.39
-15.45
-11.43
-7.66
-4.94
-3.38
-2.53
-1.72
-0.50
1.18
2.93
4.23
4.71
4.38
3.56
2.75
2.37
2.55
3.18
4.03
4.95
5.91
7.03
8.33
9.63
10.50
10.38
8.83
5.76
1.48
-3.42
-8.32
-12.84
-16.91
-20.64
-24.04
-26.85
-28.48
-28.27
-25.80
-21.26
-15.40
-9.30
-3.91
0.33
3.54
6.22
8.80
11.38
13.65
15.15
15.57
15.03
14.05
13.30
13.30
14.17
15.64
17.24
18.59
19.61
20.50
21.60
23.10
24.84
26.30
26.79
25.81
23.33
19.84
16.08
12.75
10.04
7.63
4.89
1.33
-3.06
-7.71
-11.67
-14.12
-14.71
-13.69
-11.76
-9.64
-7.72
-5.92
-3.82
-0.98
2.74
7.03
11.15
14.32
16.02
16.20
15.23
13.72
12.07
10.35
8.32
5.64
2.20
-1.69
-5.41
-8.33
-10.12
-11.03
-11.71
-12.95
-15.22
-18.46
-22.09
-25.34
-27.71
-29.22
-30.39
-31.93
-34.32
-37.55
-41.11
-44.24
-46.36
-47.31
-47.30
-46.65
-45.48
-43.63
-40.69
-36.33
-30.60
-24.01
-17.41
-11.49
-6.56
-2.40
1.54
5.78
10.44
15.15
19.25
22.13
23.55
23.72
23.15
22.36
21.67
21.05
20.26
19.06
17.39
15.39
13.30
11.35
9.59
7.88
5.97
3.67
0.97
-2.01
-5.05
-8.02
-11.04
-14.38
-18.37
-23.08
-28.08
-32.52
-35.29
-35.47
-32.73
-27.50
-20.83
-13.86
-7.47
-1.93
3.00
7.73
12.44
16.88
20.49
22.71
23.37
22.81
21.73
20.84
20.50
20.55
20.50
19.85
18.44
16.52
14.64
13.25
12.44
11.85
10.84
8.91
5.95
2.37
-1.12
-3.84
-5.53
-6.47
-7.31
-8.68
-10.89
-13.82
-16.98
-19.86
-22.21
-24.04
-25.48
-26.53
-26.85
-25.92
-23.23
-18.64
-12.49
-5.60
1.05
6.65
10.84
13.71
15.71
17.37
19.07
20.83
22.39
23.37
23.52
22.87
21.75
20.56
19.56
18.68
17.62
16.09
14.02
11.67
9.49
7.85
6.74
5.73
4.20
1.71
-1.74
-5.62
-9.19
-11.87
-13.57
-14.73
-16.08
-18.20
-21.22
-24.77
-28.10
-30.40
-31.12
-30.11
-27.59
-23.91
-19.45
-14.42
-8.88
-2.94
3.16
8.94
13.80
17.24
19.17
19.92
20.13
20.42
21.05
21.80
22.16
21.69
20.29
18.27
16.21
14.63
13.68
13.05
12.19
10.59
8.08
4.93
1.69
-1.06
-3.05
-4.41
-5.59
-7.07
-9.11
-11.64
-14.34
-16.94
-19.34
-21.76
-24.41
-27.23
-29.71
-31.01
-30.28
-27.13
-21.84
-15.26
-8.51
-2.40
2.77
7.19
11.22
15.10
18.70
21.58
23.28
23.59
22.74
21.29
19.92
19.11
18.92
19.01
18.88
18.16
16.85
15.30
13.94
13.04
12.38
11.45
9.64
6.69
2.84
-1.22
-4.72
-7.19
-8.70
-9.79
-11.22
-13.52
-16.79
-20.68
-24.50
-27.58
-29.45
-29.91
-29.01
-26.85
-23.50
-18.99
-13.37
-6.84
0.14
6.93
12.90
17.64
21.13
23.64
25.63
27.42
29.08
30.38
30.98
30.67
29.48
27.68
25.66
23.74
21.98
20.18
18.00
15.15
11.57
7.44
3.14
-1.00
-4.85
-8.62
-12.73
-17.57
-23.26
-29.55
-35.95
-41.96
-47.32
-52.05
-56.28
-59.97
-62.72
-63.94
-63.03
-59.80
-54.67
-48.60
-42.68
-37.63
-33.51
-29.75
-25.58
-20.46
-14.51
-8.41
-3.07
0.93
3.57
5.38
7.05
9.06
11.37
13.61
15.29
16.26
16.71
17.08
17.76
18.85
20.08
20.92
20.89
19.77
17.78
15.45
13.40
12.06
11.37
10.81
9.59
7.03
2.95
-2.23
-7.58
-12.08
-15.09
-16.49
-16.66
-16.07
-14.93
-13.04
-10.00
-5.53
0.14
6.22
11.65
15.53
17.51
17.87
17.28
16.43
15.69
15.02
14.14
12.87
11.24
9.64
8.49
8.10
8.37
8.87
8.94
8.09
6.19
3.53
0.68
-1.85
-3.87
-5.60
-7.60
-10.32
-13.93
-18.07
-22.11
-25.37
-27.55
-28.80
-29.52
-30.06
-30.42
-30.20
-28.78
-25.67
-20.76
-14.42
-7.31
-0.07
6.88
13.48
19.89
26.22
32.36
37.91
42.33
45.27
46.76
47.22
47.27
47.34
47.45
47.21
46.09
43.81
40.53
36.81
33.28
30.35
27.94
25.65
22.99
19.73
16.01
12.24
8.85
6.03
3.60
1.08
-2.09
-6.19
-11.04
-16.02
-20.20
-22.78
-23.39
-22.26
-20.02
-17.29
-14.39
-11.20
-7.29
-2.36
3.39
9.27
14.31
17.72
19.31
19.52
19.17
19.08
19.64
20.69
21.76
22.31
22.09
21.15
19.79
18.32
16.82
15.12
12.92
10.04
6.56
2.84
-0.64
-3.55
-5.88
-8.01
-10.50
-13.74
-17.76
-22.13
-26.10
-28.94
-30.16
-29.76
-28.10
-25.69
-22.92
-19.87
-16.37
-12.13
-7.02
-1.26
4.60
9.93
14.22
17.29
19.38
20.86
22.07
23.09
23.70
23.66
22.91
21.70
20.56
19.98
20.08
20.48
20.45
19.25
16.68
13.10
9.37
6.33
4.43
3.42
2.60
1.18
-1.25
-4.61
-8.40
-12.06
-15.23
-17.88
-20.10
-21.92
-23.11
-23.28
-22.01
-19.13
-14.87
-9.76
-4.50
0.35
4.50
7.98
11.06
13.98
16.85
19.54
21.76
23.26
23.98
24.05
23.78
23.40
22.96
22.31
21.17
19.42
17.19
14.86
12.90
11.57
10.78
10.05
8.77
6.47
3.14
-0.84
-4.80
-8.19
-10.84
-13.11
-15.70
-19.22
-23.85
-29.03
-33.66
-36.49
-36.71
-34.23
-29.67
-23.93
-17.76
-11.43
-4.84
2.19
9.50
16.46
22.21
26.02
27.76
27.92
27.40
27.08
27.36
28.06
28.57
28.24
26.84
24.61
22.20
20.26
19.03
18.24
17.25
15.43
12.56
8.90
5.09
1.69
-1.08
-3.44
-5.90
-8.85
-12.36
-16.11
-19.60
-22.44
-24.55
-26.13
-27.47
-28.63
-29.34
-29.03
-27.10
-23.27
-17.72
-11.13
-4.36
1.80
6.93
10.99
14.19
16.81
18.92
20.39
20.97
20.51
19.13
17.21
15.28
13.75
12.76
12.08
11.29
10.04
8.27
6.18
4.11
2.29
0.66
-1.07
-3.24
-5.97
-9.06
-12.09
-14.65
-16.54
-17.93
-19.33
-21.31
-24.27
-28.11
-32.25
-35.70
-37.44
-36.82
-33.81
-29.00
-23.30
-17.47
-11.86
-6.32
-0.56
5.48
11.40
16.44
19.88
21.47
21.60
21.10
20.78
21.03
21.59
21.82
21.11
19.31
16.82
14.40
12.77
12.19
12.35
12.52
12.00
10.47
8.12
5.51
3.25
1.57
0.22
-1.34
-3.67
-6.90
-10.69
-14.37
-17.28
-19.16
-20.19
-20.87
-21.59
-22.30
-22.56
-21.65
-19.08
-14.83
-9.41
-3.68
1.57
5.94
9.44
12.40
15.13
17.70
19.88
21.29
21.65
21.02
19.82
18.70
18.18
18.37
18.93
19.21
18.65
17.08
14.84
12.55
10.74
9.53
8.62
7.43
5.52
2.80
-0.39
-3.47
-5.97
-7.74
-9.04
-10.41
-12.31
-14.90
-17.96
-20.96
-23.27
-24.52
-24.66
-23.91
-22.55
-20.67
-18.18
-14.86
-10.64
-5.75
-0.77
3.56
6.68
8.40
8.94
8.85
8.64
8.62
8.77
8.82
8.54
7.91
7.15
6.64
6.66
7.15
7.69
7.65
6.53
4.23
1.13
-2.10
-4.79
-6.64
-7.80
-8.77
-10.08
-11.98
-14.38
-16.90
-19.15
-20.93
-22.29
-23.43
-24.39
-24.93
-24.58
-22.80
-19.34
-14.35
-8.46
-2.49
2.79
6.94
9.92
12.05
13.72
15.21
16.52
17.43
17.63
17.01
15.76
14.36
13.35
13.01
13.19
13.34
12.83
11.28
8.80
5.94
3.41
1.63
0.50
-0.53
-2.14
-4.73
-8.22
-12.10
-15.70
-18.60
-20.80
-22.58
-24.26
-25.88
-27.09
-27.29
-25.94
-22.91
-18.53
-13.50
-8.56
-4.17
-0.46
2.76
5.71
8.45
10.76
12.23
12.61
11.94
10.68
9.49
8.96
9.26
10.07
10.70
10.50
9.16
6.90
4.32
2.07
0.48
-0.55
-1.52
-2.93
-5.03
-7.69
-10.49
-13.06
-15.27
-17.33
-19.58
-22.16
-24.79
-26.77
-27.25
-25.60
-21.80
-16.46
-10.58
-5.07
-0.43
3.41
6.87
10.36
13.97
17.34
19.86
21.00
20.66
19.21
17.38
15.85
15.00
14.74
14.61
14.08
12.87
11.04
8.95
7.07
5.63
4.51
3.35
1.72
-0.52
-3.18
-5.82
-8.10
-10.01
-11.90
-14.24
-17.25
-20.60
-23.51
-25.02
-24.45
-21.71
-17.37
-12.33
-7.42
-3.12
0.58
3.95
7.29
10.64
13.69
15.96
17.10
17.08
16.33
15.45
14.97
15.00
15.16
14.90
13.78
11.83
9.48
7.37
5.93
5.15
4.59
3.62
1.80
-0.84
-3.89
-6.71
-8.83
-10.18
-11.18
-12.48
-14.62
-17.66
-21.16
-24.26
-26.05
-26.01
-24.14
-20.94
-17.12
-13.24
-9.45
-5.49
-1.02
4.14
9.66
14.81
18.80
21.18
22.05
22.05
21.95
22.20
22.76
23.11
22.71
21.40
19.50
17.66
16.42
15.91
15.65
14.90
13.02
9.89
5.97
2.06
-1.06
-3.11
-4.38
-5.54
-7.24
-9.81
-13.09
-16.62
-19.87
-22.48
-24.37
-25.61
-26.23
-26.17
-25.31
-23.45
-20.51
-16.57
-11.86
-6.79
-1.80
2.73
6.57
9.69
12.23
14.35
16.08
17.35
18.01
18.01
17.51
16.86
16.39
16.26
16.30
16.14
15.42
14.06
12.22
10.29
8.58
7.18
5.89
4.35
2.30
-0.24
-2.98
-5.49
-7.43
-8.77
-9.79
-11.05
-13.00
-15.79
-19.06
-22.07
-23.91
-23.95
-22.08
-18.76
-14.79
-10.87
-7.35
-4.10
-0.75
2.95
6.85
10.40
12.93
14.07
13.95
13.21
12.62
12.71
13.46
14.38
14.78
14.26
12.86
11.10
9.60
8.72
8.36
7.97
7.01
5.22
2.88
0.64
-0.84
-1.32
-1.15
-1.05
-1.76
-3.62
-6.40
-9.52
-12.35
-14.54
-16.18
-17.55
-18.90
-20.15
-20.95
-20.73
-19.05
-15.84
-11.50
-6.77
-2.42
1.04
3.52
5.29
6.81
8.32
9.75
10.75
10.93
10.20
8.86
7.46
6.61
6.55
7.07
7.62
7.59
6.66
4.92
2.78
0.71
-1.05
-2.54
-4.09
-5.95
-8.10
-10.21
-11.76
-12.40
-12.17
-11.58
-11.40
-12.28
-14.39
-17.35
-20.32
-22.43
-23.07
-22.15
-19.98
-17.04
-13.71
-10.12
-6.26
-2.04
2.44
6.83
10.61
13.32
14.75
15.11
14.92
14.80
15.14
15.90
16.61
16.70
15.87
14.28
12.53
11.30
10.93
11.19
11.40
10.87
9.23
6.68
3.83
1.32
-0.50
-1.75
-2.89
-4.42
-6.58
-9.27
-12.12
-14.67
-16.64
-18.06
-19.09
-19.92
-20.49
-20.52
-19.51
-17.09
-13.23
-8.36
-3.26
1.24
4.61
6.77
8.11
9.20
10.43
11.89
13.25
14.08
14.06
13.23
11.96
10.79
10.11
9.95
9.98
9.71
8.82
7.28
5.46
3.81
2.65
1.93
1.24
0.08
-1.81
-4.36
-7.12
-9.54
-11.33
-12.57
-13.72
-15.25
-17.31
-19.56
-21.23
-21.51
-19.93
-16.67
-12.41
-8.04
-4.17
-0.94
1.94
4.88
8.04
11.13
13.63
15.04
15.24
14.60
13.73
13.23
13.33
13.83
14.24
14.05
13.10
11.62
10.15
9.24
9.07
9.36
9.46
8.72
6.87
4.18
1.34
-0.91
-2.20
-2.77
-3.30
-4.54
-6.88
-10.14
-13.67
-16.61
-18.34
-18.63
-17.69
-15.90
-13.59
-10.89
-7.76
-4.11
-0.05
4.06
7.67
10.24
11.55
11.72
11.21
10.61
10.30
10.38
10.61
10.62
10.15
9.23
8.15
7.32
6.99
7.07
7.12
6.56
5.06
2.68
-0.07
-2.47
-4.05
-4.73
-4.95
-5.34
-6.37
-8.15
-10.36
-12.50
-14.18
-15.32
-16.07
-16.63
-16.96
-16.78
-15.67
-13.33
-9.84
-5.67
-1.54
1.89
4.26
5.61
6.32
6.87
7.55
8.36
9.04
9.28
8.91
8.09
7.22
6.75
6.90
7.56
8.27
8.48
7.90
6.61
5.01
3.64
2.84
2.60
2.58
2.30
1.40
-0.19
-2.22
-4.25
-5.96
-7.29
-8.47
-9.79
-11.34
-12.84
-13.75
-13.47
-11.77
-8.92
-5.57
-2.48
-0.09
1.57
2.85
4.17
5.74
7.41
8.81
9.55
9.51
8.84
7.95
7.25
6.97
7.03
7.10
6.80
5.91
4.54
3.05
1.86
1.25
1.16
1.22
0.93
-0.06
-1.77
-3.90
-6.00
-7.77
-9.23
-10.66
-12.44
-14.66
-17.05
-18.98
-19.74
-18.89
-16.49
-13.14
-9.65
-6.68
-4.47
-2.83
-1.34
0.26
1.89
3.17
3.66
3.18
1.98
0.66
-0.17
-0.18
0.44
1.15
1.35
0.77
-0.45
-1.80
-2.69
-2.81
-2.30
-1.69
-1.66
-2.66
-4.72
-7.44
-10.16
-12.34
-13.81
-14.80
-15.71
-16.77
-17.81
-18.27
-17.48
-15.03
-11.09
-6.33
-1.66
2.22
5.03
6.94
8.36
9.57
10.54
11.03
10.74
9.67
8.16
6.77
6.04
6.15
6.80
7.35
7.13
5.78
3.45
0.70
-1.77
-3.52
-4.60
-5.49
-6.83
-9.08
-12.23
-15.82
-19.18
-21.76
-23.31
-23.94
-23.91
-23.34
-22.15
-20.10
-16.96
-12.78
-7.97
-3.12
1.18
4.62
7.22
9.22
10.90
12.37
13.58
14.35
14.53
14.15
13.39
12.52
11.80
11.30
10.87
10.27
9.20
7.54
5.37
2.98
0.73
-1.16
-2.73
-4.33
-6.39
-9.19
-12.68
-16.41
-19.71
-21.88
-22.58
-21.79
-19.88
-17.25
-14.23
-10.90
-7.13
-2.80
2.04
7.00
11.48
14.95
17.13
18.16
18.49
18.64
18.90
19.24
19.34
18.89
17.80
16.23
14.55
13.07
11.83
10.65
9.21
7.36
5.15
2.87
0.84
-0.83
-2.33
-4.10
-6.55
-9.86
-13.78
-17.73
-20.96
-22.86
-23.14
-21.96
-19.74
-16.94
-13.84
-10.45
-6.60
-2.19
2.62
7.32
11.21
13.77
14.87
14.87
14.46
14.32
14.76
15.64
16.50
16.91
16.71
16.05
15.31
14.77
14.39
13.86
12.73
10.73
7.89
4.64
1.51
-1.05
-3.02
-4.75
-6.81
-9.68
-13.47
-17.78
-21.87
-24.91
-26.39
-26.26
-24.90
-22.83
-20.44
-17.75
-14.51
-10.40
-5.39
0.22
5.79
10.69
14.51
17.22
19.09
20.40
21.21
21.39
20.66
18.98
16.66
14.29
12.48
11.52
11.21
10.93
9.99
7.97
4.96
1.50
-1.72
-4.16
-5.67
-6.50
-7.08
-7.78
-8.74
-9.91
-11.09
-12.15
-13.07
-13.89
-14.57
-14.79
-14.02
-11.74
-7.68
-2.12
4.21
10.33
15.41
19.14
21.75
23.85
26.07
28.69
31.45
33.76
34.96
34.74
33.29
31.25
29.39
28.22
27.72
27.43
26.67
25.02
22.46
19.45
16.60
14.31
12.55
10.89
8.75
5.79
2.10
-1.87
-5.54
-8.55
-10.96
-13.19
-15.71
-18.72
-21.93
-24.63
-25.96
-25.37
-22.84
-18.93
-14.52
-10.33
-6.69
-3.48
-0.33
3.09
6.74
10.29
13.23
15.19
16.13
16.29
16.12
15.98
15.94
15.82
15.30
14.21
12.67
11.08
9.94
9.56
9.78
10.06
9.67
8.10
5.34
1.87
-1.54
-4.23
-6.02
-7.21
-8.45
-10.29
-12.91
-15.99
-18.90
-20.99
-21.93
-21.79
-20.92
-19.55
-17.64
-14.88
-10.90
-5.67
0.30
6.05
10.55
13.23
14.15
13.99
13.61
13.64
14.16
14.78
14.87
14.10
12.49
10.51
8.73
7.56
7.00
6.67
5.99
4.50
2.08
-0.99
-4.09
-6.63
-8.28
-9.17
-9.80
-10.77
-12.48
-14.88
-17.50
-19.65
-20.84
-20.90
-20.02
-18.47
-16.37
-13.62
-10.04
-5.59
-0.60
4.23
8.13
10.53
11.40
11.22
10.78
10.86
11.94
14.05
16.87
19.96
22.95
25.64
27.95
29.73
30.64
30.26
28.30
24.93
20.83
17.03
14.49
13.69
14.33
15.50
16.00
14.88
11.83
7.28
2.16
-2.46
-5.84
-7.79
-8.74
-9.42
-10.50
-12.32
-14.69
-17.11
-19.03
-20.19
-20.67
-20.78
-20.81
-20.82
-20.65
-20.08
-19.11
-18.11
-17.65
-18.17
-19.61
-21.34
-22.33
-21.73
-19.35
-15.81
-12.21
-9.58
-8.28
-7.96
-7.73
-6.83
-5.02
-2.71
-0.61
0.81
1.69
2.73
4.83
8.55
13.78
19.74
25.35
29.76
32.72
34.63
36.35
38.69
41.96
45.83
49.44
51.85
52.47
51.26
48.75
45.64
42.47
39.38
36.17
32.65
28.82
24.93
21.35
18.22
15.29
12.02
7.87
2.66
-3.24
-9.07
-14.01
-17.57
-19.85
-21.45
-23.20
-25.83
-29.62
-34.42
-39.73
-44.94
-49.54
-53.18
-55.67
-56.81
-56.40
-54.28
-50.46
-45.22
-39.11
-32.83
-27.00
-21.98
-17.75
-14.11
-10.73
-7.49
-4.48
-1.99
-0.38
0.23
-0.03
-0.70
-1.21
-1.13
-0.38
0.75
1.72
1.99
1.19
-0.80
-3.93
-8.01
-12.83
-18.18
-23.73
-29.05
-33.62
-36.94
-38.73
-38.95
-37.86
-35.96
-33.76
-31.65
-29.75
-27.85
-25.48
-22.15
-17.56
-11.77
-5.25
1.29
7.14
11.74
14.89
16.71
17.46
17.36
16.54
15.05
13.09
11.04
9.43
8.69
8.90
9.57
9.79
8.58
5.25
-0.28
-7.50
-15.62
-23.80
-31.46
-38.24
-43.83
-47.89
-50.12
-50.40
-49.05
-46.80
-44.53
-42.95
-42.13
-41.46
-39.89
-36.51
-31.08
-24.28
-17.51
-12.30
-9.64
-9.46
-10.71
-11.78
-11.31
-8.79
-4.74
-0.37
3.16
5.29
6.31
7.02
8.22
10.14
12.40
14.23
14.98
14.44
12.85
10.74
8.49
6.13
3.40
-0.02
-4.19
-8.69
-12.75
-15.45
-16.17
-14.84
-11.98
-8.45
-4.96
-1.78
1.39
5.18
10.05
15.96
22.20
27.63
31.18
32.30
31.18
28.72
26.12
24.38
23.90
24.40
25.18
25.46
24.73
22.91
20.18
16.84
13.12
9.15
5.03
0.96
-2.85
-6.25
-9.25
-12.06
-15.00
-18.33
-22.06
-25.88
-29.25
-31.52
-32.15
-30.87
-27.76
-23.20
-17.73
-11.86
-6.00
-0.41
4.71
9.10
12.47
14.60
15.50
15.47
14.98
14.47
14.10
13.75
13.15
12.07
10.57
8.92
7.46
6.38
5.57
4.69
3.42
1.60
-0.62
-2.90
-4.95
-6.64
-8.09
-9.58
-11.34
-13.47
-15.75
-17.74
-18.88
-18.75
-17.18
-14.31
-10.54
-6.28
-1.77
2.89
7.71
12.59
17.23
21.15
23.95
25.46
25.89
25.73
25.44
25.26
25.12
24.77
23.96
22.65
21.00
19.32
17.83
16.65
15.70
14.82
13.83
12.57
10.95
8.99
6.74
4.34
1.93
-0.43
-2.76
-5.16
-7.65
-10.04
-11.97
-12.95
-12.60
-10.87
-8.00
-4.44
-0.60
3.31
7.20
11.03
14.57
17.38
19.01
19.19
18.03
16.05
14.02
12.71
12.51
13.38
14.76
15.85
15.96
14.81
12.60
9.91
7.34
5.16
3.16
0.79
-2.52
-6.93
-12.10
-17.33
-21.86
-25.25
-27.52
-29.03
-30.04
-30.52
-30.06
-28.06
-24.16
-18.57
-12.09
-5.88
-0.96
2.15
3.61
4.12
4.48
5.28
6.72
8.70
11.08
13.90
17.38
21.69
26.72
31.90
36.26
38.81
38.96
36.81
33.12
28.98
25.35
22.63
20.60
18.62
16.04
12.62
8.67
4.89
2.05
0.56
0.31
0.74
1.20
1.30
1.12
1.11
1.81
3.45
5.83
8.33
10.32
11.42
11.71
11.65
11.76
12.29
13.06
13.51
13.07
11.43
8.80
5.82
3.24
1.57
0.79
0.45
-0.08
-1.25
-3.09
-5.31
-7.49
-9.47
-11.43
-13.84
-17.05
-21.02
-25.15
-28.47
-30.10
-29.63
-27.32
-23.89
-20.07
-16.26
-12.36
-8.00
-2.88
2.87
8.61
13.44
16.63
17.92
17.67
16.66
15.72
15.37
15.60
15.99
16.03
15.42
14.21
12.77
11.49
10.46
9.47
8.08
5.94
3.05
-0.24
-3.41
-6.07
-8.19
-10.15
-12.48
-15.52
-19.18
-22.91
-25.84
-27.12
-26.33
-23.60
-19.57
-15.03
-10.60
-6.47
-2.41
1.93
6.68
11.49
15.63
18.37
19.35
18.82
17.53
16.34
15.73
15.65
15.60
15.02
13.68
11.80
9.89
8.40
7.42
6.65
5.53
3.64
0.90
-2.40
-5.73
-8.64
-10.91
-12.72
-14.48
-16.58
-19.17
-22.03
-24.60
-26.19
-26.24
-24.57
-21.43
-17.32
-12.74
-7.99
-3.11
1.93
7.04
11.85
15.80
18.41
19.56
19.53
18.94
18.39
18.21
18.33
18.37
17.96
16.92
15.42
13.81
12.44
11.43
10.58
9.48
7.72
5.12
1.90
-1.47
-4.47
-6.78
-8.48
-9.97
-11.72
-13.99
-16.73
-19.53
-21.87
-23.30
-23.61
-22.84
-21.14
-18.71
-15.64
-11.94
-7.59
-2.71
2.42
7.29
11.35
14.21
15.83
16.51
16.80
17.15
17.69
18.16
18.10
17.18
15.43
13.32
11.48
10.36
9.92
9.68
9.03
7.56
5.35
2.89
0.80
-0.58
-1.43
-2.28
-3.76
-6.20
-9.43
-12.89
-15.91
-18.06
-19.33
-20.00
-20.41
-20.66
-20.49
-19.42
-16.93
-12.88
-7.59
-1.80
3.58
7.88
10.91
12.88
14.31
15.56
16.72
17.51
17.59
16.79
15.34
13.74
12.53
11.99
11.97
12.02
11.63
10.55
8.84
6.85
4.91
3.23
1.73
0.21
-1.55
-3.59
-5.76
-7.85
-9.68
-11.33
-13.06
-15.18
-17.84
-20.77
-23.36
-24.87
-24.68
-22.64
-19.11
-14.81
-10.48
-6.60
-3.24
-0.12
3.09
6.53
9.98
12.97
15.05
16.04
16.14
15.85
15.68
15.84
16.17
16.20
15.54
14.08
12.16
10.35
9.21
8.88
9.08
9.21
8.71
7.34
5.30
3.09
1.25
0.04
-0.73
-1.57
-3.13
-5.81
-9.60
-14.07
-18.51
-22.23
-24.78
-26.02
-26.06
-25.08
-23.16
-20.27
-16.36
-11.55
-6.23
-1.08
3.13
5.79
6.71
6.15
4.72
3.08
1.61
0.37
-0.89
-2.39
-4.12
-5.76
-6.76
-6.74
-5.71
-4.18
-2.84
-2.29
-2.68
-3.72
-4.85
-5.64
-6.03
-6.33
-6.99
-8.29
-10.14
-12.16
-13.86
-14.94
-15.39
-15.48
-15.43
-15.26
-14.71
-13.34
-10.82
-7.16
-2.80
1.55
5.21
7.82
9.45
10.50
11.43
12.47
13.47
14.04
13.76
12.53
10.68
8.80
7.51
7.08
7.32
7.64
7.46
6.46
4.79
2.92
1.41
0.52
0.10
-0.35
-1.34
-3.16
-5.69
-8.52
-11.12
-13.18
-14.67
-15.78
-16.72
-17.48
-17.76
-17.09
-15.04
-11.58
-7.17
-2.62
1.23
3.94
5.58
6.65
7.72
9.09
10.60
11.75
12.08
11.46
10.17
8.77
7.77
7.34
7.27
7.10
6.45
5.22
3.64
2.13
1.07
0.59
0.50
0.39
-0.16
-1.31
-2.99
-4.87
-6.62
-8.08
-9.37
-10.77
-12.50
-14.45
-16.20
-17.04
-16.36
-13.88
-9.92
-5.23
-0.71
2.95
5.53
7.23
8.47
9.53
10.39
10.77
10.34
9.06
7.25
5.48
4.35
4.10
4.55
5.19
5.46
5.10
4.21
3.15
2.27
1.68
1.13
0.18
-1.51
-3.96
-6.82
-9.52
-11.55
-12.72
-13.29
-13.70
-14.33
-15.20
-15.97
-16.04
-14.90
-12.41
-8.93
-5.15
-1.79
0.72
2.38
3.51
4.60
5.95
7.54
9.06
10.11
10.49
10.28
9.85
9.57
9.66
9.93
9.95
9.28
7.75
5.58
3.33
1.61
0.75
0.63
0.76
0.55
-0.40
-2.10
-4.21
-6.26
-7.98
-9.39
-10.74
-12.25
-13.83
-15.06
-15.34
-14.20
-11.60
-7.90
-3.78
0.16
3.53
6.29
8.60
10.65
12.55
14.22
15.43
15.89
15.50
14.37
12.92
11.70
11.17
11.42
12.14
12.78
12.85
12.18
11.03
9.87
8.98
8.31
7.44
5.94
3.67
0.89
-1.87
-4.15
-5.81
-7.15
-8.61
-10.52
-12.71
-14.61
-15.44
-14.61
-12.06
-8.29
-4.15
-0.45
2.36
4.29
5.69
6.93
8.20
9.33
9.99
9.93
9.23
8.25
7.50
7.35
7.79
8.45
8.79
8.43
7.30
5.69
4.12
3.02
2.54
2.44
2.21
1.40
-0.22
-2.48
-4.96
-7.20
-8.96
-10.26
-11.29
-12.19
-12.84
-12.89
-11.90
-9.59
-6.07
-1.80
2.55
6.39
9.34
11.30
12.36
12.70
12.48
11.73
10.48
8.78
6.83
4.95
3.48
2.68
2.52
2.66
2.62
1.95
0.52
-1.43
-3.44
-5.01
-5.97
-6.51
-7.09
-8.20
-10.09
-12.72
-15.77
-18.87
-21.70
-24.08
-25.86
-26.89
-26.95
-25.82
-23.40
-19.78
-15.36
-10.77
-6.69
-3.68
-1.97
-1.40
-1.49
-1.63
-1.38
-0.70
0.10
0.54
0.35
-0.37
-1.19
-1.59
-1.35
-0.71
-0.24
-0.50
-1.68
-3.50
-5.41
-6.96
-8.13
-9.39
-11.36
-14.46
-18.51
-22.82
-26.37
-28.28
-28.16
-26.18
-22.93
-19.00
-14.76
-10.22
-5.22
0.29
6.01
11.28
15.33
17.67
18.35
17.99
17.45
17.47
18.29
19.60
20.74
21.09
20.35
18.66
16.56
14.60
13.13
12.07
11.02
9.52
7.26
4.34
1.13
-1.91
-4.54
-6.83
-9.04
-11.40
-13.78
-15.71
-16.47
-15.45
-12.51
-8.01
-2.71
2.59
7.31
11.30
14.75
17.93
20.93
23.54
25.34
25.95
25.32
23.81
22.08
20.74
20.06
19.82
19.46
18.45
16.57
14.05
11.39
9.08
7.27
5.71
3.89
1.37
-1.93
-5.70
-9.42
-12.57
-15.02
-16.97
-18.82
-20.79
-22.69
-23.95
-23.88
-22.00
-18.42
-13.70
-8.67
-3.91
0.41
4.51
8.73
13.15
17.47
21.04
23.20
23.66
22.68
20.97
19.40
18.65
18.85
19.60
20.15
19.77
18.06
15.10
11.39
7.59
4.19
1.37
-1.00
-3.14
-5.11
-6.81
-7.98
-8.49
-8.54
-8.67
-9.56
-11.64
-14.80
-18.32
-21.14
-22.27
-21.27
-18.34
-14.24
-9.86
-5.79
-2.14
1.34
5.02
8.97
12.89
16.18
18.34
19.24
19.25
18.98
19.00
19.46
20.03
20.12
19.29
17.55
15.34
13.34
12.01
11.38
11.01
10.26
8.72
6.42
3.80
1.47
-0.16
-1.15
-1.95
-3.26
-5.54
-8.90
-13.00
-17.20
-20.91
-23.78
-25.79
-27.15
-28.01
-28.32
-27.77
-25.89
-22.41
-17.41
-11.42
-5.22
0.47
5.28
9.21
12.53
15.48
18.06
20.02
21.09
21.21
20.67
19.99
19.66
19.87
20.43
20.91
20.86
20.08
18.68
16.94
15.09
13.22
11.19
8.77
5.84
2.47
-1.00
-4.18
-6.69
-8.40
-9.51
-10.51
-11.99
-14.36
-17.69
-21.58
-25.35
-28.21
-29.63
-29.47
-27.99
-25.59
-22.59
-19.07
-14.90
-9.94
-4.31
1.58
7.07
11.56
14.74
16.72
17.92
18.79
19.58
20.21
20.43
20.05
19.17
18.17
17.52
17.53
18.11
18.83
19.11
18.54
17.09
15.06
12.92
11.05
9.56
8.22
6.68
4.67
2.17
-0.58
-3.16
-5.19
-6.61
-7.63
-8.75
-10.44
-12.93
-16.10
-19.45
-22.36
-24.32
-25.14
-24.91
-23.87
-22.21
-19.92
-16.86
-12.92
-8.23
-3.21
1.52
5.41
8.15
9.79
10.69
11.29
11.85
12.38
12.66
12.49
11.81
10.83
9.92
9.36
9.22
9.26
9.05
8.24
6.76
4.83
2.88
1.29
0.16
-0.66
-1.52
-2.63
-4.02
-5.46
-6.67
-7.48
-8.00
-8.58
-9.68
-11.55
-14.08
-16.83
-19.08
-20.19
-19.84
-18.09
-15.37
-12.17
-8.85
-5.51
-2.00
1.81
5.87
9.79
12.97
14.89
15.36
14.63
13.30
11.97
11.02
10.41
9.84
9.00
7.79
6.44
5.34
4.80
4.81
5.02
4.92
4.10
2.52
0.46
-1.61
-3.35
-4.76
-6.13
-7.89
-10.30
-13.30
-16.55
-19.62
-22.23
-24.42
-26.45
-28.63
-30.94
-32.97
-34.08
-33.61
-31.32
-27.50
-22.88
-18.26
-14.20
-10.78
-7.71
-4.56
-1.05
2.70
6.27
9.07
10.71
11.18
10.85
10.32
10.15
10.55
11.34
12.02
12.10
11.37
10.00
8.48
7.26
6.49
5.95
5.11
3.56
1.23
-1.54
-4.13
-6.09
-7.41
-8.52
-10.07
-12.44
-15.44
-18.30
-19.99
-19.71
-17.36
-13.53
-9.24
-5.37
-2.27
0.35
3.11
6.43
10.16
13.60
15.84
16.30
15.17
13.28
11.74
11.36
12.23
13.73
14.94
15.16
14.26
12.65
10.99
9.77
9.00
8.31
7.15
5.21
2.59
-0.30
-2.88
-4.80
-6.07
-7.07
-8.34
-10.27
-12.96
-16.10
-19.13
-21.47
-22.74
-22.87
-22.03
-20.47
-18.36
-15.68
-12.30
-8.17
-3.42
1.48
5.87
9.19
11.19
12.10
12.43
12.76
13.36
14.08
14.48
14.15
13.02
11.44
9.99
9.16
9.01
9.09
8.71
7.36
4.94
1.90
-1.09
-3.48
-5.16
-6.45
-7.93
-9.98
-12.64
-15.51
-18.05
-19.89
-21.00
-21.73
-22.47
-23.34
-24.06
-24.01
-22.53
-19.34
-14.68
-9.24
-3.86
0.86
4.69
7.79
10.43
12.76
14.71
16.05
16.64
16.55
16.11
15.76
15.77
16.13
16.52
16.52
15.85
14.53
12.91
11.45
10.47
9.96
9.53
8.59
6.66
3.61
-0.25
-4.27
-7.71
-10.07
-11.30
-11.83
-12.41
-13.76
-16.19
-19.41
-22.51
-24.33
-24.00
-21.28
-16.67
-11.09
-5.45
-0.22
4.64
9.38
14.13
18.62
22.27
24.56
25.37
25.17
24.84
25.31
27.10
30.09
33.64
36.80
38.74
39.11
38.13
36.46
34.92
34.05
33.92
34.16
34.25
33.79
32.75
31.34
29.82
28.19
26.16
23.36
19.51
14.72
9.45
4.31
-0.14
-3.64
-6.17
-7.79
-8.57
-8.48
-7.46
-5.52
-2.93
-0.17
2.18
3.63
3.97
3.36
2.18
0.77
-0.72
-2.38
-4.40
-6.81
-9.30
-11.38
-12.57
-12.81
-12.50
-12.42
-13.33
-15.64
-19.19
-23.35
-27.32
-30.50
-32.72
-34.25
-35.58
-37.13
-38.99
-40.92
-42.45
-43.21
-43.23
-42.94
-43.03
-43.97
-45.78
-47.87
-49.31
-49.23
-47.22
-43.48
-38.64
-33.39
-28.12
-22.86
-17.33
-11.35
-5.03
1.14
6.57
10.91
14.25
17.16
20.38
24.43
29.31
34.46
39.06
42.43
44.37
45.22
45.62
46.13
46.92
47.74
48.16
47.96
47.24
46.42
45.85
45.51
44.88
43.15
39.60
33.91
26.25
17.16
7.31
-2.71
-12.46
-21.67
-30.07
-37.39
-43.36
-47.70
-50.14
-50.54
-48.93
-45.59
-41.02
-35.91
-30.95
-26.63
-23.21
-20.67
-18.87
-17.64
-16.87
-16.50
-16.48
-16.70
-17.01
-17.30
-17.51
-17.69
-17.94
-18.27
-18.62
-18.82
-18.72
-18.33
-17.81
-17.44
-17.42
-17.70
-17.99
-17.95
-17.32
-16.21
-15.04
-14.33
-14.41
-15.13
-15.96
-16.12
-15.01
-12.44
-8.66
-4.20
0.39
4.77
8.78
12.40
15.57
18.11
19.80
20.48
20.14
19.02
17.49
15.92
14.58
13.51
12.63
11.73
10.64
9.32
7.84
6.37
5.08
4.05
3.22
2.50
1.80
1.21
0.89
1.06
1.80
3.00
4.34
5.39
5.86
5.66
4.97
4.24
3.94
4.42
5.79
7.82
10.15
12.43
14.56
16.80
19.64
23.43
28.12
33.12
37.46
40.28
41.17
40.36
38.57
36.56
34.75
33.10
31.31
29.12
26.63
24.27
22.53
21.64
21.32
20.91
19.79
17.70
14.93
12.15
10.02
8.77
8.10
7.32
5.85
3.47
0.47
-2.58
-5.13
-6.97
-8.25
-9.29
-10.35
-11.41
-12.22
-12.44
-11.87
-10.58
-8.90
-7.31
-6.12
-5.44
-5.06
-4.63
-3.85
-2.74
-1.64
-1.06
-1.46
-2.95
-5.27
-7.87
-10.24
-12.11
-13.53
-14.73
-15.98
-17.38
-18.92
-20.53
-22.18
-23.88
-25.70
-27.65
-29.65
-31.64
-33.57
-35.50
-37.59
-40.05
-43.07
-46.65
-50.49
-53.99
-56.38
-56.93
-55.26
-51.47
-46.10
-39.95
-33.79
-28.19
-23.40
-19.35
-15.77
-12.29
-8.62
-4.71
-0.78
2.75
5.48
7.21
8.07
8.38
8.47
8.46
8.33
8.02
7.57
7.21
7.12
7.26
7.26
6.52
4.49
0.95
-3.82
-9.16
-14.25
-18.41
-21.33
-23.07
-23.93
-24.23
-24.10
-23.45
-22.08
-19.82
-16.76
-13.20
-9.50
-5.92
-2.57
0.59
3.60
6.43
9.06
11.53
14.10
17.20
21.24
26.42
32.58
39.19
45.46
50.53
53.74
54.80
53.92
51.74
49.18
47.08
45.83
45.27
44.82
43.71
41.38
37.60
32.51
26.42
19.67
12.54
5.30
-1.72
-8.06
-13.18
-16.63
-18.18
-17.90
-16.16
-13.52
-10.52
-7.56
-4.80
-2.23
0.20
2.50
4.57
6.29
7.61
8.59
9.34
9.96
10.41
10.56
10.22
9.34
8.00
6.42
4.79
3.16
1.40
-0.71
-3.32
-6.38
-9.61
-12.67
-15.33
-17.67
-20.04
-22.92
-26.66
-31.36
-36.72
-42.13
-46.80
-49.89
-50.75
-49.07
-44.89
-38.62
-30.88
-22.35
-13.55
-4.84
3.56
11.53
18.91
25.56
31.35
36.18
40.02
42.82
44.51
45.02
44.37
42.70
40.25
37.38
34.43
31.62
29.03
26.57
24.04
21.31
18.33
15.20
12.15
9.38
6.91
4.50
1.69
-1.93
-6.51
-11.86
-17.43
-22.58
-26.82
-29.98
-32.16
-33.58
-34.40
-34.62
-34.11
-32.74
-30.44
-27.23
-23.24
-18.58
-13.44
-8.05
-2.67
2.39
6.91
10.76
13.91
16.45
18.55
20.34
21.92
23.29
24.29
24.60
23.85
21.80
18.45
14.13
9.43
5.07
1.60
-0.72
-2.01
-2.65
-3.16
-4.02
-5.52
-7.73
-10.49
-13.54
-16.51
-19.00
-20.56
-20.80
-19.43
-16.37
-11.76
-6.04
0.26
6.59
12.57
18.02
22.91
27.28
31.12
34.31
36.71
38.21
38.80
38.61
37.79
36.42
34.37
31.35
26.99
21.12
13.87
5.78
-2.44
-10.10
-16.76
-22.30
-26.82
-30.36
-32.80
-33.81
-33.06
-30.58
-26.83
-22.74
-19.33
-17.30
-16.70
-16.91
-16.91
-15.78
-13.07
-8.97
-4.12
0.72
5.09
8.90
12.41
15.83
19.09
21.76
23.26
23.22
21.75
19.46
17.25
15.85
15.53
15.95
16.47
16.47
15.69
14.35
12.94
11.95
11.60
11.69
11.76
11.29
9.91
7.56
4.55
1.41
-1.25
-2.99
-3.67
-3.39
-2.39
-0.79
1.49
4.74
9.24
15.06
21.90
29.19
36.23
42.51
47.77
51.93
54.93
56.53
56.39
54.30
50.35
45.12
39.44
34.09
29.39
25.09
20.62
15.43
9.45
3.13
-2.76
-7.54
-10.97
-13.31
-15.10
-16.79
-18.47
-19.81
-20.29
-19.51
-17.54
-14.96
-12.70
-11.62
-12.10
-13.86
-16.01
-17.45
-17.38
-15.62
-12.52
-8.80
-5.14
-2.13
-0.20
0.21
-1.28
-4.82
-10.17
-16.66
-23.31
-29.29
-34.09
-37.69
-40.46
-42.97
-45.79
-49.42
-54.09
-59.77
-65.97
-71.82
-76.16
-77.89
-76.31
-71.36
-63.64
-54.22
-44.32
-34.99
-26.99
-20.72
-16.31
-13.65
-12.45
-12.20
-12.33
-12.31
-11.92
-11.31
-10.81
-10.54
-10.10
-8.57
-4.88
1.53
10.23
19.82
28.50
34.97
39.02
41.47
43.63
46.42
49.82
52.90
54.38
53.30
49.54
43.82
37.32
31.19
26.15
22.38
19.69
17.73
16.20
14.95
13.85
12.69
11.08
8.52
4.54
-1.01
-7.80
-15.11
-22.05
-28.06
-33.14
-37.83
-42.86
-48.50
-54.29
-58.99
-61.15
-59.67
-54.35
-45.88
-35.52
-24.55
-13.93
-4.29
3.90
10.20
14.17
15.65
14.97
13.01
10.86
9.51
9.42
10.45
12.00
13.29
13.67
12.84
10.86
8.13
5.17
2.41
0.03
-2.10
-4.30
-6.83
-9.74
-12.75
-15.42
-17.46
-18.83
-19.75
-20.46
-20.90
-20.65
-19.06
-15.61
-10.28
-3.64
3.28
9.42
14.07
17.10
18.95
20.26
21.60
23.05
24.27
24.68
23.85
21.81
19.07
16.44
14.61
13.79
13.69
13.69
13.19
11.90
9.93
7.62
5.27
2.90
0.25
-3.09
-7.41
-12.70
-18.55
-24.29
-29.14
-32.50
-34.05
-33.68
-31.44
-27.48
-22.02
-15.38
-8.12
-0.96
5.28
9.87
12.40
12.87
11.71
9.63
7.40
5.64
4.67
4.46
4.79
5.33
5.84
6.14
6.12
5.69
4.75
3.24
1.18
-1.33
-4.10
-6.94
-9.73
-12.39
-14.91
-17.25
-19.35
-21.06
-22.23
-22.63
-22.15
-20.77
-18.62
-15.98
-13.09
-10.14
-7.11
-3.83
-0.16
3.90
8.09
11.96
15.08
17.24
18.60
19.53
20.40
21.40
22.42
23.28
23.84
24.18
24.49
24.86
25.11
24.81
23.42
20.67
16.71
12.15
7.75
4.19
1.70
0.09
-1.14
-2.55
-4.46
-6.82
-9.24
-11.16
-12.06
-11.69
-10.08
-7.48
-4.16
-0.35
3.72
7.79
11.43
14.16
15.64
15.90
15.33
14.54
14.04
14.00
14.19
14.24
13.93
13.34
12.84
12.74
13.06
13.38
13.02
11.25
7.70
2.50
-3.66
-9.75
-14.69
-17.76
-18.77
-18.16
-16.71
-15.18
-13.95
-12.95
-11.72
-9.82
-7.02
-3.50
0.40
4.31
8.10
11.76
15.32
18.71
21.67
23.83
24.82
24.48
22.94
20.65
18.21
16.24
15.02
14.44
13.99
13.04
11.17
8.40
5.18
2.13
-0.29
-2.07
-3.64
-5.52
-8.12
-11.48
-15.32
-19.21
-22.71
-25.58
-27.67
-28.84
-28.86
-27.49
-24.60
-20.30
-15.04
-9.52
-4.42
-0.18
3.15
5.79
8.08
10.25
12.30
14.03
15.17
15.58
15.29
14.53
13.58
12.68
11.90
11.16
10.28
9.11
7.64
6.00
4.37
2.93
1.64
0.32
-1.34
-3.52
-6.20
-9.11
-11.81
-13.85
-14.92
-14.92
-13.98
-12.25
-9.94
-7.18
-4.00
-0.44
3.38
7.27
10.91
14.03
16.44
18.12
19.21
19.89
20.31
20.47
20.25
19.52
18.24
16.56
14.79
13.30
12.32
11.78
11.29
10.36
8.64
6.08
3.03
-0.06
-2.89
-5.50
-8.28
-11.58
-15.52
-19.70
-23.37
-25.75
-26.39
-25.36
-23.16
-20.38
-17.38
-14.19
-10.55
-6.26
-1.38
3.61
8.01
11.20
12.92
13.35
13.05
12.59
12.36
12.43
12.49
12.17
11.17
9.40
7.15
4.81
2.75
1.07
-0.46
-2.19
-4.43
-7.21
-10.27
-13.27
-16.00
-18.57
-21.31
-24.44
-27.81
-30.84
-32.71
-32.76
-30.84
-27.35
-22.99
-18.40
-13.88
-9.36
-4.58
0.55
5.81
10.59
14.16
16.01
16.16
15.13
13.77
12.89
12.81
13.33
13.79
13.54
12.21
9.98
7.40
5.12
3.47
2.30
1.16
-0.46
-2.80
-5.74
-8.91
-11.92
-14.61
-17.09
-19.58
-22.15
-24.55
-26.23
-26.50
-24.89
-21.37
-16.38
-10.66
-4.89
0.50
5.42
9.95
14.15
17.82
20.58
22.07
22.21
21.32
20.05
19.07
18.80
19.17
19.68
19.68
18.67
16.60
13.84
11.00
8.59
6.76
5.23
3.51
1.14
-2.01
-5.73
-9.61
-13.28
-16.61
-19.66
-22.52
-25.04
-26.79
-27.10
-25.40
-21.48
-15.70
-8.90
-2.08
3.94
8.82
12.69
15.98
19.06
21.97
24.37
25.71
25.61
24.15
21.90
19.66
18.09
17.31
16.93
16.24
14.69
12.20
9.20
6.37
4.22
2.80
1.71
0.39
-1.58
-4.20
-7.17
-9.99
-12.40
-14.47
-16.57
-19.11
-22.20
-25.43
-27.98
-28.87
-27.48
-23.83
-18.58
-12.75
-7.20
-2.30
2.15
6.60
11.38
16.36
20.98
24.52
26.51
27.00
26.49
25.67
25.09
24.85
24.68
24.15
23.01
21.32
19.45
17.82
16.62
15.67
14.49
12.60
9.84
6.49
3.15
0.42
-1.41
-2.56
-3.65
-5.41
-8.27
-12.26
-16.91
-21.50
-25.34
-28.02
-29.46
-29.84
-29.37
-28.08
-25.86
-22.48
-17.86
-12.19
-5.99
0.09
5.50
9.97
13.56
16.50
18.97
21.00
22.36
22.81
22.28
20.96
19.33
17.87
16.90
16.35
15.83
14.92
13.35
11.19
8.80
6.65
5.00
3.76
2.56
0.89
-1.52
-4.65
-8.12
-11.39
-14.06
-16.06
-17.66
-19.31
-21.42
-24.07
-26.94
-29.43
-30.93
-31.11
-30.03
-28.04
-25.55
-22.79
-19.72
-16.09
-11.79
-6.98
-2.21
1.88
4.79
6.44
7.21
7.67
8.29
9.12
9.87
10.12
9.63
8.53
7.28
6.43
6.29
6.78
7.48
7.93
7.87
7.42
6.96
6.89
7.34
8.00
8.32
7.81
6.31
4.13
1.89
0.15
-0.87
-1.49
-2.28
-3.73
-5.86
-8.16
-9.78
-9.96
-8.39
-5.39
-1.70
1.89
4.95
7.47
9.78
12.22
14.80
17.14
18.63
18.85
17.82
16.05
14.28
13.09
12.58
12.33
11.70
10.29
8.13
5.70
3.62
2.25
1.47
0.76
-0.50
-2.64
-5.57
-8.77
-11.63
-13.68
-14.90
-15.64
-16.45
-17.77
-19.72
-22.09
-24.43
-26.30
-27.52
-28.20
-28.64
-29.04
-29.31
-29.05
-27.68
-24.84
-20.59
-15.44
-10.15
-5.42
-1.59
1.35
3.75
5.96
8.07
9.96
11.29
11.88
11.82
11.48
11.42
12.03
13.33
14.94
16.19
16.48
15.64
13.91
11.89
10.16
8.96
8.12
7.19
5.78
3.79
1.47
-0.75
-2.58
-4.08
-5.63
-7.74
-10.58
-13.83
-16.72
-18.35
-18.13
-16.12
-12.96
-9.52
-6.43
-3.78
-1.17
1.93
5.74
9.88
13.51
15.76
16.16
14.97
12.99
11.17
10.13
9.89
9.97
9.74
8.82
7.24
5.40
3.79
2.70
2.08
1.56
0.75
-0.57
-2.33
-4.19
-5.76
-6.82
-7.47
-8.09
-9.17
-11.03
-13.66
-16.68
-19.43
-21.28
-21.86
-21.20
-19.63
-17.57
-15.32
-12.88
-10.01
-6.45
-2.19
2.42
6.71
10.05
12.15
13.18
13.66
14.13
14.79
15.42
15.55
14.83
13.32
11.51
10.06
9.41
9.52
9.88
9.76
8.67
6.58
3.94
1.41
-0.47
-1.65
-2.54
-3.78
-5.87
-8.84
-12.30
-15.56
-18.13
-19.94
-21.36
-22.89
-24.79
-26.81
-28.24
-28.26
-26.39
-22.71
-17.91
-12.92
-8.51
-4.96
-2.08
0.57
3.34
6.19
8.70
10.30
10.65
9.86
8.46
7.18
6.51
6.51
6.78
6.78
6.16
4.98
3.62
2.52
1.88
1.49
0.88
-0.39
-2.44
-4.99
-7.46
-9.28
-10.17
-10.29
-10.18
-10.45
-11.50
-13.36
-15.64
-17.75
-19.18
-19.72
-19.44
-18.56
-17.20
-15.25
-12.39
-8.35
-3.22
2.46
7.83
12.07
14.81
16.25
17.02
17.85
19.08
20.53
21.60
21.72
20.70
18.90
17.06
15.90
15.69
16.11
16.43
15.92
14.28
11.76
9.00
6.65
4.99
3.81
2.53
0.66
-1.97
-5.06
-8.07
-10.53
-12.39
-14.01
-15.94
-18.53
-21.65
-24.68
-26.73
-27.10
-25.55
-22.44
-18.50
-14.37
-10.39
-6.49
-2.39
2.03
6.53
10.50
13.23
14.35
14.00
12.84
11.71
11.22
11.48
12.11
12.47
12.13
10.99
9.40
7.89
6.87
6.43
6.27
5.91
4.97
3.36
1.33
-0.74
-2.50
-3.94
-5.33
-7.13
-9.64
-12.85
-16.42
-19.80
-22.48
-24.26
-25.23
-25.67
-25.78
-25.50
-24.50
-22.39
-18.93
-14.28
-8.99
-3.84
0.53
3.84
6.22
8.08
9.85
11.69
13.44
14.68
15.09
14.61
13.54
12.45
11.83
11.87
12.33
12.65
12.33
11.14
9.32
7.40
5.95
5.17
4.83
4.30
2.99
0.65
-2.53
-5.96
-9.06
-11.54
-13.51
-15.29
-17.08
-18.69
-19.48
-18.67
-15.73
-10.78
-4.59
1.74
7.22
11.40
14.40
16.74
18.91
21.10
23.07
24.33
24.53
23.64
22.05
20.37
19.11
18.45
18.15
17.65
16.44
14.29
11.40
8.27
5.43
3.16
1.29
-0.64
-3.08
-6.17
-9.68
-13.12
-16.11
-18.64
-21.08
-23.89
-27.30
-30.98
-34.12
-35.69
-34.99
-31.85
-26.77
-20.64
-14.36
-8.50
-3.17
1.81
6.64
11.25
15.23
18.04
19.29
19.05
17.89
16.69
16.13
16.47
17.41
18.31
18.57
17.94
16.59
14.91
13.24
11.59
9.67
7.11
3.74
-0.19
-4.09
-7.27
-9.36
-10.51
-11.39
-12.84
-15.43
-19.04
-22.89
-25.81
-26.76
-25.32
-21.75
-16.86
-11.43
-5.95
-0.42
5.36
11.47
17.55
22.90
26.74
28.68
28.89
28.09
27.12
26.57
26.51
26.58
26.29
25.36
23.88
22.28
21.02
20.31
19.93
19.39
18.16
15.99
13.06
9.80
6.75
4.17
1.94
-0.29
-2.98
-6.32
-10.25
-14.44
-18.49
-22.07
-25.07
-27.44
-29.19
-30.15
-30.08
-28.64
-25.62
-21.08
-15.41
-9.31
-3.51
1.46
5.39
8.47
11.06
13.42
15.52
17.08
17.73
17.35
16.18
14.78
13.73
13.33
13.46
13.70
13.54
12.76
11.45
9.96
8.66
7.73
7.01
6.15
4.85
3.00
0.78
-1.43
-3.27
-4.63
-5.79
-7.30
-9.66
-13.05
-17.13
-21.10
-23.98
-25.02
-23.99
-21.21
-17.30
-12.87
-8.25
-3.37
1.97
7.81
13.81
19.28
23.47
25.98
26.94
27.01
26.96
27.29
27.93
28.37
28.02
26.62
24.45
22.16
20.40
19.44
19.02
18.57
17.52
15.63
13.03
10.12
7.28
4.65
2.16
-0.37
-3.03
-5.75
-8.37
-10.71
-12.75
-14.64
-16.61
-18.85
-21.30
-23.58
-25.09
-25.18
-23.44
-19.85
-14.91
-9.41
-4.09
0.59
4.57
8.10
11.44
14.58
17.19
18.78
19.08
18.20
16.74
15.46
14.89
15.09
15.57
15.64
14.82
13.14
11.05
9.16
7.86
7.06
6.32
5.07
3.04
0.37
-2.46
-4.95
-6.80
-8.14
-9.40
-11.11
-13.62
-16.93
-20.69
-24.31
-27.21
-28.98
-29.51
-28.94
-27.49
-25.33
-22.50
-18.97
-14.81
-10.30
-5.93
-2.26
0.30
1.70
2.20
2.27
2.27
2.36
2.36
2.00
1.10
-0.29
-1.88
-3.27
-4.20
-4.72
-5.12
-5.83
-7.09
-8.76
-10.43
-11.55
-11.81
-11.36
-10.74
-10.69
-11.69
-13.74
-16.39
-18.96
-20.93
-22.19
-23.05
-23.94
-25.06
-26.20
-26.78
-26.15
-23.93
-20.26
-15.74
-11.14
-7.11
-3.88
-1.31
1.01
3.33
5.62
7.56
8.73
8.92
8.24
7.18
6.30
6.00
6.29
6.86
7.21
7.01
6.23
5.16
4.19
3.54
3.16
2.72
1.89
0.53
-1.22
-2.98
-4.37
-5.20
-5.61
-5.98
-6.71
-7.99
-9.67
-11.25
-12.10
-11.74
-10.00
-7.09
-3.50
0.26
3.87
7.22
10.38
13.37
16.06
18.14
19.29
19.38
18.58
17.32
16.14
15.36
14.99
14.71
14.11
12.96
11.36
9.68
8.35
7.56
7.09
6.45
5.11
2.84
-0.13
-3.22
-5.82
-7.64
-8.90
-10.23
-12.29
-15.34
-19.00
-22.38
-24.45
-24.54
-22.63
-19.32
-15.40
-11.48
-7.73
-3.93
0.16
4.48
8.61
11.90
13.90
14.61
14.48
14.16
14.16
14.55
15.04
15.16
14.63
13.45
11.92
10.43
9.22
8.23
7.15
5.58
3.27
0.28
-3.03
-6.14
-8.61
-10.38
-11.77
-13.38
-15.74
-18.96
-22.67
-26.06
-28.27
-28.75
-27.53
-25.06
-21.91
-18.43
-14.67
-10.41
-5.49
-0.09
5.28
9.86
13.07
14.69
14.96
14.48
13.88
13.55
13.55
13.62
13.50
13.07
12.47
12.04
12.03
12.48
13.04
13.17
12.40
10.58
7.95
5.08
2.49
0.46
-1.19
-2.93
-5.20
-8.16
-11.55
-14.67
-16.76
-17.31
-16.24
-13.94
-10.95
-7.70
-4.27
-0.44
3.99
8.93
13.82
17.75
19.93
20.08
18.62
16.50
14.71
13.81
13.70
13.77
13.35
12.10
10.18
8.12
6.43
5.28
4.40
3.27
1.49
-0.97
-3.75
-6.30
-8.27
-9.73
-11.14
-13.16
-16.21
-20.24
-24.68
-28.66
-31.36
-32.32
-31.56
-29.45
-26.41
-22.74
-18.52
-13.66
-8.14
-2.17
3.75
9.02
13.08
15.72
17.08
17.68
18.08
18.66
19.44
20.09
20.17
19.45
18.03
16.40
15.10
14.43
14.22
13.94
12.99
11.11
8.51
5.78
3.48
1.82
0.47
-1.18
-3.68
-7.12
-11.07
-14.81
-17.75
-19.66
-20.80
-21.61
-22.26
-22.53
-21.75
-19.22
-14.60
-8.22
-0.97
5.98
11.72
15.85
18.53
20.30
21.68
22.89
23.82
24.20
23.85
22.89
21.70
20.75
20.31
20.31
20.34
19.93
18.78
16.97
14.87
12.93
11.43
10.28
9.14
7.60
5.44
2.74
-0.16
-2.88
-5.20
-7.21
-9.22
-11.65
-14.67
-18.06
-21.20
-23.24
-23.50
-21.74
-18.29
-13.88
-9.29
-5.05
-1.27
2.23
5.71
9.19
12.44
15.13
17.07
18.33
19.22
20.11
21.09
21.98
22.35
21.83
20.36
18.24
16.04
14.32
13.31
12.87
12.52
11.72
10.15
7.81
5.02
2.20
-0.30
-2.39
-4.22
-6.04
-8.01
-10.21
-12.51
-14.75
-16.80
-18.65
-20.28
-21.57
-22.22
-21.79
-19.90
-16.42
-11.67
-6.32
-1.23
2.93
5.84
7.59
8.58
9.24
9.83
10.38
10.76
10.88
10.73
10.44
10.22
10.15
10.17
10.05
9.52
8.48
7.08
5.67
4.68
4.33
4.44
4.53
3.97
2.40
-0.11
-3.09
-5.89
-8.09
-9.66
-10.96
-12.55
-14.76
-17.55
-20.47
-22.83
-23.99
-23.67
-21.95
-19.26
-16.04
-12.60
-9.02
-5.25
-1.33
2.45
5.58
7.48
7.88
7.01
5.46
4.03
3.35
3.56
4.35
5.14
5.43
4.99
3.96
2.73
1.72
1.14
0.92
0.81
0.51
-0.10
-0.90
-1.60
-1.94
-1.89
-1.75
-2.00
-3.01
-4.85
-7.22
-9.54
-11.28
-12.18
-12.35
-12.16
-11.91
-11.66
-11.17
-10.03
-7.92
-4.88
-1.28
2.24
5.11
7.04
8.07
8.55
8.85
9.19
9.54
9.68
9.41
8.71
7.81
7.06
6.76
6.93
7.34
7.57
7.27
6.32
4.92
3.40
2.10
1.10
0.28
-0.68
-2.00
-3.71
-5.60
-7.34
-8.72
-9.79
-10.87
-12.32
-14.33
-16.70
-18.86
-20.07
-19.77
-17.83
-14.64
-10.93
-7.41
-4.56
-2.45
-0.86
0.51
1.77
2.86
3.49
3.49
2.90
2.01
1.28
1.04
1.34
1.86
2.13
1.79
0.80
-0.53
-1.66
-2.18
-2.03
-1.52
-1.22
-1.57
-2.72
-4.39
-6.13
-7.55
-8.58
-9.51
-10.78
-12.63
-14.91
-17.04
-18.29
-18.05
-16.25
-13.30
-9.92
-6.76
-4.10
-1.82
0.42
2.85
5.34
7.39
8.45
8.28
7.13
5.66
4.62
4.42
4.95
5.66
5.88
5.29
3.96
2.38
1.08
0.32
-0.02
-0.38
-1.20
-2.68
-4.61
-6.48
-7.76
-8.22
-8.07
-7.94
-8.50
-10.15
-12.73
-15.59
-17.79
-18.64
-17.92
-15.91
-13.20
-10.22
-7.04
-3.40
1.02
6.18
11.51
16.11
19.16
20.46
20.52
20.41
21.15
23.21
26.31
29.56
32.02
33.12
32.88
31.74
30.18
28.33
25.94
22.54
17.84
11.99
5.56
-0.72
-6.26
-10.88
-14.83
-18.54
-22.36
-26.28
-29.92
-32.66
-33.90
-33.32
-30.98
-27.35
-23.02
-18.60
-14.45
-10.69
-7.31
-4.29
-1.73
0.19
1.36
1.84
1.93
2.04
2.52
3.51
4.91
6.40
7.70
8.64
9.24
9.72
10.30
11.13
12.17
13.25
14.21
15.03
15.88
17.08
18.85
21.07
23.14
24.11
23.10
19.74
14.55
8.90
4.47
2.54
3.43
6.37
9.92
12.71
14.09
14.36
14.40
15.12
16.85
19.21
21.43
22.85
23.29
23.07
22.76
22.69
22.78
22.49
21.29
18.92
15.63
12.05
8.85
6.40
4.59
2.88
0.68
-2.37
-6.25
-10.58
-14.91
-18.97
-22.82
-26.81
-31.22
-36.04
-40.79
-44.63
-46.71
-46.55
-44.24
-40.38
-35.72
-30.84
-25.95
-20.97
-15.70
-10.08
-4.30
1.33
6.60
11.53
16.37
21.45
26.98
32.83
38.50
43.28
46.46
47.68
47.07
45.21
42.89
40.68
38.74
36.78
34.32
31.02
26.87
22.24
17.58
13.18
9.02
4.86
0.56
-3.76
-7.60
-10.33
-11.46
-10.88
-8.95
-6.32
-3.70
-1.63
-0.41
-0.08
-0.50
-1.47
-2.75
-4.11
-5.34
-6.30
-6.90
-7.22
-7.43
-7.80
-8.65
-10.25
-12.61
-15.52
-18.49
-21.00
-22.69
-23.51
-23.78
-23.98
-24.51
-25.53
-26.88
-28.25
-29.34
-30.05
-30.50
-30.91
-31.41
-31.88
-31.99
-31.29
-29.46
-26.51
-22.82
-19.12
-16.15
-14.45
-14.12
-14.83
-15.96
-16.93
-17.37
-17.22
-16.63
-15.85
-15.06
-14.37
-13.85
-13.56
-13.64
-14.20
-15.29
-16.82
-18.64
-20.65
-22.88
-25.58
-29.13
-33.80
-39.52
-45.74
-51.53
-55.85
-58.01
-57.91
-56.05
-53.21
-50.05
-46.80
-43.27
-39.10
-34.11
-28.53
-22.88
-17.76
-13.58
-10.37
-7.86
-5.62
-3.34
-0.93
1.38
3.21
4.24
4.35
3.75
2.95
2.48
2.70
3.56
4.72
5.69
6.15
6.08
5.71
5.34
5.13
5.05
4.98
4.87
4.87
5.28
6.43
8.54
11.58
15.25
19.20
23.09
26.81
30.40
34.03
37.76
41.41
44.59
46.80
47.73
47.46
46.45
45.36
44.72
44.68
44.93
44.85
43.89
41.76
38.57
34.78
30.95
27.53
24.74
22.56
20.79
19.17
17.44
15.38
12.76
9.40
5.23
0.43
-4.57
-9.11
-12.50
-14.23
-14.17
-12.62
-10.18
-7.51
-5.12
-3.30
-2.10
-1.42
-1.17
-1.23
-1.45
-1.54
-1.20
-0.30
0.98
2.02
1.98
0.12
-3.76
-9.10
-14.75
-19.42
-22.25
-23.05
-22.38
-21.11
-20.03
-19.49
-19.35
-19.20
-18.59
-17.33
-15.60
-13.86
-12.67
-12.42
-13.14
-14.44
-15.69
-16.21
-15.63
-13.92
-11.35
-8.31
-5.13
-2.02
0.90
3.46
5.49
6.76
7.22
7.01
6.46
5.94
5.73
5.91
6.30
6.57
6.32
5.30
3.46
1.00
-1.70
-4.27
-6.53
-8.63
-10.96
-13.83
-17.22
-20.62
-23.18
-24.03
-22.78
-19.65
-15.34
-10.64
-6.07
-1.75
2.51
6.84
11.07
14.69
17.17
18.31
18.44
18.31
18.75
20.14
22.25
24.30
25.40
25.01
23.15
20.38
17.44
14.91
12.93
11.28
9.52
7.38
4.82
2.03
-0.73
-3.31
-5.72
-8.06
-10.40
-12.55
-14.11
-14.60
-13.63
-11.19
-7.63
-3.59
0.27
3.55
6.23
8.54
10.82
13.25
15.74
17.93
19.40
19.86
19.37
18.27
17.06
16.07
15.27
14.27
12.49
9.58
5.55
0.89
-3.75
-7.83
-11.23
-14.20
-17.15
-20.30
-23.50
-26.32
-28.22
-28.91
-28.47
-27.30
-25.92
-24.73
-23.78
-22.85
-21.46
-19.17
-15.71
-11.11
-5.67
0.17
6.04
11.66
16.90
21.63
25.66
28.74
30.64
31.32
31.07
30.40
29.85
29.73
29.96
30.12
29.71
28.46
26.45
24.08
21.84
20.01
18.50
16.92
14.76
11.73
7.88
3.58
-0.65
-4.38
-7.37
-9.60
-11.16
-12.07
-12.24
-11.47
-9.55
-6.37
-2.00
3.19
8.67
13.79
17.99
20.96
22.64
23.24
22.99
22.04
20.41
18.06
15.10
11.91
9.04
7.04
6.10
5.93
5.90
5.37
4.05
2.10
0.08
-1.50
-2.49
-3.16
-4.06
-5.69
-8.26
-11.59
-15.27
-18.84
-22.01
-24.57
-26.32
-26.98
-26.18
-23.60
-19.14
-13.05
-5.95
1.32
7.98
13.46
17.60
20.66
23.05
25.17
27.17
28.91
30.08
30.47
30.10
29.27
28.40
27.73
27.21
26.48
25.15
23.02
20.27
17.34
14.72
12.70
11.13
9.59
7.54
4.71
1.17
-2.64
-6.23
-9.31
-11.98
-14.58
-17.48
-20.73
-23.92
-26.38
-27.40
-26.60
-24.08
-20.38
-16.12
-11.80
-7.59
-3.37
1.03
5.60
10.05
13.84
16.42
17.57
17.45
16.63
15.75
15.27
15.27
15.50
15.57
15.22
14.45
13.45
12.45
11.56
10.68
9.58
8.00
5.89
3.39
0.78
-1.62
-3.67
-5.45
-7.25
-9.40
-12.05
-15.09
-18.11
-20.55
-22.03
-22.51
-22.27
-21.71
-21.06
-20.23
-18.85
-16.50
-13.07
-8.90
-4.63
-0.93
1.83
3.74
5.27
6.92
8.95
11.20
13.26
14.64
15.07
14.59
13.55
12.38
11.43
10.78
10.28
9.68
8.82
7.69
6.48
5.40
4.53
3.67
2.49
0.69
-1.77
-4.59
-7.26
-9.35
-10.75
-11.78
-12.95
-14.62
-16.73
-18.74
-19.90
-19.59
-17.68
-14.52
-10.78
-7.00
-3.40
0.07
3.56
7.09
10.34
12.80
14.03
13.90
12.75
11.24
10.05
9.65
10.01
10.70
11.11
10.79
9.65
7.98
6.26
4.90
3.98
3.29
2.40
0.99
-0.97
-3.24
-5.38
-7.06
-8.22
-9.16
-10.36
-12.19
-14.67
-17.39
-19.65
-20.78
-20.48
-18.93
-16.66
-14.21
-11.83
-9.38
-6.49
-2.88
1.31
5.53
9.02
11.20
11.96
11.66
10.97
10.45
10.30
10.28
9.96
9.04
7.59
6.03
4.91
4.53
4.81
5.22
5.09
4.01
1.97
-0.60
-3.09
-5.05
-6.42
-7.54
-8.92
-10.88
-13.42
-16.20
-18.73
-20.68
-21.94
-22.64
-22.97
-22.91
-22.24
-20.59
-17.68
-13.51
-8.47
-3.23
1.44
4.99
7.25
8.43
9.02
9.51
10.17
10.97
11.65
11.89
11.58
10.85
10.06
9.53
9.40
9.48
9.37
8.70
7.35
5.52
3.64
2.10
1.05
0.24
-0.83
-2.63
-5.35
-8.77
-12.35
-15.52
-17.86
-19.29
-20.01
-20.26
-20.15
-19.56
-18.20
-15.80
-12.39
-8.29
-4.13
-0.47
2.32
4.29
5.72
6.91
7.94
8.61
8.62
7.83
6.44
4.96
3.92
3.62
3.90
4.20
3.89
2.56
0.32
-2.32
-4.66
-6.23
-7.01
-7.43
-8.11
-9.55
-11.84
-14.64
-17.38
-19.55
-20.96
-21.71
-22.07
-22.23
-22.12
-21.46
-19.91
-17.31
-13.81
-9.86
-6.02
-2.69
-0.08
1.88
3.40
4.63
5.55
6.01
5.86
5.09
3.91
2.72
1.93
1.74
2.00
2.25
1.99
0.93
-0.84
-2.87
-4.62
-5.78
-6.45
-7.11
-8.35
-10.48
-13.39
-16.55
-19.32
-21.21
-22.12
-22.24
-21.84
-20.99
-19.52
-17.09
-13.44
-8.67
-3.28
1.98
6.38
9.60
11.71
13.19
14.56
16.10
17.73
19.02
19.54
19.06
17.75
16.04
14.47
13.33
12.57
11.83
10.70
8.96
6.71
4.29
2.10
0.35
-1.08
-2.59
-4.61
-7.40
-10.89
-14.56
-17.74
-19.86
-20.68
-20.36
-19.31
-17.87
-16.05
-13.57
-10.04
-5.29
0.30
5.96
10.77
14.13
15.99
16.80
17.21
17.64
18.13
18.39
18.10
17.21
15.95
14.77
13.99
13.64
13.41
12.81
11.50
9.49
7.06
4.67
2.63
0.92
-0.81
-3.10
-6.31
-10.44
-15.02
-19.25
-22.29
-23.59
-23.12
-21.25
-18.49
-15.25
-11.63
-7.50
-2.75
2.51
7.80
12.51
16.12
18.44
19.71
20.43
21.08
21.91
22.81
23.47
23.51
22.77
21.33
19.50
17.70
16.12
14.73
13.25
11.38
8.98
6.23
3.50
1.17
-0.66
-2.22
-4.03
-6.54
-9.90
-13.85
-17.83
-21.19
-23.48
-24.54
-24.48
-23.49
-21.64
-18.89
-15.10
-10.24
-4.57
1.42
7.08
11.89
15.63
18.39
20.47
22.17
23.58
24.56
24.85
24.28
22.96
21.26
19.67
18.49
17.73
17.03
15.93
14.10
11.58
8.78
6.25
4.42
3.30
2.45
1.20
-0.97
-4.20
-8.14
-12.13
-15.59
-18.20
-20.04
-21.38
-22.36
-22.86
-22.47
-20.69
-17.31
-12.51
-6.89
-1.19
4.02
8.53
12.42
15.92
19.14
21.94
24.00
25.00
24.87
23.87
22.47
21.19
20.28
19.67
18.96
17.69
15.66
13.02
10.22
7.76
5.94
4.64
3.42
1.78
-0.52
-3.30
-5.98
-7.93
-8.82
-8.86
-8.74
-9.28
-10.98
-13.76
-16.98
-19.71
-21.22
-21.28
-20.12
-18.24
-16.05
-13.62
-10.69
-6.94
-2.26
3.06
8.37
12.92
16.17
17.97
18.57
18.46
18.14
17.89
17.73
17.52
17.10
16.43
15.59
14.73
13.88
12.99
11.86
10.34
8.39
6.15
3.89
1.84
0.14
-1.29
-2.62
-4.05
-5.69
-7.53
-9.44
-11.24
-12.83
-14.23
-15.54
-16.89
-18.31
-19.59
-20.37
-20.14
-18.58
-15.67
-11.72
-7.27
-2.84
1.30
5.08
8.61
11.84
14.53
16.31
16.88
16.31
15.03
13.76
13.15
13.47
14.51
15.64
16.16
15.66
14.19
12.21
10.32
8.98
8.20
7.64
6.82
5.37
3.29
0.91
-1.29
-3.01
-4.27
-5.43
-6.99
-9.23
-12.08
-15.04
-17.47
-18.87
-19.08
-18.37
-17.16
-15.78
-14.26
-12.38
-9.83
-6.53
-2.71
1.10
4.41
6.93
8.72
10.02
11.12
12.03
12.55
12.32
11.12
9.04
6.48
4.02
2.14
1.04
0.57
0.38
0.11
-0.41
-1.13
-1.85
-2.34
-2.56
-2.62
-2.78
-3.25
-4.12
-5.26
-6.53
-7.82
-9.19
-10.81
-12.88
-15.34
-17.84
-19.79
-20.54
-19.69
-17.30
-13.88
-10.16
-6.84
-4.21
-2.24
-0.61
0.97
2.54
3.87
4.61
4.58
3.87
2.90
2.15
1.92
2.13
2.37
2.09
0.94
-1.04
-3.43
-5.64
-7.17
-7.92
-8.20
-8.52
-9.29
-10.58
-12.09
-13.30
-13.85
-13.74
-13.42
-13.53
-14.53
-16.47
-18.89
-21.04
-22.20
-21.98
-20.45
-18.01
-15.11
-12.04
-8.87
-5.49
-1.87
1.85
5.29
7.99
9.70
10.47
10.67
10.80
11.20
11.84
12.35
12.22
11.15
9.25
7.03
5.14
4.07
3.89
4.18
4.32
3.75
2.30
0.17
-2.13
-4.16
-5.76
-7.12
-8.69
-10.84
-13.56
-16.48
-18.89
-20.16
-19.99
-18.50
-16.19
-13.54
-10.81
-7.96
-4.72
-0.94
3.26
7.45
10.98
13.36
14.42
14.40
13.87
13.41
13.38
13.76
14.21
14.33
13.85
12.79
11.47
10.25
9.32
8.60
7.79
6.58
4.86
2.81
0.80
-0.83
-2.00
-2.99
-4.26
-6.22
-8.98
-12.25
-15.40
-17.75
-18.88
-18.78
-17.76
-16.21
-14.34
-12.07
-9.10
-5.23
-0.61
4.26
8.59
11.75
13.50
14.11
14.15
14.20
14.44
14.67
14.48
13.54
11.87
9.84
8.00
6.74
6.11
5.76
5.19
4.00
2.12
-0.12
-2.18
-3.60
-4.18
-4.15
-4.01
-4.32
-5.46
-7.46
-9.98
-12.55
-14.73
-16.22
-16.94
-16.82
-15.82
-13.85
-10.91
-7.15
-2.98
1.13
4.73
7.66
10.04
12.14
14.23
16.34
18.25
19.59
20.10
19.80
19.02
18.23
17.81
17.86
18.16
18.29
17.88
16.79
15.19
13.47
12.05
11.14
10.65
10.17
9.25
7.62
5.34
2.77
0.36
-1.65
-3.37
-5.24
-7.69
-10.78
-14.04
-16.62
-17.71
-16.99
-14.74
-11.72
-8.71
-6.10
-3.82
-1.48
1.29
4.50
7.77
10.48
12.19
12.81
12.72
12.49
12.64
13.30
14.22
14.86
14.76
13.79
12.22
10.61
9.48
8.99
8.86
8.50
7.36
5.26
2.49
-0.35
-2.63
-4.04
-4.73
-5.22
-6.10
-7.72
-10.01
-12.52
-14.70
-16.13
-16.77
-16.87
-16.73
-16.46
-15.88
-14.58
-12.21
-8.81
-4.82
-0.95
2.18
4.32
5.66
6.67
7.78
9.13
10.50
11.46
11.68
11.10
9.98
8.77
7.93
7.66
7.87
8.23
8.38
8.09
7.37
6.41
5.45
4.60
3.74
2.59
0.93
-1.28
-3.85
-6.38
-8.51
-10.13
-11.44
-12.82
-14.54
-16.54
-18.34
-19.23
-18.61
-16.33
-12.80
-8.81
-5.12
-2.12
0.24
2.32
4.43
6.60
8.53
9.81
10.20
9.82
9.07
8.44
8.24
8.49
8.93
9.20
9.13
8.78
8.40
8.25
8.42
8.70
8.64
7.75
5.74
2.70
-0.89
-4.32
-6.96
-8.51
-9.12
-9.29
-9.61
-10.45
-11.88
-13.58
-15.11
-16.06
-16.23
-15.68
-14.52
-12.85
-10.63
-7.79
-4.39
-0.78
2.49
4.81
5.86
5.76
5.05
4.44
4.42
5.07
6.08
6.97
7.43
7.49
7.41
7.59
8.26
9.42
10.82
12.10
12.89
13.02
12.47
11.46
10.28
9.17
8.19
7.16
5.86
4.10
1.95
-0.34
-2.44
-4.13
-5.40
-6.41
-7.27
-7.95
-8.23
-7.85
-6.67
-4.84
-2.77
-1.02
-0.01
0.14
-0.40
-1.25
-2.03
-2.59
-3.02
-3.53
-4.32
-5.33
-6.31
-6.92
-6.91
-6.30
-5.37
-4.59
-4.32
-4.78
-5.95
-7.62
-9.51
-11.38
-13.07
-14.63
-16.13
-17.66
-19.21
-20.57
-21.43
-21.52
-20.80
-19.46
-17.83
-16.16
-14.46
-12.50
-9.99
-6.77
-3.07
0.60
3.63
5.59
6.44
6.46
6.09
5.72
5.52
5.42
5.27
4.94
4.42
3.78
3.13
2.45
1.61
0.40
-1.32
-3.51
-5.90
-8.13
-9.91
-11.21
-12.33
-13.76
-15.90
-18.84
-22.24
-25.44
-27.77
-28.77
-28.40
-26.97
-24.89
-22.46
-19.76
-16.67
-13.10
-9.18
-5.27
-1.92
0.44
1.67
2.00
1.89
1.83
2.05
2.47
2.74
2.53
1.73
0.58
-0.47
-1.00
-0.84
-0.24
0.29
0.19
-0.84
-2.75
-5.18
-7.70
-10.03
-12.20
-14.43
-16.92
-19.64
-22.23
-24.14
-24.86
-24.19
-22.29
-19.58
-16.48
-13.17
-9.55
-5.44
-0.75
4.30
9.20
13.36
16.34
18.03
18.67
18.71
18.59
18.56
18.60
18.50
18.03
17.13
15.93
14.70
13.65
12.80
11.89
10.58
8.62
6.02
3.04
0.04
-2.73
-5.32
-8.02
-11.14
-14.78
-18.73
-22.41
-25.15
-26.43
-26.11
-24.45
-21.91
-18.92
-15.64
-11.89
-7.34
-1.78
4.59
11.18
17.18
21.90
25.00
26.56
27.01
26.82
26.34
25.68
24.85
23.81
22.67
21.61
20.81
20.33
20.00
19.45
18.30
16.35
13.62
10.40
7.04
3.82
0.74
-2.39
-5.84
-9.74
-13.97
-18.12
-21.68
-24.16
-25.37
-25.34
-24.28
-22.41
-19.80
-16.38
-12.06
-6.86
-1.06
4.84
10.30
14.98
18.82
22.02
24.88
27.52
29.78
31.27
31.57
30.55
28.48
25.99
23.82
22.45
21.89
21.69
21.19
19.87
17.62
14.74
11.72
8.94
6.42
3.89
1.05
-2.20
-5.60
-8.70
-11.14
-12.92
-14.46
-16.36
-19.04
-22.39
-25.75
-28.17
-28.79
-27.29
-23.97
-19.60
-15.03
-10.82
-7.08
-3.54
0.11
3.97
7.78
11.06
13.39
14.60
14.93
14.84
14.77
14.84
14.87
14.50
13.51
12.02
10.45
9.28
8.82
8.91
9.08
8.70
7.35
5.03
2.08
-0.99
-3.79
-6.21
-8.45
-10.84
-13.59
-16.70
-19.92
-22.93
-25.45
-27.43
-28.94
-30.11
-30.90
-31.01
-30.07
-27.71
-23.85
-18.74
-12.92
-7.06
-1.70
2.89
6.72
9.99
12.95
15.68
18.06
19.85
20.88
21.19
21.04
20.82
20.76
20.87
20.86
20.41
19.38
17.93
16.42
15.24
14.50
13.96
13.17
11.73
9.54
6.95
4.56
2.91
2.20
2.12
2.01
1.13
-0.90
-3.97
-7.49
-10.61
-12.60
-13.15
-12.40
-10.81
-8.89
-6.99
-5.16
-3.24
-0.98
1.75
4.85
8.03
10.91
13.20
14.79
15.80
16.45
16.90
17.17
17.16
16.76
16.05
15.27
14.81
15.01
15.96
17.43
18.95
20.11
20.71
20.85
20.85
20.99
21.27
21.33
20.55
18.39
14.63
9.64
4.22
-0.64
-4.22
-6.35
-7.44
-8.12
-8.93
-9.99
-10.94
-11.32
-10.88
-9.82
-8.67
-7.92
-7.66
-7.49
-6.68
-4.64
-1.27
2.96
7.16
10.46
12.39
13.03
12.88
12.57
12.45
12.43
12.12
11.18
9.55
7.61
5.98
5.17
5.22
5.69
5.88
5.20
3.52
1.15
-1.38
-3.61
-5.40
-6.87
-8.29
-9.85
-11.57
-13.30
-14.80
-15.77
-16.03
-15.45
-14.05
-11.89
-9.01
-5.40
-1.03
4.07
9.62
15.11
19.87
23.30
25.15
25.59
25.15
24.45
23.90
23.56
23.20
22.47
21.14
19.17
16.76
14.17
11.59
9.02
6.36
3.50
0.48
-2.46
-4.94
-6.71
-7.75
-8.43
-9.36
-11.03
-13.57
-16.67
-19.77
-22.30
-24.07
-25.26
-26.23
-27.18
-28.01
-28.29
-27.50
-25.38
-22.06
-18.05
-13.96
-10.23
-6.94
-3.91
-0.86
2.36
5.52
8.20
9.90
10.34
9.64
8.28
6.89
5.90
5.41
5.15
4.71
3.77
2.33
0.69
-0.78
-1.79
-2.42
-3.00
-3.99
-5.65
-7.99
-10.73
-13.41
-15.69
-17.47
-18.92
-20.38
-22.13
-24.20
-26.32
-27.94
-28.52
-27.74
-25.62
-22.47
-18.68
-14.50
-9.95
-4.87
0.76
6.63
12.04
16.17
18.47
18.98
18.33
17.47
17.10
17.33
17.60
17.03
14.99
11.43
6.90
2.24
-1.87
-5.15
-7.75
-9.98
-12.04
-13.92
-15.46
-16.50
-17.10
-17.51
-18.15
-19.38
-21.35
-23.88
-26.42
-28.20
-28.54
-27.13
-24.17
-20.30
-16.25
-12.49
-9.08
-5.73
-2.08
1.93
5.98
9.53
12.09
13.53
14.12
14.37
14.72
15.29
15.84
15.96
15.33
13.94
12.13
10.40
9.15
8.49
8.16
7.72
6.81
5.31
3.40
1.42
-0.39
-2.06
-3.92
-6.35
-9.55
-13.36
-17.27
-20.68
-23.20
-24.83
-25.83
-26.48
-26.80
-26.45
-24.94
-21.89
-17.35
-11.79
-5.94
-0.40
4.50
8.79
12.66
16.25
19.52
22.15
23.80
24.24
23.58
22.27
20.91
20.03
19.74
19.78
19.57
18.60
16.71
14.20
11.64
9.56
8.06
6.79
5.08
2.33
-1.64
-6.50
-11.51
-15.87
-19.02
-20.84
-21.48
-21.18
-20.04
-17.93
-14.66
-10.18
-4.80
0.86
6.09
10.34
13.47
15.69
17.41
18.97
20.39
21.46
21.92
21.66
20.84
19.81
18.90
18.20
17.54
16.55
14.90
12.50
9.56
6.48
3.66
1.37
-0.40
-1.90
-3.51
-5.54
-8.13
-11.18
-14.41
-17.51
-20.30
-22.75
-24.95
-26.88
-28.30
-28.82
-27.97
-25.51
-21.60
-16.77
-11.67
-6.81
-2.37
1.77
5.87
10.05
14.13
17.72
20.36
21.79
22.11
21.75
21.25
21.06
21.28
21.72
22.01
21.84
21.20
20.25
19.28
18.43
17.57
16.42
14.66
12.18
9.18
5.96
2.88
0.06
-2.62
-5.47
-8.77
-12.65
-17.01
-21.57
-26.01
-30.02
-33.46
-36.27
-38.42
-39.77
-40.03
-38.86
-35.96
-31.30
-25.20
-18.31
-11.43
-5.25
-0.18
3.71
6.63
8.88
10.70
12.21
13.38
14.17
14.58
14.75
14.90
15.23
15.78
16.38
16.70
16.40
15.35
13.71
11.84
10.13
8.75
7.58
6.31
4.63
2.49
0.06
-2.34
-4.50
-6.44
-8.42
-10.70
-13.35
-16.06
-18.23
-19.15
-18.34
-15.74
-11.76
-7.12
-2.52
1.58
5.10
8.22
11.19
14.05
16.55
18.30
19.03
18.76
17.87
16.90
16.25
16.02
15.91
15.48
14.42
12.74
10.74
8.90
7.50
6.41
5.23
3.40
0.61
-3.01
-6.90
-10.30
-12.67
-13.90
-14.42
-14.94
-16.11
-18.18
-20.94
-23.79
-26.05
-27.23
-27.16
-25.98
-23.92
-21.17
-17.75
-13.61
-8.75
-3.40
1.97
6.75
10.45
12.90
14.26
14.92
15.29
15.51
15.48
14.97
13.93
12.54
11.25
10.56
10.72
11.58
12.62
13.14
12.65
11.02
8.54
5.75
3.17
1.05
-0.63
-2.16
-3.81
-5.66
-7.61
-9.41
-11.00
-12.51
-14.23
-16.38
-18.79
-20.90
-21.92
-21.23
-18.71
-14.77
-10.20
-5.80
-1.99
1.18
3.97
6.71
9.55
12.33
14.70
16.23
16.69
16.12
14.83
13.28
11.89
10.84
10.10
9.50
8.88
8.26
7.77
7.57
7.69
7.91
7.86
7.15
5.63
3.45
1.03
-1.11
-2.67
-3.64
-4.38
-5.36
-6.96
-9.19
-11.75
-14.09
-15.73
-16.43
-16.26
-15.50
-14.38
-12.99
-11.18
-8.70
-5.39
-1.38
2.92
6.91
10.02
11.99
12.95
13.35
13.66
14.08
14.48
14.47
13.77
12.42
10.81
9.54
9.01
9.20
9.64
9.75
9.12
7.78
6.12
4.62
3.59
2.91
2.20
1.04
-0.76
-3.02
-5.29
-7.12
-8.30
-9.02
-9.71
