1587327523.00
64.000000
-0.00
-0.00
-0.00
-0.00
-0.00
-0.00
-0.00
-0.00
-0.00
-0.00
0.00
0.01
0.01
-0.00
-0.03
-0.05
-0.05
0.00
0.13
0.36
0.66
1.01
1.37
1.72
2.06
2.40
2.79
3.24
3.80
4.42
5.06
5.66
6.20
6.68
7.15
7.68
8.31
9.14
10.09
11.04
11.88
12.56
13.14
13.76
14.65
15.96
17.91
20.32
22.90
25.38
27.58
29.57
31.68
34.32
37.81
42.54
48.15
54.10
59.83
64.97
69.58
74.14
79.34
85.71
93.76
103.00
112.62
121.73
129.77
136.75
143.30
150.75
157.77
166.64
177.95
191.79
206.97
220.57
228.25
225.36
208.53
176.87
132.76
80.05
23.07
-34.94
-92.44
-149.16
-205.23
-260.37
-313.74
-363.87
-409.83
-450.91
-486.50
-515.74
-537.23
-549.22
-549.96
-538.37
-514.21
-478.68
-433.88
-382.45
-327.02
-269.83
-212.62
-156.63
-102.90
-52.30
-5.80
35.71
71.60
101.57
125.77
144.70
159.07
169.59
176.87
181.32
183.20
182.76
180.27
176.07
170.57
164.17
157.23
149.99
142.59
135.10
127.56
120.01
112.53
105.18
98.04
91.15
84.54
78.25
72.26
66.61
61.29
56.32
51.70
47.45
43.56
40.02
36.83
33.98
31.46
29.28
27.43
25.89
24.68
23.77
23.16
22.83
22.76
22.95
23.38
24.04
24.92
25.99
27.21
28.55
29.90
31.18
32.24
32.93
33.08
32.55
31.21
28.97
25.83
21.84
17.08
11.73
6.02
0.21
-5.43
-10.63
-15.19
-18.94
-21.76
-23.64
-24.57
-24.66
-24.01
-22.77
-21.07
-19.07
-16.88
-14.58
-12.23
-9.85
-7.47
-5.11
-2.76
-0.41
1.97
4.40
6.90
9.49
12.23
15.04
17.90
20.80
23.73
26.70
29.75
32.91
36.24
39.84
43.62
47.54
51.61
55.83
60.22
64.81
69.65
74.81
80.39
86.21
92.17
98.19
104.24
110.29
116.35
122.41
128.54
134.80
140.87
146.53
151.55
155.67
158.59
159.90
159.00
155.07
149.66
143.32
136.39
129.10
121.62
114.11
106.70
99.52
92.70
86.42
80.42
74.59
68.84
63.16
57.57
52.14
46.98
42.19
37.90
33.92
30.14
26.49
22.95
19.54
16.32
13.34
10.65
8.27
6.02
3.72
1.30
-1.28
-3.93
-6.51
-8.91
-11.05
-13.00
-15.00
-17.30
-20.09
-23.38
-27.01
-30.67
-34.12
-37.28
-40.32
-43.69
-47.90
-53.28
-59.88
-67.32
-75.04
-82.51
-89.51
-96.30
-103.54
-112.01
-122.23
-134.23
-147.53
-161.32
-174.88
-187.86
-200.43
-213.19
-226.95
-242.74
-261.51
-283.99
-310.00
-337.92
-364.45
-385.07
-395.43
-392.91
-377.68
-352.64
-322.24
-290.74
-260.93
-233.79
-209.12
-186.41
-165.54
-146.71
-129.99
-114.98
-100.85
-86.73
-72.23
-57.64
-43.77
-31.61
-21.77
-14.26
-8.50
-3.56
1.47
7.06
13.07
18.77
23.20
25.65
26.00
24.83
23.17
22.00
21.82
22.45
23.17
23.13
21.87
19.54
16.88
14.82
14.04
14.70
16.42
18.50
20.40
21.96
23.40
25.14
27.39
30.09
32.91
35.52
37.77
39.80
41.88
44.19
46.66
48.94
50.58
51.27
51.06
50.30
49.53
49.23
49.61
50.49
51.45
52.01
51.87
51.00
49.65
48.14
46.72
45.43
44.15
42.72
40.99
38.96
36.67
34.16
31.44
28.51
25.39
22.21
19.20
16.58
14.42
12.55
10.57
8.00
4.54
0.23
-4.48
-8.88
-12.29
-14.33
-15.03
-14.75
-13.97
-13.00
-11.82
-10.17
-7.77
-4.47
-0.47
3.76
7.62
10.69
12.80
14.10
14.86
15.38
15.88
16.46
17.11
17.83
18.62
19.52
20.63
22.02
23.68
25.45
26.96
27.67
27.06
24.89
21.40
17.31
13.59
11.04
9.90
9.70
9.34
7.59
3.65
-2.47
-9.80
-16.82
-22.01
-24.58
-24.91
-24.60
-26.08
-31.91
-43.97
-62.78
-87.02
-113.35
-136.75
-151.47
-152.56
-137.67
-108.26
-69.46
-28.51
7.67
34.79
52.13
61.90
67.44
71.39
74.76
77.24
78.16
77.41
75.55
73.39
71.18
68.34
63.77
56.54
46.61
35.12
24.00
15.26
10.09
8.38
8.80
9.45
8.81
6.34
2.68
-0.89
-3.19
-3.84
-3.32
-2.60
-2.53
-3.36
-4.73
-6.05
-6.98
-7.63
-8.56
-10.35
-13.29
-17.20
-21.59
-25.92
-29.89
-33.55
-37.17
-41.03
-45.22
-49.50
-53.43
-56.46
-58.17
-58.38
-57.16
-54.62
-50.90
-45.99
-39.82
-32.45
-24.13
-15.36
-6.76
1.05
7.76
13.29
17.88
21.82
25.36
28.60
31.46
33.82
35.66
37.13
38.54
40.27
42.57
45.40
48.46
51.27
53.35
54.40
54.36
53.30
51.46
49.09
46.44
43.82
41.43
39.40
37.67
35.95
33.86
31.10
27.55
23.35
18.87
14.44
10.30
6.42
2.59
-1.56
-6.28
-11.56
-17.01
-21.83
-25.13
-26.11
-24.50
-20.56
-14.99
-8.62
-2.07
4.31
10.52
16.60
22.47
27.88
32.49
36.10
38.70
40.57
42.00
43.19
44.09
44.51
44.26
43.35
42.09
40.90
40.15
39.92
39.98
39.87
39.18
37.73
35.62
33.12
30.44
27.65
24.66
21.39
17.87
14.28
10.82
7.62
4.66
1.80
-1.15
-4.36
-7.90
-11.74
-15.78
-19.85
-23.75
-27.39
-30.88
-34.47
-38.42
-42.75
-47.06
-50.56
-52.39
-51.99
-49.29
-44.75
-39.07
-32.86
-26.43
-19.77
-12.71
-5.20
2.54
9.97
16.37
21.13
23.94
24.93
24.65
23.74
22.76
21.92
21.17
20.39
19.59
18.89
18.38
17.97
17.33
16.05
13.92
11.12
8.22
5.89
4.60
4.31
4.57
4.73
4.24
2.92
0.96
-1.33
-3.68
-6.00
-8.39
-11.01
-13.93
-17.03
-20.10
-22.92
-25.45
-27.87
-30.47
-33.56
-37.27
-41.50
-45.92
-49.98
-53.06
-54.56
-54.09
-51.54
-47.12
-41.30
-34.58
-27.46
-20.25
-13.19
-6.49
-0.32
5.06
9.46
12.76
14.96
16.22
16.73
16.78
16.67
16.68
16.96
17.53
18.32
19.09
19.64
19.82
19.62
19.13
18.54
18.02
17.66
17.50
17.45
17.45
17.45
17.43
17.37
17.21
16.86
16.18
15.04
13.34
11.04
8.20
4.90
1.26
-2.57
-6.48
-10.36
-14.15
-17.70
-20.75
-22.88
-23.66
-22.77
-20.19
-16.21
-11.31
-5.96
-0.42
5.30
11.34
17.77
24.42
30.87
36.55
40.94
43.79
45.17
45.48
45.22
44.82
44.49
44.25
44.05
43.87
43.82
44.04
44.51
44.96
44.97
44.11
42.18
39.37
36.08
32.78
29.77
27.06
24.49
21.83
18.93
15.77
12.43
8.99
5.46
1.78
-2.09
-6.18
-10.44
-14.69
-18.74
-22.48
-25.99
-29.56
-33.61
-38.39
-43.74
-49.01
-53.18
-55.28
-54.70
-51.46
-46.17
-39.67
-32.76
-25.89
-19.18
-12.54
-5.88
0.76
7.22
13.27
18.64
23.10
26.57
29.06
30.72
31.79
32.50
32.92
33.02
32.67
31.78
30.44
28.87
27.30
25.87
24.54
23.14
21.49
19.52
17.20
14.56
11.52
7.98
3.91
-0.54
-5.06
-9.32
-13.15
-16.63
-20.01
-23.52
-27.21
-30.93
-34.40
-37.41
-39.94
-42.18
-44.43
-46.97
-49.92
-53.26
-56.75
-59.99
-62.42
-63.44
-62.63
-59.82
-55.17
-49.08
-42.00
-34.35
-26.45
-18.54
-10.91
-3.89
2.15
6.95
10.46
12.92
14.74
16.40
18.20
20.21
22.25
24.03
25.29
25.91
26.01
25.78
25.42
25.00
24.48
23.78
22.84
21.63
20.18
18.51
16.65
14.59
12.36
10.00
7.56
5.07
2.53
-0.10
-2.83
-5.64
-8.50
-11.29
-13.92
-16.35
-18.58
-20.72
-22.96
-25.51
-28.49
-31.74
-34.87
-37.21
-38.05
-36.87
-33.53
-28.31
-21.74
-14.40
-6.64
1.40
9.68
18.09
26.26
33.60
39.57
43.85
46.51
47.99
48.93
49.86
51.10
52.67
54.30
55.64
56.47
56.77
56.69
56.48
56.22
55.79
54.80
52.86
49.79
45.82
41.49
37.48
34.16
31.47
28.97
26.13
22.62
18.55
14.27
10.10
6.15
2.27
-1.81
-6.19
-10.77
-15.26
-19.45
-23.37
-27.27
-31.41
-35.75
-39.84
-42.88
-44.12
-43.12
-39.99
-35.30
-29.83
-24.22
-18.79
-13.55
-8.30
-2.89
2.66
8.09
13.08
17.32
20.67
23.17
25.02
26.46
27.65
28.70
29.58
30.22
30.58
30.61
30.39
30.01
29.56
29.06
28.46
27.61
26.38
24.75
22.77
20.56
18.14
15.50
12.58
9.44
6.26
3.34
0.91
-1.03
-2.71
-4.55
-6.91
-9.93
-13.51
-17.42
-21.47
-25.65
-30.10
-35.06
-40.64
-46.71
-52.81
-58.26
-62.30
-64.33
-64.07
-61.71
-57.70
-52.64
-46.97
-40.92
-34.52
-27.77
-20.88
-14.23
-8.32
-3.48
0.24
3.13
5.67
8.27
11.08
13.96
16.58
18.67
20.10
20.98
21.53
21.95
22.31
22.54
22.54
22.19
21.44
20.28
18.74
16.87
14.72
12.41
10.05
7.76
5.60
3.53
1.45
-0.76
-3.16
-5.71
-8.36
-11.01
-13.66
-16.33
-19.10
-21.97
-24.93
-27.90
-30.88
-33.90
-36.96
-39.98
-42.69
-44.61
-45.18
-43.97
-40.87
-36.12
-30.20
-23.66
-16.87
-9.98
-3.10
3.68
10.09
15.78
20.47
24.11
26.89
29.14
31.17
33.12
34.94
36.55
37.90
39.11
40.27
41.43
42.42
42.97
42.81
41.91
40.52
39.06
37.94
37.32
37.02
36.59
35.62
33.89
31.49
28.70
25.85
23.09
20.39
17.56
14.49
11.13
7.64
4.12
0.57
-3.18
-7.35
-12.06
-17.15
-22.11
-26.19
-28.62
-28.89
-26.92
-23.11
-18.15
-12.79
-7.58
-2.72
1.85
6.24
10.46
14.31
17.51
19.87
21.45
22.54
23.57
24.86
26.51
28.30
29.84
30.79
30.95
30.39
29.37
28.21
27.11
26.07
24.87
23.17
20.76
17.64
14.11
10.61
7.51
4.94
2.74
0.62
-1.68
-4.24
-6.98
-9.77
-12.52
-15.21
-17.84
-20.42
-22.85
-25.06
-27.11
-29.16
-31.45
-34.17
-37.26
-40.41
-43.07
-44.68
-44.77
-43.17
-39.97
-35.53
-30.28
-24.63
-18.90
-13.27
-7.82
-2.71
1.87
5.63
8.34
9.97
10.74
11.04
11.28
11.75
12.45
13.16
13.58
13.49
12.88
11.92
10.87
9.94
9.22
8.62
7.96
7.09
5.94
4.65
3.43
2.45
1.75
1.16
0.36
-0.92
-2.74
-4.95
-7.19
-9.15
-10.69
-11.90
-13.06
-14.45
-16.23
-18.34
-20.60
-22.80
-24.89
-27.04
-29.62
-32.96
-37.12
-41.69
-45.87
-48.69
-49.35
-47.59
-43.71
-38.41
-32.49
-26.56
-20.89
-15.47
-10.31
-5.49
-1.24
2.17
4.65
6.34
7.53
8.60
9.76
11.06
12.36
13.50
14.34
14.91
15.27
15.52
15.72
15.87
15.90
15.73
15.26
14.45
13.38
12.20
11.13
10.35
9.89
9.67
9.51
9.20
8.56
7.50
5.99
4.06
1.82
-0.55
-2.85
-4.90
-6.62
-8.08
-9.48
-11.09
-13.12
-15.60
-18.30
-20.72
-22.19
-22.07
-19.99
-15.97
-10.43
-4.05
2.53
8.89
14.89
20.51
25.71
30.30
33.95
36.43
37.76
38.27
38.47
38.79
39.35
39.99
40.36
40.20
39.55
38.66
37.89
37.41
37.09
36.61
35.59
33.85
31.44
28.59
25.58
22.61
19.78
17.09
14.50
11.97
9.44
6.82
3.99
0.90
-2.39
-5.78
-9.11
-12.33
-15.44
-18.53
-21.69
-24.99
-28.51
-32.28
-36.27
-40.32
-44.05
-46.94
-48.38
-47.91
-45.37
-41.00
-35.39
-29.24
-23.18
-17.50
-12.23
-7.19
-2.24
2.61
7.11
10.95
13.87
15.86
17.15
18.02
18.73
19.35
19.80
20.02
20.08
20.17
20.51
21.16
21.92
22.40
22.18
21.07
19.15
16.73
14.17
11.71
9.44
7.29
5.17
3.05
0.97
-1.00
-2.80
-4.51
-6.26
-8.28
-10.72
-13.60
-16.73
-19.84
-22.68
-25.28
-27.87
-30.86
-34.58
-39.10
-44.21
-49.47
-54.36
-58.39
-61.07
-62.02
-60.97
-57.88
-53.00
-46.87
-40.16
-33.47
-27.12
-21.24
-15.80
-10.79
-6.23
-2.25
1.04
3.58
5.42
6.71
7.69
8.65
9.83
11.35
13.15
14.97
16.48
17.41
17.70
17.47
16.98
16.45
15.97
15.40
14.51
13.04
10.92
8.28
5.49
2.94
0.88
-0.71
-2.17
-3.95
-6.46
-9.82
-13.81
-17.99
-21.97
-25.58
-28.95
-32.39
-36.22
-40.54
-45.29
-50.23
-55.12
-59.74
-63.91
-67.37
-69.81
-70.82
-70.18
-67.97
-64.65
-60.91
-57.42
-54.52
-52.10
-49.77
-47.10
-44.05
-41.03
-38.77
-37.96
-38.86
-41.21
-44.49
-48.38
-53.28
-60.54
-72.12
-89.81
-114.12
-143.43
-173.72
-199.36
-214.68
-215.61
-200.90
-172.32
-134.06
-91.43
-49.76
-13.40
15.10
35.38
49.52
61.54
76.11
96.82
124.56
156.85
188.55
213.67
227.50
228.22
217.30
198.82
178.13
160.43
149.66
147.96
155.56
171.19
192.60
217.21
242.59
266.82
288.58
307.13
322.17
333.76
342.06
347.24
349.22
347.52
341.34
329.66
311.79
287.73
258.55
226.35
193.67
162.73
134.73
109.52
85.97
62.72
38.94
14.75
-9.04
-31.52
-52.34
-71.96
-91.47
-111.90
-133.66
-156.14
-177.89
-197.13
-212.33
-222.62
-227.69
-227.47
-221.77
-210.33
-193.18
-171.13
-145.91
-119.68
-94.12
-69.83
-46.50
-23.77
-2.32
15.80
27.79
31.52
26.84
15.93
2.19
-11.35
-23.37
-34.53
-46.53
-60.70
-77.07
-94.31
-110.48
-123.86
-133.33
-138.22
-138.02
-132.27
-120.85
-104.51
-84.96
-64.44
-44.99
-27.75
-12.74
0.70
13.33
25.60
37.49
48.54
58.04
64.98
68.31
67.59
63.77
59.84
60.17
68.87
87.54
113.88
142.14
165.33
178.08
178.69
169.21
153.72
135.86
117.14
96.58
72.12
42.31
7.78
-28.78
-63.66
-93.54
-116.55
-132.36
-141.69
-145.47
-144.34
-138.60
-128.75
-115.87
-101.78
-88.63
-78.27
-71.60
-68.32
-67.17
-66.51
-64.78
-61.08
-55.23
-47.82
-39.94
-32.77
-27.14
-23.33
-21.12
-20.09
-19.94
-20.72
-22.75
-26.40
-31.69
-38.09
-44.59
-49.99
-53.36
-54.50
-53.97
-52.93
-52.53
-53.44
-55.40
-57.36
-57.89
-55.85
-50.94
-43.77
-35.63
-27.99
-22.05
-18.47
-17.32
-18.23
-20.42
-22.92
-24.62
-24.59
-22.36
-18.01
-12.12
-5.50
1.20
7.69
13.99
20.24
26.44
32.34
37.53
41.54
44.00
44.68
43.46
40.32
35.37
28.90
21.35
13.30
5.33
-1.98
-8.16
-12.83
-15.83
-17.23
-17.38
-16.80
-15.97
-15.19
-14.54
-13.90
-13.24
-12.75
-12.89
-14.27
-17.36
-22.22
-28.47
-35.32
-41.94
-47.73
-52.61
-56.95
-61.45
-66.83
-73.45
-81.24
-89.65
-97.75
-104.52
-108.94
-110.22
-107.89
-101.94
-92.83
-81.41
-68.70
-55.64
-42.86
-30.61
-18.89
-7.67
2.98
12.86
21.68
29.20
35.28
39.98
43.50
46.15
48.31
50.32
52.40
54.65
57.05
59.47
61.80
63.91
65.62
66.74
67.04
66.38
64.78
62.47
59.87
57.42
55.48
54.30
53.91
54.13
54.55
54.47
53.03
49.48
43.41
34.87
24.36
12.57
0.05
-12.86
-25.93
-38.94
-51.39
-62.59
-71.75
-78.19
-81.53
-81.72
-79.02
-73.87
-66.86
-58.68
-50.06
-41.72
-34.20
-27.85
-22.81
-19.08
-16.57
-15.18
-14.79
-15.22
-16.17
-17.15
-17.66
-17.27
-15.83
-13.55
-10.90
-8.38
-6.32
-4.65
-3.00
-0.86
2.12
5.95
10.35
15.04
20.10
26.22
34.54
46.19
61.65
80.19
99.87
117.93
131.42
137.96
136.11
125.49
106.68
80.80
49.17
13.06
-26.41
-68.08
-110.58
-152.03
-190.00
-221.78
-244.76
-256.98
-257.42
-246.34
-225.40
-197.71
-167.48
-139.20
-116.23
-99.83
-88.75
-79.99
-70.42
-58.42
-44.53
-30.75
-19.03
-9.98
-2.62
4.78
13.51
23.72
34.70
45.75
56.87
68.74
81.95
96.21
110.01
121.19
127.87
129.40
126.72
121.76
116.70
113.00
111.15
110.67
110.58
109.83
107.80
104.39
99.80
94.33
88.04
80.82
72.44
62.79
51.98
40.27
27.98
15.42
2.90
-9.22
-20.61
-31.05
-40.55
-49.29
-57.32
-64.36
-69.59
-71.99
-70.76
-65.93
-58.47
-50.08
-42.49
-36.81
-33.22
-31.12
-29.59
-28.02
-26.41
-25.23
-25.20
-26.72
-29.70
-33.51
-37.32
-40.35
-42.14
-42.63
-42.02
-40.62
-38.71
-36.42
-33.85
-30.99
-27.87
-24.47
-20.67
-16.29
-11.15
-5.11
1.74
8.99
15.97
21.89
26.12
28.54
29.74
30.93
33.74
39.51
48.88
61.35
75.34
88.60
98.80
104.27
104.36
99.57
91.27
81.18
70.87
61.30
52.70
44.67
36.58
28.02
19.06
10.41
3.15
-1.58
-3.08
-1.24
3.44
10.07
17.68
25.34
32.30
37.92
41.66
43.07
41.97
38.48
33.02
26.23
18.78
11.20
3.79
-3.31
-10.14
-16.83
-23.67
-31.09
-39.63
-49.86
-62.02
-75.81
-90.19
-103.54
-114.01
-120.04
-120.84
-116.54
-108.13
-97.00
-84.49
-71.66
-59.22
-47.73
-37.74
-29.89
-24.63
-22.05
-21.75
-22.97
-25.08
-27.89
-31.83
-37.65
-45.84
-56.04
-66.68
-75.30
-79.14
-76.02
-65.11
-47.18
-24.25
0.87
25.45
47.48
66.01
81.33
95.14
110.43
130.80
158.93
194.80
234.36
269.77
291.58
291.88
267.00
218.63
152.88
78.15
2.88
-65.67
-121.88
-161.78
-183.28
-186.64
-174.74
-152.45
-125.31
-97.91
-72.86
-50.84
-31.40
-13.75
2.38
16.72
28.58
37.24
42.19
43.39
41.35
36.97
31.47
25.99
21.45
18.37
16.85
16.60
17.13
17.83
18.12
17.64
16.24
14.03
11.28
8.31
5.44
2.82
0.50
-1.59
-3.48
-5.19
-6.67
-7.91
-9.01
-10.18
-11.77
-14.08
-17.26
-21.12
-25.17
-28.64
-30.71
-30.71
-28.33
-23.72
-17.44
-10.30
-3.05
3.78
10.04
15.83
21.33
26.48
30.98
34.31
36.11
36.36
35.55
34.43
33.73
33.76
34.36
35.03
35.36
35.22
34.90
34.81
35.20
35.87
36.26
35.67
33.66
30.31
26.14
21.87
18.10
15.04
12.53
10.17
7.66
4.85
1.82
-1.29
-4.47
-7.80
-11.39
-15.21
-18.95
-22.03
-23.78
-23.68
-21.52
-17.51
-12.15
-6.10
0.02
5.79
11.04
15.84
20.39
24.74
28.77
32.12
34.41
35.42
35.32
34.60
33.85
33.45
33.45
33.52
33.33
32.69
31.74
30.75
29.93
29.18
28.19
26.59
24.19
21.18
17.99
15.13
12.90
11.28
9.94
8.46
6.52
4.09
1.40
-1.22
-3.47
-5.26
-6.78
-8.40
-10.51
-13.42
-17.17
-21.49
-25.84
-29.55
-31.89
-32.36
-30.79
-27.37
-22.57
-17.03
-11.29
-5.70
-0.33
4.91
10.11
15.28
20.27
24.79
28.60
31.56
33.68
35.12
36.09
36.75
37.22
37.56
37.83
38.07
38.27
38.36
38.22
37.74
36.89
35.75
34.46
33.15
31.85
30.48
28.91
27.03
24.86
22.45
19.94
17.39
14.85
12.32
9.85
7.51
5.33
3.35
1.49
-0.33
-2.25
-4.33
-6.57
-8.90
-11.23
-13.50
-15.77
-18.19
-21.00
-24.35
-28.21
-32.22
-35.76
-38.03
-38.37
-36.43
-32.38
-26.83
-20.64
-14.59
-9.18
-4.54
-0.52
3.10
6.37
9.10
11.03
11.98
12.03
11.58
11.16
11.13
11.59
12.27
12.79
12.84
12.38
11.61
10.79
10.13
9.64
9.12
8.39
7.31
5.95
4.52
3.23
2.24
1.54
0.94
0.16
-1.06
-2.84
-5.10
-7.55
-9.89
-11.90
-13.57
-15.06
-16.57
-18.27
-20.21
-22.38
-24.81
-27.55
-30.65
-33.98
-37.12
-39.47
-40.38
-39.38
-36.46
-32.00
-26.66
-21.13
-15.84
-10.90
-6.22
-1.57
3.16
7.86
12.19
15.74
18.21
19.52
19.96
19.95
19.94
20.16
20.56
20.96
21.13
21.07
20.94
20.98
21.29
21.75
22.07
21.94
21.26
20.11
18.74
17.35
16.06
14.81
13.46
11.89
10.03
7.99
5.85
3.72
1.61
-0.51
-2.75
-5.17
-7.69
-10.13
-12.26
-13.94
-15.20
-16.37
-17.89
-20.17
-23.44
-27.53
-32.01
-36.21
-39.47
-41.26
-41.30
-39.63
-36.46
-32.22
-27.39
-22.39
-17.52
-12.91
-8.56
-4.30
-0.02
4.31
8.56
12.45
15.65
17.94
19.32
19.99
20.32
20.66
21.21
22.00
22.89
23.71
24.31
24.64
24.67
24.41
23.88
23.08
22.06
20.90
19.72
18.60
17.60
16.67
15.73
14.72
13.57
12.33
11.03
9.68
8.24
6.63
4.79
2.67
0.30
-2.24
-4.86
-7.45
-9.95
-12.30
-14.50
-16.63
-18.85
-21.33
-24.19
-27.35
-30.46
-32.91
-34.06
-33.41
-30.88
-26.80
-21.79
-16.50
-11.39
-6.60
-2.11
2.20
6.28
9.95
12.91
14.96
16.10
16.56
16.69
16.81
17.07
17.45
17.83
18.08
18.12
17.96
17.66
17.29
16.83
16.24
15.45
14.41
13.16
11.74
10.28
8.85
7.53
6.30
5.05
3.66
2.04
0.17
-1.84
-3.88
-5.87
-7.91
-10.18
-12.83
-15.87
-19.12
-22.29
-25.13
-27.65
-30.09
-32.80
-36.07
-39.90
-43.93
-47.50
-49.86
-50.49
-49.17
-46.08
-41.66
-36.45
-30.89
-25.24
-19.62
-14.05
-8.63
-3.54
1.01
4.83
7.93
10.41
12.51
14.40
16.19
17.85
19.32
20.54
21.51
22.28
22.91
23.41
23.73
23.84
23.71
23.34
22.70
21.74
20.37
18.50
16.11
13.27
10.17
7.06
4.19
1.74
-0.31
-2.13
-3.95
-5.97
-8.28
-10.77
-13.26
-15.60
-17.77
-19.92
-22.31
-25.17
-28.60
-32.48
-36.54
-40.35
-43.44
-45.40
-45.97
-45.07
-42.80
-39.38
-35.07
-30.10
-24.62
-18.78
-12.78
-6.86
-1.27
3.80
8.24
12.03
15.24
17.90
20.00
21.53
22.49
22.97
23.14
23.22
23.41
23.82
24.36
24.86
25.05
24.76
23.94
22.72
21.35
20.05
18.93
17.89
16.76
15.36
13.65
11.77
9.96
8.41
7.12
5.87
4.32
2.21
-0.51
-3.63
-6.78
-9.64
-12.10
-14.34
-16.66
-19.40
-22.72
-26.48
-30.39
-34.02
-36.93
-38.76
-39.29
-38.37
-36.01
-32.33
-27.55
-21.99
-16.02
-9.99
-4.17
1.28
6.29
10.86
15.00
18.64
21.74
24.23
26.19
27.73
29.04
30.22
31.23
31.97
32.32
32.25
31.88
31.41
30.95
30.54
30.05
29.32
28.24
26.83
25.19
23.44
21.64
19.78
17.79
15.62
13.32
11.00
8.77
6.68
4.68
2.61
0.33
-2.22
-5.01
-7.93
-10.89
-13.85
-16.81
-19.79
-22.82
-25.97
-29.25
-32.65
-35.97
-38.82
-40.65
-40.95
-39.42
-36.15
-31.57
-26.32
-20.99
-15.91
-11.13
-6.57
-2.17
1.88
5.25
7.56
8.65
8.68
8.11
7.55
7.47
8.07
9.19
10.51
11.66
12.43
12.80
12.84
12.66
12.25
11.59
10.59
9.22
7.56
5.81
4.20
2.90
1.94
1.17
0.32
-0.90
-2.65
-4.84
-7.23
-9.47
-11.31
-12.73
-13.95
-15.31
-17.13
-19.57
-22.63
-26.15
-29.95
-33.85
-37.58
-40.85
-43.25
-44.33
-43.81
-41.62
-37.96
-33.27
-27.96
-22.38
-16.71
-10.99
-5.25
0.42
5.81
10.69
14.79
17.99
20.33
21.97
23.16
24.14
25.06
25.93
26.67
27.21
27.49
27.56
27.51
27.36
27.09
26.57
25.73
24.56
23.19
21.83
20.64
19.68
18.82
17.85
16.56
14.83
12.74
10.45
8.15
5.90
3.67
1.39
-0.99
-3.43
-5.84
-8.13
-10.36
-12.73
-15.47
-18.78
-22.75
-27.23
-31.95
-36.49
-40.31
-42.90
-43.85
-43.00
-40.49
-36.70
-32.11
-27.11
-21.92
-16.54
-10.99
-5.32
0.28
5.54
10.18
14.04
17.05
19.27
20.82
21.86
22.61
23.27
24.05
25.03
26.18
27.33
28.24
28.68
28.57
27.98
27.11
26.13
25.15
24.12
22.94
21.56
20.07
18.61
17.38
16.44
15.71
14.97
14.08
12.95
11.73
10.56
9.51
8.54
7.52
6.29
4.84
3.25
1.66
0.14
-1.34
-2.93
-4.84
-7.25
-10.28
-13.96
-18.18
-22.75
-27.30
-31.26
-34.03
-35.12
-34.33
-31.89
-28.35
-24.35
-20.43
-16.87
-13.62
-10.47
-7.19
-3.67
0.03
3.72
7.14
10.11
12.56
14.56
16.26
17.79
19.25
20.60
21.80
22.80
23.61
24.27
24.81
25.24
25.51
25.57
25.37
24.89
24.06
22.83
21.16
19.07
16.69
14.22
11.90
9.88
8.13
6.41
4.42
1.91
-1.19
-4.74
-8.39
-11.79
-14.69
-17.06
-19.16
-21.43
-24.40
-28.49
-33.91
-40.54
-47.86
-55.03
-60.99
-64.78
-65.73
-63.68
-58.97
-52.34
-44.73
-37.00
-29.75
-23.30
-17.62
-12.53
-7.81
-3.32
0.95
4.91
8.39
11.28
13.49
15.06
16.07
16.71
17.17
17.67
18.36
19.31
20.44
21.52
22.25
22.36
21.73
20.36
18.48
16.37
14.34
12.60
11.23
10.20
9.33
8.43
7.35
6.00
4.39
2.58
0.59
-1.66
-4.33
-7.70
-11.97
-17.09
-22.74
-28.23
-32.73
-35.46
-35.97
-34.25
-30.79
-26.31
-21.55
-17.02
-12.90
-9.10
-5.49
-1.97
1.36
4.28
6.58
8.12
8.98
9.36
9.56
9.82
10.27
10.95
11.81
12.79
13.92
15.25
16.79
18.51
20.23
21.75
22.92
23.70
24.24
24.73
25.29
25.87
26.21
25.98
24.92
22.94
20.14
16.81
13.31
9.93
6.92
4.36
2.16
0.12
-2.07
-4.75
-8.17
-12.41
-17.24
-22.10
-26.16
-28.57
-28.66
-26.23
-21.62
-15.61
-9.16
-3.08
2.20
6.60
10.35
13.77
17.09
20.35
23.43
26.11
28.18
29.50
30.07
30.01
29.51
28.80
28.05
27.41
26.97
26.79
26.86
27.09
27.28
27.17
26.54
25.32
23.58
21.56
19.48
17.47
15.57
13.71
11.79
9.80
7.74
5.63
3.44
1.11
-1.40
-4.09
-6.83
-9.43
-11.70
-13.59
-15.22
-16.96
-19.27
-22.55
-26.90
-32.04
-37.30
-41.80
-44.73
-45.57
-44.28
-41.15
-36.77
-31.72
-26.48
-21.38
-16.54
-11.98
-7.60
-3.30
0.92
4.99
8.69
11.77
14.00
15.33
15.87
15.84
15.55
15.23
15.05
15.11
15.37
15.70
15.84
15.42
14.09
11.67
8.29
4.37
0.51
-2.71
-4.90
-6.02
-6.29
-6.14
-5.99
-6.23
-7.03
-8.42
-10.24
-12.25
-14.23
-16.04
-17.71
-19.35
-21.22
-23.63
-26.88
-31.08
-36.03
-41.06
-45.24
-47.60
-47.53
-45.09
-40.92
-36.00
-31.21
-27.00
-23.32
-19.82
-16.07
-11.86
-7.26
-2.60
1.73
5.35
8.05
9.86
10.98
11.79
12.66
13.82
15.33
17.03
18.66
19.96
20.74
20.90
20.45
19.43
17.90
16.03
13.98
11.99
10.28
8.95
7.91
6.89
5.55
3.64
1.18
-1.57
-4.20
-6.37
-8.00
-9.32
-10.72
-12.65
-15.41
-19.10
-23.67
-28.88
-34.32
-39.43
-43.48
-45.79
-45.86
-43.67
-39.68
-34.72
-29.72
-25.37
-21.93
-19.19
-16.71
-14.04
-10.98
-7.64
-4.43
-1.86
-0.34
-0.08
-1.06
-3.06
-5.79
-8.83
-11.69
-13.75
-14.38
-13.12
-9.87
-5.01
0.64
6.06
10.35
12.93
13.70
12.96
11.23
9.06
6.87
4.78
2.69
0.32
-2.62
-6.21
-10.29
-14.43
-18.10
-20.87
-22.61
-23.46
-23.75
-23.83
-23.90
-24.03
-24.21
-24.41
-24.59
-24.59
-24.08
-22.56
-19.52
-14.78
-8.64
-1.86
4.66
10.18
14.46
17.60
19.92
21.55
22.38
22.12
20.58
17.90
14.58
11.35
8.82
7.32
6.86
7.17
7.91
8.83
9.77
10.72
11.70
12.71
13.69
14.52
15.07
15.27
15.17
14.88
14.57
14.31
14.06
13.69
13.08
12.15
10.96
9.62
8.24
6.86
5.47
4.06
2.61
1.17
-0.21
-1.53
-2.85
-4.31
-6.10
-8.38
-11.23
-14.50
-17.80
-20.56
-22.19
-22.24
-20.58
-17.47
-13.40
-8.97
-4.68
-0.79
2.64
5.74
8.62
11.29
13.67
15.57
16.89
17.60
17.88
18.00
18.12
18.28
18.33
18.02
17.23
15.97
14.48
13.03
11.81
10.81
9.90
8.91
7.81
6.72
5.81
5.21
4.85
4.55
4.08
3.28
2.17
0.88
-0.45
-1.74
-3.05
-4.49
-6.16
-8.08
-10.15
-12.27
-14.39
-16.58
-18.99
-21.78
-24.98
-28.40
-31.61
-34.03
-35.10
-34.45
-32.06
-28.22
-23.45
-18.33
-13.34
-8.74
-4.60
-0.78
2.90
6.53
10.12
13.54
16.59
19.15
21.15
22.64
23.72
24.46
24.92
25.12
25.11
25.01
24.92
24.93
25.02
25.07
24.88
24.33
23.44
22.37
21.29
20.35
19.52
18.66
17.59
16.23
14.65
13.00
11.46
10.07
8.71
7.14
5.14
2.64
-0.20
-3.07
-5.64
-7.67
-9.19
-10.44
-11.81
-13.66
-16.23
-19.50
-23.21
-26.92
-30.11
-32.28
-33.08
-32.30
-29.99
-26.40
-21.96
-17.13
-12.34
-7.83
-3.64
0.30
4.08
7.75
11.24
14.44
17.21
19.43
21.04
22.07
22.69
23.12
23.65
24.41
25.45
26.57
27.57
28.32
28.81
29.18
29.54
29.93
30.24
30.32
30.06
29.47
28.71
27.94
27.27
26.68
26.08
25.29
24.23
22.91
21.45
20.02
18.71
17.46
16.07
14.30
12.02
9.31
6.43
3.69
1.33
-0.67
-2.55
-4.65
-7.24
-10.30
-13.59
-16.69
-19.15
-20.65
-21.09
-20.53
-19.14
-17.14
-14.67
-11.88
-8.92
-5.95
-3.19
-0.82
1.06
2.45
3.46
4.27
5.04
5.87
6.74
7.55
8.13
8.36
8.20
7.75
7.19
6.71
6.36
6.08
5.65
4.88
3.75
2.35
0.84
-0.61
-1.93
-3.21
-4.50
-5.88
-7.36
-8.91
-10.51
-12.14
-13.86
-15.64
-17.46
-19.21
-20.80
-22.17
-23.35
-24.44
-25.63
-27.13
-29.12
-31.62
-34.47
-37.33
-39.74
-41.27
-41.58
-40.56
-38.28
-34.94
-30.79
-25.99
-20.68
-14.93
-8.87
-2.68
3.33
8.85
13.57
17.34
20.19
22.27
23.80
24.97
26.00
27.09
28.50
30.43
32.95
35.95
39.08
41.95
44.22
45.74
46.55
46.82
46.69
46.25
45.45
44.21
42.43
40.12
37.35
34.31
31.22
28.28
25.54
22.89
20.15
17.16
13.88
10.46
7.19
4.26
1.75
-0.49
-2.71
-5.19
-8.16
-11.72
-15.86
-20.42
-25.02
-29.12
-32.15
-33.66
-33.51
-31.94
-29.54
-26.99
-24.85
-23.39
-22.54
-22.00
-21.44
-20.59
-19.39
-17.94
-16.44
-15.14
-14.20
-13.66
-13.38
-13.16
-12.82
-12.29
-11.67
-11.10
-10.73
-10.55
-10.39
-10.06
-9.39
-8.48
-7.55
-6.95
-6.90
-7.38
-8.08
-8.53
-8.29
-7.24
-5.63
-4.02
-3.10
-3.36
-4.94
-7.63
-10.96
-14.39
-17.51
-20.05
-21.89
-23.06
-23.70
-24.12
-24.69
-25.79
-27.55
-29.74
-31.80
-33.02
-32.75
-30.74
-27.20
-22.75
-18.19
-14.15
-10.91
-8.33
-6.00
-3.49
-0.60
2.55
5.55
8.00
9.65
10.55
11.01
11.38
11.87
12.47
13.04
13.46
13.67
13.77
13.87
14.03
14.18
14.13
13.65
12.62
11.12
9.37
7.73
6.54
5.92
5.79
5.85
5.75
5.24
4.33
3.21
2.13
1.26
0.53
-0.30
-1.47
-3.19
-5.47
-8.23
-11.32
-14.57
-17.82
-20.84
-23.39
-25.16
-25.90
-25.52
-24.08
-21.86
-19.19
-16.43
-13.79
-11.30
-8.86
-6.37
-3.78
-1.22
1.05
2.78
3.83
4.27
4.39
4.54
5.01
5.89
7.04
8.19
9.04
9.40
9.27
8.80
8.20
7.66
7.25
6.85
6.24
5.24
3.77
1.88
-0.20
-2.26
-4.13
-5.77
-7.26
-8.74
-10.32
-12.12
-14.17
-16.55
-19.28
-22.34
-25.56
-28.60
-30.98
-32.19
-31.81
-29.72
-26.14
-21.54
-16.58
-11.79
-7.52
-3.77
-0.35
2.96
6.32
9.64
12.65
15.09
16.86
18.03
18.86
19.61
20.40
21.14
21.66
21.87
21.89
21.94
22.27
22.88
23.55
23.86
23.48
22.31
20.52
18.48
16.53
14.88
13.48
12.13
10.55
8.54
6.07
3.33
0.61
-1.76
-3.58
-4.87
-5.83
-6.71
-7.74
-9.07
-10.77
-12.96
-15.76
-19.18
-23.01
-26.65
-29.29
-30.16
-28.89
-25.67
-21.19
-16.37
-11.95
-8.28
-5.22
-2.42
0.48
3.64
6.92
10.00
12.57
14.51
15.93
17.12
18.36
19.82
21.43
22.96
24.17
24.93
25.36
25.68
26.15
26.87
27.71
28.34
28.43
27.76
26.41
24.71
23.08
21.86
21.17
20.82
20.47
19.81
18.69
17.14
15.35
13.52
11.75
10.02
8.19
6.17
3.87
1.30
-1.50
-4.49
-7.74
-11.22
-14.80
-18.14
-20.68
-21.89
-21.37
-19.14
-15.63
-11.54
-7.57
-4.16
-1.39
1.00
3.32
5.73
8.12
10.16
11.51
12.02
11.83
11.32
10.89
10.76
10.87
10.99
10.84
10.31
9.54
8.75
8.14
7.73
7.33
6.67
5.58
4.04
2.21
0.34
-1.42
-3.06
-4.75
-6.71
-9.09
-11.88
-14.86
-17.67
-19.96
-21.50
-22.32
-22.74
-23.20
-24.19
-26.04
-28.78
-32.23
-35.97
-39.47
-42.19
-43.59
-43.33
-41.31
-37.77
-33.24
-28.32
-23.56
-19.21
-15.20
-11.30
-7.27
-3.05
1.21
5.20
8.62
11.25
13.08
14.30
15.21
16.10
17.20
18.51
19.88
21.01
21.72
21.95
21.84
21.59
21.38
21.21
20.93
20.38
19.44
18.15
16.65
15.08
13.51
11.94
10.28
8.47
6.52
4.48
2.47
0.65
-0.95
-2.35
-3.75
-5.45
-7.72
-10.70
-14.33
-18.33
-22.32
-25.87
-28.54
-29.97
-29.87
-28.16
-24.93
-20.60
-15.75
-10.94
-6.57
-2.72
0.77
4.17
7.63
11.13
14.44
17.33
19.59
21.21
22.33
23.17
23.95
24.74
25.50
26.03
26.20
25.97
25.49
25.06
24.95
25.23
25.72
26.09
26.01
25.36
24.22
22.84
21.41
19.98
18.41
16.52
14.26
11.71
9.10
6.68
4.59
2.85
1.29
-0.28
-2.02
-3.95
-5.99
-7.98
-9.80
-11.50
-13.25
-15.29
-17.82
-20.80
-23.92
-26.66
-28.45
-28.84
-27.67
-25.12
-21.61
-17.68
-13.76
-10.10
-6.70
-3.37
0.07
3.70
7.39
10.89
13.96
16.48
18.48
20.06
21.32
22.33
23.08
23.59
23.93
24.24
24.66
25.21
25.84
26.33
26.48
26.12
25.25
23.96
22.47
21.00
19.71
18.65
17.73
16.78
15.69
14.42
12.99
11.47
9.91
8.27
6.51
4.62
2.66
0.72
-1.16
-3.02
-5.01
-7.33
-10.10
-13.26
-16.63
-19.95
-23.00
-25.61
-27.69
-29.12
-29.80
-29.63
-28.58
-26.80
-24.51
-22.02
-19.57
-17.27
-15.14
-13.15
-11.32
-9.69
-8.36
-7.39
-6.79
-6.50
-6.45
-6.50
-6.49
-6.29
-5.81
-5.05
-4.11
-3.11
-2.23
-1.55
-1.05
-0.69
-0.44
-0.31
-0.35
-0.61
-1.07
-1.68
-2.37
-3.10
-3.90
-4.82
-5.97
-7.36
-8.97
-10.67
-12.28
-13.60
-14.54
-15.19
-15.81
-16.77
-18.39
-20.75
-23.66
-26.67
-29.23
-30.88
-31.38
-30.77
-29.25
-27.12
-24.60
-21.80
-18.72
-15.34
-11.67
-7.82
-3.97
-0.31
3.03
6.02
8.59
10.75
12.41
13.56
14.22
14.53
14.69
14.91
15.33
15.93
16.66
17.39
18.06
18.58
18.86
18.81
18.31
17.30
15.84
14.10
12.34
10.80
9.69
9.01
8.60
8.14
7.34
6.04
4.30
2.38
0.57
-0.94
-2.21
-3.50
-5.20
-7.56
-10.68
-14.41
-18.40
-22.28
-25.62
-28.10
-29.45
-29.55
-28.41
-26.20
-23.15
-19.57
-15.77
-12.00
-8.42
-5.12
-2.09
0.80
3.67
6.58
9.48
12.24
14.64
16.55
17.96
19.02
19.93
20.84
21.81
22.77
23.59
24.23
24.66
24.93
25.07
25.11
24.99
24.69
24.22
23.66
23.12
22.68
22.38
22.13
21.79
21.21
20.32
19.12
17.70
16.22
14.78
13.42
12.09
10.66
8.99
7.01
4.69
2.10
-0.67
-3.54
-6.39
-9.18
-11.82
-14.17
-16.04
-17.15
-17.24
-16.18
-14.10
-11.32
-8.30
-5.43
-2.91
-0.72
1.32
3.38
5.51
7.60
9.48
11.00
12.08
12.79
13.25
13.61
13.96
14.34
14.72
14.98
15.02
14.77
14.30
13.69
13.07
12.46
11.73
10.67
9.12
7.02
4.57
2.00
-0.44
-2.70
-4.93
-7.35
-10.09
-13.10
-16.14
-18.93
-21.29
-23.26
-25.06
-26.97
-29.21
-31.84
-34.79
-37.85
-40.81
-43.43
-45.43
-46.53
-46.51
-45.23
-42.74
-39.28
-35.25
-31.09
-27.13
-23.53
-20.21
-16.95
-13.56
-10.02
-6.48
-3.26
-0.64
1.26
2.54
3.48
4.37
5.37
6.45
7.45
8.23
8.75
9.11
9.49
10.02
10.70
11.39
11.86
11.93
11.50
10.65
9.58
8.53
7.67
7.02
6.41
5.60
4.40
2.75
0.77
-1.32
-3.30
-5.08
-6.74
-8.46
-10.48
-12.99
-16.04
-19.47
-22.89
-25.77
-27.56
-27.89
-26.73
-24.38
-21.39
-18.26
-15.30
-12.53
-9.80
-6.95
-3.87
-0.64
2.59
5.64
8.36
10.64
12.41
13.69
14.57
15.21
15.82
16.56
17.47
18.48
19.44
20.21
20.71
20.94
20.89
20.59
20.05
19.27
18.28
17.14
15.88
14.53
13.10
11.57
9.92
8.16
6.27
4.31
2.40
0.69
-0.68
-1.66
-2.40
-3.26
-4.67
-6.97
-10.25
-14.25
-18.50
-22.39
-25.40
-27.12
-27.33
-26.09
-23.61
-20.27
-16.53
-12.76
-9.18
-5.82
-2.61
0.62
3.94
7.38
10.83
14.22
17.36
20.12
22.33
23.93
24.91
25.45
25.77
26.11
26.60
27.23
27.83
28.21
28.22
27.79
26.97
25.90
24.72
23.57
22.59
21.89
21.60
21.88
22.74
24.14
25.81
27.37
28.41
28.57
27.68
25.72
22.89
19.51
15.85
12.02
7.98
3.53
-1.50
-7.16
-13.26
-19.42
-25.16
-30.04
-33.72
-35.95
-36.59
-35.59
-33.01
-29.16
-24.49
-19.56
-14.83
-10.54
-6.70
-3.16
0.18
3.28
5.92
7.84
8.81
8.78
7.93
6.56
5.10
3.89
3.11
2.78
2.72
2.71
2.58
2.28
1.87
1.39
0.79
-0.02
-1.17
-2.64
-4.25
-5.69
-6.67
-7.12
-7.20
-7.27
-7.70
-8.65
-10.01
-11.54
-12.88
-13.89
-14.64
-15.43
-16.62
-18.48
-21.06
-24.23
-27.71
-31.11
-34.07
-36.20
-37.18
-36.83
-35.20
-32.60
-29.55
-26.57
-24.02
-21.94
-20.13
-18.24
-16.04
-13.51
-10.87
-8.52
-6.80
-5.83
-5.48
-5.39
-5.10
-4.29
-2.87
-0.93
1.27
3.53
5.72
7.80
9.70
11.30
12.39
12.82
12.53
11.64
10.37
9.01
7.86
7.16
7.04
7.48
8.29
9.11
9.60
9.52
8.84
7.71
6.36
4.86
3.08
0.75
-2.41
-6.50
-11.42
-16.88
-22.50
-27.87
-32.57
-36.08
-37.88
-37.52
-34.80
-29.87
-23.28
-15.79
-8.24
-1.25
4.81
9.89
14.10
17.55
20.32
22.41
23.84
24.71
25.19
25.47
25.62
25.62
25.31
24.51
23.12
21.19
18.91
16.60
14.57
13.10
12.35
12.25
12.58
13.01
13.22
13.05
12.55
11.89
11.22
10.56
9.77
8.64
7.03
4.98
2.68
0.39
-1.68
-3.38
-4.70
-5.72
-6.52
-7.26
-8.10
-9.21
-10.73
-12.73
-15.14
-17.71
-20.05
-21.70
-22.26
-21.53
-19.60
-16.84
-13.78
-10.92
-8.57
-6.82
-5.57
-4.68
-4.03
-3.63
-3.52
-3.74
-4.26
-4.93
-5.52
-5.83
-5.66
-4.99
-3.93
-2.75
-1.75
-1.14
-0.95
-1.03
-1.14
-1.08
-0.85
-0.57
-0.46
-0.60
-0.94
-1.26
-1.39
-1.32
-1.27
-1.57
-2.48
-4.00
-5.90
-7.83
-9.50
-10.81
-11.95
-13.19
-14.86
-17.17
-20.15
-23.64
-27.23
-30.37
-32.38
-32.65
-30.81
-26.80
-20.95
-13.88
-6.36
0.87
7.23
12.38
16.29
19.10
21.14
22.73
24.09
25.26
26.18
26.72
26.88
26.79
26.67
26.77
27.13
27.62
27.96
27.90
27.35
26.45
25.47
24.67
24.15
23.80
23.35
22.53
21.19
19.41
17.40
15.45
13.72
12.21
10.81
9.31
7.59
5.57
3.32
0.96
-1.37
-3.58
-5.65
-7.60
-9.48
-11.38
-13.40
-15.61
-18.12
-20.97
-24.08
-27.22
-29.93
-31.66
-31.81
-30.05
-26.46
-21.55
-16.11
-10.92
-6.41
-2.54
1.01
4.66
8.57
12.60
16.32
19.35
21.46
22.77
23.56
24.17
24.87
25.70
26.61
27.44
28.09
28.53
28.81
29.03
29.27
29.52
29.70
29.67
29.34
28.71
27.90
26.99
26.02
24.90
23.50
21.77
19.87
18.07
16.66
15.74
15.14
14.51
13.51
11.92
9.80
7.40
5.00
2.80
0.80
-1.09
-3.01
-5.06
-7.25
-9.52
-11.80
-13.97
-15.87
-17.30
-18.04
-17.91
-16.85
-14.92
-12.38
-9.57
-6.81
-4.35
-2.34
-0.86
0.07
0.50
0.51
0.27
-0.07
-0.41
-0.66
-0.84
-0.93
-0.90
-0.69
-0.29
0.22
0.64
0.73
0.33
-0.60
-1.91
-3.36
-4.71
-5.84
-6.78
-7.67
-8.68
-9.86
-11.15
-12.43
-13.61
-14.67
-15.66
-16.64
-17.57
-18.35
-18.85
-19.02
-18.99
-19.06
-19.55
-20.76
-22.82
-25.64
-28.89
-32.11
-34.76
-36.34
-36.52
-35.22
-32.60
-29.01
-24.87
-20.57
-16.35
-12.35
-8.58
-4.98
-1.44
2.06
5.54
8.86
11.88
14.47
16.56
18.23
19.63
20.98
22.41
23.96
25.55
27.00
28.17
28.93
29.30
29.34
29.19
28.96
28.69
28.35
27.80
26.91
25.56
23.73
21.45
18.81
15.92
12.86
9.68
6.40
2.99
-0.56
-4.18
-7.73
-11.02
-13.84
-16.17
-18.15
-20.06
-22.16
-24.61
-27.40
-30.36
-33.27
-35.92
-38.03
-39.33
-39.49
-38.24
-35.54
-31.70
-27.25
-22.83
-18.91
-15.57
-12.65
-9.79
-6.73
-3.40
0.11
3.61
6.92
9.89
12.44
14.54
16.17
17.36
18.17
18.65
18.85
18.80
18.59
18.36
18.22
18.20
18.23
18.13
17.74
16.99
15.97
14.82
13.70
12.62
11.55
10.44
9.33
8.34
7.60
7.14
6.83
6.41
5.58
4.18
2.22
-0.07
-2.38
-4.43
-6.13
-7.60
-9.17
-11.16
-13.73
-16.74
-19.77
-22.31
-23.93
-24.43
-23.81
-22.28
-20.13
-17.62
-14.97
-12.27
-9.51
-6.61
-3.48
-0.16
3.17
6.20
8.65
10.42
11.68
12.73
13.89
15.29
16.80
18.25
19.45
20.41
21.21
21.95
22.65
23.26
23.66
23.82
23.77
23.59
23.35
23.07
22.76
22.45
22.22
22.21
22.51
23.14
24.00
24.92
25.68
26.12
26.10
25.54
24.43
22.78
20.66
18.11
15.23
12.09
8.81
5.52
2.32
-0.69
-3.48
-6.03
-8.34
-10.29
-11.68
-12.23
-11.76
-10.28
-8.06
-5.51
-3.06
-0.94
0.87
2.59
4.49
6.68
9.13
11.60
13.87
15.75
17.21
18.32
19.24
20.15
21.23
22.64
24.44
26.65
29.17
31.86
34.55
37.07
39.32
41.26
42.88
44.24
45.42
46.50
47.57
48.61
49.44
49.69
48.93
46.80
43.24
38.59
33.49
28.62
24.43
20.91
17.71
14.32
10.40
6.01
1.55
-2.33
-5.08
-6.44
-6.53
-5.77
-4.71
-3.81
-3.34
-3.31
-3.64
-4.30
-5.41
-7.16
-9.72
-12.94
-16.38
-19.47
-21.75
-23.13
-23.96
-24.76
-25.93
-27.50
-29.12
-30.28
-30.68
-30.35
-29.74
-29.48
-30.11
-31.91
-34.82
-38.54
-42.66
-46.81
-50.70
-54.14
-57.06
-59.43
-61.28
-62.71
-63.84
-64.75
-65.50
-65.97
-65.93
-65.06
-63.17
-60.26
-56.64
-52.83
-49.38
-46.63
-44.57
-42.79
-40.71
-37.78
-33.71
-28.67
-23.11
-17.62
-12.65
-8.38
-4.68
-1.29
1.97
5.15
8.15
10.89
13.38
15.82
18.40
21.19
24.04
26.58
28.44
29.43
29.63
29.35
28.94
28.64
28.48
28.34
28.00
27.34
26.30
24.96
23.41
21.71
19.89
17.95
15.88
13.69
11.40
9.07
6.74
4.47
2.27
0.14
-1.93
-3.99
-6.10
-8.27
-10.50
-12.76
-15.01
-17.12
-18.88
-19.94
-19.89
-18.46
-15.53
-11.37
-6.51
-1.53
3.13
7.39
11.54
15.98
20.99
26.51
32.08
37.12
41.13
43.92
45.68
46.87
47.97
49.22
50.69
52.25
53.79
55.28
56.82
58.46
60.12
61.50
62.23
62.01
60.74
58.58
55.88
52.92
49.86
46.68
43.22
39.36
35.11
30.50
25.63
20.53
15.12
9.33
3.14
-3.32
-9.83
-16.07
-21.84
-26.98
-31.42
-35.03
-37.58
-38.68
-37.94
-35.16
-30.46
-24.36
-17.51
-10.55
-3.80
2.79
9.53
16.83
24.96
33.95
43.62
53.67
63.82
73.85
83.71
93.54
103.63
114.19
125.09
135.52
143.94
148.44
147.38
140.09
127.22
110.61
92.58
75.18
59.55
45.86
33.62
22.18
11.14
0.50
-9.42
-18.23
-25.62
-31.50
-35.99
-39.39
-42.05
-44.20
-45.88
-46.83
-46.57
-44.68
-41.05
-36.14
-30.96
-26.86
-25.14
-26.61
-31.39
-39.13
-49.18
-60.99
-74.45
-89.86
-108.03
-130.48
-159.47
-197.49
-245.94
-303.25
-363.70
-417.95
-455.51
-468.60
-455.13
-419.57
-370.70
-317.81
-267.19
-220.54
-176.08
-130.84
-82.64
-30.55
25.96
87.61
154.96
226.62
298.09
361.49
407.98
430.53
426.62
399.02
354.30
300.64
245.45
194.68
152.79
123.62
110.20
113.82
132.72
161.17
190.54
211.57
217.52
206.59
182.42
152.59
125.29
106.27
97.00
95.07
96.09
95.95
92.31
84.58
73.42
59.72
44.61
29.08
14.34
1.33
-9.69
-19.39
-29.36
-41.32
-56.46
-74.79
-95.41
-116.99
-138.52
-159.79
-181.16
-203.18
-225.67
-247.52
-266.85
-281.49
-289.67
-290.17
-282.23
-265.42
-239.88
-206.72
-168.34
-128.03
-89.17
-54.20
-24.20
0.77
20.87
35.72
44.57
46.84
42.94
34.30
22.86
10.30
-2.54
-15.40
-28.11
-40.11
-50.44
-58.16
-62.46
-62.86
-59.08
-51.25
-40.09
-27.00
-13.69
-1.62
8.93
19.18
31.19
46.53
65.01
84.19
100.33
110.24
113.01
110.52
106.21
102.81
100.51
96.42
86.08
66.04
35.94
-1.07
-39.64
-74.87
-104.43
-129.24
-152.68
-179.20
-212.78
-256.06
-309.73
-371.75
-437.29
-499.27
-550.07
-584.00
-599.33
-598.66
-587.48
-571.59
-554.76
-538.08
-520.71
-501.53
-480.28
-457.65
-434.35
-410.32
-384.64
-356.18
-324.61
-290.87
-256.91
-224.92
-196.29
-170.97
-147.65
-124.39
-99.61
-72.83
-44.92
-17.74
6.67
26.88
42.49
54.04
62.54
68.87
73.45
76.34
77.73
78.44
80.32
86.05
98.53
120.01
151.40
192.09
240.23
293.45
349.47
406.61
463.79
520.62
577.34
634.63
692.90
751.28
806.51
852.93
883.74
893.32
879.60
845.13
796.11
740.04
683.05
628.44
576.88
527.81
480.96
436.90
396.53
360.23
327.22
295.82
264.31
231.79
198.48
165.59
134.62
106.61
81.71
59.14
37.53
15.54
-7.70
-32.22
-57.28
-81.73
-104.46
-124.82
-142.96
-159.68
-176.16
-193.51
-212.32
-232.37
-252.81
-272.44
-290.28
-306.15
-320.88
-336.12
-353.77
-375.25
-400.77
-429.19
-458.43
-486.04
-509.96
-529.00
-542.81
-551.77
-556.89
-559.71
-562.09
-565.20
-568.25
-567.64
-557.40
-531.26
-485.59
-421.69
-346.02
-268.12
-197.22
-139.32
-96.00
-65.40
-44.29
-29.87
-20.38
-14.54
-10.74
-6.76
-0.33
9.94
23.90
39.96
55.51
68.06
76.03
79.09
78.06
74.24
68.88
62.60
55.40
46.79
36.31
23.91
10.12
-3.93
-16.83
-27.19
-33.99
-36.79
-35.74
-31.50
-24.97
-17.06
-8.44
0.62
10.28
20.86
32.62
45.43
58.65
71.26
82.13
90.52
96.29
100.10
103.23
107.37
114.46
126.31
144.06
167.41
194.04
219.63
238.89
247.22
242.44
225.66
200.66
172.40
145.07
121.07
100.95
84.37
71.21
62.09
58.18
60.42
69.01
83.15
101.39
122.20
144.24
166.53
188.27
208.68
226.89
242.12
253.86
261.99
266.73
268.49
267.68
264.63
259.57
252.84
244.81
235.84
226.10
215.55
204.09
191.85
179.30
167.14
155.97
145.83
136.02
125.48
113.35
99.54
84.95
71.17
59.60
50.82
44.29
38.41
31.33
21.70
9.10
-6.00
-22.57
-39.69
-56.84
-73.86
-90.61
-106.60
-121.03
-133.07
-142.24
-148.47
-151.84
-152.31
-149.64
-143.75
-135.26
-125.78
-117.67
-113.20
-113.77
-119.40
-129.03
-141.13
-154.44
-168.31
-182.62
-197.40
-212.51
-227.67
-242.70
-257.67
-273.03
-289.27
-306.34
-322.97
-336.43
-342.90
-338.73
-321.82
-292.61
-254.06
-210.47
-165.78
-122.14
-79.64
-37.12
6.14
49.27
89.55
123.26
147.12
159.53
160.95
153.58
140.66
125.67
111.81
101.57
96.41
96.64
101.45
109.46
119.19
129.66
140.45
151.43
162.46
173.39
184.55
196.58
210.11
224.72
238.46
248.20
250.96
245.38
232.38
214.47
194.38
173.83
153.22
132.38
111.45
91.16
72.17
54.13
35.22
12.96
-14.37
-46.30
-80.13
-112.00
-138.68
-158.73
-172.94
-183.57
-193.11
-203.11
-213.65
-223.41
-230.09
-231.29
-225.27
-211.61
-191.44
-167.10
-141.34
-116.45
-93.60
-72.77
-53.34
-34.67
-16.62
0.49
16.12
29.90
41.67
51.35
58.81
63.87
66.52
67.04
66.11
64.63
63.48
63.24
63.95
65.17
66.08
65.71
63.19
58.02
50.19
40.20
28.94
17.45
6.62
-2.98
-11.08
-17.55
-22.12
-24.17
-22.72
-16.86
-6.33
8.10
24.54
40.54
53.99
63.96
70.91
76.39
82.23
89.71
98.77
107.86
114.06
113.81
103.59
80.87
44.97
-2.06
-55.13
-106.55
-147.74
-171.80
-175.84
-162.29
-137.88
-111.05
-88.67
-73.71
-65.08
-59.48
-53.95
-47.53
-41.27
-36.84
-34.99
-34.94
-35.01
-33.93
-31.84
-30.24
-31.06
-35.40
-42.85
-51.54
-59.04
-63.41
-64.01
-61.59
-57.87
-54.59
-52.65
-51.41
-48.96
-43.10
-32.67
-18.78
-4.67
5.58
8.93
5.00
-3.53
-12.08
-16.22
-13.55
-4.56
8.07
20.83
30.98
37.32
40.11
40.44
39.39
37.70
35.69
33.52
31.40
29.61
28.57
28.62
29.91
32.27
35.14
37.72
39.17
38.89
36.85
33.62
30.25
27.74
26.58
26.53
26.71
26.08
23.97
20.24
15.32
9.76
3.89
-2.32
-9.21
-17.08
-25.85
-34.85
-42.84
-48.33
-49.89
-46.73
-39.01
-27.88
-15.20
-2.99
7.25
14.91
20.24
24.10
27.46
31.03
35.12
39.65
44.23
48.34
51.34
52.71
52.27
50.35
47.69
45.21
43.61
43.20
43.90
45.58
48.23
51.91
56.45
61.18
64.87
66.11
63.95
58.48
50.80
42.57
35.29
29.68
25.55
22.07
18.37
13.91
8.78
3.41
-1.69
-6.29
-10.44
-14.43
-18.54
-22.94
-27.63
-32.46
-37.32
-42.07
-46.53
-50.38
-53.12
-54.17
-52.99
-49.42
-43.72
-36.52
-28.58
-20.52
-12.72
-5.35
1.44
7.42
12.34
16.03
18.55
20.26
21.54
22.63
23.51
23.99
24.02
23.87
24.16
25.55
28.37
32.31
36.40
39.34
40.02
37.79
32.74
25.61
17.36
8.94
1.04
-5.96
-11.87
-16.68
-20.66
-24.38
-28.64
-34.20
-41.24
-49.01
-55.84
-59.66
-58.86
-53.11
-43.55
-32.36
-21.86
-13.64
-8.19
-5.07
-3.42
-2.47
-1.67
-0.54
1.50
5.16
11.03
19.16
28.84
38.77
47.40
53.49
56.49
56.62
54.67
51.73
48.84
46.73
45.72
45.67
46.19
46.77
47.11
47.19
47.27
47.56
48.06
48.46
48.28
47.12
44.90
41.90
38.64
35.56
32.98
30.91
29.22
27.72
26.17
24.32
21.94
18.87
15.09
10.76
6.14
1.51
-2.98
-7.37
-11.83
-16.56
-21.58
-26.73
-31.71
-36.18
-39.86
-42.63
-44.48
-45.44
-45.50
-44.52
-42.38
-38.92
-34.05
-27.80
-20.34
-12.14
-3.88
3.72
10.06
15.07
19.16
23.04
27.24
31.78
36.09
39.38
41.08
41.20
40.35
39.38
38.89
38.96
39.22
39.18
38.57
37.46
36.25
35.29
34.76
34.48
34.08
33.25
31.89
30.24
28.69
27.63
27.21
27.29
27.51
27.42
26.74
25.39
23.45
21.11
18.52
15.75
12.84
9.77
6.59
3.35
0.16
-2.94
-5.97
-9.04
-12.34
-16.02
-20.07
-24.20
-27.76
-29.88
-29.77
-27.06
-22.03
-15.57
-8.84
-2.84
1.88
5.31
7.71
9.34
10.36
10.76
10.57
10.00
9.38
8.98
8.88
8.96
9.01
9.04
9.36
10.48
12.80
16.40
20.91
25.57
29.54
32.11
32.88
31.69
28.66
24.06
18.28
11.85
5.53
0.21
-3.20
-3.97
-1.85
2.86
9.28
16.25
22.66
27.77
31.29
33.19
33.51
32.04
28.42
22.48
14.44
5.26
-3.74
-11.16
-16.14
-18.64
-19.46
-19.82
-20.92
-23.39
-27.04
-30.98
-33.93
-34.74
-32.80
-28.27
-21.93
-14.90
-8.24
-2.58
1.91
5.62
9.22
13.48
19.01
26.12
34.56
43.47
51.49
56.89
58.09
54.20
45.31
32.68
18.38
4.71
-6.52
-14.43
-19.17
-21.56
-22.64
-23.21
-23.64
-23.91
-23.82
-23.36
-22.71
-22.35
-22.77
-24.32
-27.00
-30.48
-34.12
-37.30
-39.53
-40.56
-40.34
-38.97
-36.64
-33.67
-30.45
-27.47
-25.05
-23.22
-21.53
-19.16
-15.25
-9.28
-1.39
7.60
16.39
23.72
28.72
31.23
31.70
30.93
29.70
28.48
27.39
26.26
24.91
23.29
21.55
19.88
18.40
17.03
15.56
13.64
11.04
7.69
3.80
-0.20
-3.76
-6.41
-7.87
-8.14
-7.51
-6.43
-5.31
-4.41
-3.85
-3.59
-3.65
-4.12
-5.22
-7.10
-9.71
-12.66
-15.25
-16.69
-16.39
-14.24
-10.59
-6.13
-1.52
2.86
6.94
10.89
14.81
18.60
21.93
24.36
25.71
26.04
25.74
25.26
24.96
24.98
25.21
25.42
25.35
24.89
24.05
22.91
21.55
20.02
18.30
16.40
14.37
12.27
10.13
7.94
5.58
2.96
0.11
-2.73
-5.23
-7.04
-8.02
-8.35
-8.45
-8.83
-9.87
-11.75
-14.41
-17.59
-20.97
-24.17
-26.79
-28.41
-28.69
-27.40
-24.57
-20.48
-15.53
-10.11
-4.43
1.38
7.26
13.10
18.62
23.46
27.28
29.86
31.19
31.44
30.81
29.57
27.93
26.10
24.28
22.73
21.62
21.07
21.11
21.59
22.22
22.62
22.38
21.28
19.33
16.79
14.08
11.57
9.52
7.97
6.74
5.61
4.33
2.75
0.75
-1.68
-4.47
-7.46
-10.39
-12.98
-15.05
-16.66
-17.99
-19.35
-20.97
-22.96
-25.35
-28.08
-31.02
-33.92
-36.44
-38.16
-38.67
-37.70
-35.26
-31.58
-26.97
-21.73
-16.02
-9.92
-3.51
3.01
9.28
14.94
19.61
23.08
25.27
26.27
26.29
25.68
24.78
23.93
23.30
22.90
22.61
22.26
21.75
21.09
20.37
19.67
18.98
18.21
17.22
15.93
14.42
12.94
11.79
11.21
11.21
11.53
11.82
11.72
11.11
10.10
8.98
8.01
7.33
6.83
6.29
5.44
4.10
2.18
-0.41
-3.70
-7.61
-11.91
-16.11
-19.63
-21.93
-22.91
-23.04
-23.34
-25.07
-29.20
-35.90
-44.37
-53.01
-59.89
-63.37
-62.65
-57.91
-50.14
-40.71
-30.88
-21.48
-12.92
-5.27
1.40
6.93
11.11
13.78
15.05
15.34
15.25
15.31
15.82
16.78
17.98
19.18
20.32
21.40
22.52
23.68
24.78
25.58
25.87
25.52
24.52
22.96
20.98
18.70
16.23
13.59
10.79
7.80
4.62
1.29
-2.18
-5.84
-9.79
-14.15
-18.95
-24.07
-29.16
-33.69
-37.13
-39.15
-39.70
-39.03
-37.50
-35.40
-32.77
-29.46
-25.23
-19.90
-13.54
-6.43
1.02
8.32
15.01
20.72
25.17
28.18
29.76
30.10
29.51
28.33
26.83
25.13
23.26
21.26
19.29
17.54
16.21
15.38
15.00
14.90
14.94
14.99
14.97
14.72
14.02
12.66
10.64
8.20
5.76
3.80
2.53
1.85
1.43
0.94
0.21
-0.73
-1.80
-2.96
-4.37
-6.24
-8.72
-11.83
-15.41
-19.23
-23.11
-26.90
-30.44
-33.57
-36.12
-37.94
-39.01
-39.38
-39.14
-38.29
-36.74
-34.38
-31.10
-27.01
-22.33
-17.39
-12.55
-8.13
-4.35
-1.40
0.63
1.81
2.32
2.44
2.45
2.47
2.39
1.99
1.05
-0.40
-2.13
-3.70
-4.76
-5.18
-5.10
-4.83
-4.59
-4.43
-4.24
-3.88
-3.34
-2.77
-2.38
-2.27
-2.34
-2.32
-2.02
-1.37
-0.52
0.28
0.78
0.84
0.31
-0.94
-3.07
-6.13
-9.96
-14.11
-17.99
-21.10
-23.11
-23.97
-23.80
-22.71
-20.74
-17.93
-14.35
-10.22
-5.82
-1.39
2.91
7.08
11.10
14.91
18.33
21.15
23.21
24.49
25.22
25.63
25.96
26.24
26.28
25.76
24.43
22.24
19.43
16.44
13.70
11.55
10.12
9.47
9.66
10.76
12.72
15.18
17.36
18.23
16.83
12.69
6.00
-2.46
-11.63
-20.61
-28.90
-36.48
-43.58
-50.29
-56.36
-61.19
-64.01
-64.23
-61.71
-56.72
-49.86
-41.69
-32.56
-22.59
-11.84
-0.55
10.77
21.31
30.29
37.13
41.62
43.97
44.60
43.95
42.38
40.05
36.96
33.10
28.56
23.65
18.78
14.41
10.83
8.15
6.29
5.04
4.26
3.83
3.67
3.68
3.66
3.36
2.62
1.43
-0.01
-1.33
-2.24
-2.63
-2.68
-2.80
-3.36
-4.50
-6.02
-7.46
-8.34
-8.52
-8.28
-8.21
-8.93
-10.79
-13.68
-17.13
-20.51
-23.27
-25.05
-25.69
-25.05
-23.07
-19.71
-15.12
-9.66
-3.89
1.58
6.14
9.39
11.15
11.51
10.87
9.82
9.01
8.92
9.79
11.48
13.68
16.04
18.27
20.20
21.71
22.72
23.18
23.16
22.84
22.42
21.99
21.39
20.30
18.36
15.43
11.67
7.53
3.55
0.12
-2.51
-4.35
-5.56
-6.44
-7.40
-8.75
-10.68
-13.08
-15.55
-17.62
-18.95
-19.52
-19.73
-20.14
-21.23
-23.25
-26.11
-29.55
-33.25
-36.87
-40.10
-42.52
-43.73
-43.36
-41.36
-38.02
-33.95
-29.87
-26.39
-23.76
-21.91
-20.52
-19.25
-17.90
-16.41
-14.85
-13.26
-11.62
-9.82
-7.71
-5.28
-2.57
0.23
2.89
5.24
7.19
8.70
9.78
10.41
10.52
10.06
9.09
7.85
6.70
6.08
6.23
7.09
8.30
9.36
9.86
9.70
9.00
8.06
7.14
6.35
5.68
5.04
4.33
3.36
1.85
-0.52
-4.00
-8.58
-13.88
-19.18
-23.66
-26.58
-27.54
-26.53
-23.83
-19.93
-15.38
-10.73
-6.39
-2.61
0.58
3.38
6.16
9.28
12.94
17.11
21.45
25.48
28.64
30.51
30.91
29.86
27.58
24.43
20.80
17.06
13.54
10.45
7.96
6.10
4.85
4.08
3.68
3.55
3.67
4.05
4.71
5.62
6.60
7.38
7.67
7.32
6.28
4.68
2.67
0.40
-2.02
-4.57
-7.25
-10.08
-13.08
-16.21
-19.37
-22.42
-25.26
-27.88
-30.33
-32.66
-34.77
-36.33
-36.87
-35.88
-33.18
-28.97
-23.85
-18.50
-13.39
-8.63
-4.05
0.54
5.11
9.33
12.74
15.07
16.39
17.14
17.84
18.84
20.08
21.19
21.75
21.47
20.44
18.95
17.39
16.01
14.84
13.77
12.69
11.61
10.61
9.75
8.99
8.12
6.90
5.25
3.31
1.43
0.01
-0.72
-0.85
-0.78
-0.98
-1.85
-3.45
-5.53
-7.68
-9.49
-10.77
-11.58
-12.27
-13.25
-14.83
-17.07
-19.77
-22.54
-25.02
-27.00
-28.40
-29.21
-29.32
-28.54
-26.65
-23.57
-19.40
-14.51
-9.33
-4.24
0.50
4.83
8.79
12.46
15.89
19.07
21.89
24.14
25.60
26.14
25.82
24.90
23.72
22.58
21.61
20.72
19.80
18.73
17.45
15.98
14.32
12.42
10.30
8.10
6.03
4.42
3.48
3.20
3.36
3.61
3.63
3.27
2.59
1.77
1.00
0.30
-0.51
-1.72
-3.59
-6.25
-9.55
-13.15
-16.67
-19.82
-22.51
-24.83
-26.91
-28.91
-30.89
-32.89
-34.92
-36.95
-38.81
-40.22
-40.83
-40.30
-38.44
-35.30
-31.13
-26.31
-21.25
-16.33
-11.85
-8.06
-5.04
-2.76
-1.07
0.29
1.54
2.79
3.99
4.95
5.53
5.69
5.60
5.55
5.85
6.65
7.86
9.22
10.43
11.27
11.76
12.09
12.45
12.93
13.43
13.70
13.58
13.06
12.27
11.35
10.37
9.18
7.55
5.31
2.51
-0.62
-3.69
-6.39
-8.64
-10.58
-12.56
-14.87
-17.65
-20.74
-23.79
-26.31
-27.94
-28.46
-27.92
-26.46
-24.27
-21.43
-17.88
-13.47
-8.10
-1.79
5.12
12.08
18.39
23.51
27.20
29.62
31.20
32.42
33.48
34.27
34.49
33.79
32.09
29.56
26.52
23.25
19.91
16.50
13.04
9.65
6.62
4.30
3.00
2.81
3.63
5.22
7.23
9.24
10.72
10.97
9.21
4.79
-2.54
-12.39
-23.72
-35.01
-44.60
-51.13
-53.80
-52.50
-47.72
-40.39
-31.54
-22.21
-13.25
-5.34
0.98
5.38
7.75
8.25
7.41
6.04
5.00
4.92
5.96
7.77
9.70
11.03
11.31
10.56
9.12
7.57
6.50
6.29
7.03
8.55
10.48
12.40
14.00
15.13
15.82
16.21
16.41
16.42
16.14
15.43
14.31
13.03
11.99
11.60
12.01
13.02
14.09
14.64
14.27
12.99
11.17
9.29
7.67
6.38
5.19
3.78
1.85
-0.83
-4.40
-8.98
-14.57
-21.02
-27.93
-34.63
-40.37
-44.38
-46.18
-45.54
-42.62
-37.72
-31.16
-23.12
-13.73
-3.21
7.91
18.59
27.43
33.05
34.52
31.74
25.48
17.14
8.26
0.16
-6.33
-10.85
-13.37
-14.06
-13.12
-10.80
-7.39
-3.31
0.93
4.70
7.42
8.81
8.86
7.86
6.23
4.32
2.25
-0.00
-2.53
-5.31
-8.21
-10.98
-13.36
-15.18
-16.32
-16.76
-16.54
-15.78
-14.67
-13.49
-12.61
-12.40
-13.11
-14.92
-17.81
-21.56
-25.74
-29.86
-33.35
-35.76
-36.76
-36.16
-33.88
-29.92
-24.33
-17.33
-9.27
-0.67
7.90
15.85
22.61
27.58
30.23
30.15
27.33
22.30
16.18
10.50
6.75
6.00
8.60
14.21
21.97
30.77
39.43
46.83
51.97
54.13
52.95
48.57
41.64
33.12
24.06
15.41
7.83
1.66
-3.04
-6.38
-8.50
-9.51
-9.54
-8.75
-7.53
-6.50
-6.37
-7.74
-10.85
-15.44
-20.79
-26.08
-30.51
-33.53
-34.83
-34.25
-31.81
-27.68
-22.30
-16.26
-10.10
-4.16
1.51
7.03
12.47
17.64
22.14
25.57
27.75
28.84
29.30
29.60
29.96
30.31
30.37
29.93
29.01
27.97
27.43
28.05
30.25
34.05
38.89
43.59
46.46
45.47
38.83
25.50
5.77
-18.52
-44.19
-67.54
-85.22
-95.10
-96.67
-90.82
-79.37
-64.42
-47.88
-31.29
-15.92
-2.71
7.60
14.67
18.62
20.04
19.83
18.96
18.15
17.62
17.16
16.24
14.36
11.38
7.59
3.70
0.50
-1.31
-1.36
0.43
3.84
8.43
13.59
18.64
22.89
25.83
27.24
27.13
25.71
23.25
20.06
16.49
12.96
9.92
7.69
6.22
5.10
3.69
1.40
-2.03
-6.41
-11.24
-15.89
-19.85
-22.80
-24.57
-25.09
-24.40
-22.77
-20.76
-19.18
-18.86
-20.41
-24.05
-29.49
-36.00
-42.64
-48.44
-52.60
-54.66
-54.55
-52.61
-49.47
-45.87
-42.40
-39.39
-36.90
-34.74
-32.67
-30.47
-27.98
-24.99
-21.25
-16.49
-10.54
-3.51
4.15
11.72
18.47
23.84
27.62
29.85
30.68
30.11
27.98
24.14
18.65
11.93
4.80
-1.90
-7.62
-12.53
-17.42
-23.45
-31.62
-42.16
-54.35
-66.60
-77.10
-84.51
-88.66
-90.84
-93.42
-99.06
-109.83
-126.57
-148.65
-174.11
-199.92
-222.41
-237.79
-242.82
-235.76
-216.78
-188.14
-153.34
-115.92
-78.19
-40.59
-2.16
38.13
79.91
120.75
156.70
183.78
199.72
204.82
201.73
194.26
185.88
178.68
173.45
170.14
168.68
169.28
172.19
177.33
184.05
191.30
197.88
202.73
204.98
203.93
199.28
191.31
181.10
170.28
160.45
152.34
145.50
138.50
129.85
118.99
106.76
95.06
85.81
79.96
77.01
75.40
73.47
70.35
66.30
62.33
59.51
58.12
57.54
56.54
54.00
49.46
43.19
36.02
28.79
21.99
15.65
9.55
3.46
-2.63
-8.47
-13.86
-18.72
-23.35
-28.17
-33.55
-39.48
-45.62
-51.42
-56.58
-61.26
-66.14
-72.10
-79.82
-89.31
-99.83
-110.14
-118.92
-125.21
-128.66
-129.41
-127.85
-124.31
-118.96
-111.82
-103.01
-92.88
-82.09
-71.58
-62.20
-54.57
-48.97
-45.35
-43.52
-43.25
-44.30
-46.28
-48.66
-50.84
-52.30
-52.90
-52.90
-52.91
-53.52
-54.97
-57.05
-59.16
-60.62
-60.93
-59.90
-57.68
-54.61
-51.08
-47.48
-44.04
-40.90
-37.96
-35.02
-31.83
-28.15
-23.76
-18.50
-12.19
-4.67
4.04
13.66
23.49
32.47
39.47
43.63
44.63
42.70
38.51
32.81
26.35
19.74
13.76
9.34
7.57
9.30
14.83
23.60
34.39
45.75
56.59
66.36
75.09
82.84
89.27
93.50
94.31
90.68
82.31
69.82
54.61
38.39
22.70
8.62
-3.26
-12.64
-19.47
-23.78
-25.85
-26.18
-25.43
-24.28
-23.17
-22.27
-21.42
-20.40
-19.06
-17.46
-15.84
-14.53
-13.86
-14.03
-15.14
-17.08
-19.66
-22.59
-25.61
-28.53
-31.26
-33.77
-36.01
-37.91
-39.30
-40.04
-40.06
-39.44
-38.35
-36.96
-35.46
-33.88
-32.22
-30.46
-28.60
-26.73
-25.00
-23.50
-22.24
-21.11
-20.02
-19.00
-18.16
-17.72
-17.72
-17.95
-17.93
-17.09
-15.01
-11.61
-7.20
-2.34
2.37
6.53
10.00
12.87
15.38
17.78
20.19
22.56
24.69
26.36
27.37
27.74
27.63
27.29
26.95
26.73
26.64
26.59
26.55
26.57
26.79
27.38
28.51
30.19
32.39
34.93
37.60
40.13
42.30
43.88
44.62
44.29
42.70
39.79
35.76
31.02
26.10
21.40
17.10
13.00
8.75
3.97
-1.39
-7.05
-12.45
-17.04
-20.49
-22.88
-24.53
-25.87
-27.13
-28.26
-29.05
-29.23
-28.76
-27.83
-26.88
-26.32
-26.40
-27.15
-28.32
-29.57
-30.58
-31.10
-31.02
-30.36
-29.24
-27.84
-26.32
-24.79
-23.29
-21.83
-20.46
-19.31
-18.52
-18.20
-18.29
-18.63
-18.98
-19.16
-19.02
-18.55
-17.70
-16.43
-14.71
-12.56
-10.12
-7.70
-5.63
-4.22
-3.56
-3.55
-3.93
-4.37
-4.65
-4.68
-4.47
-4.08
-3.53
-2.75
-1.68
-0.31
1.28
2.89
4.30
5.34
5.91
6.08
5.93
5.58
5.11
4.60
4.11
3.79
3.71
3.90
4.24
4.48
4.44
4.10
3.65
3.43
3.73
4.61
5.82
6.94
7.60
7.67
7.29
6.81
6.55
6.69
7.16
7.73
8.16
8.22
7.82
6.96
5.69
4.06
2.08
-0.30
-3.13
-6.36
-9.74
-12.79
-14.93
-15.62
-14.69
-12.33
-9.14
-5.83
-2.93
-0.61
1.33
3.31
5.68
8.59
11.93
15.53
19.25
23.06
26.97
30.97
34.90
38.49
41.53
43.93
45.75
47.10
48.01
48.36
47.95
46.64
44.45
41.58
38.39
35.16
32.15
29.42
26.97
24.73
22.67
20.76
19.03
17.51
16.22
15.15
14.25
13.52
12.96
12.66
12.77
13.42
14.60
16.10
17.44
17.93
16.78
13.34
7.30
-1.11
-11.10
-21.47
-31.02
-38.85
-44.63
-48.55
-51.08
-52.80
-54.06
-55.00
-55.57
-55.68
-55.26
-54.38
-53.15
-51.70
-50.14
-48.53
-46.89
-45.35
-44.21
-43.91
-44.94
-47.55
-51.67
-56.90
-62.65
-68.45
-74.08
-79.52
-84.88
-90.25
-95.70
-101.42
-107.74
-114.93
-122.95
-131.19
-138.50
-143.55
-145.43
-143.98
-139.91
-134.32
-128.16
-121.89
-115.38
-108.20
-99.99
-90.74
-80.66
-70.14
-59.58
-49.39
-40.12
-32.31
-26.18
-21.14
-15.42
-6.18
9.68
34.49
68.76
110.82
157.11
203.10
244.32
277.10
298.96
308.77
306.78
294.64
275.23
252.16
228.86
207.68
189.43
173.44
158.31
142.76
126.32
109.43
93.08
78.31
65.73
55.46
47.20
40.53
35.06
30.50
26.61
23.20
19.98
16.62
12.78
8.22
2.82
-3.45
-10.55
-18.45
-27.08
-36.26
-45.61
-54.67
-63.00
-70.48
-77.39
-84.32
-91.77
-99.79
-107.70
-114.25
-117.99
-117.85
-113.45
-105.21
-94.09
-81.30
-67.96
-55.07
-43.40
-33.60
-26.03
-20.75
-17.48
-15.71
-14.96
-14.86
-15.22
-15.95
-16.97
-18.17
-19.49
-20.93
-22.57
-24.42
-26.31
-27.91
-28.86
-28.97
-28.33
-27.30
-26.23
-25.27
-24.25
-22.77
-20.29
-16.34
-10.41
-2.08
9.16
23.63
41.34
61.84
84.27
107.47
130.31
151.85
171.39
188.36
202.26
212.67
219.30
222.15
221.54
218.01
212.12
204.26
194.59
183.04
169.51
154.05
136.98
118.87
100.50
82.72
66.20
51.38
38.33
26.79
16.31
6.46
-3.01
-12.10
-20.65
-28.47
-35.46
-41.60
-46.93
-51.42
-55.00
-57.65
-59.55
-61.10
-62.86
-65.24
-68.32
-71.72
-74.76
-76.75
-77.23
-76.25
-74.20
-71.66
-69.10
-66.72
-64.48
-62.15
-59.57
-56.65
-53.49
-50.20
-46.87
-43.48
-39.96
-36.23
-32.21
-27.83
-23.04
-17.75
-11.90
-5.37
1.92
10.06
19.02
28.71
38.81
48.94
58.62
67.53
75.57
82.91
89.90
96.81
103.69
110.24
115.91
120.23
122.98
124.36
124.93
125.29
125.73
125.97
125.16
122.01
115.13
103.34
85.94
62.95
35.21
4.47
-26.82
-55.83
-79.99
-97.54
-108.02
-112.31
-112.32
-110.40
-108.55
-107.97
-108.75
-110.20
-111.31
-111.39
-110.47
-109.27
-108.68
-109.16
-110.48
-112.00
-113.34
-114.94
-117.89
-123.03
-130.06
-136.97
-140.75
-138.64
-129.61
-114.90
-97.44
-80.49
-66.29
-55.60
-48.05
-43.11
-40.74
-41.39
-45.48
-52.76
-61.96
-71.19
-78.56
-82.98
-84.56
-84.53
-84.62
-86.27
-90.09
-95.48
-100.92
-104.49
-104.60
-100.48
-92.46
-81.84
-70.47
-60.21
-52.37
-47.35
-44.59
-42.79
-40.45
-36.45
-30.35
-22.49
-13.71
-4.96
3.00
9.76
15.20
19.44
22.71
25.44
28.15
31.39
35.59
40.76
46.41
51.71
55.72
57.93
58.32
57.41
55.78
53.62
50.21
43.99
32.98
15.65
-8.17
-36.88
-67.36
-95.83
-119.05
-135.33
-144.91
-149.76
-152.78
-156.90
-164.16
-175.20
-189.03
-203.36
-215.17
-221.65
-221.05
-213.09
-198.88
-180.21
-158.83
-135.85
-111.79
-87.02
-62.21
-38.66
-17.99
-1.39
11.24
21.78
33.85
52.06
80.73
122.64
177.90
243.68
314.80
385.17
449.52
504.61
549.52
584.83
611.32
628.89
636.44
632.65
617.22
591.61
558.93
522.86
486.43
451.14
417.01
383.35
349.53
315.50
281.72
248.74
216.77
185.66
155.10
124.90
95.20
66.35
38.60
11.73
-15.11
-43.30
-73.96
-107.10
-140.93
-171.83
-195.37
-207.97
-208.77
-200.40
-188.54
-179.78
-179.21
-188.52
-205.76
-226.60
-246.29
-261.49
-270.96
-275.57
-277.79
-281.12
-289.26
-304.99
-328.92
-358.46
-388.14
-411.09
-421.51
-416.83
-398.36
-370.24
-337.47
-304.13
-272.76
-244.77
-221.22
-203.17
-191.36
-185.63
-184.74
-186.70
-189.66
-192.57
-195.36
-198.47
-202.38
-207.02
-211.66
-215.06
-215.70
-212.05
-202.75
-186.87
-164.20
-135.31
-101.54
-64.60
-26.18
12.43
50.40
87.28
122.76
156.48
188.06
217.07
243.23
266.32
286.09
302.12
313.85
320.61
321.95
317.87
308.99
296.49
281.93
266.84
252.41
239.27
227.45
216.63
206.36
196.38
186.75
177.78
169.88
163.44
158.58
155.08
152.51
150.32
148.12
145.76
143.33
140.93
138.42
135.22
130.40
123.07
112.77
99.86
85.29
70.26
55.59
41.35
26.89
11.29
-6.19
-25.62
-46.32
-67.12
-86.43
-102.56
-113.83
-118.91
-117.40
-110.28
-99.93
-89.54
-81.98
-78.79
-79.69
-82.77
-85.32
-84.65
-78.66
-66.05
-46.30
-19.81
11.86
45.94
78.76
106.66
127.05
139.25
144.58
145.74
145.62
146.24
148.04
149.94
150.04
146.49
138.23
125.10
107.59
86.34
61.70
33.70
2.14
-33.25
-72.87
-117.10
-165.79
-217.40
-268.15
-312.21
-343.04
-355.99
-350.66
-331.88
-308.50
-290.16
-283.58
-290.12
-305.75
-323.13
-334.81
-335.92
-325.35
-305.40
-280.47
-255.62
-235.41
-223.17
-220.33
-226.17
-237.81
-250.61
-259.15
-258.48
-244.99
-216.88
-173.89
-116.94
-47.86
30.60
114.56
199.20
279.44
350.89
410.73
457.92
492.62
515.36
526.62
526.87
517.21
499.53
476.00
448.05
415.22
375.06
324.17
259.81
181.17
89.85
-10.65
-115.29
-217.81
-310.89
-386.79
-438.81
-463.28
-460.84
-436.30
-396.97
-350.22
-301.53
-253.95
-208.71
-166.36
-127.43
-92.57
-62.08
-35.66
-12.53
8.22
27.22
44.60
60.08
72.95
82.36
87.54
88.19
84.73
78.37
70.79
63.65
58.05
54.25
51.85
50.10
48.49
46.92
45.72
45.45
46.51
48.87
52.05
55.32
58.09
60.23
62.26
65.05
69.36
75.32
82.21
88.61
93.06
94.61
93.26
89.82
85.44
81.04
76.82
72.20
66.13
57.50
45.59
30.32
12.39
-6.97
-26.09
-43.22
-56.79
-65.53
-68.63
-65.79
-57.30
-44.04
-27.50
-9.44
8.36
24.57
38.45
49.80
58.63
64.91
68.33
68.54
65.35
58.90
49.55
37.70
23.59
7.41
-10.44
-29.07
-47.07
-62.72
-74.37
-80.84
-81.64
-77.07
-68.17
-56.41
-43.40
-30.39
-17.91
-5.66
7.20
21.47
37.33
54.07
70.28
84.32
94.74
100.55
101.28
96.99
88.32
76.57
63.48
50.82
39.87
31.09
24.06
18.06
12.43
7.08
2.43
-0.80
-1.98
-0.79
2.74
8.24
15.07
22.39
29.24
34.73
38.33
39.97
40.09
39.41
38.55
37.91
37.41
36.54
34.33
29.55
20.86
7.14
-11.95
-35.52
-61.34
-86.19
-106.72
-120.37
-126.09
-124.39
-116.85
-105.38
-91.53
-76.30
-60.37
-44.47
-29.57
-16.86
-7.26
-1.08
2.24
3.91
5.25
7.04
9.24
11.02
11.23
9.05
4.47
-1.71
-8.17
-13.64
-17.42
-19.64
-21.15
-23.24
-27.05
-33.21
-41.64
-51.56
-61.65
-70.44
-76.50
-78.76
-76.67
-70.36
-60.55
-48.42
-35.19
-21.61
-7.63
7.57
25.11
45.72
69.12
93.84
117.47
137.31
151.12
157.66
157.01
150.54
140.38
128.93
118.02
108.52
100.16
91.85
82.27
70.35
55.51
37.57
16.67
-6.79
-31.91
-57.16
-80.43
-99.46
-112.62
-119.42
-120.71
-118.18
-113.69
-108.58
-103.39
-98.02
-92.14
-85.48
-77.94
-69.45
-59.80
-48.66
-35.82
-21.40
-6.09
8.97
22.40
32.97
39.85
42.81
42.19
38.86
34.02
28.95
24.77
22.20
21.54
22.67
25.27
28.89
33.11
37.52
41.80
45.71
49.22
52.46
55.65
58.94
62.28
65.33
67.57
68.37
67.19
63.68
57.66
49.24
38.78
26.94
14.61
2.77
-7.74
-16.39
-23.06
-27.99
-31.55
-34.16
-36.07
-37.47
-38.52
-39.51
-40.84
-42.97
-46.19
-50.55
-55.67
-60.94
-65.65
-69.06
-70.53
-69.41
-65.18
-57.61
-46.99
-34.38
-21.42
-9.88
-1.21
4.05
6.24
6.35
5.54
4.75
4.48
4.89
5.86
7.20
8.66
10.05
11.20
12.04
12.54
12.68
12.42
11.75
10.83
9.93
9.46
9.63
10.36
11.21
11.63
11.26
10.12
8.57
7.12
6.11
5.57
5.33
5.03
4.40
3.20
1.33
-1.14
-3.94
-6.63
-8.77
-10.05
-10.54
-10.60
-10.75
-11.36
-12.43
-13.58
-14.22
-13.81
-12.12
-9.39
-6.21
-3.37
-1.47
-0.77
-1.05
-1.65
-1.78
-0.79
1.50
4.85
8.66
12.25
15.06
16.68
16.94
15.83
13.53
10.42
7.06
4.07
1.89
0.66
0.15
-0.10
-0.55
-1.43
-2.67
-3.98
-5.03
-5.59
-5.64
-5.32
-4.85
-4.42
-4.09
-3.85
-3.60
-3.27
-2.84
-2.34
-1.85
-1.46
-1.23
-1.17
-1.26
-1.47
-1.78
-2.17
-2.54
-2.66
-2.26
-1.01
1.26
4.54
8.64
13.27
18.20
23.33
28.68
34.24
39.90
45.33
50.11
53.73
55.73
55.79
53.72
49.62
43.85
37.11
30.21
23.85
18.41
13.80
9.74
5.90
2.18
-1.34
-4.52
-7.45
-10.58
-14.63
-20.32
-27.96
-37.35
-47.70
-57.88
-66.81
-73.77
-78.66
-81.98
-84.69
-87.81
-92.08
-97.73
-104.36
-111.24
-117.51
-122.59
-126.28
-128.74
-130.38
-131.62
-132.75
-133.70
-133.80
-131.51
-124.40
-109.58
-84.66
-48.93
-4.09
45.77
95.26
139.21
174.15
198.82
213.85
220.79
221.18
216.24
206.96
194.56
180.55
166.45
153.18
140.54
127.29
111.80
93.03
71.17
47.83
25.49
6.46
-7.91
-17.64
-23.78
-27.71
-30.47
-32.38
-33.18
-32.52
-30.41
-27.50
-24.98
-24.29
-26.62
-32.44
-41.20
-51.36
-60.66
-66.78
-67.97
-63.55
-54.02
-40.85
-25.98
-11.28
1.84
12.50
20.32
25.22
27.34
26.93
24.46
20.54
15.90
11.15
6.65
2.36
-2.04
-6.96
-12.58
-18.65
-24.44
-28.90
-30.99
-30.03
-25.98
-19.44
-11.55
-3.64
3.11
7.96
10.72
11.67
11.35
10.40
9.32
8.46
7.98
7.88
7.98
7.92
7.28
5.68
2.97
-0.61
-4.54
-8.09
-10.68
-11.96
-11.89
-10.72
-8.79
-6.36
-3.59
-0.47
3.04
6.97
11.29
15.92
20.79
25.90
31.30
37.05
43.08
49.13
54.69
59.20
62.14
63.13
61.98
58.55
52.76
44.69
34.74
23.74
12.81
3.09
-4.73
-10.52
-14.72
-17.96
-20.62
-22.61
-23.42
-22.48
-19.58
-15.03
-9.59
-4.16
0.62
4.44
7.28
9.21
10.14
9.82
7.98
4.50
-0.35
-6.00
-11.67
-16.75
-20.99
-24.59
-28.08
-31.98
-36.52
-41.37
-45.71
-48.49
-48.90
-46.65
-42.11
-36.05
-29.26
-22.26
-15.24
-8.15
-1.02
5.92
12.29
17.64
21.70
24.45
26.06
26.76
26.79
26.26
25.26
23.88
22.15
20.18
18.02
15.76
13.55
11.63
10.30
9.86
10.40
11.71
13.24
14.27
14.15
12.64
10.00
6.93
4.25
2.56
1.91
1.82
1.29
-0.87
-5.85
-14.44
-26.63
-41.21
-55.68
-66.74
-71.24
-67.37
-55.35
-37.39
-16.83
3.08
20.05
33.02
41.88
46.97
48.85
48.24
46.13
43.64
41.75
40.89
40.75
40.44
38.92
35.35
29.26
20.64
9.87
-2.23
-14.35
-24.89
-32.29
-35.59
-34.74
-30.76
-25.25
-19.91
-16.03
-14.20
-14.31
-15.79
-17.76
-19.28
-19.42
-17.43
-12.95
-6.19
2.01
10.36
17.35
21.69
22.71
20.43
15.64
9.52
3.23
-2.52
-7.69
-12.76
-18.31
-24.58
-31.22
-37.34
-41.94
-44.38
-44.50
-42.67
-39.42
-35.16
-30.05
-24.07
-17.19
-9.56
-1.49
6.55
14.06
20.61
25.93
29.95
32.87
35.16
37.44
40.26
43.93
48.27
52.61
56.00
57.50
56.46
52.81
47.13
40.52
34.44
30.45
29.84
33.36
40.82
50.94
61.49
69.73
73.22
70.57
61.90
48.72
33.36
18.18
4.93
-5.52
-13.08
-18.12
-21.12
-22.47
-22.38
-20.94
-18.25
-14.59
-10.49
-6.67
-3.84
-2.38
-2.21
-2.80
-3.43
-3.59
-3.08
-2.07
-0.83
0.47
1.84
3.37
5.11
6.92
8.55
9.69
10.04
9.38
7.60
4.78
1.21
-2.65
-6.27
-9.26
-11.54
-13.36
-15.16
-17.33
-20.03
-23.14
-26.49
-30.06
-34.09
-38.98
-44.99
-51.78
-58.36
-63.27
-65.25
-63.78
-59.42
-53.57
-47.90
-43.77
-41.93
-42.55
-45.52
-50.53
-57.00
-63.90
-69.66
-72.53
-71.10
-64.87
-54.49
-41.39
-27.23
-13.21
0.16
13.01
25.58
37.78
48.97
58.07
64.17
66.96
67.05
65.66
64.02
62.72
61.43
59.19
55.07
48.90
41.46
34.15
28.30
24.54
22.59
21.60
20.72
19.54
18.22
17.13
16.44
15.75
14.09
10.30
3.47
-6.60
-19.37
-33.65
-48.06
-61.38
-72.76
-81.69
-87.90
-91.28
-91.96
-90.44
-87.58
-84.41
-81.78
-79.97
-78.60
-76.77
-73.56
-68.48
-61.63
-53.68
-45.40
-37.40
-29.80
-22.46
-15.11
-7.74
-0.65
5.65
10.71
14.38
16.92
18.85
20.63
22.51
24.36
25.82
26.44
26.02
24.61
22.57
20.46
18.85
18.03
17.98
18.29
18.37
17.70
16.07
13.72
11.23
9.23
8.15
7.97
8.26
8.38
7.68
5.65
2.00
-3.25
-9.76
-16.78
-23.23
-27.87
-29.67
-28.11
-23.35
-16.08
-7.24
2.37
12.37
22.74
33.56
44.72
55.78
65.99
74.53
80.70
84.08
84.59
82.36
77.72
71.09
63.00
54.01
44.72
35.61
26.98
18.90
11.32
4.17
-2.53
-8.63
-13.99
-18.50
-22.21
-25.22
-27.60
-29.32
-30.25
-30.32
-29.57
-28.25
-26.79
-25.58
-24.92
-24.86
-25.24
-25.80
-26.28
-26.50
-26.40
-26.03
-25.50
-24.85
-23.99
-22.65
-20.47
-17.01
-11.96
-5.16
3.34
13.31
24.36
36.00
47.54
58.24
67.34
74.24
78.65
80.61
80.45
78.68
75.81
72.33
68.69
65.29
62.46
60.42
59.22
58.72
58.67
58.64
58.17
56.81
54.21
50.23
45.08
39.30
33.59
28.61
24.61
21.44
18.54
15.21
10.87
5.22
-1.77
-9.79
-18.31
-26.65
-34.04
-39.83
-43.65
-45.63
-46.26
-46.39
-46.81
-48.08
-50.31
-53.18
-56.07
-58.22
-59.02
-58.10
-55.52
-51.68
-47.22
-42.82
-38.97
-35.89
-33.58
-31.88
-30.60
-29.60
-28.73
-27.86
-26.88
-25.71
-24.35
-22.93
-21.66
-20.76
-20.36
-20.46
-20.88
-21.39
-21.69
-21.59
-21.04
-20.10
-18.91
-17.61
-16.29
-14.94
-13.62
-12.38
-11.35
-10.71
-10.53
-10.81
-11.43
-12.23
-13.08
-13.91
-14.68
-15.38
-15.96
-16.40
-16.69
-16.96
-17.27
-17.66
-18.03
-18.16
-17.76
-16.61
-14.58
-11.77
-8.44
-4.93
-1.56
1.45
4.03
6.25
8.20
9.97
11.54
12.85
13.79
14.35
14.61
14.72
14.84
15.09
15.46
15.85
16.19
16.43
16.65
16.94
17.40
18.06
18.78
19.36
19.57
19.25
18.37
17.05
15.45
13.78
12.18
10.78
9.63
8.76
8.08
7.37
6.36
4.80
2.66
0.10
-2.52
-4.82
-6.58
-7.79
-8.60
-9.20
-9.70
-10.10
-10.30
-10.20
-9.71
-8.76
-7.26
-5.16
-2.55
0.28
2.83
4.62
5.41
5.38
5.13
5.40
6.74
9.27
12.62
16.19
19.40
21.90
23.61
24.76
25.81
27.48
30.64
35.99
43.70
53.03
62.42
69.93
74.07
74.33
71.32
66.38
60.79
55.24
49.66
43.54
36.39
28.20
19.38
10.52
2.10
-5.76
-13.23
-20.56
-27.88
-35.09
-41.90
-48.00
-53.19
-57.37
-60.50
-62.43
-62.83
-61.32
-57.62
-51.65
-43.68
-34.18
-23.72
-12.86
-2.21
7.62
15.99
22.39
26.64
28.98
30.00
30.32
30.23
29.41
26.93
21.49
11.94
-2.22
-20.39
-40.78
-60.70
-77.29
-88.40
-93.25
-92.66
-88.59
-83.29
-78.41
-74.46
-70.93
-66.91
-61.68
-55.12
-47.70
-40.11
-32.95
-26.49
-20.62
-14.87
-8.63
-1.35
7.22
16.67
25.99
33.82
38.88
40.47
38.66
34.12
27.81
20.59
13.17
6.20
0.40
-3.52
-5.02
-4.05
-1.21
2.51
5.99
8.48
9.82
10.44
11.01
12.10
13.82
15.80
17.35
17.70
16.37
13.33
8.92
3.74
-1.52
-6.20
-9.77
-11.79
-12.06
-10.56
-7.56
-3.52
0.99
5.37
9.11
11.79
13.19
13.32
12.45
11.06
9.66
8.67
8.29
8.45
8.88
9.19
8.96
7.80
5.43
1.80
-2.78
-7.68
-12.11
-15.31
-16.85
-16.70
-15.12
-12.45
-9.01
-5.00
-0.69
3.58
7.42
10.46
12.53
13.63
13.89
13.45
12.41
10.87
8.98
7.00
5.21
3.73
2.58
1.63
0.76
-0.10
-0.97
-1.96
-3.35
-5.54
-8.85
-13.25
-18.19
-22.73
-25.73
-26.33
-24.23
-19.84
-14.17
-8.51
-3.99
-1.19
0.25
1.61
4.70
11.20
21.91
36.32
52.81
69.16
83.38
94.16
100.90
103.45
101.66
95.30
84.41
69.86
53.62
38.63
27.86
23.28
24.98
31.08
38.40
43.69
44.87
41.67
35.47
28.44
22.52
18.62
16.66
15.97
15.97
16.46
17.57
19.46
22.09
25.17
28.26
30.77
31.84
30.25
24.59
13.88
-1.64
-20.01
-37.90
-51.62
-58.54
-58.02
-51.46
-41.58
-31.46
-23.87
-21.02
-24.56
-35.28
-52.56
-73.97
-95.51
-112.64
-121.87
-122.00
-114.30
-101.77
-87.90
-75.60
-66.67
-61.87
-61.11
-63.48
-67.29
-70.23
-69.89
-64.41
-53.16
-36.93
-17.70
1.89
19.13
31.88
38.98
40.76
39.08
36.90
37.35
42.43
52.12
64.22
75.13
81.32
80.69
73.48
61.99
49.61
39.50
33.50
31.65
32.26
32.34
28.12
15.90
-6.96
-40.74
-82.59
-126.66
-165.53
-192.49
-203.69
-199.11
-181.96
-156.99
-128.69
-100.23
-73.58
-50.26
-31.89
-20.08
-15.46
-16.93
-21.54
-25.43
-25.46
-20.55
-12.08
-3.17
3.06
4.98
3.30
0.57
-0.19
3.09
10.57
20.84
31.77
41.76
50.25
57.62
64.58
71.47
77.95
83.26
86.72
88.14
88.01
87.16
86.39
86.01
85.85
85.32
83.85
81.11
77.11
72.23
66.93
61.55
56.08
50.20
43.37
35.23
25.83
15.76
5.99
-2.53
-9.27
-14.28
-18.07
-21.29
-24.31
-27.05
-29.11
-29.97
-29.29
-27.00
-23.23
-18.19
-12.11
-5.29
1.90
8.94
15.14
19.74
22.14
22.02
19.47
15.10
9.81
4.59
0.23
-2.90
-4.92
-6.27
-7.46
-8.93
-10.93
-13.61
-17.04
-21.17
-25.74
-30.21
-33.84
-35.97
-36.31
-35.13
-33.16
-31.18
-29.63
-28.28
-26.31
-22.78
-17.24
-10.08
-2.55
3.76
7.54
8.43
7.05
4.67
2.60
1.67
1.98
3.13
4.62
6.20
7.96
10.14
12.84
15.84
18.66
20.76
21.87
22.10
21.94
21.96
22.55
23.73
25.08
25.96
25.83
24.38
21.76
18.42
14.99
11.96
9.61
7.86
6.42
4.97
3.29
1.42
-0.41
-1.96
-3.08
-3.85
-4.50
-5.35
-6.61
-8.29
-10.26
-12.29
-14.16
-15.69
-16.77
-17.30
-17.26
-16.69
-15.80
-14.82
-13.91
-12.98
-11.68
-9.57
-6.27
-1.72
3.77
9.56
14.89
19.12
21.90
23.21
23.30
22.60
21.60
20.75
20.36
20.59
21.43
22.77
24.38
25.91
26.95
27.10
26.13
24.08
21.27
18.19
15.24
12.58
10.11
7.55
4.68
1.55
-1.56
-4.18
-5.91
-6.59
-6.37
-5.68
-5.03
-4.82
-5.15
-5.78
-6.20
-5.80
-4.22
-1.57
1.55
4.23
5.70
5.65
4.51
3.29
3.21
5.34
10.23
17.91
27.87
39.23
50.88
61.53
69.95
75.25
77.00
75.37
70.93
64.32
56.03
46.33
35.62
24.65
14.69
7.18
3.12
2.48
4.04
5.78
5.71
2.62
-3.44
-11.28
-19.07
-25.12
-28.39
-28.72
-26.69
-23.26
-19.40
-15.90
-13.28
-11.87
-11.87
-13.30
-15.97
-19.39
-22.85
-25.63
-27.38
-28.30
-29.14
-30.87
-34.16
-38.99
-44.59
-49.64
-52.81
-53.28
-51.03
-46.78
-41.71
-36.88
-32.88
-29.72
-26.97
-24.12
-20.94
-17.55
-14.37
-11.83
-10.12
-9.14
-8.59
-8.15
-7.65
-7.10
-6.59
-6.19
-5.83
-5.37
-4.65
-3.59
-2.16
-0.44
1.55
3.79
6.24
8.78
11.16
13.02
14.04
14.14
13.55
12.73
12.22
12.32
12.95
13.49
12.85
9.58
2.16
-10.52
-28.49
-50.18
-72.41
-91.01
-102.06
-103.25
-94.63
-78.58
-58.73
-38.65
-20.81
-6.27
4.90
12.96
18.09
20.30
19.91
17.71
15.06
13.37
13.63
15.92
19.43
22.86
25.01
25.30
23.91
21.63
19.41
17.96
17.46
17.59
17.63
16.78
14.47
10.49
5.18
-0.53
-5.26
-7.55
-6.30
-1.31
6.53
15.50
23.60
29.29
31.99
32.15
30.87
29.42
28.76
29.18
30.37
31.58
31.94
30.72
27.62
22.86
17.18
11.64
7.27
4.76
4.26
5.44
7.65
10.25
12.74
14.89
16.63
17.91
18.65
18.73
18.03
16.54
14.31
11.44
7.94
3.76
-1.17
-6.66
-12.12
-16.52
-18.62
-17.47
-12.95
-5.98
1.58
7.59
10.32
9.02
4.10
-3.16
-11.11
-18.24
-23.41
-25.94
-25.61
-22.57
-17.42
-11.02
-4.42
1.57
6.70
11.35
16.34
22.43
29.75
37.55
44.34
48.49
48.92
45.53
39.32
31.82
24.50
18.27
13.25
9.02
5.03
0.90
-3.44
-7.92
-12.56
-17.52
-23.01
-29.08
-35.39
-41.21
-45.62
-47.85
-47.59
-45.13
-41.35
-37.38
-34.32
-32.92
-33.31
-35.04
-37.19
-38.65
-38.58
-36.66
-33.26
-29.12
-25.04
-21.44
-18.21
-14.89
-10.92
-5.97
0.01
6.83
14.21
21.85
29.35
36.23
41.90
45.77
47.41
46.64
43.53
38.43
31.95
24.96
18.51
13.55
10.60
9.54
9.49
9.17
7.25
2.80
-4.47
-14.12
-25.18
-36.24
-45.72
-52.10
-54.13
-51.10
-43.02
-30.66
-15.51
0.49
15.41
27.70
36.62
42.27
45.35
46.69
46.69
45.07
41.02
33.66
22.46
7.49
-10.74
-31.48
-53.94
-77.14
-99.70
-119.72
-134.98
-143.59
-144.69
-138.81
-127.76
-113.88
-99.18
-84.83
-71.11
-57.83
-44.88
-32.47
-21.07
-11.08
-2.54
4.92
11.81
18.51
25.08
31.34
37.13
42.49
47.73
53.25
59.34
65.98
72.74
78.99
84.02
87.35
88.82
88.64
87.38
85.71
84.28
83.48
83.39
83.77
84.16
83.99
82.59
79.33
73.77
65.95
56.53
46.76
38.03
31.40
27.10
24.52
22.63
20.54
17.94
15.21
12.97
11.64
11.13
10.92
10.41
9.23
7.49
5.57
3.90
2.62
1.58
0.49
-0.92
-2.63
-4.35
-5.64
-6.27
-6.34
-6.43
-7.38
-10.00
-14.92
-22.43
-32.54
-44.91
-58.73
-72.57
-84.46
-92.34
-94.67
-91.11
-82.67
-71.39
-59.70
-49.68
-42.63
-39.04
-38.73
-40.88
-44.22
-47.12
-47.97
-45.63
-39.96
-31.89
-23.02
-15.05
-9.07
-5.42
-3.72
-3.42
-4.13
-5.69
-8.05
-11.04
-14.29
-17.40
-20.13
-22.57
-25.05
-28.05
-31.96
-37.10
-43.79
-52.49
-63.64
-77.33
-92.85
-108.32
-121.01
-128.04
-127.28
-118.07
-101.38
-79.38
-54.78
-30.16
-7.64
11.15
24.97
33.03
35.16
32.14
25.75
18.37
12.42
9.56
10.37
14.36
20.44
27.42
34.44
41.03
46.93
51.94
55.79
58.18
58.93
58.07
55.88
52.74
48.97
44.68
39.69
33.68
26.36
17.79
8.53
-0.53
-8.35
-14.19
-17.77
-19.21
-18.90
-17.14
-14.18
-10.22
-5.63
-0.96
3.11
6.04
7.64
8.19
8.35
8.83
10.18
12.40
15.03
17.21
18.11
17.29
14.92
11.71
8.61
6.34
5.18
4.99
5.44
6.30
7.47
8.94
10.48
11.69
12.07
11.41
9.93
8.22
6.95
6.47
6.74
7.40
8.06
8.48
8.59
8.41
7.92
7.02
5.63
3.73
1.49
-0.90
-3.21
-5.28
-7.05
-8.47
-9.53
-10.26
-10.75
-11.08
-11.31
-11.40
-11.29
-10.83
-9.95
-8.57
-6.65
-4.21
-1.40
1.43
3.83
5.37
5.88
5.51
4.73
4.13
4.14
4.88
6.19
7.79
9.38
10.82
12.07
13.10
13.83
14.17
14.02
13.36
12.22
10.70
8.90
6.97
5.13
3.62
2.63
2.27
2.42
2.85
3.29
3.55
3.62
3.63
3.81
4.30
5.15
6.25
7.40
8.40
9.09
9.43
9.44
9.21
8.82
8.36
7.98
7.86
8.25
9.32
11.04
13.15
15.18
16.62
17.13
16.61
15.22
13.30
11.22
9.33
7.94
7.32
7.59
8.71
10.44
12.43
14.32
15.96
17.39
18.72
19.97
20.94
21.23
20.39
18.26
15.05
11.30
7.69
4.66
2.36
0.61
-0.80
-2.03
-3.07
-3.83
-4.27
-4.48
-4.62
-4.78
-4.97
-5.17
-5.40
-5.89
-7.01
-9.07
-12.20
-16.17
-20.53
-24.76
-28.46
-31.37
-33.40
-34.43
-34.32
-32.96
-30.39
-26.89
-22.97
-19.23
-16.10
-13.68
-11.75
-9.89
-7.78
-5.36
-2.90
-0.85
0.40
0.75
0.42
-0.13
-0.45
-0.29
0.35
1.20
1.98
2.52
2.78
2.85
2.78
2.62
2.31
1.78
1.00
0.00
-1.14
-2.36
-3.57
-4.78
-5.99
-7.30
-8.75
-10.36
-12.02
-13.55
-14.76
-15.57
-16.13
-16.63
-17.25
-17.88
-18.18
-17.65
-15.87
-12.69
-8.29
-3.06
2.56
8.14
13.40
18.16
22.30
25.81
28.73
31.13
33.05
34.44
35.16
35.06
34.09
32.41
30.33
28.30
26.67
25.68
25.28
25.26
25.33
25.26
24.93
24.41
23.82
23.26
22.69
21.93
20.72
18.87
16.30
13.04
9.28
5.24
1.15
-2.80
-6.37
-9.41
-11.78
-13.50
-14.70
-15.58
-16.30
-16.91
-17.39
-17.60
-17.38
-16.61
-15.26
-13.35
-10.97
-8.31
-5.58
-3.01
-0.79
0.93
2.10
2.76
3.02
3.12
3.34
4.01
5.37
7.49
10.25
13.35
16.40
19.05
21.08
22.43
23.15
23.30
22.91
21.86
20.00
17.26
13.69
9.50
5.02
0.62
-3.47
-7.05
-9.99
-12.16
-13.42
-13.68
-13.15
-12.35
-12.08
-13.14
-16.08
-20.99
-27.44
-34.72
-42.03
-48.66
-54.09
-57.95
-59.97
-60.00
-58.07
-54.42
-49.56
-44.08
-38.55
-33.37
-28.72
-24.55
-20.65
-16.77
-12.72
-8.42
-3.91
0.59
4.83
8.58
11.60
13.75
14.85
14.79
13.54
11.26
8.28
5.10
2.23
0.08
-1.07
-1.00
0.46
3.41
7.91
13.77
20.55
27.61
34.27
40.00
44.64
48.37
51.49
54.29
56.74
58.54
59.19
58.21
55.34
50.62
44.37
37.04
29.09
20.95
13.03
5.75
-0.52
-5.54
-9.33
-12.19
-14.63
-17.23
-20.40
-24.25
-28.53
-32.76
-36.35
-38.82
-39.92
-39.63
-38.11
-35.61
-32.44
-28.90
-25.35
-22.09
-19.30
-16.99
-14.92
-12.71
-10.02
-6.65
-2.63
1.83
6.46
11.05
15.42
19.40
22.75
25.10
26.08
25.41
23.16
19.71
15.77
12.14
9.45
7.96
7.56
7.82
8.17
8.12
7.26
5.29
2.03
-2.53
-8.14
-14.14
-19.58
-23.43
-24.89
-23.70
-20.12
-14.85
-8.70
-2.35
3.76
9.34
14.16
17.99
20.67
22.21
22.91
23.25
23.77
24.83
26.47
28.45
30.36
31.78
32.41
32.11
30.82
28.55
25.37
21.45
17.17
13.06
9.70
7.56
6.77
7.06
7.86
8.50
8.45
7.45
5.57
3.07
0.32
-2.30
-4.46
-5.86
-6.25
-5.55
-3.86
-1.55
0.79
2.53
3.15
2.44
0.58
-1.91
-4.36
-6.13
-6.81
-6.28
-4.67
-2.19
0.92
4.52
8.42
12.34
15.82
18.34
19.51
19.25
17.87
15.96
14.19
13.11
12.96
13.74
15.27
17.27
19.53
21.80
23.84
25.39
26.20
26.10
25.09
23.33
21.23
19.35
18.28
18.43
19.86
22.29
25.12
27.63
29.06
28.81
26.50
22.08
15.88
8.62
1.20
-5.56
-11.19
-15.67
-19.31
-22.50
-25.43
-28.06
-30.17
-31.63
-32.44
-32.74
-32.62
-32.03
-30.84
-28.94
-26.37
-23.36
-20.16
-16.97
-13.82
-10.69
-7.60
-4.69
-2.13
-0.07
1.43
2.43
3.06
3.49
3.91
4.51
5.45
6.77
8.35
9.89
11.03
11.50
11.26
10.51
9.58
8.83
8.50
8.78
9.75
11.51
14.01
17.11
20.41
23.34
25.31
25.83
24.74
22.14
18.30
13.46
7.82
1.58
-4.84
-10.75
-15.16
-17.21
-16.46
-13.15
-8.20
-2.84
1.74
4.70
5.74
5.03
3.09
0.63
-1.59
-2.86
-2.67
-0.76
2.79
7.67
13.31
19.07
24.34
28.77
32.41
35.79
39.76
45.18
52.52
61.59
71.53
81.04
88.77
93.69
95.34
93.86
89.76
83.49
75.07
63.93
49.17
29.91
5.59
-23.85
-57.97
-95.77
-135.31
-173.60
-206.70
-230.60
-242.57
-242.36
-232.26
-216.23
-198.25
-181.05
-165.75
-152.36
-140.65
-130.38
-120.87
-110.43
-96.27
-75.45
-46.36
-9.97
30.07
68.63
100.81
123.37
135.20
136.72
128.99
113.11
90.34
62.67
33.26
6.20
-14.49
-26.20
-28.66
-23.86
-14.97
-4.92
4.71
13.82
23.21
33.51
44.45
54.82
62.96
67.43
67.44
62.86
53.94
41.10
24.97
6.58
-12.71
-31.55
-49.16
-65.82
-82.80
-101.58
-122.77
-145.35
-166.62
-183.21
-192.45
-193.52
-187.63
-177.28
-164.91
-151.82
-137.85
-122.12
-103.97
-83.91
-63.57
-44.92
-29.22
-16.24
-4.30
8.77
24.47
42.81
62.23
80.40
95.33
106.14
113.22
117.67
120.47
121.90
121.49
118.49
112.56
104.15
94.42
84.69
75.83
67.96
60.57
53.02
45.04
36.92
29.33
22.98
18.16
14.63
11.76
8.89
5.63
2.03
-1.50
-4.41
-6.25
-6.85
-6.29
-4.84
-2.81
-0.43
2.15
4.78
7.24
9.29
10.67
11.28
11.27
11.03
11.05
11.66
12.89
14.42
15.68
16.11
15.44
13.80
11.64
9.55
7.94
6.93
6.34
5.76
4.79
3.17
0.73
-2.63
-6.98
-12.32
-18.52
-25.17
-31.70
-37.55
-42.30
-45.82
-48.16
-49.29
-49.03
-47.00
-42.92
-36.81
-29.18
-20.92
-12.96
-5.96
-0.05
5.09
10.01
15.15
20.70
26.44
31.95
36.65
40.05
41.91
42.23
41.28
39.53
37.49
35.58
34.09
33.08
32.42
31.85
31.01
29.64
27.55
24.72
21.30
17.51
13.60
9.75
6.01
2.17
-2.15
-7.34
-13.58
-20.50
-27.11
-32.04
-34.00
-32.36
-27.45
-20.48
-13.05
-6.57
-1.82
1.10
2.53
2.84
2.23
0.70
-1.74
-4.91
-8.37
-11.54
-13.92
-15.28
-15.78
-15.86
-16.12
-16.97
-18.55
-20.60
-22.62
-24.14
-24.83
-24.71
-23.98
-22.94
-21.72
-20.30
-18.55
-16.38
-13.90
-11.39
-9.20
-7.56
-6.48
-5.71
-4.84
-3.49
-1.48
1.08
3.83
6.23
7.85
8.44
8.03
6.89
5.36
3.77
2.29
0.97
-0.19
-1.17
-1.95
-2.46
-2.75
-2.94
-3.24
-3.87
-4.87
-6.10
-7.30
-8.24
-8.85
-9.24
-9.68
-10.34
-11.20
-12.03
-12.52
-12.44
-11.79
-10.70
-9.36
-7.86
-6.16
-4.22
-2.08
0.01
1.71
2.73
3.01
2.77
2.42
2.43
3.09
4.45
6.31
8.32
10.18
11.71
12.94
14.04
15.19
16.53
18.06
19.68
21.27
22.74
24.00
25.00
25.63
25.81
25.47
24.66
23.52
22.26
21.03
19.89
18.80
17.63
16.28
14.66
12.72
10.45
7.85
4.93
1.79
-1.49
-4.81
-8.21
-11.82
-15.81
-20.21
-24.88
-29.49
-33.60
-36.82
-38.92
-39.82
-39.54
-38.15
-35.69
-32.22
-27.87
-22.94
-17.82
-12.93
-8.55
-4.75
-1.36
1.94
5.42
9.20
13.19
17.12
20.65
23.51
25.55
26.81
27.42
27.51
27.25
26.68
25.82
24.65
23.20
21.61
20.12
19.00
18.35
18.12
17.96
17.46
16.23
14.14
11.27
7.87
4.27
0.72
-2.62
-5.67
-8.43
-10.97
-13.46
-16.05
-18.81
-21.60
-24.05
-25.69
-26.14
-25.28
-23.33
-20.77
-18.08
-15.66
-13.65
-12.03
-10.69
-9.45
-8.23
-6.98
-5.72
-4.48
-3.30
-2.13
-0.92
0.39
1.74
3.00
3.99
4.52
4.49
3.86
2.68
1.06
-0.86
-2.90
-4.87
-6.61
-8.01
-9.05
-9.81
-10.35
-10.77
-11.12
-11.44
-11.79
-12.27
-12.96
-13.86
-14.84
-15.65
-16.04
-15.92
-15.37
-14.64
-13.99
-13.53
-13.12
-12.50
-11.39
-9.74
-7.73
-5.63
-3.66
-1.76
0.29
2.78
5.82
9.31
12.91
16.24
19.00
21.02
22.36
23.21
23.83
24.51
25.43
26.54
27.64
28.40
28.49
27.77
26.34
24.50
22.70
21.37
20.91
21.53
23.29
25.95
29.01
31.73
33.34
33.32
31.51
28.25
24.19
20.02
16.24
12.99
10.16
7.49
4.82
2.17
-0.27
-2.24
-3.56
-4.30
-4.70
-5.12
-5.92
-7.23
-8.98
-10.86
-12.50
-13.61
-14.05
-13.81
-12.94
-11.43
-9.22
-6.30
-2.77
1.03
4.66
7.65
9.74
10.94
11.56
12.03
12.72
13.75
14.97
16.02
16.52
16.26
15.32
13.99
12.64
11.53
10.72
10.12
9.63
9.24
8.99
8.91
8.90
8.73
8.17
7.17
5.94
4.86
4.26
4.27
4.75
5.41
5.95
6.25
6.30
6.10
5.59
4.68
3.26
1.40
-0.72
-2.86
-4.80
-6.45
-7.88
-9.20
-10.56
-12.03
-13.55
-15.04
-16.28
-17.07
-17.19
-16.45
-14.74
-11.95
-8.11
-3.39
1.82
6.85
10.89
13.13
13.00
10.42
5.83
0.09
-5.75
-10.72
-14.20
-15.97
-16.18
-15.27
-13.73
-12.03
-10.47
-9.21
-8.28
-7.68
-7.36
-7.23
-7.19
-7.08
-6.77
-6.21
-5.45
-4.66
-4.04
-3.74
-3.76
-3.96
-4.15
-4.15
-3.89
-3.45
-2.96
-2.60
-2.45
-2.53
-2.79
-3.14
-3.50
-3.83
-4.01
-3.94
-3.47
-2.46
-0.80
1.51
4.38
7.66
11.16
14.65
17.94
20.84
23.22
24.99
26.14
26.68
26.71
26.36
25.77
25.11
24.50
23.95
23.42
22.77
21.92
20.80
19.50
18.16
16.86
15.64
14.42
13.12
11.67
10.11
8.53
7.04
5.72
4.52
3.33
1.95
0.21
-1.97
-4.53
-7.31
-10.04
-12.51
-14.61
-16.43
-18.19
-20.15
-22.50
-25.15
-27.90
-30.39
-32.28
-33.28
-33.21
-31.94
-29.50
-25.99
-21.71
-17.12
-12.70
-8.87
-5.82
-3.54
-1.81
-0.43
0.77
1.85
2.82
3.71
4.60
5.60
6.83
8.44
10.45
12.88
15.65
18.69
21.93
25.32
28.87
32.59
36.45
40.32
44.10
47.64
50.84
53.61
55.81
57.29
57.91
57.63
56.56
55.03
53.42
52.07
51.17
50.61
50.12
49.31
47.88
45.65
42.73
39.36
35.88
32.59
29.68
27.15
24.84
22.53
19.93
16.84
13.15
9.00
4.65
0.36
-3.86
-8.44
-14.33
-22.63
-34.11
-48.64
-64.84
-80.33
-92.41
-98.94
-99.12
-93.64
-84.34
-73.49
-63.03
-54.16
-47.24
-42.11
-38.38
-35.68
-33.78
-32.38
-31.15
-29.70
-27.66
-24.92
-21.76
-18.75
-16.66
-16.09
-17.16
-19.40
-21.93
-23.78
-24.33
-23.54
-21.87
-19.98
-18.37
-17.17
-16.21
-15.30
-14.37
-13.63
-13.41
-13.84
-14.80
-15.81
-16.24
-15.59
-13.72
-10.83
-7.37
-3.83
-0.48
2.56
5.36
7.99
10.43
12.52
14.07
15.05
15.61
16.11
16.87
18.07
19.61
21.22
22.63
23.75
24.69
25.68
26.87
28.21
29.45
30.30
30.52
30.07
29.02
27.50
25.55
23.13
20.18
16.78
13.11
9.51
6.28
3.57
1.32
-0.62
-2.41
-4.10
-5.59
-6.74
-7.46
-7.80
-7.89
-7.89
-7.96
-8.12
-8.36
-8.55
-8.53
-8.14
-7.30
-6.03
-4.52
-3.04
-1.83
-0.98
-0.44
-0.07
0.28
0.71
1.21
1.72
2.16
2.47
2.64
2.70
2.78
3.01
3.51
4.27
5.19
6.14
7.07
8.03
9.16
10.50
11.96
13.26
14.10
14.34
14.08
13.62
13.24
13.01
12.77
12.20
11.01
9.15
6.76
4.16
1.65
-0.55
-2.40
-3.93
-5.30
-6.67
-8.18
-9.88
-11.75
-13.70
-15.62
-17.42
-19.01
-20.25
-20.93
-20.81
-19.72
-17.75
-15.28
-12.85
-10.95
-9.80
-9.28
-9.05
-8.70
-8.01
-6.92
-5.54
-4.06
-2.60
-1.25
-0.05
1.03
2.03
3.02
4.00
4.94
5.75
6.31
6.55
6.50
6.29
6.03
5.76
5.41
4.85
3.97
2.78
1.41
0.06
-1.14
-2.17
-3.14
-4.19
-5.43
-6.87
-8.40
-9.90
-11.28
-12.48
-13.51
-14.40
-15.15
-15.70
-16.00
-16.10
-16.11
-16.18
-16.40
-16.72
-16.91
-16.65
-15.63
-13.71
-10.94
-7.63
-4.22
-1.15
1.20
2.68
3.32
3.37
3.15
3.00
3.16
3.71
4.55
5.50
6.34
6.93
7.23
7.28
7.13
6.84
6.42
5.85
5.15
4.38
3.63
3.05
2.70
2.51
2.34
2.02
1.43
0.58
-0.43
-1.48
-2.47
-3.34
-4.04
-4.57
-4.92
-5.16
-5.41
-5.81
-6.47
-7.36
-8.33
-9.11
-9.48
-9.36
-8.79
-7.94
-6.93
-5.78
-4.40
-2.61
-0.32
2.53
5.81
9.35
12.89
16.07
18.39
19.22
17.85
13.79
7.04
-1.66
-10.98
-19.27
-25.10
-27.63
-26.87
-23.56
-18.86
-14.02
-10.04
-7.53
-6.70
-7.42
-9.34
-11.90
-14.42
-16.20
-16.53
-14.94
-11.22
-5.58
1.44
9.04
16.45
23.06
28.55
32.98
36.54
39.47
41.86
43.60
44.44
44.17
42.76
40.43
37.63
34.83
32.37
30.28
28.36
26.29
23.75
20.58
16.72
12.13
6.73
0.44
-6.76
-14.61
-22.58
-29.89
-35.74
-39.66
-41.57
-41.92
-41.43
-40.80
-40.44
-40.38
-40.45
-40.45
-40.40
-40.48
-40.83
-41.38
-41.73
-41.23
-39.21
-35.21
-29.14
-21.23
-11.97
-1.91
8.35
18.25
27.23
34.74
40.41
44.01
45.60
45.50
44.19
42.22
40.01
37.75
35.34
32.54
29.15
25.14
20.69
16.17
11.94
8.21
4.93
1.86
-1.33
-4.93
-9.06
-13.60
-18.23
-22.47
-25.79
-27.74
-28.14
-27.01
-24.68
-21.61
-18.28
-15.08
-12.19
-9.67
-7.47
-5.62
-4.21
-3.35
-3.05
-3.17
-3.44
-3.59
-3.52
-3.29
-3.08
-2.93
-2.67
-1.89
-0.18
2.61
6.16
9.79
12.71
14.32
14.47
13.47
11.86
10.15
8.67
7.41
6.16
4.67
2.84
0.90
-0.58
-0.95
0.27
3.13
7.15
11.55
15.58
18.87
21.44
23.64
25.83
28.22
30.70
32.94
34.36
34.22
31.56
25.46
15.32
1.41
-14.91
-31.31
-45.05
-53.83
-56.48
-53.28
-45.64
-35.61
-25.23
-16.07
-9.06
-4.53
-2.26
-1.71
-2.13
-2.70
-2.61
-1.16
2.13
7.27
13.71
20.26
25.38
27.74
26.77
23.07
18.27
14.48
13.36
15.54
20.50
26.87
33.11
37.92
40.52
40.60
38.13
33.27
26.32
17.66
7.80
-2.71
-13.22
-22.92
-30.74
-35.41
-35.66
-30.57
-20.02
-4.94
12.76
30.45
45.37
55.21
58.53
55.05
45.67
32.38
17.95
5.47
-2.31
-3.68
1.48
11.42
22.77
31.17
32.33
23.15
2.59
-27.98
-65.02
-103.59
-138.44
-165.01
-180.12
-182.23
-171.33
-148.64
-116.31
-76.99
-33.59
10.99
54.11
93.32
126.36
151.15
166.05
170.42
164.95
151.73
133.77
114.13
95.07
77.66
62.00
47.84
35.17
24.44
16.32
11.34
9.58
10.76
14.46
20.32
28.01
36.97
46.23
54.37
59.90
61.43
57.97
48.77
33.20
10.66
-19.19
-56.33
-100.20
-149.75
-203.42
-259.04
-313.70
-363.65
-404.64
-432.68
-444.98
-440.70
-421.00
-388.59
-346.70
-298.05
-244.30
-186.15
-124.10
-59.36
5.44
66.45
119.51
161.58
191.73
211.43
223.60
231.23
236.21
239.12
239.94
239.08
237.92
238.48
242.52
250.46
260.98
271.47
278.89
280.94
276.72
267.06
254.15
240.85
229.82
222.70
219.64
219.22
218.93
215.95
208.14
194.72
176.49
155.51
134.32
115.18
99.47
87.51
78.73
72.18
66.86
61.97
56.95
51.37
44.94
37.52
29.07
19.46
8.12
-6.17
-25.02
-49.60
-79.34
-111.28
-140.37
-161.17
-170.03
-166.83
-155.22
-141.21
-130.81
-128.06
-134.09
-147.42
-164.94
-182.83
-197.29
-205.07
-204.26
-195.11
-180.28
-164.20
-151.58
-145.79
-147.77
-156.22
-168.54
-182.05
-194.78
-205.59
-213.92
-219.54
-222.48
-223.18
-222.58
-221.89
-222.12
-223.68
-225.77
-226.18
-221.76
-209.29
-187.01
-155.90
-119.94
-84.86
-55.88
-35.23
-21.24
-9.30
5.57
26.02
50.97
76.25
96.90
109.48
113.37
110.47
103.72
95.64
87.46
79.46
71.74
65.05
60.84
60.69
65.36
74.07
84.57
93.79
99.06
99.09
94.46
87.20
79.85
74.32
71.22
69.83
68.70
66.64
63.40
59.88
57.70
58.39
62.59
69.64
77.84
85.02
89.45
90.42
88.42
84.71
80.73
77.45
75.00
72.62
69.03
62.85
53.21
40.16
24.84
9.27
-4.20
-13.74
-18.59
-19.39
-17.87
-16.18
-16.10
-18.52
-23.30
-29.52
-35.93
-41.35
-44.86
-45.89
-44.41
-40.99
-36.92
-33.99
-33.94
-37.81
-45.46
-55.58
-66.12
-75.18
-81.63
-85.36
-86.90
-86.91
-85.74
-83.48
-80.18
-76.12
-71.82
-67.71
-63.81
-59.54
-54.18
-47.37
-39.53
-31.79
-25.44
-21.19
-18.75
-17.04
-14.85
-11.58
-7.56
-3.83
-1.45
-0.76
-1.15
-1.34
-0.01
3.63
9.57
17.18
25.58
34.02
42.03
49.40
56.01
61.73
66.43
70.02
72.45
73.67
73.68
72.49
70.20
66.97
63.12
59.08
55.27
52.03
49.45
47.40
45.56
43.55
41.15
38.28
35.09
31.80
28.61
25.63
22.84
20.15
17.48
14.88
12.49
10.54
9.22
8.63
8.80
9.74
11.52
14.32
18.31
23.55
29.95
37.35
45.75
55.53
67.46
82.50
101.33
123.89
149.02
174.69
198.35
217.57
230.52
236.17
234.24
225.01
209.11
187.35
160.61
129.82
95.96
60.07
23.30
-13.05
-47.80
-79.99
-109.28
-136.14
-161.80
-188.14
-217.46
-252.26
-294.68
-345.42
-402.40
-460.15
-510.33
-544.02
-554.84
-541.31
-507.39
-460.65
-409.09
-358.25
-310.14
-264.23
-219.54
-176.47
-136.97
-103.24
-75.95
-53.46
-32.40
-9.56
16.32
43.94
70.10
91.85
108.24
120.98
133.58
149.63
171.22
198.19
228.53
259.26
287.38
310.34
326.22
333.90
333.24
325.13
311.35
294.07
275.16
255.76
236.15
216.03
195.06
173.14
150.51
127.58
104.71
82.12
59.95
38.51
18.49
0.91
-13.18
-23.17
-29.27
-32.46
-34.12
-35.40
-36.74
-37.74
-37.41
-34.74
-29.31
-21.50
-12.53
-4.13
2.05
5.06
4.99
3.02
0.97
0.49
2.52
6.90
12.53
17.97
21.98
23.90
23.63
21.43
17.67
12.75
7.04
1.04
-4.59
-9.22
-12.38
-14.06
-14.78
-15.55
-17.46
-21.32
-27.28
-34.68
-42.25
-48.56
-52.48
-53.59
-52.22
-49.27
-45.84
-42.86
-40.81
-39.74
-39.34
-39.14
-38.66
-37.56
-35.68
-32.98
-29.55
-25.62
-21.55
-17.80
-14.89
-13.20
-12.84
-13.57
-14.84
-16.04
-16.62
-16.29
-15.00
-12.89
-10.18
-7.10
-3.82
-0.49
2.74
5.70
8.16
9.83
10.39
9.63
7.52
4.33
0.61
-3.02
-6.06
-8.34
-10.04
-11.60
-13.42
-15.71
-18.36
-20.99
-23.19
-24.63
-25.14
-24.72
-23.43
-21.36
-18.61
-15.40
-11.98
-8.67
-5.74
-3.30
-1.25
0.68
2.80
5.41
8.65
12.52
16.85
21.36
25.66
29.31
31.94
33.36
33.71
33.40
33.03
33.08
33.62
34.29
34.31
32.82
29.11
22.93
14.46
4.26
-6.92
-18.30
-29.15
-38.81
-46.68
-52.31
-55.47
-56.19
-54.77
-51.71
-47.57
-42.85
-37.94
-33.10
-28.44
-24.01
-19.76
-15.56
-11.19
-6.36
-0.77
5.75
13.18
21.25
29.55
37.68
45.34
52.43
58.94
64.97
70.55
75.69
80.39
84.66
88.52
91.94
94.91
97.37
99.32
100.85
102.12
103.15
103.69
103.15
100.66
95.38
86.67
74.23
57.88
37.42
12.61
-16.45
-48.61
-81.18
-110.00
-130.37
-138.53
-132.96
-114.98
-88.14
-57.01
-25.74
2.82
27.18
46.81
61.57
71.41
76.31
76.27
71.18
60.64
43.93
20.35
-10.12
-46.12
-84.71
-121.75
-152.94
-175.17
-187.35
-190.78
-188.40
-183.73
-179.67
-177.74
-177.91
-179.04
-179.53
-177.90
-173.16
-164.92
-153.32
-138.91
-122.44
-104.78
-86.78
-69.16
-52.42
-36.83
-22.40
-9.00
3.53
15.21
25.80
34.80
41.58
45.72
47.27
46.86
45.55
44.48
44.41
45.49
47.35
49.32
50.83
51.61
51.67
51.25
50.65
50.17
50.10
50.68
52.08
54.30
57.12
60.19
63.14
65.77
68.10
70.37
72.78
75.27
77.41
78.45
77.62
74.47
69.15
62.33
54.99
48.00
41.78
36.32
31.33
26.54
21.91
17.60
13.82
10.65
7.95
5.56
3.37
1.47
0.11
-0.47
-0.14
1.02
2.75
4.72
6.55
7.98
8.85
9.13
8.94
8.45
7.84
7.27
6.78
6.42
6.13
5.89
5.69
5.53
5.40
5.31
5.21
5.02
4.65
3.99
3.00
1.77
0.44
-0.78
-1.77
-2.50
-3.00
-3.38
-3.70
-4.06
-4.53
-5.22
-6.16
-7.24
-8.29
-9.09
-9.47
-9.39
-8.93
-8.23
-7.38
-6.45
-5.42
-4.34
-3.30
-2.40
-1.72
-1.24
-0.89
-0.53
-0.12
0.34
0.76
1.09
1.31
1.49
1.71
2.02
2.41
2.73
2.84
2.58
1.96
1.12
0.33
-0.16
-0.17
0.27
0.97
1.70
2.22
2.42
2.27
1.85
1.23
0.49
-0.30
-1.09
-1.82
-2.41
-2.84
-3.13
-3.40
-3.74
-4.26
-4.87
-5.42
-5.64
-5.35
-4.49
-3.19
-1.69
-0.25
0.98
1.91
2.55
2.95
3.17
3.32
3.50
3.85
4.42
5.21
6.12
7.01
7.74
8.23
8.51
8.63
8.70
8.75
8.78
8.68
8.34
7.64
6.57
5.17
3.67
2.28
1.19
0.46
-0.05
-0.62
-1.48
-2.77
-4.41
-6.16
-7.75
-9.06
-10.14
-11.15
-12.23
-13.34
-14.32
-14.96
-15.14
-14.97
-14.62
-14.30
-14.00
-13.56
-12.73
-11.32
-9.31
-6.86
-4.21
-1.62
0.71
2.68
4.21
5.32
6.09
6.60
6.97
7.28
7.59
7.91
8.27
8.72
9.27
9.90
10.56
11.20
11.78
12.32
12.85
13.31
13.57
13.44
12.78
11.63
10.23
8.91
7.99
7.60
7.71
8.08
8.38
8.31
7.68
6.44
4.67
2.52
0.17
-2.25
-4.64
-6.92
-8.91
-10.43
-11.24
-11.25
-10.59
-9.58
-8.67
-8.19
-8.19
-8.38
-8.32
-7.66
-6.29
-4.43
-2.47
-0.72
0.66
1.76
2.76
3.76
4.74
5.47
5.74
5.43
4.68
3.76
2.98
2.51
2.25
1.90
1.17
-0.07
-1.67
-3.27
-4.47
-5.10
-5.28
-5.30
-5.52
-6.12
-7.02
-8.02
-8.86
-9.43
-9.76
-10.04
-10.43
-11.04
-11.81
-12.65
-13.45
-14.14
-14.72
-15.20
-15.61
-15.92
-16.14
-16.24
-16.25
-16.17
-15.94
-15.44
-14.49
-12.98
-10.85
-8.22
-5.25
-2.21
0.65
3.10
4.94
6.05
6.41
6.13
5.45
4.70
4.21
4.29
5.07
6.52
8.45
10.52
12.30
13.43
13.73
13.25
12.29
11.29
10.62
10.53
10.97
11.69
12.30
12.45
11.93
10.71
8.98
7.03
5.18
3.70
2.73
2.28
2.23
2.33
2.31
1.97
1.20
0.05
-1.33
-2.73
-3.96
-4.92
-5.55
-5.91
-6.06
-6.05
-5.93
-5.67
-5.19
-4.40
-3.22
-1.68
0.09
1.88
3.52
4.90
6.01
6.83
7.38
7.55
7.29
6.61
5.64
4.64
3.90
3.60
3.73
4.14
4.53
4.68
4.47
3.98
3.36
2.79
2.38
2.10
1.86
1.58
1.18
0.64
-0.03
-0.84
-1.76
-2.72
-3.60
-4.33
-4.91
-5.47
-6.19
-7.15
-8.30
-9.42
-10.23
-10.55
-10.43
-10.07
-9.78
-9.76
-10.03
-10.45
-10.86
-11.08
-11.04
-10.66
-9.85
-8.49
-6.49
-3.88
-0.85
2.26
5.09
7.37
9.00
10.06
10.71
11.13
11.45
11.73
11.99
12.26
12.54
12.81
12.99
13.01
12.83
12.50
12.19
12.13
12.50
13.32
14.46
15.63
16.58
17.12
17.24
17.06
16.78
16.54
16.39
16.23
15.84
14.89
13.04
10.06
5.88
0.71
-5.00
-10.71
-15.89
-20.29
-23.86
-26.82
-29.42
-31.82
-34.02
-35.88
-37.19
-37.78
-37.53
-36.40
-34.44
-31.74
-28.49
-24.91
-21.22
-17.61
-14.17
-10.96
-8.01
-5.41
-3.24
-1.53
-0.20
0.96
2.19
3.62
5.20
6.74
8.01
8.91
9.54
10.08
10.70
11.46
12.25
12.90
13.31
13.47
13.49
13.40
13.18
12.73
11.94
10.84
9.58
8.34
7.27
6.40
5.61
4.71
3.57
2.16
0.59
-0.92
-2.19
-3.09
-3.66
-4.04
-4.42
-4.88
-5.38
-5.81
-5.98
-5.85
-5.43
-4.81
-4.04
-3.16
-2.14
-1.01
0.17
1.37
2.52
3.61
4.61
5.51
6.20
6.60
6.69
6.49
6.11
5.66
5.20
4.76
4.32
3.93
3.59
3.32
2.99
2.35
1.11
-0.90
-3.60
-6.60
-9.34
-11.35
-12.43
-12.80
-12.97
-13.45
-14.52
-16.17
-18.14
-20.14
-21.99
-23.62
-24.97
-25.87
-26.13
-25.64
-24.58
-23.47
-22.96
-23.61
-25.56
-28.43
-31.50
-33.90
-34.93
-34.18
-31.64
-27.56
-22.37
-16.64
-10.93
-5.76
-1.45
1.87
4.36
6.26
7.85
9.30
10.66
11.98
13.34
14.95
16.99
19.51
22.37
25.18
27.53
29.09
29.85
29.98
29.80
29.61
29.54
29.60
29.69
29.76
29.76
29.70
29.58
29.39
29.13
28.79
28.39
27.90
27.29
26.47
25.36
23.85
21.85
19.34
16.34
12.93
9.24
5.40
1.53
-2.28
-6.00
-9.60
-12.99
-16.05
-18.53
-20.24
-21.04
-20.87
-19.80
-17.95
-15.50
-12.68
-9.76
-7.02
-4.74
-3.05
-1.94
-1.23
-0.65
0.03
0.93
2.02
3.21
4.35
5.35
6.16
6.79
7.23
7.53
7.70
7.73
7.57
7.20
6.64
5.95
5.27
4.71
4.36
4.15
3.97
3.64
3.06
2.20
1.10
-0.17
-1.51
-2.86
-4.11
-5.17
-5.95
-6.41
-6.60
-6.68
-6.89
-7.49
-8.60
-10.16
-11.90
-13.40
-14.24
-14.20
-13.23
-11.55
-9.50
-7.39
-5.46
-3.77
-2.31
-1.03
0.12
1.17
2.11
2.94
3.65
4.24
4.73
5.16
5.55
5.88
6.08
6.06
5.73
5.05
4.13
3.14
2.31
1.81
1.65
1.73
1.79
1.59
0.97
-0.07
-1.39
-2.76
-3.94
-4.79
-5.34
-5.68
-5.99
-6.43
-7.10
-8.04
-9.26
-10.73
-12.39
-14.09
-15.62
-16.79
-17.56
-18.06
-18.62
-19.53
-20.95
-22.70
-24.35
-25.34
-25.23
-23.87
-21.46
-18.40
-15.15
-12.04
-9.19
-6.59
-4.18
-1.92
0.17
2.08
3.80
5.41
6.93
8.29
9.27
9.56
8.93
7.39
5.26
3.08
1.37
0.49
0.54
1.39
2.84
4.67
6.70
8.78
10.72
12.37
13.68
14.73
15.67
16.65
17.69
18.69
19.49
20.02
20.34
20.71
21.35
22.44
23.97
25.89
28.08
30.46
32.97
35.48
37.78
39.63
40.82
41.27
41.00
40.08
38.56
36.46
33.75
30.52
27.02
23.60
20.57
18.04
15.87
13.68
11.07
7.73
3.60
-1.19
-6.32
-11.42
-16.12
-20.07
-23.02
-24.88
-25.78
-26.03
-25.93
-25.70
-25.30
-24.51
-23.10
-21.00
-18.46
-15.95
-13.99
-12.95
-12.83
-13.39
-14.23
-15.03
-15.62
-16.13
-16.83
-18.05
-20.01
-22.64
-25.64
-28.55
-30.91
-32.44
-32.98
-32.54
-31.13
-28.79
-25.66
-22.00
-18.21
-14.73
-11.87
-9.65
-7.82
-6.04
-4.10
-1.92
0.35
2.46
4.20
5.42
6.07
6.24
6.10
5.91
5.90
6.22
6.85
7.61
8.26
8.62
8.63
8.32
7.80
7.18
6.46
5.63
4.67
3.60
2.46
1.28
0.03
-1.31
-2.77
-4.34
-5.91
-7.38
-8.76
-10.13
-11.63
-13.39
-15.35
-17.22
-18.59
-19.00
-18.26
-16.46
-13.99
-11.32
-8.83
-6.69
-4.82
-3.03
-1.16
0.78
2.65
4.30
5.66
6.83
8.01
9.40
11.03
12.73
14.19
15.10
15.36
15.08
14.53
14.00
13.63
13.42
13.28
13.14
12.92
12.60
12.11
11.38
10.37
9.18
7.96
6.98
6.43
6.35
6.60
6.92
7.13
7.03
6.52
5.52
3.94
1.86
-0.51
-2.75
-4.39
-4.99
-4.34
-2.49
0.30
3.67
7.30
10.95
14.47
17.72
20.59
22.97
24.82
26.17
27.09
27.63
27.77
27.52
26.90
26.04
25.14
24.37
23.77
23.16
22.24
20.66
18.25
15.05
11.32
7.37
3.47
-0.18
-3.46
-6.32
-8.70
-10.62
-12.14
-13.39
-14.52
-15.65
-16.84
-18.11
-19.45
-20.87
-22.35
-23.85
-25.32
-26.70
-27.96
-29.20
-30.53
-32.09
-33.83
-35.49
-36.62
-36.75
-35.53
-32.94
-29.23
-24.85
-20.23
-15.74
-11.59
-7.95
-4.95
-2.67
-1.09
-0.09
0.56
1.12
1.76
2.58
3.59
4.81
6.20
7.71
9.18
10.47
11.47
12.17
12.71
13.29
14.04
14.95
15.87
16.60
17.06
17.28
17.41
17.58
17.85
18.10
18.19
18.00
17.49
16.74
15.79
14.71
13.48
12.06
10.41
8.46
6.18
3.52
0.56
-2.47
-5.13
-6.79
-6.86
-5.05
-1.47
3.29
8.34
12.80
16.04
17.85
18.43
18.20
17.68
17.23
17.06
17.25
17.78
18.59
19.58
20.63
21.56
22.19
22.36
22.01
21.18
19.95
18.34
16.26
13.51
9.87
5.27
-0.17
-6.13
-12.18
-17.88
-22.82
-26.67
-29.13
-30.08
-29.57
-27.90
-25.55
-23.02
-20.65
-18.58
-16.78
-15.18
-13.77
-12.62
-11.83
-11.44
-11.37
-11.51
-11.73
-11.91
-11.90
-11.53
-10.55
-8.72
-5.92
-2.20
2.24
7.04
11.88
16.50
20.76
24.65
28.22
31.50
34.46
36.94
38.73
39.59
39.43
38.31
36.49
34.35
32.29
30.51
29.01
27.55
25.80
23.46
20.43
16.81
12.79
8.57
4.28
0.02
-4.09
-7.86
-10.99
-13.27
-14.67
-15.39
-15.79
-16.31
-17.24
-18.76
-20.85
-23.42
-26.35
-29.47
-32.61
-35.57
-38.13
-40.07
-41.20
-41.40
-40.70
-39.21
-37.09
-34.55
-31.70
-28.63
-25.38
-22.05
-18.77
-15.66
-12.81
-10.19
-7.68
-5.13
-2.50
0.14
2.58
4.67
6.40
7.91
9.45
11.20
13.24
15.43
17.50
19.23
20.48
21.29
21.86
22.32
22.74
23.05
23.07
22.56
21.29
19.17
16.26
12.79
9.10
5.58
2.55
0.21
-1.41
-2.42
-2.99
-3.31
-3.45
-3.42
-3.19
-2.75
-2.20
-1.67
-1.35
-1.37
-1.74
-2.37
-3.12
-3.90
-4.64
-5.29
-5.77
-5.93
-5.60
-4.74
-3.42
-1.87
-0.36
0.96
2.05
3.01
3.90
4.73
5.44
5.94
6.20
6.25
6.16
5.91
5.47
4.75
3.76
2.59
1.41
0.36
-0.53
-1.40
-2.46
-3.86
-5.62
-7.65
-9.78
-11.88
-13.87
-15.74
-17.48
-19.05
-20.39
-21.41
-22.04
-22.19
-21.77
-20.70
-18.99
-16.78
-14.31
-11.93
-9.92
-8.43
-7.42
-6.74
-6.22
-5.73
-5.26
-4.84
-4.42
-3.91
-3.14
-1.92
-0.21
1.93
4.27
6.54
8.55
10.27
11.77
13.19
14.64
16.05
17.28
18.11
18.43
18.26
17.72
16.99
16.23
15.50
14.82
14.24
13.77
13.42
13.16
12.94
12.70
12.43
12.10
11.71
11.19
10.44
9.40
8.11
6.73
5.45
4.36
3.39
2.39
1.19
-0.28
-1.94
-3.64
-5.22
-6.63
-7.91
-9.21
-10.66
-12.32
-14.16
-15.98
-17.51
-18.43
-18.52
-17.69
-16.06
-13.86
-11.41
-8.97
-6.75
-4.86
-3.32
-2.11
-1.20
-0.57
-0.21
-0.09
-0.13
-0.21
-0.17
0.09
0.57
1.13
1.55
1.66
1.36
0.76
0.04
-0.53
-0.83
-0.81
-0.56
-0.21
0.16
0.52
0.85
1.15
1.38
1.53
1.55
1.47
1.34
1.19
1.04
0.85
0.57
0.20
-0.18
-0.47
-0.64
-0.77
-1.07
-1.77
-3.00
-4.67
-6.51
-8.15
-9.26
-9.63
-9.24
-8.27
-6.99
-5.67
-4.55
-3.77
-3.33
-3.13
-3.05
-2.94
-2.71
-2.25
-1.54
-0.57
0.54
1.61
2.42
2.84
2.94
2.94
3.15
3.75
4.72
5.84
6.79
7.34
7.43
7.24
6.99
6.92
7.14
7.63
8.29
8.96
9.55
9.98
10.18
10.12
9.75
9.08
8.14
6.99
5.70
4.33
2.91
1.36
-0.41
-2.49
-4.85
-7.30
-9.55
-11.29
-12.32
-12.67
-12.52
-12.12
-11.67
-11.23
-10.78
-10.25
-9.64
-8.99
-8.38
-7.86
-7.43
-7.11
-6.92
-6.89
-7.11
-7.68
-8.66
-10.11
-11.97
-14.02
-15.93
-17.29
-17.81
-17.43
-16.34
-14.88
-13.37
-11.99
-10.72
-9.58
-8.56
-7.77
-7.23
-6.89
-6.55
-6.06
-5.39
-4.69
-4.23
-4.20
-4.60
-5.22
-5.79
-6.16
-6.40
-6.72
-7.27
-8.06
-8.86
-9.30
-9.07
-8.05
-6.29
-4.05
-1.63
0.73
2.89
4.87
6.78
8.74
10.77
12.79
14.63
16.07
16.95
17.25
17.05
16.53
15.86
15.18
14.56
14.02
13.57
13.25
13.08
13.08
13.24
13.48
13.66
13.66
13.37
12.77
11.97
11.12
10.35
9.66
8.86
7.72
5.99
3.67
0.94
-1.85
-4.31
-6.19
-7.43
-8.16
-8.63
-9.11
-9.82
-10.89
-12.40
-14.34
-16.56
-18.84
-20.85
-22.29
-22.90
-22.59
-21.37
-19.33
-16.57
-13.21
-9.37
-5.24
-1.06
2.94
6.56
9.69
12.30
14.41
15.98
16.99
17.44
17.43
17.15
16.80
16.56
16.46
16.45
16.45
16.43
16.42
16.45
16.52
16.50
16.17
15.31
13.74
11.42
8.41
4.81
0.70
-3.85
-8.82
-14.12
-19.53
-24.76
-29.41
-33.16
-35.89
-37.76
-39.10
-40.30
-41.64
-43.17
-44.74
-46.04
-46.78
-46.75
-45.84
-44.06
-41.37
-37.75
-33.09
-27.38
-20.69
-13.29
-5.56
2.12
9.45
16.29
22.62
28.44
33.71
38.35
42.26
45.32
47.48
48.65
48.75
47.70
45.53
42.38
38.46
34.08
29.52
24.97
20.51
16.15
11.80
7.34
2.69
-2.14
-6.95
-11.38
-15.08
-17.83
-19.67
-20.82
-21.51
-21.86
-21.87
-21.54
-20.97
-20.49
-20.41
-20.90
-21.74
-22.37
-22.09
-20.46
-17.42
-13.33
-8.73
-4.03
0.58
5.17
9.85
14.66
19.46
23.96
27.88
31.08
33.60
35.56
37.15
38.41
39.32
39.72
39.51
38.64
37.17
35.19
32.83
30.16
27.24
24.06
20.68
17.12
13.43
9.74
6.22
3.08
0.49
-1.52
-3.16
-4.76
-6.74
-9.28
-12.33
-15.57
-18.66
-21.38
-23.74
-25.93
-28.18
-30.58
-33.02
-35.26
-37.01
-38.08
-38.38
-37.91
-36.67
-34.69
-31.93
-28.43
-24.29
-19.72
-14.99
-10.35
-5.99
-1.98
1.71
5.17
8.50
11.77
15.02
18.25
21.46
24.58
27.54
30.28
32.76
34.99
37.02
38.86
40.49
41.82
42.72
43.07
42.76
41.74
39.97
37.49
34.35
30.62
26.36
21.58
16.35
10.77
5.03
-0.58
-5.73
-10.14
-13.72
-16.52
-18.79
-20.77
-22.65
-24.43
-26.01
-27.26
-28.12
-28.68
-29.15
-29.74
-30.62
-31.74
-32.93
-33.84
-34.14
-33.55
-31.97
-29.49
-26.35
-22.90
-19.47
-16.29
-13.53
-11.23
-9.41
-8.05
-7.08
-6.39
-5.86
-5.31
-4.57
-3.51
-2.06
-0.28
1.65
3.46
4.84
5.61
5.78
5.50
5.09
4.81
4.82
5.16
5.77
6.56
7.46
8.46
9.57
10.82
12.21
13.72
15.25
16.66
17.74
18.34
18.37
17.83
16.88
15.73
14.52
13.35
12.15
10.77
9.03
6.82
4.22
1.46
-1.11
-3.13
-4.31
-4.56
-3.93
-2.66
-1.01
0.72
2.31
3.61
4.52
5.05
5.25
5.21
5.01
4.78
4.56
4.38
4.19
3.82
3.08
1.79
-0.11
-2.47
-4.95
-7.09
-8.49
-8.92
-8.38
-7.11
-5.47
-3.75
-2.13
-0.63
0.91
2.62
4.56
6.58
8.38
9.57
9.89
9.30
7.99
6.31
4.60
3.05
1.75
0.64
-0.31
-1.13
-1.81
-2.32
-2.60
-2.51
-1.96
-0.87
0.71
2.63
4.66
6.59
8.27
9.65
10.74
11.63
12.35
12.94
13.44
13.81
14.02
14.02
13.76
13.21
12.39
11.35
10.18
9.01
7.94
7.03
6.29
5.68
5.11
4.50
3.79
2.92
1.88
0.64
-0.77
-2.28
-3.74
-5.04
-6.07
-6.84
-7.45
-8.08
-8.87
-9.86
-10.97
-12.05
-12.99
-13.76
-14.51
-15.39
-16.55
-18.00
-19.65
-21.29
-22.73
-23.77
-24.30
-24.19
-23.34
-21.70
-19.34
-16.42
-13.23
-10.06
-7.11
-4.48
-2.13
0.01
1.98
3.79
5.46
6.99
8.41
9.66
10.68
11.37
11.66
11.62
11.41
11.21
11.10
11.05
10.95
10.74
10.51
10.38
10.46
10.71
10.99
11.12
11.06
10.95
11.01
11.43
12.21
13.20
14.15
14.89
15.33
15.50
15.39
15.01
14.35
13.46
12.50
11.63
10.92
10.31
9.54
8.33
6.47
3.99
1.12
-1.77
-4.35
-6.43
-8.00
-9.20
-10.29
-11.60
-13.41
-15.88
-18.96
-22.42
-25.85
-28.85
-31.11
-32.50
-33.00
-32.71
-31.71
-30.13
-28.13
-25.91
-23.73
-21.78
-20.17
-18.85
-17.72
-16.57
-15.26
-13.69
-11.82
-9.68
-7.37
-5.04
-2.83
-0.87
0.81
2.23
3.46
4.59
5.66
6.68
7.70
8.77
10.01
11.47
13.14
14.84
16.29
17.21
17.42
16.93
15.96
14.83
13.84
13.16
12.82
12.73
12.80
13.00
13.42
14.16
15.30
16.74
18.28
19.60
20.42
20.50
19.69
17.88
14.95
10.86
5.77
0.13
-5.36
-9.91
-12.90
-14.14
-13.90
-12.75
-11.30
-9.98
-8.88
-7.92
-6.91
-5.79
-4.72
-3.97
-3.85
-4.51
-5.88
-7.61
-9.25
-10.36
-10.67
-10.16
-9.04
-7.57
-6.02
-4.58
-3.36
-2.41
-1.75
-1.31
-0.95
-0.45
0.39
1.65
3.18
4.67
5.73
6.04
5.47
4.12
2.29
0.32
-1.49
-2.97
-4.11
-5.02
-5.92
-6.98
-8.34
-9.94
-11.59
-13.03
-14.00
-14.33
-14.04
-13.23
-12.02
-10.51
-8.71
-6.66
-4.47
-2.38
-0.62
0.63
1.37
1.81
2.10
2.30
2.30
1.92
1.06
-0.13
-1.29
-2.02
-2.11
-1.61
-0.79
0.00
0.64
1.21
2.01
3.33
5.30
7.79
10.57
13.32
15.84
18.08
20.07
21.90
23.58
24.98
25.93
26.26
25.93
25.03
23.81
22.51
21.35
20.38
19.53
18.67
17.66
16.47
15.12
13.73
12.39
11.19
10.18
9.36
8.72
8.19
7.65
6.91
5.77
4.09
1.91
-0.56
-2.99
-5.06
-6.63
-7.82
-8.94
-10.32
-12.17
-14.47
-17.01
-19.50
-21.63
-23.22
-24.18
-24.56
-24.44
-24.03
-23.52
-23.05
-22.63
-22.12
-21.31
-20.09
-18.51
-16.82
-15.31
-14.17
-13.37
-12.69
-11.86
-10.73
-9.26
-7.56
-5.72
-3.79
-1.80
0.19
2.06
3.73
5.13
6.34
7.46
8.51
9.34
9.68
9.25
7.89
5.74
3.12
0.44
-1.99
-4.07
-5.83
-7.43
-8.92
-10.34
-11.65
-12.87
-14.08
-15.38
-16.85
-18.47
-20.12
-21.57
-22.63
-23.07
-22.77
-21.71
-20.04
-18.00
-15.95
-14.22
-13.04
-12.40
-12.13
-11.99
-11.71
-11.16
-10.37
-9.48
-8.66
-8.06
-7.75
-7.68
-7.76
-7.89
-7.99
-7.98
-7.80
-7.38
-6.70
-5.81
-4.89
-4.19
-3.92
-4.17
-4.87
-5.84
-6.84
-7.74
-8.44
-8.93
-9.17
-9.16
-8.92
-8.54
-8.15
-7.88
-7.78
-7.74
-7.57
-7.09
-6.19
-4.90
-3.31
-1.52
0.43
2.53
4.71
6.86
8.83
10.58
12.18
13.77
15.44
17.15
18.74
19.99
20.82
21.30
21.65
22.06
22.62
23.18
23.48
23.30
22.52
21.21
19.56
17.83
16.25
14.90
13.77
12.70
11.52
10.13
8.56
6.94
5.35
3.79
2.11
0.14
-2.23
-4.93
-7.74
-10.38
-12.70
-14.69
-16.48
-18.16
-19.72
-21.01
-21.78
-21.80
-20.95
-19.21
-16.73
-13.76
-10.56
-7.38
-4.36
-1.47
1.32
4.04
6.62
8.85
10.55
11.66
12.33
12.84
13.48
14.40
15.48
16.49
17.20
17.49
17.49
17.46
17.69
18.41
19.65
21.27
22.97
24.45
25.44
25.84
25.72
25.24
24.60
23.89
23.10
22.16
21.00
19.57
17.82
15.66
12.95
9.62
5.72
1.48
-2.71
-6.47
-9.64
-12.30
-14.73
-17.20
-19.81
-22.36
-24.43
-25.54
-25.41
-24.01
-21.63
-18.68
-15.59
-12.67
-10.06
-7.82
-5.96
-4.49
-3.43
-2.74
-2.32
-2.01
-1.65
-1.14
-0.49
0.24
0.91
1.49
1.98
2.45
2.89
3.25
3.41
3.27
2.86
2.36
1.92
1.63
1.34
0.85
-0.01
-1.22
-2.59
-3.91
-5.12
-6.37
-7.89
-9.86
-12.19
-14.59
-16.73
-18.36
-19.49
-20.25
-20.89
-21.61
-22.54
-23.74
-25.14
-26.58
-27.76
-28.34
-28.09
-26.97
-25.20
-23.14
-21.10
-19.20
-17.38
-15.45
-13.25
-10.73
-7.95
-5.01
-1.95
1.27
4.71
8.40
12.25
16.06
19.58
22.52
24.76
26.27
27.13
27.50
27.59
27.61
27.73
28.11
28.77
29.61
30.45
31.04
31.20
30.82
29.94
28.71
27.23
25.61
23.85
21.98
20.02
18.04
16.11
14.22
12.33
10.30
8.04
5.56
2.91
0.22
-2.43
-5.00
-7.52
-9.91
-12.08
-13.84
-15.03
-15.58
-15.57
-15.17
-14.51
-13.73
-12.86
-11.98
-11.16
-10.51
-10.11
-10.01
-10.15
-10.45
-10.83
-11.19
-11.52
-11.76
-11.84
-11.66
-11.17
-10.37
-9.34
-8.21
-7.08
-6.00
-4.91
-3.72
-2.35
-0.88
0.51
1.60
2.30
2.65
2.84
3.10
3.51
4.04
4.56
4.96
5.23
5.42
5.54
5.55
5.36
4.93
4.32
3.69
3.16
2.73
2.25
1.55
0.57
-0.52
-1.43
-1.84
-1.64
-0.86
0.30
1.72
3.35
5.21
7.28
9.36
11.17
12.43
12.98
12.86
12.27
11.50
10.80
10.35
10.24
10.49
11.09
11.93
12.81
13.52
13.88
13.79
13.32
12.60
11.77
10.92
10.04
9.09
8.07
7.02
6.01
5.10
4.27
3.45
2.52
1.40
0.03
-1.59
-3.41
-5.34
-7.25
-9.04
-10.63
-12.03
-13.31
-14.53
-15.80
-17.12
-18.50
-19.89
-21.17
-22.16
-22.56
-22.10
-20.63
-18.21
-15.14
-11.87
-8.82
-6.18
-3.91
-1.85
0.19
2.23
4.16
5.83
7.12
8.10
8.88
9.62
10.34
10.97
11.34
11.29
10.84
10.13
9.49
9.24
9.62
10.57
11.79
12.73
12.78
11.46
8.58
4.33
-0.80
-6.21
-11.31
-15.68
-19.07
-21.42
-22.74
-23.12
-22.70
-21.71
-20.42
-19.13
-18.12
-17.56
-17.52
-17.94
-18.63
-19.30
-19.64
-19.33
-18.16
-16.00
-12.94
-9.21
-5.14
-1.06
2.76
6.21
9.26
12.00
14.50
16.83
18.94
20.75
22.13
23.01
23.43
23.51
23.40
23.20
22.94
22.54
21.92
21.03
19.94
18.75
17.52
16.27
14.92
13.39
11.70
9.94
8.26
6.81
5.66
4.78
4.08
3.41
2.63
1.63
0.35
-1.17
-2.82
-4.41
-5.83
-7.03
-8.14
-9.37
-10.92
-12.78
-14.78
-16.47
-17.31
-16.76
-14.47
-10.37
-4.77
1.74
8.40
14.52
19.64
23.64
26.60
28.72
30.18
31.02
31.18
30.55
29.17
27.13
24.62
21.78
18.74
15.62
12.57
9.79
7.45
5.65
4.32
3.21
2.05
0.62
-1.17
-3.25
-5.45
-7.68
-9.90
-12.11
-14.27
-16.29
-18.04
-19.41
-20.39
-21.05
-21.47
-21.70
-21.66
-21.27
-20.51
-19.53
-18.62
-18.12
-18.22
-18.84
-19.74
-20.51
-20.76
-20.23
-18.85
-16.73
-14.10
-11.25
-8.43
-5.80
-3.43
-1.28
0.74
2.69
4.66
6.68
8.79
11.02
13.30
15.47
17.30
18.60
19.27
19.40
19.22
18.98
18.87
18.89
18.98
19.02
18.91
18.63
18.15
17.44
16.46
15.25
13.89
12.55
11.34
10.26
9.21
8.02
6.60
5.03
3.52
2.28
1.42
0.87
0.42
-0.12
-0.90
-1.91
-3.07
-4.23
-5.36
-6.52
-7.77
-9.18
-10.70
-12.24
-13.67
-14.93
-16.01
-16.97
-17.80
-18.46
-18.86
-18.90
-18.59
-18.03
-17.41
-16.89
-16.64
-16.72
-17.16
-17.97
-19.06
-20.30
-21.49
-22.41
-22.98
-23.20
-23.22
-23.24
-23.32
-23.31
-22.89
-21.68
-19.45
-16.20
-12.19
-7.77
-3.26
1.15
5.39
9.40
13.11
16.43
19.28
21.62
23.46
24.80
25.59
25.80
25.37
24.32
22.73
20.69
18.29
15.58
12.67
9.74
7.00
4.69
3.00
1.97
1.60
1.78
2.39
3.26
4.19
4.98
5.52
5.72
5.62
5.27
4.74
4.04
3.20
2.25
1.25
0.25
-0.74
-1.75
-2.88
-4.21
-5.72
-7.30
-8.79
-10.01
-10.90
-11.47
-11.75
-11.75
-11.42
-10.71
-9.60
-8.19
-6.71
-5.40
-4.46
-3.95
-3.75
-3.67
-3.47
-3.04
-2.39
-1.64
-0.94
-0.37
0.09
0.55
1.20
2.22
3.73
5.74
8.17
10.86
13.61
16.28
18.72
20.84
22.53
23.74
24.40
24.49
24.00
22.93
21.25
18.94
16.00
12.55
8.82
5.12
1.76
-1.06
-3.37
-5.33
-7.12
-8.85
-10.50
-11.97
-13.19
-14.16
-14.89
-15.37
-15.54
-15.41
-15.07
-14.75
-14.67
-14.93
-15.39
-15.78
-15.81
-15.40
-14.63
-13.70
-12.77
-11.90
-11.06
-10.29
-9.72
-9.55
-9.90
-10.67
-11.53
-12.04
-11.78
-10.51
-8.21
-5.12
-1.65
1.64
4.21
5.68
6.01
5.58
5.07
5.26
6.74
9.68
13.78
18.37
22.59
25.72
27.27
27.16
25.66
23.28
20.63
18.18
16.19
14.63
13.28
11.83
10.06
7.86
5.26
2.39
-0.57
-3.40
-5.89
-7.86
-9.20
-9.89
-9.94
-9.33
-7.97
-5.63
-2.10
2.73
8.66
15.20
21.55
26.88
30.49
32.03
31.53
29.39
26.26
22.84
19.82
17.67
16.66
16.75
17.61
18.60
18.94
17.86
14.81
9.55
2.26
-6.45
-15.78
-24.82
-32.83
-39.40
-44.56
-48.70
-52.38
-56.11
-60.15
-64.43
-68.48
-71.68
-73.34
-72.99
-70.40
-65.64
-59.09
-51.27
-42.78
-34.16
-25.80
-17.97
-10.85
-4.63
0.53
4.50
7.28
8.97
9.79
9.92
9.52
8.68
7.50
6.24
5.21
4.75
5.09
6.25
8.03
10.17
12.40
14.53
16.47
18.14
19.47
20.42
21.00
21.32
21.53
21.79
22.25
22.99
24.09
25.60
27.50
29.67
31.92
34.01
35.75
37.01
37.80
38.15
38.07
37.59
36.64
35.17
33.01
29.88
25.38
19.14
10.95
1.05
-9.89
-20.84
-30.62
-38.20
-42.94
-44.79
-44.33
-42.72
-41.42
-41.87
-44.94
-50.67
-58.14
-65.77
-71.83
-75.01
-74.77
-71.29
-65.28
-57.64
-49.19
-40.62
-32.48
-25.15
-18.88
-13.69
-9.43
-5.84
-2.53
0.82
4.37
8.16
12.03
15.72
18.91
21.40
23.11
24.14
24.73
25.13
25.52
25.99
26.51
26.96
27.22
27.12
26.54
25.39
23.74
21.81
19.88
18.20
16.87
15.75
14.57
13.01
10.92
8.38
5.67
3.11
0.89
-1.02
-2.81
-4.65
-6.52
-8.20
-9.34
-9.63
-8.86
-6.93
-3.71
0.90
6.84
13.79
21.07
27.85
33.45
37.56
40.36
42.25
43.56
44.36
44.44
43.53
41.45
38.25
34.13
29.34
24.12
18.69
13.25
8.00
3.13
-1.24
-5.07
-8.45
-11.53
-14.48
-17.48
-20.71
-24.28
-28.32
-32.86
-37.83
-42.98
-47.87
-51.87
-54.39
-55.00
-53.60
-50.40
-45.83
-40.36
-34.35
-28.01
-21.46
-14.73
-7.87
-0.89
6.17
13.22
20.04
26.37
31.90
36.48
40.17
43.20
45.85
48.23
50.26
51.65
52.13
51.60
50.21
48.25
46.03
43.71
41.28
38.62
35.61
32.26
28.72
25.29
22.24
19.73
17.71
15.93
14.05
11.74
8.79
5.09
0.66
-4.46
-10.19
-16.36
-22.70
-28.83
-34.29
-38.70
-41.86
-43.79
-44.73
-45.07
-45.14
-45.18
-45.19
-44.97
-44.17
-42.48
-39.70
-35.86
-31.25
-26.26
-21.35
-16.87
-13.01
-9.76
-6.97
-4.42
-1.89
0.66
3.13
5.27
6.82
7.65
7.86
7.71
7.51
7.53
7.83
8.31
8.73
8.83
8.45
7.51
6.12
4.58
3.25
2.44
2.27
2.58
3.04
3.33
3.32
3.11
2.90
2.84
2.82
2.63
2.02
0.95
-0.45
-1.96
-3.46
-4.94
-6.47
-8.05
-9.54
-10.64
-11.07
-10.71
-9.65
-8.10
-6.34
-4.58
-2.94
-1.45
-0.08
1.17
2.28
3.25
4.07
4.73
5.18
5.37
5.23
4.74
3.93
3.03
2.32
2.08
2.44
3.27
4.21
4.84
4.85
4.24
3.30
2.40
1.85
1.74
1.85
1.88
1.54
0.73
-0.43
-1.73
-2.97
-4.08
-5.13
-6.20
-7.33
-8.49
-9.56
-10.49
-11.29
-12.05
-12.76
-13.33
-13.46
-12.90
-11.51
-9.44
-7.09
-4.97
-3.46
-2.64
-2.30
-2.07
-1.59
-0.63
0.77
2.46
4.16
5.64
6.71
7.31
7.48
7.34
7.05
6.73
6.50
6.44
6.63
7.12
7.92
8.87
9.72
10.18
10.11
9.53
8.67
7.82
7.15
6.68
6.24
5.64
4.78
3.70
2.51
1.30
0.08
-1.25
-2.78
-4.51
-6.35
-8.13
-9.69
-10.92
-11.75
-12.13
-12.02
-11.34
-10.08
-8.27
-6.03
-3.50
-0.74
2.22
5.46
8.95
12.58
16.11
19.26
21.82
23.72
25.07
26.04
26.88
27.77
28.76
29.84
30.88
31.73
32.19
32.14
31.56
30.66
29.75
29.17
29.12
29.56
30.21
30.78
31.00
30.78
30.15
29.17
27.84
26.05
23.65
20.57
16.90
12.87
8.81
4.86
0.93
-3.26
-8.13
-13.94
-20.69
-27.98
-35.17
-41.54
-46.48
-49.68
-51.13
-51.10
-49.91
-47.89
-45.26
-42.09
-38.44
-34.39
-30.18
-26.18
-22.82
-20.41
-19.02
-18.43
-18.26
-18.10
-17.66
-16.78
-15.48
-13.74
-11.54
-8.80
-5.47
-1.57
2.72
7.07
11.12
14.57
17.21
19.03
20.15
20.74
20.96
20.88
20.47
19.72
18.63
17.31
15.90
14.56
13.38
12.37
11.50
10.78
10.21
9.84
9.66
9.60
9.52
9.33
8.99
8.59
8.26
8.13
8.17
8.22
8.04
7.43
6.41
5.12
3.81
2.60
1.49
0.32
-1.05
-2.63
-4.28
-5.72
-6.76
-7.36
-7.68
-7.92
-8.22
-8.58
-8.86
-8.88
-8.56
-8.00
-7.45
-7.16
-7.29
-7.83
-8.61
-9.38
-9.93
-10.21
-10.29
-10.34
-10.47
-10.76
-11.15
-11.57
-11.93
-12.18
-12.30
-12.33
-12.32
-12.28
-12.22
-12.03
-11.59
-10.78
-9.59
-8.11
-6.46
-4.74
-2.94
-0.98
1.23
3.70
6.32
8.92
11.36
13.55
15.43
16.96
18.07
18.70
18.86
18.65
18.25
17.89
17.70
17.67
17.71
17.64
17.30
16.67
15.79
14.79
13.85
13.04
12.36
11.72
10.95
9.95
8.68
7.19
5.56
3.93
2.36
0.91
-0.40
-1.54
-2.54
-3.37
-4.07
-4.71
-5.34
-6.06
-6.91
-7.90
-9.00
-10.12
-11.18
-12.08
-12.79
-13.28
-13.48
-13.33
-12.73
-11.61
-10.04
-8.13
-6.06
-3.99
-2.03
-0.25
1.29
2.57
3.53
4.22
4.72
5.17
5.68
6.21
6.58
6.57
6.06
5.14
4.11
3.30
2.95
3.08
3.55
4.10
4.52
4.65
4.41
3.76
2.72
1.38
-0.12
-1.60
-2.97
-4.23
-5.46
-6.69
-7.90
-8.97
-9.74
-10.17
-10.34
-10.42
-10.57
-10.92
-11.52
-12.33
-13.33
-14.41
-15.42
-16.12
-16.23
-15.55
-14.08
-12.05
-9.91
-8.14
-7.04
-6.65
-6.76
-6.98
-6.98
-6.55
-5.68
-4.49
-3.10
-1.58
0.04
1.72
3.36
4.77
5.78
6.30
6.36
6.15
5.95
5.96
6.26
6.72
7.05
6.96
6.27
5.07
3.66
2.43
1.67
1.41
1.49
1.63
1.62
1.38
0.94
0.34
-0.46
-1.52
-2.94
-4.69
-6.60
-8.41
-9.88
-10.95
-11.71
-12.38
-13.19
-14.19
-15.26
-16.16
-16.58
-16.37
-15.58
-14.47
-13.41
-12.70
-12.49
-12.76
-13.38
-14.19
-15.03
-15.73
-16.08
-15.89
-15.08
-13.76
-12.24
-10.92
-10.06
-9.73
-9.75
-9.91
-10.08
-10.31
-10.71
-11.32
-11.99
-12.41
-12.28
-11.45
-9.99
-8.14
-6.13
-4.12
-2.15
-0.25
1.50
2.95
3.94
4.41
4.45
4.35
4.44
5.10
6.52
8.70
11.41
14.24
16.76
18.59
19.63
19.98
19.96
19.88
19.99
20.41
21.11
22.03
23.08
24.22
25.31
26.18
26.62
26.48
25.82
24.89
24.12
23.90
24.47
25.76
27.47
29.17
30.40
30.96
30.76
29.94
28.65
27.05
25.22
23.25
21.24
19.32
17.66
16.24
14.96
13.52
11.59
8.97
5.70
2.03
-1.66
-5.02
-7.88
-10.29
-12.45
-14.63
-17.07
-19.90
-23.12
-26.59
-30.07
-33.32
-36.11
-38.23
-39.55
-39.97
-39.44
-38.00
-35.78
-32.96
-29.76
-26.38
-22.94
-19.54
-16.23
-13.05
-10.02
-7.16
-4.47
-1.97
0.26
2.12
3.46
4.21
4.40
4.18
3.74
3.31
2.98
2.75
2.51
2.11
1.44
0.46
-0.80
-2.27
-3.85
-5.44
-6.93
-8.17
-9.05
-9.52
-9.66
-9.63
-9.62
-9.69
-9.83
-9.85
-9.60
-9.01
-8.22
-7.44
-6.92
-6.77
-6.90
-7.08
-7.05
-6.62
-5.70
-4.32
-2.60
-0.65
1.44
3.66
6.03
8.56
11.17
13.73
16.11
18.22
20.03
21.56
22.80
23.65
23.97
23.61
22.50
20.67
18.25
15.48
12.62
9.90
7.49
5.49
3.92
2.67
1.62
0.65
-0.29
-1.26
-2.30
-3.48
-4.89
-6.54
-8.28
-9.91
-11.28
-12.37
-13.38
-14.58
-16.16
-18.11
-20.19
-22.09
-23.65
-24.86
-25.89
-26.84
-27.64
-28.05
-27.76
-26.60
-24.61
-22.05
-19.25
-16.47
-13.82
-11.36
-9.08
-6.97
-5.02
-3.19
-1.41
0.43
2.40
4.45
6.48
8.38
10.00
11.23
12.02
12.36
12.35
12.14
11.90
11.78
11.76
11.70
11.35
10.52
9.18
7.50
5.78
4.32
3.26
2.61
2.22
1.97
1.75
1.58
1.45
1.35
1.20
0.83
0.08
-1.17
-2.86
-4.78
-6.53
-7.66
-7.79
-6.78
-4.86
-2.52
-0.28
1.53
2.90
4.10
5.48
7.20
9.15
11.04
12.60
13.73
14.53
15.15
15.67
15.97
15.84
15.17
14.05
12.80
11.83
11.41
11.55
12.03
12.56
12.89
12.96
12.80
12.50
12.07
11.49
10.74
9.82
8.81
7.78
6.85
6.05
5.39
4.82
4.25
3.57
2.69
1.54
0.12
-1.49
-3.22
-4.96
-6.73
-8.62
-10.76
-13.14
-15.57
-17.65
-18.94
-19.05
-17.88
-15.54
-12.34
-8.57
-4.49
-0.26
3.97
8.00
11.57
14.45
16.49
17.76
18.48
18.99
19.58
20.44
21.57
22.86
24.19
25.48
26.73
27.96
29.13
30.09
30.66
30.72
30.30
29.58
28.79
28.07
27.38
26.50
25.13
23.07
20.15
16.37
11.75
6.37
0.33
-6.22
-13.08
-20.02
-26.78
-33.17
-39.03
-44.32
-49.03
-53.19
-56.74
-59.51
-61.23
-61.57
-60.37
-57.68
-53.80
-49.22
-44.42
-39.71
-35.16
-30.65
-26.05
-21.31
-16.60
-12.25
-8.63
-5.99
-4.36
-3.47
-2.89
-2.15
-0.95
0.83
3.08
5.55
8.02
10.30
12.28
13.93
15.21
16.12
16.58
16.61
16.21
15.50
14.70
14.00
13.54
13.27
12.95
12.23
10.84
8.75
6.19
3.54
1.15
-0.86
-2.61
-4.37
-6.32
-8.46
-10.63
-12.60
-14.20
-15.34
-15.98
-16.09
-15.53
-14.18
-12.02
-9.19
-5.98
-2.74
0.27
2.99
5.52
8.00
10.50
12.96
15.19
16.96
18.12
18.57
18.39
17.71
16.74
15.73
14.90
14.43
14.37
14.60
14.90
14.95
14.55
13.67
12.40
10.94
9.44
7.92
6.29
4.49
2.48
0.32
-1.84
-3.88
-5.74
-7.41
-8.89
-10.16
-11.12
-11.71
-11.88
-11.68
-11.19
-10.52
-9.78
-9.05
-8.40
-7.82
-7.18
-6.28
-4.92
-2.99
-0.55
2.18
4.96
7.65
10.20
12.63
14.93
17.02
18.83
20.36
21.72
23.05
24.46
25.87
27.10
27.95
28.33
28.27
27.94
27.48
27.01
26.48
25.78
24.74
23.25
21.33
19.10
16.71
14.31
11.92
9.48
6.91
4.14
1.25
-1.65
-4.39
-6.93
-9.34
-11.79
-14.45
-17.43
-20.72
-24.21
-27.74
-31.11
-34.15
-36.65
-38.42
-39.26
-38.99
-37.51
-34.80
-31.01
-26.41
-21.36
-16.22
-11.30
-6.84
-2.94
0.34
3.07
5.37
7.36
9.12
10.65
11.90
12.75
13.13
13.03
12.55
11.84
11.12
10.54
10.14
9.86
9.55
9.02
8.15
6.87
5.27
3.51
1.82
0.41
-0.59
-1.17
-1.42
-1.55
-1.79
-2.34
-3.29
-4.58
-6.05
-7.45
-8.61
-9.50
-10.28
-11.28
-12.80
-14.97
-17.64
-20.38
-22.61
-23.82
-23.70
-22.21
-19.53
-16.02
-12.07
-8.03
-4.23
-0.91
1.75
3.75
5.15
6.21
7.20
8.37
9.82
11.51
13.17
14.49
15.23
15.28
14.77
13.96
13.13
12.47
12.03
11.75
11.56
11.36
11.11
10.78
10.35
9.87
9.48
9.32
9.52
10.02
10.58
10.88
10.60
9.63
8.06
6.12
4.08
2.16
0.43
-1.03
-2.18
-3.02
-3.58
-3.96
-4.32
-4.71
-5.05
-5.07
-4.48
-3.09
-0.92
1.85
4.94
8.07
11.00
13.56
15.55
16.81
17.27
16.99
16.19
15.14
14.06
13.02
11.89
10.51
8.74
6.68
4.62
2.89
1.71
1.03
0.60
0.04
-0.88
-2.15
-3.59
-4.92
-6.03
-7.00
-7.96
-9.02
-10.07
-10.89
-11.27
-11.16
-10.70
-10.14
-9.69
-9.39
-9.19
-9.04
-8.93
-8.98
-9.33
-10.04
-11.04
-12.16
-13.11
-13.59
-13.37
-12.30
-10.39
-7.78
-4.69
-1.31
2.24
5.91
9.65
13.33
16.77
19.76
22.12
23.81
24.94
25.66
26.17
26.56
26.82
26.93
26.80
26.38
25.63
24.47
22.88
20.84
18.41
15.64
12.63
9.47
6.20
2.92
-0.26
-3.19
-5.67
-7.60
-9.05
-10.29
-11.70
-13.59
-16.01
-18.70
-21.23
-23.18
-24.40
-25.02
-25.46
-26.11
-27.26
-28.96
-31.07
-33.38
-35.56
-37.25
-38.01
-37.46
-35.39
-31.89
-27.31
-22.18
-16.98
-12.00
-7.36
-3.09
0.74
4.03
6.68
8.66
10.13
11.26
12.26
13.19
14.03
14.76
15.37
15.96
16.63
17.47
18.46
19.51
20.44
21.06
21.25
20.97
20.35
19.59
18.87
18.26
17.62
16.68
15.14
12.83
9.77
6.15
2.25
-1.71
-5.59
-9.25
-12.57
-15.41
-17.69
-19.42
-20.77
-21.93
-23.08
-24.18
-25.08
-25.50
-25.15
-23.93
-21.95
-19.50
-16.90
-14.41
-12.10
-9.93
-7.79
-5.67
-3.70
-2.12
-1.11
-0.74
-0.82
-1.04
-1.09
-0.79
-0.14
0.68
1.51
2.27
2.95
3.59
4.13
4.43
4.22
3.35
1.81
-0.16
-2.16
-3.78
-4.78
-5.14
-5.02
-4.61
-4.09
-3.58
-3.14
-2.91
-3.01
-3.54
-4.52
-5.83
-7.27
-8.65
-9.86
-10.92
-11.89
-12.83
-13.68
-14.29
-14.47
-14.05
-12.95
-11.17
-8.75
-5.75
-2.32
1.39
5.16
8.77
12.06
15.01
17.69
20.20
22.58
24.73
26.37
27.20
26.99
25.70
23.59
21.03
18.46
16.17
14.31
12.84
11.70
10.84
10.27
10.01
9.96
9.94
9.70
9.07
8.01
6.64
5.17
3.79
2.63
1.71
0.95
0.27
-0.45
-1.30
-2.31
-3.46
-4.71
-6.02
-7.39
-8.86
-10.47
-12.17
-13.76
-14.94
-15.43
-15.06
-13.89
-12.16
-10.13
-8.06
-6.12
-4.39
-2.92
-1.75
-0.87
-0.25
0.22
0.65
1.07
1.46
1.75
1.82
1.64
1.25
0.73
0.14
-0.46
-1.11
-1.77
-2.34
-2.68
-2.62
-2.09
-1.18
-0.11
0.91
1.80
2.63
3.58
4.76
6.07
7.20
7.79
7.63
6.79
5.58
4.38
3.48
2.90
2.51
2.10
1.51
0.71
-0.22
-1.14
-1.91
-2.42
-2.57
-2.26
-1.45
-0.14
1.67
3.92
6.57
9.55
12.77
16.00
18.99
21.47
23.26
24.29
24.62
24.37
23.66
22.55
21.05
19.22
17.10
14.76
12.28
9.63
6.72
3.35
-0.59
-5.19
-10.32
-15.69
-20.85
-25.33
-28.74
-30.89
-31.81
-31.71
-30.93
-29.76
-28.45
-27.15
-25.95
-24.88
-24.00
-23.34
-22.88
-22.56
-22.23
-21.75
-21.01
-20.05
-19.09
-18.40
-18.23
-18.54
-19.03
-19.19
-18.54
-16.88
-14.29
-11.11
-7.71
-4.35
-1.10
2.09
5.28
8.46
11.54
14.39
16.89
18.96
20.53
21.58
22.08
22.04
21.48
20.46
19.04
17.31
15.37
13.33
11.21
9.02
6.68
4.19
1.66
-0.71
-2.67
-4.12
-5.08
-5.74
-6.31
-6.90
-7.51
-8.04
-8.40
-8.60
-8.70
-8.77
-8.84
-8.87
-8.79
-8.59
-8.36
-8.27
-8.49
-9.08
-9.99
-11.04
-12.03
-12.76
-13.17
-13.31
-13.26
-13.16
-13.12
-13.22
-13.42
-13.58
-13.42
-12.63
-10.99
-8.52
-5.49
-2.27
0.81
3.64
6.35
9.14
12.11
15.14
17.92
20.09
21.50
22.22
22.50
22.60
22.63
22.53
22.16
21.40
20.33
19.27
18.61
18.71
19.67
21.26
23.00
24.36
24.91
24.58
23.57
22.29
21.11
20.26
19.70
19.27
18.83
18.45
18.53
19.70
22.57
27.54
34.60
43.37
53.28
63.69
74.06
83.84
92.40
99.01
103.01
104.06
102.29
98.29
92.83
86.49
79.53
71.86
63.27
53.77
43.54
32.94
22.24
11.54
0.80
-9.95
-20.47
-30.34
-39.06
-46.33
-52.24
-57.16
-61.62
-66.01
-70.37
-74.48
-77.88
-80.16
-81.06
-80.50
-78.57
-75.50
-71.59
-67.17
-62.61
-58.20
-54.11
-50.41
-47.20
-44.59
-42.80
-42.03
-42.30
-43.34
-44.65
-45.64
-45.89
-45.34
-44.22
-42.93
-41.76
-40.75
-39.70
-38.29
-36.26
-33.54
-30.25
-26.64
-22.90
-19.11
-15.31
-11.50
-7.83
-4.62
-2.25
-1.00
-0.95
-1.92
-3.60
-5.62
-7.76
-9.88
-11.93
-13.83
-15.48
-16.75
-17.65
-18.32
-19.02
-19.99
-21.31
-22.89
-24.40
-25.45
-25.76
-25.24
-24.06
-22.54
-21.03
-19.84
-19.15
-19.01
-19.47
-20.52
-22.12
-24.19
-26.45
-28.48
-29.80
-29.99
-28.90
-26.65
-23.53
-19.84
-15.82
-11.55
-7.08
-2.54
1.88
5.95
9.42
12.16
14.12
15.31
15.77
15.64
15.15
14.59
14.21
14.15
14.39
14.80
15.18
15.47
15.69
15.92
16.24
16.62
16.92
16.95
16.57
15.78
14.71
13.59
12.61
11.81
11.08
10.27
9.24
8.04
6.74
5.50
4.36
3.27
2.19
1.10
0.08
-0.83
-1.59
-2.24
-2.82
-3.35
-3.68
-3.60
-2.87
-1.34
0.93
3.71
6.65
9.44
11.84
13.82
15.45
16.84
18.06
19.00
19.48
19.33
18.49
17.10
15.43
13.79
12.43
11.44
10.77
10.33
9.99
9.65
9.26
8.82
8.35
7.91
7.55
7.27
7.10
7.00
6.94
6.91
6.89
6.90
6.95
7.05
7.15
7.21
7.15
6.86
6.23
5.19
3.73
1.95
0.04
-1.68
-2.86
-3.15
-2.28
-0.17
3.02
6.89
10.95
14.72
17.93
20.49
22.48
23.95
24.91
25.18
24.58
22.98
20.46
17.30
13.95
10.89
8.44
6.73
5.63
4.91
4.29
3.59
2.73
1.67
0.40
-1.12
-2.91
-4.96
-7.11
-9.15
-10.82
-11.96
-12.58
-12.79
-12.78
-12.71
-12.64
-12.51
-12.24
-11.81
-11.33
-11.04
-11.20
-11.99
-13.33
-14.93
-16.31
-17.00
-16.65
-15.16
-12.67
-9.43
-5.71
-1.72
2.41
6.61
10.80
14.85
18.57
21.75
24.19
25.86
26.88
27.51
28.06
28.73
29.50
30.15
30.39
30.04
29.12
27.86
26.53
25.27
24.02
22.55
20.65
18.30
15.70
13.13
10.84
8.89
7.15
5.39
3.45
1.26
-1.11
-3.50
-5.81
-7.92
-9.83
-11.57
-13.23
-14.96
-16.85
-18.88
-20.91
-22.67
-23.85
-24.26
-23.84
-22.71
-20.98
-18.79
-16.17
-13.17
-9.89
-6.47
-3.08
0.16
3.16
5.91
8.35
10.43
12.07
13.29
14.21
15.00
15.88
16.96
18.17
19.32
20.18
20.60
20.62
20.41
20.11
19.78
19.33
18.57
17.39
15.85
14.15
12.53
11.09
9.75
8.30
6.56
4.49
2.20
-0.13
-2.40
-4.64
-6.96
-9.44
-12.07
-14.71
-17.12
-19.04
-20.22
-20.48
-19.76
-18.14
-15.87
-13.28
-10.71
-8.33
-6.10
-3.88
-1.49
1.15
3.95
6.81
9.56
12.07
14.23
15.90
16.99
17.51
17.63
17.61
17.72
18.06
18.47
18.68
18.35
17.31
15.55
13.20
10.51
7.76
5.21
3.14
1.67
0.77
0.22
-0.33
-1.18
-2.47
-4.08
-5.80
-7.35
-8.59
-9.50
-10.22
-10.91
-11.75
-12.83
-14.17
-15.65
-17.06
-18.16
-18.75
-18.66
-17.83
-16.28
-14.08
-11.41
-8.49
-5.56
-2.88
-0.59
1.32
2.94
4.42
5.86
7.27
8.62
9.89
11.10
12.24
13.29
14.09
14.47
14.28
13.49
12.23
10.73
9.19
7.76
6.49
5.38
4.38
3.43
2.40
1.19
-0.30
-2.13
-4.19
-6.36
-8.49
-10.51
-12.43
-14.27
-16.02
-17.55
-18.71
-19.38
-19.61
-19.65
-19.86
-20.58
-21.95
-23.83
-25.84
-27.53
-28.51
-28.58
-27.70
-25.96
-23.53
-20.62
-17.44
-14.23
-11.15
-8.31
-5.74
-3.43
-1.37
0.47
2.10
3.57
4.95
6.25
7.41
8.26
8.64
8.49
7.93
7.24
6.72
6.56
6.79
7.27
7.79
8.12
8.12
7.76
7.09
6.25
5.40
4.69
4.19
3.83
3.47
2.92
2.05
0.84
-0.58
-2.05
-3.43
-4.63
-5.62
-6.41
-7.05
-7.63
-8.29
-9.15
-10.25
-11.49
-12.63
-13.35
-13.43
-12.80
-11.61
-10.11
-8.57
-7.18
-6.04
-5.23
-4.75
-4.70
-5.14
-6.12
-7.66
-9.71
-12.16
-14.75
-17.16
-19.02
-20.02
-19.95
-18.82
-16.75
-13.92
-10.54
-6.80
-2.94
0.72
3.88
6.30
7.99
9.08
9.87
10.61
11.39
12.16
12.72
12.90
12.66
12.08
11.31
10.55
9.92
9.45
9.05
8.61
8.03
7.40
6.88
6.70
7.03
7.85
9.04
10.37
11.64
12.75
13.62
14.18
14.32
13.92
12.94
11.48
9.82
8.24
6.87
5.65
4.32
2.58
0.26
-2.59
-5.75
-8.86
-11.61
-13.75
-15.17
-15.81
-15.65
-14.62
-12.71
-9.91
-6.35
-2.24
2.04
6.16
9.84
12.98
15.62
17.90
19.89
21.59
22.89
23.62
23.61
22.74
20.99
18.44
15.30
11.85
8.44
5.45
3.18
1.78
1.17
1.08
1.10
0.85
0.03
-1.42
-3.37
-5.49
-7.46
-9.02
-10.06
-10.60
-10.80
-10.81
-10.76
-10.72
-10.65
-10.44
-9.97
-9.22
-8.28
-7.34
-6.57
-6.01
-5.57
-5.07
-4.36
-3.44
-2.42
-1.53
-0.90
-0.62
-0.67
-1.02
-1.68
-2.73
-4.21
-6.08
-8.12
-10.01
-11.41
-12.05
-11.84
-10.90
-9.49
-7.93
-6.48
-5.29
-4.39
-3.73
-3.31
-3.14
-3.29
-3.78
-4.58
-5.58
-6.64
-7.64
-8.52
-9.23
-9.69
-9.77
-9.33
-8.24
-6.53
-4.36
-1.99
0.32
2.37
4.13
5.71
7.23
8.78
10.30
11.64
12.63
13.15
13.19
12.79
12.00
10.89
9.52
7.98
6.41
4.99
3.82
2.94
2.24
1.60
0.91
0.19
-0.45
-0.85
-0.88
-0.53
0.04
0.58
0.81
0.59
-0.06
-0.95
-1.84
-2.58
-3.18
-3.75
-4.50
-5.53
-6.78
-8.06
-9.09
-9.65
-9.67
-9.18
-8.32
-7.17
-5.76
-4.08
-2.16
-0.05
2.09
4.15
6.01
7.66
9.08
10.25
11.13
11.65
11.83
11.75
11.58
11.45
11.41
11.41
11.31
11.04
10.55
9.96
9.39
8.93
8.64
8.45
8.25
7.88
7.22
6.18
4.77
3.00
1.05
-0.90
-2.66
-4.03
-4.95
-5.49
-5.81
-6.11
-6.63
-7.51
-8.82
-10.52
-12.45
-14.46
-16.29
-17.69
-18.48
-18.55
-17.90
-16.67
-15.10
-13.42
-11.76
-10.16
-8.56
-6.89
-5.16
-3.44
-1.84
-0.42
0.88
2.13
3.39
4.57
5.47
5.93
5.92
5.59
5.19
4.92
4.81
4.71
4.37
3.63
2.53
1.31
0.25
-0.46
-0.78
-0.86
-0.91
-1.08
-1.39
-1.80
-2.20
-2.53
-2.78
-2.97
-3.09
-2.99
-2.48
-1.45
0.04
1.66
2.90
3.23
2.31
0.21
-2.62
-5.46
-7.58
-8.51
-8.14
-6.74
-4.75
-2.60
-0.60
1.18
2.74
4.13
5.39
6.58
7.82
9.25
10.97
12.88
14.73
16.15
16.83
16.67
15.75
14.30
12.57
10.76
8.97
7.25
5.64
4.06
2.43
0.64
-1.35
-3.44
-5.40
-7.06
-8.35
-9.37
-10.32
-11.34
-12.46
-13.54
-14.39
-14.92
-15.19
-15.38
-15.68
-16.26
-17.14
-18.25
-19.43
-20.48
-21.15
-21.27
-20.72
-19.46
-17.59
-15.15
-12.14
-8.54
-4.33
0.44
5.53
10.55
15.12
18.94
21.91
24.14
25.85
27.25
28.43
29.33
29.81
29.78
29.25
28.45
27.64
27.09
26.90
26.98
27.08
26.95
26.42
25.49
24.28
22.96
21.63
20.30
18.80
16.97
14.63
11.81
8.66
5.48
2.55
-0.01
-2.26
-4.47
-6.92
-9.83
-13.22
-16.93
-20.63
-24.01
-26.72
-28.51
-29.25
-28.93
-27.67
-25.69
-23.23
-20.50
-17.64
-14.73
-11.87
-9.14
-6.64
-4.43
-2.51
-0.82
0.70
2.10
3.32
4.34
5.12
5.65
5.97
6.15
6.28
6.44
6.63
6.81
6.79
6.37
5.40
3.91
2.14
0.53
-0.52
-0.77
-0.28
0.66
1.70
2.58
3.22
3.66
4.02
4.36
4.65
4.80
4.63
3.99
2.74
0.80
-1.75
-4.68
-7.59
-10.00
-11.53
-11.98
-11.36
-9.77
-7.39
-4.36
-0.80
3.06
6.91
10.33
13.02
14.79
15.70
15.93
15.66
15.00
13.95
12.47
10.56
8.23
5.59
2.69
-0.35
-3.42
-6.36
-9.01
-11.26
-13.07
-14.41
-15.30
-15.75
-15.79
-15.47
-14.93
-14.34
-13.90
-13.71
-13.76
-13.99
-14.29
-14.56
-14.79
-15.01
-15.28
-15.72
-16.39
-17.26
-18.25
-19.18
-19.91
-20.38
-20.56
-20.42
-19.84
-18.57
-16.40
-13.20
-9.04
-4.22
0.83
5.64
9.89
13.40
16.19
18.39
20.20
21.82
23.37
24.87
26.27
27.44
28.26
28.61
28.46
27.81
26.71
25.22
23.45
21.54
19.63
17.84
16.16
14.51
12.72
10.64
8.17
5.40
2.57
-0.04
-2.18
-3.73
-4.80
-5.62
-6.49
-7.63
-9.11
-10.82
-12.54
-14.04
-15.17
-15.90
-16.31
-16.56
-16.69
-16.62
-16.13
-14.98
-12.97
-10.16
-6.75
-3.04
0.70
4.32
7.78
11.01
13.90
16.29
18.03
19.14
19.77
20.21
20.78
21.69
22.97
24.52
26.15
27.62
28.75
29.40
29.55
29.21
28.48
27.40
25.98
24.21
21.98
19.22
15.88
11.95
7.53
2.85
-1.80
-6.07
-9.73
-12.71
-15.12
-17.16
-19.01
-20.74
-22.34
-23.73
-24.92
-26.02
-27.26
-28.82
-30.75
-32.87
-34.80
-36.13
-36.52
-35.88
-34.33
-32.20
-29.84
-27.50
-25.19
-22.75
-19.91
-16.48
-12.46
-8.11
-3.77
0.18
3.58
6.43
8.97
11.42
13.89
16.31
18.44
20.03
20.94
21.20
20.98
20.50
19.87
19.14
18.28
17.24
16.05
14.78
13.54
12.32
11.07
9.69
8.12
6.42
4.76
3.36
2.40
1.92
1.79
1.78
1.61
1.08
0.14
-1.20
-2.84
-4.62
-6.37
-7.85
-8.81
-9.04
-8.40
-7.01
-5.10
-3.04
-1.15
0.39
1.51
2.21
2.47
2.24
1.50
0.35
-1.04
-2.42
-3.64
-4.64
-5.49
-6.20
-6.72
-6.90
-6.64
-5.98
-5.07
-4.17
-3.41
-2.80
-2.23
-1.57
-0.82
-0.13
0.29
0.24
-0.32
-1.22
-2.19
-2.85
-2.94
-2.33
-1.03
0.77
