1587314078.00
64.000000
-0.00
-0.00
-0.00
-0.00
-0.00
-0.00
-0.00
-0.00
-0.00
-0.00
0.00
0.01
0.01
-0.00
-0.03
-0.05
-0.05
0.00
0.13
0.36
0.66
1.01
1.37
1.72
2.06
2.40
2.79
3.24
3.80
4.42
5.06
5.66
6.20
6.68
7.15
7.68
8.31
9.14
10.09
11.04
11.89
12.58
13.17
13.82
14.74
16.08
18.08
20.53
23.16
25.69
27.95
30.00
32.16
34.87
38.44
43.25
48.94
55.00
60.83
66.08
70.82
75.51
80.86
87.38
95.60
105.01
114.82
124.13
132.38
139.60
146.41
154.15
161.51
170.74
182.45
196.73
212.38
226.50
234.76
232.51
216.39
185.51
142.28
90.51
34.54
-22.39
-78.73
-134.22
-188.97
-242.69
-294.52
-343.01
-387.24
-426.50
-460.22
-487.52
-506.99
-516.89
-515.45
-501.63
-475.32
-437.89
-391.69
-339.58
-284.42
-228.63
-173.98
-121.62
-72.40
-26.94
14.06
50.05
80.65
105.81
125.80
140.75
151.25
157.93
161.33
161.78
159.58
154.99
148.45
140.49
131.81
123.17
115.26
108.60
103.50
100.11
98.42
98.30
99.55
101.91
105.16
109.02
113.23
117.54
121.75
125.71
129.28
132.30
134.58
135.99
136.33
135.37
132.83
128.50
122.16
114.05
104.36
93.38
81.52
69.20
56.82
44.80
33.46
23.04
13.64
5.23
-2.31
-9.16
-15.56
-21.69
-27.68
-33.58
-39.35
-44.82
-49.78
-54.04
-57.39
-59.61
-60.52
-60.02
-58.04
-54.58
-49.69
-43.47
-36.11
-27.82
-18.88
-9.69
-0.66
7.78
15.19
21.20
25.43
27.75
28.11
26.70
23.86
20.06
15.90
11.96
8.77
6.76
6.23
7.26
9.75
13.47
18.05
23.04
27.93
32.28
35.68
37.80
38.47
37.63
35.36
31.86
27.37
22.31
17.13
12.36
8.54
6.19
5.77
7.62
11.93
18.72
27.87
39.05
51.84
65.71
80.10
94.40
108.05
120.52
131.39
140.31
146.98
151.28
153.12
152.54
149.64
144.70
138.07
130.23
121.77
113.31
105.45
98.73
93.52
90.06
88.36
88.23
89.29
90.97
92.67
93.72
93.55
91.67
87.78
81.76
73.67
63.81
52.60
40.47
27.97
15.55
3.64
-7.33
-17.00
-24.95
-30.83
-34.43
-35.70
-34.85
-32.22
-28.32
-23.59
-18.43
-13.06
-7.65
-2.30
2.75
7.15
10.45
12.27
12.36
10.78
7.81
3.89
-0.71
-6.01
-12.43
-20.64
-31.28
-44.51
-59.71
-75.49
-89.96
-101.55
-109.55
-114.56
-118.20
-122.49
-128.95
-137.79
-148.10
-158.12
-166.57
-173.56
-180.77
-191.31
-208.22
-233.19
-265.22
-300.72
-334.92
-363.67
-385.27
-400.38
-410.55
-416.10
-415.34
-405.52
-385.45
-357.06
-325.21
-294.86
-268.05
-242.68
-214.90
-182.85
-149.53
-121.87
-106.08
-103.04
-106.75
-107.81
-99.71
-83.16
-65.71
-56.67
-59.89
-70.63
-77.76
-70.39
-44.49
-5.79
32.40
55.80
55.62
32.66
-3.06
-36.46
-53.87
-48.20
-22.34
12.77
42.86
57.72
56.14
46.67
42.38
52.97
78.69
109.80
132.66
137.70
125.23
104.76
89.32
87.01
96.19
106.15
103.40
80.20
39.61
-4.63
-34.53
-36.00
-6.31
44.52
98.24
136.48
149.17
137.96
113.79
89.62
73.05
63.36
54.17
39.92
20.63
3.12
-2.95
8.14
33.69
62.68
81.28
79.90
58.24
25.19
-6.08
-25.49
-31.05
-28.65
-27.41
-32.85
-43.41
-51.30
-48.51
-32.83
-10.35
7.49
10.77
-3.44
-29.06
-54.84
-70.13
-70.19
-57.89
-41.75
-30.97
-30.44
-38.35
-46.93
-46.35
-30.43
-0.96
31.69
53.58
54.68
35.47
8.01
-10.27
-6.04
22.33
64.01
101.86
122.50
122.41
108.26
91.01
78.23
70.61
63.07
50.05
29.74
5.75
-14.85
-25.72
-24.45
-14.15
-1.75
4.78
0.74
-12.63
-28.23
-36.53
-31.10
-12.66
10.22
25.91
26.08
10.82
-11.46
-29.97
-38.21
-38.06
-37.20
-42.66
-55.11
-68.01
-72.01
-62.10
-41.50
-20.01
-8.54
-12.32
-28.10
-46.30
-55.95
-50.21
-28.57
2.99
35.11
57.85
64.35
53.30
29.89
3.99
-13.62
-16.00
-3.47
16.93
35.31
44.79
45.07
41.58
41.52
47.97
57.37
62.31
56.55
40.24
20.91
9.24
12.81
31.14
55.66
73.88
75.89
59.68
31.80
3.54
-14.74
-18.77
-11.73
-1.45
4.02
0.41
-10.68
-23.39
-31.21
-30.78
-24.12
-17.19
-16.25
-23.09
-33.61
-40.19
-36.39
-21.99
-3.57
9.71
12.04
5.41
-1.28
1.68
17.97
41.41
58.98
58.56
36.86
2.75
-27.40
-38.11
-23.81
7.87
39.97
55.59
46.68
18.40
-13.69
-32.32
-27.22
-0.22
36.31
66.88
80.86
77.91
66.43
57.76
58.81
68.17
77.30
76.21
59.81
31.10
0.21
-21.21
-26.24
-16.71
-2.02
6.07
-0.35
-21.02
-48.22
-70.70
-79.52
-72.70
-55.86
-38.61
-29.47
-31.20
-39.29
-45.33
-41.95
-27.23
-6.63
9.61
11.94
-2.51
-27.99
-51.94
-61.84
-52.37
-28.98
-4.93
6.42
-0.57
-20.72
-41.96
-53.11
-51.30
-43.65
-41.93
-54.02
-77.44
-99.74
-105.90
-87.61
-48.59
-3.04
32.51
48.37
46.66
39.71
42.04
61.97
96.61
133.13
155.38
152.09
122.90
78.21
34.27
5.28
-3.13
4.21
16.00
21.61
17.08
7.22
1.15
5.25
17.64
27.86
22.64
-5.77
-53.18
-104.42
-140.30
-147.95
-127.46
-90.97
-55.43
-33.20
-26.03
-26.03
-21.89
-6.49
18.88
45.54
63.19
65.73
55.04
39.68
30.01
32.66
46.93
65.13
76.85
74.74
58.98
37.59
22.17
20.96
33.82
52.01
63.61
60.49
43.89
23.77
13.10
19.92
41.69
66.25
78.20
67.25
34.29
-9.19
-46.83
-65.61
-62.50
-45.55
-28.39
-22.55
-31.14
-47.28
-59.00
-56.43
-38.26
-12.53
8.26
14.65
5.99
-9.84
-21.30
-20.98
-10.36
0.85
1.04
-15.80
-45.49
-75.01
-89.34
-79.52
-47.26
-4.05
35.38
59.77
66.52
61.33
54.09
53.36
62.09
76.41
88.48
90.69
79.38
57.47
32.56
13.25
4.16
3.32
2.98
-5.14
-23.95
-48.02
-65.48
-65.15
-44.32
-11.84
15.44
21.67
0.96
-39.25
-82.46
-112.22
-121.33
-114.65
-104.55
-102.18
-110.19
-121.84
-126.26
-116.66
-95.20
-72.27
-60.04
-65.88
-87.42
-113.38
-129.79
-126.85
-104.16
-70.58
-39.36
-21.45
-21.89
-37.67
-61.27
-85.89
-109.83
-136.85
-172.69
-219.48
-271.93
-320.66
-355.92
-373.63
-378.36
-381.01
-392.79
-419.15
-457.11
-482.25
-471.56
-410.34
-299.74
-156.61
-5.13
134.30
251.05
343.67
415.37
467.70
500.82
513.90
507.68
485.70
454.26
420.60
390.61
367.56
349.99
334.32
316.55
294.29
267.93
240.16
214.46
193.42
178.00
166.36
155.71
143.53
128.65
111.80
94.94
80.19
68.74
60.54
54.07
47.47
39.47
29.93
19.80
10.62
3.55
-1.14
-4.21
-7.15
-11.27
-17.08
-24.06
-30.88
-36.21
-39.23
-40.08
-39.70
-39.28
-39.99
-42.72
-48.13
-56.18
-65.43
-72.58
-73.10
-62.95
-40.64
-9.07
25.34
54.92
74.00
81.21
79.45
73.86
68.92
66.48
65.56
63.92
59.95
53.82
47.42
43.08
42.39
45.33
50.50
55.30
57.51
55.89
50.76
43.92
37.78
34.57
35.49
40.56
48.51
57.31
63.85
64.58
56.32
37.30
8.56
-25.66
-58.43
-82.34
-92.21
-87.56
-72.88
-55.77
-43.58
-40.21
-45.15
-54.22
-62.65
-67.53
-68.94
-69.30
-71.50
-77.07
-85.01
-91.94
-93.24
-84.98
-65.59
-36.86
-3.62
27.65
51.23
64.85
69.91
70.68
71.57
74.80
79.42
82.47
81.31
75.45
67.22
60.24
57.60
60.53
68.16
78.38
88.64
96.57
99.77
96.14
83.85
62.21
32.59
-0.94
-32.54
-55.55
-65.23
-60.84
-46.42
-29.28
-16.86
-13.70
-19.49
-29.73
-38.49
-41.52
-37.83
-29.73
-20.51
-13.03
-8.49
-7.16
-9.20
-15.57
-27.84
-46.40
-69.30
-91.86
-107.58
-110.59
-98.67
-74.15
-43.44
-14.35
7.17
18.80
22.06
20.31
16.76
13.08
9.77
7.13
5.91
7.39
12.00
18.65
24.69
27.24
24.94
18.61
11.29
6.54
6.83
12.29
20.97
30.08
36.93
39.02
34.18
20.58
-1.65
-29.14
-54.75
-69.67
-67.62
-49.22
-23.22
-2.92
0.67
-14.79
-41.33
-64.77
-72.59
-60.46
-33.98
-4.60
17.18
26.92
27.20
24.22
23.43
26.27
30.48
32.41
30.00
24.17
17.79
13.94
14.08
17.50
21.87
24.48
23.81
20.26
16.18
14.18
15.21
17.14
15.22
3.84
-20.20
-55.50
-96.21
-133.69
-160.35
-172.40
-170.54
-158.43
-140.36
-119.25
-95.70
-71.16
-46.90
-25.07
-8.11
2.66
7.72
9.19
9.57
10.82
13.13
15.54
16.43
14.29
8.40
-1.10
-13.03
-24.97
-33.33
-34.30
-24.79
-4.43
23.58
53.22
77.91
93.12
98.01
95.20
88.72
82.00
76.26
70.88
64.82
57.90
51.18
46.25
44.02
44.05
44.85
44.69
42.34
37.91
32.56
27.94
25.32
25.05
26.40
28.05
28.68
27.60
25.11
22.18
20.17
19.94
21.58
24.37
27.27
29.35
30.39
31.05
32.34
35.34
40.35
46.83
52.95
56.88
57.28
53.75
47.03
38.34
28.96
19.80
11.68
5.73
3.23
4.59
8.87
13.55
15.21
11.47
1.97
-11.73
-27.04
-41.64
-53.77
-61.71
-63.07
-55.42
-37.54
-11.11
18.48
44.68
61.94
67.20
60.12
42.27
16.70
-11.54
-35.56
-49.02
-48.02
-34.12
-14.53
1.15
5.96
-0.70
-12.91
-22.67
-24.80
-19.54
-11.76
-7.16
-8.47
-13.76
-20.03
-24.28
-25.88
-26.63
-28.90
-34.05
-41.41
-48.62
-52.83
-52.50
-47.79
-40.74
-34.29
-30.94
-31.64
-35.43
-39.96
-42.73
-42.35
-39.00
-34.40
-30.89
-30.35
-33.23
-38.39
-43.71
-47.22
-47.90
-46.06
-43.44
-41.47
-41.56
-44.50
-50.50
-58.98
-68.24
-75.20
-75.82
-66.60
-46.33
-17.50
14.30
42.36
61.50
70.12
70.18
65.65
60.11
55.41
51.31
46.95
41.97
37.03
33.41
31.92
32.34
33.45
33.82
32.28
28.78
24.19
19.85
16.96
16.02
16.64
17.79
18.34
17.48
15.15
11.96
8.87
6.73
5.93
6.26
7.08
7.59
7.26
5.99
4.13
2.35
1.22
1.07
1.79
2.90
3.74
3.76
2.79
1.10
-0.63
-1.66
-1.51
-0.23
1.56
2.90
2.89
1.14
-1.92
-5.13
-7.11
-6.89
-4.51
-1.10
1.45
1.44
-1.90
-7.76
-14.00
-18.01
-18.02
-14.08
-8.18
-3.58
-3.10
-8.10
-17.54
-28.39
-37.19
-41.30
-39.80
-33.33
-23.78
-13.91
-7.64
-9.53
-22.78
-47.30
-77.89
-104.91
-117.38
-108.06
-76.85
-31.50
16.06
55.36
81.37
95.68
103.69
110.75
118.21
123.87
123.37
111.98
88.01
53.52
13.96
-23.98
-54.48
-74.50
-84.48
-87.45
-87.07
-85.51
-82.70
-76.54
-65.76
-50.49
-32.92
-16.31
-3.34
5.30
11.19
16.91
24.49
34.05
43.80
51.02
53.53
50.89
44.54
37.26
31.78
29.58
30.31
32.30
33.39
32.06
28.18
22.93
18.15
15.54
15.41
16.90
18.42
18.41
16.29
12.76
9.44
7.85
8.93
12.26
16.31
19.06
18.51
12.80
0.72
-18.09
-42.40
-69.02
-93.30
-110.32
-116.70
-113.07
-103.64
-94.20
-89.32
-90.27
-94.52
-97.79
-96.11
-87.61
-72.93
-53.95
-32.40
-9.44
14.41
38.42
60.88
79.62
92.86
99.62
100.63
97.97
94.14
91.16
90.24
90.42
90.29
88.62
85.01
80.17
75.59
72.70
72.21
73.74
75.90
77.33
77.04
75.01
72.07
69.64
69.08
71.48
77.24
85.59
94.27
99.43
96.97
83.04
56.90
21.59
-16.95
-52.00
-78.58
-94.92
-102.34
-103.29
-100.45
-94.85
-86.28
-74.52
-60.21
-45.16
-31.43
-20.24
-11.35
-3.47
4.90
14.31
23.54
30.32
32.41
29.09
21.66
12.37
2.75
-7.45
-19.77
-35.53
-54.24
-73.13
-88.49
-98.29
-102.28
-102.37
-100.99
-99.16
-96.05
-89.99
-80.56
-69.70
-60.87
-56.50
-55.89
-55.06
-48.33
-32.93
-10.32
13.99
33.10
42.14
40.41
31.56
20.69
11.89
6.33
2.71
-0.99
-5.50
-9.62
-10.93
-7.08
2.09
14.71
27.71
38.25
45.01
48.63
51.12
54.73
61.06
70.31
81.94
94.77
107.05
116.26
119.22
113.12
96.29
71.55
44.30
21.15
7.20
4.05
9.64
19.55
29.62
36.91
40.10
38.40
31.18
17.85
-1.51
-25.07
-50.11
-73.28
-92.14
-105.44
-113.82
-119.13
-123.75
-129.98
-138.77
-149.11
-157.52
-158.95
-148.75
-125.25
-91.23
-53.35
-19.79
3.27
13.74
13.92
8.53
1.94
-3.77
-8.88
-14.71
-22.07
-30.34
-37.85
-42.82
-44.31
-42.46
-37.84
-31.25
-22.96
-12.74
-0.17
14.98
32.37
51.04
69.63
86.67
100.99
111.83
118.93
122.44
122.69
120.24
115.73
109.82
103.11
96.12
89.03
81.76
74.10
65.78
56.72
46.96
36.72
26.52
17.48
11.06
8.50
9.70
12.19
11.28
1.17
-22.48
-59.86
-105.81
-151.61
-188.42
-210.69
-217.96
-213.90
-204.30
-194.18
-186.30
-180.80
-177.07
-174.58
-172.40
-168.38
-158.04
-137.07
-103.29
-58.16
-6.31
45.11
89.07
121.02
140.20
150.15
155.54
161.13
166.52
173.65
184.97
203.07
229.97
265.93
309.43
354.18
390.08
406.37
396.33
359.01
299.63
227.90
146.07
63.65
-8.65
-63.57
-99.58
-118.56
-123.78
-118.55
-106.15
-90.43
-73.77
-58.60
-46.50
-37.74
-30.82
-23.88
-16.72
-10.43
-7.17
-7.82
-13.07
-23.20
-37.92
-56.31
-77.86
-102.82
-129.10
-155.53
-181.13
-205.88
-229.38
-249.33
-260.82
-258.10
-237.31
-198.95
-149.27
-97.73
-54.03
-24.43
-10.06
-7.04
-9.95
-14.68
-19.71
-25.90
-34.18
-43.96
-53.01
-59.06
-59.20
-52.41
-39.72
-23.64
-7.05
8.23
21.97
35.29
49.65
66.92
87.32
109.15
129.36
144.60
152.65
153.09
147.22
137.31
127.22
120.19
118.66
123.95
135.71
151.94
168.65
181.18
177.53
152.08
106.77
51.64
0.51
-35.58
-52.78
-54.97
-49.58
-43.36
-38.46
-34.28
-29.52
-23.67
-19.04
-19.03
-27.07
-44.53
-70.44
-100.85
-131.22
-157.83
-179.01
-195.29
-203.86
-204.47
-198.15
-186.80
-172.17
-156.22
-140.87
-127.21
-114.28
-98.56
-75.95
-43.46
-1.70
44.53
87.90
121.45
141.47
148.66
146.96
140.36
131.50
121.31
110.05
98.80
89.58
84.45
84.32
88.19
92.94
95.08
93.81
87.96
79.01
69.83
62.99
59.69
59.20
59.27
57.59
52.83
45.60
37.94
32.34
30.86
34.67
43.83
57.08
71.84
81.29
81.24
68.36
42.12
6.06
-32.81
-66.51
-89.35
-99.76
-100.31
-95.29
-88.63
-82.05
-75.28
-67.47
-58.57
-49.76
-42.69
-38.47
-36.57
-35.66
-34.08
-30.56
-25.09
-18.63
-12.70
-8.48
-6.42
-5.85
-5.59
-4.42
-1.41
3.48
9.69
16.26
22.44
27.82
32.63
37.18
41.82
46.65
51.28
55.01
57.03
56.75
53.95
48.84
41.86
33.57
24.52
15.08
5.85
-3.11
-11.63
-19.45
-26.29
-31.89
-36.09
-38.82
-40.18
-40.36
-39.68
-38.44
-36.87
-35.08
-33.13
-31.08
-28.90
-26.63
-24.37
-22.25
-20.45
-19.25
-18.31
-17.49
-16.56
-15.39
-13.97
-12.51
-11.33
-10.72
-10.81
-11.41
-12.16
-12.58
-12.27
-11.21
-9.79
-8.73
-8.71
-10.08
-12.57
-15.37
-17.42
-17.96
-16.89
-15.04
-13.76
-14.40
-17.54
-22.61
-28.04
-31.93
-33.13
-31.47
-28.50
-26.36
-26.97
-30.98
-37.95
-46.17
-53.53
-58.17
-58.60
-53.91
-43.67
-28.58
-10.46
7.61
22.50
32.34
37.32
39.80
42.79
48.46
56.53
63.71
64.87
55.61
35.26
7.70
-19.64
-39.58
-48.80
-50.15
-49.85
-53.97
-64.81
-78.89
-88.89
-87.31
-71.07
-42.63
-8.65
23.40
48.16
63.31
68.85
65.61
54.69
37.60
17.21
-2.11
-15.20
-17.70
-8.00
11.77
36.29
58.85
73.65
77.79
71.96
59.16
43.25
28.06
16.88
12.07
14.49
22.31
30.88
34.17
27.36
9.61
-14.73
-37.46
-50.24
-48.60
-33.91
-12.35
8.33
22.47
28.32
27.64
23.90
20.24
18.07
17.40
18.12
20.79
26.64
36.50
49.74
62.26
69.37
67.08
53.74
30.96
2.97
-24.99
-48.98
-66.96
-78.81
-85.21
-87.16
-85.49
-80.66
-74.14
-65.75
-56.01
-45.79
-35.79
-25.75
-14.92
-2.18
13.03
30.16
47.60
62.26
70.71
70.29
60.22
41.32
16.19
-11.69
-38.74
-59.22
-68.73
-65.76
-52.19
-31.77
-9.06
12.22
29.46
41.19
47.46
48.44
44.48
36.11
25.44
13.15
0.06
-13.09
-26.02
-37.83
-48.68
-59.76
-72.88
-88.70
-106.18
-122.41
-133.89
-138.25
-133.51
-120.16
-99.63
-75.35
-49.97
-24.53
1.26
27.78
54.71
83.42
115.38
151.48
191.48
234.09
276.54
314.78
344.28
348.96
320.67
262.98
189.03
113.28
45.08
-12.42
-59.76
-98.46
-129.95
-153.28
-167.54
-173.70
-174.32
-172.23
-169.42
-166.63
-163.50
-159.58
-154.12
-145.81
-135.32
-124.73
-116.15
-110.54
-107.51
-105.29
-101.88
-94.72
-81.91
-62.92
-38.11
-7.79
28.21
66.93
105.74
141.85
173.01
197.50
214.05
222.31
223.10
218.15
209.62
200.05
191.67
186.29
184.71
185.57
185.05
177.79
158.89
126.45
83.64
37.82
-2.16
-29.23
-40.83
-39.28
-29.77
-17.59
-6.54
2.04
8.47
12.57
13.84
11.44
4.72
-6.57
-22.09
-41.55
-63.76
-87.25
-110.31
-130.97
-147.53
-158.97
-165.41
-167.71
-167.87
-167.87
-169.25
-172.90
-178.13
-182.54
-182.00
-173.26
-151.08
-114.15
-65.81
-14.12
30.42
59.00
67.94
60.31
44.19
29.69
22.99
24.42
29.58
32.78
30.70
23.75
15.15
8.28
4.92
4.02
3.30
1.55
-0.78
-1.04
3.23
12.75
25.91
39.21
48.31
50.10
43.98
31.68
16.57
2.10
-9.32
-17.03
-21.80
-25.09
-28.27
-31.04
-31.95
-28.92
-20.01
-4.47
16.91
41.77
66.51
87.14
100.08
103.00
95.45
79.16
57.75
35.85
17.83
6.17
0.91
-0.07
0.08
-1.51
-6.25
-13.97
-23.18
-31.93
-38.36
-41.44
-40.91
-36.84
-29.68
-19.66
-7.44
5.80
18.37
27.96
31.84
27.95
16.34
-0.18
-16.54
-27.23
-28.85
-21.47
-9.06
2.21
6.60
1.18
-13.46
-34.04
-55.84
-74.26
-85.25
-86.24
-76.43
-57.64
-34.06
-11.22
5.71
14.27
14.89
10.67
4.70
-1.54
-9.53
-23.25
-47.16
-84.53
-133.83
-189.99
-245.19
-289.27
-313.34
-314.54
-297.93
-272.76
-246.18
-216.81
-180.19
-129.01
-62.15
13.67
87.01
147.39
190.25
212.17
218.90
219.16
221.03
228.59
242.24
260.61
282.91
310.28
333.46
347.05
348.02
337.32
318.07
293.38
265.00
233.54
199.79
164.98
133.24
108.07
91.22
82.02
78.37
78.23
80.14
82.61
83.05
79.10
67.54
46.23
15.90
-19.01
-51.45
-74.93
-86.22
-86.53
-79.27
-68.67
-57.50
-46.87
-36.91
-27.96
-21.28
-18.17
-19.32
-23.56
-28.66
-31.98
-31.46
-26.43
-17.67
-7.30
2.76
11.43
18.75
25.60
33.24
42.67
54.23
67.16
79.74
90.74
99.64
106.42
111.27
114.28
115.04
112.20
106.95
98.53
86.82
72.35
55.91
38.15
19.64
1.05
-16.71
-35.42
-56.71
-80.37
-104.98
-129.27
-152.82
-175.71
-197.85
-218.54
-241.06
-267.62
-297.34
-327.44
-355.20
-379.12
-398.50
-412.48
-419.75
-424.97
-432.00
-441.75
-453.64
-467.30
-484.10
-506.65
-537.67
-541.80
-501.13
-419.49
-316.14
-208.98
-105.46
-7.47
82.48
159.76
220.32
257.87
270.68
268.38
261.60
257.96
259.94
266.37
275.78
288.55
302.44
317.45
336.63
361.68
393.43
429.96
466.89
498.09
517.02
515.37
488.67
438.59
371.56
296.60
221.68
152.04
90.25
37.31
-7.58
-44.84
-74.52
-97.91
-118.02
-139.76
-168.69
-209.11
-262.47
-326.76
-395.60
-459.31
-507.60
-532.55
-531.49
-507.73
-468.89
-423.71
-378.78
-337.02
-298.12
-260.77
-224.33
-189.72
-158.52
-131.44
-107.32
-83.27
-56.13
-23.91
13.52
54.93
98.84
144.27
190.38
235.37
275.44
304.85
317.40
308.40
276.23
222.61
151.85
69.90
-16.15
-98.01
-166.50
-213.02
-231.92
-222.76
-191.00
-146.39
-99.48
-58.19
-25.65
-0.21
22.84
48.70
80.45
117.50
155.04
185.23
199.59
192.20
162.52
116.40
64.81
20.53
-5.74
-8.24
12.84
51.93
99.79
145.41
178.37
191.29
182.23
155.88
122.42
94.10
80.51
85.08
104.32
130.32
155.04
173.60
185.12
190.98
192.28
188.38
177.42
158.04
130.67
97.27
59.99
19.98
-22.40
-66.26
-108.78
-145.16
-170.41
-181.78
-180.31
-170.31
-157.19
-144.85
-134.51
-125.40
-116.47
-107.80
-100.71
-96.47
-94.83
-93.61
-89.57
-80.26
-65.49
-47.50
-29.71
-14.70
-2.49
9.95
27.71
55.70
96.21
147.30
202.83
254.39
294.27
318.23
326.71
324.00
315.90
307.29
300.48
295.40
290.93
286.39
282.33
279.96
280.00
281.77
283.00
280.77
272.78
258.35
238.52
215.52
191.50
167.57
143.30
117.07
87.01
52.16
13.20
-27.40
-66.15
-99.57
-125.42
-143.06
-153.19
-156.99
-155.25
-148.08
-135.40
-117.76
-97.01
-76.55
-60.50
-52.31
-53.42
-62.56
-76.18
-89.83
-99.81
-104.46
-104.45
-102.17
-100.66
-102.49
-109.02
-120.07
-133.82
-147.24
-156.85
-159.77
-154.91
-143.82
-130.72
-121.22
-120.17
-129.27
-145.73
-163.10
-174.09
-174.09
-163.62
-148.08
-134.70
-128.36
-128.94
-131.68
-130.91
-124.66
-117.26
-117.53
-133.64
-167.28
-211.02
-250.66
-271.38
-264.41
-230.48
-178.59
-121.00
-67.40
-21.59
18.71
58.77
103.16
152.82
204.31
250.95
285.30
301.73
298.22
276.81
242.32
200.35
155.20
108.75
61.04
11.59
-39.26
-90.11
-139.13
-184.87
-226.37
-262.39
-290.52
-307.27
-309.04
-294.01
-263.21
-220.44
-171.07
-120.46
-72.95
-31.66
1.38
25.28
40.75
50.50
59.04
71.50
92.05
122.60
162.13
207.00
251.36
288.23
310.86
314.60
298.68
266.92
226.51
185.09
147.34
112.78
76.37
31.65
-24.85
-90.56
-156.76
-211.74
-245.52
-253.80
-239.28
-209.67
-174.18
-139.76
-109.77
-84.42
-62.71
-44.29
-29.70
-18.96
-9.72
3.12
25.68
61.36
107.67
155.69
192.62
206.39
190.22
144.87
78.18
2.58
-68.23
-122.09
-150.13
-147.96
-116.29
-61.13
7.18
76.11
134.18
173.92
193.59
196.65
189.50
178.89
169.46
163.06
159.22
156.59
153.98
150.80
146.75
141.12
133.21
123.12
112.82
106.27
108.24
122.09
147.74
180.86
213.96
239.02
250.24
245.77
227.70
200.50
168.86
136.32
104.90
75.77
49.92
28.28
11.09
-2.77
-15.76
-30.63
-48.95
-69.87
-90.39
-106.66
-115.90
-117.55
-113.20
-105.41
-96.21
-86.25
-75.06
-62.08
-47.66
-33.38
-21.54
-14.09
-11.58
-12.91
-16.07
-19.47
-23.10
-28.76
-39.11
-56.13
-79.82
-107.95
-136.95
-163.24
-184.12
-197.93
-203.69
-200.71
-188.88
-169.12
-143.53
-115.07
-86.39
-58.88
-32.39
-5.78
21.92
50.67
79.23
105.83
129.06
148.55
164.99
179.71
193.92
208.02
221.22
231.51
236.26
233.11
220.78
199.59
171.42
139.15
105.92
74.49
46.95
24.37
6.73
-7.07
-18.97
-31.32
-45.94
-63.46
-83.08
-102.79
-120.45
-134.83
-146.16
-156.05
-167.25
-182.78
-204.87
-233.77
-266.39
-296.04
-313.40
-309.20
-277.74
-219.92
-143.76
-62.25
11.04
66.28
99.83
113.73
113.03
102.68
85.82
63.87
37.70
8.68
-21.08
-49.68
-76.17
-100.62
-123.67
-145.18
-163.45
-175.29
-176.72
-163.95
-134.53
-88.47
-29.16
36.22
97.90
146.15
174.77
183.87
180.44
175.85
181.40
203.82
242.92
292.26
342.14
383.15
408.72
415.84
404.43
376.25
334.24
282.08
224.17
165.11
109.01
58.77
15.57
-21.08
-52.83
-81.67
-109.36
-137.08
-165.52
-195.06
-225.95
-258.29
-291.96
-326.46
-361.12
-395.15
-427.95
-459.36
-489.56
-519.18
-549.39
-581.97
-618.94
-661.43
-708.08
-754.03
-791.33
-811.13
-807.00
-777.52
-726.97
-663.51
-596.06
-531.20
-472.05
-418.88
-370.98
-327.99
-290.34
-258.40
-231.68
-208.57
-186.88
-164.99
-142.47
-120.04
-99.14
-80.91
-65.60
-52.45
-40.20
-27.74
-14.79
-2.02
9.33
18.14
24.07
27.87
31.07
35.32
41.69
50.18
59.89
69.64
78.69
87.31
96.73
108.66
124.34
143.97
166.60
190.45
213.88
236.13
257.66
280.03
305.42
335.98
373.05
416.30
463.02
507.89
543.78
563.42
561.65
537.25
493.62
437.76
378.00
321.47
272.31
231.30
197.02
167.80
143.08
123.90
111.94
108.05
110.95
117.18
122.09
121.62
113.99
100.11
82.82
65.41
50.27
38.18
28.75
21.10
14.74
9.86
6.89
6.05
6.79
7.74
7.16
3.64
-3.26
-12.92
-24.06
-35.56
-46.86
-58.21
-70.12
-82.82
-95.91
-108.39
-119.00
-126.51
-129.98
-128.52
-121.44
-108.46
-89.97
-67.39
-42.96
-19.26
1.56
18.30
30.99
40.47
48.09
55.23
63.19
73.18
86.36
103.58
124.93
149.34
174.42
197.13
214.66
225.48
229.87
229.64
227.06
223.83
220.42
216.18
210.07
201.53
190.85
179.08
167.44
156.65
146.67
136.74
125.85
113.25
98.87
83.39
68.06
54.21
42.85
34.17
27.43
21.10
13.32
2.54
-11.91
-29.53
-48.87
-68.09
-85.71
-101.23
-115.19
-128.74
-143.12
-159.06
-176.47
-194.23
-210.04
-220.62
-222.18
-211.57
-187.64
-152.17
-109.61
-65.78
-25.74
7.95
35.61
59.46
81.86
103.92
125.14
144.14
159.79
171.83
180.85
187.55
192.11
194.09
192.92
188.65
182.51
176.82
174.14
176.13
182.63
191.44
198.92
201.32
196.09
182.72
162.87
139.40
115.22
92.06
70.06
48.15
24.88
-0.41
-27.28
-54.14
-79.12
-100.79
-119.06
-135.02
-150.67
-168.14
-188.83
-212.86
-238.60
-263.02
-282.18
-292.51
-291.77
-279.77
-258.36
-230.84
-200.93
-171.62
-144.41
-118.97
-93.41
-65.30
-32.55
5.77
49.00
95.46
143.30
191.52
240.33
290.58
342.32
393.35
438.68
471.34
484.21
472.64
436.09
378.82
308.82
235.71
168.26
112.50
70.84
42.35
23.79
10.90
-0.31
-12.83
-28.41
-47.27
-68.06
-87.86
-102.56
-108.02
-101.61
-83.56
-57.47
-29.12
-4.36
13.24
23.66
29.89
36.09
45.33
58.24
72.98
86.41
95.30
97.05
89.85
72.58
45.04
8.51
-33.48
-75.18
-109.64
-131.03
-137.12
-130.75
-119.29
-112.01
-116.52
-135.52
-165.84
-199.82
-228.73
-246.13
-250.14
-243.49
-231.68
-220.64
-214.78
-216.29
-225.45
-241.41
-262.55
-286.67
-310.78
-331.48
-345.75
-352.00
-350.97
-345.52
-339.54
-336.23
-337.16
-342.14
-349.94
-359.20
-368.67
-376.78
-381.03
-378.10
-364.96
-340.51
-306.51
-267.10
-227.25
-190.59
-158.19
-128.58
-99.06
-67.47
-33.40
1.57
35.27
65.71
92.12
115.16
136.79
159.68
186.60
220.14
262.17
313.62
372.74
434.23
489.69
530.23
549.62
546.42
524.09
488.88
448.12
406.61
365.50
323.24
278.56
232.18
186.72
144.97
108.06
77.01
51.09
27.68
2.69
-27.44
-63.59
-103.26
-140.66
-168.15
-175.79
-156.83
-111.26
-46.27
27.35
99.92
165.11
220.32
248.58
237.70
188.22
114.02
32.08
-45.70
-112.87
-166.87
-207.39
-236.19
-253.71
-261.34
-262.10
-260.28
-259.60
-261.47
-266.16
-272.83
-281.14
-289.36
-296.11
-301.23
-305.78
-310.76
-315.46
-318.25
-317.31
-311.40
-298.52
-277.23
-247.07
-208.13
-164.29
-118.43
-72.96
-30.12
7.77
39.25
63.04
77.92
82.78
77.00
61.68
38.98
11.85
-16.29
-41.27
-59.25
-67.24
-63.35
-46.91
-17.93
22.27
71.08
124.90
180.80
235.37
285.13
327.14
359.46
381.79
394.64
398.80
395.16
386.97
376.44
364.48
351.38
337.74
325.38
316.61
313.55
317.79
333.97
363.75
405.21
453.46
502.83
549.22
590.55
626.41
656.67
684.81
708.86
720.85
710.05
668.82
597.53
505.05
405.76
281.72
133.56
-24.63
-171.07
-288.47
-370.91
-421.73
-448.75
-460.27
-462.62
-453.06
-427.04
-381.09
-315.22
-234.63
-148.72
-69.80
-10.07
21.76
27.30
12.83
-13.70
-45.67
-79.04
-112.21
-145.88
-179.90
-213.94
-245.67
-274.20
-299.94
-323.68
-345.30
-362.98
-374.03
-376.19
-368.95
-352.45
-328.74
-301.17
-273.54
-249.02
-229.37
-214.65
-203.31
-192.80
-179.87
-162.04
-138.70
-111.47
-83.67
-59.24
-41.55
-32.45
-31.79
-37.53
-46.25
-54.13
-58.12
-56.82
-50.69
-41.90
-33.40
-28.01
-27.65
-32.77
-42.40
-54.44
-66.18
-74.85
-78.28
-75.32
-66.10
-51.94
-34.78
-16.60
1.05
17.27
31.64
43.98
54.14
62.00
67.62
71.28
73.42
74.35
74.12
72.50
69.26
64.42
58.29
51.39
44.18
36.85
29.30
21.39
13.21
5.15
-2.23
-8.41
-13.23
-16.89
-19.94
-22.97
-26.49
-30.88
-36.33
-42.88
-50.22
-57.65
-64.08
-68.29
-69.29
-66.74
-61.15
-53.76
-46.17
-39.69
-34.99
-31.95
-29.79
-27.51
-24.26
-19.56
-13.22
-5.35
3.68
13.14
22.01
29.25
34.15
36.84
38.29
39.93
42.78
46.84
50.86
52.88
51.36
45.98
37.83
28.88
21.11
15.64
12.52
10.97
9.86
8.15
5.21
1.02
-3.77
-7.89
-9.69
-7.76
-1.45
8.61
20.71
32.69
42.67
49.57
53.15
53.72
51.70
47.52
41.72
35.35
30.06
27.84
30.58
39.19
53.22
70.74
88.96
104.95
116.52
122.62
123.23
119.21
111.78
102.47
92.99
85.18
80.67
80.25
83.29
87.52
89.52
85.71
73.54
52.50
24.34
-7.44
-38.74
-66.06
-87.48
-102.93
-113.92
-122.84
-132.01
-143.05
-156.41
-171.36
-186.24
-199.01
-207.81
-211.51
-210.05
-204.36
-196.04
-186.73
-177.47
-168.08
-157.09
-142.11
-120.54
-90.56
-51.71
-5.21
46.42
100.04
152.64
201.90
246.43
285.56
319.04
346.59
367.76
381.83
388.15
386.49
377.31
361.74
341.18
316.85
289.54
259.64
227.44
193.45
158.31
122.50
86.05
48.49
9.26
-31.61
-73.01
-112.72
-148.02
-176.63
-197.44
-210.75
-217.83
-220.24
-219.09
-214.88
-207.63
-197.31
-184.26
-169.09
-152.37
-134.26
-114.35
-91.97
-66.89
-39.76
-12.25
13.43
35.33
52.46
65.04
74.27
81.75
88.84
96.27
104.06
111.74
118.70
124.50
129.02
132.50
135.32
137.82
140.15
142.25
143.87
144.71
144.55
143.25
140.86
137.61
133.83
129.85
125.78
121.36
115.91
108.59
98.90
86.88
73.27
59.01
44.65
29.75
12.81
-8.24
-35.20
-68.84
-108.57
-152.62
-198.49
-243.36
-284.19
-317.80
-341.01
-351.27
-347.39
-330.27
-302.86
-269.32
-233.80
-199.27
-167.18
-137.90
-111.69
-89.26
-71.82
-60.29
-54.58
-53.17
-53.52
-53.09
-50.39
-45.51
-39.82
-35.05
-32.34
-31.67
-31.91
-31.50
-29.30
-25.02
-19.24
-13.00
-7.16
-1.94
2.95
8.00
13.40
18.78
23.32
26.19
26.90
25.56
22.75
19.19
15.45
11.72
7.82
3.49
-1.43
-6.87
-12.51
-17.97
-23.07
-27.86
-32.70
-37.97
-43.70
-49.44
-54.27
-57.06
-57.00
-53.92
-48.30
-41.05
-33.13
-25.17
-17.50
-10.19
-3.32
2.91
8.15
12.11
14.68
16.00
16.48
16.57
16.69
17.08
17.81
18.70
19.60
20.35
20.88
21.18
21.17
20.62
19.21
16.60
12.69
7.76
2.38
-2.74
-6.95
-9.98
-11.92
-13.14
-14.11
-15.15
-16.40
-17.88
-19.57
-21.54
-23.89
-26.67
-29.69
-32.48
-34.42
-34.98
-33.89
-31.18
-26.93
-21.21
-13.88
-4.82
5.96
18.09
30.94
43.76
55.89
66.85
76.36
84.18
90.05
93.78
95.32
94.92
93.04
90.18
86.67
82.60
77.89
72.44
66.31
59.77
53.24
47.12
41.59
36.54
31.68
26.61
21.07
14.99
8.41
1.33
-6.32
-14.74
-24.03
-34.13
-44.75
-55.50
-66.05
-76.22
-85.98
-95.37
-104.39
-113.06
-121.41
-129.46
-137.03
-143.58
-148.18
-149.81
-147.77
-142.06
-133.51
-123.44
-113.11
-103.14
-93.31
-82.97
-71.49
-58.84
-45.63
-32.72
-20.70
-9.49
1.62
13.72
27.86
44.76
64.52
86.40
108.68
128.51
142.50
147.71
142.85
128.98
109.14
87.16
66.37
48.89
35.75
27.39
23.85
24.66
28.27
32.03
32.94
28.95
19.96
7.98
-3.88
-13.07
-18.73
-21.90
-24.83
-29.56
-37.05
-46.92
-57.69
-67.52
-74.91
-79.05
-79.84
-77.71
-73.21
-66.93
-59.44
-51.28
-42.76
-33.96
-24.53
-13.96
-1.99
11.03
24.08
35.87
45.61
53.45
60.43
67.96
76.95
87.28
97.80
106.81
112.85
115.07
113.39
108.17
100.08
89.92
78.61
67.00
55.57
44.26
32.73
20.80
9.15
-0.61
-6.38
-6.60
-1.27
7.65
16.73
22.30
21.85
14.91
3.11
-10.65
-23.19
-31.82
-34.66
-30.38
-17.75
4.39
36.62
77.84
124.45
170.21
207.56
229.87
233.69
219.95
193.34
160.27
126.36
94.94
66.95
42.05
20.13
1.96
-11.03
-17.78
-18.42
-14.42
-7.94
-0.93
5.45
10.93
15.64
19.52
22.09
22.57
20.36
15.45
8.45
0.34
-7.90
-15.71
-22.96
-29.79
-36.31
-42.50
-48.18
-53.14
-57.38
-60.98
-64.11
-66.87
-69.14
-70.73
-71.48
-71.39
-70.58
-69.19
-67.20
-64.32
-60.03
-53.73
-45.00
-33.76
-20.40
-5.83
8.79
22.28
33.68
42.44
48.46
52.02
53.68
54.06
53.69
52.83
51.48
49.43
46.59
43.08
39.27
35.65
32.52
29.86
27.25
24.21
20.36
15.69
10.57
5.58
1.30
-1.83
-3.54
-3.78
-2.74
-0.88
1.11
2.43
2.32
0.31
-3.69
-9.32
-16.00
-22.98
-29.58
-35.21
-39.50
-42.33
-43.93
-44.92
-46.08
-48.03
-50.84
-53.80
-55.64
-55.03
-51.23
-44.59
-36.44
-28.57
-22.43
-18.57
-16.52
-15.28
-13.77
-11.29
-7.71
-3.28
1.54
6.19
10.04
12.35
12.43
9.96
5.23
-0.80
-6.75
-11.28
-13.65
-13.73
-11.89
-8.79
-5.05
-1.31
1.76
3.37
2.83
-0.16
-5.28
-11.54
-17.69
-22.70
-26.11
-28.15
-29.43
-30.59
-32.01
-33.67
-35.24
-36.17
-35.83
-33.68
-29.35
-22.86
-14.68
-5.69
3.03
10.55
16.34
20.42
23.20
25.14
26.54
27.35
27.35
26.36
24.43
21.91
19.29
17.03
15.31
14.06
12.94
11.58
9.75
7.39
4.67
1.84
-0.87
-3.39
-5.80
-8.28
-11.11
-14.42
-18.18
-22.10
-25.77
-28.76
-30.86
-32.15
-32.99
-33.92
-35.46
-37.94
-41.36
-45.40
-49.40
-52.53
-53.94
-52.95
-49.29
-43.12
-35.09
-26.10
-17.00
-8.44
-0.72
6.06
11.89
16.77
20.70
23.73
25.94
27.49
28.40
28.63
28.06
26.67
24.56
22.01
19.30
16.64
14.04
11.39
8.48
5.07
0.99
-3.88
-9.54
-15.87
-22.59
-29.35
-35.74
-41.43
-46.15
-49.63
-51.66
-52.02
-50.67
-47.83
-43.97
-39.79
-35.92
-32.87
-30.89
-30.02
-30.14
-30.97
-32.09
-32.86
-32.57
-30.57
-26.47
-20.32
-12.49
-3.54
5.99
15.63
25.00
33.68
41.28
47.40
51.75
54.23
54.92
54.09
52.01
49.03
45.45
41.63
37.85
34.16
30.46
26.46
21.96
16.98
11.80
6.88
2.57
-0.97
-3.95
-6.82
-10.02
-13.85
-18.30
-23.07
-27.78
-32.11
-35.84
-39.02
-41.76
-44.25
-46.57
-48.72
-50.72
-52.58
-54.33
-55.76
-56.36
-55.27
-51.55
-44.63
-34.71
-22.83
-10.61
0.40
9.29
16.06
21.36
26.11
30.90
35.85
40.68
45.04
48.87
52.38
55.94
59.80
63.87
67.66
70.45
71.51
70.52
67.63
63.49
59.00
54.94
51.77
49.55
48.00
46.80
45.65
44.44
43.10
41.53
39.50
36.70
32.84
27.87
22.06
15.93
10.10
5.08
1.05
-2.14
-4.99
-8.07
-11.91
-16.80
-22.75
-29.52
-36.59
-43.17
-48.31
-51.01
-50.53
-46.67
-39.82
-30.97
-21.33
-11.99
-3.55
3.88
10.53
16.68
22.41
27.55
31.77
34.76
36.45
36.99
36.73
36.08
35.39
34.82
34.32
33.77
33.00
31.97
30.78
29.63
28.70
28.02
27.35
26.31
24.56
21.91
18.56
14.94
11.54
8.67
6.38
4.41
2.42
0.14
-2.50
-5.42
-8.47
-11.45
-14.27
-16.89
-19.38
-21.90
-24.67
-27.96
-31.93
-36.52
-41.33
-45.57
-48.20
-48.28
-45.29
-39.34
-31.20
-22.07
-13.15
-5.33
1.04
6.07
10.10
13.43
16.26
18.51
20.14
21.14
21.60
21.66
21.48
21.13
20.64
20.06
19.36
18.52
17.50
16.25
14.77
13.11
11.38
9.72
8.21
6.83
5.49
4.14
2.68
1.11
-0.61
-2.58
-4.96
-7.83
-11.10
-14.51
-17.60
-20.05
-21.78
-23.04
-24.32
-26.03
-28.26
-30.57
-32.14
-32.05
-29.67
-24.99
-18.61
-11.51
-4.69
1.18
5.96
9.87
13.36
16.73
20.03
23.01
25.35
26.83
27.41
27.31
26.89
26.50
26.31
26.34
26.44
26.42
26.17
25.69
25.01
24.14
22.98
21.37
19.14
16.34
13.21
10.14
7.52
5.51
3.97
2.52
0.71
-1.73
-4.77
-8.11
-11.38
-14.28
-16.77
-18.97
-21.07
-23.19
-25.32
-27.41
-29.50
-31.79
-34.56
-37.89
-41.55
-44.84
-46.77
-46.43
-43.40
-37.89
-30.73
-23.00
-15.67
-9.28
-3.91
0.64
4.64
8.22
11.36
13.91
15.73
16.73
16.99
16.69
16.11
15.61
15.52
16.07
17.30
18.99
20.79
22.27
23.10
23.15
22.47
21.25
19.70
17.98
16.18
14.33
12.48
10.67
9.01
7.52
6.20
4.91
3.54
2.00
0.32
-1.40
-3.07
-4.57
-5.91
-7.08
-8.07
-8.83
-9.33
-9.66
-10.00
-10.65
-11.79
-13.40
-15.00
-15.83
-15.05
-12.11
-6.96
-0.20
7.13
13.95
19.49
23.53
26.33
28.40
30.25
32.23
34.45
36.79
39.01
40.83
42.09
42.90
43.49
44.18
45.09
46.01
46.38
45.52
42.91
38.26
31.43
22.23
10.49
-3.56
-18.87
-33.42
-44.71
-50.70
-50.55
-44.80
-34.83
-21.96
-6.82
10.52
29.86
50.23
69.67
85.84
97.13
103.27
105.34
105.06
103.89
102.44
100.49
97.41
92.71
86.34
78.79
70.72
62.75
55.22
48.20
41.67
35.60
30.05
25.07
20.60
16.35
11.90
6.82
0.93
-5.57
-12.18
-18.27
-23.38
-27.42
-30.67
-33.53
-36.39
-39.46
-42.72
-46.01
-49.08
-51.68
-53.56
-54.57
-54.72
-54.21
-53.45
-52.84
-52.54
-52.22
-51.14
-48.43
-43.69
-37.45
-31.09
-26.28
-24.20
-25.01
-27.86
-31.58
-35.29
-38.81
-42.58
-47.25
-53.49
-61.89
-73.12
-87.72
-105.50
-124.93
-142.84
-155.22
-158.70
-152.12
-137.25
-118.13
-99.39
-84.35
-73.85
-66.46
-59.77
-51.90
-42.69
-33.77
-27.48
-25.60
-28.21
-33.56
-38.60
-40.13
-35.85
-25.13
-9.21
9.10
26.24
39.00
45.75
47.29
46.62
47.74
53.74
65.10
79.15
91.21
96.79
93.97
84.35
72.32
62.88
59.08
60.81
65.05
67.59
65.15
56.80
43.94
29.22
15.11
2.91
-7.32
-16.17
-24.09
-30.81
-35.55
-37.45
-36.16
-32.13
-26.60
-21.07
-16.75
-13.96
-12.08
-9.77
-5.77
0.53
8.64
17.13
24.28
28.79
30.32
29.52
27.65
25.91
25.01
24.91
24.95
24.25
22.11
18.35
13.45
8.35
4.11
1.54
0.82
1.46
2.50
2.93
2.14
0.16
-2.35
-4.54
-5.77
-5.95
-5.53
-5.22
-5.69
-7.31
-10.20
-14.29
-19.52
-25.73
-32.58
-39.48
-45.69
-50.50
-53.53
-54.71
-54.19
-52.11
-48.50
-43.34
-36.89
-29.69
-22.57
-16.35
-11.53
-8.13
-5.81
-4.08
-2.57
-1.11
0.30
1.54
2.50
3.09
3.18
2.63
1.30
-0.84
-3.64
-6.69
-9.40
-11.19
-11.61
-10.51
-8.11
-4.83
-1.21
2.19
4.84
6.28
6.07
4.07
0.49
-4.08
-8.79
-12.92
-16.12
-18.56
-20.71
-23.09
-25.95
-29.15
-32.24
-34.58
-35.53
-34.60
-31.62
-26.71
-20.39
-13.46
-6.75
-0.90
3.78
7.28
9.75
11.42
12.55
13.40
14.28
15.42
16.84
18.35
19.50
19.81
19.01
17.21
14.86
12.58
10.85
9.86
9.49
9.44
9.41
9.13
8.48
7.40
5.87
3.98
1.86
-0.26
-2.05
-3.24
-3.64
-3.32
-2.61
-2.04
-2.18
-3.46
-5.89
-9.08
-12.39
-15.17
-17.16
-18.52
-19.66
-20.91
-22.18
-22.88
-22.09
-19.05
-13.47
-5.79
2.98
11.65
19.18
24.96
28.84
31.07
32.12
32.69
33.64
36.07
41.02
49.04
59.53
70.51
78.65
80.23
72.25
53.51
25.02
-10.40
-49.05
-87.40
-122.83
-153.86
-180.06
-201.75
-220.01
-236.29
-252.07
-268.08
-283.62
-296.39
-302.73
-298.70
-281.28
-249.45
-204.52
-149.83
-89.97
-29.92
25.83
73.73
111.58
138.61
155.31
163.26
164.53
161.35
155.67
149.05
142.56
136.92
132.48
129.35
127.44
126.54
126.42
126.83
127.54
128.29
128.81
128.91
128.65
128.28
128.12
128.54
129.76
131.85
134.49
136.76
136.98
132.78
121.86
102.87
76.48
45.46
14.02
-13.68
-34.97
-49.28
-57.97
-63.22
-66.95
-70.28
-73.67
-77.33
-81.50
-86.35
-91.51
-96.03
-98.71
-98.70
-96.18
-92.29
-88.28
-84.50
-79.51
-70.03
-51.79
-21.21
22.99
78.58
139.85
198.61
246.17
275.38
282.38
267.37
234.20
189.12
139.14
90.66
48.53
15.80
-6.21
-17.72
-20.29
-16.57
-9.83
-3.34
0.39
0.20
-3.67
-9.92
-16.82
-22.98
-27.79
-31.38
-34.33
-37.21
-40.27
-43.39
-46.20
-48.43
-50.01
-51.07
-51.83
-52.53
-53.44
-54.96
-57.85
-63.24
-72.41
-86.50
-105.94
-130.14
-157.33
-184.80
-209.45
-228.48
-239.94
-243.12
-238.53
-227.46
-211.52
-192.17
-170.54
-147.51
-123.89
-100.52
-78.32
-58.13
-40.74
-27.03
-17.85
-13.68
-13.84
-15.87
-15.43
-7.34
12.60
45.55
88.56
135.04
176.77
206.53
220.11
217.07
199.95
172.91
140.35
106.10
73.20
43.93
19.72
0.99
-12.91
-23.40
-32.06
-39.99
-47.48
-54.12
-59.18
-62.20
-63.26
-63.02
-62.61
-63.27
-65.98
-71.16
-78.49
-86.74
-94.03
-98.23
-97.64
-91.57
-80.58
-66.29
-50.83
-36.10
-23.11
-11.98
-2.14
7.06
15.91
24.00
30.55
34.68
36.06
35.08
32.72
30.20
28.47
27.96
28.48
29.63
30.95
32.24
33.51
34.73
35.74
36.20
35.71
34.10
31.49
28.30
25.07
22.18
19.74
17.59
15.43
12.91
9.89
6.44
2.81
-0.59
-3.46
-5.68
-7.40
-9.01
-11.09
-14.17
-18.56
-24.34
-31.13
-38.21
-44.53
-48.91
-50.35
-48.21
-42.49
-33.84
-23.41
-12.51
-2.34
6.41
13.53
19.30
24.21
28.72
33.09
37.27
40.96
43.82
45.62
46.45
46.59
46.46
46.29
46.10
45.79
45.24
44.53
43.80
43.14
42.43
41.35
39.61
37.17
34.39
31.88
30.19
29.50
29.62
30.09
30.43
30.35
29.76
28.64
26.93
24.44
20.95
16.24
10.29
3.21
-4.67
-12.88
-20.88
-28.20
-34.49
-39.59
-43.43
-45.80
-46.38
-44.87
-41.32
-36.40
-31.49
-28.38
-28.64
-33.11
-41.55
-52.79
-65.12
-76.73
-85.82
-90.65
-89.58
-81.38
-65.71
-43.49
-16.83
11.59
39.39
65.19
88.94
111.51
133.99
156.94
180.08
202.28
222.02
237.84
248.78
254.52
255.23
251.40
243.45
231.71
216.46
198.25
178.04
157.14
136.90
118.27
101.64
86.77
73.14
60.11
47.09
33.36
18.03
0.09
-21.19
-45.72
-72.25
-98.39
-121.25
-138.41
-148.75
-152.94
-153.13
-152.22
-152.83
-156.51
-163.30
-172.02
-180.65
-187.12
-189.74
-187.55
-180.36
-168.58
-153.14
-135.22
-116.12
-96.91
-78.21
-60.12
-42.39
-24.84
-7.80
7.63
19.84
27.38
29.61
27.13
21.52
14.73
8.28
3.04
-0.74
-2.94
-3.39
-1.82
1.83
7.23
13.69
20.48
27.10
33.37
39.25
44.62
49.19
52.74
55.44
57.94
61.18
65.92
72.38
79.95
87.58
94.00
98.28
100.05
99.61
97.88
96.08
95.40
96.48
99.18
102.55
105.20
105.83
103.76
99.17
93.07
86.82
81.71
78.45
77.03
76.70
76.38
75.07
72.20
67.87
62.72
57.65
53.50
50.68
49.12
48.36
47.59
45.90
42.43
36.59
28.20
17.66
5.87
-5.97
-16.66
-25.48
-32.40
-38.05
-43.47
-49.62
-56.97
-65.23
-73.55
-80.77
-85.89
-88.35
-87.91
-84.61
-78.44
-69.44
-57.88
-44.55
-30.82
-18.35
-8.63
-2.46
0.39
0.95
0.70
0.93
2.34
4.90
8.02
10.91
12.87
13.54
12.82
10.84
7.82
3.97
-0.50
-5.48
-10.86
-16.55
-22.50
-28.66
-35.00
-41.40
-47.75
-53.92
-59.86
-65.62
-71.31
-77.00
-82.70
-88.28
-93.51
-98.08
-101.53
-103.35
-103.04
-100.18
-94.64
-86.61
-76.59
-65.33
-53.64
-42.18
-31.47
-21.78
-13.16
-5.58
1.06
6.83
11.72
15.65
18.59
20.49
21.51
21.91
21.98
21.95
21.94
21.92
21.77
21.42
20.83
20.00
18.99
17.81
16.45
14.93
13.21
11.25
8.92
6.00
2.33
-2.07
-6.90
-11.66
-15.85
-19.23
-21.91
-24.28
-26.90
-30.17
-34.23
-38.87
-43.51
-47.36
-49.51
-49.17
-45.87
-39.75
-31.53
-22.34
-13.38
-5.43
1.28
7.06
12.46
17.87
23.33
28.51
32.94
36.26
38.41
39.61
40.21
40.49
40.53
40.24
39.46
38.18
36.59
34.96
33.50
32.18
30.76
28.87
26.21
22.77
18.77
14.58
10.57
7.00
3.93
1.26
-1.16
-3.54
-6.08
-8.97
-12.29
-15.98
-19.80
-23.55
-27.10
-30.55
-34.25
-38.54
-43.56
-48.92
-53.73
-56.76
-56.93
-53.71
-47.35
-38.81
-29.33
-19.94
-11.20
-3.14
4.44
11.70
18.56
24.77
29.97
34.03
36.94
38.87
40.07
40.78
41.11
41.13
40.78
40.02
38.86
37.45
36.01
34.80
33.91
33.21
32.34
30.84
28.44
25.19
21.48
17.86
14.75
12.23
10.07
7.82
5.07
1.68
-2.23
-6.40
-10.61
-14.72
-18.72
-22.54
-26.08
-29.26
-32.16
-35.00
-38.19
-42.09
-46.81
-52.05
-57.11
-60.98
-62.61
-61.18
-56.38
-48.55
-38.65
-27.90
-17.49
-8.17
-0.09
7.02
13.61
19.94
25.99
31.47
36.02
39.45
41.73
43.02
43.57
43.58
43.18
42.48
41.48
40.25
38.85
37.36
35.81
34.16
32.27
29.93
27.04
23.59
19.80
16.00
12.51
9.59
7.26
5.35
3.51
1.35
-1.44
-4.96
-9.06
-13.45
-17.81
-21.96
-25.97
-30.06
-34.48
-39.40
-44.81
-50.62
-56.74
-63.07
-69.42
-75.35
-80.07
-82.62
-82.16
-78.32
-71.35
-62.13
-51.90
-41.84
-32.83
-25.22
-18.97
-13.83
-9.58
-6.07
-3.18
-0.72
1.62
4.21
7.27
10.74
14.30
17.62
20.64
23.83
27.96
33.76
41.43
50.24
58.70
64.96
67.41
65.37
59.22
50.35
40.62
31.73
24.67
19.55
15.74
12.31
8.54
4.02
-1.35
-7.56
-14.67
-22.67
-31.18
-39.32
-45.87
-49.78
-50.74
-49.43
-47.27
-45.62
-45.05
-44.96
-43.88
-40.17
-32.80
-21.89
-8.62
5.24
18.02
28.62
36.71
42.63
47.03
50.55
53.58
56.24
58.40
59.88
60.58
60.58
60.06
59.24
58.28
57.20
55.90
54.22
52.05
49.31
46.10
42.57
38.94
35.42
32.08
28.87
25.57
21.88
17.49
12.27
6.31
-0.01
-6.14
-11.59
-16.05
-19.56
-22.50
-25.46
-28.97
-33.41
-38.76
-44.61
-50.12
-54.20
-55.75
-53.96
-48.62
-40.23
-29.90
-19.01
-8.86
-0.25
6.62
12.07
16.69
21.05
25.49
30.02
34.39
38.17
40.90
42.31
42.34
41.25
39.47
37.42
35.46
33.80
32.51
31.59
30.92
30.28
29.39
27.96
25.74
22.63
18.81
14.61
10.49
6.80
3.69
1.09
-1.25
-3.66
-6.45
-9.76
-13.53
-17.47
-21.22
-24.48
-27.17
-29.53
-31.96
-34.96
-38.90
-43.94
-49.80
-55.85
-61.17
-64.75
-65.68
-63.41
-57.93
-49.71
-39.72
-29.11
-18.91
-9.83
-2.07
4.62
10.72
16.71
22.84
28.93
34.53
39.07
42.07
43.40
43.24
42.05
40.37
38.71
37.42
36.61
36.18
35.84
35.34
34.45
33.13
31.49
29.65
27.74
25.76
23.67
21.43
19.05
16.58
14.09
11.63
9.22
6.76
4.16
1.31
-1.83
-5.28
-9.00
-12.88
-16.80
-20.59
-24.14
-27.40
-30.35
-33.07
-35.73
-38.63
-42.06
-46.16
-50.71
-54.97
-57.86
-58.22
-55.36
-49.27
-40.76
-31.05
-21.33
-12.38
-4.41
2.75
9.34
15.37
20.62
24.77
27.63
29.28
30.04
30.31
30.31
30.04
29.38
28.18
26.51
24.62
22.84
21.45
20.53
19.90
19.29
18.46
17.27
15.78
14.15
12.63
11.46
10.84
10.86
11.51
12.71
14.36
16.49
19.15
22.43
26.36
30.85
35.76
41.02
46.61
52.58
59.01
65.90
73.14
80.49
87.57
93.86
98.66
101.13
100.52
96.36
88.78
78.55
66.96
55.46
45.31
37.29
31.60
27.99
25.84
24.38
22.66
19.76
14.88
7.67
-1.53
-11.63
-20.94
-27.72
-30.58
-28.96
-23.09
-13.77
-2.00
11.24
24.95
37.99
48.93
56.21
58.38
54.46
44.16
27.81
6.21
-19.44
-47.67
-76.73
-104.69
-129.85
-151.06
-167.95
-180.82
-190.19
-196.38
-199.19
-198.03
-192.23
-181.32
-165.39
-145.16
-122.02
-97.90
-75.01
-55.38
-40.20
-29.53
-22.13
-16.15
-9.91
-2.69
5.10
12.17
17.11
19.08
18.06
14.73
10.03
4.79
-0.52
-5.66
-10.39
-14.37
-17.13
-18.30
-17.83
-16.15
-14.01
-12.21
-11.19
-10.88
-10.78
-10.32
-9.24
-7.74
-6.39
-5.80
-6.34
-8.09
-10.82
-14.15
-17.70
-21.14
-24.18
-26.67
-28.59
-30.08
-31.45
-32.96
-34.77
-36.91
-39.35
-42.11
-45.22
-48.70
-52.41
-56.03
-59.03
-60.86
-61.01
-59.16
-55.14
-48.99
-40.86
-31.13
-20.44
-9.54
0.75
9.81
17.34
23.46
28.59
33.27
37.83
42.25
46.19
49.22
51.06
51.75
51.70
51.42
51.34
51.63
52.20
52.84
53.43
53.97
54.54
55.15
55.66
55.73
55.02
53.31
50.67
47.44
44.06
40.87
37.98
35.20
32.22
28.80
24.90
20.70
16.46
12.34
8.34
4.40
0.40
-3.63
-7.59
-11.41
-15.11
-18.89
-22.97
-27.30
-31.47
-34.65
-35.85
-34.31
-29.88
-23.09
-14.97
-6.70
0.81
7.19
12.52
17.11
21.23
24.93
28.07
30.48
32.05
32.87
33.08
32.84
32.24
31.37
30.27
29.05
27.87
26.88
26.21
25.92
25.90
25.98
25.90
25.35
24.11
22.22
19.98
18.01
16.95
17.20
18.69
20.92
23.04
24.35
24.58
24.01
23.32
23.32
24.47
26.81
29.89
33.00
35.49
36.90
37.10
36.39
35.39
35.05
36.43
40.38
47.16
56.30
66.50
76.07
83.57
88.27
90.48
91.29
92.11
93.90
96.86
100.27
102.89
103.60
101.91
98.19
93.39
88.61
84.48
81.08
78.14
75.48
73.56
73.44
76.41
83.14
93.01
103.91
112.56
115.24
108.73
91.07
62.00
23.04
-22.95
-72.59
-122.91
-172.09
-219.74
-266.66
-313.95
-361.67
-407.61
-446.88
-472.75
-478.86
-461.74
-422.79
-368.48
-308.55
-252.90
-208.56
-178.06
-159.88
-150.33
-145.87
-144.47
-145.65
-149.51
-155.59
-162.35
-167.45
-168.53
-164.16
-154.45
-141.02
-126.33
-112.61
-101.17
-92.16
-84.99
-79.05
-74.30
-71.37
-71.09
-73.70
-78.24
-82.55
-83.86
-79.63
-68.42
-50.35
-27.04
-1.11
24.82
48.91
70.74
91.16
111.55
132.86
154.91
176.56
196.34
213.47
228.24
241.89
255.67
270.10
284.50
297.17
306.17
310.04
308.12
300.63
288.41
272.62
254.47
235.07
215.40
196.18
178.05
161.44
146.66
133.74
122.38
112.00
101.88
91.43
80.47
69.37
58.78
49.33
41.33
34.61
28.68
22.99
17.21
11.28
5.28
-0.68
-6.53
-12.24
-17.68
-22.66
-27.00
-30.56
-33.38
-35.54
-37.21
-38.48
-39.41
-40.13
-40.77
-41.53
-42.53
-43.79
-45.21
-46.65
-47.98
-49.13
-50.11
-50.98
-51.87
-53.03
-54.79
-57.43
-61.11
-65.65
-70.67
-75.79
-80.71
-85.43
-90.13
-94.94
-99.81
-104.41
-108.22
-110.77
-111.77
-111.26
-109.61
-107.48
-105.77
-105.36
-106.56
-108.47
-108.61
-103.27
-88.39
-61.07
-20.67
30.47
87.25
142.88
190.33
223.88
240.26
239.24
223.35
196.97
165.15
132.41
102.00
75.85
54.71
38.66
27.19
19.33
13.76
9.18
4.80
0.62
-2.69
-4.40
-4.31
-3.01
-1.75
-1.71
-3.45
-6.76
-10.93
-15.24
-19.35
-23.38
-27.65
-32.35
-37.31
-42.05
-45.90
-48.24
-48.59
-46.74
-42.74
-36.88
-29.79
-22.20
-14.90
-8.54
-3.60
-0.37
1.10
1.00
-0.10
-1.42
-2.04
-1.30
0.92
4.12
7.32
9.51
10.14
9.35
7.85
6.52
5.97
6.24
6.91
7.41
7.30
6.50
5.23
3.73
2.16
0.51
-1.33
-3.42
-5.71
-8.10
-10.40
-12.52
-14.45
-16.21
-17.86
-19.37
-20.69
-21.78
-22.69
-23.60
-24.72
-26.21
-28.01
-29.79
-31.02
-31.20
-29.99
-27.40
-23.74
-19.48
-15.11
-10.95
-7.15
-3.72
-0.65
2.10
4.48
6.42
7.81
8.63
8.95
8.95
8.84
8.76
8.76
8.75
8.64
8.40
8.12
7.92
7.90
8.03
8.11
7.90
7.16
5.84
4.08
2.16
0.43
-0.87
-1.71
-2.24
-2.74
-3.51
-4.81
-6.70
-9.05
-11.54
-13.76
-15.46
-16.66
-17.62
-18.77
-20.40
-22.54
-24.94
-27.18
-28.93
-29.93
-30.05
-29.15
-27.10
-23.81
-19.36
-14.11
-8.58
-3.26
1.56
5.80
9.48
12.60
15.11
16.89
17.93
18.34
18.33
18.11
17.86
17.65
17.55
17.55
17.48
17.07
16.03
14.20
11.70
8.88
6.21
4.06
2.50
1.31
0.15
-1.18
-2.66
-4.05
-5.10
-5.68
-5.94
-6.23
-6.92
-8.25
-10.18
-12.48
-14.81
-16.94
-18.81
-20.52
-22.30
-24.28
-26.51
-28.88
-31.20
-33.26
-34.91
-36.09
-36.75
-36.77
-35.98
-34.14
-31.06
-26.77
-21.66
-16.44
-11.97
-8.96
-7.71
-7.99
-9.15
-10.44
-11.34
-11.81
-12.17
-13.05
-15.01
-18.28
-22.66
-27.59
-32.29
-36.07
-38.46
-39.24
-38.50
-36.66
-34.41
-32.71
-32.21
-32.67
-32.46
-28.53
-17.03
5.16
38.95
81.92
128.34
170.33
200.03
211.69
203.09
176.05
135.64
89.06
43.93
6.91
-17.56
-28.02
-26.26
-16.84
-5.96
-0.03
-3.79
-19.14
-44.42
-74.74
-103.53
-124.44
-133.37
-129.79
-116.78
-99.66
-83.92
-73.27
-68.49
-67.79
-68.11
-66.73
-62.32
-55.13
-46.34
-37.28
-28.76
-20.99
-13.76
-6.75
0.29
7.53
15.05
22.90
31.10
39.49
47.78
55.54
62.33
67.81
71.70
73.82
74.13
72.76
70.10
66.79
63.64
61.46
60.72
61.44
63.11
64.94
66.19
66.43
65.73
64.55
63.45
62.83
62.82
63.12
63.10
61.87
58.28
51.08
39.21
22.30
1.23
-21.91
-44.18
-62.75
-75.80
-83.05
-85.62
-85.26
-83.28
-79.83
-73.70
-63.02
-46.33
-23.71
2.74
29.24
51.38
65.49
69.66
64.11
50.68
31.90
9.91
-13.77
-37.91
-60.93
-80.69
-94.73
-101.16
-99.35
-90.26
-76.09
-59.43
-42.52
-26.73
-12.61
-0.26
10.28
18.84
25.20
29.19
30.94
30.79
29.26
26.83
23.83
20.26
15.94
10.73
4.77
-1.22
-6.12
-8.77
-8.39
-5.01
0.52
6.93
12.97
17.77
21.03
22.82
23.38
22.94
21.70
19.91
17.95
16.21
15.01
14.50
14.60
15.10
15.72
16.25
16.57
16.60
16.29
15.57
14.42
12.79
10.69
8.20
5.43
2.50
-0.43
-3.24
-5.82
-8.12
-10.11
-11.86
-13.46
-15.05
-16.75
-18.66
-20.73
-22.80
-24.67
-26.14
-27.08
-27.51
-27.73
-28.19
-29.42
-31.75
-35.06
-38.62
-41.21
-41.57
-38.99
-33.62
-26.49
-18.99
-12.33
-7.01
-2.78
1.04
4.98
9.00
12.44
14.36
14.05
11.44
7.30
2.99
-0.02
-0.70
1.18
4.93
9.40
13.36
16.05
17.27
17.21
16.30
15.05
14.17
14.50
16.93
21.98
29.43
38.51
48.38
58.73
70.08
83.35
98.87
115.55
130.78
141.35
144.76
140.32
129.21
113.62
95.50
75.75
54.28
30.86
6.03
-18.35
-39.64
-55.35
-64.28
-67.07
-65.90
-63.52
-62.18
-62.78
-64.84
-67.16
-68.49
-68.26
-66.67
-64.49
-62.53
-61.21
-60.53
-60.10
-59.54
-58.59
-57.33
-56.04
-55.14
-55.03
-55.99
-58.24
-61.87
-66.93
-73.34
-80.90
-89.06
-96.90
-103.08
-105.90
-103.53
-94.34
-77.45
-53.15
-23.11
9.92
42.74
72.49
97.18
115.94
128.80
136.18
138.68
136.88
131.34
122.80
112.14
100.38
88.56
77.65
68.41
61.28
56.19
52.47
49.07
44.97
39.68
33.47
27.17
21.66
17.35
13.95
10.76
7.09
2.80
-1.65
-5.50
-8.13
-9.53
-10.26
-11.15
-12.86
-15.42
-18.22
-20.31
-20.93
-19.97
-18.09
-16.41
-15.92
-17.00
-19.18
-21.45
-22.80
-22.82
-21.84
-20.76
-20.48
-21.41
-23.35
-25.67
-27.67
-28.97
-29.59
-29.77
-29.83
-29.91
-30.08
-30.46
-31.30
-32.90
-35.39
-38.39
-40.91
-41.50
-38.84
-32.31
-22.42
-10.65
1.10
11.28
19.20
25.08
29.63
33.47
36.76
39.19
40.37
40.12
38.76
36.97
35.37
34.26
33.38
32.12
29.88
26.42
22.08
17.65
14.07
11.86
10.93
10.55
9.77
7.92
4.93
1.40
-1.86
-4.18
-5.41
-5.90
-6.31
-7.17
-8.64
-10.52
-12.42
-14.02
-15.27
-16.43
-17.77
-19.53
-21.75
-24.28
-26.88
-29.29
-31.26
-32.50
-32.68
-31.41
-28.41
-23.67
-17.49
-10.49
-3.39
3.16
8.72
13.09
16.16
17.98
18.60
18.17
17.01
15.53
14.17
13.25
12.84
12.73
12.57
12.03
10.89
9.19
7.10
4.88
2.80
1.14
0.07
-0.35
-0.30
-0.09
-0.14
-0.74
-1.98
-3.64
-5.41
-7.06
-8.62
-10.31
-12.41
-14.98
-17.82
-20.50
-22.68
-24.36
-25.90
-27.89
-30.73
-34.30
-37.81
-39.96
-39.50
-35.77
-29.04
-20.43
-11.51
-3.62
2.61
7.38
11.37
15.26
19.16
22.66
25.08
25.95
25.36
24.03
22.79
22.20
22.21
22.24
21.57
19.82
17.11
14.00
11.16
8.96
7.32
5.80
3.90
1.29
-2.01
-5.65
-9.15
-12.08
-14.26
-15.82
-17.12
-18.70
-20.99
-24.14
-27.92
-31.80
-35.26
-37.99
-40.09
-41.94
-43.94
-46.36
-49.23
-52.48
-56.11
-60.12
-64.38
-68.38
-71.12
-71.38
-68.23
-61.43
-51.74
-40.55
-29.40
-19.27
-10.29
-1.87
6.76
16.06
25.70
34.72
42.02
46.88
49.31
49.97
49.77
49.31
48.75
47.89
46.47
44.52
42.39
40.51
39.19
38.33
37.52
36.23
34.08
30.99
27.19
23.11
19.23
15.88
13.16
10.84
8.55
5.86
2.60
-1.10
-4.87
-8.32
-11.26
-13.75
-16.04
-18.37
-20.89
-23.60
-26.40
-29.23
-31.94
-34.32
-35.88
-35.91
-33.70
-28.79
-21.26
-11.92
-2.09
6.80
13.74
18.54
21.88
25.00
29.13
34.93
42.27
50.36
58.14
64.88
70.62
76.24
83.33
93.62
108.45
128.21
151.95
177.17
199.83
214.75
216.40
200.04
162.90
105.13
29.90
-57.22
-149.53
-240.53
-324.72
-397.76
-456.19
-497.12
-518.19
-518.20
-497.71
-459.52
-408.35
-350.08
-290.54
-234.50
-184.99
-143.12
-108.33
-78.95
-52.94
-28.64
-5.31
16.74
36.52
53.14
66.31
76.57
85.04
92.77
100.20
107.10
112.80
116.71
118.76
119.33
118.99
118.14
116.78
114.63
111.43
107.12
102.07
96.87
92.15
88.32
85.43
83.13
80.82
77.91
74.08
69.39
64.27
59.29
54.86
51.12
47.89
44.86
41.74
38.42
34.98
31.60
28.37
25.26
22.17
18.98
15.70
12.54
9.68
7.21
4.82
1.80
-2.65
-9.04
-17.08
-25.59
-32.78
-37.09
-37.84
-35.66
-32.21
-29.41
-28.52
-29.61
-31.57
-32.73
-31.70
-28.07
-22.67
-17.36
-14.55
-16.43
-24.14
-37.10
-52.65
-66.30
-72.65
-66.85
-46.07
-10.66
35.57
86.19
133.65
171.32
195.14
204.48
201.83
191.49
177.89
164.24
151.95
140.90
130.25
119.19
107.26
94.29
80.12
64.52
47.34
28.87
10.02
-7.84
-23.30
-35.43
-44.17
-50.34
-55.23
-60.23
-66.20
-73.30
-80.87
-87.75
-92.75
-95.04
-94.39
-91.20
-86.16
-80.04
-73.39
-66.41
-59.08
-51.27
-43.00
-34.48
-26.02
-17.91
-10.29
-3.15
3.66
10.23
16.56
22.42
27.56
31.82
35.29
38.32
41.40
44.86
48.75
52.72
56.12
58.31
58.90
58.00
56.25
54.68
54.49
56.59
61.27
67.85
74.52
78.47
76.54
66.17
46.38
18.56
-13.66
-45.27
-71.50
-89.42
-99.09
-103.45
-107.29
-115.81
-132.92
-160.34
-196.90
-238.54
-278.82
-310.11
-325.21
-319.15
-290.70
-242.95
-182.78
-119.10
-60.68
-14.04
17.84
35.71
43.26
45.61
47.73
52.99
62.58
75.66
90.15
103.74
114.79
122.52
126.87
128.19
126.96
123.70
119.05
113.75
108.63
104.46
101.63
100.07
99.24
98.37
96.79
94.17
90.62
86.50
82.13
77.57
72.51
66.48
59.13
50.39
40.59
30.24
19.89
9.96
0.69
-7.72
-15.03
-21.01
-25.56
-28.77
-31.04
-32.90
-34.92
-37.58
-41.18
-45.78
-51.21
-57.00
-62.39
-66.41
-68.13
-66.91
-62.70
-56.01
-47.75
-38.86
-29.99
-21.34
-12.82
-4.30
4.12
12.06
18.98
24.44
28.40
31.37
34.15
37.72
42.74
49.45
57.54
66.27
74.80
82.38
88.58
93.27
96.38
97.71
96.85
93.33
86.87
77.78
66.95
55.86
46.06
38.83
34.78
33.89
35.47
38.41
41.30
42.49
40.52
34.42
24.06
10.30
-5.12
-20.21
-33.23
-43.23
-50.22
-54.92
-58.27
-60.88
-62.78
-63.48
-62.32
-58.88
-53.25
-46.09
-38.27
-30.58
-23.50
-17.09
-11.24
-5.83
-0.88
3.51
7.22
10.19
12.46
14.16
15.47
16.59
17.61
18.53
19.23
19.54
19.40
18.92
18.34
17.90
17.70
17.58
17.18
16.17
14.40
12.01
9.31
6.61
4.09
1.78
-0.44
-2.68
-5.01
-7.44
-9.89
-12.29
-14.62
-16.97
-19.57
-22.72
-26.64
-31.21
-35.91
-39.75
-41.70
-40.91
-37.08
-30.60
-22.33
-13.37
-4.64
3.31
10.32
16.51
22.04
26.94
31.08
34.28
36.47
37.73
38.27
38.34
38.04
37.32
36.02
34.02
31.42
28.47
25.51
22.73
20.09
17.29
13.95
9.75
4.62
-1.19
-7.22
-12.94
-17.93
-22.01
-25.20
-27.56
-29.11
-29.73
-29.24
-27.58
-24.82
-21.26
-17.47
-14.23
-12.55
-13.47
-17.78
-25.53
-35.68
-46.09
-54.09
-57.37
-54.98
-47.82
-38.48
-30.39
-26.72
-29.49
-38.97
-53.77
-71.31
-88.46
-102.23
-110.46
-112.05
-107.13
-96.73
-82.09
-64.03
-42.46
-16.33
15.89
55.30
101.50
151.78
201.21
243.59
273.45
287.80
287.22
275.48
257.96
239.68
223.87
211.58
202.48
195.92
191.59
189.43
189.11
189.51
188.81
185.15
177.23
164.67
147.81
127.37
104.22
79.44
54.61
31.96
14.07
3.13
0.12
4.20
12.89
22.86
31.06
35.63
36.23
33.70
29.28
23.96
18.19
11.96
5.32
-1.49
-8.02
-13.98
-19.52
-25.41
-32.62
-41.75
-52.65
-64.29
-75.16
-83.91
-89.89
-93.33
-95.19
-96.57
-98.28
-100.53
-102.94
-104.89
-105.86
-105.76
-105.02
-104.40
-104.63
-106.05
-108.41
-110.92
-112.66
-113.01
-112.01
-110.35
-109.17
-109.45
-111.66
-115.45
-119.65
-122.58
-122.60
-118.43
-109.68
-96.82
-81.09
-64.12
-47.54
-32.56
-19.85
-9.61
-1.71
4.10
8.17
10.89
12.68
13.96
15.11
16.39
17.85
19.39
20.70
21.32
20.73
18.52
14.52
8.86
2.01
-5.49
-13.18
-20.86
-28.58
-36.44
-44.58
-52.98
-61.48
-69.83
-77.92
-85.94
-94.41
-104.07
-115.46
-128.72
-143.43
-158.96
-174.77
-190.80
-207.46
-225.07
-243.47
-261.46
-276.96
-287.33
-290.06
-283.21
-265.69
-237.52
-199.85
-155.19
-107.16
-59.93
-17.34
18.07
45.52
65.91
81.02
92.59
101.59
108.19
112.20
113.64
113.33
112.80
113.94
118.38
127.03
139.92
156.14
173.82
190.07
201.42
204.55
197.50
180.60
156.68
130.24
105.83
86.53
73.10
64.28
57.81
51.62
44.47
35.96
26.16
15.23
3.50
-8.49
-19.83
-29.55
-36.86
-41.53
-44.02
-45.31
-46.76
-49.52
-54.24
-60.67
-67.64
-73.21
-75.28
-72.30
-63.88
-51.01
-35.69
-20.19
-6.29
5.28
14.78
23.00
30.62
37.86
44.33
49.44
52.69
54.06
53.97
53.11
52.17
51.52
51.23
51.03
50.63
49.86
48.77
47.57
46.43
45.31
43.90
41.77
38.60
34.41
29.61
24.79
20.46
16.71
13.26
9.56
5.12
-0.20
-6.22
-12.46
-18.41
-23.71
-28.29
-32.39
-36.51
-41.24
-47.11
-54.32
-62.59
-71.09
-78.52
-83.38
-84.43
-81.01
-73.27
-62.16
-49.16
-35.84
-23.41
-12.52
-3.24
4.67
11.48
17.34
22.22
26.14
29.20
31.73
34.13
36.75
39.68
42.68
45.20
46.64
46.69
45.53
43.84
42.61
42.75
44.60
47.91
51.84
55.40
57.91
59.26
59.75
59.90
60.02
60.04
59.55
57.99
54.99
50.57
45.14
39.41
34.07
29.56
25.88
22.67
19.22
14.86
9.15
2.01
-6.08
-14.20
-21.05
-25.21
-25.46
-21.28
-12.98
-1.80
10.42
21.78
30.87
37.04
40.48
41.92
42.19
41.94
41.45
40.75
39.76
38.43
36.84
35.12
33.49
32.13
31.16
30.59
30.21
29.70
28.63
26.66
23.68
19.85
15.51
11.02
6.56
2.11
-2.49
-7.36
-12.48
-17.66
-22.73
-27.61
-32.35
-37.05
-41.78
-46.45
-50.98
-55.42
-59.97
-65.03
-70.84
-77.32
-83.82
-89.21
-92.14
-91.56
-87.10
-79.26
-69.23
-58.51
-48.33
-39.43
-31.88
-25.45
-19.93
-15.46
-12.56
-11.88
-13.85
-18.30
-24.56
-31.64
-38.69
-45.30
-51.62
-58.16
-65.40
-73.55
-82.32
-91.11
-99.21
-106.22
-112.19
-117.73
-123.88
-131.79
-142.25
-155.17
-169.20
-181.77
-189.53
-189.29
-178.87
-157.84
-127.60
-90.90
-50.99
-10.79
27.71
63.49
96.27
126.20
153.56
178.71
201.96
223.46
243.05
259.94
272.81
280.08
280.47
273.54
259.86
240.83
218.21
193.79
169.23
146.12
126.14
110.82
101.14
97.10
97.49
100.27
103.33
105.14
105.28
104.21
102.73
101.33
99.95
98.13
95.54
92.42
89.73
88.82
90.76
95.70
102.59
109.51
114.29
115.32
111.98
104.66
94.39
82.19
68.68
53.98
37.91
20.41
1.84
-16.97
-35.02
-51.48
-66.09
-79.07
-90.89
-101.71
-111.29
-119.01
-124.21
-126.64
-126.49
-124.39
-121.03
-116.93
-112.31
-107.24
-101.78
-96.00
-90.04
-83.95
-77.78
-71.60
-65.61
-60.06
-55.24
-51.29
-48.09
-45.40
-42.96
-40.60
-38.35
-36.36
-34.71
-33.39
-32.13
-30.57
-28.41
-25.60
-22.32
-18.93
-15.74
-12.85
-10.10
-7.12
-3.57
0.64
5.28
9.89
13.96
17.10
19.20
20.40
21.03
21.49
22.07
22.91
23.90
24.69
24.87
24.06
22.12
19.26
16.08
13.30
11.74
11.88
13.83
17.21
21.33
25.37
28.66
30.78
31.66
31.47
30.54
29.16
27.58
25.95
24.38
22.97
21.81
20.87
20.02
19.02
17.59
15.56
13.03
10.29
7.78
5.84
4.55
3.69
2.86
1.72
0.16
-1.73
-3.69
-5.45
-6.89
-8.02
-8.94
-9.77
-10.63
-11.67
-13.09
-15.06
-17.64
-20.70
-23.89
-26.78
-29.03
-30.56
-31.56
-32.49
-33.81
-35.83
-38.51
-41.46
-44.03
-45.49
-45.28
-43.12
-39.13
-33.74
-27.55
-21.15
-15.00
-9.29
-4.06
0.73
5.07
8.85
11.90
14.12
15.53
16.32
16.77
17.09
17.31
17.32
16.96
16.15
14.95
13.55
12.17
10.97
9.99
9.15
8.32
7.37
6.21
4.81
3.20
1.48
-0.23
-1.88
-3.51
-5.20
-7.00
-8.88
-10.65
-12.10
-13.15
-13.92
-14.76
-16.09
-18.12
-20.71
-23.35
-25.45
-26.64
-26.97
-26.89
-26.94
-27.61
-28.98
-30.89
-32.92
-34.61
-35.51
-35.24
-33.49
-30.08
-25.15
-19.07
-12.48
-6.01
-0.07
5.18
9.82
13.91
17.50
20.50
22.83
24.46
25.47
26.01
26.29
26.50
26.80
27.21
27.60
27.77
27.44
26.40
24.71
22.58
20.34
18.25
16.36
14.53
12.56
10.28
7.70
5.00
2.40
0.04
-2.15
-4.44
-7.13
-10.42
-14.23
-18.22
-21.90
-24.90
-27.16
-28.92
-30.67
-32.84
-35.62
-38.88
-42.27
-45.34
-47.75
-49.33
-50.14
-50.43
-50.52
-50.79
-51.48
-52.67
-54.10
-55.28
-55.46
-53.91
-50.06
-43.76
-35.33
-25.58
-15.59
-6.33
1.53
7.85
12.85
16.95
20.48
23.58
26.14
28.01
29.16
29.67
29.73
29.55
29.20
28.62
27.66
26.27
24.52
22.67
20.98
19.69
18.85
18.32
17.86
17.22
16.23
14.81
13.03
11.00
8.94
7.04
5.40
3.98
2.59
0.97
-1.06
-3.52
-6.31
-9.27
-12.38
-15.67
-19.21
-22.93
-26.56
-29.64
-31.69
-32.51
-32.22
-31.34
-30.54
-30.43
-31.32
-33.16
-35.50
-37.64
-38.77
-38.16
-35.32
-30.23
-23.25
-15.14
-6.82
0.91
7.57
13.03
17.40
20.89
23.61
25.58
26.81
27.41
27.57
27.51
27.33
26.92
26.04
24.52
22.46
20.17
18.07
16.51
15.56
15.00
14.50
13.79
12.74
11.46
10.08
8.59
6.94
5.01
2.78
0.39
-1.94
-4.04
-5.85
-7.43
-8.90
-10.24
-11.39
-12.21
-12.72
-13.09
-13.66
-14.67
-16.18
-17.99
-19.76
-21.19
-22.17
-22.84
-23.49
-24.49
-26.08
-28.32
-30.97
-33.50
-35.20
-35.30
-33.36
-29.32
-23.62
-16.96
-10.07
-3.43
2.75
8.42
13.53
17.96
21.53
24.10
25.61
26.13
25.79
24.83
23.47
22.01
20.74
19.80
19.12
18.47
17.60
16.42
15.07
13.81
12.82
12.04
11.19
9.88
7.95
5.53
2.96
0.64
-1.26
-2.82
-4.26
-5.74
-7.32
-8.92
-10.49
-12.11
-13.96
-16.16
-18.63
-21.10
-23.20
-24.69
-25.54
-25.99
-26.41
-27.07
-28.10
-29.39
-30.67
-31.50
-31.30
-29.50
-25.62
-19.45
-11.21
-1.58
8.47
17.87
25.85
32.07
36.61
39.90
42.41
44.47
46.14
47.29
47.68
47.11
45.45
42.67
38.84
34.05
28.43
22.26
15.89
9.75
4.20
-0.53
-4.47
-7.84
-10.97
-14.17
-17.60
-21.28
-25.19
-29.23
-33.26
-37.10
-40.51
-43.27
-45.30
-46.72
-47.81
-48.92
-50.20
-51.54
-52.66
-53.23
-53.11
-52.36
-51.23
-50.05
-49.03
-48.30
-47.84
-47.55
-47.18
-46.44
-44.96
-42.45
-38.84
-34.32
-29.38
-24.58
-20.37
-16.86
-13.78
-10.56
-6.60
-1.59
4.34
10.55
16.16
20.33
22.55
22.84
21.64
19.58
17.23
14.91
12.58
9.97
6.74
2.59
-2.66
-9.07
-16.49
-24.49
-32.19
-38.32
-41.53
-40.91
-36.41
-29.02
-20.39
-12.18
-5.46
-0.52
2.91
5.19
6.39
6.23
4.29
0.36
-5.43
-12.70
-21.12
-30.62
-41.34
-53.36
-66.38
-79.34
-90.54
-97.99
-99.99
-95.71
-85.55
-70.94
-53.86
-36.22
-19.26
-3.52
10.95
24.16
35.88
45.63
52.90
57.41
59.30
59.08
57.41
54.90
51.96
48.87
45.79
42.95
40.56
38.78
37.55
36.60
35.50
33.86
31.45
28.31
24.73
21.08
17.68
14.58
11.54
8.14
4.04
-0.94
-6.65
-12.71
-18.69
-24.25
-29.30
-34.02
-38.77
-44.00
-50.23
-57.77
-66.58
-75.92
-84.30
-89.73
-90.40
-85.33
-74.88
-60.66
-44.87
-29.48
-15.59
-3.27
8.04
19.03
30.03
40.92
51.25
60.55
68.46
74.77
79.40
82.34
83.72
83.81
83.04
81.90
80.79
79.99
79.52
79.23
78.83
78.00
76.45
73.96
70.46
66.10
61.14
55.95
50.91
46.25
42.02
38.03
33.96
29.49
24.40
18.68
12.47
6.02
-0.50
-6.98
-13.43
-19.90
-26.49
-33.32
-40.57
-48.52
-57.41
-67.33
-78.03
-88.86
-98.79
-106.53
-110.77
-110.42
-104.85
-94.04
-78.73
-60.23
-40.14
-20.07
-1.15
16.07
31.71
46.22
60.16
73.84
87.18
99.77
110.89
119.83
125.94
128.80
128.21
124.25
117.29
107.98
97.26
86.05
75.22
65.20
55.97
47.18
38.41
29.49
20.61
12.31
5.20
-0.20
-3.63
-5.11
-4.86
-3.20
-0.50
2.84
6.44
9.99
13.28
16.24
18.91
21.34
23.53
25.37
26.76
27.67
28.19
28.56
28.98
29.55
30.13
30.35
29.76
27.99
25.00
21.22
17.45
14.71
13.93
15.54
19.38
24.64
30.21
35.08
38.60
40.64
41.47
41.55
41.26
40.83
40.28
39.57
38.63
37.37
35.75
33.69
31.20
28.33
25.23
22.06
19.04
16.37
14.19
12.59
11.50
10.71
9.93
8.90
7.52
5.91
4.40
3.31
2.84
2.95
3.37
3.78
3.93
3.71
3.18
2.50
1.73
0.84
-0.31
-1.87
-3.87
-6.20
-8.66
-11.02
-13.22
-15.30
-17.41
-19.69
-22.19
-24.91
-27.84
-31.00
-34.42
-37.90
-40.96
-42.84
-42.78
-40.34
-35.68
-29.52
-22.86
-16.58
-11.20
-6.77
-3.03
0.29
3.34
6.07
8.35
10.03
11.11
11.66
11.84
11.86
11.81
11.75
11.62
11.34
10.83
10.15
9.41
8.74
8.26
7.89
7.52
6.92
5.95
4.52
2.69
0.59
-1.61
-3.75
-5.74
-7.53
-9.14
-10.60
-11.97
-13.27
-14.55
-15.84
-17.18
-18.63
-20.18
-21.74
-23.17
-24.39
-25.41
-26.38
-27.52
-28.96
-30.74
-32.67
-34.44
-35.58
-35.66
-34.35
-31.52
-27.28
-21.94
-15.97
-9.92
-4.27
0.65
4.67
7.79
10.10
11.73
12.88
13.69
14.32
14.82
15.15
15.28
15.16
14.79
14.20
13.46
12.59
11.61
10.50
9.27
8.00
6.80
5.82
5.11
4.56
3.99
3.14
1.81
-0.04
-2.28
-4.64
-6.80
-8.53
-9.72
-10.46
-10.98
-11.59
-12.56
-14.00
-15.87
-17.99
-20.10
-22.00
-23.63
-25.07
-26.53
-28.27
-30.42
-32.98
-35.67
-37.93
-39.10
-38.59
-36.05
-31.58
-25.67
-19.11
-12.69
-7.03
-2.38
1.33
4.36
7.08
9.71
12.35
14.85
16.99
18.52
19.30
19.33
18.77
17.93
17.03
16.20
15.42
14.57
13.56
12.46
11.37
10.43
9.65
8.83
7.76
6.33
4.65
3.03
1.81
1.12
0.80
0.48
-0.28
-1.67
-3.59
-5.72
-7.70
-9.32
-10.61
-11.78
-13.06
-14.61
-16.45
-18.44
-20.46
-22.38
-24.13
-25.69
-27.07
-28.31
-29.50
-30.68
-31.91
-33.16
-34.24
-34.86
-34.65
-33.29
-30.65
-26.79
-22.05
-16.86
-11.79
-7.32
-3.87
-1.67
-0.73
-0.81
-1.49
-2.36
-3.11
-3.69
-4.38
-5.64
-7.89
-11.27
-15.50
-19.95
-23.85
-26.73
-28.63
-30.16
-32.31
-35.91
-41.24
-47.75
-54.33
-59.74
-63.17
-64.66
-64.92
-65.10
-66.28
-69.10
-73.38
-78.01
-80.72
-78.24
-66.93
-44.02
-9.04
35.15
82.58
125.59
157.24
173.45
173.91
161.50
140.63
115.43
88.83
62.57
37.92
16.31
-0.68
-11.77
-16.64
-16.22
-12.47
-7.60
-3.43
-0.86
0.12
0.14
-0.09
-0.10
0.18
0.56
0.86
1.16
1.86
3.49
6.43
10.62
15.55
20.48
24.81
28.46
31.93
35.99
41.30
47.91
55.06
61.35
65.11
64.97
60.30
51.40
39.42
25.87
12.16
-0.69
-12.16
-22.02
-30.13
-36.25
-40.13
-41.73
-41.39
-39.79
-37.84
-36.33
-35.79
-36.34
-37.88
-40.23
-43.24
-46.80
-50.65
-54.31
-57.06
-58.03
-56.48
-52.07
-45.05
-36.26
-26.84
-17.89
-10.08
-3.58
1.90
6.85
11.66
16.43
21.05
25.18
28.46
30.61
31.49
31.19
29.98
28.26
26.44
24.82
23.41
22.02
20.26
17.88
14.87
11.61
8.71
6.86
6.54
7.86
10.52
13.78
16.64
18.00
16.98
13.24
7.28
0.46
-5.25
-7.94
-6.62
-1.79
4.45
9.08
9.19
3.02
-9.63
-27.51
-48.58
-70.65
-91.70
-109.97
-123.71
-131.37
-131.91
-125.28
-112.73
-96.47
-79.08
-62.62
-48.15
-35.71
-24.71
-14.51
-4.85
4.04
11.56
17.17
20.59
22.04
22.13
21.67
21.40
21.73
22.70
24.03
25.29
26.15
26.47
26.30
25.74
24.78
23.28
21.04
17.90
13.93
9.44
4.87
0.62
-3.12
-6.42
-9.55
-12.77
-16.23
-19.82
-23.23
-26.13
-28.34
-29.98
-31.43
-33.19
-35.75
-39.43
-44.22
-49.88
-55.87
-61.46
-65.66
-67.49
-66.09
-61.09
-52.78
-42.02
-30.09
-18.18
-7.09
2.95
12.05
20.41
28.04
34.66
39.89
43.45
45.37
46.04
46.04
45.87
45.78
45.71
45.51
45.04
44.32
43.55
42.94
42.59
42.38
41.95
40.93
38.97
35.96
32.03
27.55
22.98
18.78
15.22
12.30
9.75
7.16
4.20
0.75
-3.03
-6.79
-10.23
-13.26
-16.05
-18.94
-22.32
-26.43
-31.25
-36.54
-41.88
-46.63
-50.05
-51.36
-49.95
-45.59
-38.61
-29.77
-20.11
-10.64
-2.05
5.39
11.73
17.14
21.72
25.46
28.26
30.08
31.06
31.49
31.76
32.17
32.83
33.66
34.45
35.03
35.34
35.44
35.36
35.00
34.16
32.60
30.25
27.31
24.15
21.22
18.77
16.79
14.97
12.92
10.29
6.94
2.95
-1.43
-5.91
-10.21
-14.22
-18.03
-21.88
-26.06
-30.81
-36.02
-41.22
-45.55
-47.98
-47.55
-43.80
-36.90
-27.72
-17.54
-7.67
0.99
8.12
14.01
19.24
24.37
29.59
34.71
39.28
42.82
45.05
46.03
46.03
45.43
44.53
43.50
42.35
41.07
39.70
38.31
37.02
35.89
34.77
33.44
31.65
29.31
26.50
23.53
20.65
18.00
15.40
12.52
8.99
4.65
-0.36
-5.67
-10.77
-15.27
-18.92
-21.83
-24.27
-26.77
-29.87
-34.02
-39.30
-45.31
-51.15
-55.54
-57.24
-55.43
-49.96
-41.35
-30.66
-19.07
-7.68
2.79
12.01
20.02
27.00
33.08
38.23
42.26
45.00
46.48
46.99
47.02
47.00
47.09
47.12
46.76
45.74
44.07
42.06
40.16
38.68
37.64
36.74
35.55
33.67
30.93
27.45
23.58
19.72
16.17
13.04
10.17
7.30
4.14
0.51
-3.54
-7.78
-11.92
-15.70
-19.04
-22.02
-24.90
-27.98
-31.56
-35.92
-41.16
-47.19
-53.57
-59.42
-63.54
-64.65
-61.92
-55.20
-45.28
-33.56
-21.61
-10.65
-1.26
6.58
13.32
19.41
25.15
30.49
35.19
39.00
41.80
43.71
44.98
45.84
46.36
46.41
45.77
44.32
42.19
39.76
37.53
35.77
34.47
33.33
31.86
29.70
26.72
23.07
19.05
15.01
11.20
7.71
4.48
1.34
-1.93
-5.51
-9.45
-13.64
-17.85
-21.72
-25.02
-27.71
-30.03
-32.46
-35.51
-39.58
-44.79
-50.81
-56.91
-62.04
-65.01
-64.77
-60.76
-53.08
-42.57
-30.53
-18.38
-7.24
2.29
10.20
16.83
22.55
27.61
32.00
35.58
38.24
39.92
40.74
40.94
40.78
40.47
40.11
39.71
39.19
38.46
37.44
36.11
34.51
32.65
30.54
28.15
25.45
22.46
19.31
16.17
13.21
10.56
8.19
5.93
3.55
0.77
-2.60
-6.60
-11.07
-15.70
-20.09
-23.95
-27.17
-29.93
-32.65
-35.87
-40.02
-45.29
-51.52
-58.14
-64.23
-68.71
-70.51
-68.94
-63.87
-55.81
-45.79
-34.98
-24.39
-14.60
-5.75
2.30
9.78
16.73
23.00
28.38
32.68
35.87
38.08
39.56
40.62
41.49
42.26
42.90
43.32
43.38
43.03
42.32
41.39
40.41
39.37
38.09
36.28
33.67
30.18
25.99
21.52
17.21
13.36
10.02
7.03
4.10
0.99
-2.47
-6.24
-10.19
-14.14
-17.88
-21.23
-24.15
-26.72
-29.20
-31.93
-35.23
-39.33
-44.31
-49.94
-55.71
-60.73
-63.92
-64.21
-60.90
-53.99
-44.21
-32.92
-21.56
-11.17
-2.16
5.71
12.95
19.94
26.65
32.74
37.72
41.31
43.51
44.62
44.96
44.74
44.02
42.81
41.20
39.46
37.94
36.87
36.26
35.91
35.46
34.59
33.05
30.75
27.63
23.72
19.14
14.20
9.36
5.07
1.62
-1.01
-3.21
-5.52
-8.37
-11.96
-16.13
-20.52
-24.79
-28.74
-32.38
-35.87
-39.32
-42.88
-46.59
-50.47
-54.44
-58.24
-61.28
-62.75
-61.77
-57.71
-50.57
-41.00
-30.14
-19.23
-9.22
-0.50
7.00
13.59
19.55
24.96
29.67
33.48
36.20
37.81
38.43
38.32
37.77
36.98
36.07
34.98
33.61
31.83
29.59
27.03
24.38
21.94
19.89
18.18
16.61
14.85
12.67
10.03
7.07
4.04
1.15
-1.57
-4.29
-7.26
-10.68
-14.56
-18.67
-22.67
-26.23
-29.21
-31.63
-33.63
-35.48
-37.38
-39.60
-42.37
-45.90
-50.20
-54.88
-59.15
-61.86
-61.92
-58.65
-52.03
-42.75
-31.88
-20.58
-9.74
0.13
8.81
16.32
22.69
27.92
31.97
34.79
36.41
36.93
36.50
35.30
33.53
31.39
29.06
26.73
24.58
22.71
21.19
19.96
18.93
17.98
16.95
15.75
14.27
12.51
10.54
8.54
6.73
5.22
3.97
2.68
0.97
-1.46
-4.68
-8.47
-12.46
-16.24
-19.59
-22.54
-25.32
-28.33
-31.97
-36.54
-42.16
-48.57
-55.11
-60.70
-64.08
-64.18
-60.49
-53.27
-43.54
-32.73
-22.25
-13.00
-5.20
1.51
7.73
14.01
20.56
27.20
33.54
39.14
43.68
47.03
49.24
50.49
50.95
50.76
50.08
49.02
47.74
46.37
45.01
43.72
42.44
41.09
39.53
37.65
35.34
32.53
29.24
25.52
21.46
17.16
12.62
7.86
2.84
-2.45
-8.01
-13.77
-19.65
-25.57
-31.39
-36.94
-41.95
-46.15
-49.38
-51.68
-53.38
-54.94
-56.82
-59.23
-62.03
-64.68
-66.32
-65.97
-62.82
-56.43
-46.96
-35.14
-22.18
-9.31
2.46
12.71
21.55
29.45
36.89
44.05
50.83
56.88
61.85
65.61
68.24
69.90
70.74
70.68
69.53
67.11
63.41
58.69
53.36
47.91
42.64
37.65
32.78
27.79
22.51
16.96
11.42
6.30
2.11
-0.76
-2.11
-1.97
-0.65
1.32
3.30
4.68
5.15
4.85
4.35
4.38
5.48
7.73
10.71
13.62
15.70
16.49
15.98
14.57
12.86
11.43
10.71
10.93
12.10
14.09
16.67
19.55
22.48
25.29
27.91
30.33
32.60
34.73
36.69
38.34
39.51
40.09
40.05
39.46
38.38
36.82
34.59
31.42
27.05
21.35
14.37
6.21
-2.95
-12.95
-23.48
-34.04
-43.87
-52.07
-57.85
-60.82
-61.16
-59.68
-57.60
-56.23
-56.60
-59.21
-63.95
-70.24
-77.25
-84.22
-90.58
-96.05
-100.58
-104.26
-107.26
-109.83
-112.23
-114.51
-116.42
-117.28
-116.09
-111.93
-104.31
-93.55
-80.77
-67.62
-55.68
-46.02
-38.93
-34.00
-30.47
-27.57
-24.84
-22.12
-19.49
-17.07
-14.86
-12.81
-10.76
-8.49
-5.81
-2.59
1.20
5.47
10.06
14.82
19.63
24.45
29.25
33.92
38.26
42.05
45.21
47.87
50.45
53.46
57.33
62.20
67.91
74.07
80.28
86.23
91.76
96.80
101.32
105.29
108.67
111.52
114.11
116.81
119.97
123.68
127.63
131.10
133.35
133.91
132.84
130.61
127.68
123.94
118.58
110.24
97.62
80.09
58.06
32.82
6.13
-20.29
-44.98
-66.72
-84.41
-97.07
-104.02
-105.19
-101.21
-93.32
-82.95
-71.34
-59.34
-47.34
-35.62
-24.44
-14.21
-5.48
1.35
6.03
8.56
9.25
8.52
6.79
4.31
1.00
-3.56
-10.03
-18.99
-30.80
-45.52
-62.86
-82.42
-103.63
-125.80
-148.13
-169.68
-189.61
-207.22
-222.06
-233.72
-241.72
-245.38
-243.94
-236.81
-223.78
-205.17
-181.75
-154.54
-124.76
-93.59
-62.21
-31.70
-3.01
23.09
46.10
65.90
82.80
97.55
111.24
125.04
139.64
154.84
169.28
180.63
186.41
184.94
176.20
162.05
145.79
131.08
120.76
115.96
115.98
118.70
121.46
121.95
118.72
111.38
100.31
86.38
70.56
53.76
36.83
20.43
5.05
-9.11
-22.25
-34.92
-47.87
-61.69
-76.42
-91.32
-104.84
-115.02
-120.08
-119.08
-112.32
-101.33
-88.32
-75.46
-64.19
-54.89
-47.06
-39.86
-32.65
-25.36
-18.41
-12.43
-7.85
-4.72
-2.70
-1.30
-0.16
0.85
1.60
1.94
1.82
1.33
0.64
-0.12
-1.01
-2.17
-3.77
-5.86
-8.38
-11.15
-14.05
-17.03
-20.07
-23.15
-26.13
-28.83
-31.15
-33.07
-34.74
-36.41
-38.34
-40.75
-43.84
-47.76
-52.49
-57.71
-62.66
-66.22
-67.23
-64.90
-59.06
-50.39
-40.02
-29.22
-18.91
-9.49
-0.92
7.03
14.54
21.62
28.09
33.73
38.36
41.88
44.34
45.80
46.40
46.24
45.47
44.26
42.82
41.39
40.13
39.07
38.05
36.78
34.94
32.30
28.89
24.92
20.71
16.58
12.72
9.12
5.65
2.10
-1.75
-5.97
-10.54
-15.28
-20.01
-24.61
-29.14
-33.83
-38.98
-44.83
-51.22
-57.55
-62.74
-65.51
-64.86
-60.40
-52.55
-42.41
-31.32
-20.34
-10.05
-0.54
8.35
16.69
24.33
30.93
36.15
39.82
42.02
42.98
42.97
42.20
40.82
38.95
36.76
34.41
32.10
29.90
27.74
25.48
22.89
19.82
16.21
12.09
7.52
2.54
-2.77
-8.37
-14.06
-19.60
-24.80
-29.52
-33.81
-37.89
-42.01
-46.42
-51.32
-56.82
-62.95
-69.65
-76.68
-83.48
-89.24
-92.92
-93.58
-90.65
-84.17
-74.82
-63.65
-51.83
-40.23
-29.31
-19.16
-9.67
-0.76
7.46
14.78
20.93
25.83
29.63
32.81
35.98
39.71
44.31
49.67
55.36
60.82
65.63
69.72
73.29
76.66
79.94
82.90
85.02
85.68
84.45
81.19
76.09
69.54
61.93
53.68
45.14
36.64
28.45
20.75
13.53
6.54
-0.61
-8.41
-17.11
-26.57
-36.15
-44.74
-51.02
-53.91
-52.81
-47.87
-39.92
-30.12
-19.65
-9.38
0.29
9.43
18.31
27.28
36.43
45.56
54.21
61.83
67.93
72.31
74.96
76.00
75.58
73.76
70.60
66.19
60.68
54.14
46.47
37.38
26.52
13.74
-0.74
-16.29
-31.99
-46.94
-60.44
-71.99
-81.32
-88.33
-93.02
-95.45
-95.79
-94.13
-90.54
-85.03
-77.71
-68.89
-59.25
-49.56
-40.49
-32.35
-24.90
-17.53
-9.38
0.38
12.43
27.18
44.64
64.32
85.16
105.59
123.89
138.61
148.98
155.14
157.98
158.94
159.47
160.79
163.64
168.14
173.83
179.66
184.22
186.07
184.18
178.41
169.72
159.99
151.38
145.48
142.65
141.86
141.08
138.26
132.10
122.53
110.62
97.96
86.07
75.87
67.51
60.44
53.57
45.35
34.05
18.09
-3.55
-30.89
-62.94
-98.08
-134.68
-171.80
-209.27
-247.10
-284.66
-320.20
-351.00
-374.30
-388.35
-392.90
-388.95
-377.83
-360.34
-336.49
-306.13
-269.83
-229.52
-188.21
-149.09
-114.30
-84.38
-58.34
-34.64
-12.09
9.55
29.59
46.82
60.34
69.93
76.11
79.86
82.11
83.36
83.65
82.69
80.31
76.64
72.23
67.79
64.02
61.21
59.31
57.99
56.91
55.89
54.96
54.26
53.75
53.16
51.97
49.61
45.67
40.06
33.00
24.82
15.81
6.13
-4.15
-14.98
-26.18
-37.32
-47.70
-56.35
-62.25
-64.56
-62.92
-57.69
-49.98
-41.30
-33.13
-26.45
-21.42
-17.54
-14.07
-10.46
-6.65
-2.99
-0.03
1.96
3.03
3.65
4.38
5.63
7.47
9.70
11.97
14.00
15.69
17.14
18.51
19.96
21.57
23.30
24.98
26.26
26.57
25.04
20.65
12.52
0.24
-15.82
-34.56
-54.31
-73.45
-90.70
-105.42
-117.54
-127.18
-134.28
-138.39
-138.70
-134.30
-124.66
-109.89
-90.99
-69.70
-48.08
-28.08
-10.94
3.03
14.44
24.50
34.50
45.38
57.46
70.49
83.87
96.97
109.34
120.79
131.30
140.89
149.46
156.84
162.79
167.09
169.65
170.42
169.31
166.11
160.55
152.41
141.78
129.17
115.45
101.62
88.48
76.44
65.47
55.27
45.54
36.13
27.03
18.30
9.91
1.68
-6.70
-15.53
-25.04
-35.27
-45.98
-56.74
-66.77
-75.07
-80.64
-82.63
-80.64
-74.96
-66.50
-56.59
-46.56
-37.35
-29.32
-22.28
-15.77
-9.34
-2.85
3.47
9.11
13.42
15.83
15.84
13.20
7.92
0.31
-9.01
-19.16
-29.00
-37.26
-42.60
-43.83
-40.21
-31.61
-18.82
-3.42
12.41
26.29
36.01
39.97
37.43
28.71
15.30
-0.28
-14.84
-25.18
-28.93
-25.29
-15.23
-1.17
13.69
26.36
34.74
37.98
36.43
31.26
24.07
16.54
10.29
6.72
6.91
11.43
20.24
32.63
47.36
62.87
77.54
89.93
98.82
103.36
103.16
98.44
90.23
80.17
70.16
61.71
55.30
50.29
45.32
39.09
31.11
21.99
12.99
5.29
-0.65
-5.31
-9.59
-14.26
-19.40
-24.47
-28.67
-31.54
-33.23
-34.45
-36.18
-39.26
-44.23
-51.34
-60.59
-71.74
-84.23
-97.08
-108.97
-118.60
-125.10
-128.39
-129.19
-128.52
-126.93
-123.91
-117.73
-106.12
-87.35
-61.27
-29.75
3.78
35.40
61.81
81.08
92.90
98.32
99.38
98.92
100.13
106.06
118.76
138.57
163.86
191.60
218.39
241.65
260.23
274.14
283.85
289.59
291.13
288.08
280.35
268.17
251.70
230.52
203.54
169.66
128.78
82.62
34.61
-11.09
-51.24
-84.79
-113.29
-140.32
-169.90
-205.05
-246.70
-293.35
-341.67
-387.48
-426.97
-457.63
-478.56
-490.22
-493.83
-490.72
-481.89
-468.02
-449.50
-426.54
-399.14
-366.91
-329.15
-285.00
-233.84
-175.58
-110.65
-39.96
35.04
111.94
186.91
254.55
308.72
344.14
358.24
352.23
330.64
299.61
264.68
229.29
194.79
161.56
130.41
103.11
81.74
67.29
58.69
52.89
46.12
35.61
20.67
2.75
-15.57
-31.98
-45.45
-56.33
-65.85
-75.31
-85.47
-96.32
-107.35
-117.72
-126.58
-133.13
-136.69
-136.78
-133.18
-126.01
-115.74
-103.17
-89.37
-75.60
-63.10
-52.87
-45.29
-39.96
-35.71
-30.93
-24.06
-14.06
-0.72
15.44
33.37
52.01
70.45
88.01
104.16
118.31
129.73
137.58
141.04
139.50
132.65
120.58
103.88
83.72
62.00
41.20
23.99
12.49
7.61
8.60
13.29
18.88
22.94
24.18
22.63
19.16
14.75
9.79
3.85
-3.84
-13.91
-26.21
-39.76
-52.97
-64.15
-71.98
-75.80
-75.67
-72.14
-66.07
-58.40
-49.92
-41.22
-32.69
-24.58
-17.05
-10.24
-4.27
0.80
5.01
8.54
11.59
14.35
16.84
18.99
20.63
21.63
21.98
21.68
20.88
19.69
18.28
16.80
15.36
13.99
12.61
11.08
9.28
7.19
4.97
2.90
1.23
0.07
-0.69
-1.31
-2.02
-2.96
-4.03
-5.10
-6.06
-7.05
-8.40
-10.54
-13.72
-17.85
-22.47
-26.88
-30.42
-32.54
-32.95
-31.49
-28.17
-23.12
-16.64
-9.29
-1.77
5.20
11.18
16.10
20.19
23.79
27.13
30.19
32.76
34.64
35.74
36.19
36.28
36.32
36.52
36.93
37.44
37.80
37.86
37.49
36.67
35.51
34.12
32.61
31.08
29.61
28.25
27.13
26.29
25.74
25.37
24.89
23.85
21.73
18.05
12.49
5.09
-3.75
-13.32
-22.79
-31.51
-39.07
-45.39
-50.44
-54.12
-55.95
-55.23
-51.19
-43.34
-31.85
-17.46
-1.41
15.02
30.77
45.22
58.08
69.12
78.07
84.52
88.26
89.38
88.41
86.13
83.18
79.77
75.66
70.41
63.71
55.70
46.88
37.92
29.34
21.35
13.91
6.83
0.01
-6.51
-12.58
-18.07
-22.93
-27.24
-31.17
-34.85
-38.41
-41.83
-45.00
-47.78
-50.08
-51.92
-53.45
-54.91
-56.48
-58.23
-60.03
-61.51
-62.15
-61.37
-58.75
-54.11
-47.64
-39.78
-31.14
-22.34
-13.84
-6.04
0.87
6.84
11.87
16.04
19.46
22.23
24.34
25.76
26.44
26.37
25.63
24.34
22.63
20.65
18.56
16.55
14.80
13.41
12.33
11.30
9.98
8.08
5.51
2.38
-0.99
-4.22
-7.06
-9.41
-11.41
-13.30
-15.31
-17.59
-20.14
-22.86
-25.52
-27.94
-29.94
-31.51
-32.82
-34.20
-36.09
-38.80
-42.30
-46.01
-48.93
-49.79
-47.63
-42.18
-34.07
-24.60
-15.26
-7.16
-0.67
4.49
8.93
13.14
17.27
21.09
24.20
26.32
27.35
27.45
26.86
25.80
24.47
23.04
21.65
20.49
19.69
19.29
19.19
19.14
18.84
18.03
16.60
14.67
12.44
10.18
8.05
6.05
4.04
1.91
-0.36
-2.63
-4.78
-6.75
-8.66
-10.66
-12.89
-15.27
-17.59
-19.61
-21.22
-22.57
-24.04
-26.04
-28.83
-32.45
-36.69
-41.10
-45.11
-47.99
-48.95
-47.26
-42.59
-35.09
-25.56
-15.16
-5.08
3.81
11.15
17.07
21.83
25.68
28.75
31.04
32.60
33.53
33.91
33.79
33.15
31.99
30.42
28.72
27.24
26.24
25.77
25.61
25.48
25.10
24.38
23.35
22.12
20.80
19.35
17.67
15.61
13.12
10.28
7.33
4.52
2.05
-0.06
-2.03
-4.17
-6.77
-9.92
-13.47
-17.09
-20.32
-22.85
-24.54
-25.55
-26.17
-26.86
-28.04
-30.01
-32.81
-36.17
-39.55
-42.23
-43.48
-42.67
-39.45
-33.83
-26.26
-17.53
-8.57
-0.31
6.69
12.28
16.66
20.21
23.20
25.66
27.34
28.01
27.56
26.20
24.39
22.66
21.37
20.54
19.94
19.20
18.05
16.42
14.58
12.90
11.67
10.91
10.34
9.46
7.86
5.36
2.16
-1.27
-4.44
-7.03
-9.05
-10.77
-12.58
-14.70
-17.17
-19.74
-22.07
-23.87
-25.06
-25.79
-26.46
-27.50
-29.24
-31.80
-34.98
-38.35
-41.27
-42.97
-42.72
-39.98
-34.64
-27.07
-18.14
-8.95
-0.45
6.77
12.70
17.65
22.07
26.19
29.93
33.02
35.11
36.02
35.85
34.87
33.45
31.86
30.28
28.75
27.22
25.65
24.06
22.48
20.94
19.46
17.99
16.41
14.63
12.59
10.38
8.18
6.23
4.71
3.66
2.90
2.07
0.74
-1.46
-4.64
-8.54
-12.66
-16.42
-19.43
-21.66
-23.49
-25.52
-28.34
-32.22
-37.02
-42.16
-46.82
-50.10
-51.21
-49.62
-45.19
-38.26
-29.57
-20.15
-10.98
-2.83
4.01
9.61
14.30
18.45
22.25
25.73
28.76
31.13
32.69
33.42
33.41
32.88
32.08
31.26
30.58
30.08
29.74
29.44
29.03
28.32
27.14
25.37
23.06
20.33
17.40
14.46
11.63
8.91
6.22
3.50
0.71
-2.18
-5.21
-8.42
-11.87
-15.55
-19.33
-22.96
-26.16
-28.69
-30.52
-31.82
-32.90
-34.18
-36.03
-38.62
-41.86
-45.30
-48.24
-49.77
-49.03
-45.46
-38.99
-30.17
-19.94
-9.52
0.00
7.94
14.13
18.80
22.45
25.49
28.12
30.33
31.93
32.77
32.82
32.25
31.33
30.29
29.31
28.46
27.76
27.19
26.74
26.36
26.00
25.53
24.79
23.62
21.94
19.75
17.14
14.32
11.54
8.99
6.76
4.78
2.85
0.74
-1.70
-4.48
-7.53
-10.70
-13.76
-16.56
-18.97
-20.96
-22.66
-24.22
-25.83
-27.61
-29.67
-32.07
-34.82
-37.81
-40.68
-42.68
-42.83
-40.16
-34.21
-25.33
-14.70
-3.93
5.52
12.88
18.15
21.92
24.94
27.62
29.96
31.66
32.43
32.19
31.19
29.79
28.27
26.71
25.06
23.26
21.39
19.67
18.36
17.62
17.39
17.41
17.28
16.74
15.57
13.85
11.73
9.43
7.08
4.78
2.57
0.43
-1.62
-3.59
-5.50
-7.36
-9.18
-11.00
-12.86
-14.75
-16.72
-18.77
-20.88
-23.02
-25.13
-27.18
-29.24
-31.48
-34.16
-37.49
-41.39
-45.34
-48.51
-49.82
-48.38
-43.73
-36.09
-26.26
-15.45
-4.91
4.40
11.98
17.75
21.93
24.81
26.59
27.45
27.48
26.84
25.74
24.43
23.18
22.13
21.31
20.61
19.87
18.95
17.86
16.71
15.65
14.73
13.83
12.66
10.93
8.55
5.67
2.70
0.12
-1.75
-2.91
-3.62
-4.32
-5.47
-7.32
-9.92
-13.12
-16.55
-19.79
-22.49
-24.47
-25.82
-26.87
-28.04
-29.72
-32.12
-35.21
-38.67
-41.95
-44.25
-44.72
-42.62
-37.63
-30.00
-20.62
-10.68
-1.37
6.53
12.74
17.45
21.01
23.79
26.00
27.77
29.19
30.32
31.25
31.93
32.29
32.20
31.62
30.60
29.27
27.83
26.41
25.09
23.92
22.88
21.97
21.14
20.22
18.97
17.11
14.43
10.93
6.89
2.74
-1.03
-4.10
-6.45
-8.40
-10.36
-12.68
-15.46
-18.53
-21.54
-24.15
-26.21
-27.85
-29.45
-31.53
-34.54
-38.71
-43.78
-48.94
-52.95
-54.47
-52.53
-46.94
-38.33
-27.95
-17.20
-7.17
1.58
8.96
15.17
20.49
25.11
29.23
32.94
36.24
38.98
40.92
41.82
41.59
40.45
38.79
37.07
35.66
34.72
34.19
33.85
33.38
32.51
31.07
29.12
26.88
24.73
22.97
21.69
20.65
19.34
17.26
14.16
10.24
6.07
2.36
-0.46
-2.39
-3.94
-5.81
-8.48
-11.92
-15.60
-18.81
-21.03
-22.31
-23.15
-24.24
-26.04
-28.66
-31.94
-35.64
-39.50
-43.21
-46.18
-47.46
-46.01
-41.21
-33.19
-22.98
-12.13
-2.07
6.27
12.74
17.65
21.49
24.63
27.25
29.36
30.94
31.95
32.36
32.18
31.53
30.55
29.39
28.16
26.79
25.20
23.33
21.32
19.48
18.14
17.43
17.16
16.88
16.09
14.54
12.33
9.82
7.45
5.50
3.97
2.66
1.31
-0.23
-1.96
-3.85
-5.85
-8.01
-10.32
-12.76
-15.17
-17.39
-19.31
-20.98
-22.66
-24.67
-27.32
-30.85
-35.27
-40.26
-45.04
-48.47
-49.28
-46.56
-40.10
-30.62
-19.49
-8.30
1.65
9.64
15.57
19.78
22.76
25.00
26.91
28.71
30.39
31.75
32.51
32.50
31.80
30.73
29.68
28.85
28.18
27.47
26.53
25.37
24.14
22.99
21.86
20.49
18.61
16.09
13.08
9.97
7.11
4.67
2.64
0.85
-0.82
-2.45
-4.09
-5.83
-7.84
-10.20
-12.88
-15.71
-18.38
-20.68
-22.53
-24.08
-25.61
-27.53
-30.20
-33.83
-38.30
-43.05
-47.04
-48.99
-47.76
-42.82
-34.51
-23.98
-12.75
-2.25
6.67
13.76
19.28
23.63
27.14
29.90
31.89
33.09
33.58
33.58
33.33
32.97
32.53
31.95
31.22
30.40
29.66
29.07
28.63
28.13
27.28
25.86
23.81
21.31
18.65
16.13
13.89
11.96
10.21
8.51
6.76
4.93
3.05
1.14
-0.85
-3.04
-5.50
-8.23
-11.05
-13.67
-15.84
-17.54
-19.03
-20.77
-23.22
-26.63
-30.92
-35.72
-40.48
-44.55
-47.25
-47.94
-46.08
-41.40
-34.12
-24.96
-15.05
-5.63
2.31
8.34
12.57
15.52
17.79
19.81
21.67
23.22
24.20
24.46
24.01
23.05
21.86
20.69
19.67
18.82
18.04
17.26
16.41
15.40
14.20
12.71
10.88
8.71
6.33
3.95
1.79
0.04
-1.37
-2.62
-4.09
-6.10
-8.80
-12.07
-15.63
-19.10
-22.20
-24.82
-27.05
-29.09
-31.24
-33.76
-36.76
-40.15
-43.46
-45.88
-46.41
-44.20
-38.94
-31.00
-21.43
-11.59
-2.68
4.64
10.29
14.70
18.42
21.85
25.06
27.83
29.88
31.05
31.39
31.13
30.48
29.58
28.42
26.99
25.34
23.68
22.31
21.45
21.07
20.83
20.25
18.89
16.56
13.45
10.02
6.80
4.12
2.04
0.36
-1.24
-3.04
-5.20
-7.72
-10.54
-13.55
-16.61
-19.57
-22.29
-24.71
-26.96
-29.35
-32.25
-35.98
-40.43
-45.05
-48.80
-50.53
-49.34
-44.87
-37.51
-28.22
-18.28
-8.89
-0.85
5.54
10.44
14.24
17.37
20.14
22.70
25.03
27.02
28.57
29.66
30.35
30.66
30.61
30.08
28.99
27.37
25.46
23.63
22.27
21.62
21.52
21.54
21.10
19.76
17.38
14.21
10.78
7.64
5.17
3.47
2.28
1.17
-0.38
-2.75
-6.00
-9.90
-14.03
-17.87
-21.10
-23.66
-25.75
-27.76
-30.08
-32.94
-36.40
-40.31
-44.26
-47.67
-49.72
-49.57
-46.55
-40.46
-31.70
-21.30
-10.65
-1.07
6.61
12.26
16.42
19.94
23.52
27.40
31.28
34.58
36.74
37.57
37.33
36.53
35.60
34.74
33.80
32.54
30.81
28.76
26.76
25.21
24.28
23.77
23.15
21.87
19.59
16.43
12.87
9.51
6.78
4.73
3.01
1.09
-1.46
-4.73
-8.46
-12.15
-15.41
-18.09
-20.37
-22.57
-24.96
-27.59
-30.25
-32.73
-34.99
-37.32
-40.15
-43.68
-47.61
-51.01
-52.58
-51.12
-46.12
-37.93
-27.78
-17.27
-7.84
-0.32
5.20
9.15
12.25
15.05
17.79
20.36
22.46
23.92
24.72
25.11
25.33
25.52
25.58
25.38
24.82
23.98
23.10
22.40
21.96
21.53
20.71
19.11
16.62
13.46
10.04
6.79
3.84
1.15
-1.56
-4.46
-7.61
-10.85
-13.90
-16.46
-18.38
-19.72
-20.76
-21.89
-23.57
-26.15
-29.76
-34.17
-38.67
-42.19
-43.51
-41.73
-36.58
-28.53
-18.73
-8.62
0.54
7.96
13.51
17.62
20.93
24.03
27.15
30.17
32.74
34.50
35.29
35.21
34.54
33.64
32.73
31.85
30.93
29.89
28.71
27.45
26.16
24.84
23.40
21.73
19.72
17.32
14.67
12.01
9.58
7.59
6.02
4.60
2.93
0.63
-2.48
-6.21
-10.15
-13.85
-16.97
-19.50
-21.75
-24.21
-27.32
-31.38
-36.37
-41.90
-47.19
-51.21
-52.85
-51.35
-46.49
-38.73
-29.11
-18.82
-9.00
-0.39
6.78
12.54
17.18
20.91
23.93
26.38
28.35
29.85
30.84
31.22
30.94
30.00
28.48
26.48
24.09
21.35
18.30
15.04
11.75
8.61
5.64
2.67
-0.69
-4.88
-10.12
-16.28
-22.90
-29.30
-34.94
-39.61
-43.43
-46.81
-50.15
-53.69
-57.45
-61.25
-64.86
-68.09
-70.87
-73.26
-75.44
-77.56
-79.71
-81.80
-83.49
-84.15
-82.99
-79.16
-72.08
-61.65
-48.40
-33.41
-18.01
-3.41
9.72
21.24
31.45
40.78
49.43
57.38
64.39
70.19
74.58
77.42
78.59
78.04
75.83
72.24
67.78
63.05
58.53
54.42
50.63
46.87
42.88
38.49
33.72
28.66
23.51
18.45
13.69
9.36
5.50
2.01
-1.36
-4.87
-8.69
-12.78
-16.96
-21.01
-24.86
-28.61
-32.52
-36.92
-42.01
-47.80
-53.92
-59.65
-63.95
-65.73
-64.10
-58.75
-50.09
-39.18
-27.38
-15.95
-5.71
3.13
10.77
17.55
23.64
28.97
33.28
36.23
37.73
37.87
36.89
35.04
32.39
28.85
24.24
18.49
11.76
4.52
-2.66
-9.25
-15.09
-20.43
-25.77
-31.66
-38.39
-45.86
-53.57
-60.91
-67.33
-72.64
-76.96
-80.72
-84.43
-88.34
-92.07
-94.36
-93.11
-85.93
-70.93
-47.75
-18.08
14.51
45.44
70.51
87.02
94.39
93.96
88.25
80.05
71.74
64.83
60.01
57.16
55.48
53.81
50.79
45.31
36.88
25.99
14.14
3.41
-4.22
-7.78
-7.72
-5.88
-4.64
-6.03
-10.70
-17.80
-25.29
-30.95
-33.23
-31.75
-27.19
-20.84
-14.00
-7.58
-2.11
2.16
5.08
6.62
6.94
6.36
5.39
4.37
3.35
2.06
0.04
-2.97
-6.91
-11.38
-15.83
-19.83
-23.29
-26.43
-29.72
-33.67
-38.58
-44.37
-50.42
-55.61
-58.44
-57.50
-51.96
-41.87
-28.32
-13.04
2.12
15.76
27.18
36.39
43.69
49.38
53.53
56.10
57.06
56.67
55.48
54.08
52.93
52.17
51.58
50.88
49.94
49.04
48.72
49.56
51.82
55.13
58.63
61.30
62.35
61.57
59.32
56.29
53.03
49.73
46.19
42.02
36.95
30.98
24.36
17.40
10.37
3.44
-3.28
-9.67
-15.63
-21.19
-26.65
-32.47
-39.12
-46.72
-54.76
-62.12
-67.26
-68.80
-66.02
-59.14
-49.23
-37.85
-26.46
-16.05
-7.02
0.59
6.88
11.83
15.34
17.42
18.44
19.16
20.58
23.51
28.28
34.47
41.15
47.17
51.65
54.22
54.99
54.31
52.46
49.53
45.52
40.61
35.25
30.14
25.91
22.81
20.53
18.33
15.40
11.29
6.07
0.32
-5.19
-9.85
-13.51
-16.49
-19.46
-23.13
-28.02
-34.20
-41.27
-48.39
-54.39
-58.06
-58.40
-54.90
-47.73
-37.70
-26.05
-14.13
-2.98
6.87
15.41
22.96
29.84
36.16
41.82
46.58
50.32
53.11
55.25
57.08
58.89
60.73
62.43
63.74
64.39
64.21
63.13
61.12
58.21
54.45
49.99
45.06
40.04
35.27
31.02
27.34
24.02
20.62
16.77
12.25
7.11
1.59
-4.03
-9.60
-15.16
-20.92
-27.11
-33.90
-41.27
-48.88
-56.05
-61.77
-64.82
-64.12
-59.10
-50.04
-38.03
-24.63
-11.35
0.83
11.62
21.23
30.02
38.09
45.32
51.37
56.05
59.36
61.49
62.68
63.02
62.51
61.10
58.85
55.97
52.79
49.61
46.63
43.83
40.92
37.36
32.47
25.68
16.65
5.55
-6.98
-20.00
-32.55
-43.96
-53.86
-61.96
-67.77
-70.54
-69.39
-63.77
-53.98
-41.36
-28.10
-16.71
-9.38
-7.34
-10.68
-18.38
-28.53
-38.84
-47.07
-51.55
-51.47
-46.99
-39.04
-29.00
-18.27
-7.97
1.24
9.12
15.76
21.37
26.13
30.06
32.98
34.64
34.83
33.61
31.37
28.68
26.14
24.18
22.98
22.56
22.87
23.79
25.08
26.30
26.85
26.17
23.97
20.39
15.95
11.35
7.09
3.32
-0.21
-3.91
-8.18
-13.12
-18.60
-24.29
-29.81
-34.85
-39.20
-42.79
-45.74
-48.34
-51.08
-54.45
-58.72
-63.58
-68.08
-70.76
-70.17
-65.43
-56.63
-44.88
-31.82
-19.07
-7.60
2.33
11.04
18.96
26.27
32.83
38.31
42.49
45.35
47.13
48.03
48.18
47.54
46.02
43.73
41.01
38.40
36.39
35.21
34.66
34.18
33.09
30.85
27.36
22.98
18.35
14.05
10.31
6.88
3.22
-1.19
-6.55
-12.55
-18.60
-24.07
-28.67
-32.53
-36.09
-39.94
-44.52
-49.97
-56.13
-62.56
-68.61
-73.47
-76.25
-76.12
-72.53
-65.37
-55.08
-42.61
-29.17
-15.90
-3.55
7.63
17.82
27.25
36.00
43.84
50.30
54.96
57.72
58.82
58.82
58.22
57.35
56.24
54.82
53.04
51.02
48.98
47.15
45.55
43.97
42.06
39.49
36.07
31.89
27.28
22.61
18.16
13.96
9.78
5.27
0.16
-5.59
-11.67
-17.60
-22.93
-27.41
-31.12
-34.45
-37.95
-42.14
-47.44
-53.94
-61.33
-68.74
-74.86
-78.21
-77.65
-72.70
-63.84
-52.28
-39.53
-26.88
-15.04
-4.19
5.78
14.97
23.30
30.53
36.41
40.94
44.30
46.79
48.62
49.78
50.13
49.54
48.09
46.10
44.07
42.38
41.12
40.04
38.68
36.66
33.86
30.47
26.86
23.38
20.16
17.12
14.14
11.14
8.14
5.20
2.38
-0.38
-3.15
-6.06
-9.14
-12.41
-15.91
-19.67
-23.75
-28.12
-32.64
-37.05
-41.14
-44.84
-48.30
-51.84
-55.81
-60.42
-65.61
-70.85
-75.18
-77.43
-76.40
-71.41
-62.55
-50.72
-37.45
-24.32
-12.47
-2.31
6.35
14.03
21.11
27.69
33.58
38.53
42.39
45.21
47.14
48.27
48.64
48.21
47.04
45.29
43.32
41.48
40.13
39.37
39.06
38.86
38.26
36.86
34.47
31.24
27.54
23.90
20.74
18.19
16.04
13.87
11.28
8.06
4.24
0.15
-3.88
-7.65
-11.23
-14.92
-19.05
-23.75
-28.83
-33.80
-38.14
-41.53
-43.98
-45.91
-47.85
-50.34
-53.66
-57.83
-62.63
-67.61
-72.06
-75.03
-75.50
-72.60
-66.03
-56.24
-44.31
-31.70
-19.66
-8.96
0.33
8.52
16.07
23.21
29.89
35.77
40.47
43.77
45.68
46.48
46.58
46.35
46.00
45.53
44.84
43.82
42.52
41.05
39.62
38.33
37.16
35.87
34.18
31.86
28.90
25.58
22.33
19.55
17.43
15.78
14.14
12.04
9.20
5.70
1.95
-1.63
-4.82
-7.72
-10.75
-14.26
-18.34
-22.72
-26.90
-30.42
-33.13
-35.28
-37.37
-39.96
-43.43
-47.96
-53.49
-59.74
-66.16
-71.94
-75.96
-77.03
-74.22
-67.23
-56.57
-43.51
-29.67
-16.56
-5.18
4.18
11.88
18.49
24.56
30.27
35.43
39.69
42.67
44.26
44.61
44.10
43.09
41.87
40.62
39.44
38.44
37.69
37.18
36.74
36.13
35.09
33.45
31.20
28.41
25.20
21.67
17.96
14.20
10.56
7.20
4.19
1.53
-0.90
-3.26
-5.77
-8.66
-12.14
-16.30
-21.13
-26.45
-31.98
-37.52
-42.88
-47.94
-52.63
-56.89
-60.80
-64.55
-68.35
-72.24
-75.82
-78.21
-78.23
-74.87
-67.73
-57.36
-45.01
-32.27
-20.50
-10.45
-2.11
4.98
11.43
17.62
23.45
28.47
32.12
34.10
34.52
33.92
32.94
32.07
31.39
30.68
29.62
28.04
26.01
23.72
21.34
18.90
16.42
14.03
12.12
11.20
11.71
13.69
16.78
20.17
23.04
24.70
24.89
23.67
21.31
18.12
14.29
9.94
5.16
0.07
-5.13
-10.23
-15.14
-19.91
-24.76
-29.96
-35.70
-42.05
-48.98
-56.29
-63.61
-70.25
-75.18
-77.22
-75.44
-69.47
-59.85
-47.83
-34.94
-22.54
-11.39
-1.64
7.02
15.00
22.55
29.68
36.22
41.91
46.47
49.73
51.67
52.38
52.08
51.03
49.51
47.79
46.10
44.64
43.49
42.58
41.67
40.46
38.70
36.31
33.48
30.48
27.59
24.91
22.32
19.58
16.43
12.79
8.72
4.44
0.19
-3.88
-7.76
-11.63
-15.64
-19.93
-24.49
-29.17
-33.70
-37.83
-41.49
-44.83
-48.25
-52.19
-57.02
-62.75
-68.93
-74.70
-78.96
-80.60
-78.79
-73.27
-64.38
-53.02
-40.41
-27.73
-15.77
-4.91
4.95
14.11
22.78
30.90
38.13
44.04
48.36
51.08
52.52
53.14
53.36
53.40
53.24
52.72
51.71
50.24
48.50
46.71
45.03
43.40
41.62
39.48
36.96
34.20
31.52
29.10
26.91
24.63
21.81
18.16
13.78
9.07
4.62
0.81
-2.42
-5.52
-9.11
-13.68
-19.26
-25.38
-31.32
-36.36
-40.10
-42.64
-44.45
-46.28
-48.86
-52.79
-58.29
-65.18
-72.74
-79.74
-84.69
-86.15
-83.25
-75.99
-65.28
-52.63
-39.61
-27.41
-16.58
-7.13
1.20
8.64
15.12
20.34
23.87
25.44
25.12
23.47
21.56
20.67
21.97
25.98
32.43
40.23
47.95
54.24
58.38
60.21
60.05
58.37
55.50
51.68
47.10
42.08
37.07
32.47
28.51
25.08
21.82
18.27
14.05
8.97
3.05
-3.48
-10.20
-16.59
-22.20
-26.79
-30.44
-33.50
-36.55
-40.10
-44.48
-49.73
-55.64
-61.81
-67.60
-72.14
-74.41
-73.44
-68.67
-60.24
-49.07
-36.54
-24.03
-12.44
-2.00
7.55
16.67
25.57
34.09
41.75
48.03
52.64
55.60
57.22
57.87
57.87
57.40
56.49
55.19
53.66
52.20
51.05
50.34
49.91
49.36
48.23
46.18
43.18
39.49
35.55
31.74
28.21
24.85
21.38
17.56
13.33
8.86
4.43
0.34
-3.33
-6.77
-10.37
-14.55
-19.50
-25.03
-30.62
-35.68
-39.81
-43.08
-45.99
-49.21
-53.30
-58.45
-64.52
-71.10
-77.68
-83.55
-87.90
-89.71
-88.07
-82.55
-73.52
-62.17
-50.16
-38.91
-29.09
-20.39
-11.84
-2.38
8.50
20.50
32.61
43.58
52.39
58.60
62.41
64.43
65.35
65.64
65.49
64.89
63.78
62.23
60.46
58.69
57.02
55.31
53.21
50.38
46.66
42.22
37.52
33.16
29.61
27.06
25.31
23.89
22.24
19.97
16.98
13.45
9.70
6.00
2.50
-0.79
-4.03
-7.39
-11.01
-15.01
-19.40
-24.06
-28.75
-33.18
-37.10
-40.44
-43.42
-46.45
-50.06
-54.65
-60.33
-66.77
-73.19
-78.46
-81.27
-80.52
-75.57
-66.58
-54.48
-40.78
-27.14
-14.80
-4.34
4.40
12.05
19.19
26.08
32.45
37.77
41.54
43.62
44.24
43.89
43.00
41.87
40.57
39.10
37.60
36.31
35.44
35.04
34.85
34.48
33.60
32.08
30.03
27.73
25.34
22.88
20.22
17.19
13.70
9.85
5.79
1.68
-2.37
-6.32
-10.18
-13.92
-17.48
-20.83
-24.01
-27.18
-30.49
-34.06
-37.95
-42.09
-46.43
-50.99
-55.87
-61.11
-66.47
-71.31
-74.63
-75.35
-72.66
-66.39
-57.13
-46.01
-34.29
-22.97
-12.60
-3.23
5.35
13.42
21.12
28.33
34.80
40.17
44.17
46.76
48.12
48.68
48.88
49.08
49.43
49.85
50.15
50.14
49.63
48.45
46.36
43.20
38.96
33.93
28.65
23.74
19.67
16.59
14.31
12.45
10.60
8.51
6.06
3.19
-0.08
-3.65
-7.33
-10.92
-14.35
-17.89
-22.10
-27.63
-34.91
-43.70
-53.08
-61.54
-67.45
-69.54
-67.31
-61.09
-51.89
-41.06
-29.88
-19.32
-9.94
-1.88
4.97
10.82
15.82
19.94
22.99
24.70
24.75
23.00
19.50
14.60
8.92
3.29
-1.48
-4.80
-6.48
-6.77
-6.21
-5.39
-4.62
-3.79
-2.47
-0.07
3.71
8.76
14.41
19.64
23.34
24.66
23.19
19.07
12.98
5.90
-1.07
-7.08
-11.73
-15.21
-18.19
-21.56
-26.02
-31.70
-37.98
-43.55
-46.88
-46.69
-42.54
-34.91
-25.06
-14.49
-4.40
4.61
12.59
19.87
26.73
33.19
38.98
43.81
47.51
50.18
52.03
53.24
53.90
53.98
53.54
52.71
51.76
51.00
50.62
50.65
50.94
51.26
51.28
50.73
49.28
46.73
43.03
38.33
32.95
27.21
21.31
15.19
8.62
1.44
-6.30
-14.27
-21.99
-28.95
-34.88
-39.78
-43.90
-47.72
-51.68
-56.09
-60.94
-65.77
-69.68
-71.58
-70.50
-66.00
-58.37
-48.59
-37.95
-27.63
-18.40
-10.49
-3.66
2.56
8.65
14.91
21.44
27.98
34.09
39.18
42.75
44.54
44.58
43.10
40.47
37.01
33.03
28.83
24.75
21.08
18.03
15.56
13.39
11.13
8.44
5.24
1.68
-1.93
-5.34
-8.47
-11.45
-14.50
-17.76
-21.15
-24.42
-27.21
-29.26
-30.58
-31.35
-31.90
-32.52
-33.41
-34.71
-36.53
-39.05
-42.42
-46.60
-51.20
-55.36
-57.97
-57.88
-54.40
-47.51
-37.91
-26.75
-15.19
-4.11
6.11
15.43
23.97
31.68
38.36
43.66
47.35
49.38
50.02
49.71
48.92
48.00
47.07
46.07
44.81
43.15
41.07
38.71
36.35
34.25
32.58
31.30
30.18
28.87
26.97
24.25
20.66
16.50
12.18
8.19
4.83
2.10
-0.37
-3.13
-6.67
-11.20
-16.43
-21.83
-26.71
-30.68
-33.67
-35.97
-38.13
-40.68
-43.99
-48.05
-52.57
-56.84
-59.90
-60.77
-58.70
-53.41
-45.20
-34.96
-23.85
-13.03
-3.38
4.72
11.30
16.69
21.31
25.46
29.23
32.50
35.09
36.80
37.57
37.49
36.75
35.59
34.25
32.96
31.92
31.24
30.88
30.61
30.07
28.91
26.95
24.28
21.23
18.21
15.54
13.32
11.43
9.62
7.70
5.59
3.33
0.96
-1.56
-4.35
-7.50
-11.00
-14.63
-18.06
-20.99
-23.37
-25.41
-27.54
-30.17
-33.53
-37.56
-42.02
-46.60
-50.98
-54.77
-57.31
-57.77
-55.31
-49.52
-40.72
-30.07
-19.15
-9.36
-1.40
4.93
10.42
15.84
21.48
26.95
31.46
34.31
35.26
34.61
33.01
31.13
29.41
28.01
26.88
25.87
24.91
23.92
22.87
21.68
20.25
18.53
16.48
14.11
11.46
8.68
5.91
3.34
1.10
-0.82
-2.58
-4.48
-6.84
-9.96
-13.92
-18.67
-23.88
-29.18
-34.16
-38.58
-42.42
-45.91
-49.41
-53.36
-58.06
-63.58
-69.71
-75.87
-81.20
-84.65
-85.25
-82.39
-76.08
-67.02
-56.43
-45.70
-35.92
-27.71
-21.09
-15.68
-11.00
-6.65
-2.45
1.71
5.98
10.63
15.98
22.16
29.06
36.22
43.03
49.03
54.04
58.19
61.80
65.11
68.02
70.13
70.86
69.76
66.84
62.55
57.70
53.05
49.05
45.55
41.95
37.44
31.47
23.98
15.49
6.87
-0.99
-7.48
-12.53
-16.42
-19.71
-22.86
-26.14
-29.49
-32.59
-34.95
-36.13
-35.76
-33.71
-30.05
-25.07
-19.26
-13.24
-7.60
-2.73
1.28
4.63
7.68
10.66
13.57
16.09
17.75
18.18
17.29
15.28
12.51
9.29
5.76
1.87
-2.45
-7.14
-11.87
-16.07
-18.96
-19.87
-18.37
-14.55
-8.96
-2.53
3.68
8.81
12.34
14.15
14.37
13.21
10.81
7.30
2.85
-2.18
-7.25
-11.84
-15.57
-18.43
-20.74
-23.09
-26.10
-30.16
-35.30
-41.10
-46.78
-51.39
-53.95
-53.79
-50.66
-44.79
-36.88
-27.82
-18.55
-9.78
-1.89
5.07
11.25
16.77
21.66
25.81
29.13
31.61
33.41
34.74
35.76
36.44
36.59
35.98
34.46
32.14
29.29
26.30
23.49
21.06
19.02
17.21
15.33
12.99
9.78
5.41
-0.17
-6.62
-13.26
-19.21
-23.67
-26.17
-26.77
-25.92
-24.21
-22.14
-19.96
-17.76
-15.63
-13.85
-12.89
-13.31
-15.45
-19.33
-24.55
-30.37
-35.80
-39.79
-41.37
-39.87
-35.22
-27.94
-19.14
-10.13
-1.99
4.76
10.21
14.88
19.27
23.53
27.39
30.39
32.22
32.99
33.14
33.21
33.54
34.03
34.35
34.09
33.10
31.55
29.79
28.13
26.70
25.42
24.14
22.74
21.16
19.32
17.06
14.23
10.80
6.87
2.75
-1.23
-4.86
-8.10
-11.18
-14.37
-17.98
-22.25
-27.27
-33.01
-39.21
-45.46
-51.14
-55.63
-58.45
-59.43
-58.71
-56.71
-53.84
-50.39
-46.34
-41.46
-35.50
-28.36
-20.24
-11.68
-3.33
4.24
10.80
16.44
21.48
26.28
30.99
35.44
39.20
41.83
43.05
42.94
41.96
40.71
39.72
39.25
39.19
39.16
38.76
37.74
36.10
34.07
31.96
30.01
28.23
26.44
24.32
21.69
18.57
15.16
11.85
8.96
6.65
4.80
3.07
1.11
-1.33
-4.30
-7.61
-10.94
-14.03
-16.77
-19.25
-21.71
-24.44
-27.70
-31.63
-36.22
-41.27
-46.36
-50.87
-53.97
-54.89
-53.06
-48.42
-41.41
-32.84
-23.66
-14.61
-6.05
1.99
9.62
16.91
23.64
29.42
33.80
36.50
37.61
37.51
36.78
35.96
35.33
34.91
34.46
33.75
32.61
31.08
29.34
27.58
25.91
24.24
22.35
19.94
16.80
12.96
8.72
4.48
0.72
-2.33
-4.76
-6.92
-9.27
-12.13
-15.53
-19.19
-22.71
-25.75
-28.15
-30.07
-31.84
-33.82
-36.30
-39.47
-43.33
-47.71
-52.23
-56.20
-58.71
-58.82
-55.77
-49.41
-40.25
-29.41
-18.25
-7.93
0.94
8.30
14.51
19.97
24.87
29.12
32.48
34.78
36.03
36.50
36.55
36.51
36.54
36.63
36.66
36.52
36.17
35.66
35.16
34.76
34.42
33.96
33.09
31.53
29.13
26.01
22.43
18.80
15.47
12.64
10.31
8.29
6.24
3.85
0.90
-2.64
-6.56
-10.59
-14.47
-18.08
-21.49
-24.79
-28.03
-31.18
-34.24
-37.35
-40.84
-45.06
-50.03
-55.21
-59.47
-61.41
-59.90
-54.60
-46.11
-35.71
-24.84
-14.57
-5.37
2.80
10.14
16.79
22.66
27.53
31.29
33.96
35.81
37.10
38.00
38.49
38.46
37.81
36.61
35.15
33.82
33.00
32.80
33.07
33.35
33.10
31.88
29.58
26.47
22.96
19.58
16.62
14.14
11.94
9.78
7.45
4.95
2.39
-0.09
-2.45
-4.79
-7.31
-10.19
-13.49
-17.10
-20.80
-24.37
-27.66
-30.65
-33.40
-36.10
-39.03
-42.49
-46.66
-51.41
-56.18
-59.97
-61.58
-60.04
-54.92
-46.61
-36.17
-25.01
-14.42
-5.17
2.56
9.11
15.00
20.62
26.03
31.00
35.11
38.02
39.68
40.28
40.21
39.80
39.27
38.69
38.10
37.56
37.12
36.78
36.40
35.70
34.39
32.30
29.50
26.29
22.98
19.81
16.84
14.02
11.27
8.60
6.05
3.68
1.51
-0.51
-2.45
-4.46
-6.71
-9.32
-12.36
-15.77
-19.32
-22.73
-25.74
-28.26
-30.42
-32.51
-34.90
-37.88
-41.58
-45.85
-50.22
-53.93
-56.04
-55.64
-52.21
-45.79
-37.09
-27.21
-17.33
-8.34
-0.63
5.91
11.62
16.87
21.77
26.22
29.96
32.80
34.68
35.75
36.25
36.36
36.17
35.68
34.94
34.03
33.13
32.43
31.98
31.62
31.08
30.04
28.34
25.99
23.17
20.13
17.14
14.35
11.86
9.69
7.83
6.16
4.56
2.80
0.72
-1.76
-4.65
-7.81
-11.11
-14.39
-17.55
-20.51
-23.22
-25.67
-27.90
-30.10
-32.56
-35.59
-39.33
-43.55
-47.55
-50.32
-50.81
-48.33
-42.88
-35.11
-26.17
-17.25
-9.22
-2.38
3.45
8.67
13.55
18.08
21.98
24.90
26.67
27.42
27.46
27.16
26.70
26.04
25.05
23.67
22.01
20.37
19.11
18.42
18.22
18.20
17.92
17.04
15.38
13.00
10.15
7.17
4.31
1.65
-0.94
-3.72
-6.95
-10.80
-15.22
-20.00
-24.79
-29.19
-32.89
-35.67
-37.60
-38.95
-40.27
-42.15
-45.06
-49.10
-53.87
-58.51
-61.90
-63.00
-61.10
-56.06
-48.36
-38.94
-28.94
-19.32
-10.67
-3.14
3.52
9.64
15.41
20.80
25.55
29.33
31.96
33.42
33.90
33.71
33.23
32.74
32.48
32.47
32.61
32.67
32.34
31.46
29.94
27.88
25.41
22.70
19.82
16.85
13.88
11.04
8.48
6.20
3.96
1.36
-1.97
-6.14
-10.85
-15.50
-19.46
-22.43
-24.61
-26.58
-29.08
-32.61
-37.29
-42.77
-48.36
-53.22
-56.50
-57.50
-55.82
-51.40
-44.64
-36.28
-27.21
-18.23
-9.88
-2.30
4.61
11.01
17.04
22.61
27.55
31.70
34.97
37.36
38.92
39.70
39.72
39.13
38.12
36.98
35.95
35.15
34.52
33.85
32.95
31.68
30.02
28.01
25.66
23.00
20.06
17.01
14.08
11.50
9.42
7.76
6.23
4.40
1.88
-1.57
-5.89
-10.73
-15.57
-19.91
-23.52
-26.52
-29.28
-32.25
-35.70
-39.63
-43.84
-48.07
-52.08
-55.57
-58.06
-58.87
-57.25
-52.72
-45.38
-36.02
-25.84
-16.03
-7.34
0.20
7.01
13.59
20.13
26.37
31.70
35.55
37.70
38.37
38.18
37.77
37.58
37.69
37.96
38.14
38.12
37.93
37.65
37.28
36.66
35.58
33.85
31.50
28.69
25.70
22.78
20.09
17.69
15.52
13.50
11.47
9.25
6.71
3.79
0.54
-2.86
-6.26
-9.53
-12.64
-15.63
-18.52
-21.29
-23.90
-26.41
-28.99
-31.90
-35.44
-39.71
-44.59
-49.57
-53.87
-56.53
-56.71
-53.96
-48.34
-40.45
-31.22
-21.61
-12.38
-3.91
3.76
10.71
17.05
22.71
27.50
31.18
33.63
34.90
35.22
34.95
34.42
33.88
33.43
33.08
32.80
32.54
32.28
31.91
31.33
30.39
29.03
27.23
25.07
22.59
19.81
16.73
13.42
10.11
7.09
4.58
2.62
0.92
-0.99
-3.58
-7.08
-11.34
-15.90
-20.22
-23.87
-26.76
-29.14
-31.46
-34.27
-38.01
-42.86
-48.64
-54.72
-60.09
-63.50
-63.89
-60.57
-53.68
-44.04
-32.93
-21.67
-11.24
-2.08
5.82
12.68
18.75
24.09
28.63
32.30
35.01
36.78
37.71
38.01
37.86
37.49
37.02
36.54
36.04
35.50
34.87
34.10
33.16
31.98
30.53
28.75
26.57
23.98
21.03
17.81
14.44
11.01
7.51
3.91
0.12
-3.88
-8.03
-12.26
-16.40
-20.32
-23.94
-27.28
-30.50
-33.89
-37.86
-42.75
-48.67
-55.19
-61.39
-65.92
-67.53
-65.40
-59.53
-50.71
-40.19
-29.31
-19.01
-9.71
-1.37
6.32
13.62
20.59
27.07
32.77
37.44
40.93
43.28
44.66
45.27
45.25
44.72
43.76
42.52
41.18
39.92
38.86
37.89
36.75
35.15
32.85
29.83
26.31
22.65
19.18
16.13
13.50
11.13
8.77
6.16
3.11
-0.49
-4.60
-9.12
-13.83
-18.48
-22.83
-26.72
-30.17
-33.32
-36.54
-40.20
-44.60
-49.78
-55.36
-60.49
-64.02
-64.83
-62.12
-55.82
-46.56
-35.48
-23.90
-12.84
-2.83
6.15
14.36
22.04
29.16
35.44
40.48
43.96
45.80
46.22
45.63
44.54
43.38
42.48
41.97
41.80
41.82
41.82
41.61
41.09
40.17
38.76
36.75
34.07
30.76
26.99
23.10
19.44
16.26
13.59
11.25
8.86
6.05
2.59
-1.54
-6.14
-10.87
-15.42
-19.59
-23.35
-26.84
-30.27
-33.91
-37.97
-42.59
-47.81
-53.39
-58.74
-62.88
-64.73
-63.38
-58.54
-50.60
-40.60
-29.82
-19.35
-9.78
-1.17
6.71
14.11
21.02
27.18
32.26
36.00
38.37
39.55
39.85
39.63
39.16
38.68
38.31
38.03
37.75
37.33
36.65
35.67
34.38
32.78
30.81
28.39
25.47
22.15
18.64
15.21
12.07
9.28
6.70
4.12
1.28
-1.94
-5.54
-9.42
-13.42
-17.37
-21.12
-24.56
-27.69
-30.69
-33.81
-37.33
-41.44
-46.17
-51.25
-56.12
-59.93
-61.73
-60.71
-56.44
-49.08
-39.33
-28.30
-17.06
-6.45
3.12
11.63
19.21
26.00
31.92
36.76
40.30
42.44
43.35
43.37
42.87
42.11
41.17
40.03
38.65
37.15
35.69
34.44
33.35
32.19
30.57
28.19
24.97
21.12
17.09
13.37
10.27
7.85
5.83
3.74
1.13
-2.29
-6.46
-11.11
-15.76
-20.04
-23.70
-26.76
-29.41
-31.99
-34.87
-38.40
-42.82
-48.09
-53.83
-59.24
-63.20
-64.55
-62.43
-56.64
-47.79
-37.08
-25.90
-15.44
-6.29
1.54
8.45
14.89
21.15
27.17
32.66
37.21
40.52
42.51
43.31
43.21
42.56
41.67
40.71
39.74
38.75
37.72
36.65
35.57
34.48
33.32
31.96
30.25
28.06
25.34
22.13
18.63
15.12
11.85
8.94
6.26
3.48
0.24
-3.69
-8.24
-13.00
-17.48
-21.24
-24.17
-26.47
-28.63
-31.23
-34.74
-39.38
-44.94
-50.86
-56.23
-59.99
-61.18
-59.14
-53.77
-45.59
-35.62
-25.08
-15.08
-6.25
1.29
7.88
13.94
19.71
25.08
29.69
33.15
35.30
36.30
36.53
36.40
36.16
35.86
35.44
34.79
33.97
33.06
32.19
31.41
30.62
29.64
28.29
26.50
24.35
22.02
19.69
17.46
15.23
12.80
10.03
6.90
3.61
0.40
-2.50
-5.14
-7.72
-10.53
-13.75
-17.34
-21.07
-24.61
-27.76
-30.40
-32.63
-34.60
-36.55
-38.75
-41.47
-44.85
-48.74
-52.56
-55.35
-56.00
-53.68
-48.15
-39.90
-29.94
-19.53
-9.70
-1.05
6.28
12.47
17.80
22.46
26.47
29.71
32.03
33.37
33.85
33.78
33.50
33.28
33.16
32.96
32.46
31.50
30.19
28.79
27.59
26.67
25.90
24.93
23.40
21.16
18.30
15.11
11.94
9.01
6.41
4.04
1.73
-0.64
-3.13
-5.68
-8.22
-10.70
-13.18
-15.74
-18.48
-21.37
-24.29
-27.00
-29.41
-31.53
-33.63
-36.10
-39.24
-43.14
-47.56
-51.80
-54.92
-55.93
-54.04
-49.04
-41.39
-32.08
-22.37
-13.29
-5.40
1.31
7.16
12.47
17.31
21.46
24.55
26.34
26.88
26.51
25.73
24.97
24.46
24.23
24.13
23.98
23.64
23.10
22.47
21.86
21.34
20.79
19.95
18.49
16.25
13.30
10.03
6.92
4.33
2.32
0.62
-1.16
-3.39
-6.25
-9.65
-13.36
-17.11
-20.67
-23.85
-26.51
-28.59
-30.26
-31.86
-33.90
-36.88
-41.01
-46.14
-51.57
-56.31
-59.26
-59.49
-56.55
-50.60
-42.40
-33.02
-23.60
-14.93
-7.36
-0.82
5.04
10.53
15.85
20.94
25.60
29.55
32.59
34.59
35.61
35.82
35.48
34.84
34.10
33.37
32.71
32.13
31.56
30.93
30.10
28.90
27.25
25.14
22.60
19.74
16.66
13.50
10.42
7.58
5.08
2.90
0.90
-1.22
-3.74
-6.89
-10.67
-14.91
-19.33
-23.60
-27.49
-30.92
-34.03
-37.06
-40.34
-44.13
-48.47
-53.10
-57.41
-60.55
-61.58
-59.78
-54.88
-47.21
-37.63
-27.28
-17.23
-8.17
-0.34
6.49
12.71
18.63
24.32
29.52
33.81
36.84
38.45
38.80
38.26
37.32
36.35
35.56
34.97
34.48
33.98
33.41
32.74
31.96
30.96
29.64
27.90
25.69
23.05
20.07
16.92
13.77
10.76
7.96
5.35
2.83
0.27
-2.50
-5.55
-8.88
-12.34
-15.80
-19.15
-22.34
-25.37
-28.25
-31.01
-33.70
-36.46
-39.52
-43.17
-47.66
-52.97
-58.65
-63.83
-67.36
-68.22
-65.91
-60.69
-53.58
-45.96
-39.06
-33.56
-29.37
-25.76
-21.92
-17.37
-12.27
-7.41
-3.89
-2.72
-4.52
-9.39
-17.00
-26.74
-37.89
-49.71
-61.44
-72.28
-81.42
-88.16
-91.95
-92.52
-89.91
-84.40
-76.48
-66.78
-56.02
-45.00
-34.55
-25.43
-18.19
-13.05
-9.62
-7.06
-4.18
0.23
7.07
16.70
28.89
43.04
58.32
74.01
89.40
103.80
116.38
126.21
132.44
134.65
133.06
128.47
122.05
114.90
107.76
100.96
94.52
88.47
82.97
78.26
74.44
71.45
68.96
66.67
64.45
62.38
60.64
59.30
58.08
56.43
53.75
49.54
43.67
36.25
27.51
17.69
7.08
-3.96
-14.93
-25.26
-34.41
-42.11
-48.36
-53.41
-57.49
-60.66
-62.72
-63.39
-62.50
-60.23
-57.09
-53.75
-50.79
-48.54
-47.05
-46.21
-46.00
-46.50
-47.88
-50.27
-53.78
-58.53
-64.68
-72.30
-81.11
-90.08
-97.44
-101.00
-98.88
-90.32
-75.98
-57.67
-37.55
-17.41
1.68
19.22
34.87
48.10
58.31
65.08
68.49
69.22
68.32
66.83
65.56
64.94
65.11
66.00
67.43
68.96
69.93
69.51
66.99
62.11
55.35
47.87
41.23
36.87
35.59
37.23
40.78
44.74
47.70
48.77
47.78
45.18
41.68
37.88
33.97
29.74
24.71
18.33
10.19
0.14
-11.80
-25.44
-40.35
-55.82
-70.71
-83.56
-92.95
-97.80
-97.72
-93.09
-84.92
-74.60
-63.56
-52.98
-43.65
-35.76
-28.95
-22.50
-15.60
-7.77
0.95
10.00
18.56
25.94
31.73
35.88
38.51
39.74
39.71
38.58
36.66
34.44
32.53
31.35
31.02
31.26
31.47
31.10
29.92
28.19
26.60
25.89
26.48
28.25
30.50
32.23
32.46
30.57
26.50
20.67
13.79
6.53
-0.67
-7.82
-15.14
-22.90
-31.07
-39.10
-46.07
-51.09
-53.66
-54.01
-53.07
-52.03
-51.87
-52.91
-54.81
-56.70
-57.75
-57.37
-55.43
-52.10
-47.53
-41.80
-34.84
-26.64
-17.35
-7.32
3.05
13.54
24.22
35.35
47.11
59.41
71.81
83.76
94.97
105.53
115.87
126.43
137.39
148.49
159.14
168.68
176.64
183.01
188.28
193.19
198.48
204.57
211.28
217.84
223.19
226.28
226.56
224.11
219.57
213.74
207.28
200.44
192.98
184.26
173.51
160.32
145.13
129.67
117.02
110.90
114.55
129.36
154.05
184.78
216.24
243.22
262.02
271.13
271.00
263.32
250.07
233.05
213.71
193.19
172.52
152.57
133.92
116.69
100.40
84.14
66.89
47.89
26.94
4.49
-18.47
-40.86
-61.82
-81.07
-98.96
-116.31
-134.09
-153.09
-173.56
-195.23
-217.38
-239.27
-260.37
-280.67
-300.61
-320.95
-342.62
-366.51
-393.34
-423.36
-455.92
-489.10
-519.81
-544.43
-560.03
-565.41
-561.52
-551.06
-537.36
-523.07
-509.46
-496.33
-482.54
-466.65
-447.35
-423.60
-394.67
-360.25
-320.63
-277.00
-231.34
-186.05
-143.42
-105.03
-71.40
-41.92
-15.16
10.61
36.77
63.88
91.52
118.41
142.85
163.41
179.45
191.43
200.94
210.17
221.23
235.30
252.19
270.23
286.89
299.64
306.88
308.43
305.40
299.57
292.25
283.43
271.58
254.29
229.44
196.53
157.20
114.81
73.08
34.50
-0.99
-36.03
-74.59
-119.68
-170.95
-223.60
-269.28
-298.62
-304.59
-284.91
-242.69
-185.19
-121.48
-60.12
-7.64
31.94
57.06
68.32
68.25
60.87
50.81
42.16
37.48
37.32
40.55
45.17
48.98
50.14
47.42
40.29
29.03
14.70
-1.11
-16.72
-30.83
-42.93
-53.28
-62.71
-72.12
-82.05
-92.34
-102.09
-109.91
-114.34
-114.46
-110.29
-102.87
-93.80
-84.42
-75.03
-64.63
-51.30
-33.12
-9.11
20.17
52.65
85.32
114.97
138.91
155.46
164.08
165.38
160.83
152.39
141.99
131.21
121.07
112.01
104.17
97.52
91.84
86.77
81.79
76.47
70.78
65.26
60.89
58.76
59.50
62.83
67.43
71.38
72.70
70.15
63.65
54.18
43.35
32.56
22.54
13.16
3.69
-6.73
-18.68
-32.27
-47.33
-63.37
-79.60
-94.77
-107.30
-115.66
-119.16
-118.41
-115.31
-112.36
-111.45
-112.91
-115.22
-115.75
-112.11
-103.31
-90.21
-74.92
-59.80
-46.35
-34.89
-24.95
-16.01
-8.28
-2.84
-1.28
-4.75
-13.13
-24.70
-36.49
-45.33
-48.91
-46.55
-39.28
-29.24
-18.72
-9.34
-1.69
4.50
9.73
14.35
18.24
21.11
22.77
23.50
23.96
24.93
26.82
29.44
31.97
33.41
33.07
31.11
28.57
27.01
27.84
31.62
37.80
44.98
51.47
55.95
57.95
57.73
56.07
53.79
51.44
49.22
47.02
44.64
41.94
38.88
35.46
31.66
27.36
22.42
16.66
10.10
2.97
-4.26
-10.95
-16.56
-20.82
-23.78
-25.87
-27.68
-29.73
-32.34
-35.56
-39.07
-42.44
-45.23
-47.05
-47.67
-46.99
-45.04
-42.04
-38.46
-34.96
-32.38
-31.40
-32.26
-34.51
-36.89
-37.77
-35.60
-29.57
-19.79
-7.37
6.12
19.15
30.69
40.39
48.44
55.26
61.22
66.46
70.80
74.00
75.74
75.89
74.49
71.77
68.05
63.71
59.07
54.44
50.02
45.95
42.13
38.20
33.63
27.86
20.62
12.01
2.62
-6.74
-15.36
-22.89
-29.48
-35.52
-41.35
-47.01
-52.14
-56.19
-58.75
-59.74
-59.47
-58.51
-57.44
-56.68
-56.35
-56.26
-55.87
-54.44
-51.14
-45.34
-36.83
-26.05
-14.04
-2.13
8.49
17.18
23.91
29.14
33.47
37.35
40.88
43.85
45.98
47.08
47.18
46.52
45.44
44.23
43.05
41.86
40.42
38.38
35.31
30.91
25.14
18.27
10.83
3.49
-3.11
-8.64
-13.06
-16.62
-19.77
-22.87
-26.12
-29.53
-32.97
-36.24
-39.17
-41.68
-43.86
-46.00
-48.53
-51.92
-56.54
-62.38
-68.90
-74.88
-78.71
-78.73
-73.94
-64.35
-51.17
-36.40
-22.10
-9.71
0.39
8.79
16.56
24.54
33.02
41.56
49.34
55.60
59.94
62.41
63.37
63.28
62.54
61.47
60.29
59.23
58.50
58.21
58.21
58.08
57.26
55.15
51.45
46.16
39.56
32.15
24.31
16.25
7.87
-1.14
-11.13
-22.24
-34.28
-46.74
-58.93
-70.33
-80.68
-90.10
-98.92
-107.46
-115.77
-123.47
-129.75
-133.45
-133.28
-128.17
-117.56
-101.75
-81.95
-60.06
-38.20
-18.20
-1.15
12.63
23.48
32.01
38.73
43.98
47.84
50.36
51.66
51.99
51.71
51.18
50.70
50.36
50.16
49.95
49.64
49.16
48.50
47.71
46.87
46.09
45.38
44.70
43.78
42.24
39.62
35.53
29.82
22.55
13.92
4.15
-6.66
-18.42
-31.05
-44.37
-58.24
-72.62
-87.73
-103.93
-121.55
-140.60
-160.49
-180.01
-197.43
-210.84
-218.44
-219.08
-212.44
-199.37
-181.68
-161.87
-142.42
-125.28
-111.45
-100.98
-93.25
-87.35
-82.31
-77.16
-70.77
-61.89
-49.32
-32.29
-10.93
13.65
39.66
65.31
89.42
111.79
132.93
153.45
173.43
192.10
208.20
220.64
229.18
234.74
239.10
244.25
251.68
261.98
274.72
288.63
301.76
311.73
316.20
313.51
303.33
286.94
266.74
245.15
223.42
201.10
176.47
147.84
114.90
79.42
45.09
16.45
-2.41
-8.77
-1.82
17.47
46.76
82.88
122.34
161.87
198.83
231.33
258.26
279.10
293.72
302.33
305.47
303.93
298.55
290.01
278.73
264.95
248.94
231.31
213.06
195.53
179.97
167.07
156.62
147.58
138.43
127.89
115.43
101.57
87.42
74.11
61.92
50.00
36.58
19.84
-1.25
-26.33
-53.74
-81.39
-107.73
-132.52
-156.84
-182.48
-210.85
-242.26
-275.63
-309.03
-340.55
-369.09
-394.87
-419.21
-444.26
-472.43
-505.89
-545.65
-590.51
-636.12
-675.19
-699.05
-700.46
-676.28
-628.83
-565.02
-493.60
-422.06
-354.54
-291.67
-231.88
-173.26
-115.04
-57.96
-4.01
44.34
84.80
115.81
136.95
148.98
153.54
152.56
147.81
140.71
132.32
123.65
115.51
108.45
102.36
96.37
89.12
79.34
66.49
51.10
34.82
20.05
9.27
4.20
5.23
11.21
19.79
28.30
34.65
38.12
39.38
39.99
41.48
44.62
49.15
53.94
57.67
59.43
59.04
57.07
54.39
51.77
49.55
47.61
45.69
43.61
41.50
39.67
38.39
37.65
37.07
36.09
34.13
30.96
26.61
21.34
15.41
9.04
2.36
-4.51
-11.35
-17.94
-24.14
-29.94
-35.52
-41.15
-47.09
-53.51
-60.38
-67.30
-73.44
-77.48
-77.92
-73.56
-63.93
-49.74
-32.65
-14.90
1.54
15.40
26.35
34.71
40.95
45.37
47.92
48.46
47.05
44.09
40.31
36.50
33.28
30.90
29.39
28.67
28.72
29.54
31.02
32.78
34.20
34.65
33.63
31.12
27.47
23.27
19.19
15.61
12.63
10.06
7.46
4.34
0.35
-4.59
-10.32
-16.35
-22.11
-27.12
-31.12
-34.19
-36.71
-39.33
-42.76
-47.53
-53.59
-60.13
-65.50
-67.69
-64.98
-56.65
-43.37
-27.01
-10.03
5.40
18.02
27.63
34.89
40.75
46.01
51.01
55.67
59.58
62.33
63.60
63.33
61.67
58.97
55.52
51.53
47.16
42.57
38.08
34.16
31.23
29.43
28.48
27.68
26.35
24.07
20.96
17.60
14.57
12.04
9.62
6.47
1.75
-4.94
-13.29
-22.50
-31.48
-39.32
-45.50
-49.96
-52.99
-55.19
-57.19
-59.58
-62.71
-66.52
-70.42
-73.36
-74.06
-71.38
-64.70
-54.12
-40.54
-25.39
-10.33
3.18
14.23
22.65
28.90
33.76
38.03
42.09
45.82
48.78
50.48
50.71
49.69
47.94
46.00
44.25
42.73
41.31
39.81
38.19
36.57
35.12
33.84
32.54
30.80
28.16
24.39
19.57
14.15
8.78
4.03
0.12
-3.10
-6.13
-9.54
-13.69
-18.53
-23.62
-28.30
-32.00
-34.61
-36.55
-38.69
-41.97
-47.01
-53.88
-61.93
-69.96
-76.35
-79.47
-77.99
-71.17
-59.26
-43.43
-25.69
-8.27
6.99
19.14
28.24
35.06
40.52
45.21
49.25
52.42
54.46
55.37
55.43
55.08
54.65
54.22
53.62
52.65
51.17
49.27
47.13
44.94
42.78
40.54
37.98
34.85
31.05
26.63
21.84
17.06
12.67
8.86
5.61
2.61
-0.64
-4.58
-9.45
-15.15
-21.21
-26.95
-31.68
-34.94
-36.64
-36.99
-36.44
-35.39
-34.03
-32.21
-29.27
-24.11
-15.31
-1.51
18.17
43.70
73.95
106.87
139.99
171.01
198.33
221.27
239.88
254.56
265.74
273.60
278.18
279.47
277.58
272.77
265.41
255.92
244.70
232.10
218.38
203.76
188.40
172.41
155.86
138.84
121.43
103.82
86.19
68.68
51.34
34.11
16.88
-0.46
-17.88
-35.34
-52.76
-70.12
-87.40
-104.47
-121.08
-136.79
-151.09
-163.63
-174.36
-183.64
-192.18
-200.77
-209.93
-219.65
-229.16
-237.01
-241.43
-240.91
-234.70
-223.13
-207.49
-189.64
-171.43
-154.23
-138.79
-125.34
-113.84
-104.23
-96.36
-90.11
-85.21
-81.31
-77.97
-74.84
-71.65
-68.27
-64.75
-61.21
-57.84
-54.81
-52.17
-49.88
-47.90
-46.30
-45.25
-45.02
-45.73
-47.27
-49.25
-51.17
-52.57
-53.34
-53.78
-54.45
-55.97
-58.73
-62.73
-67.57
-72.65
-77.45
-81.69
-85.65
-90.07
-96.07
-104.76
-116.78
-132.01
-149.33
-166.65
-181.12
-189.57
-189.28
-178.69
-157.99
-129.26
-95.97
-62.02
-30.61
-3.55
18.92
37.56
53.41
67.10
78.69
87.84
94.27
98.03
99.60
99.62
98.70
97.16
95.07
92.36
89.01
85.24
81.44
78.00
75.08
72.48
69.68
66.12
61.47
55.87
49.91
44.37
39.85
36.53
34.00
31.47
28.07
23.28
17.15
10.31
3.65
-2.07
-6.60
-10.37
-14.28
-19.38
-26.37
-35.37
-45.79
-56.33
-65.31
-70.90
-71.63
-66.81
-56.73
-42.70
-26.67
-10.67
3.78
15.99
26.02
34.45
41.90
48.80
55.19
60.83
65.33
68.31
69.63
69.47
68.29
66.65
65.01
63.57
62.27
60.94
59.50
57.93
56.23
54.27
51.64
47.80
42.41
35.57
27.95
20.57
14.35
9.67
6.18
2.93
-1.12
-6.57
-13.26
-20.41
-26.91
-31.97
-35.44
-37.86
-40.30
-43.86
-49.34
-56.90
-65.99
-75.25
-82.79
-86.52
-84.74
-76.75
-63.15
-45.74
-27.00
-9.35
5.60
17.20
25.80
32.28
37.58
42.41
47.05
51.43
55.22
58.02
59.49
59.47
58.11
55.74
52.86
49.97
47.46
45.56
44.29
43.48
42.75
41.65
39.73
36.71
32.56
27.59
22.30
17.30
13.03
9.59
6.67
3.68
-0.04
-4.93
-11.00
-17.82
-24.65
-30.71
-35.52
-39.10
-41.98
-45.03
-49.17
-55.08
-62.88
-71.91
-80.72
-87.31
-89.64
-86.18
-76.50
-61.45
-42.94
-23.39
-5.05
10.62
23.11
32.69
40.08
45.94
50.69
54.43
57.05
58.44
58.68
57.97
56.65
55.04
53.33
51.65
50.03
48.51
47.17
46.02
44.98
43.84
42.25
39.88
36.50
32.06
26.72
20.75
14.47
8.17
2.11
-3.53
-8.69
-13.46
-18.13
-23.11
-28.75
-35.22
-42.36
-49.71
-56.75
-63.16
-68.99
-74.63
-80.70
-87.80
-96.35
-106.35
-117.21
-127.69
-135.83
-139.25
-135.87
-124.52
-105.60
-81.15
-54.20
-27.86
-4.41
15.21
31.19
44.29
55.15
63.97
70.56
74.69
76.51
76.58
75.74
74.76
73.96
73.24
72.26
70.76
68.76
66.59
64.62
63.13
62.09
61.15
59.87
57.81
54.73
50.65
45.90
41.04
36.79
33.66
31.74
30.54
29.09
26.21
21.00
13.13
2.86
-9.10
-21.92
-34.97
-47.86
-60.36
-72.22
-82.93
-91.69
-97.50
-99.28
-96.26
-88.19
-75.58
-59.61
-41.96
-24.34
-8.13
5.96
17.85
27.92
36.65
44.33
50.95
56.20
59.79
61.66
61.99
61.31
60.19
59.05
58.03
56.98
55.57
53.58
51.02
48.05
44.96
41.91
38.88
35.71
32.19
28.23
23.90
19.34
14.67
9.89
4.96
-0.18
-5.40
-10.41
-14.74
-17.92
-19.64
-19.83
-18.79
-17.06
-15.39
-14.51
-15.02
-17.41
-21.92
-28.63
-37.45
-48.03
-59.64
-71.15
-81.10
-88.12
-91.32
-90.83
-87.73
-83.66
-80.07
-77.65
-76.03
-74.19
-71.05
-66.09
-59.47
-51.76
-43.39
-34.24
-23.69
-10.90
4.67
22.85
42.73
62.86
81.63
97.68
110.16
118.55
122.45
121.26
114.04
99.90
78.47
50.39
17.41
-17.91
-52.83
-85.00
-112.81
-135.34
-152.27
-163.74
-170.35
-173.12
-173.37
-172.30
-170.75
-168.94
-166.59
-163.25
-158.57
-152.52
-145.43
-137.94
-130.84
-124.91
-120.52
-117.38
-114.30
-109.42
-100.74
-86.82
-67.33
-43.09
-15.72
12.96
41.46
68.73
94.06
116.82
136.48
152.59
165.08
174.28
180.76
185.13
187.72
188.53
187.35
184.02
178.60
171.50
163.29
154.50
145.43
136.11
126.36
116.03
105.11
93.88
82.83
72.45
63.08
54.84
47.64
41.30
35.61
30.42
25.53
20.61
15.09
8.31
-0.29
-10.81
-22.70
-34.84
-45.87
-54.64
-60.69
-64.29
-66.30
-67.81
-69.86
-73.25
-78.57
-86.21
-96.28
-108.38
-121.37
-133.34
-142.03
-145.36
-142.23
-132.90
-118.88
-102.35
-85.23
-68.57
-52.44
-36.39
-20.08
-3.88
11.17
23.79
33.08
38.95
42.07
43.54
44.61
46.53
50.60
58.10
70.02
86.64
107.13
129.66
151.90
171.70
187.69
199.32
206.63
209.78
208.82
203.70
194.33
180.70
163.04
141.95
118.70
95.31
74.40
58.53
49.36
46.84
49.12
53.26
56.37
56.65
53.88
49.04
43.45
38.06
33.14
28.57
24.32
20.84
18.92
19.35
22.25
26.81
31.54
34.86
35.75
34.19
30.91
26.90
22.70
18.07
12.06
3.59
-7.87
-21.86
-36.92
-50.97
-61.99
-68.55
-70.17
-67.17
-60.30
-50.37
-38.02
-23.84
-8.56
6.81
20.98
32.72
41.27
46.66
49.70
51.66
53.70
56.53
60.14
64.05
67.61
70.35
72.08
72.83
72.60
71.17
68.13
63.01
55.56
45.96
34.68
22.34
9.44
-3.70
-16.71
-29.01
-39.64
-47.38
-51.11
-50.25
-45.02
-36.42
-25.86
-14.73
-4.06
5.59
14.02
21.09
26.60
30.25
31.83
31.30
29.01
25.55
21.59
17.71
14.29
11.46
9.21
7.46
6.08
4.97
3.99
2.98
1.80
0.34
-1.44
-3.58
-6.13
-9.25
-13.08
-17.77
-23.28
-29.44
-35.97
-42.67
-49.41
-56.25
-63.27
-70.41
-77.38
-83.75
-89.07
-93.02
-95.47
-96.39
-95.90
-94.16
-91.48
-88.31
-85.26
-82.92
-81.61
-81.19
-80.90
-79.54
-75.75
-68.52
-57.57
-43.55
-27.89
-12.36
1.50
12.78
21.45
28.11
33.58
38.46
42.86
46.45
48.74
49.38
48.43
46.33
43.69
41.05
38.67
36.51
34.40
32.19
29.86
27.51
25.26
23.13
21.00
18.71
16.13
13.34
10.58
8.12
6.14
4.58
3.16
1.57
-0.45
-2.90
-5.57
-8.15
-10.42
-12.40
-14.39
-16.80
-19.93
-23.79
-28.02
-32.09
-35.52
-38.05
-39.82
-41.28
-42.98
-45.46
-49.04
-53.72
-59.17
-64.60
-68.90
-70.75
-68.96
-63.00
-53.25
-40.93
-27.85
-15.77
-5.83
1.63
7.09
11.39
15.29
19.15
22.86
26.04
28.33
29.63
30.13
30.20
30.14
30.09
29.99
29.70
29.16
28.44
27.64
26.82
25.84
24.49
22.58
20.16
17.46
14.84
12.57
10.75
9.27
7.97
6.69
5.34
3.82
1.97
-0.44
-3.47
-7.08
-10.96
-14.71
-18.08
-21.07
-24.00
-27.35
-31.53
-36.70
-42.80
-49.46
-56.10
-61.96
-66.08
-67.45
-65.23
-59.13
-49.55
-37.70
-25.20
-13.54
-3.67
4.21
10.57
16.10
21.36
26.51
31.35
35.49
38.58
40.43
41.14
40.96
40.25
39.36
38.52
37.82
37.18
36.53
35.76
34.84
33.76
32.53
31.07
29.30
27.17
24.69
21.97
19.17
16.41
13.72
11.03
8.27
5.40
2.52
-0.22
-2.69
-4.95
-7.25
-10.03
-13.62
-18.14
-23.30
-28.50
-33.06
-36.53
-38.87
-40.51
-42.25
-44.92
-49.09
-54.84
-61.53
-67.91
-72.33
-73.25
-69.73
-61.78
-50.46
-37.49
-24.68
-13.38
-4.10
3.37
9.63
15.21
20.37
25.05
29.09
32.38
34.92
36.76
37.85
38.09
37.38
35.76
33.53
31.18
29.30
28.28
28.20
28.77
29.46
29.68
29.04
27.47
25.23
22.72
20.33
18.22
16.32
14.36
12.13
9.56
6.76
3.98
1.44
-0.80
-2.81
-4.73
-6.72
-8.88
-11.21
-13.70
-16.27
-18.87
-21.45
-24.01
-26.65
-29.57
-33.10
-37.60
-43.25
-49.86
-56.76
-62.73
-66.26
-65.99
-61.16
-51.96
-39.51
-25.57
-11.93
0.07
9.91
17.75
24.16
29.67
34.56
38.82
42.33
44.97
46.79
47.92
48.53
48.77
48.75
48.61
48.44
48.32
48.25
48.21
48.15
48.01
47.72
47.22
46.35
44.95
42.98
40.51
37.75
34.95
32.20
29.43
26.41
22.98
19.12
15.01
10.88
6.86
2.88
-1.27
-5.75
-10.54
-15.35
-19.78
-23.55
-26.74
-29.77
-33.30
-37.96
-43.97
-51.00
-58.13
-63.95
-66.95
-65.99
-60.62
-51.30
-39.30
-26.32
-13.96
-3.30
5.29
12.08
17.63
22.51
27.00
31.12
34.71
37.56
39.56
40.66
40.88
40.30
39.03
37.25
35.25
33.33
31.75
30.65
29.96
29.45
28.84
27.87
26.41
24.44
22.10
19.61
17.18
14.96
12.99
11.16
9.24
7.01
4.35
1.30
-1.98
-5.24
-8.27
-11.04
-13.64
-16.35
-19.40
-22.93
-26.87
-31.00
-35.01
-38.65
-41.83
-44.68
-47.51
-50.75
-54.78
-59.77
-65.37
-70.67
-74.21
-74.49
-70.39
-61.76
-49.57
-35.61
-21.90
-9.97
-0.55
6.48
11.76
15.88
19.28
22.13
24.50
26.47
28.17
29.65
30.84
31.59
31.75
31.34
30.53
29.63
28.89
28.46
28.32
28.31
28.24
27.89
27.07
25.65
23.64
21.23
18.68
16.28
14.17
12.28
10.39
8.30
5.86
3.13
0.21
-2.81
-5.97
-9.37
-13.08
-17.08
-21.16
-25.01
-28.32
-30.91
-32.82
-34.37
-36.01
-38.32
-41.71
-46.31
-51.72
-57.00
-60.76
-61.52
-58.22
-50.48
-38.95
-25.04
-10.60
2.64
13.53
21.68
27.41
31.40
34.34
36.66
38.51
39.83
40.52
40.50
39.82
38.63
37.12
35.47
33.84
32.34
31.04
29.93
28.91
27.87
26.69
25.24
23.48
21.33
18.80
15.90
12.74
9.47
6.24
3.17
0.30
-2.32
-4.71
-6.91
-8.99
-11.04
-13.22
-15.68
-18.54
-21.86
-25.58
-29.65
-33.94
-38.32
-42.70
-47.11
-51.71
-56.85
-62.86
-69.71
-76.80
-82.91
-86.46
-86.06
-81.06
-71.86
-59.72
-46.39
-33.56
-22.37
-13.29
-6.17
-0.49
4.39
8.96
13.41
17.63
21.31
24.12
25.93
26.85
27.17
27.23
27.26
27.38
27.63
28.02
28.57
29.20
29.74
29.90
29.47
28.44
27.05
25.68
24.64
23.97
23.40
22.49
20.82
18.20
14.74
10.78
6.77
3.13
0.13
-2.20
-4.01
-5.58
-7.26
-9.29
-11.74
-14.49
-17.29
-19.93
-22.32
-24.54
-26.82
-29.51
-32.93
-37.36
-42.86
-49.02
-54.98
-59.40
-60.84
-58.20
-51.16
-40.40
-27.45
-14.18
-2.16
7.70
15.38
21.48
26.87
32.24
37.87
43.61
49.00
53.51
56.72
58.42
58.64
57.56
55.56
53.05
50.52
48.38
46.94
46.25
46.12
46.03
45.41
43.71
40.71
36.59
31.85
27.11
22.97
19.71
17.25
15.20
13.09
10.54
7.44
3.93
0.32
-3.10
-6.23
-9.20
-12.27
-15.73
-19.63
-23.79
-27.80
-31.25
-33.94
-36.02
-38.01
-40.61
-44.53
-50.15
-57.26
-64.94
-71.68
-75.70
-75.46
-70.10
-59.81
-45.86
-30.15
-14.71
-1.15
9.69
17.76
23.55
27.84
31.38
34.69
37.95
41.06
43.75
45.68
46.68
46.73
45.97
44.59
42.74
40.53
38.03
35.46
33.09
31.21
29.95
29.17
28.45
27.30
25.45
22.99
20.29
17.85
15.92
14.39
12.84
10.73
7.80
4.14
0.24
-3.35
-6.24
-8.44
-10.38
-12.77
-16.30
-21.41
-28.13
-36.09
-44.65
-53.15
-61.12
-68.37
-74.98
-81.20
-87.29
-93.48
-99.77
-105.84
-110.92
-113.83
-113.24
-108.09
-98.11
-84.00
-67.30
-49.92
-33.43
-18.73
-5.87
5.58
16.14
26.07
35.29
43.52
50.47
55.97
59.99
62.58
63.86
63.97
63.11
61.58
59.73
57.88
56.20
54.70
53.17
51.35
48.98
45.91
42.16
37.89
33.40
29.02
25.07
21.74
18.99
16.58
14.11
11.23
7.79
3.88
-0.24
-4.32
-8.20
-12.07
-16.29
-21.25
-27.18
-33.96
-41.15
-48.19
-54.62
-60.30
-65.45
-70.57
-76.19
-82.66
-90.07
-98.19
-106.49
-114.16
-120.26
-123.85
-124.22
-121.22
-115.42
-108.05
-100.76
-95.08
-91.96
-91.55
-93.23
-96.04
-99.10
-101.91
-104.28
-106.10
-106.93
-105.69
-100.73
-90.06
-71.95
-45.46
-10.83
30.38
75.66
121.94
166.24
205.96
239.06
264.12
280.19
287.00
284.84
274.39
256.48
231.54
199.40
159.37
111.12
56.28
-0.25
-50.29
-84.26
-94.47
-78.51
-40.65
9.39
59.89
101.18
128.11
140.16
139.43
128.33
108.21
79.82
44.54
5.30
-33.65
-68.21
-95.92
-116.57
-131.45
-142.25
-149.62
-152.84
-150.35
-140.91
-124.63
-103.31
-79.91
-57.54
-38.43
-23.28
-11.37
-1.24
8.46
18.30
28.03
36.97
44.67
51.47
58.51
67.28
78.73
92.70
107.70
121.45
131.75
137.29
138.03
135.02
129.71
123.27
116.29
108.73
100.37
91.11
81.24
71.32
62.02
53.80
46.78
40.80
35.50
30.48
25.38
19.93
13.97
7.47
0.53
-6.54
-13.22
-18.76
-22.35
-23.32
-21.34
-16.72
-10.42
-3.88
1.37
4.10
3.74
0.41
-5.18
-11.95
-18.71
-24.27
-27.59
-27.99
-25.27
-19.81
-12.37
-3.86
4.96
13.69
22.26
30.79
39.32
47.73
55.62
62.49
67.80
71.21
72.58
72.07
69.94
66.54
62.05
56.59
50.19
43.00
35.40
27.94
21.21
15.52
10.85
6.79
2.74
-1.71
-6.76
-12.28
-18.01
-23.82
-29.76
-35.97
-42.46
-49.00
-55.08
-60.14
-63.87
-66.43
-68.35
-70.29
-72.73
-75.70
-78.88
-81.75
-83.88
-85.08
-85.48
-85.36
-85.10
-85.16
-85.93
-87.71
-90.52
-93.91
-96.98
-98.54
-97.49
-93.20
-85.88
-76.44
-66.13
-56.09
-46.92
-38.67
-30.97
-23.43
-15.90
-8.52
-1.65
4.37
9.42
13.64
17.28
20.53
23.41
25.69
27.11
27.53
27.05
26.05
24.96
24.05
23.30
22.35
20.71
18.01
14.17
9.53
4.64
0.10
-3.69
-6.57
-8.66
-10.25
-11.61
-12.94
-14.34
-15.86
-17.64
-19.89
-22.87
-26.74
-31.50
-36.86
-42.27
-46.97
-50.01
-50.42
-47.41
-40.49
-29.69
-15.53
1.04
18.77
36.25
51.97
64.49
72.55
75.36
72.92
66.09
56.55
46.22
36.73
28.94
22.80
17.65
12.70
7.50
2.10
-3.06
-7.49
-10.89
-13.13
-14.21
-14.01
-12.32
-9.03
-4.36
1.01
6.08
9.83
11.55
11.10
8.80
5.21
0.93
-3.66
-8.30
-12.83
-17.06
-20.83
-24.06
-26.70
-28.74
-30.23
-31.22
-31.85
-32.33
-32.95
-33.96
-35.59
-38.01
-41.30
-45.51
-50.56
-56.06
-61.20
-64.84
-65.72
-62.95
-56.38
-46.68
-35.10
-23.07
-11.71
-1.64
7.01
14.42
20.84
26.48
31.43
35.69
39.28
42.17
44.38
45.96
46.92
47.33
47.23
46.67
45.69
44.35
42.72
40.93
39.13
37.44
35.91
34.44
32.81
30.73
27.99
24.50
20.41
16.00
11.60
7.49
3.77
0.39
-2.78
-5.96
-9.30
-12.93
-16.87
-21.06
-25.36
-29.56
-33.51
-37.14
-40.58
-44.14
-48.21
-53.08
-58.70
-64.49
-69.43
-72.30
-72.09
-68.37
-61.46
-52.30
-42.11
-31.98
-22.62
-14.32
-7.11
-0.91
4.36
8.81
12.51
15.67
18.48
21.07
23.49
25.61
27.22
28.10
28.16
27.51
26.53
25.70
25.41
25.81
26.68
27.59
28.13
28.09
27.58
26.82
25.92
24.78
23.08
20.59
17.36
13.85
10.68
8.46
7.37
7.15
7.10
6.41
4.38
0.73
-4.34
-10.27
-16.37
-22.07
-27.07
-31.42
-35.40
-39.36
-43.60
-48.35
-53.71
-59.56
-65.51
-70.65
-73.79
-73.75
-69.75
-61.85
-50.98
-38.59
-26.16
-14.77
-4.85
3.73
11.31
18.24
24.66
30.48
35.51
39.54
42.49
44.38
45.40
45.80
45.82
45.59
45.15
44.42
43.39
42.13
40.82
39.66
38.72
37.91
36.96
35.56
33.54
30.89
27.88
24.85
22.13
19.84
17.84
15.86
13.60
10.97
8.11
5.28
2.68
0.30
-2.18
-5.19
-9.06
-13.80
-19.05
-24.17
-28.48
-31.64
-33.68
-35.13
-36.79
-39.46
-43.68
-49.50
-56.41
-63.36
-69.00
-72.01
-71.46
-67.05
-59.19
-48.82
-37.19
-25.51
-14.67
-5.12
3.17
10.55
17.40
23.95
30.10
35.47
39.62
42.26
43.44
43.55
43.11
42.57
42.15
41.78
41.27
40.46
39.30
37.89
36.40
34.98
33.66
32.34
30.81
28.81
26.18
22.91
19.21
15.44
11.92
8.79
6.00
3.27
0.26
-3.24
-7.26
-11.58
-15.86
-19.82
-23.34
-26.58
-29.84
-33.42
-37.53
-42.29
-47.73
-53.85
-60.51
-67.19
-72.92
-76.36
-76.24
-71.77
-63.10
-51.25
-37.83
-24.39
-11.99
-1.07
8.50
17.03
24.83
32.05
38.62
44.32
48.87
52.06
53.79
54.18
53.55
52.32
50.93
49.66
48.61
47.74
46.91
45.99
44.83
43.33
41.46
39.28
36.87
34.38
31.85
29.23
26.39
23.18
19.58
15.63
11.50
7.32
3.17
-0.99
-5.24
-9.66
-14.29
-19.10
-24.07
-29.09
-34.07
-38.89
-43.52
-48.04
-52.65
-57.59
-63.09
-69.20
-75.65
-81.79
-86.58
-88.78
-87.27
-81.41
-71.36
-58.09
-43.16
-28.17
-14.33
-2.12
8.64
18.38
27.39
35.60
42.62
48.01
51.55
53.41
54.07
54.09
53.90
53.66
53.37
52.97
52.51
52.11
51.96
52.12
52.52
52.86
52.77
51.91
50.13
47.48
44.26
40.83
37.51
34.47
31.65
28.86
25.89
22.56
18.88
14.99
11.10
7.41
4.00
0.83
-2.30
-5.63
-9.44
-13.86
-18.86
-24.20
-29.59
-34.67
-39.23
-43.26
-47.01
-50.94
-55.56
-61.28
-68.06
-75.34
-81.93
-86.29
-87.01
-83.29
-75.16
-63.59
-50.13
-36.42
-23.70
-12.59
-3.11
5.09
12.42
19.14
25.34
30.93
35.83
39.93
43.14
45.39
46.67
47.01
46.57
45.63
44.54
43.64
43.16
43.14
43.42
43.67
43.49
42.57
40.78
38.30
35.52
32.85
30.52
28.54
26.65
24.50
21.85
18.64
15.04
11.32
7.80
4.67
1.89
-0.76
-3.59
-6.86
-10.64
-14.80
-19.05
-23.16
-27.01
-30.66
-34.31
-38.24
-42.66
-47.82
-53.80
-60.46
-67.16
-72.77
-75.79
-74.90
-69.43
-59.77
-47.19
-33.48
-20.20
-8.32
1.90
10.77
18.76
26.14
32.90
38.83
43.58
46.94
48.89
49.62
49.47
48.76
47.80
46.77
45.78
44.86
44.00
43.18
42.35
41.42
40.24
38.67
36.60
33.97
30.81
27.25
23.55
19.98
16.78
14.00
11.54
9.15
6.52
3.40
-0.31
-4.57
-9.27
-14.21
