1592752658.00
64.000000
-0.00
-0.00
-0.00
-0.00
-0.00
-0.00
-0.00
-0.00
-0.00
-0.00
0.00
0.01
0.01
-0.00
-0.03
-0.05
-0.05
0.00
0.13
0.36
0.66
1.01
1.37
1.72
2.06
2.40
2.79
3.24
3.80
4.42
5.06
5.66
6.20
6.68
7.15
7.68
8.31
9.14
10.09
11.04
11.88
12.56
13.14
13.76
14.65
15.96
17.91
20.32
22.90
25.38
27.58
29.57
31.68
34.32
37.81
42.54
48.15
54.10
59.83
64.97
69.59
74.15
79.35
85.70
93.76
102.99
112.62
121.75
129.81
136.80
143.32
150.69
157.60
166.32
177.49
191.23
206.36
219.96
227.66
224.78
207.90
176.14
131.89
79.05
22.00
-36.02
-93.47
-150.15
-206.24
-261.54
-315.19
-365.67
-411.94
-453.20
-488.80
-517.92
-539.32
-551.41
-552.59
-541.76
-518.54
-483.89
-439.66
-388.37
-332.74
-275.35
-218.31
-163.16
-110.97
-62.29
-17.62
22.65
58.12
88.34
112.92
131.68
144.83
153.02
157.31
158.83
158.60
157.24
154.89
151.31
146.15
139.12
130.00
118.79
105.88
92.41
80.42
72.57
71.23
77.37
89.80
105.29
119.62
129.16
132.16
129.01
121.63
112.25
102.46
92.88
83.49
74.39
65.78
58.15
51.92
47.14
43.37
39.84
35.81
30.99
25.61
20.37
16.05
13.19
11.77
11.24
10.71
9.40
7.01
3.82
0.61
-1.70
-2.47
-1.66
0.21
2.22
3.54
3.72
2.79
1.10
-0.87
-2.70
-4.04
-4.57
-4.03
-2.43
-0.13
2.17
3.68
3.86
2.75
0.86
-1.04
-2.39
-3.03
-3.21
-3.33
-3.68
-4.24
-4.86
-5.33
-5.52
-5.40
-4.99
-4.29
-3.38
-2.36
-1.43
-0.86
-0.90
-1.62
-2.84
-4.18
-5.10
-5.17
-4.21
-2.40
-0.23
1.73
2.98
3.32
2.85
1.91
0.95
0.34
0.32
0.94
2.06
3.44
4.77
5.82
6.57
7.16
7.88
8.94
10.34
11.79
12.79
12.87
11.78
9.65
6.98
4.51
2.94
2.62
3.47
4.87
5.96
5.94
4.41
1.47
-2.29
-6.02
-8.95
-10.62
-11.00
-10.53
-10.04
-10.54
-12.96
-17.81
-24.90
-33.15
-40.57
-44.77
-43.74
-36.79
-25.02
-11.12
1.56
10.30
13.91
13.00
9.39
5.12
1.65
-0.53
-1.58
-1.90
-1.70
-0.99
0.24
1.76
3.13
3.89
3.74
2.71
1.13
-0.51
-1.78
-2.37
-2.24
-1.55
-0.60
0.28
0.90
1.20
1.33
1.45
1.72
2.09
2.43
2.46
1.93
0.76
-0.92
-2.75
-4.35
-5.42
-5.96
-6.12
-6.14
-6.26
-6.55
-6.96
-7.32
-7.51
-7.56
-7.58
-7.68
-7.86
-8.02
-7.96
-7.54
-6.79
-5.91
-5.17
-4.78
-4.74
-4.86
-4.79
-4.19
-2.84
-0.72
2.01
5.09
8.22
11.15
13.69
15.73
17.24
18.24
18.71
18.61
17.90
16.58
14.79
12.82
11.11
10.06
9.85
10.34
11.11
11.65
11.60
10.92
9.98
9.38
9.64
10.85
12.50
13.66
13.37
11.06
6.91
1.89
-2.42
-4.42
-3.36
0.26
4.84
8.28
8.89
6.02
0.35
-6.41
-12.26
-15.91
-17.06
-16.26
-14.40
-12.61
-11.98
-13.19
-16.07
-19.40
-21.52
-20.80
-16.46
-8.93
-0.15
7.22
9.92
5.98
-2.91
-11.73
-14.96
-9.90
1.99
15.25
22.79
19.22
3.84
-17.95
-38.63
-50.64
-49.09
-33.36
-7.76
20.31
43.26
56.14
57.95
50.93
39.13
25.00
11.88
1.94
-4.19
-7.08
-7.64
-6.63
-4.86
-3.32
-3.61
-7.53
-16.93
-32.45
-52.68
-74.26
-92.93
-105.22
-109.66
-107.09
-99.83
-90.79
-82.27
-75.18
-69.17
-63.24
-56.65
-49.26
-41.63
-34.53
-28.81
-24.90
-22.66
-21.36
-19.86
-17.04
-12.14
-5.17
3.10
11.24
17.83
22.09
24.32
25.81
28.35
33.59
42.38
54.45
68.49
82.66
95.23
105.07
112.04
117.12
122.19
129.32
139.90
153.80
169.04
182.24
189.54
187.83
175.95
155.33
129.72
103.99
82.61
68.25
61.21
59.62
60.09
59.25
54.82
46.01
33.27
17.81
1.16
-14.89
-28.46
-38.58
-44.83
-47.24
-46.35
-43.23
-39.22
-35.47
-32.49
-30.08
-28.69
-28.43
-28.83
-29.05
-28.56
-27.45
-26.62
-27.35
-30.99
-40.09
-56.26
-79.02
-105.69
-132.73
-157.26
-178.33
-196.81
-205.19
-198.93
-178.79
-150.33
-119.39
-89.59
-62.78
-40.34
-22.85
-9.62
-0.30
6.16
11.34
16.91
22.76
29.43
36.56
43.57
50.01
54.60
56.53
56.08
54.39
52.54
51.07
49.55
47.38
44.20
39.74
34.16
28.18
22.61
17.80
13.59
9.49
5.51
2.24
0.14
-0.71
-0.92
-1.67
-4.36
-9.95
-18.51
-29.03
-39.76
-49.08
-56.04
-60.55
-63.26
-65.01
-66.39
-67.56
-68.28
-68.14
-66.80
-64.00
-59.42
-52.58
-43.00
-30.53
-15.79
-0.23
14.21
25.82
33.72
38.12
40.06
40.74
41.04
41.23
41.12
40.45
39.25
37.92
37.08
37.23
38.48
40.52
42.80
44.85
46.60
48.37
50.76
54.23
58.88
64.29
69.73
74.34
77.49
78.95
78.92
77.87
76.30
74.66
73.14
71.69
69.97
67.53
63.96
59.11
53.24
46.90
40.70
34.87
29.18
23.00
15.75
7.28
-2.01
-11.43
-20.32
-28.37
-35.60
-42.10
-47.85
-52.67
-56.51
-59.68
-62.85
-66.69
-71.47
-76.69
-81.15
-83.44
-82.52
-78.14
-71.05
-62.61
-54.37
-47.57
-42.80
-39.89
-38.15
-36.65
-34.62
-31.61
-27.64
-23.10
-18.64
-15.03
-12.90
-12.56
-13.89
-16.32
-18.99
-21.04
-21.93
-21.56
-20.13
-17.88
-14.82
-10.73
-5.39
1.04
7.82
13.73
17.53
18.41
16.38
12.15
6.74
1.05
-4.38
-9.22
-13.06
-15.30
-15.33
-13.10
-9.41
-5.82
-3.88
-4.23
-6.22
-8.38
-9.65
-10.39
-12.34
-17.59
-27.00
-39.19
-51.00
-58.97
-60.96
-57.01
-48.92
-39.01
-29.04
-19.77
-11.42
-4.26
1.03
3.56
2.81
-1.05
-7.12
-14.16
-20.99
-26.78
-31.16
-34.04
-35.53
-35.68
-34.48
-31.95
-28.20
-23.56
-18.55
-13.63
-8.99
-4.52
0.12
5.25
10.97
17.12
23.58
30.33
37.52
45.29
53.57
61.94
69.76
76.34
81.20
84.17
85.42
85.34
84.36
82.90
81.20
79.38
77.46
75.44
73.28
70.98
68.52
65.84
62.86
59.53
55.89
52.09
48.40
45.03
42.09
39.50
37.05
34.43
31.37
27.75
23.64
19.29
15.04
11.23
8.06
5.63
3.94
2.92
2.46
2.40
2.50
2.53
2.26
1.55
0.35
-1.38
-3.66
-6.47
-9.67
-12.98
-16.12
-18.95
-21.65
-24.65
-28.50
-33.54
-39.76
-46.77
-54.03
-61.01
-67.37
-72.87
-77.33
-80.60
-82.60
-83.47
-83.51
-83.09
-82.37
-81.25
-79.34
-76.27
-71.88
-66.38
-60.23
-53.92
-47.70
-41.57
-35.31
-28.80
-22.13
-15.67
-9.94
-5.36
-2.06
0.22
1.93
3.56
5.32
7.15
8.79
9.96
10.61
10.89
11.11
11.52
12.21
13.08
13.90
14.44
14.53
14.12
13.30
12.21
11.07
10.10
9.47
9.35
9.85
11.07
13.08
15.93
19.56
23.84
28.52
33.24
37.60
41.25
43.99
45.77
46.68
46.89
46.55
45.75
44.54
42.91
40.89
38.58
36.12
33.71
31.53
29.75
28.51
27.82
27.60
27.59
27.51
27.15
26.54
25.96
25.90
26.80
28.84
31.80
35.08
37.90
39.57
39.70
38.41
36.20
33.83
32.00
31.15
31.36
32.30
33.34
33.59
32.04
27.72
19.92
8.55
-5.64
-21.12
-35.95
-48.44
-57.56
-63.10
-65.46
-65.35
-63.52
-60.46
-56.35
-51.19
-44.96
-37.78
-30.04
-22.41
-15.88
-11.51
-10.00
-11.31
-14.57
-18.41
-21.30
-21.99
-19.88
-14.86
-7.97
-1.06
4.17
7.27
8.88
9.90
11.07
12.59
14.36
16.10
17.74
19.61
22.27
26.05
30.91
36.58
42.75
49.25
55.87
61.86
65.46
63.63
52.82
30.61
-2.36
-41.67
-80.13
-110.33
-127.39
-130.58
-122.96
-109.51
-94.75
-81.24
-69.60
-59.52
-50.85
-43.88
-38.83
-35.20
-31.69
-26.62
-18.86
-8.43
3.51
15.22
25.12
32.41
37.15
39.93
41.54
42.70
43.97
45.82
48.70
52.78
57.78
62.84
66.79
68.66
68.19
65.92
62.72
59.14
54.97
49.33
41.22
30.02
15.69
-1.27
-20.03
-39.35
-57.43
-71.97
-80.68
-82.34
-77.71
-69.80
-62.97
-61.29
-66.82
-78.65
-93.27
-106.05
-113.10
-112.75
-105.90
-95.10
-83.13
-71.71
-61.06
-50.61
-40.05
-30.12
-22.53
-18.89
-19.43
-22.22
-23.68
-20.11
-9.41
7.95
29.29
50.96
69.90
84.59
95.16
102.70
108.20
111.88
113.32
112.14
108.53
103.44
98.04
93.09
88.43
82.90
74.88
63.21
48.05
30.72
13.18
-2.85
-16.17
-25.98
-31.73
-33.09
-30.09
-23.26
-14.00
-4.21
3.62
7.25
6.48
3.46
0.74
-0.75
-1.32
-2.52
-5.21
-9.19
-13.47
-16.84
-18.58
-18.63
-17.54
-16.12
-15.07
-14.76
-15.26
-16.42
-17.97
-19.78
-21.93
-24.36
-26.62
-27.85
-26.97
-23.13
-16.05
-6.05
5.89
18.38
29.99
39.65
46.81
51.46
53.91
54.65
54.11
52.50
49.77
45.77
40.61
34.82
29.27
24.81
21.88
20.23
19.05
17.26
14.09
9.45
4.04
-0.95
-4.36
-5.44
-4.18
-1.20
2.63
6.47
9.87
12.71
15.13
17.23
18.86
19.57
18.77
15.98
11.16
4.78
-2.25
-8.98
-14.68
-19.12
-22.46
-25.04
-27.08
-28.49
-28.99
-28.28
-26.32
-23.50
-20.57
-18.38
-17.48
-17.96
-19.29
-20.73
-21.61
-21.73
-21.45
-21.38
-22.02
-23.39
-24.95
-25.89
-25.58
-23.90
-21.23
-18.22
-15.40
-12.99
-10.94
-9.23
-8.10
-8.06
-9.65
-13.06
-17.96
-23.59
-29.10
-33.89
-37.85
-41.21
-44.30
-47.19
-49.59
-50.99
-50.85
-48.96
-45.59
-41.40
-37.30
-34.03
-31.91
-30.80
-30.16
-29.42
-28.24
-26.55
-24.39
-21.74
-18.30
-13.65
-7.51
-0.09
7.89
15.31
21.21
25.07
27.03
27.69
27.69
27.46
27.07
26.46
25.65
24.83
24.23
23.90
23.57
22.79
21.14
18.38
14.49
9.56
3.76
-2.56
-8.73
-13.74
-16.53
-16.57
-14.35
-11.45
-9.90
-11.26
-15.76
-22.19
-28.51
-32.82
-34.13
-32.45
-28.43
-22.78
-16.03
-8.57
-1.08
5.43
9.74
11.00
9.04
4.57
-1.14
-6.66
-10.76
-12.67
-12.12
-9.42
-5.36
-1.07
2.35
4.18
4.33
3.29
1.80
0.51
-0.31
-0.85
-1.58
-3.05
-5.64
-9.33
-13.68
-17.79
-20.55
-20.97
-18.55
-13.35
-5.91
3.02
12.70
22.33
30.82
36.83
39.12
37.23
32.09
26.03
21.93
21.91
26.22
32.95
38.78
40.54
36.60
27.51
15.56
3.68
-5.78
-11.61
-13.83
-13.24
-10.91
-8.01
-5.71
-5.11
-7.05
-11.74
-18.54
-25.91
-31.89
-34.68
-33.35
-28.05
-20.09
-11.49
-4.56
-1.38
-3.12
-9.57
-18.86
-27.72
-32.29
-29.53
-18.57
-1.42
17.51
33.04
41.17
40.56
32.84
21.77
11.60
5.55
5.15
10.31
20.11
33.11
47.59
61.38
72.13
77.74
77.19
71.23
62.40
54.39
50.52
52.48
59.63
69.49
78.60
83.82
83.57
78.29
70.68
63.99
60.43
60.21
62.14
64.23
64.67
62.61
58.07
52.54
47.24
42.19
36.55
30.16
23.74
18.43
14.85
12.09
9.30
4.83
-3.37
-16.35
-32.30
-47.30
-57.01
-58.42
-51.32
-35.88
-13.71
12.42
32.72
38.36
27.04
4.45
-15.96
-32.71
-45.56
-53.93
-58.51
-58.82
-54.19
-44.91
-32.92
-21.61
-15.22
-15.18
-21.10
-31.27
-43.00
-52.83
-57.91
-57.29
-52.28
-46.11
-40.72
-37.15
-35.66
-35.86
-36.91
-38.07
-39.09
-40.08
-41.40
-42.20
-41.53
-39.08
-35.26
-30.99
-27.17
-24.31
-22.49
-21.63
-21.37
-21.73
-23.23
-26.41
-31.36
-37.29
-42.78
-46.09
-45.68
-40.43
-29.94
-14.87
3.10
21.28
36.56
46.06
48.21
43.33
33.68
22.74
13.98
9.62
10.03
13.85
18.58
21.48
20.35
14.09
2.97
-11.32
-26.14
-38.47
-45.71
-46.28
-39.80
-27.21
-10.45
7.77
24.40
36.69
42.84
42.74
38.10
31.80
26.70
24.49
25.16
27.48
30.06
32.27
34.38
37.19
41.24
46.18
50.94
54.29
55.48
54.70
52.69
50.17
47.57
44.76
41.12
36.02
29.25
21.22
13.05
5.73
-0.35
-5.29
-9.68
-14.22
-19.32
-24.76
-29.64
-32.48
-32.16
-28.44
-21.33
-11.28
0.95
14.49
28.39
41.62
53.39
62.47
67.38
67.59
63.58
56.51
47.80
38.45
27.02
14.78
5.75
0.49
-1.74
-2.01
-2.24
-4.89
-12.42
-25.44
-41.62
-56.97
-67.34
-70.07
-64.59
-52.70
-37.90
-24.88
-17.28
-16.16
-20.59
-28.23
-36.80
-44.20
-49.05
-51.08
-51.98
-53.49
-56.16
-59.64
-62.89
-66.01
-69.28
-72.77
-69.38
-55.43
-32.98
-7.97
10.56
22.89
29.44
30.03
25.91
18.35
8.39
-2.12
-10.78
-15.66
-15.72
-12.47
-8.14
-4.56
-2.93
-4.31
-8.73
-15.19
-22.09
-27.61
-31.32
-33.27
-33.66
-32.92
-31.83
-30.64
-28.75
-24.98
-18.25
-9.07
0.83
9.15
13.84
13.86
10.06
4.93
1.59
2.57
8.51
18.27
29.60
39.89
47.07
50.20
49.56
46.36
42.01
37.42
32.73
27.48
21.06
13.37
5.09
-2.34
-7.38
-8.94
-6.87
-1.89
4.65
11.30
16.84
20.41
21.58
20.19
16.34
10.46
3.42
-3.50
-8.61
-10.27
-7.29
0.73
12.79
26.57
39.03
47.22
48.95
43.41
31.17
14.05
-5.06
-22.99
-36.91
-44.87
-46.11
-41.30
-32.00
-20.22
-7.81
4.05
14.42
22.39
27.22
28.75
27.46
24.70
22.09
19.05
15.65
12.29
9.11
5.62
2.15
-1.87
-6.39
-10.86
-14.69
-17.56
-19.47
-21.12
-23.44
-26.93
-31.37
-35.44
-37.40
-35.93
-30.68
-22.89
-14.85
-8.65
-5.21
-4.14
-3.87
-2.49
1.41
8.47
17.34
25.78
32.02
35.79
37.83
38.78
38.59
36.85
33.54
29.23
25.00
22.01
20.90
21.43
22.78
24.07
24.73
24.54
23.98
22.35
19.07
13.66
5.85
-4.12
-15.39
-26.62
-36.46
-43.31
-46.71
-47.21
-45.87
-43.75
-41.66
-40.09
-39.32
-39.48
-40.78
-42.21
-42.26
-39.49
-32.98
-22.86
-10.29
2.96
15.23
24.78
30.82
33.73
34.36
33.50
31.73
29.57
27.58
26.19
25.49
25.13
24.45
22.86
20.24
17.01
13.93
11.52
9.71
7.91
5.43
1.83
-2.66
-7.34
-11.28
-13.72
-14.32
-13.41
-11.66
-9.43
-6.79
-3.58
0.08
3.43
5.02
3.59
-0.73
-5.66
-7.41
-2.58
9.52
25.77
39.81
45.35
39.54
24.51
6.26
-8.53
-15.83
-15.74
-11.63
-7.55
-5.94
-6.92
-8.97
-10.67
-11.76
-13.06
-15.55
-19.36
-23.45
-26.09
-25.96
-22.85
-17.74
-12.12
-7.27
-3.91
-2.17
-1.84
-2.45
-3.46
-4.27
-4.36
-3.53
-1.89
0.20
2.33
4.23
5.71
6.66
6.88
6.18
4.56
2.31
-0.11
-2.29
-4.04
-5.56
-7.18
-9.19
-11.61
-14.33
-17.02
-19.43
-21.27
-22.33
-22.48
-21.81
-20.53
-19.01
-17.53
-16.06
-14.46
-12.54
-10.08
-6.83
-2.54
2.91
9.32
16.00
21.99
26.42
29.11
30.69
32.39
35.23
39.24
43.17
45.06
43.27
37.46
28.90
19.90
12.69
8.50
7.26
7.89
9.05
9.79
9.58
8.44
6.44
3.50
-0.67
-6.41
-13.77
-22.07
-29.76
-34.89
-35.77
-31.89
-24.33
-15.58
-8.31
-4.06
-2.59
-2.14
-0.89
2.16
6.57
10.99
14.07
15.28
15.02
13.96
12.29
9.10
3.17
-6.18
-18.31
-31.24
-42.36
-49.51
-51.95
-49.09
-42.48
-34.59
-27.75
-23.19
-20.72
-19.13
-17.10
-13.96
-9.94
-6.10
-3.28
-1.60
-0.39
1.26
3.83
7.00
9.74
10.97
10.05
7.36
4.15
1.86
1.50
3.13
6.12
9.53
12.58
14.76
15.98
16.50
16.66
16.79
17.01
17.44
18.17
19.27
20.68
22.29
23.96
25.58
27.07
28.22
29.02
29.60
30.17
30.90
31.93
33.47
35.78
39.04
42.90
47.14
51.71
56.47
61.01
64.70
67.08
68.01
67.65
65.62
62.33
58.76
55.63
52.74
49.13
43.98
37.29
29.78
21.35
12.75
4.84
-2.72
-12.14
-26.62
-49.01
-80.81
-122.26
-173.51
-230.91
-286.83
-331.56
-356.61
-357.19
-333.57
-290.68
-225.29
-145.63
-66.64
-0.86
47.60
80.56
100.57
109.20
110.37
106.81
99.84
91.75
85.01
80.23
75.63
68.52
56.00
38.78
19.50
0.07
-17.55
-31.25
-40.17
-45.14
-47.94
-50.11
-52.06
-53.91
-56.24
-58.61
-58.13
-51.50
-36.66
-13.91
14.32
44.51
72.59
94.95
110.23
121.15
131.72
144.99
161.52
179.88
197.90
213.53
225.29
223.12
201.61
162.74
115.74
71.37
36.53
13.05
-1.06
-9.69
-16.59
-22.68
-27.18
-28.72
-26.78
-21.94
-15.54
-9.17
-4.14
-1.28
0.00
-0.12
-2.39
-8.36
-18.82
-32.63
-46.87
-58.24
-64.64
-65.31
-61.50
-55.29
-48.91
-43.61
-39.45
-35.98
-33.05
-31.17
-30.88
-33.11
-37.35
-43.00
-49.01
-54.37
-58.73
-62.41
-66.46
-70.70
-75.96
-81.83
-87.65
-93.14
-98.45
-103.52
-107.13
-106.60
-98.41
-80.23
-52.31
-18.36
15.57
43.47
61.51
69.17
68.39
62.32
53.85
45.35
38.72
35.61
37.71
45.71
58.46
71.71
79.48
75.83
57.20
24.68
-15.70
-54.08
-80.21
-87.03
-73.73
-45.48
-11.18
20.35
43.51
56.62
61.39
60.00
55.23
48.10
38.89
28.37
18.82
14.39
17.98
30.70
49.93
69.53
81.33
78.20
56.99
19.30
-26.60
-70.27
-102.03
-116.11
-110.89
-89.30
-57.35
-22.25
9.57
33.82
47.83
52.39
50.11
44.12
36.72
29.31
22.91
19.00
19.05
23.39
30.58
37.12
38.90
33.14
20.20
2.95
-13.73
-25.30
-29.63
-27.38
-21.31
-14.56
-9.27
-6.00
-4.26
-3.24
-2.56
-2.39
-2.93
-4.09
-5.36
-6.12
-5.87
-4.62
-2.65
-0.47
1.51
3.10
