1587318394.00
64.000000
-0.00
-0.00
-0.00
-0.00
-0.00
-0.00
-0.00
-0.00
-0.00
-0.00
0.00
0.01
0.01
-0.00
-0.03
-0.05
-0.05
0.00
0.13
0.36
0.66
1.01
1.37
1.72
2.06
2.40
2.79
3.24
3.80
4.42
5.06
5.66
6.20
6.68
7.15
7.68
8.31
9.14
10.09
11.04
11.88
12.56
13.14
13.76
14.65
15.96
17.91
20.32
22.90
25.38
27.58
29.57
31.68
34.32
37.81
42.54
48.15
54.10
59.83
64.97
69.58
74.14
79.34
85.71
93.76
103.00
112.62
121.73
129.77
136.75
143.30
150.75
157.77
166.64
177.95
191.79
206.97
220.57
228.25
225.36
208.53
176.87
132.76
80.05
23.07
-34.94
-92.44
-149.16
-205.23
-260.37
-313.74
-363.87
-409.83
-450.91
-486.50
-515.74
-537.23
-549.22
-549.96
-538.37
-514.21
-478.67
-433.88
-382.45
-327.02
-269.84
-212.63
-156.66
-102.95
-52.37
-5.90
35.58
71.43
101.35
125.50
144.37
158.69
169.15
176.38
180.78
182.62
182.10
179.48
175.12
169.43
162.85
155.74
148.38
140.88
133.31
125.67
117.97
110.26
102.63
95.18
88.00
81.15
74.61
68.37
62.37
56.58
50.99
45.65
40.64
36.05
31.92
28.21
24.82
21.57
18.35
15.11
11.95
9.07
6.68
4.90
3.67
2.72
1.71
0.34
-1.47
-3.53
-5.46
-6.83
-7.41
-7.30
-6.91
-6.84
-7.54
-9.16
-11.40
-13.63
-15.25
-15.90
-15.60
-14.82
-14.14
-14.13
-15.21
-17.68
-21.50
-26.06
-29.94
-31.01
-27.17
-17.36
-2.38
15.11
31.39
43.15
48.76
48.63
44.63
38.98
33.25
27.98
23.14
18.64
14.75
12.04
10.93
11.35
12.65
13.97
14.56
14.16
12.94
11.26
9.37
7.33
5.10
2.69
0.31
-1.70
-3.02
-3.59
-3.60
-3.40
-3.29
-3.35
-3.50
-3.60
-3.54
-3.32
-3.00
-2.60
-2.15
-1.67
-1.25
-1.01
-1.03
-1.17
-0.90
0.59
4.11
10.04
17.98
26.64
34.27
39.30
40.69
38.51
33.72
27.68
21.56
16.01
11.09
6.49
1.91
-2.76
-7.26
-11.22
-14.36
-16.58
-17.96
-18.66
-18.76
-18.23
-17.06
-15.37
-13.51
-12.00
-11.32
-11.66
-12.85
-14.45
-15.99
-17.17
-17.90
-18.25
-18.29
-18.09
-17.67
-17.15
-16.76
-16.82
-17.55
-18.91
-20.61
-22.30
-23.63
-24.38
-24.52
-24.16
-23.60
-23.29
-23.56
-24.80
-27.20
-30.53
-33.97
-36.17
-35.62
-31.19
-22.68
-10.63
3.42
17.62
30.41
40.99
49.37
56.24
62.66
67.96
72.12
75.14
76.92
77.31
76.17
73.38
69.02
63.42
57.06
50.81
45.30
40.89
37.65
35.41
33.86
32.65
31.41
29.73
27.51
24.63
21.14
17.15
12.79
8.13
3.15
-2.18
-7.87
-13.65
-19.16
-24.06
-28.19
-31.71
-35.11
-39.03
-44.02
-50.24
-57.31
-64.52
-71.13
-76.68
-81.20
-85.25
-89.63
-95.19
-102.40
-111.09
-120.28
-128.27
-132.87
-132.03
-124.43
-109.95
-89.86
-66.42
-42.16
-19.11
1.64
19.98
36.31
51.03
64.16
75.36
84.21
90.43
94.16
95.76
95.72
94.42
92.09
88.86
84.87
80.36
75.73
71.38
67.63
64.63
62.24
60.11
57.68
54.39
49.91
44.24
37.69
30.80
24.06
17.80
12.05
6.66
1.31
-4.30
-10.35
-16.85
-23.60
-30.29
-36.56
-42.12
-46.81
-50.67
-53.98
-57.26
-61.23
-66.63
-73.95
-83.05
-92.80
-101.16
-105.62
-103.96
-95.08
-79.42
-58.85
-36.02
-13.43
7.21
25.18
40.52
53.51
64.34
72.96
79.25
83.12
84.65
84.06
81.64
77.71
72.67
66.98
61.11
55.50
50.40
45.94
42.08
38.71
35.76
33.10
30.65
28.25
25.77
23.03
19.87
16.10
11.65
6.57
1.13
-4.28
-9.39
-14.19
-19.01
-24.33
-30.54
-37.63
-45.15
-52.47
-59.01
-64.59
-69.44
-74.17
-79.53
-86.17
-94.48
-104.42
-115.41
-126.18
-134.87
-139.36
-137.84
-129.37
-114.28
-94.01
-70.66
-46.40
-22.89
-1.11
18.58
36.20
51.84
65.51
77.09
86.39
93.25
97.64
99.70
99.79
98.40
96.04
93.06
89.70
86.09
82.42
78.92
75.82
73.15
70.71
68.11
64.89
60.73
55.55
49.51
42.91
36.03
29.16
22.55
16.39
10.81
5.75
1.00
-3.88
-9.29
-15.46
-22.32
-29.49
-36.45
-42.91
-48.86
-54.67
-60.95
-68.21
-76.85
-87.02
-98.74
-111.74
-125.42
-138.60
-149.51
-156.18
-157.03
-151.56
-140.55
-125.72
-108.96
-91.58
-74.02
-56.10
-37.71
-19.30
-1.91
13.15
25.00
33.56
39.49
43.84
47.49
50.88
54.05
56.93
59.54
62.16
65.16
68.81
73.19
78.12
83.33
88.67
94.12
99.72
105.42
110.83
115.19
117.44
116.45
111.27
101.40
86.93
68.72
48.29
27.60
8.70
-6.71
-17.69
-24.19
-26.99
-27.38
-26.83
-26.60
-27.62
-30.45
-35.30
-41.99
-49.88
-57.74
-63.84
-66.29
-63.61
-55.23
-41.81
-24.97
-6.84
10.72
26.46
39.74
50.21
57.43
60.78
59.80
54.66
46.44
37.00
28.34
21.94
18.30
16.92
16.88
17.26
17.59
17.80
17.99
18.16
18.06
17.24
15.19
11.53
6.16
-0.67
-8.42
-16.41
-24.06
-31.00
-37.25
-43.08
-48.96
-55.43
-62.91
-71.59
-81.31
-91.28
-100.10
-105.86
-106.65
-101.13
-89.09
-71.59
-50.68
-28.64
-7.41
11.82
28.58
42.80
54.46
63.38
69.33
72.26
72.47
70.66
67.70
64.38
61.12
58.01
54.88
51.57
48.08
44.50
40.98
37.51
33.95
30.05
25.56
20.29
14.10
6.93
-1.29
-10.49
-20.45
-30.76
-40.89
-50.39
-58.99
-66.72
-73.87
-80.91
-88.45
-97.21
-107.70
-119.92
-132.89
-144.45
-151.76
-152.05
-143.66
-126.66
-102.86
-75.07
-46.28
-18.81
5.87
27.05
44.56
58.53
69.41
77.90
84.79
90.71
95.80
99.65
101.55
100.83
97.33
91.55
84.60
77.90
72.59
69.13
67.03
64.95
61.16
54.14
43.22
28.88
12.63
-3.48
-17.58
-28.71
-37.11
-44.17
-51.69
-61.03
-72.34
-84.43
-95.30
-103.09
-107.07
-108.09
-108.26
-110.10
-115.50
-124.96
-137.32
-150.16
-160.42
-165.18
-162.35
-151.05
-131.70
-105.82
-75.55
-43.21
-10.97
19.38
46.53
69.69
88.74
104.12
116.64
127.07
135.81
142.71
147.21
148.73
147.10
142.74
136.57
129.74
123.24
117.71
113.33
109.83
106.57
102.71
97.46
90.34
81.40
71.21
60.67
50.60
41.39
32.87
24.48
15.59
5.87
-4.55
-15.16
-25.40
-34.86
-43.45
-51.38
-59.04
-66.96
-75.69
-85.74
-97.36
-110.18
-122.97
-133.62
-139.68
-139.02
-130.68
-115.23
-94.60
-71.31
-47.63
-24.95
-3.67
16.33
35.15
52.50
67.72
80.14
89.43
95.79
99.71
101.71
102.10
100.97
98.40
94.71
90.48
86.42
83.06
80.56
78.68
76.90
74.72
71.74
67.75
62.71
56.63
49.62
41.86
33.66
25.43
17.57
10.26
3.38
-3.44
-10.70
-18.72
-27.46
-36.46
-45.06
-52.72
-59.29
-65.09
-70.81
-77.28
-85.14
-94.64
-105.46
-116.61
-126.52
-133.27
-135.04
-130.61
-119.75
-103.27
-82.73
-59.98
-36.70
-14.02
7.38
27.15
45.08
60.87
74.18
84.68
92.18
96.68
98.47
98.00
95.87
92.69
89.06
85.43
82.14
79.33
77.02
75.08
73.29
71.40
69.12
66.14
62.24
57.26
51.22
44.34
36.96
29.44
22.07
14.93
7.90
0.75
-6.73
-14.60
-22.70
-30.72
-38.35
-45.41
-51.96
-58.24
-64.59
-71.33
-78.71
-86.86
-95.80
-105.23
-114.42
-121.99
-126.16
-125.16
-117.90
-104.38
-85.80
-64.17
-41.60
-19.73
0.52
18.83
35.20
49.60
61.86
71.71
78.93
83.51
85.73
86.02
84.88
82.72
79.80
76.26
72.26
68.07
64.11
60.80
58.40
56.73
55.19
52.98
49.39
44.16
37.62
30.44
23.31
16.66
10.44
4.31
-2.14
-9.20
-16.88
-24.98
-33.11
-40.91
-48.06
-54.48
-60.33
-66.07
-72.37
-79.87
-88.97
-99.42
-110.21
-119.62
-125.57
-126.20
-120.40
-108.24
-90.95
-70.50
-49.04
-28.29
-9.22
7.94
23.35
37.24
49.63
60.35
69.06
75.53
79.76
82.00
82.76
82.63
82.11
81.44
80.59
79.43
77.82
75.85
73.71
71.59
69.45
66.97
63.69
59.27
53.72
47.43
40.97
34.82
29.12
23.60
17.75
11.09
3.49
-4.86
-13.49
-21.94
-29.87
-37.23
-44.15
-50.83
-57.43
-64.07
-70.97
-78.53
-87.21
-97.25
-108.20
-118.72
-126.73
-129.95
-126.68
-116.46
-100.26
-80.03
-58.10
-36.39
-16.01
2.72
19.90
35.58
49.47
60.93
69.29
74.17
75.79
74.90
72.53
69.57
66.55
63.61
60.66
57.64
54.74
52.22
50.29
48.90
47.77
46.50
44.72
42.18
38.72
34.25
28.80
22.70
16.51
10.98
6.65
3.58
1.20
-1.40
-5.11
-10.33
-16.77
-23.62
-30.01
-35.38
-39.75
-43.63
-47.80
-53.04
-59.93
-68.83
-79.86
-92.82
-106.96
-120.89
-132.52
-139.44
-139.53
-131.64
-116.09
-94.61
-69.82
-44.38
-20.31
1.34
20.30
36.66
50.46
61.49
69.45
74.31
76.56
77.09
76.91
76.61
76.17
75.03
72.54
68.49
63.39
58.27
54.19
51.67
50.40
49.29
47.11
42.93
36.62
28.83
20.62
12.97
6.35
0.64
-4.75
-10.44
-16.86
-23.95
-31.34
-38.46
-44.88
-50.42
-55.19
-59.57
-64.04
-69.04
-74.95
-82.02
-90.20
-98.94
-107.05
-112.79
-114.25
-109.93
-99.27
-82.89
-62.38
-39.78
-16.97
4.77
24.72
42.53
57.90
70.41
79.62
85.27
87.52
86.99
84.63
81.43
78.17
75.24
72.70
70.34
67.96
65.45
62.79
60.01
57.04
53.72
49.88
45.48
40.58
35.31
29.74
23.81
17.48
10.77
3.86
-3.00
-9.68
-16.28
-23.16
-30.67
-38.92
-47.60
-56.08
-63.67
-70.00
-75.17
-79.84
-85.01
-91.69
-100.61
-111.87
-124.73
-137.54
-147.92
-153.33
-151.81
-142.51
-126.00
-104.02
-78.93
-53.05
-28.08
-4.86
16.42
35.85
53.47
69.08
82.24
92.53
99.52
103.23
104.17
103.10
100.70
97.48
93.79
90.01
86.68
84.09
82.57
82.39
83.42
84.88
85.59
84.40
80.74
74.83
67.17
59.07
52.36
48.65
48.28
50.17
51.96
50.93
44.93
32.55
14.63
-5.64
-23.66
-35.30
-37.91
-31.37
-17.74
2.75
26.27
47.01
60.90
68.50
73.43
79.41
87.65
97.47
107.07
114.57
119.84
123.34
127.17
132.13
137.77
142.46
145.16
145.09
141.89
136.30
129.50
121.90
111.71
100.72
88.54
74.97
58.41
38.08
15.21
-7.52
-27.48
-43.55
-55.60
-64.56
-70.94
-78.92
-91.25
-107.27
-123.52
-136.56
-144.90
-148.54
-148.55
-145.74
-147.18
-157.86
-177.66
-202.14
-226.66
-249.13
-269.47
-288.51
-306.81
-333.17
-373.81
-428.51
-491.63
-557.23
-622.39
-686.47
-749.42
-756.81
-680.69
-534.03
-361.24
-203.31
-79.09
10.24
70.99
110.72
136.04
144.23
135.55
117.97
104.60
106.34
126.33
159.94
198.40
233.31
253.32
253.73
238.81
217.46
197.63
182.97
173.88
170.13
172.04
176.05
179.04
180.40
180.49
180.14
179.62
179.45
180.93
185.74
193.19
198.00
200.27
200.11
196.52
186.78
167.77
138.30
100.70
59.79
21.64
-6.76
-25.93
-38.97
-50.36
-63.95
-81.16
-100.64
-119.50
-135.03
-145.24
-150.24
-150.55
-146.38
-138.05
-126.14
-111.74
-96.36
-81.67
-68.42
-56.62
-47.70
-40.84
-34.38
-26.54
-16.00
-2.15
14.88
34.50
55.35
75.96
95.13
111.69
124.92
134.74
141.56
145.82
147.61
146.30
140.99
131.42
118.09
102.29
85.67
69.34
53.24
36.20
16.71
-6.13
-31.76
-58.70
-85.25
-110.41
-134.48
-158.85
-185.50
-216.15
-251.62
-291.00
-331.51
-368.42
-395.71
-407.41
-399.49
-371.29
-325.96
-269.39
-208.20
-147.57
-90.12
-36.02
15.98
67.37
118.99
170.58
220.69
266.75
305.36
332.91
346.59
345.21
329.79
303.17
269.26
232.05
194.93
160.47
130.45
106.08
87.88
75.58
67.96
63.01
58.36
52.03
43.12
32.15
21.08
12.49
8.65
10.56
17.56
27.50
37.40
44.29
46.01
41.76
32.34
20.13
8.83
2.41
4.11
15.32
35.26
61.51
91.16
121.95
152.50
181.86
208.40
229.10
239.73
236.00
214.95
176.01
120.97
53.30
-22.75
-102.63
-181.35
-253.18
-311.66
-350.56
-365.32
-354.63
-321.29
-271.73
-214.53
-158.32
-109.91
-73.33
-49.65
-37.70
-34.98
-38.38
-44.83
-51.58
-56.50
-58.25
-56.40
-51.43
-44.57
-37.41
-31.59
-28.48
-28.87
-32.63
-38.57
-44.46
-47.35
-44.35
-33.48
-14.35
11.73
42.11
73.66
103.59
130.06
152.17
169.80
183.17
192.69
199.04
203.32
207.23
212.87
222.17
236.18
254.40
274.56
292.96
305.22
307.32
296.43
271.32
232.47
181.87
122.83
59.82
-1.95
-57.17
-101.46
-132.44
-150.32
-157.67
-158.38
-156.18
-153.44
-150.85
-147.87
-143.77
-138.71
-134.05
-131.92
-134.25
-141.97
-154.62
-170.41
-186.58
-199.89
-207.17
-206.01
-195.25
-175.18
-147.37
-114.01
-77.04
-37.48
4.65
49.58
96.89
144.98
191.54
234.14
271.04
301.62
326.58
347.57
366.42
384.17
400.80
415.47
426.28
430.43
424.69
406.53
375.27
332.14
279.64
221.22
161.07
102.84
48.58
-1.83
-50.06
-97.94
-147.06
-198.56
-251.60
-302.35
-344.90
-373.11
-382.77
-372.72
-344.54
-302.65
-253.75
-211.40
-188.02
-188.33
-206.45
-231.49
-254.91
-272.26
-279.32
-278.38
-271.09
-257.45
-236.96
-209.65
-176.19
-140.57
-104.71
-69.09
-33.82
2.13
40.57
82.79
128.28
173.88
214.53
245.66
264.53
270.90
267.91
260.70
253.70
248.35
242.24
230.47
208.79
175.39
131.30
80.03
25.63
-28.89
-81.85
-131.86
-176.49
-211.57
-232.53
-236.88
-225.55
-203.23
-176.71
-152.39
-134.11
-122.53
-115.79
-111.38
-107.62
-104.02
-101.01
-99.04
-98.01
-97.07
-94.84
-89.79
-80.72
-67.07
-49.01
-27.34
-3.18
22.34
48.19
73.50
97.38
118.99
137.53
152.47
163.73
171.67
176.97
180.45
182.78
184.39
185.36
185.46
184.34
181.68
177.51
172.30
166.70
161.07
155.00
147.05
135.00
116.70
90.83
57.58
18.50
-23.91
-66.99
-108.48
-146.67
-180.21
-207.83
-228.28
-240.65
-244.79
-241.74
-233.71
-223.66
-214.57
-208.66
-206.81
-208.35
-211.24
-212.53
-209.10
-198.37
-179.06
-151.58
-118.04
-81.79
-46.53
-15.38
9.98
29.43
44.19
56.09
66.74
76.99
86.79
95.49
102.29
106.78
109.07
109.74
109.50
108.87
108.02
106.81
104.87
101.84
97.51
91.90
85.28
78.13
70.93
64.04
57.48
51.01
44.33
37.33
30.27
23.77
18.57
15.27
14.15
15.18
18.19
22.97
29.25
36.46
43.69
49.80
53.87
55.76
56.15
56.21
56.79
57.63
57.14
52.97
43.07
26.76
5.15
-19.34
-43.96
-66.65
-86.55
-103.70
-118.40
-130.54
-139.25
-143.17
-141.02
-132.23
-117.35
-97.94
-76.22
-54.44
-34.49
-17.49
-3.88
6.49
14.13
19.82
24.63
29.82
36.76
46.53
59.56
75.32
92.36
108.81
123.03
134.10
142.04
147.40
150.81
152.46
152.13
149.42
144.17
136.58
127.19
116.50
104.99
93.09
81.31
70.19
60.01
50.54
40.95
30.21
17.80
4.35
-8.29
-17.56
-21.31
-18.95
-12.11
-4.52
-0.80
-4.85
-18.19
-39.21
-63.69
-86.50
-103.76
-114.31
-119.97
-124.26
-130.40
-139.67
-151.00
-161.83
-169.54
-172.61
-170.72
-164.18
-153.19
-137.51
-117.07
-92.72
-66.72
-42.25
-22.37
-9.01
-2.58
-2.39
-7.45
-16.90
-29.99
-45.72
-62.71
-79.46
-95.01
-109.28
-122.79
-135.83
-147.65
-156.30
-159.30
-154.73
-142.13
-122.70
-98.56
-71.81
-43.79
-14.86
15.14
46.33
78.49
110.99
143.34
175.65
208.81
244.11
282.45
323.49
365.28
404.57
437.69
461.53
474.24
475.29
465.22
445.21
416.81
381.81
342.18
299.94
256.77
213.84
171.48
129.32
86.51
42.19
-3.92
-50.97
-96.76
-138.09
-171.65
-195.29
-208.68
-213.41
-212.24
-207.93
-202.47
-196.69
-190.66
-184.23
-177.75
-172.16
-168.94
-169.75
-176.17
-189.24
-209.15
-234.82
-263.92
-293.37
-320.01
-341.34
-356.27
-365.44
-371.17
-376.82
-385.74
-400.08
-420.12
-443.45
-465.11
-479.00
-479.94
-465.65
-437.43
-399.47
-357.13
-315.81
-278.68
-245.95
-215.42
-184.40
-151.30
-116.11
-79.98
-44.32
-11.41
17.31
42.14
65.08
88.97
116.28
148.26
184.46
222.35
255.62
277.10
281.66
268.07
238.85
198.87
153.87
109.64
81.72
80.71
106.89
149.16
192.23
224.32
239.75
237.98
222.50
198.59
169.49
136.21
100.08
64.13
32.82
10.66
0.70
4.40
20.47
43.31
65.78
82.24
90.34
90.26
84.33
75.77
69.08
68.59
76.33
92.96
118.31
151.19
188.90
226.89
252.76
256.20
235.70
199.93
162.36
132.43
111.60
95.58
79.23
60.38
41.80
30.23
27.07
30.34
36.02
40.14
40.88
38.76
35.54
33.62
34.09
35.85
35.25
29.68
18.30
2.42
-15.42
-32.75
-47.67
-59.68
-69.83
-79.54
-89.76
-100.58
-111.10
-119.98
-126.08
-128.70
-127.88
-124.65
-120.25
-115.73
-111.77
-108.47
-105.54
-102.65
-99.64
-96.75
-94.68
-94.17
-95.67
-99.20
-104.05
-108.80
-111.55
-110.32
-103.61
-90.88
-72.62
-50.28
-25.80
-1.11
22.25
43.33
61.68
77.19
89.89
99.89
107.37
112.51
115.54
116.64
115.97
113.71
110.12
105.56
100.45
95.19
90.10
85.34
80.86
76.54
72.19
67.61
62.67
57.19
51.00
43.99
36.17
27.73
19.06
10.65
2.85
-4.29
-11.08
-18.04
-25.68
-34.16
-43.19
-52.00
-59.63
-65.23
-68.36
-69.15
-68.24
-66.59
-65.20
-64.86
-65.91
-68.14
-70.75
-72.44
-71.68
-67.00
-57.39
-42.59
-23.24
-0.82
22.69
45.22
65.08
81.24
93.27
101.23
105.33
105.76
102.73
96.78
88.94
80.71
73.69
69.01
66.87
66.53
66.74
66.32
64.65
61.80
58.31
54.69
51.13
47.44
43.27
38.40
33.01
27.60
22.84
19.22
16.84
15.41
14.34
13.05
11.20
8.78
6.04
3.34
0.96
-1.06
-3.00
-5.40
-8.96
-14.40
-22.05
-31.69
-42.24
-51.84
-58.17
-59.04
-53.02
-39.94
-20.93
1.93
26.51
51.51
77.02
104.33
134.96
169.51
206.70
243.34
275.20
298.36
310.40
311.03
301.84
285.61
265.57
244.77
225.59
209.32
195.68
182.79
167.46
146.18
116.13
76.04
26.10
-32.37
-97.50
-166.91
-237.31
-304.21
-362.04
-405.31
-430.12
-435.55
-423.91
-399.79
-368.36
-333.75
-298.30
-262.94
-228.15
-194.97
-165.23
-141.06
-124.08
-114.77
-112.40
-115.67
-123.37
-134.94
-150.35
-169.46
-191.16
-212.91
-230.94
-241.12
-240.27
-227.16
-202.93
-170.74
-134.62
-98.27
-64.14
-33.16
-5.07
20.88
45.20
67.82
88.12
105.27
118.69
128.33
134.79
139.02
142.08
144.71
147.17
149.28
150.69
151.09
150.43
148.87
146.62
143.79
140.23
135.75
130.23
123.93
117.40
111.41
106.70
103.71
102.50
102.85
104.46
107.18
111.05
116.13
122.20
128.67
134.69
139.52
142.98
145.52
147.92
150.73
153.72
155.85
155.56
151.41
142.50
128.61
109.90
86.77
59.77
30.00
-0.71
-29.76
-54.51
-73.01
-84.69
-90.36
-91.68
-90.45
-87.94
-84.83
-81.48
-78.31
-75.93
-74.96
-75.80
-78.43
-82.55
-87.80
-93.92
-100.65
-107.51
-113.70
-118.25
-120.40
-119.96
-117.34
-113.24
-108.27
-102.58
-95.93
-88.02
-78.90
-69.01
-59.09
-49.74
-41.15
-33.21
-25.75
-18.81
-12.78
-8.16
-5.22
-3.80
-3.29
-3.05
-2.69
-2.43
-3.09
-5.92
-12.29
-23.48
-40.41
-63.72
-93.74
-130.37
-172.90
-219.71
-267.87
-313.19
-350.72
-375.66
-384.64
-376.72
-353.56
-318.88
-277.27
-232.98
-189.07
-147.28
-108.22
-71.77
-37.29
-3.83
29.87
65.08
102.66
142.75
184.38
225.49
263.05
293.61
314.03
322.28
318.14
303.36
281.17
255.37
229.23
204.84
183.00
163.61
146.02
129.20
111.51
90.60
63.70
28.58
-15.29
-65.96
-119.22
-169.84
-213.22
-246.78
-270.41
-285.91
-295.92
-302.70
-307.31
-309.24
-306.45
-296.03
-275.14
-242.36
-198.93
-149.05
-99.06
-55.44
-22.56
-1.24
11.29
19.83
29.02
41.51
57.49
75.34
93.10
109.56
124.65
138.89
152.57
165.14
175.26
181.52
183.18
180.67
175.41
169.18
163.26
157.98
152.77
146.75
139.48
131.42
123.97
118.98
117.91
121.18
127.93
136.33
144.32
150.45
154.33
156.67
158.65
161.06
163.51
164.10
159.82
147.31
123.84
88.11
40.51
-16.82
-80.25
-144.95
-205.31
-255.52
-290.38
-306.26
-302.04
-279.54
-243.48
-200.48
-157.77
-121.57
-95.96
-82.28
-79.25
-83.55
-90.84
-96.66
-97.33
-90.50
-75.44
-53.04
-25.47
4.40
33.72
60.28
82.87
101.41
116.51
129.05
139.72
148.73
155.82
160.40
161.91
160.18
155.56
148.99
141.68
134.76
128.82
123.87
119.40
114.69
109.20
102.63
94.85
85.83
75.53
63.92
51.28
38.26
25.77
14.62
5.20
-2.73
-9.82
-16.72
-23.64
-30.22
-35.73
-39.53
-41.42
-41.71
-41.05
-39.93
-38.51
-36.56
-33.80
-30.21
-26.21
-22.66
-20.58
-20.84
-23.78
-28.99
-34.96
-39.24
-38.75
-30.62
-13.14
13.53
47.37
85.27
124.22
162.30
198.99
234.63
269.32
302.11
330.86
352.85
366.01
369.81
365.46
355.24
341.23
324.27
303.59
277.37
243.81
202.04
152.57
97.25
39.11
-17.68
-68.04
-106.53
-128.64
-132.42
-119.67
-95.87
-68.46
-44.08
-26.12
-13.81
-3.60
8.18
22.67
37.36
47.12
46.61
32.75
5.96
-30.41
-71.75
-114.07
-155.15
-194.32
-231.67
-267.32
-301.15
-333.50
-365.92
-401.54
-444.16
-496.17
-556.28
-618.43
-672.71
-708.42
-718.03
-699.95
-658.87
-603.46
-542.58
-482.08
-423.63
-365.79
-306.49
-245.28
-184.19
-127.00
-77.64
-38.69
-10.68
7.74
18.96
25.60
29.77
33.09
36.97
42.90
52.54
67.44
88.57
115.96
148.58
184.63
222.13
259.39
295.34
329.60
362.20
392.94
420.86
444.04
459.92
466.42
463.01
451.36
434.82
416.96
399.71
382.27
361.43
333.16
294.65
245.82
189.25
128.97
68.75
10.73
-44.82
-99.02
-153.49
-210.00
-270.20
-335.10
-404.02
-473.45
-536.62
-584.72
-609.62
-606.87
-577.66
-528.27
-467.69
-404.20
-343.09
-286.05
-232.42
-180.83
-130.32
-80.42
-30.90
18.46
67.36
114.49
157.33
192.90
218.79
234.16
240.17
239.59
235.84
232.10
230.56
232.07
236.29
241.95
247.43
251.45
253.45
253.79
253.26
252.37
250.76
247.20
240.02
228.01
211.09
190.55
168.84
148.90
133.40
124.16
121.65
124.87
131.34
137.46
139.11
132.62
115.68
88.28
52.94
14.35
-22.04
-51.53
-71.83
-83.65
-89.99
-94.62
-100.12
-106.84
-113.10
-116.57
-115.82
-111.36
-105.48
-101.00
-99.91
-102.44
-107.01
-111.16
-112.70
-110.57
-105.03
-97.24
-88.42
-79.32
-69.97
-60.06
-49.54
-38.94
-29.32
-21.74
-16.59
-13.26
-10.40
-6.71
-1.81
3.25
6.37
5.27
-1.36
-13.26
-28.62
-44.89
-59.73
-71.78
-80.88
-87.74
-93.47
-99.11
-105.41
-112.95
-122.12
-133.12
-145.52
-158.06
-168.53
-174.14
-172.24
-161.19
-140.94
-113.16
-80.73
-46.89
-14.36
15.17
41.17
63.80
83.42
100.16
113.83
124.09
130.86
134.49
135.80
135.82
135.44
135.08
134.64
133.70
131.80
128.77
124.77
120.14
115.24
110.16
104.78
98.90
92.37
85.21
77.62
69.87
62.25
54.93
47.97
41.26
34.45
26.99
18.19
7.52
-5.12
-19.20
-33.61
-46.99
-58.26
-67.03
-73.78
-79.65
-86.05
-94.07
-104.12
-115.66
-127.18
-136.41
-140.87
-138.47
-128.17
-110.36
-86.78
-60.01
-32.78
-7.18
15.60
35.29
52.25
66.99
79.99
91.47
101.38
109.45
115.32
118.74
119.76
118.83
116.65
113.93
111.16
108.53
106.00
103.46
100.82
97.95
94.65
90.52
85.14
78.29
70.15
61.25
52.32
43.95
36.34
29.38
22.73
16.07
9.28
2.34
-4.69
-11.88
-19.35
-27.31
-35.84
-44.79
-53.79
-62.33
-69.87
-76.14
-81.23
-85.65
-90.24
-96.01
-103.81
-113.95
-125.79
-137.54
-146.46
-149.53
-144.36
-130.12
-107.93
-80.56
-51.45
-23.63
1.20
22.71
41.52
58.37
73.55
86.79
97.56
105.53
110.79
113.75
114.92
114.65
113.07
110.14
106.07
101.33
96.68
92.85
90.30
88.93
88.16
87.20
85.42
82.58
78.93
74.96
71.16
67.82
64.99
62.52
60.31
58.35
56.72
55.46
54.39
53.00
50.46
45.81
38.10
26.75
11.63
-6.84
-27.79
-50.06
-72.45
-93.98
-114.00
-132.31
-149.07
-164.51
-178.53
-190.42
-198.76
-201.77
-197.90
-186.54
-168.35
-145.08
-118.98
-92.07
-65.44
-39.31
-13.24
13.11
39.44
64.75
87.64
107.08
122.93
136.08
148.05
160.20
173.02
185.99
197.93
207.67
214.63
218.83
220.68
220.47
218.16
213.59
206.70
197.71
187.02
174.73
160.39
142.99
121.36
94.85
63.77
29.48
-6.06
-40.85
-73.42
-103.13
-130.01
-154.54
-177.24
-198.56
-218.84
-238.29
-256.88
-274.06
-288.46
-297.98
-300.19
-293.22
-276.59
-251.68
-221.48
-189.70
-159.69
-133.49
-111.66
-93.58
-78.22
-64.81
-53.23
-43.95
-37.67
-34.93
-35.77
-39.67
-45.75
-52.91
-59.99
-65.76
-68.90
-68.08
-62.42
-51.91
-37.71
-22.05
-7.52
3.81
11.06
14.66
15.79
15.59
14.54
12.29
8.16
1.76
-6.53
-15.72
-24.48
-31.83
-37.46
-41.84
-45.93
-50.94
-57.79
-66.89
-77.79
-88.97
-98.02
-102.03
-98.42
-85.77
-64.42
-36.34
-4.57
27.84
58.61
86.56
111.37
133.07
151.56
166.46
177.27
183.62
185.59
183.63
178.46
170.87
161.56
151.20
140.38
129.70
119.69
110.72
102.87
95.99
89.69
83.44
76.79
69.39
61.09
51.98
42.37
32.66
23.25
14.44
6.21
-1.65
-9.56
-17.95
-27.06
-36.82
-46.85
-56.59
-65.48
-73.21
-79.94
-86.33
-93.31
-101.80
-112.17
-123.94
-135.69
-145.28
-150.40
-149.25
-140.99
-125.97
-105.58
-81.77
-56.57
-31.63
-8.06
13.56
33.06
50.47
65.88
79.37
90.88
100.26
107.25
111.56
113.03
111.83
108.44
103.65
98.37
93.33
88.95
85.28
82.12
79.13
76.00
72.48
68.32
63.28
57.18
49.94
41.68
32.75
23.62
14.81
6.66
-0.65
-7.19
-13.27
-19.27
-25.52
-32.19
-39.20
-46.32
-53.19
-59.51
-65.13
-70.01
-74.29
-78.25
-82.33
-87.15
-93.42
-101.65
-111.74
-122.62
-132.25
-137.90
-137.00
-127.91
-110.54
-86.38
-58.03
-28.38
0.24
26.45
49.93
71.08
90.56
109.02
126.84
144.08
160.48
175.39
187.81
196.54
200.43
198.76
191.52
179.54
164.31
147.63
131.28
116.70
104.91
96.48
91.66
90.41
92.49
97.46
104.80
114.06
125.02
137.64
151.97
167.88
184.92
202.38
219.52
235.87
251.40
266.15
279.74
290.83
296.98
295.11
282.51
257.83
221.72
176.77
126.75
75.38
25.58
-21.09
-64.45
-105.16
-144.41
-183.85
-225.49
-271.40
-322.43
-376.63
-428.37
-468.91
-489.12
-483.02
-450.69
-398.75
-338.14
-280.20
-233.04
-200.01
-180.51
-172.25
-173.20
-182.29
-198.79
-221.16
-246.56
-271.30
-291.93
-306.11
-313.01
-313.27
-308.22
-299.12
-286.52
-269.98
-248.16
-219.34
-182.08
-135.80
-80.81
-18.07
51.03
124.60
199.78
272.31
336.61
386.81
418.22
428.72
419.33
393.62
356.32
311.84
263.40
212.72
160.39
106.62
51.87
-2.49
-54.15
-100.29
-138.27
-166.51
-184.83
-194.23
-196.08
-191.47
-180.90
-164.56
-142.96
-117.33
-89.59
-61.86
-35.92
-12.95
6.33
21.28
31.06
34.76
31.74
22.37
8.58
-5.82
-15.69
-15.86
-2.84
23.60
60.03
100.13
136.70
163.84
178.50
180.71
172.71
157.58
138.07
116.03
92.47
67.88
42.68
17.49
-6.85
-29.35
-49.22
-66.24
-80.64
-92.66
-101.86
-106.79
-105.50
-96.76
-81.36
-62.57
-45.32
-34.40
-32.61
-39.72
-52.80
-67.47
-79.73
-86.93
-88.18
-83.70
-74.01
-59.25
-38.98
-12.62
19.81
57.07
96.72
135.81
171.95
204.02
232.00
255.95
274.91
286.34
286.79
273.38
245.29
204.63
155.97
105.10
57.24
15.69
-18.76
-47.38
-72.53
-96.50
-120.72
-145.38
-169.78
-192.72
-213.03
-229.77
-242.29
-250.11
-253.02
-251.23
-245.52
-237.20
-227.66
-217.76
-207.33
-195.27
-180.26
-161.80
-141.00
-120.65
-104.39
-95.30
-94.63
-101.39
-112.90
-126.11
-138.81
-150.00
-159.33
-165.98
-168.01
-162.75
-148.02
-123.56
-91.71
-56.79
-23.48
4.89
27.37
45.15
60.37
74.77
88.87
101.89
112.44
119.27
121.68
119.54
113.03
102.55
88.93
74.04
61.04
54.00
56.67
70.91
95.53
126.35
157.48
183.38
200.61
208.48
208.45
202.94
194.27
184.18
174.04
165.09
158.31
154.05
151.57
149.09
144.46
136.25
124.56
111.12
98.47
88.72
82.47
78.61
75.15
70.43
64.16
57.39
51.63
47.60
44.24
38.90
28.32
10.14
-15.96
-48.06
-82.46
-114.77
-140.98
-158.28
-165.48
-163.20
-153.56
-139.59
-124.37
-110.16
-97.91
-87.44
-78.02
-69.07
-60.66
-53.42
-48.01
-44.55
-42.32
-39.93
-35.85
-28.91
-18.58
-5.06
11.03
28.76
47.13
65.06
81.39
94.86
104.38
109.17
109.16
105.07
98.36
90.69
83.51
77.45
72.34
67.42
61.82
55.01
46.89
37.63
27.49
16.58
4.98
-7.10
-19.19
-30.66
-41.01
-50.20
-58.71
-67.52
-77.68
-89.96
-104.39
-120.08
-135.03
-146.42
-151.10
-146.40
-131.03
-105.61
-72.65
-35.91
0.76
34.45
63.82
88.98
110.96
130.86
149.37
166.49
181.82
194.76
204.93
212.23
217.02
219.98
222.00
223.96
226.53
229.97
234.26
239.19
244.56
250.24
256.12
261.84
266.67
269.53
269.15
264.34
254.18
238.18
216.23
188.62
156.00
119.38
79.93
38.82
-3.10
-45.56
-88.87
-133.72
-180.45
-228.36
-275.19
-317.41
-351.15
-373.70
-384.60
-386.01
-381.82
-376.24
-372.16
-370.27
-369.11
-365.95
-357.95
-343.10
-320.72
-291.37
-256.48
-217.88
-177.37
-136.60
-96.86
-59.21
-24.57
6.35
33.03
55.30
73.31
87.48
98.35
106.41
112.00
115.32
116.57
116.15
114.68
112.98
111.82
111.53
111.79
111.69
110.02
105.85
98.91
89.70
79.19
68.48
58.33
49.09
40.64
32.61
24.65
16.48
8.06
-0.57
-9.26
-17.96
-26.69
-35.54
-44.68
-54.29
-64.57
-75.81
-88.22
-101.92
-116.72
-132.06
-147.15
-161.26
-174.14
-186.18
-198.33
-211.52
-225.91
-240.44
-252.73
-259.80
-259.11
-249.61
-232.25
-209.63
-185.16
-161.86
-141.50
-124.39
-109.77
-96.45
-83.43
-70.10
-56.28
-42.02
-27.52
-13.11
0.76
13.60
25.06
35.23
44.76
54.67
66.04
79.59
95.36
112.72
130.56
147.65
162.85
175.31
184.42
189.79
191.30
189.11
183.61
175.34
164.77
152.17
137.60
121.15
103.14
84.33
65.73
48.32
32.72
19.03
7.03
-3.53
-12.70
-20.31
-26.25
-30.70
-34.38
-38.36
-43.78
-51.47
-61.64
-73.86
-87.01
-99.42
-109.06
-113.82
-111.91
-102.48
-85.88
-63.69
-38.18
-11.70
13.96
37.87
59.74
79.56
97.30
112.73
125.60
135.78
143.36
148.61
151.79
153.06
152.52
150.34
147.00
143.18
139.58
136.64
134.35
132.34
130.15
127.41
124.07
120.23
115.96
110.98
104.83
96.88
86.78
74.63
61.03
46.88
33.05
20.15
8.37
-2.42
-12.56
-22.40
-32.22
-42.15
-52.18
-62.19
-71.98
-81.30
-89.91
-97.77
-105.12
-112.61
-121.13
-131.45
-143.82
-157.46
-170.46
-180.06
-183.43
-178.58
-164.99
-143.90
-117.78
-89.60
-61.87
-36.22
-13.31
6.86
24.50
39.76
52.69
63.31
71.74
78.16
82.73
85.57
86.73
86.40
84.92
82.88
80.94
79.74
79.69
80.86
82.93
85.24
86.91
87.04
84.99
80.58
74.17
66.52
58.49
50.67
43.22
35.87
28.26
20.08
11.37
2.42
-6.43
-14.95
-23.13
-31.16
-39.14
-47.04
-54.61
-61.56
-67.67
-72.98
-77.80
-82.64
-88.11
-94.77
-102.92
-112.44
-122.55
-131.64
-137.47
-137.53
-129.67
-112.87
-87.63
-56.02
-21.16
13.56
45.24
71.96
92.94
108.09
117.71
122.12
121.65
116.93
109.16
100.09
91.70
85.53
82.08
80.58
79.50
77.27
73.10
67.31
61.01
55.43
51.28
48.49
46.42
44.41
42.10
39.56
37.08
34.86
32.72
30.18
26.57
21.28
14.00
4.76
-5.91
-17.25
-28.42
-38.87
-48.56
-58.04
-68.12
-79.56
-92.61
-106.82
-121.02
-133.55
-142.45
-145.84
-142.33
-131.37
-113.57
-90.70
-65.34
-40.24
-17.61
1.42
16.80
29.24
39.65
48.64
56.26
62.16
65.81
66.95
65.71
62.69
58.79
54.97
52.02
50.33
49.95
50.58
51.73
52.73
52.86
51.41
47.86
42.06
34.32
25.26
15.53
5.46
-5.08
-16.49
-29.03
-42.43
-55.82
-67.96
-77.83
-85.17
-90.71
-95.83
-102.22
-111.20
-123.36
-138.23
-154.10
-168.11
-176.62
-176.13
-164.31
-141.03
-108.69
-71.51
-34.28
-0.87
26.64
48.09
64.51
77.29
87.41
95.32
101.08
104.64
106.06
105.51
103.14
99.09
93.47
86.45
78.37
69.76
61.32
53.70
47.29
42.05
37.43
32.58
26.65
19.17
10.27
0.66
-8.69
-16.97
-23.98
-30.12
-36.18
-42.90
-50.51
-58.61
-66.29
-72.56
-76.67
-78.42
-78.22
-76.91
-75.53
-75.04
-75.89
-77.75
-79.33
-78.61
-73.42
-62.23
-44.82
-22.43
2.63
27.84
51.16
71.57
88.94
103.75
116.59
127.94
138.00
146.79
154.12
159.61
162.74
163.03
160.20
154.39
146.16
136.34
125.83
115.35
105.41
96.27
87.97
80.34
72.97
65.30
56.76
47.05
36.28
25.00
13.97
3.86
-5.11
-13.18
-21.02
-29.35
-38.64
-48.96
-59.82
-70.37
-79.70
-87.10
-92.40
-96.07
-99.11
-102.80
-108.29
-116.21
-126.25
-137.09
-146.52
-151.96
-151.17
-142.99
-127.75
-107.23
-84.05
-60.82
-39.39
-20.49
-3.91
10.99
24.71
37.31
48.36
57.26
63.50
66.92
67.69
66.24
63.13
58.86
53.91
48.71
43.71
39.32
35.94
33.76
32.79
32.78
33.31
33.89
34.09
33.66
32.70
31.63
31.12
31.90
34.44
38.85
44.88
52.15
60.35
69.43
79.44
90.45
102.28
114.53
126.68
138.30
149.10
158.76
166.67
171.87
173.33
170.25
162.33
149.79
133.10
112.82
89.56
64.22
38.20
13.41
-8.12
-24.84
-36.06
-42.10
-43.89
-42.34
-38.04
-31.16
-21.85
-10.65
1.32
12.54
21.62
27.87
31.68
34.44
38.11
44.58
55.06
69.81
88.11
108.66
129.98
150.78
170.18
187.64
202.72
214.84
223.08
226.25
223.21
213.37
197.01
175.37
150.34
123.90
97.54
71.91
46.75
21.29
-5.31
-33.60
-63.51
-94.51
-125.92
-157.23
-188.38
-219.67
-251.54
-284.25
-317.95
-352.86
-389.54
-428.59
-469.86
-511.49
-549.53
-578.62
-593.54
-591.05
-570.81
-535.28
-488.53
-434.62
-376.63
-316.38
-254.96
-193.29
-132.59
-74.39
-20.27
28.35
70.20
104.08
128.63
142.33
143.94
133.43
113.26
89.01
68.71
60.59
69.83
96.03
132.60
168.89
194.20
201.64
190.28
164.46
131.15
96.80
65.31
37.87
14.04
-6.78
-24.51
-38.54
-48.53
-55.03
-59.59
-64.26
-70.78
-79.83
-90.82
-102.26
-112.35
-119.86
-124.76
-128.34
-132.80
-140.46
-152.98
-170.86
-193.49
-219.31
-246.28
-271.94
-293.54
-308.21
-313.42
-307.62
-290.91
-265.15
-233.52
-199.54
-166.09
-134.66
-105.28
-76.93
-48.37
-18.84
11.43
41.28
69.08
93.42
113.63
130.02
143.55
155.31
166.02
175.84
184.50
191.68
197.23
201.28
204.07
205.74
206.21
205.24
202.57
198.08
191.89
184.38
175.99
167.19
158.30
149.48
140.71
131.87
122.80
113.40
103.65
93.62
83.47
73.37
63.40
53.52
43.49
33.03
21.82
9.60
-3.77
-18.26
-33.53
-48.79
-62.67
-73.33
-78.80
-77.58
-69.18
-54.42
-35.25
-14.19
6.39
24.83
40.33
52.87
62.73
70.25
75.61
78.93
80.38
80.36
79.40
78.06
76.65
75.25
73.68
71.70
69.23
66.45
63.74
61.47
59.79
58.45
56.88
54.37
50.47
45.10
38.69
31.93
25.49
19.75
14.65
9.69
4.28
-2.04
-9.29
-17.07
-24.68
-31.48
-37.12
-41.73
-45.86
-50.26
-55.57
-62.13
-69.75
-77.62
-84.36
-88.11
-86.98
-79.53
-65.29
-45.04
-20.70
5.23
30.36
53.04
72.60
89.22
103.51
116.05
127.09
136.48
143.91
149.13
152.27
153.84
154.68
155.70
157.77
161.59
167.74
176.45
187.29
198.67
207.83
211.33
206.21
191.13
166.99
136.61
103.53
70.63
39.26
9.17
-20.67
-51.16
-82.35
-113.30
-142.52
-168.56
-190.46
-207.92
-221.29
-231.29
-238.94
-245.33
-251.50
-258.27
-265.86
-273.56
-279.64
-281.65
-277.08
-264.28
-243.15
-215.24
-183.24
-150.11
-118.34
-89.45
-64.07
-42.20
-23.56
-7.82
5.35
16.21
24.98
31.73
36.40
38.80
38.78
36.36
31.90
26.18
20.36
15.66
13.00
12.66
14.10
16.17
17.50
17.06
14.52
10.27
5.23
0.43
-3.41
-6.17
-8.30
-10.61
-13.85
-18.32
-23.69
-29.16
-33.80
-37.10
-39.30
-41.32
-44.51
-50.05
-58.55
-69.77
-82.53
-94.81
-104.01
-107.50
-103.28
-90.65
-70.47
-44.93
-16.85
11.29
37.90
62.50
85.28
106.56
126.36
144.27
159.61
171.76
180.31
185.21
186.70
185.29
181.59
176.32
170.12
163.54
156.97
150.64
144.63
138.86
133.17
127.30
120.97
113.88
105.78
96.51
86.02
74.46
62.16
49.61
37.36
25.92
15.61
6.46
-1.81
-9.67
-17.65
-26.13
-35.25
-44.88
-54.72
-64.42
-73.72
-82.49
-90.80
-98.88
-107.12
-115.99
-125.76
-136.21
-146.30
-154.10
-157.20
-153.45
-141.79
-122.82
-98.62
-72.05
-45.84
-21.72
-0.21
19.06
36.76
53.36
68.88
82.97
95.07
104.53
110.85
113.68
113.09
109.57
104.07
97.77
91.73
86.59
82.49
79.14
76.14
73.14
69.91
66.27
62.04
57.06
51.31
44.94
38.24
31.48
24.75
17.94
10.88
3.49
-4.10
-11.63
-18.95
-26.11
-33.39
-41.09
-49.29
-57.72
-65.83
-73.11
-79.32
-84.66
-89.77
-95.53
-102.75
-111.92
-122.94
-134.89
-145.98
-153.77
-155.74
-150.05
-136.31
-115.76
-91.01
-65.07
-40.49
-18.62
0.34
17.00
32.08
46.07
59.00
70.62
80.53
88.33
93.62
96.09
95.72
92.82
88.18
82.83
77.78
73.72
70.87
68.99
67.60
66.16
64.21
61.47
57.83
53.35
48.13
42.26
35.80
28.74
21.16
13.28
5.51
-1.70
-8.02
-13.46
-18.42
-23.47
-29.11
-35.49
-42.34
-49.10
-55.20
-60.29
-64.33
-67.65
-70.80
-74.58
-79.92
-87.65
-98.10
-110.66
-123.53
-133.90
-138.68
-135.47
-123.38
-103.39
-77.98
-50.24
-22.97
1.97
23.83
42.66
58.90
72.91
84.87
94.73
102.34
107.54
110.29
110.66
108.90
105.38
100.60
95.14
89.61
84.57
80.44
77.39
75.27
73.66
71.92
69.44
65.87
61.23
55.97
50.66
45.72
41.16
36.58
31.37
25.22
18.31
11.33
5.17
0.40
-3.09
-6.12
-9.84
-15.10
-22.08
-30.17
-38.36
-45.75
-51.91
-57.05
-61.78
-66.82
-72.74
-79.89
-88.31
-97.70
-107.18
-115.21
-119.70
-118.56
-110.44
-95.38
-74.89
-51.56
-28.16
-6.78
11.59
26.98
39.93
50.91
60.01
66.94
71.32
72.98
72.15
69.37
65.33
60.64
55.73
50.87
46.31
42.31
39.10
36.81
35.29
34.18
32.96
31.18
28.59
25.18
21.18
16.85
12.44
8.04
3.66
-0.75
-5.25
-9.86
-14.65
-19.71
-25.15
-30.94
-36.88
-42.54
-47.38
-50.95
-53.14
-54.24
-54.93
-56.08
-58.50
-62.78
-69.15
-77.34
-86.50
-95.13
-101.27
-102.89
-98.49
-87.62
-71.07
-50.63
-28.56
-6.99
12.56
29.36
43.30
54.61
63.54
70.19
74.53
76.51
76.28
74.21
70.91
67.07
63.31
60.04
57.40
55.35
53.76
52.47
51.36
50.30
49.13
47.67
45.73
43.09
39.60
35.14
29.74
23.56
16.96
10.38
4.20
-1.50
-6.99
-12.74
-19.27
-26.83
-35.22
-43.87
-52.06
-59.23
-65.19
-70.16
-74.67
-79.39
-84.96
-91.89
-100.33
-109.89
-119.41
-127.02
-130.40
-127.56
-117.48
-100.61
-78.76
-54.58
-30.62
-8.61
10.77
27.75
42.91
56.67
68.98
79.46
87.57
93.01
95.83
96.36
95.13
92.56
88.95
84.48
79.36
73.89
68.46
63.47
59.14
55.51
52.36
49.33
45.98
41.88
36.71
30.35
22.97
15.04
7.20
-0.05
-6.57
-12.63
-18.81
-25.61
-33.20
-41.28
-49.21
-56.30
-62.14
-66.70
-70.43
-74.05
-78.44
-84.45
-92.66
-103.14
-115.17
-127.07
-136.39
-140.45
-137.15
-125.78
-107.32
-84.21
-59.52
-35.91
-14.98
2.92
18.31
31.90
44.15
54.98
63.92
70.43
74.17
75.17
73.97
71.44
68.60
66.33
65.07
64.79
65.08
65.51
65.75
65.68
65.22
64.19
62.26
59.11
54.68
49.28
43.48
37.81
32.46
27.27
21.88
16.04
9.86
3.69
-2.17
-7.69
-13.23
-19.29
-26.20
-33.82
-41.64
-49.00
-55.47
-61.07
-66.26
-71.76
-78.29
-86.35
-95.97
-106.53
-116.69
-124.46
-127.61
-124.22
-113.44
-95.81
-73.25
-48.47
-24.19
-2.37
16.16
31.53
44.43
55.53
65.21
73.39
79.77
84.04
86.15
86.34
85.07
82.86
80.12
77.08
73.78
70.27
66.61
63.00
59.68
56.82
54.38
52.01
49.24
45.62
40.95
35.32
29.07
22.60
16.22
10.05
4.08
-1.74
-7.42
-12.95
-18.36
-23.75
-29.24
-34.94
-40.74
-46.39
-51.59
-56.19
-60.43
-64.87
-70.32
-77.52
-86.75
-97.53
-108.48
-117.40
-121.83
-119.67
-109.91
-93.05
-70.99
-46.47
-22.25
-0.35
18.31
33.85
47.00
58.57
69.04
78.44
86.43
92.48
96.08
96.96
95.18
91.16
85.72
79.83
74.50
70.47
68.02
66.88
66.35
65.57
63.81
60.74
56.42
51.23
45.60
39.82
34.03
28.23
22.45
16.79
11.38
6.27
1.32
-3.79
-9.43
-15.83
-22.97
-30.53
-38.09
-45.29
-52.03
-58.47
-65.00
-72.09
-80.22
-89.82
-101.06
-113.59
-126.19
-136.79
-142.82
-142.01
-133.27
-117.20
-95.95
-72.45
-49.41
-28.66
-10.91
3.96
16.27
26.32
34.18
39.82
43.26
44.59
43.94
41.48
37.54
32.70
27.79
23.81
21.64
21.88
24.67
29.66
36.18
43.30
50.09
55.72
59.69
61.84
62.35
61.46
59.39
56.14
51.60
45.73
38.70
31.01
23.24
15.88
9.11
2.81
-3.38
-9.77
-16.52
-23.51
-30.44
-37.05
-43.29
-49.49
-56.33
-64.56
-74.56
-85.87
-96.94
-105.41
-108.75
-105.10
-94.05
-76.77
-55.56
-33.10
-11.58
7.67
24.29
38.44
50.49
60.72
69.25
76.15
81.44
85.16
87.26
87.73
86.64
84.27
81.12
77.74
74.55
71.68
69.05
66.42
63.62
60.59
57.32
53.73
49.67
44.98
39.68
34.05
28.54
23.58
19.34
15.64
12.09
8.35
4.25
-0.16
-4.80
-9.75
-15.25
-21.59
-28.91
-37.02
-45.44
-53.53
-60.78
-66.94
-72.06
-76.53
-80.98
-86.17
-92.78
-101.04
-110.38
-119.24
-125.30
-126.08
-119.81
-106.14
-86.24
-62.49
-37.64
-13.99
7.11
25.31
40.97
54.59
66.48
76.63
84.81
90.87
94.78
96.75
97.04
95.90
93.49
89.95
85.62
81.03
76.86
73.74
71.92
71.21
70.94
70.29
68.50
65.23
60.54
54.91
48.96
43.23
38.01
33.21
28.43
23.19
17.14
10.24
2.83
-4.49
-11.16
-16.89
-21.82
-26.43
-31.35
-37.02
-43.50
-50.44
-57.24
-63.36
-68.55
-72.95
-77.03
-81.41
-86.70
-93.32
-101.34
-110.26
-118.83
-125.10
-126.86
-122.28
-110.67
-92.77
-70.62
-46.83
-23.80
-3.04
14.92
30.22
43.27
54.37
63.63
71.09
76.77
80.72
82.96
83.53
82.47
80.01
76.62
72.91
69.50
66.80
64.92
63.68
62.71
61.62
59.99
57.53
54.00
49.34
43.65
37.20
30.38
23.57
17.08
11.00
5.26
-0.34
-5.97
-11.72
-17.51
-23.17
-28.57
-33.73
-38.77
-43.91
-49.25
-54.73
-60.16
-65.35
-70.35
-75.46
-81.19
-87.98
-95.96
-104.69
-113.09
-119.59
-122.43
-120.05
-111.61
-97.25
-78.14
-56.20
-33.52
-11.89
7.58
24.46
38.81
50.88
60.86
68.79
74.63
78.39
80.17
80.24
79.02
76.96
74.44
71.71
68.94
66.26
63.85
61.93
60.57
59.66
58.74
57.17
54.41
50.28
45.08
39.44
33.97
29.01
24.48
20.01
15.33
10.38
5.44
0.94
-2.78
-5.69
-8.10
-10.50
-13.41
-17.17
-21.86
-27.22
-32.81
-38.10
-42.69
-46.48
-49.73
-53.05
-57.24
-63.07
-70.97
-80.78
-91.50
-101.31
-107.88
-109.00
-103.31
-90.84
-73.14
-52.69
-32.11
-13.32
2.90
16.77
29.00
40.15
50.37
59.33
66.54
71.63
74.50
75.35
74.58
72.68
70.10
67.17
64.16
61.30
58.85
57.11
56.34
56.50
57.22
57.75
57.31
55.35
51.96
47.73
43.53
40.04
37.44
35.32
32.95
29.74
25.50
20.62
15.88
12.01
9.37
7.76
6.43
4.40
0.67
-5.52
-14.74
-27.31
-43.34
-62.58
-84.28
-107.20
-129.73
-150.30
-167.65
-180.93
-189.40
-192.17
-187.99
-175.63
-154.45
-125.07
-89.55
-50.91
-12.28
24.05
57.09
87.07
114.83
141.10
165.98
188.94
209.19
226.16
239.82
250.59
259.09
265.79
270.95
274.82
278.00
281.62
287.09
295.45
306.55
318.76
329.23
334.72
332.71
322.04
303.09
277.29
246.44
211.96
174.55
134.13
90.22
42.44
-8.91
-62.55
-116.57
-168.82
-217.82
-263.33
-306.32
-348.67
-392.59
-440.14
-492.62
-549.58
-607.78
-660.68
-699.38
-715.16
-702.90
-663.63
-604.69
-537.07
-471.24
-413.45
-364.54
-321.42
-280.14
-238.46
-196.68
-156.59
-119.69
-85.99
-54.08
-22.27
10.19
42.50
72.45
97.61
116.45
129.00
136.79
142.10
146.92
152.09
157.05
160.32
160.33
156.28
148.61
138.86
128.98
120.58
114.32
109.70
105.53
100.52
94.02
86.24
78.15
70.88
65.02
60.30
55.73
50.14
42.89
34.28
25.35
17.33
10.89
5.86
1.23
-4.21
-11.39
-20.61
-31.50
-43.25
-54.69
-64.43
-70.82
-72.23
-67.49
-56.30
-39.62
-19.44
1.74
21.79
39.42
54.30
66.67
76.79
84.58
89.65
91.59
90.44
86.88
82.09
77.35
73.57
70.93
68.95
66.88
64.10
60.46
56.29
52.11
48.24
44.59
40.62
35.65
29.18
21.22
12.22
2.99
-5.71
-13.40
-19.84
-25.05
-29.12
-32.18
-34.43
-36.27
-38.19
-40.77
-44.44
-49.40
-55.59
-62.91
-71.28
-80.58
-90.46
-99.95
-107.41
-110.76
-108.12
-98.52
-82.40
-61.44
-38.04
-14.47
7.73
28.00
46.42
63.26
78.50
91.77
102.57
110.53
115.66
118.32
118.99
118.09
115.83
112.19
107.17
100.94
94.00
87.03
80.80
75.79
72.05
69.17
66.38
62.83
57.94
51.57
44.11
36.31
28.96
22.49
16.86
11.52
5.74
-0.99
-8.69
-16.78
-24.37
-30.60
-35.10
-38.14
-40.58
-43.66
-48.64
-56.47
-67.47
-81.06
-95.63
-108.70
-117.45
-119.45
-113.50
-100.03
-80.99
-59.17
-37.31
-17.37
-0.19
14.20
26.20
36.17
44.30
50.75
55.76
59.60
62.40
63.93
63.64
60.98
55.83
48.77
40.98
33.82
28.33
24.89
23.27
22.85
23.06
23.57
24.35
25.54
27.18
29.11
30.94
32.13
32.19
30.87
28.22
24.58
20.30
15.66
10.65
5.08
-1.31
-8.72
-17.14
-26.39
-36.21
-46.31
-56.41
-66.19
-75.38
-83.77
-91.30
-98.11
-104.52
-110.70
-116.37
-120.50
-121.40
-117.22
-106.69
-89.74
-67.69
-42.87
-17.75
5.77
26.81
45.29
61.49
75.58
87.53
97.23
104.72
110.37
114.76
118.46
121.78
124.60
126.45
126.67
124.66
120.20
113.53
105.36
96.64
88.20
80.53
73.74
67.59
61.87
56.48
51.45
46.83
42.40
37.64
31.89
24.72
16.20
7.00
-1.88
-9.53
-15.58
-20.33
-24.59
-29.18
-34.62
-40.90
-47.52
-53.88
-59.54
-64.38
-68.61
-72.63
-76.99
-82.26
-88.87
-96.79
-105.27
-112.70
-116.86
-115.51
-107.23
-91.99
-71.26
-47.62
-23.87
-2.26
16.09
31.17
43.70
54.65
64.74
74.21
82.85
90.19
95.69
99.01
100.14
99.32
97.02
93.71
89.85
85.79
81.77
78.00
74.58
71.50
68.61
65.69
62.45
58.71
54.43
49.74
44.82
39.83
34.85
29.84
24.78
19.67
14.60
9.58
4.49
-1.06
-7.54
-15.26
-24.06
-33.16
-41.45
-47.81
-51.78
-53.90
-55.70
-59.34
-66.94
-79.87
-98.23
-120.49
-143.46
-162.81
-173.87
-173.00
-158.81
-132.86
-99.52
-64.69
-34.00
-11.13
3.07
10.21
13.28
15.08
17.38
20.58
24.26
27.81
30.94
33.80
36.70
39.77
42.83
45.50
47.47
48.76
49.85
51.43
54.14
58.18
63.13
68.16
72.27
74.71
75.22
73.94
71.27
67.52
62.61
56.06
47.37
36.42
23.81
10.76
-1.27
-11.02
-17.77
-21.94
-24.96
-28.84
-35.46
-45.90
-60.20
-77.19
-94.70
-109.71
-119.51
-122.39
-117.75
-106.14
-88.77
-67.38
-43.92
-20.20
2.56
23.01
39.57
50.63
55.01
52.40
43.41
29.41
10.48
-10.24
-27.53
-36.66
-35.83
-26.59
-12.21
3.44
16.92
25.82
29.43
28.09
22.76
15.44
7.17
-0.74
-6.99
-10.67
-11.55
-10.00
-7.18
-4.66
-3.67
-4.87
-7.96
-12.28
-17.17
-22.22
-27.47
-33.30
-40.02
-47.36
-54.97
-62.10
-67.68
-70.35
-68.58
-61.04
-47.51
-30.53
-12.17
4.55
16.89
23.46
24.60
21.98
17.73
13.55
10.21
7.99
6.64
5.94
6.05
7.17
9.33
12.31
15.62
18.69
21.16
22.61
22.94
22.36
21.25
20.04
18.91
17.73
16.10
13.72
10.44
6.60
2.91
0.09
-1.56
-2.42
-3.49
-5.99
-10.76
-18.04
-27.09
-36.22
-43.09
-45.16
-40.31
-27.45
-6.82
20.01
50.61
82.38
113.21
141.84
167.76
190.82
210.90
227.62
240.53
249.53
255.30
259.41
263.97
270.97
281.48
295.24
310.89
326.55
340.69
352.40
361.18
366.27
366.12
358.41
340.81
312.09
272.91
225.90
174.80
123.16
73.11
24.86
-23.00
-72.56
-125.46
-182.01
-241.00
-300.28
-357.48
-410.90
-460.04
-505.50
-548.67
-591.40
-635.72
-683.24
-734.16
-786.00
-833.01
-866.85
-879.06
-864.16
-822.01
-758.06
-681.19
-600.34
-521.65
-447.50
-377.71
-311.51
-249.11
-191.73
-140.59
-95.64
-55.07
-16.07
24.10
67.13
113.38
161.73
210.14
255.78
295.48
326.24
346.01
354.31
352.45
343.00
328.80
312.02
293.66
273.90
252.82
231.04
209.82
190.56
173.99
159.70
146.26
131.84
115.08
95.55
73.88
51.39
29.67
10.32
-5.16
-15.36
-19.19
-16.20
-6.86
7.38
24.53
42.61
60.18
76.55
91.59
105.29
117.49
127.74
135.48
140.30
142.03
140.83
137.13
131.57
124.88
117.80
110.86
104.38
98.38
92.76
87.44
82.43
77.77
73.46
69.34
65.11
60.44
55.09
48.96
42.18
35.00
27.71
20.56
13.69
7.13
0.77
-5.54
-11.92
-18.45
-25.04
-31.52
-37.69
-43.37
-48.49
-53.12
-57.47
-61.99
-67.30
-73.85
-81.57
-89.39
-95.23
-96.40
-90.52
-76.38
-54.46
-26.67
4.31
36.01
66.73
95.68
122.73
147.95
171.38
192.92
212.38
229.62
244.62
257.55
268.85
279.19
289.35
299.94
311.20
322.97
334.78
346.00
356.04
364.27
369.96
372.29
370.54
364.34
353.91
340.02
323.61
305.45
285.79
264.38
240.75
214.61
186.18
156.25
126.01
96.74
69.41
44.47
21.65
0.17
-20.96
-42.59
-65.01
-87.87
-110.41
-131.78
-151.51
-169.67
-186.90
-204.17
-222.58
-243.31
-267.19
-294.14
-322.38
-348.19
-366.53
-372.61
-363.78
-340.73
-307.35
-269.17
-231.39
-197.39
-168.52
-144.81
-126.01
-112.19
-103.50
-99.60
-99.23
-100.38
-100.89
-99.11
-94.26
-86.55
-76.84
-66.24
-55.64
-45.44
-35.57
-25.82
-16.30
-7.84
-1.99
-0.55
-4.69
-14.47
-28.64
-45.20
-62.24
-78.68
-94.47
-110.30
-126.95
-144.67
-163.06
-181.22
-198.10
-213.05
-225.93
-237.23
-247.94
-259.24
-272.13
-286.83
-302.13
-315.29
-322.42
-319.64
-304.45
-276.64
-238.43
-193.55
-145.98
-98.92
-54.37
-13.52
22.77
53.63
78.24
96.23
107.96
114.43
117.04
117.15
115.84
113.87
111.63
109.22
106.62
103.68
100.37
96.86
93.58
91.12
89.96
90.33
92.02
94.47
96.94
98.70
99.20
98.06
95.09
90.09
82.98
73.76
62.68
50.34
37.51
24.98
13.23
2.29
-8.21
-18.88
-30.16
-42.10
-54.25
-65.89
-76.27
-85.08
-92.59
-99.82
-108.32
-119.80
-135.39
-154.90
-176.21
-195.36
-207.21
-206.93
-191.57
-161.19
-118.90
-69.96
-20.06
26.19
66.19
99.20
125.72
146.51
162.04
172.35
177.19
176.32
169.84
158.30
142.74
124.64
105.82
88.19
73.43
62.56
55.75
52.19
50.42
48.84
46.08
41.42
34.72
26.23
16.30
5.28
-6.51
-18.58
-30.25
-40.81
-49.78
-57.16
-63.54
-69.85
-76.97
-85.34
-94.83
-104.73
-114.01
-121.69
-127.07
-130.02
-130.92
-130.59
-129.90
-129.62
-130.32
-132.39
-136.04
-141.12
-146.63
-150.36
-148.81
-137.95
-114.40
-76.71
-26.03
34.17
99.30
164.96
227.85
285.91
337.72
381.78
416.23
439.10
448.97
445.63
430.32
405.36
373.57
337.60
299.53
260.91
223.05
187.10
154.10
124.77
99.15
76.56
55.75
35.40
14.57
-6.93
-28.73
-50.21
-70.94
-90.92
-110.38
-129.61
-148.61
-167.03
-184.34
-200.15
-214.36
-227.23
-239.13
-250.34
-260.80
-270.17
-278.05
-284.22
-288.91
-292.98
-297.83
-305.11
-316.14
-331.15
-348.71
-365.62
-377.45
-379.68
-368.96
-344.12
-306.39
-258.99
-206.07
-151.79
-99.53
-51.70
-9.85
25.11
52.68
72.72
85.54
91.88
92.77
89.32
82.48
72.88
60.98
47.16
31.87
15.76
-0.25
-14.86
-26.33
-32.58
-31.64
-22.33
-4.93
18.55
44.79
70.19
92.08
109.35
122.39
132.22
139.56
144.30
145.80
143.46
137.36
128.35
117.57
105.80
93.08
78.81
62.25
43.18
22.16
0.35
-21.13
-41.80
-62.17
-83.53
-107.22
-133.61
-161.22
-186.51
-204.57
-210.61
-201.46
-176.76
-139.07
-92.97
-43.57
4.74
49.13
88.30
122.01
150.57
174.34
193.56
208.34
218.74
224.73
226.33
223.75
217.48
208.40
197.62
186.30
175.66
166.72
160.16
156.13
154.11
153.06
151.53
148.19
142.04
133.11
122.26
110.70
99.41
88.92
79.31
70.42
62.00
53.43
44.39
34.73
24.25
12.67
0.06
-13.09
-26.12
-38.28
-49.72
-60.44
-70.28
-79.36
-88.40
-98.41
-110.59
-126.17
-145.49
-168.31
-191.94
-211.58
-222.10
-220.03
-204.31
-176.87
-142.03
-100.18
-57.26
-21.01
3.69
17.18
22.98
25.33
28.81
35.13
45.06
58.36
75.34
97.14
125.27
157.91
193.86
232.45
273.71
318.48
366.72
417.05
465.73
506.35
531.17
534.37
513.96
472.68
417.08
354.60
291.96
234.05
183.72
142.39
111.13
90.15
78.53
74.13
73.77
74.50
74.60
73.86
72.99
73.20
74.64
76.29
76.08
71.44
60.25
41.68
16.48
-13.31
-45.04
-77.32
-109.46
-141.40
-173.53
-206.13
-238.99
-271.18
-301.41
-328.43
-353.27
-377.13
-401.29
-427.41
-457.28
-491.89
-530.11
-568.04
-599.60
-621.30
-630.85
-628.85
-619.03
-606.61
-595.29
-584.95
-571.61
-549.46
-517.14
-474.29
-421.50
-360.03
-292.13
-221.42
-153.62
-96.38
-36.47
27.08
90.71
151.85
211.65
271.37
327.53
371.08
392.50
388.15
359.27
315.23
268.41
228.27
197.29
174.40
157.65
146.22
141.51
142.99
150.59
163.85
181.40
201.27
222.07
244.28
267.11
292.08
319.71
351.15
387.65
429.89
477.22
527.30
575.62
615.92
641.87
647.57
630.71
593.43
541.52
482.16
421.66
363.87
310.24
261.23
216.88
177.64
144.00
115.58
90.85
67.47
43.38
17.67
-8.78
-33.94
-55.62
-72.57
-85.09
-94.95
-104.68
-116.63
-131.98
-150.31
-169.93
-188.72
-205.10
-218.82
-231.04
-243.87
-259.44
-279.05
-302.57
-328.73
-355.72
-381.98
-406.81
-430.50
-454.14
-479.40
-508.32
-543.00
-584.71
-632.47
-681.92
-725.17
-752.52
-755.54
-730.35
-679.25
-609.91
-532.36
-455.28
-383.55
-317.79
-256.02
-195.90
-136.37
-78.00
-22.22
29.84
77.91
122.63
164.97
205.83
245.74
285.31
325.60
367.92
412.66
457.72
497.47
523.48
527.19
503.50
453.68
385.68
311.62
243.41
188.81
149.63
122.69
102.44
83.82
63.72
40.97
15.44
-12.75
-43.36
-75.54
-107.62
-137.22
-162.05
-180.97
-194.75
-205.81
-217.16
-230.77
-246.13
-259.94
-267.09
-262.63
-243.68
-210.55
-166.26
-115.10
-60.93
-6.20
47.86
100.38
149.83
193.84
229.93
256.65
274.43
285.63
293.70
301.91
312.22
324.74
337.88
349.26
356.81
359.80
359.23
357.41
356.86
359.11
363.66
367.96
368.10
360.00
340.68
309.25
267.50
219.76
172.05
130.38
98.84
78.06
64.86
53.46
37.72
13.51
-20.06
-60.79
-104.85
-148.53
-189.29
-226.01
-258.41
-286.37
-309.62
-327.76
-340.40
-347.16
-347.41
-340.16
-324.21
-298.57
-263.14
-219.27
-169.75
-118.33
-68.78
-24.06
14.21
45.62
70.58
89.65
103.25
111.75
115.70
116.11
114.46
112.29
110.77
110.42
110.97
111.67
111.63
110.23
107.20
102.68
96.99
90.53
83.72
76.94
70.49
64.66
59.69
55.81
53.18
51.79
51.26
50.71
48.89
44.59
37.09
26.63
14.46
2.35
-8.15
-16.44
-23.05
-29.48
-37.47
-48.31
-62.16
-77.74
-92.27
-101.91
-102.67
-91.64
-68.34
-35.55
0.77
32.74
52.78
55.89
41.21
12.18
-24.69
-62.17
-94.62
-119.43
-137.27
-150.96
-163.79
-177.86
-193.32
-208.66
-221.70
-230.77
-235.25
-235.49
-232.08
-225.45
-215.68
-203.15
-188.90
-174.55
-161.69
-150.92
-141.41
-131.31
-118.78
-103.16
-85.52
-68.31
-54.24
-45.18
-41.60
-42.62
-46.77
-52.56
-58.92
-65.26
-71.34
-77.01
-82.16
-86.74
-90.98
-95.56
-101.69
-110.62
-122.79
-136.97
-149.84
-156.67
-152.80
-135.53
-105.29
-65.53
-21.25
23.03
65.06
105.55
147.41
193.97
246.81
304.17
360.49
407.55
436.78
441.96
421.28
377.59
317.15
247.10
173.11
98.18
22.90
-53.65
-132.78
-215.35
-301.08
-387.66
-470.33
-542.17
-595.62
-624.95
-628.46
-609.20
-573.75
-529.79
-483.49
-438.47
-396.06
-356.61
-320.44
-287.99
-259.27
-233.24
-208.06
-181.80
-153.54
-123.87
-94.57
-67.90
-45.52
-27.78
-13.67
-1.42
10.77
23.90
37.86
51.56
63.53
72.58
78.39
81.61
83.57
85.73
89.12
94.00
99.90
105.93
111.28
115.67
119.47
123.59
129.13
136.90
147.17
159.62
173.54
188.23
203.26
218.66
234.77
252.18
271.48
293.22
317.79
345.13
374.33
403.45
429.57
449.50
460.71
462.26
455.04
441.37
424.12
405.71
387.61
370.42
354.30
339.35
325.74
313.46
302.05
290.60
278.05
263.69
247.60
230.62
213.85
197.90
182.24
165.17
144.37
117.92
85.20
47.33
6.97
-32.39
-67.19
-94.50
-112.44
-120.32
-118.67
-109.07
-93.90
-75.80
-57.20
-39.82
-24.56
-11.59
-0.71
8.29
15.48
20.82
24.38
26.42
27.44
28.04
28.66
29.49
30.43
31.26
31.84
32.18
32.29
31.97
30.65
27.50
21.85
13.61
3.54
-6.93
-16.30
-23.73
-29.44
-34.57
-40.57
-48.30
-57.59
-67.28
-75.92
-82.56
-87.26
-91.06
-95.47
-101.83
-110.89
-122.64
-136.35
-150.45
-162.52
-169.40
-167.77
-155.19
-131.00
-96.85
-56.11
-12.65
30.80
73.43
116.23
160.63
206.83
252.70
294.17
326.62
346.81
354.13
350.55
339.47
324.20
307.07
289.54
272.82
258.42
247.86
241.81
239.23
237.24
232.34
221.67
204.28
181.15
154.26
125.23
94.43
61.40
26.18
-9.20
-40.43
-62.15
-70.66
-66.23
-53.90
-41.92
-38.52
-48.67
-72.36
-105.63
-142.89
-179.87
-215.01
-249.07
-283.73
-320.45
-360.11
-403.28
-449.97
-498.68
-545.16
-582.39
-601.92
-596.84
-564.51
-507.69
-433.30
-349.62
-263.65
-179.92
-101.03
-28.93
34.24
86.55
127.39
158.32
182.63
204.06
225.17
246.67
268.05
288.55
308.37
328.58
350.28
373.27
395.28
412.29
419.89
414.87
396.49
366.58
328.78
287.21
245.40
205.63
168.94
135.39
104.43
75.16
46.49
17.32
-13.16
-45.34
-78.97
-113.31
-147.47
-180.64
-212.63
-244.12
-276.74
-312.65
-353.46
-398.83
-445.56
-487.80
-518.53
-531.95
-525.53
-500.78
-462.40
-416.36
-368.00
-320.99
-277.47
-238.53
-204.85
-176.67
-153.49
-134.04
-116.56
-99.58
-82.55
-66.02
-51.17
-39.13
-30.32
-24.42
-20.62
-18.07
-16.16
-14.50
-12.56
-9.51
-4.31
3.73
14.29
25.48
34.05
36.22
29.17
12.27
-12.48
-41.03
-68.71
-91.66
-107.95
-117.58
-121.87
-122.60
-121.15
-118.43
-114.90
-110.96
-107.20
-104.53
-104.09
-107.04
-114.21
-125.65
-140.28
-155.78
-168.85
-176.07
-174.76
-163.73
-143.53
-116.11
-84.09
-49.87
-15.01
20.15
56.26
94.15
133.88
173.87
210.77
240.31
258.76
264.38
258.15
243.56
225.16
207.12
192.05
180.83
173.28
168.97
167.82
170.06
175.78
184.42
194.80
205.55
215.64
224.77
233.16
241.01
247.65
251.24
249.17
239.23
220.85
195.62
166.57
136.64
107.12
77.08
44.51
8.21
-30.44
-67.43
-97.67
-117.26
-125.20
-123.46
-115.42
-104.09
-91.12
-77.47
-64.86
-57.12
-59.83
-78.59
-116.42
-171.75
-238.13
-305.82
-364.51
-406.07
-426.28
-424.93
-404.78
-369.78
-323.58
-268.75
-207.21
-141.16
-74.20
-11.54
40.73
77.47
96.41
99.18
90.86
78.08
66.65
59.67
57.32
58.00
60.18
63.67
69.70
79.94
95.04
113.70
132.85
148.74
158.43
160.96
157.71
151.72
146.57
144.87
147.31
152.30
156.52
155.96
147.11
127.88
98.02
59.25
15.11
-29.33
-68.04
-95.30
-107.43
-104.38
-90.55
-73.83
-63.09
-64.82
-80.39
-105.32
-130.87
-147.25
-146.92
-126.51
-86.89
-32.16
31.79
98.20
160.01
210.38
243.92
257.95
253.55
235.23
209.45
182.24
157.43
136.05
117.22
99.85
83.85
70.21
60.28
54.70
53.05
54.32
57.74
63.15
70.81
80.30
89.70
95.44
93.26
79.70
53.66
17.02
-25.85
-68.97
-106.08
-132.04
-144.16
-143.55
-135.91
-130.92
-139.78
-171.24
-227.57
-302.66
-383.42
-454.31
-502.96
-524.29
-521.18
-501.73
-474.78
-446.34
-418.38
-390.14
-360.42
-329.17
-297.46
-266.41
-236.18
-205.98
-175.24
-144.66
-116.46
-93.14
-76.00
-63.92
-53.53
-40.75
-22.76
0.73
27.49
53.99
77.06
95.09
108.35
118.45
127.51
137.51
149.94
165.76
185.32
208.26
233.32
258.32
280.50
297.20
306.72
308.76
304.38
295.46
283.97
271.30
258.14
244.61
230.67
216.46
202.33
188.65
175.66
163.27
151.22
139.26
127.34
115.74
104.84
94.94
85.91
77.19
67.91
57.17
44.46
29.99
14.79
0.62
-10.50
-16.70
-16.86
-10.88
0.34
15.09
31.43
47.63
62.50
75.46
86.36
95.14
101.70
105.81
107.31
106.27
103.16
98.70
93.67
88.69
84.08
79.92
76.24
73.10
70.67
69.03
68.10
67.47
66.46
64.39
60.82
55.77
49.74
43.47
37.60
32.40
27.60
22.67
17.11
10.78
4.01
-2.60
-8.47
-13.30
-17.18
-20.42
-23.42
-26.45
-29.61
-32.88
-36.12
-39.18
-41.94
-44.50
-47.23
-50.83
-56.16
-63.83
-73.73
-84.80
-95.02
-101.92
-103.33
-98.07
-86.37
-69.70
-50.25
-30.21
-11.26
5.68
20.30
32.68
43.04
51.60
58.47
63.69
67.19
68.86
68.63
66.59
63.05
58.52
53.66
49.06
45.16
42.16
40.03
38.61
37.63
36.76
35.66
34.03
31.55
28.00
23.31
17.67
11.47
5.29
-0.42
-5.41
-9.74
-13.70
-17.58
-21.54
-25.59
-29.62
-33.59
-37.49
-41.40
-45.36
-49.32
-53.20
-56.98
-60.81
-65.03
-70.16
-76.61
-84.36
-92.74
-100.27
-104.91
-104.65
-98.18
-85.40
-67.57
-46.92
-25.97
-6.71
9.78
23.38
34.57
44.01
52.12
58.99
64.44
68.20
70.08
70.14
68.67
66.11
62.95
59.61
56.37
53.38
50.65
48.14
45.83
43.71
41.71
39.63
37.10
33.71
29.21
23.67
17.56
11.56
6.36
2.32
-0.65
-3.00
-5.40
-8.40
-12.33
-17.23
-22.87
-28.87
-34.77
-40.11
-44.58
-48.13
-51.00
-53.69
-56.82
-60.90
-66.16
-72.28
-78.32
-82.79
-83.90
-80.01
-70.31
-55.16
-36.07
-15.33
4.83
23.01
38.96
53.41
67.46
81.80
96.31
110.03
121.69
130.35
135.81
138.77
140.53
142.49
145.65
150.44
156.42
162.91
169.51
176.50
183.98
192.03
200.70
210.39
221.81
235.41
251.33
269.10
287.62
304.45
316.77
322.33
320.51
312.42
299.53
283.73
266.89
251.34
237.63
225.36
213.68
202.06
190.20
175.64
156.40
132.28
107.41
83.95
63.06
44.72
29.16
16.39
1.51
-19.61
-47.69
-74.94
-98.06
-116.09
-130.62
-142.29
-151.53
-166.13
-192.25
-230.56
-268.30
-300.18
-325.01
-345.74
-363.94
-380.73
-406.61
-449.92
-511.64
-575.24
-633.77
-685.55
-734.15
-781.02
-767.62
-659.67
-465.65
-294.74
-173.55
-103.63
-56.94
-23.92
1.33
22.25
30.98
20.51
-9.50
-42.04
-69.63
-89.94
-105.84
-118.22
-127.65
-142.17
-168.73
-208.73
-250.38
-289.73
-326.82
-364.49
-401.41
-432.85
-456.67
-469.88
-467.60
-440.77
-390.78
-326.44
-260.59
-202.38
-155.40
-120.27
-94.00
-69.88
-38.61
2.75
51.45
101.30
147.79
189.05
224.74
255.56
285.38
319.99
363.26
416.27
477.96
546.50
618.56
688.20
732.69
729.17
669.36
568.62
455.55
354.77
278.40
226.63
192.62
168.05
149.44
137.28
133.14
136.10
141.86
145.74
144.64
137.74
126.16
114.12
106.18
105.64
112.81
125.61
141.16
156.41
168.27
173.65
174.44
171.97
167.90
163.33
158.59
153.43
147.13
138.67
127.34
113.83
99.43
85.85
73.85
62.92
51.54
37.78
19.88
-3.13
-30.79
-61.79
-94.08
-125.90
-156.43
-186.01
-215.90
-247.65
-282.42
-320.94
-363.81
-411.29
-462.80
-515.97
-565.83
-605.14
-626.19
-623.53
-596.14
-548.08
-486.53
-418.88
-350.29
-283.15
-218.48
-157.96
-104.98
-63.49
-35.87
-20.96
-14.04
-8.86
-0.39
13.27
30.85
49.09
64.72
75.63
80.91
80.42
74.23
62.40
45.03
22.36
-5.16
-36.63
-70.02
-101.77
-126.97
-140.64
-139.87
-125.66
-103.34
-80.98
-66.42
-64.25
-74.25
-91.93
-110.63
-124.13
-128.41
-122.13
-106.25
-83.41
-57.32
-32.38
-12.92
-2.08
-0.54
-5.80
-12.94
-16.40
-12.26
0.38
19.60
42.12
65.12
87.21
108.14
127.85
145.68
160.37
170.72
176.11
176.53
171.88
161.38
143.48
116.64
80.42
36.16
-13.42
-65.23
-116.68
-165.83
-210.71
-248.67
-276.30
-290.48
-289.81
-275.63
-251.74
-223.00
-193.40
-164.81
-136.80
-107.69
-75.98
-41.33
-4.72
32.19
67.91
101.81
134.15
165.87
198.25
232.77
271.09
314.68
364.04
417.49
470.39
515.54
544.91
552.14
534.63
494.40
437.22
370.74
302.44
238.25
181.98
135.50
99.23
72.54
54.16
42.24
34.45
28.13
20.37
8.46
-9.46
-33.65
-62.43
-92.48
-119.73
-140.54
-152.52
-154.59
-146.66
-129.50
-104.59
-74.38
-42.07
-10.94
16.51
39.32
58.16
74.53
89.63
103.53
114.98
122.20
123.95
120.25
112.35
101.98
90.64
79.20
68.02
57.47
48.23
41.20
37.05
35.79
36.50
37.75
38.11
36.85
34.01
30.29
26.53
23.16
20.04
16.48
11.28
3.00
-9.90
-28.73
-54.09
-85.16
-119.36
-152.41
-179.31
-195.75
-199.44
-190.74
-172.23
-147.50
-119.84
-91.41
-63.22
-35.73
-9.46
15.04
37.36
57.77
77.16
96.52
116.22
135.52
152.65
165.44
172.39
173.21
169.03
162.12
155.24
151.10
151.66
157.55
167.62
178.96
187.38
188.57
179.50
159.24
129.22
92.39
51.97
10.22
-32.18
-76.19
-123.91
-177.40
-237.47
-302.29
-366.70
-422.79
-461.84
-477.11
-466.23
-431.95
-380.97
-321.34
-259.76
-200.31
-144.74
-93.83
-48.61
-10.60
18.90
39.82
53.66
62.93
70.01
76.29
81.91
86.13
88.20
88.02
86.29
84.29
83.22
83.68
85.33
86.94
86.74
82.92
74.27
60.69
43.27
23.82
3.98
-15.78
-36.57
-60.79
-90.93
-128.44
-172.93
-222.27
-273.33
-322.78
-367.50
-404.49
-430.95
-444.40
-443.58
-429.09
-403.74
-371.99
-338.55
-307.05
-279.22
-254.84
-232.51
-210.50
-187.53
-163.05
-137.17
-110.24
-82.68
-54.70
-26.34
2.45
31.77
61.76
92.76
125.21
159.17
193.72
226.45
253.61
271.13
275.99
267.57
247.95
221.15
191.60
162.67
136.06
112.06
90.39
70.92
53.81
39.16
26.61
15.22
3.97
-7.52
-18.48
-27.04
-30.83
-27.93
-17.79
-1.55
18.31
38.93
58.07
74.95
90.25
105.59
122.56
141.86
163.02
184.56
204.62
221.55
234.36
242.79
247.17
248.15
246.60
243.41
239.42
235.16
230.60
225.07
217.39
206.32
191.14
172.09
150.46
128.24
107.34
88.95
73.13
58.87
44.64
29.08
11.42
-8.26
-29.41
-51.18
-72.60
-92.36
-108.67
-119.20
-121.61
-114.22
-96.87
-71.21
-40.32
-7.89
22.93
50.11
72.96
91.72
107.01
119.25
128.43
134.26
136.51
135.39
131.65
126.55
121.48
117.50
115.20
114.66
115.63
117.68
120.13
121.95
121.73
117.80
108.71
93.76
73.36
48.93
22.50
-3.90
-28.74
-51.21
-71.18
-89.05
-105.49
-121.37
-137.56
-154.69
-172.88
-191.35
-208.30
-221.17
-227.34
-224.85
-213.09
-192.79
-165.73
-134.12
-100.08
-65.40
-31.72
-0.54
26.78
49.27
66.64
79.23
87.83
93.18
95.71
95.52
92.61
87.24
80.17
72.59
65.87
61.15
58.98
59.04
60.11
60.43
58.03
51.42
39.97
24.20
5.64
-13.65
-31.66
-46.99
-59.23
-69.06
-77.93
-87.53
-99.11
-112.76
-127.07
-139.30
-146.18
-145.03
-134.79
-116.43
-92.50
-66.15
-40.06
-15.76
6.34
26.49
44.90
61.37
75.30
86.00
93.12
96.86
97.83
96.83
94.48
91.11
86.77
81.37
74.96
67.87
60.75
54.38
49.35
45.77
43.14
40.41
36.34
29.97
20.93
9.61
-3.00
-15.68
-27.36
-37.57
-46.51
-55.00
-64.14
-74.94
-87.77
-101.97
-115.75
-126.43
-131.12
-127.49
-114.57
-93.08
-65.23
-34.01
-2.46
27.10
53.28
75.57
93.87
108.26
118.76
125.45
128.65
129.02
127.46
124.91
122.06
119.17
116.14
112.70
108.65
104.02
99.04
94.11
89.66
85.98
83.13
80.93
78.96
76.61
73.33
68.89
63.62
58.48
54.68
53.11
53.47
53.85
50.85
40.49
19.49
-13.48
-57.09
-107.52
-159.44
-207.06
-245.26
-270.16
-279.43
-272.49
-250.55
-216.46
-174.30
-128.69
-83.85
-42.95
-7.76
21.21
44.20
61.70
73.97
80.89
82.10
77.41
67.20
52.65
35.70
18.51
2.79
-10.69
-22.26
-32.95
-43.81
-55.27
-66.81
-76.97
-83.80
-85.39
-80.38
-68.26
-49.55
-25.73
0.80
27.01
49.71
66.10
74.41
74.23
66.53
53.18
36.29
17.62
-1.74
-21.21
-40.53
-59.61
-78.65
-98.31
-119.43
-142.38
-166.24
-188.28
-204.38
-210.37
-203.70
-184.49
-155.57
-121.25
-85.60
-51.21
-18.77
12.27
42.61
72.24
100.05
124.12
142.46
153.71
157.78
155.96
150.60
144.32
139.14
135.89
134.22
133.16
131.86
130.07
128.04
125.98
123.54
119.79
113.56
104.24
92.24
78.97
66.26
55.66
47.76
41.98
36.96
31.25
24.07
15.84
7.96
2.14
-0.51
-0.31
1.00
0.79
-3.36
-12.73
-26.95
-44.12
-61.29
-75.10
-82.46
-81.08
-69.92
-49.45
-21.56
10.89
44.87
77.94
108.77
137.01
162.91
186.75
208.49
227.75
244.10
257.44
268.11
276.67
283.40
287.89
288.98
285.15
275.36
259.68
239.49
217.13
194.97
174.69
156.92
141.50
128.00
116.17
106.11
97.97
91.68
86.75
82.45
78.18
73.68
69.13
64.82
60.75
56.33
50.42
41.68
29.09
12.42
-7.70
-30.06
-53.52
-77.64
-102.89
-130.46
-161.58
-196.76
-235.32
-275.67
-315.72
-353.85
-389.44
-423.10
-456.34
-491.37
-530.54
-575.78
-627.38
-682.71
-735.70
-777.52
-799.10
-794.14
-761.62
-706.19
-636.45
-561.74
-489.19
-422.36
-361.74
-306.33
-255.33
-208.69
-166.86
-129.93
-97.14
-67.06
-38.23
-9.91
17.57
42.65
63.36
78.10
86.43
89.32
88.77
86.86
84.88
82.80
79.50
73.61
64.42
52.47
39.38
27.20
17.50
10.76
6.29
2.66
-1.81
-8.55
-18.44
-31.53
-46.75
-61.81
-73.57
-78.80
-75.32
-62.85
-43.12
-19.12
6.21
31.08
55.33
79.95
106.06
133.99
162.90
191.07
216.65
238.28
255.60
269.21
280.25
290.04
299.67
309.84
320.99
333.48
347.60
363.47
380.79
398.61
415.37
429.36
439.13
443.79
442.95
436.33
423.41
403.51
376.29
342.46
304.23
265.05
228.87
198.80
176.08
159.63
146.31
132.02
113.11
87.62
55.92
20.51
-15.09
-47.80
-76.17
-100.95
-124.76
-151.27
-183.71
-223.34
-268.13
-312.18
-346.43
-360.71
-346.82
-301.70
-229.48
-141.10
-51.62
24.18
75.83
99.60
98.13
77.92
46.13
8.18
-32.74
-74.50
-114.21
-147.45
-169.03
-175.05
-165.05
-142.53
-113.68
-84.96
-60.86
-43.13
-31.40
-24.55
-21.80
-22.78
-26.87
-32.64
-37.88
-40.59
-40.14
-37.72
-36.03
-38.10
-45.96
-59.88
-78.48
-99.33
-120.08
-139.20
-156.38
-172.52
-189.46
-209.48
-234.59
-265.74
-301.91
-339.62
-373.13
-395.70
-401.54
-387.87
-355.99
-310.93
-259.86
-209.72
-165.37
-128.81
-99.65
-76.50
-58.17
-44.43
-35.74
-32.58
-34.73
-40.92
-49.09
-56.91
-62.42
-64.25
-61.72
-54.67
-43.36
-28.41
-10.85
7.88
26.16
42.37
55.28
64.27
69.37
71.15
70.52
68.46
65.85
63.29
61.10
59.41
58.15
57.17
56.16
54.69
52.35
48.84
44.06
38.06
30.91
22.48
12.28
-0.47
-16.72
-37.45
-63.23
-93.89
-127.89
-162.08
-191.82
-212.08
-218.79
-210.27
-187.75
-154.75
-115.69
-74.35
-33.06
7.28
46.44
84.03
119.22
150.79
177.60
198.77
213.78
222.44
224.94
221.99
215.00
205.93
196.85
189.42
184.38
181.53
179.94
178.58
176.67
173.98
170.79
167.64
165.07
163.27
161.97
160.42
157.73
153.10
146.21
137.28
126.95
116.02
105.05
94.16
82.94
70.56
56.04
38.58
17.90
-5.66
-31.22
-57.72
-84.37
-110.99
-138.15
-166.92
-198.26
-232.17
-267.05
-299.42
-324.54
-337.71
-335.76
-318.21
-287.47
-247.87
-204.16
-159.91
-116.76
-74.49
-31.93
11.93
56.95
101.54
142.93
177.89
203.75
219.20
224.79
222.72
216.03
207.49
198.88
190.85
183.29
176.02
169.10
162.75
157.01
151.39
145.06
137.48
129.00
121.06
115.73
114.77
118.79
126.96
137.45
148.28
158.01
165.90
171.59
174.75
175.10
172.80
168.98
165.71
165.21
168.49
174.41
179.68
180.11
172.57
156.53
134.72
112.27
95.20
88.67
95.76
116.88
149.81
190.11
231.87
268.78
295.48
308.76
308.19
295.93
275.76
251.66
226.67
202.34
178.82
155.55
131.80
107.20
81.80
56.00
30.28
4.95
-20.04
-45.08
-70.72
-97.38
-125.12
-153.60
-182.28
-210.73
-238.97
-267.55
-297.53
-330.36
-367.93
-412.32
-465.05
-525.84
-591.29
-654.61
-706.94
-740.05
-749.41
-735.86
-705.16
-665.46
-624.12
-585.52
-550.73
-518.84
-488.72
-460.08
-433.33
-408.65
-385.29
-361.53
-335.46
-305.97
-273.28
-238.93
-205.08
-173.55
-145.04
-118.97
-93.76
-67.63
-39.33
-8.71
23.30
55.20
85.58
113.74
139.92
165.07
190.38
216.85
245.08
275.32
307.51
341.06
374.52
405.30
429.97
445.13
448.55
440.04
421.55
396.42
368.13
339.28
311.15
284.02
257.69
231.90
206.47
181.16
155.68
129.86
104.01
78.89
55.40
34.12
14.74
-3.96
-23.81
-46.58
-73.19
-103.08
-134.02
-162.29
-183.38
-193.18
-189.13
-171.20
-141.99
-106.01
-68.27
-32.78
-1.58
25.40
49.61
72.83
96.25
119.96
143.06
164.13
181.87
195.64
205.71
213.05
218.94
224.62
230.97
238.55
247.66
258.33
270.21
282.22
292.56
298.90
298.97
291.12
274.83
250.76
220.64
186.84
151.98
118.64
88.60
62.38
39.26
17.71
-3.64
-25.44
-47.37
-68.50
-87.88
-105.38
-122.01
-139.38
-158.82
-180.81
-205.11
-231.43
-259.98
-290.60
-322.58
-353.78
-380.29
-397.11
-399.88
-386.98
-360.51
-325.74
-287.39
-249.21
-213.25
-179.78
-147.78
-115.70
-82.72
-49.23
-16.79
15.93
49.95
85.13
120.51
156.25
194.73
239.32
291.78
349.65
410.46
466.63
506.76
519.94
501.78
457.52
399.74
343.41
301.14
287.46
309.93
366.70
446.85
534.51
613.90
673.08
707.00
677.07
570.47
405.38
221.90
54.55
-84.64
-200.12
-298.76
-382.04
-447.07
-484.94
-493.18
-478.60
-453.69
-429.14
-409.02
-392.02
-375.71
-360.02
-342.62
-323.32
-303.82
-285.79
-268.32
-247.54
-219.58
-184.08
-145.41
-107.54
-75.67
-54.25
-45.40
-47.47
-55.48
-63.44
-66.92
-64.17
-54.56
-39.38
-21.51
-4.65
7.91
14.22
13.88
7.58
-3.16
-15.81
-27.51
-35.82
-39.21
-37.42
-31.46
-23.57
-16.70
-12.75
-13.72
-20.36
-31.95
-46.67
-62.29
-76.90
-89.33
-99.22
-106.84
-112.97
-118.49
-124.20
-130.67
-137.95
-145.32
-151.03
-152.65
-147.57
-134.12
-112.06
-82.96
-49.71
-15.69
16.25
44.50
68.76
89.58
107.69
123.55
137.15
148.03
155.58
159.30
159.08
155.29
148.69
140.26
130.96
121.47
112.21
103.33
94.99
87.39
80.73
75.02
69.92
64.70
58.47
50.54
40.76
29.59
17.95
6.84
-3.04
-11.57
-19.13
-26.41
-34.04
-42.31
-51.14
-60.11
-68.70
-76.52
-83.48
-89.83
-96.14
-103.27
-112.08
-123.13
-136.18
-149.86
-161.60
-168.29
-167.12
-156.63
-137.31
-111.44
-82.27
-53.00
-25.84
-1.72
19.41
38.16
55.06
70.34
83.79
94.99
103.41
108.71
110.79
109.93
106.73
101.97
96.46
90.93
85.88
81.61
78.20
75.54
73.37
71.26
68.77
65.40
60.79
54.70
47.18
38.53
29.31
20.11
11.45
3.54
-3.72
-10.61
-17.46
-24.50
-31.91
-39.70
-47.89
-56.47
-65.28
-74.06
-82.48
-90.32
-97.70
-105.15
-113.59
-123.92
-136.56
-150.93
-165.28
-176.94
-182.95
-180.95
-169.94
-150.58
-124.98
-95.96
-66.21
-37.65
-11.17
13.06
35.23
55.41
73.40
88.69
100.71
109.06
113.69
114.90
113.32
109.69
104.76
99.12
93.29
87.64
82.46
77.88
73.89
70.26
66.53
62.21
56.89
50.44
43.05
35.21
27.55
20.60
14.72
10.03
6.38
3.42
0.70
-2.39
-6.35
-11.58
-18.20
-26.09
-34.84
-43.94
-52.96
-61.75
-70.50
-79.72
-90.15
-102.44
-116.84
-132.87
-149.12
-163.30
-172.62
-174.53
-167.46
-151.38
-127.94
-100.04
-70.99
-43.61
-19.55
0.93
18.60
34.71
50.32
65.79
80.81
94.48
105.82
114.04
118.92
120.69
119.98
117.54
114.08
110.18
106.29
102.77
99.87
97.68
96.04
94.52
92.51
89.37
84.63
78.11
69.98
60.71
50.94
41.41
32.70
25.12
18.52
12.42
6.05
-1.24
-9.77
-19.38
-29.55
-39.57
-48.83
-57.04
-64.32
-71.25
-78.75
-87.83
-99.18
-112.62
-126.75
-138.98
-146.10
-145.22
-134.72
-114.88
-87.85
-56.90
-25.50
3.56
28.78
49.85
67.30
81.81
93.79
103.16
109.48
112.30
111.54
107.59
101.20
93.32
84.78
76.23
68.30
61.57
56.63
53.83
53.11
53.79
54.77
54.81
52.96
48.88
42.94
36.02
29.14
23.17
18.43
14.69
11.22
7.12
1.71
-5.26
-13.36
-21.69
-29.13
-34.83
-38.63
-41.29
-44.38
-49.81
-59.23
-73.33
-91.38
-111.18
-129.42
-142.43
-147.19
-142.16
-127.69
-105.87
-79.87
-52.92
-27.54
-5.03
14.47
31.45
46.43
59.50
70.18
77.75
81.66
81.95
79.47
75.63
72.07
70.07
70.28
72.52
76.09
80.06
83.59
86.09
87.09
86.13
82.68
76.34
67.05
55.35
42.36
29.50
18.02
8.58
1.07
-5.33
-11.78
-19.33
-28.51
-39.21
-50.71
-62.06
-72.36
-81.13
-88.42
-94.83
-101.34
-109.02
-118.67
-130.30
-142.86
-154.15
-161.22
-161.20
-152.24
-134.20
-108.79
-78.99
-48.15
-18.96
7.02
29.48
48.99
66.44
82.57
97.58
111.09
122.24
130.03
133.76
133.36
129.53
123.56
116.95
110.97
106.35
103.25
101.41
100.33
99.46
98.28
96.28
92.99
88.11
81.52
73.44
64.42
55.22
46.70
39.59
34.19
30.33
27.36
24.47
20.92
16.33
10.71
4.42
-1.97
-8.07
-13.72
-18.88
-23.64
-28.08
-32.37
-36.75
-41.54
-46.85
-52.89
-59.77
-67.39
-75.54
-84.02
-92.77
-101.76
-110.73
-118.67
-124.31
-126.12
-122.21
-110.70
-90.23
-60.64
-23.18
19.56
64.56
107.97
146.05
176.21
197.41
209.90
214.56
212.40
204.13
190.75
172.24
148.16
118.56
84.43
47.44
9.37
-28.29
-68.06
-106.67
-138.52
-159.54
-169.05
-168.72
-161.18
-149.66
-137.86
-129.06
-124.31
-123.15
-123.54
-122.65
-118.20
-109.73
-98.59
-86.86
-76.16
-67.05
-59.76
-54.98
-53.37
-54.31
-55.41
-53.26
-45.24
-31.37
-14.49
0.50
9.63
11.81
9.88
8.98
13.83
26.28
45.08
67.53
89.45
108.05
121.54
129.98
135.27
140.19
146.70
154.90
163.02
168.18
168.01
160.36
145.43
125.91
105.60
86.97
69.78
51.68
29.85
2.54
-32.73
-77.57
-131.87
-193.15
-256.56
-315.24
-361.27
-387.39
-377.60
-326.22
-243.26
-150.61
-69.02
-8.30
32.80
61.22
84.27
107.24
130.37
151.12
166.48
174.27
173.05
161.83
140.68
111.35
75.82
37.65
3.06
-21.88
-34.17
-34.96
-28.36
-18.94
-9.48
-2.99
0.23
-0.33
-5.26
-15.10
-30.28
-51.15
-78.00
-107.21
-134.73
-156.71
-171.31
-177.51
-174.08
-158.65
-129.02
-85.47
-32.06
22.38
66.75
90.46
88.38
60.97
16.56
-30.68
-70.22
-97.65
-111.61
-108.11
-86.24
-48.25
-0.70
46.97
84.71
104.84
104.85
87.26
58.09
22.12
-12.48
-37.42
-48.32
-46.79
-38.70
-30.05
-24.46
-21.95
-21.92
-22.99
-24.12
-24.95
-25.19
-24.93
-23.35
-19.30
-12.00
-1.76
10.78
24.38
37.72
50.10
61.62
73.20
85.78
99.59
113.66
126.48
136.18
141.05
140.27
134.17
124.19
112.26
100.18
89.14
79.81
72.19
65.92
60.50
55.54
50.79
46.01
41.05
35.80
30.34
24.81
19.31
13.89
8.51
3.18
-2.06
-7.05
-11.67
-15.90
-19.89
-24.01
-28.66
-34.11
-40.40
-47.37
-54.71
-62.08
-69.13
-75.57
-81.23
-86.18
-90.79
-95.81
-102.15
-110.52
-121.00
-132.68
-143.59
-151.13
-152.81
-147.01
-133.56
-113.74
-89.81
-64.21
-38.88
-14.91
7.40
28.15
47.51
65.40
81.50
95.28
106.11
113.45
117.04
117.08
114.28
109.76
104.68
99.93
95.99
92.86
90.33
88.13
86.05
83.84
81.22
77.84
73.45
67.98
61.59
54.51
46.92
38.94
30.62
22.12
13.70
5.58
-2.10
-9.43
-16.65
-24.02
-31.77
-39.98
-48.63
-57.59
-66.65
-75.53
-83.91
-91.69
-99.10
-106.80
-115.69
-126.49
-139.13
-152.52
-164.49
-172.31
-173.54
-166.75
-152.07
-131.02
-106.08
-79.74
-53.96
-29.73
-7.27
13.68
33.39
51.87
68.78
83.57
95.67
104.64
110.28
112.75
112.44
109.99
106.17
101.67
97.10
92.77
88.84
85.26
81.94
78.69
75.28
71.38
66.63
60.68
53.33
44.64
34.94
24.74
14.60
4.93
-4.18
-12.93
-21.75
-31.07
-41.14
-51.96
-63.34
-74.99
-86.55
-97.65
-107.89
-116.91
-124.58
-131.16
-137.38
-144.28
-152.77
-163.04
-174.09
-183.71
-188.92
-186.92
-175.97
-156.05
-128.91
-97.57
-65.31
-34.78
-7.33
16.96
38.84
59.27
78.77
97.26
114.09
128.40
139.36
146.40
149.39
148.63
144.87
139.17
132.71
126.49
121.16
116.87
113.40
110.31
107.10
103.27
98.37
91.99
83.90
74.16
63.27
52.14
41.82
33.05
26.02
20.17
14.49
8.02
0.28
-8.47
-17.39
-25.47
-32.09
-37.29
-41.80
-46.71
-53.12
-61.74
-72.74
-85.57
-99.00
-111.12
-119.63
-122.29
-117.54
-105.09
-86.10
-62.91
-38.23
-14.34
7.56
27.37
45.66
62.95
79.17
93.54
104.84
111.99
114.52
112.80
107.88
101.17
93.96
87.22
81.47
76.94
73.63
71.47
70.27
69.66
69.10
67.91
65.45
61.36
55.67
48.81
41.39
34.00
27.05
20.63
14.59
8.70
2.73
-3.49
-10.08
-17.17
-24.86
-33.17
-41.95
-50.97
-59.91
-68.52
-76.64
-84.32
-91.86
-99.71
-108.23
-117.74
-128.29
-139.38
-149.74
-157.39
-159.96
-155.55
-143.27
-123.35
-97.49
-68.37
-38.79
-10.93
14.09
36.08
55.21
71.82
86.91
101.06
114.28
126.11
135.90
143.05
147.15
147.77
145.07
141.10
137.97
137.30
139.74
144.96
151.90
159.05
164.08
165.30
163.55
160.03
155.59
150.44
144.68
139.05
135.10
133.50
124.94
104.32
70.94
28.80
-15.97
-57.40
-90.76
-113.27
-127.47
-138.56
-149.56
-162.11
-175.97
-189.59
-201.11
-210.22
-209.41
-196.21
-171.87
-139.44
-103.37
-67.33
-33.50
-2.88
23.63
45.53
61.52
71.56
77.68
82.17
87.04
92.74
99.63
106.73
113.12
117.50
119.81
121.40
123.57
127.17
132.53
139.46
145.51
148.41
146.47
139.13
130.25
122.07
114.88
108.37
102.07
92.00
75.31
51.99
24.89
-2.67
-27.99
-51.52
-74.02
-95.88
-122.62
-158.06
-201.21
-246.91
-289.64
-324.81
-353.26
-376.40
-395.08
-416.56
-446.49
-483.85
-521.80
-552.85
-570.58
-576.15
-572.03
-516.33
-392.11
-219.02
-38.93
114.49
214.80
279.73
323.17
352.97
372.75
380.94
371.08
342.92
303.49
262.26
228.06
201.21
179.84
162.04
140.81
106.31
55.11
-8.48
-76.61
-141.40
-202.04
-259.86
-316.28
-345.44
-332.99
-283.01
-214.93
-147.57
-89.03
-41.70
-4.11
26.70
51.43
65.86
68.08
60.71
49.51
40.33
35.23
34.11
36.41
40.32
40.97
35.63
25.37
14.12
6.06
2.77
1.58
3.20
7.24
11.02
12.98
13.65
15.17
19.37
26.02
33.39
39.57
42.45
40.00
31.87
19.34
4.83
-9.57
-23.65
-38.31
-54.94
-75.78
-103.55
-140.44
-187.36
-243.44
-301.23
-352.44
-388.62
-403.59
-396.07
-369.80
-331.88
-289.95
-249.49
-212.62
-179.34
-148.30
-118.15
-88.24
-58.17
-27.49
4.30
37.26
70.79
103.09
132.40
157.48
178.14
195.30
210.72
226.50
244.31
264.51
285.08
301.89
309.64
303.78
282.66
248.75
208.16
168.65
136.84
116.02
105.71
102.72
103.03
103.48
102.20
98.17
90.36
77.30
57.60
31.29
0.84
-28.65
-50.59
-59.31
-52.38
-31.81
-3.53
24.86
46.77
58.80
61.35
57.69
52.22
48.74
49.45
54.89
64.57
77.86
94.64
115.38
140.90
171.69
207.40
246.59
286.97
326.05
361.91
393.78
422.09
447.68
470.74
489.93
502.27
504.18
493.18
469.35
435.90
398.22
361.96
331.01
306.35
286.31
267.91
248.53
227.05
204.04
181.14
160.06
141.59
125.04
108.36
88.72
63.50
31.32
-7.40
-50.61
-95.44
-139.36
-181.22
-221.59
-262.39
-306.24
-355.55
-411.88
-475.10
-542.34
-607.25
-660.30
-690.80
-690.69
-658.47
-601.40
-534.17
-474.02
-434.46
-420.50
-427.75
-445.58
-462.37
-470.13
-466.26
-452.43
-431.89
-407.38
-380.44
-352.02
-323.38
-296.28
-272.39
-252.06
-233.88
-214.98
-192.13
-163.16
-127.83
-87.98
-46.85
-7.81
26.87
56.75
83.38
109.59
138.50
172.74
214.15
263.76
321.54
385.57
451.25
511.17
556.39
579.14
575.45
546.48
497.57
435.71
367.09
296.18
226.76
163.44
112.21
79.21
68.40
79.62
108.70
149.36
195.92
244.82
294.26
342.52
386.35
420.67
440.08
441.17
424.20
393.22
354.58
314.64
277.95
246.39
219.57
196.08
174.62
154.63
136.24
119.70
104.94
91.33
77.83
63.34
47.12
29.02
9.52
-10.49
-30.13
-48.86
-66.86
-85.02
-104.69
-127.21
-153.35
-183.05
-215.40
-249.18
-283.30
-317.31
-351.57
-387.01
-424.97
-466.99
-514.74
-569.38
-630.44
-694.60
-755.21
-803.28
-830.22
-830.88
-805.75
-760.63
-704.33
-645.08
-587.97
-534.29
-482.86
-432.27
-382.31
-334.16
-289.20
-247.77
-208.53
-168.97
-126.60
-80.01
-29.48
23.13
75.52
125.89
173.73
219.98
266.45
315.06
367.38
424.51
487.15
555.22
626.94
697.77
760.45
806.33
828.19
822.91
792.88
745.03
688.08
629.37
572.91
519.34
467.54
416.44
366.12
317.61
271.99
229.46
189.11
149.31
108.49
65.73
21.22
-23.94
-68.24
-110.50
-150.28
-188.18
-225.56
-263.99
-304.91
-349.46
-398.86
-454.34
-516.39
-583.36
-650.48
-710.00
-753.23
-773.53
-768.90
-742.71
-702.08
-654.88
-607.00
-561.16
-517.73
-476.29
-436.98
-400.50
-367.22
-336.26
-305.42
-272.03
-234.40
-192.69
-148.88
-105.89
-66.08
-30.08
3.45
37.27
74.17
115.64
161.15
208.42
254.36
296.50
333.99
367.71
399.94
433.56
471.37
515.35
565.80
620.31
673.38
717.07
743.12
745.76
724.00
682.07
627.74
569.31
512.78
460.82
413.44
369.77
329.58
293.47
261.99
234.60
209.19
182.78
152.84
118.44
80.46
41.21
3.14
-32.23
-64.90
-96.24
-128.44
-163.73
-203.75
-248.99
-298.35
-348.81
-395.68
-433.53
-457.68
-465.68
-458.04
-437.77
-408.99
-375.33
-339.00
-300.95
-261.64
-221.94
-183.29
-147.28
-114.98
-86.52
-61.24
-38.15
-16.26
5.41
27.85
52.08
78.71
107.47
137.05
165.34
190.37
211.13
228.06
242.84
257.52
273.55
290.86
307.82
321.49
328.61
326.50
313.89
291.11
259.86
222.62
181.92
139.95
98.28
57.79
18.86
-18.40
-53.61
-85.61
-112.19
-130.46
-137.86
-133.49
-119.01
-98.79
-78.80
-65.03
-62.01
-72.09
-95.26
-129.39
-170.59
-213.61
-252.88
-283.85
-304.33
-315.03
-318.99
-320.10
-321.57
-324.99
-330.42
-336.98
-343.45
-348.62
-351.24
-350.21
-344.98
-336.16
-325.65
-315.98
-309.10
-305.12
-302.10
-296.90
-286.89
-271.54
-252.98
-235.16
-222.04
-215.79
-215.94
-219.89
-224.23
-226.34
-225.00
-220.26
-212.61
-202.24
-188.96
-172.51
-153.06
-131.48
-108.96
-86.46
-64.35
-42.26
-19.47
4.65
30.32
57.33
85.17
113.30
141.26
168.73
195.49
221.35
246.12
269.49
291.12
310.60
327.77
343.15
358.22
375.33
396.60
422.41
450.14
474.31
488.29
486.94
468.83
436.82
396.76
355.24
317.61
287.29
265.93
253.62
248.88
248.02
245.08
232.93
205.64
161.19
103.03
39.37
-19.70
-65.64
-94.35
-106.98
-108.66
-106.06
-104.88
-108.36
-116.95
-128.96
-141.34
-150.50
-152.64
-144.46
-124.16
-92.67
-54.26
-15.84
15.12
33.08
36.15
26.36
8.01
-14.58
-39.10
-65.76
-96.48
-133.32
-176.78
-225.16
-274.76
-321.00
-359.62
-387.69
-404.09
-409.43
-405.49
-394.61
-379.17
-361.32
-342.97
-325.72
-310.67
-298.19
-287.58
-277.26
-265.17
-249.58
-229.76
-206.25
-180.60
-154.67
-129.83
-106.39
-83.58
-60.12
-34.89
-7.61
20.99
49.53
76.73
101.94
125.46
148.34
171.76
196.68
223.80
253.78
287.22
323.99
362.36
398.53
427.34
444.34
448.14
441.75
431.91
426.65
432.21
451.25
483.17
525.76
576.82
634.14
694.15
750.55
794.59
817.49
813.93
784.56
735.84
677.31
617.91
562.95
513.52
467.90
423.90
380.47
338.05
297.74
260.27
225.54
192.81
161.40
131.26
103.06
77.97
57.01
40.56
28.17
18.80
11.24
4.65
-1.22
-6.04
-9.33
-10.92
-11.21
-11.13
-11.83
-14.14
-18.26
-23.70
-29.64
-35.37
-40.80
-46.55
-53.67
-63.07
-75.04
-89.02
-103.77
-117.97
-130.92
-142.91
-155.17
-169.26
-186.32
-206.42
-228.48
-250.86
-272.00
-291.28
-309.24
-327.22
-346.82
-369.57
-396.72
-429.09
-466.34
-506.00
-542.79
-569.06
-576.79
-560.20
-517.98
-453.67
-374.03
-286.29
-195.84
-105.61
-17.30
66.76
142.58
205.11
250.19
276.55
286.52
284.99
277.19
266.62
254.33
239.31
220.33
197.33
172.17
147.95
127.77
113.32
104.24
98.20
91.85
82.10
67.34
48.21
27.55
9.34
-2.98
-8.27
-8.43
-7.89
-11.67
-23.21
-42.96
-68.50
-96.08
-122.48
-146.45
-168.83
-191.65
-216.90
-245.87
-278.98
-315.92
-355.52
-395.21
-430.68
-456.27
-466.46
-457.94
-431.17
-390.55
-342.97
-295.10
-251.05
-211.38
-173.86
-135.50
-94.65
-51.98
-10.04
28.23
61.06
88.62
112.67
135.33
157.75
179.34
198.06
211.19
216.44
212.71
200.32
180.95
157.28
132.49
109.62
90.60
75.48
62.16
46.76
24.62
-8.25
-53.58
-109.60
-170.33
-226.23
-266.22
-280.98
-266.20
-224.61
-165.53
-101.88
-46.03
-6.18
15.10
19.92
12.55
-3.01
-24.37
-50.57
-81.14
-115.21
-151.32
-187.86
-223.46
-257.43
-289.61
-319.54
-345.76
-365.54
-375.15
-371.16
-351.93
-318.69
-275.53
-228.09
-181.54
-138.77
-99.64
-61.57
-21.02
24.88
77.20
134.92
195.07
253.45
305.51
347.43
377.23
395.37
404.68
409.31
413.09
418.17
424.34
429.50
430.67
425.21
411.49
388.93
357.72
318.57
272.62
221.65
168.03
114.38
63.07
15.55
-28.08
-69.06
-109.67
-152.82
-201.59
-258.52
-324.38
-396.90
-470.11
-535.11
-582.29
-604.66
-600.34
-573.23
-531.21
-482.96
-434.92
-389.87
-347.44
-305.83
-263.47
-219.71
-174.58
-128.20
-80.44
-31.13
19.42
70.32
120.41
168.69
215.24
261.62
310.63
365.03
425.72
489.96
551.04
599.71
627.25
628.81
605.31
562.86
510.04
454.42
400.14
347.66
295.34
241.77
187.07
132.84
80.92
31.96
-15.13
-62.68
-113.22
-168.72
-230.19
-297.38
-368.53
-439.86
-505.49
-558.37
-592.18
-603.54
-593.23
-565.88
-527.98
-485.50
-442.26
-399.82
-358.66
-319.33
-282.92
-250.36
-221.20
-193.17
-162.78
-126.89
-84.31
-36.43
13.51
61.73
105.78
145.52
182.91
221.13
263.28
311.45
366.15
425.89
486.92
543.48
588.75
616.56
623.34
609.21
577.70
534.00
482.85
427.14
368.04
306.22
242.98
180.71
121.94
67.88
17.62
-31.81
-84.39
-143.80
-212.14
-288.96
-370.36
-449.18
-516.34
-563.31
-585.13
-582.11
-559.77
-526.37
-489.58
-453.98
-420.51
-387.86
-354.73
-321.25
-288.93
-259.34
-232.63
-207.08
-179.80
-148.22
-111.37
-70.31
-27.69
13.61
51.66
86.28
118.95
152.05
187.86
227.78
272.09
320.03
369.83
418.97
464.19
502.05
529.66
545.52
549.95
544.94
533.26
517.50
499.38
479.67
458.46
435.55
410.59
382.91
351.45
314.94
272.46
224.12
171.32
116.50
62.37
11.19
-36.07
-79.88
-121.98
-164.96
-211.80
-265.26
-326.91
-395.84
-467.76
-535.18
-589.06
-621.80
-630.00
-615.91
-586.43
-550.35
-515.07
-484.57
-459.33
-437.89
-418.76
-401.46
-386.25
-373.15
-361.02
-347.60
-330.26
-307.16
-277.90
-243.66
-206.62
-168.91
-131.87
-95.65
-59.36
-21.71
18.18
60.24
103.27
145.26
184.12
218.37
247.75
273.21
296.46
319.19
342.24
365.21
386.50
404.16
416.74
424.02
427.23
428.57
430.52
435.25
444.63
460.22
483.05
512.71
546.31
578.15
600.73
607.07
593.24
559.77
510.94
452.51
389.29
324.18
259.08
196.78
142.05
100.95
78.29
74.94
86.61
104.89
120.04
124.05
112.68
86.09
48.20
5.52
-34.55
-65.55
-83.63
-88.33
-81.84
-67.44
-47.76
-24.20
2.21
29.63
54.90
74.24
84.80
85.89
78.79
65.54
47.35
24.14
-4.71
-39.16
-77.78
-118.35
-159.10
-199.55
-240.54
-283.47
-329.48
-378.72
-429.61
-478.41
-519.33
-545.94
-553.52
-541.34
-513.48
-477.19
-439.52
-404.12
-370.02
-333.12
-289.33
-237.29
-178.95
-117.89
-56.72
4.78
69.64
141.92
223.95
314.25
406.85
492.38
560.85
604.96
622.42
616.53
594.34
563.64
530.08
495.96
461.07
424.66
387.25
350.93
318.31
290.86
267.97
247.28
226.11
202.94
178.23
154.00
132.72
115.84
102.96
91.98
80.01
64.66
45.05
22.05
-2.28
-25.80
-47.33
-67.15
-86.74
-107.94
-132.00
-158.99
-187.95
-217.39
-246.05
-273.54
-300.35
-327.80
-357.92
-393.32
-436.68
-489.53
-550.45
-614.03
-671.10
-711.16
-725.84
-712.12
-673.32
-617.49
-553.96
-489.98
-428.89
-370.53
-313.03
-254.51
-193.65
-129.51
-61.33
10.93
85.13
156.05
215.70
255.51
269.10
254.80
216.33
161.41
99.15
37.42
-18.67
-66.88
-106.85
-138.89
-163.20
-179.84
-189.25
-192.93
-193.86
-196.21
-204.41
-221.52
-248.00
-281.11
-315.63
-345.55
-366.02
-374.59
-371.39
-358.40
-338.39
-314.25
-288.58
-263.68
-241.36
-222.60
-207.23
-193.83
-180.16
-163.87
-143.26
-117.73
-87.92
-55.54
-22.84
7.82
34.74
57.35
76.59
94.67
114.32
137.74
165.70
197.48
231.05
264.19
295.38
324.36
352.35
381.87
416.19
458.18
508.67
564.73
619.07
661.20
680.51
670.16
629.72
565.21
486.61
403.74
322.99
246.22
171.89
97.13
19.42
-62.66
-149.18
-238.40
-326.18
-405.88
-469.56
-510.53
-525.99
-518.14
-493.50
-460.25
-425.40
-393.01
-364.13
-337.95
-313.09
-288.28
-262.43
-234.38
-202.92
-167.20
-127.31
-84.40
-40.34
2.80
43.87
83.33
123.21
165.92
212.23
259.58
301.61
329.92
337.05
319.49
278.97
221.43
154.67
85.91
20.70
-36.87
-83.51
-116.53
-134.52
-138.39
-131.56
-119.07
-105.73
-94.51
-85.96
-78.91
-71.67
-63.00
-52.58
-40.76
-28.11
-15.14
-2.23
10.24
21.81
31.86
39.72
44.81
46.78
45.63
41.73
35.67
28.18
19.90
11.35
2.82
-5.48
-13.36
-20.60
-27.05
-32.76
-38.15
-44.03
-51.45
-61.43
-74.54
-90.70
-109.04
-128.20
-146.60
-162.88
-176.10
-185.75
-191.47
-192.76
-188.71
-178.03
-159.42
-132.01
-95.82
-51.92
-2.14
51.39
106.74
162.52
217.96
272.78
327.27
382.34
439.39
499.61
562.57
624.95
680.55
721.83
742.72
741.14
719.76
684.54
641.89
596.05
548.25
497.78
443.93
387.28
329.50
272.16
215.76
160.21
106.15
56.44
16.11
-9.46
-17.06
-7.43
14.81
43.05
71.16
95.32
114.40
129.28
141.81
154.22
168.70
186.94
209.27
233.98
257.12
273.70
279.57
273.12
255.87
231.55
204.31
177.00
150.59
124.51
97.28
67.19
32.61
-7.16
-50.89
-94.58
-131.39
-153.19
-153.19
-128.75
-82.88
-23.77
37.59
90.56
127.62
145.73
146.10
132.80
111.11
85.94
60.92
38.01
17.68
-0.67
-18.10
-35.59
-53.86
-73.13
-93.16
-113.23
-132.33
-149.37
-163.68
-175.25
-184.84
-193.48
-201.47
-207.52
-208.31
-199.16
-175.71
-135.91
-81.56
-18.48
44.96
100.31
141.49
166.23
175.96
174.50
166.25
154.74
142.00
128.72
114.84
100.16
84.65
68.56
52.18
35.77
19.40
2.89
-14.22
-32.58
-52.88
-75.59
-100.73
-127.84
-156.30
-185.57
-215.55
-246.71
-279.84
-315.84
-355.75
-400.80
-452.09
-509.76
-571.55
-632.10
-683.58
-718.04
-730.60
-721.59
-696.44
-663.05
-628.31
-595.49
-564.17
-532.19
-498.23
-463.29
-430.10
-401.34
-377.90
-358.46
-340.55
-322.15
-302.80
-283.50
-265.89
-250.93
-238.20
-226.05
-212.29
-195.28
-174.66
-151.55
-128.00
-106.09
-86.99
-70.50
-55.15
-38.98
-20.44
0.89
24.13
47.53
69.31
88.58
105.73
122.29
140.26
161.12
185.24
211.72
239.07
265.83
291.41
316.28
341.67
369.08
400.08
436.25
478.97
528.63
583.36
638.12
685.08
715.53
722.94
705.47
666.73
614.31
556.86
501.12
450.51
405.50
364.98
327.75
293.09
260.36
228.32
194.99
158.31
117.53
74.53
33.93
2.20
-14.85
-14.37
2.20
29.58
60.84
90.22
114.91
135.30
153.42
170.83
187.23
200.69
209.02
211.52
209.76
206.84
205.82
208.05
212.62
217.02
218.81
217.01
212.60
207.83
204.83
204.49
206.12
208.09
208.82
207.55
204.35
199.64
193.40
184.77
172.28
154.39
130.33
100.53
66.66
30.99
-4.48
-38.73
-72.02
-105.54
-140.69
-178.30
-218.13
-259.20
-300.15
-340.09
-378.93
-417.38
-456.73
-498.58
-544.70
-596.57
-654.29
-715.33
-773.69
-820.53
-846.44
-844.47
-812.62
-754.30
-676.86
-588.84
-497.75
-409.13
-326.71
-253.10
-189.90
-137.17
-92.69
-52.01
-9.96
37.11
88.98
140.80
184.24
209.93
210.57
183.05
129.09
54.80
-30.62
-116.42
-191.86
-247.92
-278.98
-283.90
-266.23
-232.91
-191.76
-148.80
-106.73
-65.30
-23.31
19.26
60.26
95.78
121.65
135.02
135.21
123.60
103.15
77.94
52.69
32.60
22.78
27.42
48.81
86.54
137.09
194.23
249.92
295.87
325.26
334.27
323.09
295.82
259.16
220.46
185.67
158.10
138.13
123.97
112.81
101.91
89.12
73.13
53.53
30.64
5.33
-21.32
-48.50
-76.10
-105.00
-137.18
-175.34
-221.64
-276.10
-335.05
-390.97
-433.99
-455.00
-448.98
-416.84
-364.81
-301.80
-235.92
-172.08
-111.51
-52.93
5.86
66.82
131.00
198.06
265.67
328.93
380.80
413.70
422.07
404.54
364.58
309.18
246.31
182.50
121.51
64.44
10.64
-41.39
-93.76
-149.32
-211.37
-282.47
-362.50
-447.23
-528.37
-595.54
-639.77
-656.78
-648.43
-621.61
-585.14
-546.45
-509.46
-474.65
-440.65
-406.21
-371.16
-336.21
-301.96
-268.17
-233.78
-197.66
-159.47
-119.95
-80.76
-43.46
-8.71
24.23
57.24
92.59
131.86
175.31
221.90
269.69
316.72
361.65
404.03
444.25
483.49
523.64
566.89
614.67
666.08
716.71
758.61
782.20
779.52
747.26
688.22
610.20
522.92
434.76
350.68
272.15
198.55
128.73
61.55
-4.45
-71.27
-140.60
-211.91
-280.74
-338.59
-375.04
-381.39
-354.32
-297.73
-221.79
-139.90
-64.87
-5.95
32.51
50.63
51.71
40.65
22.69
2.57
-15.92
-30.19
-38.85
-41.61
-39.07
-32.79
-24.77
-17.00
-10.73
-5.93
-1.21
5.58
16.26
31.39
49.67
68.42
84.52
95.79
101.88
104.33
105.74
108.42
113.12
118.53
121.90
120.25
111.68
96.01
74.54
49.05
20.81
-9.88
-43.58
-81.13
-123.20
-170.25
-222.63
-280.22
-341.63
-403.19
-458.67
-500.36
-521.32
-517.83
-490.71
-444.94
-387.79
-326.55
-267.05
-213.26
-167.79
-132.50
-108.71
-96.86
-96.03
-103.73
-116.06
-128.30
-135.65
-134.11
-121.28
-96.97
-63.20
-23.47
18.43
59.64
98.96
136.67
173.97
212.40
253.66
299.45
350.89
407.30
465.04
517.14
554.70
569.69
557.92
520.70
464.12
396.62
325.83
256.60
190.65
127.58
66.19
5.27
-56.26
-119.34
-184.37
-250.52
-315.25
-374.46
-423.45
-458.04
-475.62
-475.72
-459.75
-430.51
-391.42
-345.87
-296.66
-245.77
-194.36
-142.96
-91.88
-41.36
8.36
57.33
106.19
156.33
209.69
268.11
332.15
399.97
467.04
526.88
573.00
601.31
611.69
608.17
597.32
585.74
577.71
574.19
573.12
570.92
564.05
550.09
528.17
498.73
463.12
423.21
381.14
338.97
298.60
261.63
229.17
201.69
178.92
159.83
143.02
127.13
111.39
95.90
81.49
69.37
60.43
54.92
52.17
50.93
49.79
47.68
44.25
39.88
35.40
31.62
28.90
26.91
24.64
20.78
14.14
4.08
-9.31
-25.40
-43.35
-62.58
-83.09
-105.33
-129.99
-157.42
-187.26
-218.31
-248.92
-277.42
-302.68
-324.42
-343.17
-359.99
-376.43
-394.36
-415.77
-441.96
-472.38
-503.59
-529.25
-541.57
-533.76
-502.36
-448.25
-375.84
-291.10
-199.71
-106.52
-16.14
65.92
133.13
179.19
200.33
197.11
174.63
140.81
103.45
67.89
35.90
6.20
-23.77
-56.27
-92.33
-131.88
-174.27
-218.47
-262.76
-304.45
-339.93
-365.71
-380.03
-384.17
-382.61
-381.43
-385.32
-395.21
-407.33
-414.56
-409.52
-387.49
-347.56
-291.92
-224.13
-147.94
-67.69
10.51
78.13
125.40
143.99
130.36
87.38
23.75
-49.11
-120.61
-183.50
-234.27
-272.16
-297.67
-311.59
-315.04
-309.76
-298.16
-282.87
-265.89
-248.06
-229.00
-207.51
-182.47
-153.44
-121.00
-86.52
-51.50
-17.06
16.40
49.09
81.65
114.79
149.01
184.46
220.84
257.66
294.58
331.77
369.86
409.52
450.82
492.65
532.65
567.52
593.65
607.81
607.60
591.95
561.36
518.03
465.56
408.23
349.98
293.38
239.07
185.93
131.90
75.17
15.33
-45.91
-104.88
-156.78
-197.06
-222.91
-234.15
-233.03
-223.14
-207.72
-188.51
-165.40
-137.36
-103.64
-64.90
-23.34
18.12
56.93
91.81
122.81
150.79
176.66
200.84
223.23
243.50
261.39
276.60
288.47
295.66
296.21
288.11
270.22
242.81
207.70
167.68
125.45
82.86
40.52
-2.15
-46.45
-93.93
-146.17
-204.55
-269.63
-340.43
-413.61
-483.46
-543.03
-585.88
-607.96
-608.57
-590.02
-556.28
-511.55
-459.28
-402.17
-342.62
-283.05
-225.64
-171.70
-121.06
-71.97
-21.69
32.46
91.91
155.91
221.21
282.43
333.53
369.52
388.01
389.95
379.11
360.60
339.17
317.93
297.95
278.76
259.30
238.71
216.82
194.15
171.70
150.46
131.15
113.93
98.34
83.60
68.74
52.88
35.50
16.58
-3.33
-23.25
-42.08
-58.96
-73.72
-86.99
-100.14
-114.90
-133.04
-156.09
-184.98
-219.68
-258.54
-297.86
-332.36
-356.50
-366.53
-362.30
-347.57
-328.74
-312.44
-303.26
-302.70
-309.59
-321.45
-335.95
-351.58
-367.31
-381.81
-392.95
-397.99
-394.51
-381.42
-359.66
-331.92
-301.85
-272.72
-246.29
-222.51
-199.90
-176.64
-151.74
-125.64
-99.97
-76.70
-57.17
-41.39
-28.09
-15.24
-0.96
15.74
34.63
54.52
73.91
91.71
107.87
123.40
140.19
160.54
186.59
219.64
259.20
302.15
342.48
371.94
382.03
366.57
324.09
258.76
179.60
98.04
25.10
-30.99
-65.79
-78.60
-71.49
-48.34
-13.98
26.61
68.91
109.54
146.74
180.47
212.15
244.15
279.14
319.34
365.81
417.70
471.94
523.45
566.21
594.97
606.76
601.65
582.23
552.12
514.36
470.60
421.50
367.89
311.88
256.95
206.96
164.69
130.66
103.18
79.33
56.25
32.11
6.17
-21.70
-51.65
-83.93
-118.59
-154.90
-191.17
-225.13
-254.72
-279.04
-298.61
-315.19
-330.87
-347.29
-364.96
-383.05
-399.56
-411.75
-416.76
-412.34
-397.57
-373.23
-341.65
-306.12
-269.89
-235.44
-204.09
-176.23
-151.85
-130.98
-113.79
-100.22
-89.62
-80.62
-71.50
-60.95
-48.75
-35.99
-24.71
-17.12
-14.52
-16.75
-22.18
-28.44
-33.51
-36.60
-38.47
-40.77
-44.72
-50.21
-55.28
-56.43
-49.52
-30.82
2.47
51.45
115.01
189.47
268.26
342.50
402.74
441.65
455.92
447.16
420.39
381.38
334.57
281.15
219.68
148.69
69.69
-11.70
-86.00
-143.59
-178.47
-188.70
-178.02
-153.90
-124.44
-95.09
-68.61
-44.12
-20.52
1.72
24.23
48.17
74.03
101.59
130.56
158.54
185.04
208.75
227.29
244.04
262.98
286.50
314.24
344.63
372.77
398.01
419.84
437.23
456.47
483.89
522.36
569.68
621.22
667.80
706.30
734.75
707.68
600.14
416.24
189.62
-35.85
-203.05
-312.04
-373.79
-400.92
-405.31
-396.02
-378.16
-357.31
-347.18
-355.16
-383.33
-420.50
-453.47
-474.00
-475.23
-455.91
-418.73
-370.54
-317.58
-267.26
-220.80
-178.09
-139.09
-100.16
-61.14
-21.82
16.57
52.74
82.47
102.40
107.75
94.03
61.16
13.67
-40.16
-91.67
-133.80
-164.46
-184.68
-198.54
-210.00
-221.00
-230.82
-236.24
-233.30
-218.36
-190.41
-151.82
-108.85
-68.93
-39.51
-25.13
-25.44
-35.31
-46.71
-52.02
-47.13
-32.22
-8.79
20.53
53.57
89.09
126.00
162.61
196.19
223.53
234.67
224.77
193.56
143.97
79.15
1.61
-84.02
-168.24
-238.78
-287.05
-306.79
-299.20
-272.83
-239.71
-209.53
-186.20
-167.41
-149.66
-130.55
-107.57
-79.70
-46.04
-5.10
43.98
99.04
153.13
195.24
214.66
208.15
179.94
139.70
98.02
63.01
38.78
26.01
23.38
29.22
45.18
73.68
116.24
172.01
237.58
307.71
375.85
434.44
462.61
445.27
380.19
282.40
176.65
84.12
14.24
-34.60
-69.48
-97.29
-118.60
-130.41
-130.28
-119.89
-105.16
-93.07
-88.48
-92.69
-104.54
-118.55
-128.92
-132.50
-130.34
-126.80
-126.43
-131.98
-144.15
-163.40
-187.63
-212.97
-235.58
-251.89
-258.91
-253.86
-235.52
-199.12
-151.28
-102.60
-61.29
-31.55
-11.37
2.12
11.82
20.22
30.15
44.16
65.08
96.86
139.29
186.17
226.36
248.42
244.84
215.46
166.38
102.30
35.38
-22.39
-64.89
-93.95
-115.41
-136.81
-162.63
-195.25
-234.92
-277.73
-318.28
-350.33
-368.22
-368.26
-350.29
-317.75
-276.81
-233.38
-190.41
-149.17
-109.94
-72.83
-37.81
-4.75
26.94
57.84
88.24
118.18
146.07
169.20
184.98
192.00
190.77
183.43
172.91
161.95
152.92
146.84
143.61
142.45
142.33
142.35
141.71
139.74
135.85
129.79
121.56
111.55
100.51
89.31
78.59
68.53
58.76
48.71
37.91
26.36
14.46
2.87
-7.90
-17.66
-26.62
-35.23
-44.01
-53.45
-63.87
-75.35
-87.47
-99.18
-108.74
-114.07
-113.35
-105.63
-91.32
-72.05
-50.20
-28.18
-7.82
9.97
25.17
38.39
50.47
62.14
73.68
84.82
94.79
102.52
107.13
108.18
105.92
101.20
95.21
89.17
84.02
80.29
78.11
77.16
76.81
76.30
74.95
72.34
68.49
63.77
58.76
53.93
49.47
45.17
40.58
35.22
28.77
21.28
13.13
4.93
-2.61
-8.94
-13.90
-17.89
-21.87
-27.21
-35.24
-46.74
-61.53
-78.27
-94.70
-108.08
-115.86
-116.30
-108.83
-94.19
-74.17
-51.17
-27.59
-5.31
14.63
32.00
47.11
60.36
71.95
81.68
89.04
93.49
94.63
92.47
87.44
80.33
72.16
64.00
56.78
51.03
46.91
44.10
41.95
39.74
36.83
32.87
27.85
22.02
15.76
9.38
3.02
-3.40
-10.08
-17.20
-24.84
-32.84
-40.90
-48.62
-55.61
-61.64
-66.65
-70.78
-74.30
-77.63
-81.19
-85.20
-89.53
-93.40
-95.43
-93.83
-86.89
-73.57
-53.94
-29.15
-1.18
27.65
55.10
79.28
98.69
112.19
119.15
119.56
114.17
104.44
92.19
79.25
67.04
56.47
47.91
41.32
36.41
32.75
29.82
27.08
23.95
19.87
14.28
6.73
-3.04
-14.90
-28.28
-42.30
-55.98
-68.55
-79.64
-89.26
-97.66
-105.10
-111.80
-118.06
-124.37
-131.45
-140.08
-150.69
-162.96
-175.49
-185.94
-191.53
-189.82
-179.51
-160.86
-135.58
-106.29
-75.72
-46.00
-18.43
6.48
28.65
48.06
64.65
78.41
89.52
98.47
105.95
112.62
118.79
124.26
128.40
130.44
129.94
127.04
122.55
117.69
113.56
110.73
109.04
107.72
105.84
102.75
98.39
93.32
88.38
84.32
81.41
79.31
77.27
74.44
70.32
64.90
58.55
51.80
45.12
38.88
33.66
30.54
31.12
37.30
50.61
71.67
100.06
134.63
174.07
217.07
262.04
306.36
346.13
376.70
394.14
396.84
386.48
367.45
345.19
324.17
306.59
292.32
279.98
268.36
257.23
247.38
239.88
235.32
233.35
232.72
231.75
228.81
222.72
212.86
199.07
181.19
158.89
131.32
97.27
55.51
5.35
-52.86
-117.49
-185.85
-254.90
-321.83
-384.77
-442.99
-496.72
-546.88
-594.95
-642.93
-692.84
-745.66
-799.78
-850.18
-888.87
-907.27
-899.35
-864.28
-806.86
-735.62
-659.50
-584.91
-514.60
-448.45
-385.36
-324.75
-266.78
-211.63
-158.76
-106.91
-55.06
-3.59
45.33
88.37
122.29
145.46
158.53
164.08
165.50
165.68
166.18
167.04
167.24
165.44
160.64
152.52
141.46
128.38
114.43
100.65
87.68
75.67
64.19
52.46
39.47
24.43
7.09
-11.87
-30.67
-46.60
-56.68
-58.51
-51.02
-34.93
-12.49
13.17
38.94
62.48
82.63
99.32
113.11
124.75
134.76
143.26
150.03
154.68
156.90
156.67
154.23
150.10
144.86
139.08
133.25
127.68
122.60
118.07
113.95
109.98
105.78
101.00
95.39
88.92
81.73
74.08
66.23
58.29
50.18
41.72
32.71
23.11
13.09
2.98
-6.87
-16.21
-25.11
-33.93
-43.25
-53.67
-65.36
-77.87
-89.89
-99.41
-104.28
-102.79
-94.36
-79.75
-60.86
-40.10
-19.61
-0.81
15.79
30.23
42.75
53.45
62.18
68.71
72.84
74.57
74.21
72.22
69.22
65.81
62.56
59.84
57.83
56.46
55.50
54.67
53.72
52.49
50.88
48.77
45.96
42.22
37.41
31.54
24.87
17.81
10.82
4.22
-1.84
-7.47
-12.87
-18.26
-23.76
-29.43
-35.36
-41.63
-48.23
-54.79
-60.38
-63.53
-62.44
-55.64
-42.52
-23.74
-1.07
23.05
46.33
67.13
84.82
99.56
112.05
123.07
133.22
142.85
151.99
160.57
168.52
175.84
182.78
189.75
197.33
206.31
217.66
232.43
251.40
274.43
299.95
324.99
345.86
359.42
364.44
362.04
355.31
347.87
342.44
339.90
339.42
339.23
337.61
333.46
326.34
316.14
302.78
286.12
266.25
243.65
219.24
194.20
169.65
146.20
123.89
102.20
80.35
57.65
33.82
9.14
-15.64
-39.43
-61.13
-79.79
-94.77
-105.75
-112.70
-115.86
-115.70
-112.93
-108.45
-103.24
-98.31
-94.51
-92.48
-92.65
-95.21
-100.17
-107.31
-116.18
-125.97
-135.62
-143.96
-150.02
-153.38
-154.37
-154.12
-154.24
-156.34
-161.54
-170.11
-181.58
-195.10
-209.96
-226.03
-243.77
-263.95
-287.05
-312.73
-339.68
-366.09
-390.22
-411.23
-429.60
-446.97
-465.76
-488.83
-519.12
-559.08
-609.52
-668.37
-729.78
-784.82
-823.82
-839.64
-830.22
-799.24
-754.25
-703.50
-653.03
-605.45
-560.76
-518.11
-477.32
-439.10
-404.30
-372.98
-343.98
-315.54
-286.31
-256.07
-225.81
-197.30
-172.11
-150.89
-133.11
-117.39
-102.13
-86.24
-69.52
-52.66
-36.86
-23.13
-11.90
-2.87
4.84
12.22
19.93
28.08
36.25
43.75
49.98
54.70
58.10
60.68
63.00
65.48
68.19
70.92
73.33
75.13
76.25
76.89
77.44
78.29
79.70
81.65
83.90
86.12
88.04
89.66
91.25
93.33
96.37
100.63
106.03
112.06
118.13
123.78
128.97
134.16
140.17
147.79
157.42
168.84
181.25
193.68
205.31
215.95
226.04
236.51
248.49
263.06
280.94
302.15
325.62
348.91
368.55
380.76
382.76
373.72
355.07
329.87
301.45
272.17
242.83
212.98
182.03
150.28
119.45
92.29
71.70
59.57
56.18
60.15
69.06
80.30
91.87
102.76
112.80
122.15
130.84
138.49
144.45
148.12
149.29
148.27
145.75
142.50
139.17
136.07
133.24
130.39
127.15
123.19
118.41
113.05
107.67
102.94
99.31
96.81
94.92
92.81
89.68
85.10
79.16
72.34
65.24
58.27
51.58
45.01
38.24
30.99
23.11
14.67
6.01
-2.36
-9.96
-16.48
-22.01
-27.03
-32.30
-38.59
-46.39
-55.56
-65.23
-73.80
-79.25
-79.60
-73.46
-60.42
-41.13
-17.10
9.78
37.69
65.25
91.55
116.09
138.57
158.82
176.79
192.61
206.63
219.42
231.61
243.72
255.98
268.40
280.81
293.22
305.91
319.41
334.24
350.64
368.40
386.81
404.87
421.31
434.67
443.41
446.19
442.26
431.76
415.82
396.17
374.49
351.77
328.13
302.97
275.59
245.64
213.28
179.03
143.54
107.40
71.18
35.46
1.01
-31.34
-60.73
-86.59
-108.63
-126.94
-141.82
-153.67
-162.83
-169.48
-173.77
-175.78
-175.71
-173.84
-170.56
-166.25
-161.20
-155.58
-149.52
-143.25
-137.09
-131.48
-126.82
-123.39
-121.18
-119.99
-119.49
-119.65
-120.83
-123.86
-129.74
-139.25
-152.50
-168.70
-186.34
-203.62
-219.15
-232.43
-244.00
-255.17
-267.30
-281.23
-296.88
-313.63
-330.58
-347.29
-364.18
-382.39
-403.64
-429.97
-463.49
-505.92
-557.44
-615.32
-673.18
-721.72
-751.17
-754.65
-730.82
-684.35
-623.85
-558.35
-494.12
-433.50
-375.75
-319.30
-263.47
-209.00
-157.23
-108.71
-62.60
-16.94
30.38
80.53
133.39
187.76
242.33
296.41
349.98
403.29
455.98
506.59
552.80
592.34
623.89
647.50
664.02
674.05
677.10
671.64
656.00
629.67
594.08
552.34
508.15
464.60
423.40
384.97
349.13
315.73
284.88
256.83
231.46
208.08
185.69
163.36
140.72
118.09
96.26
76.06
57.87
41.47
26.16
11.18
-3.89
-18.89
-33.23
-46.26
-57.70
-67.97
-78.03
-89.04
-101.80
-116.38
-132.13
-148.06
-163.48
-178.51
-194.08
-211.67
-232.57
-257.21
-284.89
-314.18
-343.41
-371.55
-398.54
-425.34
-453.59
-485.36
-522.78
-567.54
-619.72
-676.63
-732.27
-778.17
-805.80
-809.57
-788.96
-748.66
-696.49
-640.34
-585.59
-534.39
-486.66
-441.79
-399.83
-361.45
-327.07
-295.99
-266.34
-236.01
-203.74
-169.88
-136.14
-104.83
-77.54
-54.29
-33.51
-12.73
10.35
36.79
66.05
96.40
125.79
152.89
177.66
201.28
225.58
252.36
282.91
317.65
355.81
395.23
432.43
463.23
483.93
492.75
490.80
481.82
470.88
462.49
459.03
460.37
464.67
469.85
474.69
479.08
483.11
486.10
485.93
479.55
464.31
439.31
406.16
368.60
330.90
295.97
264.19
233.51
200.75
163.41
121.02
75.35
29.41
-13.88
-52.96
-88.00
-120.54
-152.70
-186.92
-225.27
-269.05
-318.28
-371.11
-423.38
-469.00
-501.27
-515.19
-509.68
-487.65
-454.64
-416.47
-377.27
-338.70
-300.42
-261.29
-220.47
-178.67
-136.57
-93.83
-48.96
-0.09
54.02
113.65
178.41
247.31
316.29
380.99
437.55
482.69
513.15
525.99
519.92
496.38
459.41
409.34
347.93
279.64
211.09
148.14
93.59
47.27
7.24
-29.08
-72.09
-128.77
-198.84
-274.88
-348.08
-413.10
-468.72
-516.51
-559.50
-612.10
-685.50
-781.50
-891.14
-1000.21
-1095.02
-1164.89
-1203.41
-1144.10
-959.60
-675.32
-358.43
-73.56
147.36
302.81
406.46
474.80
521.71
546.07
547.43
532.10
511.85
498.05
494.33
497.10
499.15
494.54
471.71
426.16
363.40
295.66
232.62
176.32
122.36
66.41
7.42
-57.43
-125.20
-187.32
-226.72
-233.61
-211.77
-175.61
-146.12
-127.21
-118.24
-115.92
-116.10
-116.34
-117.00
-119.68
-124.81
-130.50
-132.81
-130.87
-125.48
-118.24
-111.08
-106.19
-104.82
-106.32
-108.24
-107.02
-101.19
-91.00
-77.88
-63.84
-51.11
-41.00
-33.38
-26.81
-19.14
-9.46
2.16
14.99
28.03
40.16
50.68
59.51
67.15
74.41
81.58
88.56
95.07
100.77
105.32
108.50
110.25
110.72
110.25
109.14
107.70
106.30
105.26
104.70
104.50
104.31
103.68
102.28
100.13
97.53
95.05
93.25
92.45
92.66
93.61
95.05
96.99
99.81
104.15
110.55
119.11
129.36
140.47
151.61
162.06
171.22
178.27
182.00
181.05
174.45
162.45
146.72
129.95
115.00
104.00
98.08
97.72
103.27
115.06
133.11
156.34
182.09
206.56
226.21
239.35
247.18
253.42
262.69
278.22
299.97
324.18
344.49
354.03
347.75
324.13
285.61
237.81
187.98
143.28
109.31
89.24
83.58
90.37
106.05
126.43
147.69
167.06
182.90
194.54
201.81
204.71
203.38
198.15
189.63
178.59
165.79
151.82
137.11
122.18
107.80
94.98
84.55
76.75
70.90
65.50
58.80
49.45
36.90
21.47
3.89
-15.18
-35.62
-58.01
-83.58
-113.96
-150.74
-194.51
-243.84
-294.63
-340.34
-373.51
-388.20
-382.20
-358.02
-322.03
-282.03
-244.60
-213.27
-188.42
-168.58
-152.21
-138.79
-128.90
-123.27
-121.88
-123.57
-126.53
-129.17
-130.96
-132.68
-135.85
-141.68
-150.11
-159.45
-166.71
-168.82
-163.84
-151.83
-134.78
-115.81
-97.90
-83.02
-71.95
-65.04
-62.89
-66.61
-77.08
-93.71
-113.79
-133.04
-147.17
-153.63
-152.39
-145.16
-133.81
-118.93
-99.85
-75.87
-47.85
-18.86
6.70
24.86
33.75
34.16
28.69
20.34
11.19
2.02
-7.38
-17.26
-27.30
-36.29
-42.52
-44.58
-41.94
-35.53
-27.39
-19.97
-15.07
-13.15
-13.52
-15.06
-17.23
-20.17
-24.28
-29.27
-33.67
-35.16
-31.65
-22.35
-8.23
8.65
26.23
43.04
57.96
69.22
73.83
68.26
50.28
21.01
-14.30
-47.54
-70.46
-77.62
-68.07
-44.92
-13.53
20.91
54.72
85.85
113.19
135.76
152.64
163.51
169.13
171.43
172.81
175.07
178.60
182.17
183.59
180.86
173.22
161.64
148.54
136.77
128.53
124.69
124.66
127.02
130.16
132.95
134.97
136.32
137.30
138.22
139.44
141.48
144.89
149.80
155.31
159.09
157.75
147.80
127.00
95.33
54.99
9.54
-37.43
-83.54
-128.09
-171.86
-216.33
-262.99
-312.65
-364.89
-417.63
-466.93
-507.47
-533.76
-541.76
-530.27
-501.35
-459.53
-410.08
-357.35
-303.80
-250.17
-196.33
-142.31
-88.83
-37.28
10.72
53.80
91.12
122.36
147.58
167.14
181.53
191.34
197.28
200.28
201.50
202.34
204.29
208.57
215.83
225.98
238.04
250.29
260.48
266.33
266.21
259.73
247.92
232.96
217.38
203.20
191.37
181.71
173.41
165.69
158.13
150.53
142.61
133.56
122.31
108.01
90.65
71.16
50.87
30.48
9.60
-13.00
-38.40
-66.41
-95.17
-121.55
-142.25
-154.62
-156.97
-148.34
-128.55
-98.66
-61.58
-22.26
13.24
39.55
53.84
56.93
52.66
46.14
41.53
40.51
42.11
43.51
41.61
34.27
21.09
3.23
-17.17
-37.91
-57.28
-74.29
-88.28
-98.57
-104.39
-105.13
-100.90
-92.77
-82.42
-71.57
-61.15
-50.94
-39.97
-27.44
-13.63
-0.50
8.74
10.79
3.59
-12.73
-35.99
-62.91
-90.44
-116.59
-140.59
-162.42
-182.07
-199.29
-213.86
-226.21
-237.88
-251.15
-268.00
-288.66
-310.73
-329.45
-339.26
-335.94
-318.29
-288.44
-250.60
-209.31
-167.67
-126.68
-85.82
-43.92
-0.09
45.75
92.76
139.11
182.00
218.19
244.69
259.73
263.33
257.23
244.17
227.04
208.39
190.32
174.65
162.75
155.08
150.67
147.18
141.58
131.46
116.07
96.68
75.95
56.82
41.45
30.79
24.73
22.68
23.96
28.04
34.34
41.93
49.45
55.39
58.54
58.54
55.96
52.19
48.83
47.09
47.42
49.46
52.25
54.56
55.17
53.19
48.47
42.03
36.23
34.51
40.43
56.28
81.85
113.93
146.71
173.32
187.69
186.12
168.10
136.17
94.91
49.40
4.13
-38.02
-76.03
-110.53
-143.46
-177.66
-216.64
-263.71
-320.57
-385.66
-453.06
-513.16
-555.32
-571.70
-560.42
-526.38
-479.03
-428.40
-381.32
-339.80
-301.96
-264.64
-225.65
-184.75
-142.95
-101.51
-61.24
-22.74
12.90
43.84
67.79
82.77
88.08
84.73
75.11
62.30
49.22
37.94
29.30
22.82
16.99
9.88
-0.03
-13.15
-28.25
-42.57
-52.61
-55.17
-48.59
-33.26
-11.52
13.25
37.98
60.88
81.76
101.56
121.38
141.59
161.57
180.03
195.54
206.70
211.99
209.70
198.54
178.74
153.09
126.95
106.81
97.93
102.26
117.77
139.74
163.07
184.31
202.28
217.18
229.28
238.08
242.52
241.75
235.68
224.83
209.72
190.38
166.58
138.38
106.84
74.12
42.91
15.46
-7.18
-25.26
-39.90
-52.29
-63.10
-72.35
-79.65
-84.71
-87.93
-90.87
-96.35
-107.82
-128.28
-158.70
-196.94
-237.56
-273.04
-295.99
-301.54
-288.67
-260.18
-221.20
-177.27
-132.86
-90.74
-52.37
-18.41
10.77
35.23
55.62
73.20
89.46
105.41
121.08
135.38
146.70
153.68
156.00
154.65
151.63
149.26
149.30
152.38
157.86
164.14
169.35
172.05
171.76
169.09
165.41
162.15
160.17
159.26
158.21
155.39
149.53
140.46
129.26
117.90
108.47
102.36
99.80
99.94
101.14
101.25
97.89
89.06
73.95
53.87
32.46
14.77
5.36
6.20
15.64
29.19
41.79
50.30
54.96
58.88
66.16
79.64
99.60
123.86
148.99
171.71
189.87
202.80
211.02
215.58
217.24
215.85
210.44
199.78
183.27
161.69
137.13
112.23
88.92
67.51
46.61
23.86
-2.75
-33.86
-68.13
-102.56
-133.30
-156.89
-171.48
-177.59
-177.99
-176.71
-177.42
-182.08
-190.32
-200.04
-208.65
-214.24
-216.13
-214.66
-210.78
-205.58
-200.17
-195.54
-192.08
-189.00
-184.24
-175.32
-160.92
-142.36
-124.08
-112.36
-113.05
-129.34
-160.48
-202.18
-247.88
-290.47
-323.69
-343.05
-346.64
-335.54
-313.67
-286.75
-260.58
-239.01
-222.74
-209.40
-194.84
-174.82
-146.43
-108.54
-61.62
-7.38
51.29
110.20
164.12
207.62
236.63
249.75
248.77
237.99
222.48
206.36
191.79
178.88
166.64
153.82
139.70
124.08
107.12
89.03
70.04
50.36
30.24
9.87
-10.77
-31.97
-54.31
-78.54
-105.24
-134.48
-165.43
-196.20
-224.19
-246.78
-262.19
-269.98
-271.04
-267.03
-259.64
-250.13
-239.19
-227.07
-213.70
-198.81
-181.91
-162.45
-140.15
-115.16
-88.05
-59.57
-30.20
-0.06
31.07
63.53
97.62
133.50
170.90
208.85
245.30
277.16
300.72
312.39
309.76
292.28
261.71
221.94
178.21
135.86
98.99
69.47
46.85
29.21
14.64
2.47
-6.58
-11.13
-10.52
-5.55
1.77
9.41
16.36
22.91
29.92
37.79
45.94
53.08
58.05
60.59
61.46
61.90
62.86
64.25
64.81
62.52
55.21
41.10
19.23
-10.35
-46.56
-87.40
-130.14
-171.60
-208.56
-237.97
-257.24
-264.55
-259.13
-241.54
-213.65
-178.28
-138.73
-98.07
-58.62
-21.63
12.68
44.78
75.48
105.45
134.78
162.84
188.49
210.49
228.04
240.97
249.69
254.87
257.14
257.10
255.39
252.76
249.99
247.63
245.88
244.45
242.69
239.77
234.71
226.46
213.89
195.88
171.71
141.51
106.39
68.66
31.49
-1.50
-27.18
-43.94
-52.64
-56.85
-61.98
-73.61
-95.57
-128.94
-171.94
-220.88
-271.35
-319.31
-361.77
-396.89
-423.97
-442.98
-454.07
-457.06
-451.23
-435.67
-409.96
-374.97
-333.03
-287.29
-240.56
-194.40
-148.95
-103.54
-57.76
-12.06
32.21
73.32
109.70
140.32
164.82
183.39
196.56
205.07
209.77
211.59
211.36
209.79
207.52
205.16
203.20
201.94
201.34
201.02
200.32
198.45
194.79
189.07
181.50
172.77
163.99
156.38
150.76
147.12
144.30
140.23
132.42
118.90
98.87
73.05
43.28
11.77
-19.54
-49.33
-76.73
-100.98
-121.26
-136.78
-147.50
-154.60
-160.51
-168.11
-179.34
-194.03
-209.52
-221.42
-225.37
-218.77
-201.65
-176.38
-146.27
-114.08
-81.07
-47.01
-11.10
26.96
66.31
104.84
139.84
168.87
190.54
204.95
213.50
218.27
221.20
223.44
225.05
225.10
222.14
214.70
201.81
183.07
158.58
128.60
93.24
52.38
5.90
-45.72
-100.85
-156.51
-208.79
-253.93
-289.39
-314.54
-330.40
-338.51
-339.69
-333.46
-318.37
-293.29
-258.62
-216.78
-171.67
-127.39
-87.13
-52.91
-26.10
-8.13
-0.65
-4.85
-20.27
-44.01
-70.83
-94.46
-109.32
-112.12
-102.39
-82.10
-54.56
-23.11
9.79
43.10
77.22
113.50
153.44
197.76
245.76
295.23
343.00
385.77
420.91
446.88
463.32
470.75
470.27
463.44
451.91
437.30
420.78
402.90
383.34
361.09
334.91
303.78
267.45
226.59
182.62
137.31
92.28
48.61
6.72
-33.47
-72.45
-110.87
-149.50
-188.89
-228.99
-268.74
-305.84
-337.24
-359.91
-371.96
-373.32
-365.75
-352.09
-335.36
-318.02
-301.82
-288.14
-278.11
-272.50
-271.03
-271.86
-271.60
-266.19
-252.43
-229.29
-198.37
-163.33
-128.31
-96.39
-68.59
-43.93
-20.38
3.92
29.70
56.25
81.87
104.64
123.16
137.10
147.14
154.66
161.20
167.97
175.60
184.21
193.75
204.18
215.50
227.51
239.67
251.11
260.84
268.15
272.65
274.07
271.86
264.85
251.48
230.33
200.97
164.38
122.77
78.96
35.38
-6.54
-46.69
-86.07
-126.37
-169.40
-216.18
-266.11
-316.33
-362.02
-397.64
-418.77
-423.96
-415.45
-398.30
-378.47
-360.39
-345.45
-331.78
-315.53
-292.76
-261.10
-220.56
-173.35
-122.88
-72.57
-24.93
18.93
59.24
97.14
134.03
171.14
209.13
247.83
286.06
321.61
351.22
371.20
378.21
370.24
347.28
311.34
265.63
213.40
157.18
98.97
41.13
-12.79
-58.09
-90.05
-105.70
-104.93
-90.57
-67.13
-39.43
-11.80
11.85
27.50
31.12
19.51
-8.48
-51.25
-104.99
-165.26
-228.49
-292.38
-355.15
-414.21
-465.78
-505.56
-530.42
-539.87
-536.48
-524.74
-509.12
-492.34
-474.70
-454.68
-430.36
-400.70
-366.15
-328.36
-289.27
-250.30
-212.02
-174.20
-136.43
-98.48
-60.51
-22.75
14.79
52.46
90.54
128.60
165.01
197.10
222.04
237.94
244.74
244.28
239.52
233.45
228.09
224.24
221.76
220.15
218.93
217.69
215.96
213.08
208.32
201.28
192.11
181.44
170.15
158.87
147.70
136.06
123.14
108.21
91.16
72.54
53.45
35.18
18.73
4.45
-8.13
-20.25
-33.66
-50.11
-70.68
-95.15
-121.54
-146.30
-165.03
-173.73
-169.99
-153.81
-127.52
-94.94
-60.14
-26.30
4.80
32.72
57.81
80.53
101.15
119.53
135.30
148.06
157.47
163.41
165.95
165.39
162.23
157.13
150.84
144.06
137.38
131.22
125.77
120.97
116.48
111.80
106.43
100.05
92.67
84.61
76.34
68.19
60.19
52.00
43.11
33.20
22.36
11.06
0.05
-10.11
-19.30
-28.02
-37.24
-48.20
-62.06
-79.41
-99.81
-121.56
-141.69
-156.68
-163.39
-160.17
-147.27
-126.55
-100.57
-71.54
-40.93
-9.66
21.38
50.90
77.49
100.13
118.56
133.25
145.03
154.65
162.59
169.32
175.24
180.40
184.08
184.77
180.69
171.01
156.85
141.40
129.10
124.01
128.36
141.88
162.18
185.88
209.81
231.69
250.12
264.18
272.80
274.43
267.24
249.62
221.03
182.37
136.13
85.93
35.80
-10.77
-51.44
-85.40
-113.57
-138.19
-162.15
-187.90
-216.21
-245.42
-271.44
-288.66
-291.60
-276.90
-244.92
-200.29
-151.07
-106.57
-74.56
-58.91
-58.54
-68.16
-80.51
-88.94
-89.17
-79.89
-61.98
-37.33
-8.09
23.60
55.20
83.60
105.64
119.05
123.51
120.86
114.43
107.62
102.82
101.04
102.45
107.06
114.88
125.31
136.49
145.19
147.83
141.91
127.03
104.68
77.21
46.42
13.09
-22.30
-58.39
-92.43
-120.73
-140.30
-150.38
-153.08
-152.64
-153.70
-159.54
-171.15
-187.13
-204.50
-219.67
-229.30
-230.87
-222.96
-205.31
-178.77
-145.15
-106.86
-66.50
-26.35
12.00
47.68
80.28
109.42
134.33
153.84
166.64
171.68
168.46
157.34
139.48
116.76
91.59
66.60
44.37
27.36
17.89
17.90
28.23
47.73
72.75
97.56
115.95
123.36
118.63
104.34
85.60
67.82
54.66
47.06
43.57
41.64
39.07
34.78
28.83
21.88
14.49
6.72
-1.87
-11.91
-23.92
-37.87
-53.18
-69.06
-84.87
-100.52
-116.40
-133.05
-150.59
-168.37
-184.81
-197.76
-205.01
-204.96
-197.14
-182.45
-163.02
-141.58
-120.52
-101.22
-83.71
-67.02
-49.93
-31.86
-13.35
3.95
18.01
27.19
30.92
29.66
24.51
16.70
7.28
-2.91
-13.14
-22.76
-31.17
-38.18
-44.11
-49.87
-56.75
-65.92
-77.85
-91.87
-106.11
-117.93
-124.91
-125.69
-120.63
-111.76
-102.08
-94.51
-90.91
-91.59
-95.49
-100.84
-105.87
-109.39
-111.05
-111.34
-111.40
-112.68
-116.59
-123.95
-134.51
-146.55
-157.00
-162.05
-158.19
-143.30
-117.44
-82.78
-42.95
-1.86
37.46
73.57
106.60
137.81
168.89
201.24
235.47
271.31
307.64
342.74
374.44
400.35
417.99
425.16
420.46
403.86
377.17
343.79
308.20
274.77
246.83
225.77
210.93
200.06
190.31
179.20
165.52
149.52
132.65
116.98
104.46
96.17
91.96
90.14
87.61
80.29
64.10
36.29
-3.43
-52.33
-105.18
-155.64
-197.80
-227.58
-243.42
-246.43
-239.94
-228.83
-218.59
-214.44
-220.29
-237.99
-266.76
-302.96
-340.45
-371.57
-388.84
-386.82
-363.73
-321.99
-267.34
-206.91
-146.92
-91.33
-41.59
2.29
40.71
73.77
101.60
124.75
144.41
161.85
177.47
190.18
197.59
197.19
187.79
170.60
149.12
127.81
110.35
98.54
92.25
90.56
93.07
100.31
113.18
131.65
153.95
176.95
197.40
213.19
223.73
229.23
229.52
223.44
209.39
186.48
155.30
117.64
75.56
30.66
-15.88
-62.52
-106.53
-144.00
-170.75
-183.53
-181.05
-164.49
-137.37
-105.15
-74.40
-51.33
-40.32
-42.55
-55.74
-75.14
-95.27
-111.58
-121.23
-123.07
-116.91
-103.30
-83.60
-59.98
-35.21
-12.15
6.99
21.10
30.07
34.56
35.84
35.73
36.53
40.46
48.79
61.10
75.03
87.01
93.64
93.02
85.45
73.19
59.22
45.96
34.22
23.26
11.56
-1.91
-16.89
-31.66
-43.84
-51.47
-53.88
-52.10
-48.46
-46.00
-47.42
-54.36
-66.88
-83.39
-101.07
-116.69
-127.49
-131.99
-130.29
-124.13
-116.54
-111.28
-111.93
-120.90
-138.30
-161.36
-184.64
-201.31
-205.18
-192.62
-163.85
-122.63
-74.91
-26.81
17.12
54.62
85.52
110.79
131.56
148.34
160.95
168.80
171.53
169.54
164.19
157.45
151.35
147.30
145.66
145.79
146.29
145.50
141.98
134.95
124.51
111.57
97.65
84.32
72.85
63.80
57.00
51.78
47.30
42.83
37.83
31.91
24.59
15.31
3.54
-11.02
-28.23
-47.49
-67.84
-88.20
-107.74
-126.17
-144.00
-162.47
-183.15
-207.45
-236.08
-268.80
-304.44
-340.96
-375.61
-405.02
-425.51
-433.69
-427.20
-405.50
-370.11
-324.29
-272.07
-217.23
-162.48
-109.29
-58.16
-9.16
37.46
81.09
120.75
155.27
183.77
206.01
222.59
234.99
244.97
254.04
262.98
271.85
280.37
288.37
295.79
302.49
307.86
310.69
309.68
304.16
294.58
282.76
271.17
261.97
256.02
252.17
247.22
236.75
216.47
184.07
140.68
91.14
42.66
2.50
-24.42
-36.63
-35.58
-24.23
-5.88
16.15
37.95
54.72
61.31
53.77
30.88
-5.40
-50.79
-100.27
-149.34
-194.46
-232.58
-260.97
-277.61
-282.03
-275.83
-262.24
-244.70
-225.07
-202.89
-175.83
-141.48
-99.44
-52.48
-6.28
32.37
57.83
67.60
63.11
49.19
32.63
20.39
18.35
30.26
57.21
97.42
146.34
197.36
243.20
277.63
296.83
300.01
289.04
267.48
239.32
208.08
176.24
145.05
114.65
84.37
53.26
20.60
-13.73
-49.39
-85.88
-122.72
-159.34
-194.48
-225.83
-250.06
-263.68
-264.57
-253.66
-235.54
-217.54
-207.39
-210.35
-226.97
-252.85
-280.29
-301.25
-310.10
-305.02
-287.45
-260.42
-226.64
-187.59
-143.77
-95.81
-45.37
4.64
50.45
88.28
115.01
128.75
129.13
117.41
96.35
69.82
42.00
16.45
-4.56
-20.18
-30.37
-35.02
-33.47
-24.84
-8.91
12.94
37.57
60.89
79.39
91.40
97.48
99.64
100.08
100.13
100.02
99.58
99.23
100.47
105.40
115.43
130.12
146.68
160.59
167.01
162.20
144.45
114.09
72.87
23.34
-31.61
-88.69
-144.02
-193.28
-232.06
-256.59
-264.64
-256.14
-233.37
-200.47
-162.30
-123.00
-84.85
-48.17
-12.41
22.49
55.23
83.74
106.60
124.51
140.53
158.77
182.43
212.08
245.46
278.60
307.73
330.58
346.65
356.47
360.51
358.62
350.13
334.37
311.41
282.26
248.70
212.84
176.49
140.82
106.21
72.62
39.89
7.94
-23.32
-54.30
-85.99
-119.74
-156.67
-196.96
-239.20
-280.55
-317.58
-347.60
-369.85
-385.83
-398.77
-412.33
-429.17
-449.83
-472.48
-493.45
-508.19
-512.63
-504.18
-482.42
-448.97
-406.82
-359.01
-307.70
-253.66
-196.95
-138.16
-79.65
-25.85
17.61
45.80
56.43
50.96
34.40
13.96
-3.20
-11.87
-9.99
1.36
18.95
38.95
58.35
75.70
91.04
105.22
118.94
132.10
143.66
152.13
156.31
155.94
151.92
146.26
141.73
141.11
146.33
157.60
172.90
188.21
198.42
198.88
186.76
161.81
126.26
83.91
38.92
-5.17
-45.97
-82.35
-114.28
-142.52
-168.40
-193.17
-217.43
-240.37
-259.60
-271.50
-272.32
-259.30
-231.76
-191.20
-140.79
-84.29
-25.36
32.83
87.57
136.41
177.40
209.51
232.96
249.05
259.46
265.44
267.43
265.26
258.93
249.33
238.28
227.94
219.80
213.95
209.02
202.91
193.77
180.75
164.21
145.51
126.45
108.85
94.10
82.77
74.51
68.05
61.57
53.30
42.04
27.51
10.18
-9.20
-30.17
-52.72
-77.01
-102.84
-129.24
-154.64
-177.49
-197.17
-214.46
-231.30
-249.76
-270.76
-292.94
-312.53
-324.22
-322.93
-305.38
-271.03
-222.10
-162.77
-98.17
-33.51
26.48
78.12
119.35
150.30
173.47
192.88
212.42
234.12
257.21
278.54
294.26
301.74
300.84
293.74
283.81
274.28
267.52
264.81
266.58
272.29
280.30
287.61
290.13
283.77
265.69
235.26
194.12
145.55
93.39
41.27
-7.88
-51.75
-88.72
-117.80
-138.69
-151.99
-159.20
-162.64
-165.24
-170.05
-179.45
-194.54
-214.88
-238.74
-263.78
-287.90
-309.46
-327.06
-338.98
-342.99
-336.96
-319.91
-292.89
-258.90
-221.89
-185.12
-150.09
-116.30
-82.06
-45.58
-5.73
37.73
84.10
131.67
177.57
217.67
247.23
262.16
260.73
244.74
219.73
193.62
174.61
168.84
178.49
201.33
231.59
261.73
284.77
296.29
295.51
285.04
269.49
253.50
240.09
229.76
220.90
210.96
197.85
180.83
160.49
137.97
113.93
88.03
59.21
26.54
-9.91
-48.74
-87.86
-125.64
-161.52
-196.25
-230.88
-265.81
-300.22
-332.32
-360.31
-383.18
-400.91
-413.87
-422.19
-425.30
-422.14
-411.75
-393.79
-368.54
-336.70
-298.99
-255.89
-207.65
-154.56
-97.38
-37.95
20.51
73.34
115.25
141.78
150.97
144.29
126.47
103.90
82.71
67.31
59.84
60.62
68.86
82.98
100.71
119.07
134.69
144.66
147.31
142.48
131.22
115.25
96.28
75.79
55.31
36.36
20.28
7.73
-1.79
-9.83
-18.36
-28.95
-42.21
-57.59
-73.86
-89.43
-102.54
-111.46
-114.64
-111.58
-103.65
-94.57
-89.74
-94.35
-111.05
-138.39
-170.94
-201.05
-221.56
-228.00
-219.57
-198.60
-169.20
-135.77
-101.83
-69.54
-39.65
-11.89
14.29
39.02
61.42
79.59
91.28
94.96
90.79
80.82
68.47
57.38
50.37
48.89
53.18
62.56
75.91
91.76
108.35
123.83
136.53
145.44
150.49
152.40
152.21
150.71
148.11
143.98
137.71
128.94
117.95
105.80
94.17
84.92
79.31
77.16
76.31
72.91
62.46
41.57
9.31
-32.33
-79.18
-126.56
-170.93
-210.88
-246.95
-280.65
-313.09
-343.96
-371.30
-391.92
-402.51
-400.78
-386.30
-360.74
-327.35
-289.90
-251.63
-214.59
-179.67
-146.99
-116.32
-87.05
-58.23
-28.71
2.11
33.36
62.20
84.32
95.47
93.29
78.43
54.36
25.97
-2.10
-26.66
-46.06
-59.60
-66.91
-67.89
-63.06
-53.97
-43.04
-32.73
-24.61
-18.80
-14.34
-10.02
-5.34
-0.93
1.80
1.49
-2.37
-9.19
-17.51
-25.73
-32.80
-38.60
-43.82
-49.50
-56.62
-65.67
-76.55
-88.70
-101.10
-112.37
-120.95
-125.32
-124.36
-117.69
-105.73
-89.60
-70.67
-50.19
-29.06
-7.85
13.04
33.28
52.60
71.03
88.97
107.15
126.49
147.84
171.79
198.41
226.90
255.32
280.79
300.09
310.75
311.98
304.95
292.24
276.65
260.05
242.93
224.92
205.68
185.72
166.40
149.31
135.30
123.97
113.90
103.43
91.56
78.48
65.40
53.97
45.42
40.01
36.90
34.56
31.39
26.37
19.41
11.26
3.08
-4.08
-9.73
-14.01
-17.59
-21.40
-26.46
-33.65
-43.33
-54.93
-66.58
-75.26
-77.51
-70.55
-53.49
-27.82
2.88
34.03
61.45
82.48
96.60
105.30
111.46
118.39
128.79
143.91
163.12
184.21
204.17
220.25
230.65
234.66
232.36
224.17
210.71
192.94
172.50
151.67
132.92
118.08
107.78
101.30
97.20
94.10
91.36
89.00
87.24
85.88
84.05
80.66
75.01
67.37
58.94
51.23
45.22
40.78
36.66
31.08
22.56
10.48
-4.74
-21.93
-39.68
-56.74
-72.39
-86.51
-99.61
-112.49
-126.00
-140.55
-155.84
-170.69
-183.23
-191.34
-193.26
-188.08
-176.01
-158.26
-136.64
-113.04
-89.01
-65.55
-43.16
-21.99
-2.08
16.58
33.88
49.62
63.52
75.18
84.23
90.47
94.10
95.70
96.19
96.56
97.58
99.63
102.60
106.02
109.19
111.39
112.05
110.89
108.06
104.11
99.79
95.78
92.41
89.59
86.88
83.77
79.93
75.30
69.94
63.92
57.09
49.08
39.45
27.92
14.58
0.08
-14.48
-27.76
-38.50
-46.09
-50.95
-54.61
-59.19
-66.41
-76.61
-88.25
-98.20
-102.70
-98.77
-85.45
-64.27
-38.82
-13.41
8.40
24.61
34.78
39.27
38.52
32.91
23.33
11.77
1.22
-5.23
-5.97
-1.78
4.23
8.08
6.93
0.22
-10.23
-21.30
-29.57
-32.07
-26.31
-10.43
16.02
51.15
90.24
126.49
153.09
165.69
163.67
149.92
129.01
105.15
81.08
58.09
36.80
17.79
1.45
-12.64
-26.13
-41.50
-60.91
-85.01
-112.67
-141.82
-170.94
-199.88
-229.49
-260.18
-290.48
-316.67
-333.79
-337.44
-325.40
-298.29
-259.07
-212.04
-161.84
-112.80
-68.67
-32.19
-4.60
14.89
28.99
41.50
55.77
73.28
93.11
112.50
128.31
138.50
143.14
144.32
145.30
149.23
158.09
171.94
188.65
204.27
213.89
213.22
200.39
177.18
148.82
122.26
103.34
94.40
93.44
95.44
95.10
89.42
78.95
67.04
57.87
54.35
56.72
62.81
69.05
72.07
69.92
62.48
51.26
38.60
26.86
17.64
11.46
7.62
4.34
-0.73
-9.96
-24.90
-45.78
-71.28
-98.95
-125.89
-149.59
-168.32
-181.09
-187.30
-186.39
-178.11
-162.86
-142.12
-118.39
-94.46
-72.34
-52.45
-33.67
-14.27
6.65
28.23
47.87
62.40
69.68
69.77
64.97
58.88
54.93
55.25
60.16
68.14
76.05
79.57
74.15
56.63
26.82
-11.66
-51.89
-85.64
-105.86
-108.71
-94.16
-65.48
-27.92
12.55
49.99
79.15
95.93
98.09
85.58
60.70
27.29
-10.37
-48.74
-85.86
-121.50
-156.50
-191.89
-227.69
-262.21
-292.06
-312.86
-320.43
-312.05
-287.44
-248.92
-200.89
-148.67
-97.27
-50.43
-10.34
22.39
48.61
70.58
91.72
115.93
146.22
183.10
223.65
261.87
290.51
303.73
299.06
277.92
244.39
203.09
157.48
109.30
59.34
8.73
-40.34
-84.69
-121.03
-147.21
-163.16
-170.84
-173.68
-175.14
-177.45
-180.79
-183.75
-184.51
-182.31
-178.16
-174.48
-173.86
-177.56
-184.98
-194.22
-203.56
-212.85
-223.96
-239.67
-261.54
-288.12
-314.48
-333.86
-340.46
-332.09
-311.20
-283.80
-256.76
-235.02
-220.02
-209.93
-201.33
-191.27
-178.53
-163.85
-149.10
-136.29
-126.71
-120.61
-117.34
-115.66
-114.06
-111.06
-105.36
-95.97
-82.36
-64.42
-42.65
-18.00
8.43
35.69
63.07
90.00
115.56
138.15
155.57
165.64
166.89
159.11
143.18
120.48
92.41
60.54
27.10
-4.46
-29.74
-44.56
-46.51
-36.11
-16.71
6.83
29.72
48.48
61.18
66.87
64.95
54.90
36.63
11.19
-18.76
-49.11
-75.15
-92.73
-99.22
-94.10
-78.73
-55.74
-28.02
2.06
33.06
64.45
96.19
128.11
159.44
188.66
213.77
232.85
244.74
249.47
248.26
242.94
235.28
226.34
216.30
204.93
192.25
179.14
167.33
158.79
154.83
155.54
159.67
165.22
170.15
173.07
173.38
171.09
166.48
159.83
151.31
141.02
129.04
115.51
100.64
84.73
68.22
51.61
35.36
19.69
4.48
-10.72
-26.52
-43.69
-62.99
-85.13
-110.50
-138.75
-168.41
-196.69
-219.85
-234.15
-236.88
-227.26
-206.60
-177.76
-144.16
-108.86
-74.02
-40.74
-9.44
19.84
47.11
72.23
94.81
114.23
129.82
141.09
148.04
151.28
151.91
151.18
150.17
149.50
149.43
149.90
150.78
151.89
153.01
153.89
154.30
154.12
153.35
152.01
150.09
147.44
143.88
139.38
134.12
128.55
123.22
118.60
114.95
112.32
110.54
109.21
107.67
104.89
99.50
89.89
74.53
52.44
23.61
-10.72
-48.02
-84.76
-116.98
-140.95
-153.91
-154.61
-143.55
-123.02
-96.64
-68.62
-42.81
-21.82
-6.46
4.13
11.88
18.73
25.85
33.19
39.68
43.84
44.54
41.47
35.18
26.74
17.22
7.32
-2.62
-12.43
-21.73
-29.88
-36.04
-39.64
-40.64
-39.59
-37.38
-34.79
-32.32
-30.23
-28.84
-28.79
-30.97
-36.11
-44.41
-55.28
-67.60
-80.20
-92.45
-104.36
-116.45
-129.19
-142.63
-156.24
-169.22
-180.90
-191.08
-200.00
-208.10
-215.68
-222.79
-229.24
-234.83
-239.29
-242.25
-242.83
-239.63
-230.90
-215.23
-192.15
-162.61
-128.71
-93.04
-57.87
-24.59
6.40
35.14
61.65
85.40
105.42
120.55
130.00
133.63
131.95
125.96
116.93
106.29
95.47
85.81
78.25
73.08
69.80
67.28
64.14
59.36
52.61
44.37
35.74
28.04
22.45
19.70
19.96
22.93
28.06
34.89
43.11
52.63
63.14
73.70
82.91
89.33
92.45
93.32
94.71
100.09
112.09
130.87
153.42
174.24
187.11
187.27
172.97
145.91
110.53
72.47
37.11
8.43
-11.28
-21.30
-22.05
-14.71
-0.93
17.57
39.47
64.27
92.48
125.19
163.12
205.76
250.85
294.51
332.16
359.61
374.15
374.97
363.06
340.63
310.45
275.27
237.46
198.88
160.88
124.25
89.31
55.98
23.81
-7.94
-40.16
-73.88
-110.20
-150.13
-194.12
-241.38
-289.23
-333.23
-368.09
-389.54
-396.03
-389.48
-374.61
-357.06
-341.23
-329.07
-320.17
-312.94
-305.98
-299.01
-292.66
-287.86
-285.18
-284.50
-285.17
-286.21
-286.42
-284.45
-278.97
-268.88
-253.68
-233.64
-209.72
-183.13
-155.04
-126.35
-97.83
-70.37
-45.16
-23.53
-6.61
5.00
11.38
13.23
11.80
8.88
6.93
8.95
17.85
35.55
62.13
95.59
132.46
168.91
201.85
229.49
251.12
266.48
275.22
276.74
270.55
256.90
237.12
213.52
188.83
165.42
144.57
126.20
109.19
92.01
73.47
53.12
31.24
8.47
-14.60
-37.63
-60.51
-83.02
-104.74
-124.98
-143.25
-159.59
-174.87
-190.62
-208.47
-229.25
-252.18
-274.56
-292.31
-301.22
-298.41
-283.31
-257.71
-224.85
-188.09
-149.88
-111.48
-73.26
-35.37
1.91
38.02
72.15
103.27
129.96
150.39
162.58
165.08
157.82
142.51
122.61
102.49
86.44
77.51
76.90
83.76
95.48
108.48
119.17
124.88
124.53
118.67
109.08
97.93
86.97
77.00
67.91
59.09
49.90
40.06
29.75
19.44
9.71
1.03
-6.41
-12.75
-18.38
-23.92
-30.09
-37.53
-46.78
-58.17
-71.76
-87.26
-103.82
-120.08
-134.22
-144.29
-148.51
-145.60
-134.75
-115.56
-87.83
-51.60
-7.59
42.26
94.36
143.76
185.01
213.60
227.16
226.14
213.45
193.34
170.13
147.09
126.09
107.89
