1595854651.00
64.000000
-0.00
-0.00
-0.00
-0.00
-0.00
-0.00
-0.00
-0.00
-0.00
-0.00
0.00
0.01
0.01
-0.00
-0.03
-0.05
-0.05
0.00
0.13
0.36
0.66
1.01
1.37
1.72
2.06
2.40
2.79
3.24
3.80
4.42
5.06
5.66
6.20
6.68
7.15
7.68
8.31
9.14
10.09
11.04
11.88
12.56
13.14
13.76
14.65
15.96
17.91
20.32
22.90
25.38
27.58
29.57
31.68
34.32
37.81
42.54
48.15
54.10
59.83
64.97
69.58
74.14
79.34
85.71
93.76
103.00
112.62
121.73
129.77
136.75
143.30
150.75
157.77
166.64
177.95
191.79
206.97
220.57
228.25
225.36
208.53
176.87
132.76
80.05
23.07
-34.94
-92.44
-149.16
-205.23
-260.37
-313.74
-363.87
-409.83
-450.91
-486.50
-515.74
-537.23
-549.22
-549.96
-538.37
-514.21
-478.67
-433.88
-382.45
-327.02
-269.84
-212.63
-156.66
-102.95
-52.37
-5.90
35.58
71.43
101.35
125.50
144.38
158.69
169.15
176.37
180.75
182.57
182.07
179.51
175.23
169.65
163.18
156.15
148.81
141.30
133.69
126.02
118.33
110.69
103.16
95.80
88.68
81.83
75.25
68.95
62.95
57.24
51.85
46.78
42.03
37.59
33.47
29.65
26.14
22.91
19.97
17.32
14.94
12.82
10.97
9.35
7.96
6.79
5.80
4.98
4.31
3.78
3.36
3.04
2.81
2.67
2.61
2.63
2.72
2.83
2.95
3.03
3.08
3.12
3.20
3.39
3.71
4.16
4.71
5.28
5.84
6.36
6.89
7.49
8.25
9.20
10.33
11.57
12.80
13.92
14.91
15.85
16.90
18.27
20.01
22.09
24.29
26.32
27.93
29.09
29.99
31.04
32.69
35.08
38.06
41.04
43.21
43.80
42.38
39.06
34.38
29.06
23.33
17.09
9.69
0.25
-11.82
-26.38
-42.39
-58.17
-71.45
-81.46
-88.22
-92.52
-95.56
-98.55
-102.53
-108.32
-116.68
-126.52
-135.40
-139.14
-133.27
-115.04
-85.26
-48.73
-12.65
16.10
33.77
40.50
39.64
35.49
31.12
27.55
24.29
20.58
16.38
12.41
9.45
7.82
7.10
6.52
5.30
3.27
0.98
-0.64
-0.36
2.47
7.88
15.12
22.96
30.43
37.43
45.15
55.31
68.42
82.32
91.75
89.99
71.89
36.70
-11.37
-64.81
-115.64
-157.82
-187.82
-203.78
-204.51
-189.57
-160.32
-121.38
-80.17
-44.67
-20.38
-8.28
-5.03
-5.11
-3.78
1.62
10.98
22.81
35.69
49.06
63.10
78.03
93.73
108.07
119.98
128.61
133.53
134.85
133.31
130.07
126.27
122.67
119.43
116.38
112.82
108.13
102.14
95.26
88.36
82.34
77.84
75.17
74.59
76.02
78.83
81.45
81.24
75.19
61.23
39.60
13.16
-13.59
-36.70
-54.53
-68.00
-79.47
-90.72
-101.59
-110.08
-113.85
-112.03
-105.83
-98.18
-92.05
-88.95
-88.64
-89.98
-91.89
-93.74
-94.74
-93.11
-86.14
-71.45
-49.00
-22.14
3.20
21.13
28.98
28.55
24.85
22.98
25.34
30.92
36.86
41.03
43.55
46.24
50.69
56.68
61.97
63.88
61.11
54.38
46.13
38.94
34.19
31.61
29.88
27.66
24.50
21.09
18.86
19.13
22.34
27.63
33.09
36.56
36.65
32.84
25.83
16.79
6.78
-3.55
-13.79
-23.54
-32.26
-39.47
-45.07
-49.16
-52.04
-53.76
-54.10
-52.54
-48.75
-42.81
-34.86
-26.16
-17.54
-9.51
-2.30
3.93
9.08
13.06
15.88
17.68
18.66
19.09
19.14
18.70
17.45
15.35
12.32
8.45
3.83
-1.27
-6.45
-11.31
-15.61
-19.15
-21.71
-23.14
-23.25
-22.03
-19.39
-15.29
-9.89
-3.64
2.95
9.30
14.80
18.94
21.15
21.30
19.44
15.77
10.51
4.08
-3.00
-10.15
-15.57
-19.36
-21.19
-21.93
-20.79
-17.46
-11.94
-4.47
4.40
14.02
23.37
31.65
38.14
42.04
42.96
40.82
35.76
28.16
18.60
7.42
-4.79
-14.86
-22.94
-29.29
-33.98
-37.07
-38.65
-38.73
-37.80
-36.18
-34.14
-32.27
-30.63
-29.23
-27.91
-26.48
-24.66
-22.69
-20.67
-18.65
-16.75
-14.61
-11.94
-8.24
-4.58
0.06
5.42
10.81
15.43
18.52
20.00
19.79
18.61
17.25
16.36
15.83
15.24
14.16
12.21
9.55
6.07
2.36
-0.97
-3.62
-6.11
-9.46
-15.16
-25.13
-37.52
-53.61
-72.00
-88.03
-94.91
-86.88
-61.73
-22.35
24.35
69.83
106.25
128.95
135.94
126.93
102.80
65.98
21.14
-25.04
-65.37
-94.85
-111.46
-116.93
-115.23
-110.75
-106.81
-105.22
-106.73
-111.88
-121.45
-135.30
-151.61
-166.44
-174.41
-170.40
-152.16
-121.75
-85.39
-51.26
-25.79
-11.27
-5.58
-3.88
-1.51
3.59
11.37
20.22
28.67
36.55
44.65
53.68
63.36
72.20
78.18
79.61
76.09
68.69
59.59
51.21
45.28
42.36
41.91
42.80
44.04
45.20
46.58
49.14
53.63
60.17
67.97
75.61
81.49
84.58
84.66
82.30
78.75
75.00
71.40
67.55
62.74
56.35
48.60
40.54
33.81
30.52
32.03
38.46
48.75
61.35
74.79
88.30
101.92
116.09
131.97
150.65
173.26
200.86
233.80
270.78
308.37
341.39
360.11
358.21
333.91
290.63
235.59
177.10
121.64
72.39
29.35
-9.49
-45.96
-81.78
-118.64
-158.61
-204.06
-256.59
-315.41
-376.18
-431.32
-471.21
-488.08
-478.76
-445.82
-396.39
-339.25
-281.66
-227.64
-178.22
-132.56
-90.12
-51.18
-16.26
14.84
43.85
74.01
109.21
152.67
205.36
264.47
323.12
371.82
401.29
405.86
385.63
346.44
297.53
247.96
203.64
166.48
135.47
108.95
86.32
68.04
54.75
46.24
40.70
35.55
28.45
18.17
4.88
-9.91
-24.89
-39.44
-53.82
-69.53
-88.25
-111.33
-139.28
-171.41
-205.71
-241.01
-277.32
-316.01
-359.64
-410.12
-466.63
-524.77
-576.37
-611.11
-622.08
-607.28
-569.35
-513.48
-444.89
-367.28
-283.87
-198.08
-114.23
-40.37
15.40
57.14
91.75
127.03
168.34
214.35
253.44
281.13
294.38
291.41
271.10
235.04
182.68
112.69
23.74
-80.32
-182.07
-260.81
-297.80
-299.00
-273.11
-232.67
-184.32
-137.45
-96.56
-59.23
-20.56
25.03
81.57
152.37
236.76
330.37
423.95
503.60
554.21
563.47
529.34
461.47
378.17
295.65
227.18
169.33
115.14
59.54
-0.47
-66.27
-138.89
-216.85
-296.28
-370.31
-431.29
-470.72
-482.19
-463.89
-418.79
-352.94
-272.42
-182.18
-85.37
15.00
112.73
199.55
267.88
313.98
338.85
346.69
342.19
328.98
309.02
283.86
255.64
226.96
200.32
177.47
159.08
144.84
133.84
124.70
116.31
108.17
100.23
92.63
85.73
79.77
74.98
71.49
69.05
67.32
66.44
67.18
70.40
76.00
81.72
83.14
75.15
54.50
22.03
-16.82
-53.92
-81.86
-96.75
-99.34
-93.70
-84.92
-76.75
-70.93
-67.73
-67.01
-68.97
-73.88
-81.76
-91.78
-102.99
-114.51
-125.80
-137.12
-148.80
-162.46
-178.95
-197.22
-213.57
-222.56
-218.77
-199.49
-166.65
-126.56
-87.72
-56.94
-37.01
-25.53
-17.95
-9.74
1.38
15.29
30.35
44.88
58.35
70.41
81.88
92.63
101.73
107.81
109.94
108.14
103.35
97.11
90.96
85.88
81.74
78.57
74.45
68.40
60.16
50.26
39.65
29.45
20.61
13.42
7.75
3.07
-0.96
-4.52
-7.58
-9.94
-11.37
-11.69
-10.97
-9.41
-7.45
-5.52
-4.06
-3.40
-3.75
-4.92
-6.38
-7.48
-7.71
-7.02
-5.78
-4.55
-3.95
-4.29
-5.20
-5.70
-4.57
-0.91
5.34
13.19
21.28
28.43
33.86
37.62
40.46
43.35
47.04
52.26
59.42
69.24
82.09
96.66
109.27
114.63
107.90
86.82
53.29
8.22
-43.08
-94.55
-142.80
-187.30
-228.52
-264.59
-290.17
-297.42
-281.08
-240.81
-180.60
-107.76
-30.14
45.59
115.35
176.66
228.13
266.67
277.80
251.76
191.09
111.11
31.06
-30.14
-67.10
-76.40
-57.52
-12.94
52.68
129.63
204.16
261.29
290.10
286.50
254.66
203.19
142.84
83.22
29.29
-11.93
-36.50
-45.24
-42.44
-32.46
-19.52
-6.08
3.33
9.06
12.20
13.53
13.71
12.57
7.98
-4.29
-23.84
-51.54
-80.20
-103.70
-118.80
-124.01
-117.57
-97.97
-74.06
-44.85
-13.08
15.48
32.87
32.74
17.90
-6.80
-36.95
-68.85
-99.16
-128.45
-158.32
-190.99
-227.43
-266.85
-289.92
-285.31
-254.30
-207.98
-160.39
-119.72
-88.03
-63.57
-43.16
-24.28
-8.22
3.11
9.42
11.17
9.76
6.43
2.43
-0.75
-1.85
-2.13
-2.97
-4.75
-7.40
-10.50
-14.21
-19.18
-26.25
-35.76
-47.78
-59.77
-66.41
-61.84
-42.70
-10.87
26.97
61.94
86.80
98.31
98.38
92.44
86.51
84.84
88.67
97.35
108.97
120.85
129.40
131.04
123.65
107.46
86.84
67.60
54.77
50.42
53.46
60.72
68.84
75.67
80.35
82.55
81.67
76.44
65.82
50.13
30.96
10.58
-9.00
-26.53
-42.05
-56.27
-69.82
-82.72
-93.63
-100.54
-101.21
-94.43
-80.12
-59.69
-35.42
-8.64
17.40
40.85
61.03
78.11
91.85
101.74
106.93
106.45
99.65
86.59
68.62
47.79
26.47
5.73
-12.98
-30.19
-46.62
-62.53
-77.26
-88.75
-96.33
-96.83
-89.56
-75.74
-58.40
-41.06
-26.40
-15.30
-6.43
2.43
13.61
26.80
39.92
49.10
50.28
40.27
17.77
-15.82
-56.35
-93.87
-119.93
-126.81
-110.83
-75.09
-29.98
9.28
28.01
17.68
-20.22
-75.28
-131.26
-172.34
-188.84
-179.50
-150.72
-112.77
-75.64
-45.77
-25.72
-14.35
-9.17
-8.49
-11.35
-17.51
-25.83
-33.96
-38.41
-36.41
-27.27
-11.84
6.91
25.86
42.36
56.26
69.14
83.65
101.99
125.09
152.23
180.08
206.80
230.65
250.18
262.87
264.88
252.32
223.53
180.60
129.24
78.61
33.80
-2.42
-30.78
-54.42
-77.14
-101.41
-128.16
-156.40
-182.94
-203.42
-212.55
-206.33
-184.02
-148.98
-107.72
-68.21
-36.90
-16.37
-5.66
-1.04
1.60
5.40
12.77
26.38
47.80
76.83
110.29
141.47
162.38
166.64
152.35
120.67
82.16
49.14
30.17
27.14
35.63
48.91
61.56
71.26
78.59
85.41
91.86
96.38
96.78
91.15
79.44
64.12
47.01
29.75
13.08
-4.12
-23.72
-46.94
-74.10
-103.13
-129.88
-149.98
-160.05
-158.87
-148.09
-131.14
-112.06
-95.80
-86.37
-86.13
-95.70
-113.45
-135.69
-157.76
-175.46
-179.62
-168.49
-147.10
-124.30
-108.10
-101.87
-103.97
-110.07
-115.71
-117.87
-116.18
-112.65
-105.91
-93.48
-73.67
-46.29
-12.67
25.51
67.27
111.97
160.56
210.25
258.67
303.71
342.97
372.54
386.82
380.09
348.86
295.22
227.65
158.73
100.23
59.10
35.67
25.31
21.98
21.10
21.11
22.47
25.79
30.28
34.01
35.05
32.72
28.17
23.43
20.41
19.42
19.43
17.07
9.11
-6.30
-28.95
-56.54
-85.81
-113.84
-137.86
-157.74
-174.87
-190.81
-206.79
-223.43
-240.56
-256.99
-270.14
-276.22
-271.43
-253.65
-223.75
-186.23
-148.01
-115.61
-92.64
-78.57
-69.87
-61.56
-50.37
-35.22
-16.79
3.72
25.64
48.96
72.76
96.27
117.81
135.22
146.73
151.67
150.75
145.79
138.97
132.06
126.07
120.92
115.85
110.03
103.08
95.18
87.13
79.78
73.71
69.09
65.60
62.57
59.36
55.64
51.44
47.17
43.34
40.29
38.13
36.71
35.74
34.86
34.24
33.37
32.18
30.67
29.03
26.65
22.96
17.58
10.15
0.53
-11.07
-24.11
-37.72
-50.93
-62.92
-72.98
-80.51
-85.33
-87.45
-86.94
-83.94
-78.51
-70.79
-61.27
-50.67
-39.71
-29.18
-19.54
-10.69
-2.16
6.92
17.27
28.93
40.11
50.23
58.29
63.60
67.37
69.66
71.32
73.30
75.49
76.84
75.95
71.60
63.30
51.91
39.17
27.46
19.16
15.75
18.04
26.20
38.91
52.90
63.56
65.90
55.40
33.86
6.95
-17.83
-34.26
-39.97
-37.01
-29.69
-22.14
-16.27
-11.51
-6.86
-2.09
1.61
2.50
-0.82
-7.92
-17.07
-26.24
-33.61
-39.03
-43.54
-48.81
-54.52
-62.20
-72.64
-85.77
-99.77
-110.95
-114.22
-104.76
-80.65
-43.88
-0.58
41.96
77.77
103.63
118.58
122.32
114.49
94.92
65.56
30.44
-3.70
-30.02
-44.25
-46.85
-42.21
-34.29
-28.45
-26.59
-27.99
-30.53
-33.76
-35.59
-35.20
-32.37
-26.77
-18.01
-5.76
9.07
24.95
40.01
52.66
61.48
64.95
62.83
57.04
49.70
41.99
35.05
29.98
28.00
30.05
35.34
43.65
57.35
77.21
101.49
128.01
154.56
178.95
199.10
210.64
210.82
202.02
184.47
157.51
120.78
74.77
20.74
-39.41
-106.47
-178.83
-248.12
-308.35
-357.19
-392.13
-411.24
-414.30
-379.94
-301.77
-221.83
-158.60
-107.19
-68.80
-44.74
-35.98
-43.24
-66.22
-106.84
-150.05
-177.72
-182.18
-168.28
-144.83
-119.26
-95.74
-75.31
-60.33
-52.24
-49.33
-50.63
-54.27
-53.70
-41.17
-13.04
27.50
68.77
94.27
97.59
77.84
39.63
-7.46
-54.20
-95.16
-127.77
-151.34
-158.05
-146.18
-118.21
-81.14
-44.11
-16.04
-2.21
-1.85
-7.27
-10.03
-3.97
13.72
41.88
76.53
111.15
135.21
142.01
129.59
101.01
61.96
20.77
-20.30
-60.47
-98.70
-132.04
-151.44
-148.46
-119.49
-68.18
-3.48
64.25
128.59
189.22
244.50
299.80
358.93
421.23
481.01
530.60
563.33
575.98
568.24
522.33
435.14
316.18
184.05
56.82
-54.28
-145.19
-216.11
-269.13
-306.46
-326.36
-330.05
-319.08
-296.16
-264.74
-227.88
-187.30
-144.05
-97.66
-44.49
12.33
67.82
117.12
157.11
187.24
207.87
217.64
213.81
193.96
156.13
102.32
39.35
-24.36
-81.45
-125.93
-159.43
-182.14
-192.49
-188.96
-171.02
-139.71
-99.42
-56.41
-16.72
14.38
35.49
46.35
46.42
27.28
-11.24
-63.26
-118.65
-164.70
-197.34
-212.97
-209.84
-189.00
-154.36
-111.66
-69.35
-35.57
-15.42
-10.01
-13.58
-18.03
-16.35
-4.33
20.36
58.09
108.26
169.50
228.00
270.77
289.35
283.47
259.67
226.54
190.95
156.96
126.20
98.15
73.69
53.66
38.10
25.90
15.41
5.87
-3.11
-11.99
-18.45
-23.57
-28.09
-32.81
-39.12
-48.84
-61.81
-77.31
-94.47
-117.68
-144.19
-170.64
-194.70
-213.96
-229.60
-240.22
-243.54
-237.92
-224.41
-204.03
-178.62
-150.24
-120.75
-97.37
-81.97
-72.44
-58.22
-37.83
-12.55
15.26
44.17
74.85
101.85
126.14
152.89
186.16
225.12
265.77
302.30
329.64
344.30
346.88
342.03
339.05
345.89
365.43
396.75
436.97
482.61
528.71
570.81
575.28
520.13
407.22
263.32
122.48
7.99
-67.05
-116.12
-151.58
-181.52
-206.25
-225.12
-239.15
-253.31
-269.52
-287.46
-306.02
-322.07
-333.25
-334.71
-323.04
-299.00
-267.95
-236.85
-211.66
-195.85
-187.72
-183.52
-177.03
-163.93
-143.74
-120.10
-98.18
-83.02
-78.21
-83.29
-94.69
-105.14
-106.18
-90.92
-57.10
-8.14
46.52
93.78
121.79
123.73
100.68
61.11
17.40
-20.02
-44.33
-54.17
-52.41
-43.59
-31.66
-18.83
-5.08
10.65
28.66
47.88
66.04
80.26
88.16
88.70
82.28
71.22
58.89
47.65
38.27
29.33
17.41
-1.21
-26.58
-58.09
-92.82
-126.32
-154.93
-175.16
-183.79
-178.36
-158.18
-126.71
-92.54
-69.11
-63.53
-77.58
-103.89
-127.87
-134.06
-114.23
-72.00
-22.70
13.95
23.14
0.90
-43.58
-92.91
-130.03
-145.36
-138.91
-118.55
-94.13
-72.31
-54.69
-38.35
-18.59
6.34
35.24
66.11
97.69
131.42
171.14
215.49
260.13
300.04
331.00
349.33
352.12
335.12
294.50
229.61
145.73
52.51
-37.22
-109.67
-164.21
-203.47
-230.92
-248.19
-254.67
-247.88
-228.06
-196.40
-156.57
-114.01
-70.76
-29.01
11.72
46.11
80.96
111.24
133.60
148.35
159.72
176.60
206.88
251.62
302.47
345.85
366.33
355.99
317.00
258.69
194.74
137.55
93.76
64.39
48.60
36.37
20.93
10.80
10.72
18.45
33.48
55.36
77.25
94.31
111.59
128.40
136.39
128.78
103.50
64.49
19.10
-25.38
-64.65
-100.20
-139.74
-188.95
-245.10
-294.81
-319.92
-309.03
-264.02
-203.53
-140.58
-84.46
-39.01
-3.84
22.44
38.78
41.45
27.62
-1.04
-37.55
-74.84
-108.03
-136.27
-163.04
-193.91
-233.34
-281.13
-330.98
-372.30
-396.38
-398.98
-380.37
-344.47
-296.77
-241.86
-181.80
-116.03
-42.25
40.94
126.93
204.59
263.88
300.79
317.18
317.91
307.90
291.51
271.49
249.85
229.29
212.74
201.43
193.21
182.75
163.24
129.85
81.81
23.36
-36.25
-85.57
-114.75
-118.63
-98.46
-61.16
-16.38
25.99
58.58
78.62
87.60
88.88
84.97
78.14
66.11
48.35
27.20
7.10
-7.13
-13.04
-12.22
-10.67
-13.14
-22.94
-39.08
-57.51
-73.34
-83.03
-85.58
-82.37
-75.86
-68.42
-61.86
-56.67
-52.80
-49.45
-45.81
-41.17
-35.33
-28.96
-23.12
-19.16
-17.31
-17.12
-16.80
-13.86
-6.24
7.14
24.37
44.39
65.79
86.37
101.60
105.62
93.24
63.16
20.66
-21.64
-52.23
-62.16
-49.19
-19.89
14.34
42.59
58.95
63.77
61.25
55.89
47.71
37.94
25.97
11.96
-1.95
-12.33
-16.31
-13.63
-6.94
-0.17
3.26
1.42
-4.64
-11.76
-16.02
-14.69
-7.65
2.60
12.52
19.59
21.91
20.09
16.63
14.87
17.45
25.34
37.65
51.92
64.76
72.10
70.57
58.07
35.18
5.26
-26.17
-52.82
-69.73
-75.07
-70.99
-60.92
-51.13
-45.89
-45.72
-47.95
-49.05
-46.87
-41.60
-35.20
-29.63
-25.80
-22.65
-18.48
-12.34
-4.85
2.31
7.38
9.50
9.11
7.63
7.01
8.67
12.94
18.89
25.02
29.93
32.80
33.57
32.61
30.86
28.90
26.72
23.68
19.10
12.61
4.45
-4.65
-13.68
-21.48
-27.23
-30.43
-31.45
-30.62
-28.14
-24.11
-18.48
-11.28
-2.61
7.10
17.25
26.39
33.55
38.31
40.80
41.57
41.38
40.98
40.90
41.43
41.55
40.50
37.76
33.04
26.07
16.34
3.03
-15.27
-33.72
-50.91
-66.26
-79.48
-90.04
-97.21
-100.45
-99.84
-96.20
-90.94
-86.39
-84.00
-83.87
-85.00
-85.96
-85.63
-83.61
-80.40
-76.91
-74.88
-75.46
-79.26
-86.40
-96.07
-106.03
-112.41
-110.48
-96.64
-70.85
-36.92
-1.57
27.97
46.85
54.14
52.45
45.99
38.20
30.35
22.32
13.76
5.08
-2.34
-6.97
-8.09
-5.77
-1.06
4.87
11.50
19.25
29.12
41.93
57.72
74.71
91.22
105.23
115.23
120.79
122.49
121.71
119.89
118.08
116.57
115.43
114.02
111.65
107.90
102.68
96.59
91.11
88.33
90.07
96.49
104.57
108.22
101.15
79.55
44.74
3.26
-35.58
-64.99
-81.90
-88.04
-87.56
-84.27
-79.96
-75.19
-70.90
-69.10
-71.37
-76.71
-80.75
-77.13
-61.14
-32.82
2.11
34.68
56.50
64.48
61.53
54.20
49.54
51.01
58.14
67.39
73.42
71.46
60.04
41.31
20.04
1.79
-9.41
-12.95
-11.47
-9.38
-10.45
-15.86
-24.34
-33.54
-41.41
-47.01
-50.45
-52.33
-53.23
-53.66
-53.47
-52.23
-50.02
-46.97
-43.68
-40.88
-39.64
-39.41
-41.91
-47.70
-56.60
-68.51
-82.68
-97.33
-108.83
-111.60
-99.77
-70.28
-26.67
24.46
71.58
103.06
112.28
100.73
76.99
52.66
36.87
34.67
43.87
57.09
69.16
77.74
83.19
86.79
89.02
88.93
85.60
78.56
68.70
58.19
49.42
44.15
42.30
41.70
38.89
31.08
15.90
-3.98
-26.65
-49.80
-70.63
-86.72
-96.82
-105.27
-111.78
-116.19
-118.39
-118.32
-115.71
-109.86
-100.39
-87.91
-74.18
-61.43
-52.87
-52.26
-60.16
-79.20
-111.50
-157.45
-214.83
-277.09
-334.19
-375.26
-392.50
-384.27
-355.73
-315.83
-273.87
-237.39
-208.81
-186.85
-167.58
-147.59
-125.28
-100.56
-73.47
-43.76
-12.82
19.26
51.69
84.98
119.27
154.53
191.00
229.88
273.10
320.16
372.37
414.21
431.13
414.91
368.61
303.90
233.64
181.61
147.00
125.91
114.92
114.57
127.73
149.33
165.42
166.48
148.87
113.14
66.47
16.49
-30.29
-70.63
-102.13
-116.81
-118.04
-111.06
-102.48
-95.64
-92.15
-91.24
-90.91
-84.21
-72.89
-57.19
-37.87
-16.69
6.80
34.07
67.03
106.76
158.12
223.02
299.37
381.27
461.07
532.77
592.15
636.21
630.32
559.14
432.61
280.68
133.80
10.22
-83.68
-148.96
-190.95
-216.85
-228.64
-229.22
-222.63
-213.85
-206.42
-200.47
-194.49
-186.54
-175.57
-158.25
-135.45
-112.33
-96.78
-94.90
-110.03
-136.81
-165.14
-185.51
-190.70
-182.68
-168.48
-156.93
-154.48
-162.76
-178.27
-194.65
-205.50
-202.07
-181.77
-149.23
-114.17
-86.20
-70.38
-64.77
-63.33
-60.34
-51.85
-37.47
-18.24
5.06
33.57
69.75
113.75
164.69
220.32
277.88
334.07
386.06
431.04
465.39
483.32
478.79
448.71
394.91
324.10
245.19
166.48
93.41
27.81
-32.62
-91.51
-150.82
-210.25
-268.37
-324.38
-378.31
-430.05
-466.41
-474.00
-447.00
-390.55
-317.14
-239.44
-166.69
-104.65
-56.56
-25.76
-11.68
-12.71
-24.16
-37.99
-44.96
-37.88
-14.08
25.53
71.91
111.39
132.61
132.63
117.09
95.82
77.53
66.65
63.37
65.10
68.58
71.45
73.02
73.61
73.63
72.91
70.99
68.02
65.05
64.06
65.56
68.65
70.22
65.61
50.93
25.53
-6.77
-37.54
-58.34
-64.52
-56.58
-39.38
-19.14
-0.37
15.34
28.74
40.97
51.99
60.70
65.85
66.70
63.41
56.83
48.39
39.25
30.01
20.25
9.69
-1.07
-11.16
-19.17
-23.43
-22.27
-14.60
-0.48
17.58
36.63
53.81
66.03
70.90
67.29
55.70
37.75
15.39
-11.81
-44.81
-81.11
-120.06
-162.21
-208.88
-261.07
-318.19
-376.95
-432.72
-476.84
-499.21
-493.08
-457.20
-396.08
-317.52
-229.32
-125.88
-12.94
98.08
196.25
275.30
333.32
369.58
383.05
373.03
340.97
290.14
229.20
169.74
121.51
89.23
71.83
64.63
62.52
62.33
61.81
61.25
61.60
62.87
64.02
63.92
62.50
60.77
60.08
60.31
60.95
61.17
60.02
56.68
50.83
42.67
32.51
20.55
6.13
-10.18
-27.83
-45.53
-61.42
-73.60
-80.81
-83.19
-81.93
-79.39
-77.90
-79.30
-84.39
-92.10
-99.25
-100.80
-91.56
-67.73
-29.72
15.99
61.06
95.19
110.68
105.63
84.64
56.40
30.35
12.32
3.31
0.57
-0.18
-2.02
-5.82
-9.79
-14.05
-19.09
-26.68
-38.41
-54.07
-71.48
-86.99
-97.02
-99.48
-96.70
-90.23
-83.12
-77.72
-74.22
-70.92
-64.88
-53.72
-36.68
-15.68
5.59
22.47
31.25
29.91
17.92
-3.70
-32.17
-62.97
-88.71
-103.26
-103.53
-90.45
-69.10
-47.13
-31.43
-25.21
-27.47
-34.33
-41.63
-47.18
-50.83
-52.59
-52.18
-48.39
-39.54
-24.61
-3.81
20.75
45.88
67.70
84.46
96.10
103.53
107.91
110.01
110.18
110.09
107.55
101.28
90.59
75.88
58.18
38.79
18.94
0.00
-17.23
-32.23
-44.17
-52.60
-56.84
-56.35
-51.17
-44.74
-37.84
-31.35
-26.09
-19.73
-14.40
-11.78
-12.83
-17.86
-26.62
-38.12
-50.40
-61.21
-69.61
-76.56
-83.20
-90.21
-97.51
-103.87
-106.42
-104.53
-95.54
-78.94
-57.46
-34.94
-14.63
1.62
13.61
22.71
35.05
56.58
89.09
129.26
171.75
212.16
248.25
279.89
308.33
340.56
382.45
434.94
494.01
554.26
611.76
663.82
707.04
701.85
623.45
475.21
289.74
107.85
-41.96
-148.84
-215.46
-251.72
-269.23
-271.74
-260.37
-237.55
-209.05
-182.30
-163.11
-154.15
-155.38
-165.04
-176.73
-185.44
-190.20
-192.84
-197.19
-206.53
-222.08
-242.30
-262.72
-273.78
-266.31
-235.93
-185.67
-125.11
-66.26
-19.31
10.46
23.40
25.85
25.01
25.61
28.73
32.58
35.34
36.79
38.39
41.73
47.73
54.29
56.33
47.85
25.34
-9.51
-49.82
-86.20
-111.13
-121.70
-120.62
-113.58
-104.99
-94.87
-79.21
-53.25
-14.88
29.30
69.24
96.12
107.56
107.49
103.47
102.46
106.71
112.39
113.00
104.39
87.46
67.11
49.47
37.77
31.90
30.24
31.36
37.19
51.98
78.66
114.67
151.68
177.03
180.11
156.92
110.32
49.08
-17.17
-78.36
-127.62
-161.39
-180.60
-186.91
-173.80
-138.90
-84.82
-20.98
41.48
88.17
119.74
140.62
156.73
170.67
183.23
192.89
194.59
184.46
161.61
129.37
90.88
50.31
7.11
-41.66
-98.62
-168.70
-253.75
-350.52
-450.31
-544.09
-622.08
-681.45
-722.65
-719.05
-655.09
-533.60
-376.44
-211.60
-77.03
27.35
105.62
159.96
190.83
196.24
173.03
122.42
55.58
-10.66
-55.58
-67.76
-46.06
1.01
56.23
102.78
131.25
141.80
141.19
139.42
140.47
144.04
147.34
146.06
138.01
124.91
110.74
100.47
98.57
105.31
119.37
139.63
165.59
196.69
231.84
264.97
288.32
295.78
284.46
259.94
227.61
193.77
162.81
136.88
113.94
90.94
66.01
38.85
10.52
-17.78
-45.23
-72.68
-96.16
-113.97
-124.31
-125.79
-117.84
-101.50
-80.07
-58.61
-43.57
-38.71
-48.14
-73.51
-114.97
-164.35
-212.69
-252.10
-276.63
-296.80
-311.84
-320.51
-325.16
-324.23
-322.99
-326.58
-335.26
-343.42
-342.75
-324.86
-289.65
-235.51
-172.51
-116.38
-78.92
-62.61
-62.58
-72.31
-85.53
-99.86
-115.65
-132.22
-147.73
-158.71
-161.48
-153.54
-134.47
-104.00
-63.38
-14.36
39.22
93.12
144.48
192.25
236.48
277.61
316.85
355.18
395.52
439.73
488.29
540.06
591.49
636.45
667.59
679.16
668.89
641.10
601.58
554.78
502.10
442.04
372.14
291.88
205.10
106.53
4.11
-89.13
-163.30
-217.43
-257.87
-292.04
-323.27
-349.68
-367.83
-374.10
-370.13
-361.98
-356.40
-357.24
-364.21
-374.11
-382.71
-387.27
-385.68
-378.90
-369.40
-359.21
-348.34
-334.77
-315.42
-287.33
-250.07
-204.85
-155.35
-106.15
-60.71
-19.42
20.86
59.73
98.48
136.89
172.91
202.32
220.57
224.62
214.41
192.72
165.56
140.08
122.17
115.96
123.36
143.76
173.24
204.32
227.34
236.00
229.55
213.30
196.75
188.97
194.49
211.20
231.71
247.24
255.03
257.91
261.85
272.31
291.63
319.16
353.17
392.71
419.74
421.64
392.35
335.09
260.45
180.38
103.70
34.94
-24.26
-73.90
-112.01
-137.48
-150.70
-154.10
-151.48
-146.63
-142.39
-140.07
-139.55
-137.52
-130.90
-118.80
-104.03
-92.83
-92.21
-106.47
-134.42
-169.24
-199.56
-215.06
-210.64
-188.32
-155.88
-122.69
-95.96
-78.83
-70.87
-69.48
-72.72
-79.85
-90.50
-102.69
-111.80
-112.17
-100.08
-77.14
-50.64
-31.03
-26.44
-37.64
-57.31
-72.54
-71.25
-47.97
-6.38
43.09
88.36
120.57
135.95
134.48
117.77
87.95
48.55
5.67
-32.51
-58.26
-67.80
-63.53
-52.97
-44.58
-43.60
-49.02
-56.09
-59.14
-55.31
-45.73
-33.61
-21.72
-10.46
1.24
14.34
28.52
41.86
51.96
57.08
57.40
54.23
49.60
45.04
40.80
36.04
29.35
19.53
6.44
-8.72
-23.81
-36.54
-44.19
-47.16
-46.86
-45.31
-44.42
-45.35
-48.04
-51.62
-54.96
-57.09
-57.80
-57.08
-55.31
-53.02
-51.20
-51.16
-54.00
-59.32
-64.56
-65.27
-56.29
-34.75
-1.91
37.05
75.29
106.76
127.87
137.23
134.45
119.45
92.62
56.11
14.85
-24.10
-54.03
-71.33
-76.75
-74.79
-70.35
-66.14
-62.96
-59.89
-55.75
-50.26
-44.16
-38.61
-34.25
-30.87
-27.47
-22.56
-14.86
-3.74
10.63
27.21
44.43
60.49
73.88
83.64
89.25
90.75
88.41
82.51
73.22
60.35
43.58
21.96
-4.64
-34.16
-61.78
-80.52
-83.72
-68.28
-36.34
5.26
47.31
81.74
103.41
109.91
100.58
76.26
40.27
-0.54
-36.44
-58.49
-62.85
-53.24
-39.56
-32.79
-39.34
-58.12
-82.78
-105.07
-120.12
-127.98
-131.91
-135.30
-139.48
-143.71
-146.68
-148.30
-150.55
-154.84
-160.61
-164.29
-159.73
-140.83
-104.99
-55.24
0.24
51.04
88.41
108.23
111.79
104.11
91.07
77.07
64.17
52.80
43.15
35.95
32.31
33.07
38.15
46.46
56.41
66.23
74.58
80.85
84.96
86.94
86.57
83.20
76.05
64.44
48.15
27.69
4.35
-20.27
-44.44
-66.88
-86.92
-104.30
-118.78
-129.98
-137.31
-140.20
-138.64
-132.90
-124.09
-113.73
-103.29
-93.59
-84.62
-75.66
-65.70
-54.26
-40.96
-26.17
-10.57
5.52
22.71
42.37
66.31
96.17
129.23
163.05
195.26
224.22
249.35
270.49
286.89
296.90
298.65
291.41
277.09
258.81
238.94
216.88
188.68
149.10
95.28
29.67
-39.85
-102.66
-150.53
-180.87
-196.73
-203.76
-206.01
-203.72
-193.90
-173.26
-140.68
-98.75
-52.25
-5.62
38.84
80.83
120.30
155.32
181.65
194.30
190.18
170.35
140.08
106.41
74.59
45.92
18.65
-9.03
-35.98
-57.67
-68.38
-64.75
-48.50
-26.45
-7.97
-1.64
-12.60
-41.61
-85.39
-137.69
-189.85
-231.80
-253.62
-248.64
-216.53
-164.93
-108.05
-62.06
-38.77
-40.74
-60.02
-81.72
-91.05
-80.34
-52.50
-18.95
6.75
15.37
5.24
-19.00
-50.54
-84.05
-116.53
-145.59
-167.44
-176.92
-169.73
-145.64
-109.88
-71.49
-39.49
-19.39
-11.50
-12.00
-15.16
-16.06
-11.84
-1.75
13.79
34.38
60.55
93.88
135.93
186.21
240.55
291.06
328.44
345.29
339.27
313.85
276.65
236.11
198.58
167.29
142.83
124.16
109.25
95.20
78.69
57.48
32.65
10.00
-1.20
7.68
39.63
88.96
142.43
184.04
201.14
188.37
148.21
88.40
18.31
-53.47
-120.09
-176.27
-218.16
-244.03
-255.05
-255.04
-249.23
-241.99
-235.08
-227.43
-216.47
-200.01
-177.32
-149.37
-118.17
-86.12
-55.93
-30.33
-11.42
0.53
8.21
16.49
29.90
49.41
70.78
86.34
89.65
79.70
61.84
44.31
32.54
25.64
17.68
3.05
-18.16
-38.90
-49.22
-42.65
-20.17
10.57
40.56
64.97
85.39
107.81
138.03
177.56
222.63
266.01
298.97
313.74
305.21
272.18
218.66
153.59
88.09
32.24
-7.44
-29.70
-37.28
-34.89
-27.33
-17.94
-8.95
-2.68
-4.90
-19.10
-44.90
-77.23
-109.35
-136.96
-158.93
-174.36
-183.69
-185.74
-177.67
-157.17
-124.10
-81.81
-37.39
2.09
32.39
52.98
67.23
80.66
94.72
108.31
120.99
127.46
120.49
97.62
61.33
17.90
-25.26
-63.43
-93.00
-112.67
-123.64
-126.95
-122.36
-109.49
-89.03
-63.82
-38.44
-17.48
-3.71
2.46
3.43
3.23
4.68
8.80
13.56
15.44
10.62
-3.60
-28.19
-61.05
-97.02
-129.13
-150.22
-155.34
-140.56
-109.32
-70.78
-36.02
-13.03
-4.21
-7.01
-16.45
-28.16
-39.68
-50.81
-61.62
-71.47
-78.69
-81.75
-80.30
-75.23
-68.47
-61.03
-53.11
-43.77
-31.74
-16.04
2.94
23.37
42.96
59.96
74.02
85.91
97.38
110.20
125.63
143.45
162.09
179.24
192.42
199.92
201.52
199.27
194.89
191.97
193.10
197.87
202.24
199.92
185.31
156.25
115.17
67.98
21.71
-18.81
-51.97
-78.85
-101.77
-122.76
-142.49
-159.98
-172.41
-175.29
-164.51
-138.14
-98.03
-49.77
-0.46
44.51
83.48
118.09
150.84
181.93
208.82
228.25
238.52
241.14
239.77
236.92
231.13
216.82
186.67
136.44
68.18
-10.59
-89.91
-161.01
-219.56
-266.35
-305.79
-344.03
-385.75
-432.57
-483.95
-537.06
-586.57
-625.33
-645.93
-642.59
-613.91
-562.44
-493.23
-413.36
-329.45
-245.02
-160.50
-74.63
17.48
113.34
199.65
265.64
303.10
306.92
279.28
230.87
178.62
140.06
125.58
135.32
160.04
184.81
196.96
192.71
178.15
164.63
161.41
169.78
183.55
193.83
193.59
181.75
163.13
144.21
128.07
112.49
91.70
62.31
27.42
-4.67
-24.88
-28.63
-18.46
-2.30
11.70
19.58
22.90
26.28
32.06
37.34
35.18
18.77
-13.73
-56.66
-98.12
-124.26
-124.76
-97.74
-51.03
0.62
41.24
59.50
52.44
25.38
-11.94
-47.76
-72.75
-83.20
-81.16
-71.06
-55.89
-36.20
-11.86
15.67
42.77
64.40
76.58
78.37
72.25
63.42
57.04
56.32
61.40
69.92
78.29
83.35
83.78
80.31
75.68
72.89
73.97
79.01
86.46
93.70
98.31
98.15
91.88
79.99
63.82
45.01
24.61
3.21
-19.13
-42.40
-66.43
-91.13
-115.23
-137.01
-154.64
-167.64
-176.38
-182.10
-186.52
-186.90
-185.35
-184.37
-186.42
-193.08
-204.90
-219.41
-230.95
-232.18
-217.10
-184.75
-138.75
-88.73
-40.84
-0.27
30.16
49.91
60.00
62.45
59.80
56.07
55.47
60.94
71.71
83.99
92.47
93.12
85.32
71.49
56.61
45.93
43.93
52.97
73.80
105.44
143.96
183.15
215.24
233.53
234.34
218.65
190.72
156.63
122.08
91.01
65.17
44.41
27.93
15.18
5.74
-1.71
-10.05
-23.51
-45.36
-74.95
-106.02
-127.59
-128.93
-105.56
-62.84
-15.84
16.02
16.93
-18.51
-83.58
-162.68
-238.41
-297.39
-332.67
-344.65
-338.83
-322.68
-302.30
-280.98
-258.89
-234.84
-207.70
-175.69
-138.04
-94.80
-45.90
9.25
71.42
140.57
214.81
290.85
366.97
441.06
510.01
568.89
611.51
632.59
629.96
605.84
553.81
476.40
382.99
286.76
198.81
124.85
66.32
23.00
-5.67
-21.19
-24.66
-19.75
-12.17
-7.29
-10.38
-23.06
-43.12
-66.61
-90.28
-111.08
-128.51
-144.35
-162.49
-187.16
-221.12
-265.36
-316.04
-368.55
-416.11
-451.68
-462.54
-441.92
-392.47
-326.03
-258.41
-202.11
-162.16
-135.19
-114.13
-94.82
-75.76
-58.82
-46.33
-38.40
-32.48
-25.04
-12.72
5.70
28.26
49.81
64.34
67.93
60.64
46.61
32.28
25.02
30.82
53.05
92.28
147.07
211.88
278.22
334.42
367.30
367.95
335.76
279.01
211.61
147.24
94.06
52.74
20.10
-11.28
-44.33
-75.36
-96.57
-100.41
-83.55
-48.74
-3.84
41.00
76.08
92.45
84.96
52.18
-2.87
-72.78
-146.29
-210.17
-252.51
-266.24
-250.58
-210.23
-153.67
-90.04
-26.69
31.96
84.10
129.13
166.65
192.35
202.44
195.17
172.04
137.62
97.51
56.17
16.11
-21.80
-57.10
-88.25
-113.34
-130.82
-140.42
-142.52
-137.79
-126.63
-108.45
-82.13
-47.04
-4.74
38.43
72.33
87.33
79.04
51.22
14.49
-18.05
-35.85
-33.79
-13.30
21.39
64.81
110.19
149.25
173.04
175.05
155.09
120.68
84.53
58.93
49.79
52.58
56.40
48.89
21.98
-24.60
-83.89
-145.75
-199.86
-237.90
-254.57
-247.64
-219.16
-176.88
-133.23
-101.39
-90.21
-99.42
-119.77
-137.78
-141.70
-125.99
-92.78
-49.12
-2.87
40.07
77.51
108.96
133.46
149.18
155.78
155.82
155.04
160.02
174.15
196.36
220.26
236.44
232.88
204.35
154.26
93.31
37.80
-3.42
-25.76
-26.71
-5.14
38.61
101.01
173.49
243.33
296.93
323.57
319.76
288.87
238.55
177.58
113.95
53.74
1.28
-40.52
-70.58
-89.26
-99.40
-106.14
-116.26
-135.90
-168.77
-214.77
-269.42
-324.24
-368.01
-390.86
-388.68
-365.82
-333.89
-306.91
-294.54
-297.15
-305.54
-305.60
-286.22
-245.18
-190.25
-134.13
-87.75
-55.41
-34.29
-17.26
3.00
30.51
64.50
100.06
130.74
150.67
156.31
146.17
122.00
89.97
59.38
38.47
29.69
29.51
30.73
27.42
16.66
-1.33
-23.61
-45.57
-62.26
-69.84
-65.60
-49.53
-24.67
3.54
28.09
42.73
44.47
37.80
26.87
15.03
3.65
-4.48
-7.18
-4.73
-0.77
-1.48
-12.70
-36.67
-69.45
-102.02
-124.27
-130.35
-120.60
-99.67
-72.81
-43.14
-12.08
19.28
48.31
71.32
85.53
92.17
97.27
108.98
132.87
168.54
210.21
249.87
281.19
301.22
309.66
306.66
291.51
263.07
221.61
170.66
116.44
65.25
20.09
-20.26
-59.73
-101.18
-143.16
-179.41
-201.34
-202.34
-180.79
-140.61
-89.31
-35.12
15.11
56.63
86.62
104.21
110.73
110.14
107.91
108.67
113.54
118.97
118.19
104.67
75.26
30.65
-25.00
-86.01
-146.50
-200.32
-240.44
-259.81
-253.55
-222.26
-173.29
-117.85
-66.56
-25.11
7.65
37.81
71.78
112.60
157.65
199.89
232.41
251.45
257.27
253.48
244.84
234.84
224.80
213.11
195.79
169.43
132.91
87.96
39.36
-6.54
-47.95
-82.84
-106.66
-121.42
-133.06
-146.49
-164.53
-186.76
-209.53
-227.45
-234.34
-226.15
-203.17
-169.56
-132.35
-100.36
-80.80
-73.17
-72.44
-71.51
-66.07
-54.15
-36.39
-16.53
-1.16
2.17
-12.18
-45.41
-91.79
-139.74
-175.59
-188.13
-172.46
-131.17
-72.25
-5.55
59.70
116.82
161.37
190.77
204.08
202.69
190.94
176.06
166.75
169.83
187.56
216.18
247.04
269.70
275.70
261.38
228.57
183.06
131.86
81.04
34.55
-5.65
-39.26
-67.23
-91.96
-116.96
-145.89
-180.60
-218.64
-252.56
-271.34
-264.62
-227.91
-166.25
-94.43
-32.47
2.01
1.33
-28.85
-72.01
-107.92
-121.00
-105.60
-66.57
-15.30
35.43
75.53
99.05
103.87
91.02
63.83
27.27
-13.38
-54.39
-94.07
-131.86
-166.17
-192.45
-203.57
-192.92
-158.19
-104.20
-42.23
13.95
53.43
72.22
74.51
69.91
69.00
79.22
102.69
136.52
175.10
212.79
246.10
274.01
297.06
315.76
330.02
339.16
342.42
339.29
329.35
312.16
287.56
255.69
217.40
175.01
132.05
92.27
58.25
30.49
7.59
-12.87
-33.13
-54.90
-78.06
-100.96
-121.57
-138.71
-153.00
-166.31
-180.71
-198.12
-220.73
-249.02
-280.95
-311.53
-334.11
-342.99
-336.22
-317.10
-294.37
-280.47
-285.17
-311.40
-353.83
-400.99
-439.83
-460.19
-457.32
-423.65
-360.84
-278.03
-189.31
-108.17
-42.95
4.13
33.18
49.23
57.73
62.76
69.03
80.68
100.26
127.42
158.92
190.45
218.74
242.37
261.56
279.75
301.39
329.46
363.01
396.21
419.85
425.05
406.56
359.72
289.23
207.12
127.99
63.07
16.39
-14.40
-34.12
-46.78
-54.42
-56.82
-54.16
-48.23
-42.03
-38.63
-39.26
-42.90
-46.93
-48.83
-46.52
-39.78
-30.36
-21.03
-14.75
-12.54
-13.33
-14.57
-13.73
-9.25
-1.48
6.97
12.35
10.69
0.50
-17.08
-38.88
-61.35
-81.70
-99.24
-115.31
-132.27
-152.94
-178.00
-206.04
-233.83
-256.76
-269.15
-265.16
-240.14
-187.98
-112.98
-25.77
60.26
133.29
186.73
220.31
238.79
248.66
254.89
258.18
256.20
244.97
221.18
184.59
138.85
90.78
48.02
16.15
-3.88
-14.24
-18.63
-20.20
-19.83
-16.81
-10.22
-0.49
10.12
18.32
22.24
22.29
20.58
19.97
22.27
27.54
34.03
38.97
39.88
35.86
27.64
17.13
6.46
-3.23
-12.07
-21.03
-31.44
-43.92
-57.87
-71.68
-83.29
-90.73
-93.29
-91.34
-85.94
-78.39
-69.56
-59.94
-50.13
-41.07
-33.96
-30.93
-33.85
-43.14
-57.45
-73.35
-86.46
-93.01
-90.62
-79.06
-61.06
-40.82
-23.10
-12.33
-11.56
-22.05
-43.17
-72.05
-98.58
-112.93
-108.42
-85.61
-52.62
-20.46
2.23
12.14
11.79
6.44
-0.13
-6.59
-13.58
-21.83
-30.88
-37.70
-39.11
-32.88
-18.95
-0.06
19.85
37.05
49.29
56.67
60.70
59.69
53.08
40.74
22.61
-0.74
-26.56
-53.41
-78.49
-97.99
-108.46
-107.20
-93.10
-66.47
-28.70
16.51
64.07
108.77
146.35
174.32
192.32
201.10
201.74
195.36
182.91
166.18
147.73
130.19
115.52
104.62
97.08
91.64
86.72
80.91
74.35
68.31
64.47
64.17
67.34
72.73
78.45
84.77
89.07
90.57
89.73
87.64
85.69
84.57
84.98
87.35
90.91
92.85
89.57
77.58
55.56
25.82
-7.30
-37.85
-60.48
-72.89
-76.38
-74.34
-70.80
-68.88
-70.12
-76.88
-91.49
-113.15
-140.70
-172.26
-204.94
-235.89
-262.99
-274.46
-263.33
-229.83
-181.43
-128.20
-77.67
-32.87
5.87
38.61
65.69
85.93
98.73
104.12
103.81
99.78
93.98
87.64
80.30
71.53
60.59
47.89
34.56
21.53
8.88
-0.89
-7.75
-14.83
-25.55
-42.38
-65.86
-94.94
-127.75
-161.93
-194.85
-210.64
-199.02
-160.73
-106.68
-49.80
1.54
44.02
77.56
103.39
121.56
132.73
137.02
135.73
130.82
124.14
116.40
107.19
94.98
78.87
56.18
24.64
-10.75
-43.15
-67.31
-82.32
-90.35
-94.11
-95.50
-96.28
-97.19
-97.34
-96.00
-92.60
-87.52
-81.67
-75.94
-71.07
-68.33
-68.93
-72.98
-79.49
-85.35
-85.71
-75.40
-51.50
-15.47
26.46
65.73
95.15
111.27
115.52
112.44
107.15
102.94
100.53
98.85
96.74
94.20
91.90
90.83
91.37
93.09
95.07
96.31
96.64
96.60
96.66
96.08
92.43
82.22
62.74
34.10
0.02
-33.11
-58.75
-72.99
-76.06
-71.70
-65.21
-60.87
-60.33
-62.58
-65.22
-66.07
-64.25
-60.96
-57.65
-56.49
-59.18
-65.79
-74.75
-83.21
-88.45
-88.91
-85.16
-79.64
-75.78
-76.88
-84.76
-99.29
-118.18
-137.10
-150.13
-150.52
-133.72
-98.95
-51.80
-3.28
33.73
49.75
43.13
21.17
-2.35
-12.62
0.05
36.42
88.34
142.05
183.25
202.23
196.62
170.64
134.90
100.43
74.57
59.72
54.17
54.41
57.16
59.17
56.92
46.13
23.53
-10.63
-51.04
-87.73
-110.38
-112.42
-94.84
-64.37
-32.39
-10.81
-7.79
-25.12
-57.87
-96.05
-127.44
-141.60
-132.70
-101.63
-55.59
-5.55
37.61
66.68
79.78
79.90
72.38
63.24
57.27
57.30
63.89
75.61
90.20
103.72
114.76
122.66
127.00
126.64
119.78
105.39
84.58
61.33
41.03
28.30
24.22
26.14
29.26
29.70
26.75
22.53
20.53
22.70
28.56
35.37
39.83
39.78
34.41
25.03
13.50
1.60
-10.07
-22.13
-35.84
-52.41
-72.03
-94.28
-118.27
-143.09
-166.59
-185.39
-195.40
-193.50
-179.31
-156.00
-129.34
-103.83
-84.43
-71.61
-63.14
-56.81
-52.29
-51.40
-56.23
-67.06
-81.27
-94.98
-103.54
-104.40
-97.44
-83.99
-65.64
-43.55
-18.40
9.42
38.34
66.76
92.77
114.38
130.02
139.13
142.10
140.08
134.80
127.81
120.45
113.32
106.41
99.51
92.41
85.17
77.93
71.15
65.14
60.26
56.50
53.55
51.00
48.40
46.39
43.56
39.15
32.59
23.59
12.10
-1.52
-16.45
-31.53
-45.41
-56.95
-64.98
-68.68
-67.79
-62.62
-53.89
-42.69
-30.39
-18.42
-8.19
-0.64
3.59
4.28
1.45
-4.30
-12.37
-22.26
-33.57
-46.00
-59.18
-72.73
-86.22
-99.39
-111.46
-121.99
-130.86
-138.17
-144.34
-149.90
-155.20
-160.36
-165.20
-168.80
-170.61
-170.48
-168.56
-165.23
-160.71
-154.47
-144.65
-133.09
-119.56
-103.86
-86.39
-67.94
-49.73
-32.69
-16.72
-0.49
18.13
41.76
71.69
107.15
146.05
185.04
220.71
251.18
276.74
299.34
321.90
346.81
375.07
407.27
441.54
473.48
497.08
506.16
496.00
465.12
416.46
356.14
293.38
234.74
182.41
135.13
91.10
50.38
16.04
-5.94
-11.00
3.37
32.09
63.74
85.23
86.99
65.77
24.38
-28.91
-98.58
-177.50
-251.77
-309.37
-346.92
-366.78
-370.78
-357.53
-322.20
-264.64
-186.95
-98.74
-13.62
56.66
107.20
140.61
149.55
138.56
115.59
88.99
61.39
31.78
-0.47
-32.95
-60.92
-79.83
-84.65
-74.68
-52.27
-25.07
-2.45
7.33
-0.27
-24.64
-60.04
-94.65
-116.55
-116.41
-92.44
-49.27
4.39
59.10
106.85
139.26
151.71
142.79
115.09
71.94
18.24
-40.36
-98.50
-152.08
-199.22
-238.88
-271.31
-285.83
-275.64
-240.54
-188.25
-129.57
-72.21
-19.29
29.80
76.38
121.60
162.44
194.86
217.47
230.40
235.28
234.34
229.58
222.07
212.69
199.40
181.62
160.32
137.55
116.17
98.98
88.26
80.36
76.85
76.90
79.50
83.90
89.74
96.97
105.33
113.73
119.84
129.16
141.23
154.28
166.24
175.32
180.46
181.26
177.93
171.12
162.55
152.17
140.35
127.51
114.12
100.52
86.95
73.40
59.79
46.43
32.43
17.33
0.99
-16.19
-33.49
-49.82
-64.09
-75.16
-81.81
-83.78
-80.97
-73.73
-62.55
-48.16
-31.44
-13.30
5.40
23.83
40.85
55.38
66.48
73.38
75.44
72.34
64.09
51.22
34.73
15.93
-3.58
-22.18
-38.42
-51.39
-60.84
-67.14
-71.19
-74.16
-77.21
-81.25
-86.66
-93.24
-100.35
-107.05
-112.21
-114.70
-113.57
-108.15
-98.19
-83.94
-66.19
-46.31
-26.03
-7.26
8.28
19.29
25.05
25.34
20.30
10.07
-5.45
-26.51
-53.31
-85.67
-122.54
-162.05
-201.74
-239.09
-272.20
-300.35
-323.86
-343.80
-361.28
-376.79
-389.94
-399.90
-405.85
-407.76
-406.87
-405.37
-406.18
-412.51
-427.62
-454.25
-493.56
-543.68
-598.93
-650.31
-687.83
-703.82
-695.61
-666.19
-622.51
-572.44
-521.74
-472.90
-425.80
-379.45
-333.75
-289.60
-248.33
-210.67
-176.37
-144.54
-114.40
-85.74
-58.90
-34.55
-12.94
6.28
24.00
41.30
58.98
77.39
96.32
115.27
133.55
150.34
164.46
174.32
178.15
174.44
162.84
144.79
123.76
104.56
92.01
89.33
97.19
113.80
135.78
159.73
183.60
207.19
231.67
258.80
289.99
325.48
363.79
401.20
431.47
446.40
437.80
400.64
336.18
253.46
167.52
94.56
46.24
25.64
27.16
40.42
55.58
67.45
75.90
83.52
91.92
99.96
104.66
103.82
98.53
93.95
97.34
114.48
146.28
187.26
226.54
251.67
253.13
228.22
182.13
126.39
74.37
36.49
16.89
13.24
19.14
27.58
33.65
35.29
33.09
28.80
24.34
21.56
22.20
27.89
39.41
56.09
75.41
94.50
111.15
124.95
137.28
150.03
164.08
178.07
188.38
190.18
180.59
159.86
131.92
103.06
79.72
66.91
67.05
79.90
96.84
107.81
104.23
83.76
50.73
11.99
-27.13
-64.18
-98.48
-130.05
-157.65
-179.18
-192.70
-197.97
-197.01
-193.10
-190.17
-189.31
-189.57
-187.78
-180.09
-163.31
-136.26
-100.19
-57.99
-14.64
25.30
58.62
84.39
103.10
116.16
124.72
129.23
129.72
126.17
119.26
110.00
99.79
89.86
81.30
74.50
69.15
64.46
59.66
54.59
49.37
44.49
40.31
37.39
35.86
35.39
35.44
35.51
35.51
35.40
36.87
39.07
41.68
44.11
45.56
45.24
42.72
38.29
32.46
26.36
21.09
17.78
16.72
17.52
19.43
21.74
24.33
26.81
29.52
33.21
39.14
48.22
60.43
74.34
86.75
93.19
88.23
68.57
34.40
-10.16
-58.75
-104.69
-143.03
-171.75
-185.17
-182.90
-167.91
-144.43
-116.03
-85.41
-54.64
-25.24
1.52
25.17
45.02
61.39
74.78
86.07
95.08
100.81
102.35
98.66
89.34
74.19
55.22
35.11
16.29
0.32
-12.03
-20.23
-24.59
-25.81
-24.76
-21.87
-17.48
-11.71
-4.72
0.54
5.75
12.00
19.70
29.15
40.75
54.72
70.97
89.15
108.64
129.21
150.11
169.96
187.81
203.03
215.13
223.76
228.47
228.65
223.38
215.66
206.34
196.03
185.17
174.07
162.94
151.88
140.96
130.47
120.48
110.44
100.14
89.61
79.04
68.74
58.99
49.96
41.73
34.06
26.04
16.96
6.44
-5.51
-18.46
-31.71
-44.56
-56.50
-67.27
-77.25
-86.68
-95.55
-103.52
-109.93
-114.30
-116.53
-117.30
-117.94
-120.31
-125.96
-135.62
-149.00
-164.84
-181.37
-196.96
-210.70
-222.67
-234.13
-247.14
-263.77
-285.10
-310.06
-334.92
-353.67
-359.46
-346.50
-312.02
-257.32
-187.94
-112.47
-40.75
18.23
58.06
75.78
71.61
48.30
10.33
-36.33
-84.27
-124.96
-150.34
-155.20
-139.31
-108.20
-71.45
-39.32
-19.29
-14.13
-22.24
-38.98
-58.35
-73.71
-78.50
-67.61
-39.41
2.32
48.40
87.08
108.69
109.76
94.31
71.62
51.83
41.57
42.00
49.68
59.61
68.00
73.75
77.69
80.65
82.03
79.69
71.36
56.99
40.13
27.39
25.83
39.56
67.30
102.47
135.97
159.91
170.56
168.86
158.62
143.98
127.47
109.75
90.49
69.61
47.72
25.65
3.60
-19.29
-44.80
-74.70
-109.60
-147.98
-186.00
-218.35
-240.01
-248.41
-245.04
-235.36
-226.81
-225.41
-232.62
-243.96
-250.76
-243.82
-217.75
-173.81
-119.77
-67.36
-28.29
-10.68
-16.92
-43.82
-84.26
-129.93
-173.80
-211.45
-241.32
-263.99
-280.95
-293.50
-302.07
-306.05
-304.05
-294.56
-276.59
-250.41
-217.95
-182.76
-149.41
-122.26
-103.95
-94.50
-91.18
-89.69
-85.97
-77.79
-65.47
-51.21
-37.53
-25.47
-13.98
-0.79
15.65
34.31
51.35
61.75
62.17
53.23
39.84
29.35
28.25
39.34
60.99
88.58
116.98
142.51
163.31
178.65
188.09
191.56
190.19
187.17
187.29
194.85
211.06
232.49
251.96
261.59
256.62
237.66
210.12
181.26
156.56
137.52
122.15
107.32
91.59
76.41
65.42
61.80
65.89
74.30
81.38
82.02
74.43
61.24
48.27
41.92
46.22
61.28
83.44
106.96
126.11
136.95
138.27
131.72
121.31
112.46
110.93
121.25
145.27
181.08
222.85
262.06
290.00
300.59
292.42
269.00
236.96
203.38
173.28
148.55
128.85
113.49
103.06
99.61
105.17
119.73
139.90
159.53
171.81
172.02
159.31
136.58
108.86
80.92
55.56
33.21
12.67
-7.53
-27.99
-48.43
-68.25
-87.48
-107.06
-128.21
-151.21
-174.26
-193.31
-203.20
-200.03
-183.37
-157.33
-129.44
-107.99
-98.77
-103.17
-118.37
-139.37
-161.44
-181.67
-198.88
-212.58
-222.01
-226.30
-225.47
-221.35
-217.56
-218.04
-225.16
-238.33
-254.21
-268.06
-275.37
-273.26
-260.88
-239.60
-212.67
-184.83
-161.50
-147.56
-145.92
-156.45
-175.66
-197.44
-214.59
-220.58
-211.15
-185.46
-146.41
-100.28
-55.39
-20.03
-0.14
2.45
-9.36
-29.07
-48.76
-61.59
-63.64
-54.66
-37.46
-16.44
3.97
20.54
31.95
38.67
42.63
46.49
52.84
63.45
78.43
95.91
112.23
122.88
124.09
114.46
95.64
72.24
50.47
36.44
34.40
45.42
66.89
92.90
115.58
127.38
123.98
106.51
81.94
61.03
54.52
69.41
106.18
158.34
214.10
259.84
284.85
284.70
262.47
227.06
189.70
159.87
142.08
135.21
134.38
134.98
134.97
134.32
132.64
127.35
114.05
88.94
51.87
7.51
-34.64
-63.57
-71.52
-57.13
-24.95
17.34
62.26
103.68
131.09
132.74
101.97
43.96
-25.70
-89.36
-134.88
-158.62
-164.67
-161.43
-155.89
-150.46
-143.45
-133.05
-118.23
-100.80
-83.73
-68.48
-53.57
-34.25
-4.81
36.61
87.51
142.11
192.53
230.79
250.04
246.24
220.26
178.27
129.73
84.80
50.56
28.75
16.59
9.11
2.38
-4.34
-9.85
-13.35
-15.55
-19.21
-28.08
-45.10
-71.34
-105.52
-144.02
-179.00
-203.31
-211.15
-200.25
-173.27
-137.34
-101.96
-75.20
-60.77
-57.38
-60.63
-65.27
-67.71
-67.37
-64.25
-58.58
-49.67
-36.03
-16.31
9.55
40.36
72.81
103.38
129.87
151.74
169.96
185.73
198.76
206.15
203.35
186.37
154.53
111.95
66.47
26.84
-0.67
-14.13
-16.11
-11.47
-5.12
-0.12
1.78
-0.50
-8.15
-22.69
-44.93
-73.74
-105.17
-132.24
-147.88
-147.81
-132.68
-108.14
-82.66
-63.87
-55.63
-57.10
-64.05
-71.83
-77.68
-81.37
-84.08
-86.77
-89.12
-89.04
-84.37
-73.82
-57.79
-37.88
-16.31
5.12
24.79
42.45
58.35
72.59
84.98
94.87
101.46
104.27
103.44
99.79
94.68
89.45
84.96
81.60
79.16
77.08
74.61
71.14
66.37
60.48
54.11
48.24
43.90
41.68
41.22
41.29
40.40
37.84
34.13
30.83
29.94
32.24
37.54
45.08
54.23
64.57
75.23
83.83
86.20
77.78
56.32
24.03
-12.28
-43.51
-62.44
-66.75
-59.36
-46.31
-33.87
-25.51
-21.55
-20.76
-22.01
-24.85
-28.56
-31.17
-29.90
-22.95
-11.52
0.11
6.01
2.05
-11.74
-30.77
-48.28
-58.89
-61.14
-57.42
-52.03
-48.36
-47.12
-46.58
-43.92
-37.23
-26.68
-14.32
-2.99
4.62
7.31
6.05
2.74
-0.54
-2.67
-3.33
-2.22
1.53
9.21
21.28
36.20
49.87
57.38
55.49
44.69
29.47
16.07
9.56
11.47
19.99
30.96
40.53
46.61
48.93
48.03
44.45
38.94
33.53
31.80
37.43
52.56
75.37
99.70
117.26
121.19
109.07
83.25
52.39
25.66
10.15
8.40
18.04
33.38
47.95
56.97
59.06
56.43
53.13
53.06
57.50
63.70
66.08
58.79
38.88
8.07
-28.04
-63.11
-93.01
-117.39
-138.74
-160.12
-183.67
-210.12
-239.60
-272.33
-308.16
-344.64
-375.80
-393.04
-388.57
-359.57
-310.61
-252.55
-197.79
-154.76
-124.48
-101.04
-75.40
-40.06
7.46
64.06
122.78
175.16
213.21
230.48
223.04
190.92
139.76
81.00
29.81
0.19
-0.71
24.02
61.58
94.30
106.40
89.47
44.20
-21.51
-96.36
-169.38
-231.48
-275.67
-296.71
-291.70
-260.98
-208.48
-141.05
-66.82
6.11
70.31
118.92
145.80
146.71
121.08
73.61
14.28
-43.91
-89.01
-114.12
-119.56
-111.78
-99.52
-89.35
-82.95
-77.33
-67.60
-50.34
-25.37
4.59
35.85
65.43
91.08
110.39
120.01
116.44
97.85
65.83
25.48
-16.19
-52.56
-78.76
-91.76
-89.78
-71.95
-38.89
6.58
59.59
114.61
167.69
217.54
265.06
311.28
355.43
394.53
424.70
443.28
449.97
446.66
436.08
420.61
401.96
381.80
362.17
345.26
332.15
321.70
310.46
293.96
268.84
234.45
193.14
148.82
104.97
63.24
23.15
-16.85
-57.87
-99.68
-140.42
-177.43
-208.31
-231.77
-248.04
-259.11
-268.61
-281.06
-300.27
-327.39
-359.38
-389.04
-407.23
-406.20
-382.67
-338.53
-279.53
-212.89
-145.49
-83.38
-32.31
1.92
14.60
3.90
-27.61
-73.26
-124.82
-175.88
-224.35
-272.33
-323.31
-378.63
-435.01
-484.70
-518.50
-529.74
-517.12
-485.06
-441.59
-394.87
-350.14
-308.98
-270.51
-233.45
-197.85
-165.13
-137.06
-114.59
-97.19
-83.37
-71.76
-61.87
-54.25
-50.06
-50.06
-53.94
-60.17
-66.42
-70.40
-70.58
-66.58
-59.02
-49.06
-37.74
-25.62
-12.75
1.02
15.69
30.88
46.02
60.56
74.27
87.27
99.90
112.40
124.64
136.16
146.48
155.62
164.30
173.84
185.62
200.41
218.04
237.62
258.07
278.45
298.09
316.12
331.18
341.62
346.30
345.33
340.15
332.64
323.72
312.57
297.19
276.15
250.42
223.86
201.74
187.96
182.68
181.89
179.45
170.34
153.35
131.54
110.42
95.01
87.31
85.58
85.49
82.19
72.30
55.00
32.02
7.00
-15.55
-31.11
-35.97
-27.91
-6.83
24.94
62.91
101.16
133.71
155.79
164.84
160.75
145.35
121.53
92.70
62.73
36.03
17.16
9.54
13.64
25.86
39.19
45.87
40.97
24.82
2.94
-16.71
-27.69
-27.99
-20.57
-11.21
-5.36
-5.66
-11.47
-20.05
-28.61
-35.77
-41.57
-46.63
-50.88
-53.12
-51.62
-45.58
-36.34
-27.46
-23.37
-27.13
-38.63
-54.35
-68.82
-77.12
-77.13
-70.01
-59.14
-48.04
-38.62
-30.55
-22.11
-11.53
1.81
17.17
32.99
47.87
61.15
72.83
82.96
91.12
96.26
97.16
93.21
85.01
74.48
64.34
57.21
54.65
56.68
61.80
67.46
71.02
70.47
65.10
55.65
44.13
33.11
24.82
20.18
18.34
16.67
11.72
0.50
-18.22
-43.13
-70.62
-95.93
-114.75
-124.61
-125.46
-119.32
-109.25
-98.23
-88.46
-81.17
-76.94
-75.96
-78.17
-83.05
-89.39
-95.44
-99.34
-99.80
-96.72
-91.26
-85.27
-80.48
-77.59
-75.98
-74.10
-70.32
-63.76
-54.60
-43.79
-32.26
-20.26
-7.20
7.77
24.84
42.79
59.15
71.06
76.56
75.53
69.77
62.02
54.71
48.90
44.21
39.42
33.67
27.16
21.24
17.52
16.89
18.68
20.80
20.73
16.62
8.31
-2.67
-13.80
-22.79
-28.56
-31.51
-33.02
-34.53
-36.94
-40.23
-43.84
-47.02
-49.01
-48.87
-45.45
-37.45
-24.11
-5.97
14.82
34.88
50.75
60.24
63.23
61.49
57.61
53.64
50.22
46.67
41.95
35.78
29.40
25.15
25.23
30.15
37.95
44.59
45.72
38.70
24.05
5.40
-12.13
-24.16
-28.88
-27.56
-23.55
-20.54
-20.89
-24.82
-30.73
-36.14
-38.79
-37.36
-31.78
-22.97
-12.50
-2.11
6.79
13.38
17.47
19.49
20.16
20.11
19.45
17.64
13.48
5.56
-7.06
-24.30
-44.77
-65.99
-85.26
-100.60
-111.59
-119.42
-126.50
-135.36
-147.74
-164.05
-183.46
-204.34
-224.75
-242.73
-256.40
-264.08
-264.43
-256.68
-240.78
-217.29
-187.26
-151.93
-112.61
-70.76
-27.95
14.22
54.38
91.68
126.01
157.85
188.13
218.11
249.20
282.74
319.35
358.01
395.56
426.98
446.53
449.60
434.11
400.98
353.67
296.84
235.39
173.75
115.85
65.02
23.75
-6.83
-27.43
-40.26
-48.31
-54.14
-59.05
-62.93
-64.75
-63.25
-57.83
-49.08
-38.88
-30.29
-26.87
-31.72
-46.15
-68.75
-95.10
-118.72
-133.11
-134.00
-121.21
-98.75
-73.24
-51.35
-37.18
-30.96
-29.46
-28.04
-22.97
-13.28
-1.08
9.70
15.17
13.34
4.85
-7.61
-20.67
-31.84
-40.48
-47.76
-55.71
-65.90
-78.31
-91.03
-100.83
-104.33
-99.30
-85.40
-64.13
-38.28
-11.20
13.90
34.27
48.04
54.59
54.79
50.97
46.31
43.69
44.57
48.44
53.15
56.04
55.22
50.37
42.61
33.77
25.45
18.55
13.43
10.43
10.37
14.41
23.43
37.08
53.20
68.16
78.07
80.44
75.26
65.16
54.17
45.90
42.07
42.21
44.45
46.94
48.97
51.09
54.20
58.40
62.12
62.26
55.20
38.37
11.42
-23.26
-61.23
-97.40
-127.43
-148.90
-161.50
-166.54
-165.97
-161.49
-154.22
-144.77
-133.62
-121.36
-108.56
-95.49
-81.86
-66.97
-50.14
-31.33
-11.39
8.13
25.60
39.94
50.84
58.55
63.24
64.59
61.75
53.88
40.92
24.15
6.20
-9.59
-20.20
-23.98
-21.18
-13.88
-5.20
1.98
6.00
6.93
6.26
5.82
6.63
8.24
8.98
6.83
0.60
-9.57
-22.31
-35.71
-48.05
-58.10
-65.00
-68.06
-66.70
-60.82
-51.06
-39.04
-26.87
-16.61
-9.42
-5.30
-3.22
-1.73
0.23
2.93
5.65
7.09
6.02
2.05
-3.85
-9.45
-11.76
-8.18
2.40
18.87
37.91
54.76
64.74
64.82
54.73
37.23
17.21
0.05
-10.23
-12.11
-6.82
2.42
11.91
18.62
21.08
19.28
14.22
7.31
-0.16
-7.10
-12.76
-16.78
-19.40
-21.44
-23.98
-27.59
-31.53
-33.47
-30.08
-18.47
2.08
29.05
56.99
79.01
89.12
84.37
65.77
37.97
7.77
-17.98
-34.09
-38.16
-30.87
-15.55
2.95
19.55
30.40
33.72
30.19
22.44
14.06
8.37
7.33
11.02
17.68
24.50
28.63
28.31
23.41
15.26
5.81
-3.27
-11.24
-18.31
-25.09
-32.06
-39.32
-46.75
-54.22
-61.67
-68.79
-74.52
-77.09
-74.38
-64.81
-48.14
-25.73
-0.15
25.35
47.53
63.60
71.66
71.11
63.04
50.23
36.54
25.62
19.51
17.83
18.09
16.96
11.97
2.68
-9.20
-20.79
-29.44
-33.86
-34.48
-32.85
-30.69
-28.99
-27.83
-26.74
-25.44
-24.16
-23.52
-23.81
-24.38
-23.72
-20.29
-13.69
-5.36
1.76
4.67
2.00
-4.97
-12.59
-16.46
-13.33
-2.64
13.33
30.33
43.85
50.52
49.00
40.00
25.73
8.93
-7.88
-22.83
-34.80
-43.08
-47.12
-46.47
-41.01
-31.28
-18.69
-5.38
6.32
14.47
17.93
16.65
11.54
4.27
-2.99
-8.00
-9.01
-5.18
2.96
13.61
24.13
31.69
34.10
30.53
21.94
10.94
1.16
-4.04
-2.71
4.89
16.52
29.07
39.82
47.48
52.06
54.16
53.82
50.27
42.37
29.50
12.56
-6.02
-23.06
-35.91
-43.35
-45.99
-45.76
-44.97
-45.46
-47.98
-52.13
-56.75
-60.51
-62.38
-61.96
-59.42
-55.36
-50.52
-45.54
-40.80
-36.47
-32.56
-29.02
-25.84
-22.94
-19.90
-15.73
-8.90
2.23
18.67
40.03
64.21
87.82
107.19
119.77
124.98
124.34
120.54
116.20
112.61
109.38
104.77
96.76
84.06
66.69
45.91
23.55
1.42
-19.08
-36.88
-50.95
-60.23
-63.90
-61.91
-55.41
-46.72
-38.59
-33.27
-31.69
-33.31
-36.57
-39.87
-42.26
-43.63
-44.37
-44.74
-44.47
-42.83
-39.10
-33.21
-25.92
-18.56
-12.43
-8.13
-5.43
-3.69
-2.48
-2.01
-3.17
-6.87
-13.32
-21.60
-29.77
-35.69
-37.87
-36.13
-31.56
-26.00
-21.05
-17.59
-15.59
-14.46
-13.57
-12.48
-11.12
-9.55
-7.84
-5.99
-4.01
-1.87
0.44
3.10
6.52
11.29
18.00
26.95
37.89
49.89
61.29
69.95
73.64
70.81
61.14
45.99
28.16
11.12
-2.11
-9.95
-12.77
-12.58
-12.03
-13.30
-17.26
-23.23
-29.48
-34.11
-35.82
-34.50
-31.07
-27.08
-24.01
-22.99
-24.52
-28.60
-34.78
-42.17
-49.34
-54.42
-55.40
-50.79
-40.16
-24.44
-5.77
13.11
29.64
42.07
49.79
53.25
53.58
52.00
49.32
45.58
40.14
32.15
21.26
8.20
-5.19
-16.44
-23.57
-26.02
-25.02
-23.05
-22.71
-25.61
-31.90
-40.60
-50.39
-60.19
-69.29
-77.02
-82.42
-84.20
-81.37
-73.82
-62.73
-50.16
-38.30
-28.54
-21.05
-14.97
-9.01
-2.13
6.32
16.58
28.78
42.80
57.97
72.61
83.95
88.81
84.62
70.95
50.17
27.21
8.22
-1.60
0.21
12.44
30.64
48.66
60.77
63.43
56.28
41.88
24.53
8.56
-3.20
-10.27
-14.34
-18.26
-24.72
-34.99
-48.49
-63.15
-76.31
-85.87
-91.01
-92.34
-91.56
-90.72
-91.43
-94.02
-97.17
-97.75
-91.50
-74.25
-43.52
0.01
51.76
104.06
148.09
176.56
185.98
177.55
156.49
129.98
104.72
85.09
72.57
66.25
64.12
64.27
65.44
66.63
66.31
61.97
50.83
31.27
4.28
-26.15
-54.19
-74.67
-85.23
-87.16
-84.19
-80.15
-76.74
-72.97
-66.20
-54.24
-36.87
-16.19
4.50
22.15
35.03
42.91
46.60
47.22
45.68
42.36
36.90
28.32
15.36
-2.77
-25.54
-50.68
-74.43
-92.77
-102.77
-103.55
-96.44
-84.31
-70.74
-59.35
-53.32
-54.70
-63.63
-77.67
-92.25
-102.05
-103.04
-93.97
-76.13
-52.40
-25.71
1.61
27.59
50.29
68.11
80.58
89.22
97.14
107.46
121.42
137.56
152.69
163.75
169.44
170.29
167.31
160.66
149.15
131.04
105.28
72.21
33.31
-9.47
-54.25
-99.11
-141.47
-178.10
-205.42
-220.84
-223.82
-216.37
-202.58
-187.15
-173.67
-163.11
-153.38
-139.89
-117.34
-82.17
-34.70
20.23
74.51
119.78
150.71
166.93
172.65
174.20
176.81
182.55
190.23
196.80
199.08
194.65
181.75
159.15
126.57
85.95
42.32
3.21
-23.84
-34.61
-30.49
-18.09
-6.45
-3.18
-11.59
-30.06
-53.39
-75.16
-89.64
-93.03
-83.90
-63.40
-35.36
-5.66
18.93
32.71
32.82
20.00
-1.86
-26.97
-49.27
-63.44
-65.61
-53.75
-28.28
7.72
48.82
88.40
120.20
139.63
144.26
133.70
109.35
74.49
34.61
-2.91
-30.25
-41.78
-36.65
-19.77
-0.34
11.52
8.82
-9.53
-38.61
-69.68
-93.94
-106.08
-106.02
-98.35
-89.63
-84.90
-85.12
-86.95
-84.66
-73.53
-52.75
-26.35
-1.73
13.52
14.71
1.92
-20.12
-43.51
-59.78
-62.53
-49.60
-24.10
6.32
32.09
45.47
43.95
31.45
16.42
7.66
10.00
21.97
37.02
47.20
47.34
37.44
22.02
7.29
-2.02
-4.54
-2.10
2.09
5.35
6.81
7.36
8.84
12.77
19.52
28.03
36.09
41.32
42.15
38.52
31.90
24.69
19.11
16.32
16.04
16.87
17.15
15.72
12.51
8.35
4.42
1.55
-0.20
-1.51
-3.38
-6.40
-10.35
-14.11
-16.11
-15.06
-10.70
-4.00
3.08
8.39
10.55
9.64
7.15
5.37
6.21
10.26
16.44
22.49
25.91
24.94
18.96
8.29
-5.96
-21.90
-36.35
-44.85
-42.73
-27.42
-0.72
30.35
55.46
65.04
54.50
26.45
-10.52
-45.56
-69.80
-78.94
-73.40
-56.81
-34.22
-10.90
8.21
19.22
20.55
13.97
4.51
-1.45
0.86
12.15
28.53
43.35
50.27
45.95
31.04
9.34
-14.12
-34.75
-49.51
-57.11
-57.93
-53.72
-47.26
-41.64
-39.15
-40.28
-43.35
-45.30
-43.17
-35.68
-23.82
-10.37
1.49
9.60
13.60
14.70
14.70
15.10
16.50
18.63
20.76
22.29
23.06
23.51
24.55
27.15
31.85
38.31
45.18
50.41
52.04
48.95
41.26
30.09
17.02
3.39
-9.94
-22.38
-33.20
-41.37
-45.80
-45.86
-41.81
-34.67
-25.82
-16.33
-6.84
2.25
10.31
16.26
18.96
17.98
14.13
9.33
5.72
4.45
5.07
5.93
5.49
3.63
1.93
2.84
7.86
16.19
24.74
29.52
27.95
20.38
10.06
1.56
-1.52
1.72
9.27
17.41
22.62
23.05
18.97
12.15
4.66
-2.05
-7.57
-12.20
-16.42
-20.39
-23.84
-26.40
-27.99
-29.11
-30.53
-32.89
-36.07
-38.85
-39.23
-35.24
-25.88
-11.92
3.96
17.92
26.09
25.94
17.13
1.68
-16.71
-33.76
-45.85
-51.03
-49.33
-42.41
-32.79
-22.90
-14.48
-8.33
-4.44
-2.29
-1.21
-0.50
0.43
1.93
3.94
5.85
6.48
4.36
-1.78
-12.24
-25.70
-38.89
-47.28
-46.60
-34.95
-14.26
9.64
29.10
37.88
34.02
20.80
5.03
-6.46
-10.09
-6.80
-0.73
3.70
4.37
2.18
-0.22
-0.54
1.67
5.02
7.48
7.80
6.30
4.54
4.37
7.01
12.42
19.46
26.14
30.24
29.98
24.70
15.33
4.24
-5.41
-10.96
-11.29
-7.33
-1.65
2.72
3.56
0.40
-5.38
-11.16
-14.22
-12.78
-6.68
2.66
12.90
21.66
27.39
29.74
29.42
27.68
25.74
24.34
23.74
23.65
23.42
22.12
18.78
12.64
3.58
-7.64
-19.45
-29.83
-36.99
-39.99
-38.93
-34.85
-29.19
-23.27
-18.00
-13.70
-10.29
-7.43
-4.76
-2.03
0.73
3.14
4.55
4.29
2.02
-1.96
-6.67
-10.77
-13.04
-12.98
-11.03
-8.32
-6.12
-5.21
-5.52
-6.20
-6.13
-4.42
-0.92
3.78
8.61
12.55
15.02
16.09
16.33
16.48
17.03
18.08
19.31
20.22
20.40
19.76
18.39
16.47
13.95
10.54
5.87
-0.16
-7.06
-13.80
-19.10
-22.07
-22.67
-21.77
-20.73
-20.64
-21.74
-23.26
-23.77
-21.91
-17.06
-9.62
-0.83
7.67
14.44
18.61
20.02
19.08
16.56
13.20
9.58
6.06
2.77
-0.14
-2.46
-3.98
-4.60
-4.53
-4.36
-4.78
-6.30
-8.92
-12.17
-15.23
-17.40
-18.33
-18.03
-16.74
-14.61
-11.68
-8.06
-4.12
-0.69
1.18
0.70
-2.09
-6.12
-9.53
-10.40
-7.57
-1.16
7.43
16.08
22.70
26.00
25.72
22.61
17.92
12.94
8.67
5.69
4.28
4.49
6.27
9.30
12.92
16.08
17.66
16.88
13.80
9.47
5.56
3.63
4.38
7.27
10.69
12.69
11.74
7.29
-0.09
-8.92
-17.23
-22.96
-24.45
-20.71
-11.86
0.81
15.01
28.06
37.72
42.81
43.59
41.61
39.02
37.85
39.19
42.69
46.54
48.00
44.38
34.21
18.06
-1.22
-19.32
-31.79
-35.73
-30.97
-20.16
-7.89
1.17
3.99
0.26
-7.75
-16.43
-22.54
-24.53
-22.90
-19.73
-17.37
-17.29
-19.63
-23.24
-26.48
-27.90
-26.70
-22.62
-15.80
-6.43
5.14
17.98
30.19
38.77
40.45
33.09
17.14
-3.90
-24.42
-38.88
-44.12
-40.48
-31.12
-19.95
-9.46
0.24
10.68
23.15
37.24
50.54
59.89
63.15
60.36
53.69
46.30
40.89
38.62
38.94
39.88
38.90
33.66
22.72
6.07
-14.78
-37.18
-58.32
-76.15
-90.07
-100.83
-109.74
-117.77
-124.97
-130.51
-133.31
-132.56
-128.04
-119.94
-108.75
-95.11
-79.97
-64.50
-49.89
-36.90
-25.62
-15.41
-5.49
4.39
13.63
21.05
25.66
27.37
27.24
26.93
27.80
30.28
33.82
37.62
41.37
45.73
51.99
61.21
73.28
86.52
98.09
105.05
105.58
99.84
89.86
78.74
69.28
62.74
58.29
53.43
45.25
31.89
13.60
-7.23
-26.88
-41.61
-48.70
-47.10
-37.57
-22.51
-5.66
8.54
15.95
14.00
2.67
-15.33
-35.40
-52.66
-63.51
-66.52
-62.26
-52.45
-39.00
-23.44
-6.93
9.43
24.29
36.02
42.99
44.01
38.73
27.95
13.65
-1.35
-14.09
-22.29
-25.02
-22.99
-18.14
-12.69
-8.18
-4.72
-1.07
4.55
13.21
24.19
34.72
40.90
39.50
29.79
14.37
-1.65
-12.85
-15.92
-11.00
-1.36
8.55
15.37
18.12
17.96
16.90
16.32
16.37
16.37
15.77
14.90
14.81
16.71
21.15
27.69
35.01
41.36
44.97
44.47
39.17
29.29
15.97
1.06
-13.43
-25.91
-35.62
-42.65
-47.54
-50.79
-52.58
-52.82
-51.20
-47.65
-42.26
-35.37
-27.29
-18.27
-8.53
1.67
11.87
21.42
29.47
35.26
38.41
39.12
38.23
36.90
36.21
36.62
37.76
38.49
37.36
33.11
25.11
13.61
-0.38
-15.36
-29.74
-42.15
-51.70
-58.00
-61.10
-61.49
-59.85
-56.94
-53.36
-49.42
-45.04
-39.97
-33.95
-27.05
-19.84
-13.23
-8.09
-4.89
-3.42
-2.95
-2.63
-2.07
-1.52
-1.90
-4.27
-9.20
-16.31
-24.15
-30.57
-33.41
-31.31
-24.13
-13.14
-0.63
10.69
18.55
21.87
21.05
17.80
14.19
11.59
9.77
6.93
0.69
-10.42
-25.85
-43.08
-58.57
-69.23
-73.12
-69.27
-56.89
-35.37
-5.26
30.08
64.02
88.24
96.38
87.62
67.80
47.05
34.77
34.87
44.10
54.44
57.80
50.45
34.60
16.40
2.32
-4.17
-3.71
0.20
3.58
3.91
0.87
-3.97
-8.31
-10.00
-7.61
-0.59
10.87
25.92
43.01
59.94
73.86
81.66
80.68
69.64
49.23
22.19
-7.41
-35.38
-58.53
-75.04
-84.15
-85.47
-78.38
-62.47
-38.41
-8.95
20.91
45.13
58.49
58.51
46.32
26.10
3.28
-17.27
-32.28
-40.03
-39.83
-31.56
-16.03
4.56
26.36
44.72
55.86
58.47
54.29
47.15
40.84
37.10
34.82
30.82
21.74
5.99
-15.35
-39.09
-61.24
-78.52
-89.26
-93.44
-92.20
-87.08
-79.48
-70.32
-60.21
-49.56
-38.82
-28.63
-19.82
-13.28
-9.64
-8.96
-10.56
-13.05
-14.84
-14.71
-12.31
-8.29
-3.87
-0.12
2.55
4.57
6.87
10.25
14.78
19.56
23.16
24.17
21.85
16.53
9.36
1.99
-4.09
-7.91
-9.13
-7.97
-4.98
-0.91
3.39
6.95
8.90
8.59
5.88
1.21
-4.47
-10.04
-14.42
-16.72
-16.26
-12.57
-5.66
3.76
14.24
23.82
30.65
33.64
32.83
29.17
23.98
18.31
12.60
6.92
1.40
-3.28
-5.94
-5.33
-0.85
7.05
16.81
26.24
33.28
36.67
36.26
32.91
27.97
22.71
17.90
13.67
9.75
5.73
1.46
-2.86
-6.72
-9.53
-10.97
-11.19
-10.89
-10.93
-11.96
-13.97
-16.10
-16.91
-14.99
-9.67
-1.49
7.87
16.20
21.57
23.07
21.20
17.49
13.81
11.51
10.90
11.13
10.84
8.94
5.23
0.67
-3.02
-4.22
-2.19
2.65
8.80
14.25
17.29
17.15
14.16
9.47
4.30
-0.39
-4.23
-7.24
-9.66
-11.67
-13.21
-14.08
-14.22
-14.05
-14.19
-15.07
-16.51
-17.68
-17.29
-14.09
-7.27
3.10
15.56
28.07
38.58
45.42
47.17
42.92
32.85
18.89
4.74
-5.78
-8.84
-1.73
16.01
41.48
68.70
90.61
101.51
99.19
84.11
61.20
38.54
24.75
24.87
37.72
56.74
72.58
77.07
63.34
29.18
-23.26
-87.77
-156.31
-220.37
-271.61
-303.81
-303.42
-270.56
-224.59
-193.67
-192.67
-214.81
-239.94
-247.95
-229.27
-186.18
-136.12
-90.14
-54.39
-28.81
-9.45
7.69
25.03
43.58
66.05
94.60
129.45
170.83
218.92
272.04
325.37
371.84
391.58
373.51
321.93
257.73
205.61
180.11
179.23
187.62
186.01
161.26
114.27
56.07
1.60
-38.33
-60.51
-68.38
-68.47
-66.36
-64.49
-60.92
-53.59
-42.67
-31.44
-24.41
-24.17
-30.33
-39.93
-49.19
-54.00
-53.36
-48.96
-44.36
-42.95
-46.14
-52.96
-60.88
-67.27
-70.04
-69.88
-69.23
-71.52
-79.69
-94.70
-114.94
-136.95
-157.21
-167.32
-164.27
-149.30
-127.28
-104.45
-85.70
-72.80
-64.15
-56.20
-45.40
-30.84
-13.51
4.29
20.05
31.97
39.22
42.00
41.33
38.90
35.83
33.22
31.78
31.62
32.41
33.62
34.98
36.50
38.32
40.00
40.97
40.72
38.96
35.80
31.75
27.85
25.29
24.91
26.61
29.54
32.53
34.40
34.31
31.88
27.96
24.04
21.42
20.39
20.41
20.75
20.96
20.99
20.98
21.88
24.61
29.23
34.56
38.84
40.90
40.45
37.79
33.48
29.35
28.17
32.83
45.58
67.70
99.91
142.07
192.67
240.47
270.50
270.88
239.27
181.74
107.98
29.37
-42.92
-100.26
-138.96
-159.50
-165.46
-161.63
-152.28
-140.53
-127.95
-115.74
-105.42
-98.76
-96.08
-95.81
-95.40
-92.53
-86.46
-77.83
-68.51
-60.58
-55.79
-54.27
-54.61
-56.53
-56.96
-54.57
-49.29
-42.08
-33.93
-25.55
-16.71
-6.56
5.92
21.35
38.94
57.04
73.25
85.60
92.75
94.32
90.66
82.32
69.77
52.75
33.20
11.48
-11.61
-34.59
-55.47
-72.33
-84.23
-91.17
-94.41
-95.36
-95.74
-96.37
-97.89
-100.93
-105.83
-111.73
-115.76
-113.80
-102.24
-80.65
-52.25
-22.91
1.67
18.60
28.81
35.65
42.16
49.09
54.55
56.08
52.69
45.79
38.34
32.97
30.49
29.71
28.56
25.46
20.04
13.25
6.60
1.61
-1.31
-2.66
-3.69
-5.74
-9.65
-15.29
-21.57
-26.84
-29.58
-29.03
-25.37
-19.60
-13.25
-7.07
-1.20
4.93
12.30
21.68
33.13
45.81
58.22
68.78
76.39
80.68
82.15
81.86
81.09
81.21
83.46
88.48
95.49
101.70
102.37
92.33
68.23
30.75
-14.82
-60.19
-97.20
-120.81
-130.57
-130.01
-124.27
-117.81
-113.20
-111.37
-112.30
-115.46
-119.57
-122.07
-119.62
-109.22
-89.74
-62.74
-32.26
-3.43
19.34
33.51
39.03
37.51
31.40
23.25
15.52
10.35
9.39
13.53
22.52
35.28
49.94
64.45
77.25
87.89
97.16
106.85
119.51
135.61
156.13
181.22
209.42
237.31
259.88
271.76
269.01
250.65
219.14
179.82
138.67
100.58
68.38
43.08
24.72
13.07
7.75
7.64
10.60
13.32
12.20
4.71
-9.65
-29.20
-50.87
-71.35
-88.10
-99.53
-104.96
-104.23
-97.50
-85.52
-70.04
-53.79
-39.97
-31.29
-29.12
-33.46
-43.45
-58.11
-76.56
-97.69
-119.31
-138.01
-149.81
-151.68
-143.10
-126.51
-106.46
-87.82
-74.02
-66.23
-63.68
-64.70
-67.71
-71.59
-75.55
-78.91
-80.95
-81.07
-79.01
-75.07
-70.02
-64.88
-60.72
-58.24
-57.54
-57.74
-57.05
-53.13
-43.96
-28.70
-8.29
14.72
36.89
55.07
67.42
73.75
75.30
73.82
70.66
66.18
59.88
51.16
40.20
28.35
17.87
10.88
8.35
9.64
12.87
15.95
17.63
17.87
17.32
16.34
14.15
8.92
-1.39
-17.70
-38.97
-62.16
-82.95
-97.01
-101.15
-93.92
-76.01
-50.01
-19.82
10.20
36.24
56.01
69.04
76.31
79.40
79.48
76.88
71.32
62.71
51.73
39.84
28.79
19.71
12.68
6.80
0.80
-6.26
-14.58
-23.61
-32.34
-39.78
-45.21
-48.35
-49.34
-48.56
-46.60
-44.07
-41.58
-39.56
-38.25
-37.44
-36.60
-34.98
-31.94
-27.10
-20.58
-12.84
-4.44
4.40
14.05
25.56
40.22
59.00
81.98
107.93
134.54
158.92
178.46
191.57
198.00
198.71
195.23
189.02
180.99
171.38
160.02
146.59
130.94
113.07
93.08
71.06
47.16
21.86
-3.61
-27.25
-46.61
-59.59
-65.35
-64.87
-60.72
-56.19
-54.04
-55.49
-59.90
-65.35
-69.64
-71.34
-70.39
-67.90
-65.56
-64.91
-66.98
-72.24
-80.52
-90.72
-100.21
-104.69
-99.11
-79.78
-46.85
-5.62
34.48
63.19
73.49
64.47
41.42
13.27
-11.07
-25.68
-28.91
-22.73
-11.22
0.99
9.91
12.97
9.43
0.45
-11.47
-23.46
-33.34
-40.22
-44.39
-46.73
-48.07
-48.92
-49.47
-49.89
-50.38
-51.27
-52.92
-55.68
-59.83
-65.46
-72.28
-79.63
-86.51
-91.88
-94.92
-95.18
-92.57
-87.19
-79.24
-69.14
-57.73
-46.35
-36.64
-30.01
-27.13
-27.56
-29.79
-31.87
-32.07
-29.63
-24.99
-19.42
-14.33
-10.49
-7.52
-4.06
1.56
10.36
22.03
34.86
46.24
53.65
55.58
51.97
44.20
34.62
25.96
20.72
20.72
26.73
38.36
54.01
71.21
87.25
99.82
107.63
110.57
109.65
106.39
102.15
97.72
93.01
87.40
80.17
70.93
59.79
47.29
34.10
20.88
8.17
-3.53
-13.65
-21.72
-27.46
-31.04
-32.98
-34.03
-34.82
-35.76
-37.04
-38.86
-41.47
-45.08
-49.58
-54.29
-58.01
-59.33
-57.10
-50.91
-41.28
-29.44
-16.95
-5.24
4.74
12.53
18.11
21.73
23.77
24.72
25.07
25.29
25.71
26.44
27.36
28.12
28.35
27.74
26.22
23.93
21.20
18.38
15.77
13.50
11.50
9.51
7.16
4.08
0.08
-4.88
-10.53
-16.47
-22.26
-27.62
-32.48
-37.00
-41.38
-45.54
-49.05
-50.97
-50.23
-45.99
-37.99
-26.75
-13.50
0.17
12.69
22.69
29.35
32.27
31.61
27.95
22.26
15.70
9.41
4.27
0.75
-1.17
-1.83
-1.71
-1.24
-0.63
0.11
1.10
2.40
3.95
5.56
7.00
8.08
8.76
9.07
9.12
8.92
8.36
7.19
5.03
1.50
-3.61
-10.16
-17.50
-24.49
-29.73
-31.92
-30.28
-24.82
-16.34
-6.19
4.09
13.16
20.13
24.61
26.69
26.68
25.11
22.53
19.53
16.73
14.70
13.89
14.57
16.71
20.00
23.89
27.81
31.20
33.69
35.02
35.02
33.62
30.79
26.65
21.44
15.56
9.46
3.56
-1.90
-6.94
-11.79
-16.81
-22.23
-27.93
-33.34
-37.52
-39.43
-38.30
-33.92
-26.82
-18.08
-9.03
-0.82
5.78
10.51
13.47
14.90
15.06
14.18
12.49
10.37
8.28
6.69
5.97
6.21
7.25
8.73
10.27
11.53
12.37
12.79
12.87
12.73
12.47
12.14
11.75
11.26
10.59
9.68
8.40
6.66
4.38
1.54
-1.71
-5.00
-7.69
-8.94
-7.99
-4.44
1.48
8.75
15.87
21.22
23.66
22.87
19.35
14.13
8.23
2.34
-3.45
-9.46
-16.08
-23.38
-30.94
-37.89
-43.28
-46.50
-47.64
-47.41
-46.98
-47.45
-49.62
-53.93
-60.53
-69.36
-79.75
-90.05
-97.37
-98.40
-90.82
-74.93
-54.32
-34.80
-22.07
-19.08
-24.88
-35.14
-44.43
-48.45
-45.23
-34.60
-16.92
7.77
39.31
76.03
113.64
145.54
164.90
167.52
153.95
129.51
102.10
79.10
64.68
58.95
59.06
61.33
63.08
63.47
62.90
62.03
60.91
58.95
55.44
50.23
44.06
38.21
33.84
31.30
29.91
28.30
25.13
19.73
12.50
4.80
-1.57
-4.98
-4.47
-0.03
7.46
16.56
25.61
33.30
38.94
42.61
45.01
46.97
48.87
50.24
49.70
45.36
35.55
19.56
-1.85
-26.37
-50.62
-71.04
-84.81
-90.62
-89.07
-82.42
-73.83
-66.65
-63.49
-65.82
-73.71
-86.05
-100.85
-115.84
-128.97
-138.87
-144.85
-146.44
-142.74
-132.12
-112.70
-83.44
-45.63
-3.60
35.90
65.61
80.34
78.77
63.76
40.81
15.87
-6.55
-23.93
-34.95
-38.48
-33.09
-17.77
6.75
37.05
67.41
91.49
104.71
106.08
98.35
86.70
76.46
71.14
71.42
75.39
79.78
81.40
78.40
70.79
60.36
49.87
42.14
39.15
41.55
48.58
58.41
68.60
76.61
80.23
78.07
69.98
57.27
42.55
29.11
19.91
16.65
19.18
25.65
33.18
38.80
40.34
36.86
28.63
16.75
2.72
-11.94
-25.96
-38.36
-48.54
-56.27
-61.69
-65.15
-67.09
-67.87
-67.57
-66.15
-63.49
-59.61
-54.77
-49.49
-44.39
-40.02
-36.66
-34.14
-32.02
-29.65
-26.49
-22.29
-17.20
-11.68
-6.27
-1.43
2.61
5.76
8.08
9.60
10.39
10.61
10.58
10.67
11.27
12.61
14.69
17.24
19.81
21.91
23.15
23.33
22.43
20.61
18.07
14.92
11.20
6.86
1.93
-3.39
-8.68
-13.30
-16.64
-18.25
-18.17
-16.91
-15.47
-14.90
-15.99
-18.83
-22.78
-26.63
-29.15
-29.50
-27.54
-23.81
-19.22
-14.67
-10.75
-7.70
-5.50
-4.10
-3.49
-3.70
-4.70
-6.32
-8.24
-10.04
-11.37
-12.00
-11.88
-11.13
-9.93
-8.44
-6.81
-5.13
-3.54
-2.23
-1.50
-1.65
-2.88
-5.19
-8.33
-11.85
-15.23
-18.09
-20.28
-21.90
-23.22
-24.63
-26.43
-28.67
-31.11
-33.12
-33.88
-32.63
-28.96
-23.01
-15.47
-7.42
0.04
6.10
10.39
13.06
14.56
15.41
16.06
16.66
17.22
17.60
17.71
17.58
17.36
17.20
17.14
17.10
16.91
16.39
15.49
14.23
12.73
11.07
9.28
7.34
5.26
3.11
1.00
-0.94
-2.64
-4.08
-5.39
-6.77
-8.46
-10.65
-13.31
-16.10
-18.43
-19.61
-19.13
-16.91
-13.33
-9.14
-5.11
-1.81
0.62
2.29
3.49
4.43
5.23
5.93
6.57
7.32
8.40
9.97
12.05
14.43
16.72
18.51
19.46
19.45
18.54
16.94
14.86
12.51
10.06
7.70
5.55
3.76
2.37
1.38
0.67
0.03
-0.79
-2.13
-4.32
-7.53
-11.70
-16.29
-20.45
-23.14
-23.57
-21.39
-16.88
-10.86
-4.39
1.51
6.09
8.99
10.16
9.81
8.31
6.02
3.33
0.59
-1.86
-3.68
-4.58
-4.32
-2.91
-0.57
2.22
4.92
7.06
8.36
8.84
8.66
8.08
7.34
6.53
5.60
4.41
2.75
0.51
-2.27
-5.31
-8.20
-10.43
-11.56
-11.28
-9.47
-6.23
-1.86
3.17
8.27
12.93
16.82
19.86
22.24
24.32
26.44
28.76
31.27
33.73
35.88
37.44
38.23
38.22
37.51
36.28
34.76
33.16
31.64
30.31
29.20
28.32
27.56
26.75
25.60
23.78
20.97
17.05
12.11
6.49
0.63
-5.06
-10.38
-15.29
-19.87
-24.12
-27.74
-30.21
-30.94
-29.60
-26.30
-21.67
-16.62
-12.05
-8.51
-6.17
-4.85
-4.26
-4.19
-4.52
-5.18
-6.08
-7.07
-7.98
-8.73
-9.30
-9.70
-9.92
-9.93
-9.72
-9.37
-9.05
-8.99
-9.35
-10.21
-11.42
-12.84
-14.31
-15.77
-17.25
-18.85
-20.63
-22.58
-24.66
-26.67
-28.28
-29.06
-28.54
-26.40
-22.61
-17.50
-11.71
-5.99
-0.98
2.93
5.58
7.06
7.51
7.07
5.87
4.07
1.97
-0.04
-1.55
-2.29
-2.16
-1.36
-0.25
0.79
1.49
1.75
1.64
1.30
0.85
0.32
-0.34
-1.22
-2.40
-3.99
-6.03
-8.59
-11.63
-15.00
-18.37
-21.24
-23.00
-23.10
-21.24
-17.55
-12.53
-6.98
-1.69
2.73
5.97
8.05
9.10
9.32
8.88
7.99
6.90
5.85
5.10
4.75
4.78
5.08
5.46
5.81
6.01
5.96
5.56
4.76
3.53
1.97
0.23
-1.61
-3.63
-6.02
-9.03
-12.84
-17.36
-22.29
-27.09
-31.14
-33.80
-34.54
-33.01
-29.18
-23.40
-16.32
-8.88
-1.94
3.85
8.27
11.44
13.66
15.21
16.17
16.56
16.34
15.62
14.64
13.70
13.01
12.61
12.34
11.97
11.34
10.37
9.10
7.62
5.95
4.08
1.97
-0.40
-2.97
-5.66
-8.39
-11.11
-13.83
-16.64
-19.60
-22.68
-25.63
-27.96
-28.98
-28.09
-25.01
-19.98
-13.74
-7.32
-1.63
2.80
5.94
8.10
9.65
10.74
11.36
11.30
10.45
8.87
6.87
4.87
3.32
2.54
2.73
3.88
5.78
8.05
10.17
11.60
11.84
10.59
7.74
3.48
-1.74
-7.32
-12.61
-17.14
-20.68
-23.31
-25.33
-27.09
-28.74
-30.14
-30.92
-30.57
-28.74
-25.39
-20.82
-15.59
-10.34
-5.55
-1.44
1.99
4.96
7.69
10.32
12.84
15.08
16.79
17.71
17.66
16.71
15.12
13.43
12.25
12.19
13.58
16.49
20.56
25.12
29.33
32.35
33.48
32.32
28.84
23.35
16.43
8.84
1.40
-5.22
-10.55
-14.46
-17.06
-18.61
-19.33
-19.26
-18.21
-15.93
-12.30
-7.55
-2.32
2.57
6.33
8.58
9.38
9.15
8.44
7.65
6.96
6.40
5.97
5.77
5.96
6.63
7.65
8.65
9.15
8.74
7.32
5.19
2.84
0.85
-0.41
-0.84
-0.62
-0.06
0.59
1.06
1.21
0.91
0.08
-1.28
-3.08
-5.20
-7.56
-10.16
-13.11
-16.49
-20.13
-23.60
-26.16
-27.02
-25.65
-21.98
-16.48
-10.01
-3.57
2.07
6.47
9.61
11.72
13.08
13.84
14.03
13.62
12.65
11.32
9.91
8.71
7.86
7.30
6.84
6.32
5.69
5.03
4.46
3.96
3.45
2.79
1.89
0.84
-0.17
-0.90
-1.27
-1.37
-1.53
-2.11
-3.51
-5.97
-9.53
-14.01
-19.02
-23.96
-28.10
-30.71
-31.26
-29.55
-25.77
-20.48
-14.45
-8.51
-3.35
0.65
3.38
5.02
5.83
6.03
5.75
5.06
4.07
2.97
2.05
1.62
1.88
2.84
4.28
5.87
7.24
8.15
8.46
8.14
7.20
5.70
3.75
1.51
-0.83
-3.08
-5.11
-6.91
-8.60
-10.36
-12.32
-14.40
-16.26
-17.39
-17.20
-15.28
-11.56
-6.36
-0.32
5.78
11.25
15.61
18.66
20.42
20.99
20.57
19.41
17.76
15.88
14.03
12.37
11.05
10.14
9.66
9.63
9.98
10.63
11.39
12.07
12.44
12.28
11.40
9.68
7.07
3.72
-0.04
-3.76
-6.96
-9.33
-10.88
-11.90
-12.91
-14.33
-16.33
-18.65
-20.69
-21.68
-20.99
-18.29
-13.75
-7.88
-1.51
4.49
9.36
12.63
14.19
14.33
13.53
12.31
11.05
9.92
8.95
8.15
7.60
7.42
7.67
8.30
9.13
9.94
10.58
11.00
11.25
11.31
11.02
10.17
8.59
6.25
3.29
-0.02
-3.42
-6.75
-9.95
-13.03
-16.04
-19.01
-21.93
-24.72
-27.16
-28.86
-29.30
-27.95
-24.52
-19.06
-12.06
-4.37
3.08
9.49
14.33
17.47
19.01
19.18
18.30
16.63
14.53
12.42
10.78
10.03
10.40
11.85
14.07
16.56
18.85
20.61
21.74
22.33
22.51
22.38
21.88
20.84
19.09
16.58
13.44
10.01
6.66
3.67
1.15
-0.99
-3.02
-5.18
-7.70
-10.67
-14.08
-17.85
-21.74
-25.34
-28.08
-29.40
-28.91
-26.63
-22.98
-18.69
-14.55
-11.17
-8.88
-7.75
-7.72
-8.63
-10.34
-12.69
-15.46
-18.42
-21.31
-23.83
-25.71
-26.67
-26.50
-25.09
-22.41
-18.54
-13.56
-7.55
-0.64
6.93
14.81
22.57
29.85
36.45
42.43
48.12
53.91
60.15
66.91
73.83
80.11
84.59
85.99
83.28
76.06
64.74
50.46
34.87
19.64
6.09
-5.05
-13.72
-20.39
-25.79
-30.69
-35.65
-40.88
-46.22
-51.22
-55.25
-57.71
-58.12
-56.32
-52.55
-47.43
-41.90
-36.89
-33.06
-30.47
-28.57
-26.43
-23.16
-18.32
-12.15
-5.45
0.74
5.57
8.71
10.35
11.01
11.27
11.50
11.70
11.58
10.76
8.92
6.00
2.15
-2.20
-6.50
-10.13
-12.51
-13.19
-11.99
-9.09
-4.99
-0.50
3.58
6.63
8.41
9.04
8.88
8.36
7.77
7.25
6.79
6.31
5.75
5.08
4.32
3.54
2.89
2.50
2.51
2.93
3.67
4.48
5.10
5.29
4.95
4.11
2.88
1.42
-0.17
-1.86
-3.64
-5.55
-7.61
-9.84
-12.19
-14.55
-16.68
-18.17
-18.58
-17.52
-14.82
-10.70
-5.72
-0.64
3.86
7.37
9.81
11.37
12.27
12.59
12.24
11.07
9.08
6.44
3.57
0.96
-0.95
-1.96
-2.02
-1.30
-0.09
1.32
2.57
3.39
3.57
3.05
1.90
0.26
-1.71
-3.86
-6.07
-8.29
-10.46
-12.57
-14.59
-16.45
-17.97
-18.87
-18.76
-17.32
-14.40
-10.20
-5.23
-0.21
4.18
7.52
9.67
10.78
11.07
10.70
9.75
8.26
6.37
4.35
2.58
1.39
0.88
0.92
1.17
1.28
0.96
0.14
-1.09
-2.55
-4.04
-5.46
-6.77
-8.02
-9.28
-10.67
-12.31
-14.34
-16.79
-19.63
-22.63
-25.39
-27.37
-28.01
-26.85
-23.78
-19.04
-13.22
-7.05
-1.24
3.75
7.76
10.84
13.14
14.77
15.77
16.12
15.82
14.93
13.62
12.13
10.69
9.53
8.68
8.06
7.49
6.73
5.64
4.23
2.64
1.04
-0.47
-1.97
-3.64
-5.68
-8.19
-11.15
-14.38
-17.63
-20.65
-23.14
-24.78
-25.22
-24.20
-21.70
-17.93
-13.39
-8.68
-4.39
-0.89
1.69
3.44
4.60
5.41
6.04
6.58
7.03
7.41
7.72
8.04
8.44
9.04
9.91
11.12
12.71
14.61
16.62
18.39
19.54
19.74
18.86
17.02
14.50
11.59
8.49
5.28
1.98
-1.42
-4.99
-8.75
-12.65
-16.55
-20.02
-22.47
-23.31
-22.21
-19.25
-15.01
-10.30
-5.85
-2.17
0.65
2.68
4.08
4.90
5.11
4.69
3.72
2.44
1.18
0.24
-0.18
-0.02
0.64
1.65
2.86
4.10
5.17
5.84
5.92
5.27
3.90
2.01
-0.13
-2.21
-4.01
-5.47
-6.71
-7.98
-9.53
-11.59
-14.20
-17.18
-20.11
-22.37
-23.28
-22.31
-19.30
-14.59
-8.88
-3.06
2.18
6.48
9.86
12.55
14.80
16.71
18.20
19.14
19.43
19.10
18.34
17.34
16.33
15.42
14.69
14.16
13.80
13.63
13.67
13.90
14.25
14.51
14.40
13.60
11.94
9.46
6.38
3.12
0.03
-2.65
-4.89
-6.81
-8.62
-10.55
-12.75
-15.34
-18.30
-21.51
-24.67
-27.29
-28.76
-28.50
-26.13
-21.68
-15.63
-8.83
-2.18
3.59
8.16
11.56
14.04
15.82
16.94
17.33
16.92
15.79
14.26
12.80
11.82
11.52
11.82
12.45
13.00
13.21
12.93
12.27
11.38
10.44
9.48
8.41
7.09
5.39
3.31
1.02
-1.30
-3.44
-5.30
-6.86
-8.16
-9.30
-10.45
-11.88
-13.85
-16.47
-19.67
-23.00
-25.80
-27.34
-27.05
-24.74
-20.58
-15.10
-8.98
-2.94
2.45
6.82
10.04
12.14
13.24
13.51
13.17
12.42
11.53
10.74
10.22
10.03
10.11
10.38
10.77
11.26
11.81
12.35
12.75
12.84
12.48
11.61
10.24
8.47
6.42
4.24
2.07
0.02
-1.92
-3.88
-6.04
-8.61
-11.60
-14.80
-17.75
-19.81
-20.40
-19.13
-15.95
-11.21
-5.55
0.25
5.50
9.72
12.78
14.82
16.08
16.76
16.97
16.72
16.07
15.19
14.30
13.66
13.42
13.55
13.85
14.08
14.01
13.55
12.72
11.64
10.39
8.99
7.38
5.42
3.03
0.26
-2.70
-5.53
-7.96
-9.87
-11.36
-12.71
-14.23
-16.23
-18.83
-21.98
-25.41
-28.64
-31.00
-31.76
-30.36
-26.59
-20.71
-13.44
-5.73
1.58
7.90
13.02
16.96
19.81
21.64
22.41
22.14
20.99
19.35
17.68
16.44
15.85
15.82
16.03
16.09
15.72
14.88
13.68
12.35
10.98
9.55
7.91
5.92
3.54
0.87
-1.86
-4.44
-6.68
-8.55
-10.10
-11.48
-12.91
-14.65
-16.86
-19.60
-22.69
-25.76
-28.30
-29.79
-29.76
-27.91
-24.21
-18.90
-12.55
-5.95
0.10
5.01
8.55
10.85
12.21
12.94
13.20
13.04
12.51
11.76
11.08
10.70
10.78
11.23
11.82
12.30
12.49
12.39
12.08
11.64
11.06
10.24
9.03
7.29
5.06
2.52
-0.02
-2.24
-3.97
-5.34
-6.64
-8.26
-10.46
-13.27
-16.50
-19.71
-22.38
-23.95
-23.94
-21.96
-17.98
-12.32
-5.70
0.96
6.81
11.32
14.40
16.25
17.20
17.48
17.17
16.35
15.16
13.89
12.81
12.15
11.95
12.09
12.33
12.48
12.44
12.23
11.95
11.62
11.23
10.60
9.56
7.95
5.75
3.11
0.32
-2.31
-4.57
-6.39
-7.94
-9.48
-11.33
-13.67
-16.48
-19.46
-22.06
-23.59
-23.46
-21.38
-17.48
-12.27
-6.50
-0.90
3.95
7.79
10.57
12.40
13.42
13.79
13.61
12.96
11.97
10.82
9.76
9.00
8.66
8.67
8.82
8.86
8.66
8.25
7.79
7.43
7.17
6.82
6.07
4.72
2.75
0.35
-2.15
-4.45
-6.38
-7.98
-9.44
-11.02
-12.99
-15.50
-18.56
-22.00
-25.46
-28.39
-30.20
-30.33
-28.41
-24.44
-18.76
-12.06
-5.16
1.16
6.41
10.40
13.22
15.10
16.22
16.69
16.59
16.02
15.16
14.24
13.39
12.65
11.93
11.11
10.13
9.06
8.10
7.47
7.29
7.58
8.17
8.74
8.95
8.53
7.38
5.58
3.41
1.16
-0.98
-2.93
-4.79
-6.69
-8.73
-10.95
-13.29
-15.65
-17.86
-19.63
-20.55
-20.19
-18.26
-14.71
-9.85
-4.24
1.41
6.44
10.43
13.16
14.65
15.04
14.54
13.38
11.82
10.12
8.53
7.24
6.36
5.87
5.67
5.62
5.57
5.44
5.23
4.93
4.51
3.84
2.79
1.24
-0.79
-3.18
-5.70
-8.10
-10.18
-11.86
-13.20
-14.41
-15.78
-17.62
-20.06
-23.00
-25.96
-28.25
-29.13
-28.06
-24.86
-19.82
-13.60
-7.03
-0.92
4.21
8.15
10.94
12.79
13.91
14.43
14.44
14.02
13.33
12.60
12.05
11.76
11.69
11.70
11.65
11.48
11.27
11.11
11.04
10.99
10.79
10.30
9.39
8.03
6.29
4.32
2.27
0.32
-1.42
-2.90
-4.19
-5.48
-7.02
-8.97
-11.36
-13.98
-16.41
-18.12
-18.65
-17.70
-15.20
-11.35
-6.52
-1.17
4.18
9.08
13.14
16.14
18.00
18.80
18.70
17.96
16.82
15.45
13.97
12.49
11.12
9.94
9.06
8.48
8.12
7.86
7.55
7.17
6.74
6.31
5.87
5.27
4.30
2.82
0.84
-1.43
-3.68
-5.61
-7.15
-8.39
-9.57
-10.92
-12.60
-14.65
-16.98
-19.41
-21.60
-23.13
-23.55
-22.49
-19.81
-15.70
-10.66
-5.34
-0.42
3.61
6.44
8.02
8.42
7.81
6.46
4.67
2.81
1.21
0.12
-0.36
-0.24
0.32
1.17
2.16
3.18
4.13
4.90
5.32
5.19
4.38
2.86
0.79
-1.57
-3.86
-5.80
-7.22
-8.14
-8.72
-9.20
-9.88
-11.00
-12.66
-14.80
-17.11
-19.07
-20.06
-19.52
-17.18
-13.14
-7.91
-2.17
3.34
8.06
11.66
14.02
15.21
15.42
14.89
13.88
12.66
11.41
10.29
9.35
8.56
7.92
7.40
6.95
6.50
5.98
5.29
4.39
3.26
1.91
0.36
-1.40
-3.38
-5.55
-7.86
-10.22
-12.57
-14.88
-17.24
-19.73
-22.44
-25.33
-28.15
-30.49
-31.79
-31.52
-29.35
-25.29
-19.76
-13.44
-7.14
-1.53
2.96
6.27
8.50
9.86
10.55
10.70
10.42
9.89
9.34
8.99
8.95
9.16
9.45
9.60
9.52
9.24
8.89
8.58
8.28
7.81
6.95
5.51
3.48
1.03
-1.58
-4.10
-6.34
-8.26
-9.94
-11.52
-13.20
-15.13
-17.40
-19.91
-22.41
-24.44
-25.47
-25.03
-22.80
-18.79
-13.35
-7.07
-0.69
5.10
9.81
13.21
15.30
16.24
16.31
15.76
14.86
13.81
12.79
11.92
11.24
10.76
10.42
10.15
9.91
9.65
9.39
9.13
8.83
8.41
7.72
6.65
5.14
3.24
1.09
-1.14
-3.31
-5.34
-7.29
-9.24
-11.32
-13.64
-16.23
-18.96
-21.52
-23.42
-24.02
-22.76
-19.41
-14.19
-7.75
-0.98
5.23
10.31
14.02
16.49
17.96
18.66
18.76
18.40
17.77
17.11
16.66
16.61
16.97
17.57
18.13
18.40
18.19
17.51
16.51
15.35
14.14
12.90
11.52
9.93
8.14
6.25
4.39
2.64
0.93
-0.93
-3.18
-6.02
-9.41
-13.13
-16.71
-19.57
-21.09
-20.78
-18.44
-14.24
-8.72
-2.66
3.18
8.19
12.13
14.99
16.88
17.90
18.12
17.62
16.58
15.33
14.19
13.43
13.12
13.16
13.36
13.55
13.62
13.61
13.53
13.43
13.26
12.90
12.24
11.17
9.64
7.72
5.53
3.18
0.77
-1.67
-4.23
-7.03
-10.18
-13.77
-17.70
-21.64
-25.07
-27.28
-27.68
-25.90
-22.07
-16.76
-10.85
-5.21
-0.46
3.12
5.58
7.10
7.82
7.85
7.22
6.02
4.45
2.79
1.36
0.41
0.07
0.29
0.94
1.84
2.82
3.71
4.37
4.67
4.46
3.63
2.15
0.10
-2.30
-4.80
-7.14
-9.20
-11.00
-12.70
-14.53
-16.67
-19.15
-21.73
-23.95
-25.20
-24.87
-22.59
-18.38
-12.70
-6.29
0.01
5.53
9.87
12.90
14.68
15.39
15.19
14.27
12.87
11.26
9.71
8.48
7.72
7.51
7.80
8.41
9.03
9.31
8.98
7.95
6.34
4.42
2.50
0.75
-0.81
-2.28
-3.80
-5.48
-7.43
-9.72
-12.42
-15.50
-18.73
-21.62
-23.51
-23.73
-21.85
-17.84
-12.14
-5.52
1.09
6.88
11.31
14.24
15.81
16.32
16.10
15.41
14.39
13.13
11.75
10.37
9.19
8.38
8.03
8.17
8.62
9.13
9.34
8.93
7.74
5.79
3.35
0.75
-1.76
-4.05
-6.15
-8.18
-10.27
-12.50
-14.98
-17.78
-20.88
-24.06
-26.80
-28.38
-28.10
-25.55
-20.86
-14.60
-7.68
-0.97
4.88
9.59
13.11
15.53
17.01
17.69
17.70
17.21
16.38
15.38
14.34
13.36
12.50
11.74
11.02
10.26
9.43
8.56
7.69
6.83
5.89
4.71
3.14
1.09
-1.32
-3.89
-6.40
-8.77
-11.06
-13.51
-16.37
-19.81
-23.79
-28.04
-32.03
-35.03
-36.33
-35.38
-32.03
-26.60
-19.85
-12.77
-6.31
-1.16
2.37
4.35
5.14
5.14
4.75
4.20
3.52
2.58
1.20
-0.69
-2.93
-5.19
-7.04
-8.21
-8.71
-8.88
-9.17
-9.74
-10.33
-10.16
-8.18
-3.46
4.61
16.45
32.29
52.12
75.17
99.34
121.02
135.80
139.82
131.25
111.01
82.24
48.92
14.36
-19.54
-51.90
-81.90
-108.10
-128.58
-141.74
-147.32
-146.69
-142.28
-136.56
-131.10
-126.31
-121.85
-117.21
-112.12
-106.59
-100.62
-94.11
-86.91
-79.00
-70.70
-62.56
-55.14
-48.82
-43.75
-39.89
-37.11
-35.17
-33.64
-31.94
-29.43
-25.64
-20.60
-14.84
-9.20
-4.56
-1.45
0.03
0.15
-0.48
-1.14
-1.23
-0.29
1.78
4.86
8.70
13.12
17.99
23.15
28.21
32.47
35.15
35.72
34.26
31.48
28.50
26.35
25.53
25.85
26.65
27.18
27.04
26.31
25.44
25.00
25.45
27.01
29.66
33.16
36.98
40.23
41.63
39.84
34.01
24.31
12.19
-0.01
-9.79
-15.32
-15.88
-11.77
-3.91
6.50
18.19
29.75
39.77
47.22
51.94
54.78
57.22
60.67
65.79
72.32
79.45
86.28
92.10
96.36
98.54
98.27
95.69
91.81
88.51
88.02
91.82
99.65
109.16
116.46
117.54
109.92
93.65
71.09
45.33
18.25
-10.72
-43.95
-83.19
-127.06
-170.21
-205.44
-227.44
-235.87
-235.47
-232.92
-232.23
-231.73
-224.72
-203.20
-162.42
-103.30
-31.95
43.21
114.36
175.87
224.21
257.31
274.38
276.21
265.61
246.91
224.51
201.16
177.03
149.75
115.58
71.32
16.17
-47.12
-112.52
-172.68
-221.80
-258.13
-284.43
-305.84
-326.20
-345.12
-357.59
-356.64
-337.32
-299.51
-247.92
-189.33
-129.25
-70.09
-12.00
44.86
98.38
144.55
179.39
201.26
212.15
217.05
221.98
231.64
248.08
270.55
296.43
322.50
346.05
365.26
379.28
388.04
391.88
391.46
387.71
381.98
375.91
371.01
367.92
365.69
361.52
351.27
330.80
297.66
252.24
197.98
140.27
84.66
35.14
-6.99
-43.04
-76.00
-109.41
-146.21
-187.82
-233.31
-278.93
-318.49
-344.99
-353.16
-341.92
-315.58
-282.87
-254.06
-237.21
-235.28
-245.11
-258.81
-266.95
-262.17
-241.81
-208.57
-169.14
-131.46
-101.91
-83.33
-74.83
-72.90
-73.42
-73.23
-70.94
-66.73
-61.55
-56.21
-51.00
-45.81
-40.64
-36.17
-33.85
-35.33
-41.51
-51.39
-61.76
-67.88
-65.24
-51.60
-28.21
0.29
27.31
46.64
54.59
51.32
40.72
28.65
20.11
16.71
15.94
13.07
4.46
-9.49
-23.88
-31.68
-27.59
-11.21
12.71
36.78
54.65
63.77
65.63
64.02
62.65
63.68
67.48
72.91
77.70
78.63
72.41
56.99
33.08
4.80
-21.57
-40.12
-47.92
-46.29
-39.96
-34.22
-32.21
-33.45
-34.73
-32.11
-22.72
-5.63
18.40
47.22
77.51
104.73
123.94
131.35
125.99
110.48
89.89
69.58
53.10
41.34
33.42
28.07
24.57
22.57
21.24
18.91
13.65
4.58
-7.31
-19.53
-29.39
-35.49
-38.45
-40.47
-44.06
-50.94
-61.45
-74.47
-87.76
-98.64
-104.75
-104.66
-98.23
-86.37
-70.50
-51.90
-31.56
-10.39
9.95
26.52
35.26
32.28
15.73
-12.61
-47.33
-81.10
-107.66
-124.26
-132.04
-134.36
-133.98
-131.01
-122.92
-106.71
-81.66
-50.89
-20.54
2.75
14.52
14.25
5.36
-6.39
-15.03
-16.58
-10.59
-0.48
7.65
7.14
-6.92
-36.32
-79.66
-133.22
-191.93
-249.86
-300.55
-337.47
-355.30
-351.48
-327.31
-287.72
-239.37
-188.32
-138.23
-90.22
-43.83
1.53
45.79
88.17
127.56
162.81
192.58
215.16
228.57
231.11
222.51
204.79
182.51
162.04
150.06
151.55
168.32
198.34
236.14
274.18
304.71
321.66
321.91
305.93
277.51
242.80
208.93
182.49
168.13
167.40
178.21
194.98
209.89
214.92
204.27
176.25
133.81
83.36
32.59
-11.66
-44.54
-63.46
-67.78
-58.72
-39.49
-15.21
7.94
24.33
30.61
26.72
15.48
1.06
-12.82
-24.04
-32.24
-38.05
-42.26
-45.26
-47.08
-47.71
-47.43
-46.91
-47.14
-49.14
-53.63
-60.51
-68.67
-76.11
-80.53
-80.16
-74.32
-63.62
-49.44
-33.33
-16.63
-0.51
13.58
23.61
27.15
22.31
8.90
-10.71
-31.89
-49.13
-58.08
-57.09
-47.58
-33.03
-17.24
-2.89
9.01
18.57
26.02
30.98
32.51
29.75
22.76
12.82
1.97
-7.85
-15.56
-21.02
-24.71
-27.11
-28.28
-27.91
-25.66
-21.55
-16.26
-10.92
-6.76
-4.65
-4.87
-7.07
-10.52
-14.47
-18.32
-21.74
-24.55
-26.61
-27.76
-27.81
-26.60
-24.13
-20.50
-15.97
-10.83
-5.39
0.01
5.07
9.51
13.21
16.20
18.62
20.63
22.36
23.82
24.92
25.54
25.50
24.52
22.24
18.27
12.33
4.40
-5.13
-15.51
-25.70
-34.63
-41.37
-45.33
-46.33
-44.67
-41.11
-36.74
-32.71
-30.06
-29.37
-30.65
-33.40
-36.82
-40.03
-42.35
-43.38
-42.96
-41.21
-38.43
-35.08
-31.75
-29.08
-27.53
-27.22
-27.80
-28.50
-28.33
-26.42
-22.27
-15.98
-8.17
0.27
8.44
15.66
21.50
25.70
27.98
28.07
25.73
21.06
14.60
7.41
0.87
-3.70
-5.44
-4.20
-0.59
4.14
8.40
10.61
9.55
4.66
-3.75
-14.43
-25.42
-34.43
-39.45
-39.31
-34.02
-24.70
-13.31
-1.97
7.46
13.86
16.80
16.58
13.92
9.85
5.47
1.80
-0.50
-1.25
-0.76
0.29
1.22
1.58
1.35
0.79
0.28
0.07
0.22
0.64
1.19
1.77
2.22
2.41
2.13
1.17
-0.55
-3.07
-6.22
-9.83
-13.61
-17.23
-20.23
-22.13
-22.47
-20.98
-17.66
-12.80
-6.87
-0.46
5.85
11.52
16.10
19.27
20.87
20.89
19.56
17.25
14.44
11.60
9.07
7.04
5.51
4.40
3.58
2.95
2.41
1.83
1.09
-0.01
-1.52
-3.42
-5.55
-7.70
-9.69
-11.41
-12.86
-14.09
-15.16
-16.20
-17.38
-18.92
-20.92
-23.24
-25.44
-26.83
-26.71
-24.70
-20.83
-15.63
-9.89
-4.46
-0.01
3.08
4.73
5.13
4.54
3.26
1.55
-0.40
-2.39
-4.22
-5.69
-6.59
-6.87
-6.59
-5.94
-5.13
-4.31
-3.54
-2.87
-2.34
-2.10
-2.30
-3.02
-4.24
-5.85
-7.65
-9.46
-11.19
-12.81
-14.39
-15.94
-17.42
-18.61
-19.18
-18.74
-16.99
-13.90
-9.71
-4.93
-0.17
4.04
7.33
9.61
10.96
11.59
11.77
11.72
11.58
11.38
11.08
10.60
9.91
9.07
8.19
7.42
6.92
6.79
7.03
7.52
8.00
8.09
7.40
5.59
2.48
-1.79
-6.89
-12.28
-17.37
-21.61
-24.62
-26.17
-26.28
-25.10
-22.84
-19.71
-15.88
-11.49
-6.77
-2.03
2.31
5.87
8.46
10.10
11.00
11.45
11.68
11.79
11.76
11.57
11.18
10.65
10.08
9.59
9.31
9.32
9.62
10.08
10.45
10.49
9.98
8.87
7.26
5.39
3.55
1.98
0.88
0.40
0.60
1.39
2.55
3.73
4.61
5.02
5.05
5.00
5.20
5.85
6.88
8.03
9.04
9.74
10.16
10.49
10.96
11.70
12.71
13.84
14.89
15.70
16.24
16.54
16.71
16.84
16.91
16.90
16.76
16.50
16.25
16.12
16.13
16.14
15.91
15.16
13.74
11.67
9.14
6.39
3.63
0.99
-1.52
-3.98
-6.49
-9.17
-12.01
-14.87
-17.44
-19.34
-20.13
-19.52
-17.48
-14.26
-10.33
-6.27
-2.61
0.34
2.51
4.02
5.11
5.90
6.44
6.69
6.65
6.38
6.06
5.82
5.75
5.77
5.76
5.60
5.31
4.97
4.75
4.72
4.86
4.98
4.85
4.28
3.17
1.63
-0.16
-1.93
-3.48
-4.78
-5.89
-7.02
-8.38
-10.12
-12.25
-14.65
-17.03
-19.00
-20.12
-20.00
-18.46
-15.54
-11.63
-7.35
-3.40
-0.31
1.68
2.64
2.88
2.72
2.45
2.21
2.12
2.26
2.72
3.52
4.55
5.57
6.28
6.46
6.07
5.25
4.21
3.14
2.16
1.30
0.55
-0.13
-0.78
-1.44
-2.13
-2.86
-3.61
-4.36
-5.20
-6.25
-7.66
-9.48
-11.56
-13.53
-14.94
-15.36
-14.57
-12.55
-9.46
-5.60
-1.38
2.74
6.32
9.07
10.90
11.91
12.44
12.80
13.29
13.98
14.79
15.52
15.88
15.61
14.51
12.60
10.13
7.56
5.43
4.16
3.87
4.32
5.03
5.53
5.42
4.60
3.15
1.30
-0.60
-2.16
-3.06
-3.10
-2.42
-1.57
-1.35
-2.62
-5.76
-10.48
-15.76
-20.20
-22.60
-22.39
-19.86
-15.96
-11.88
-8.55
-6.42
-5.45
-5.23
-5.33
-5.34
-4.99
-4.02
-2.25
0.48
4.10
8.30
12.48
15.93
18.05
18.58
17.71
15.94
13.97
12.37
11.46
11.23
11.36
11.42
10.97
9.69
7.50
4.50
0.99
-2.66
-6.13
-9.26
-12.07
-14.78
-17.59
-20.53
-23.30
-25.32
-25.91
-24.56
-21.23
-16.32
-10.63
-5.05
-0.27
3.28
5.52
6.53
6.58
5.98
5.10
4.31
3.84
3.73
3.76
3.63
3.06
2.02
0.68
-0.57
-1.37
-1.48
-0.90
0.21
1.56
2.88
3.96
4.59
4.63
3.98
2.62
0.68
-1.65
-4.12
-6.52
-8.74
-10.81
-12.76
-14.56
-16.05
-16.91
-16.83
-15.59
-13.16
-9.76
-5.80
-1.76
1.85
4.65
6.48
7.34
7.38
6.86
6.04
5.12
4.28
3.60
3.19
3.09
3.29
3.73
4.26
4.72
4.98
4.95
4.63
4.03
3.23
2.27
1.17
-0.07
-1.44
-2.91
-4.42
-5.90
-7.28
-8.47
-9.46
-10.23
-10.82
-11.28
-11.61
-11.77
-11.60
-10.95
-9.58
-7.34
-4.21
-0.35
3.88
8.04
11.66
14.42
16.13
16.80
16.62
15.80
14.61
13.24
11.89
10.69
9.78
9.20
8.89
8.70
8.38
7.74
6.73
5.45
4.10
2.87
1.84
0.95
0.17
-0.56
-1.20
-1.75
-2.25
-2.77
-3.41
-4.21
-5.12
-6.09
-7.14
-8.36
-9.86
-11.64
-13.52
-15.10
-15.91
-15.60
-14.03
-11.34
-7.87
-4.04
-0.24
3.21
6.09
8.24
9.66
10.39
10.59
10.46
10.16
9.80
9.43
9.06
8.71
8.41
8.20
8.03
7.85
7.54
7.04
6.37
5.60
4.77
3.92
3.02
2.03
0.99
-0.04
-0.96
-1.69
-2.29
-2.88
-3.66
-4.80
-6.40
-8.48
-10.94
-13.60
-16.17
-18.26
-19.44
-19.32
-17.69
-14.61
-10.44
-5.74
-1.17
2.72
5.58
7.27
7.87
7.60
6.79
5.80
5.02
4.77
5.26
6.55
8.54
10.97
13.50
15.72
17.30
17.97
17.60
16.25
14.15
11.58
8.91
6.42
4.36
2.85
1.88
1.30
0.69
-0.45
-2.71
-6.52
-12.03
-18.95
-26.54
-33.69
-39.12
-41.69
-40.64
-35.88
-28.02
-18.22
-7.95
1.42
8.80
13.57
15.45
14.50
11.09
5.87
-0.21
-6.11
-10.84
-13.73
-14.54
-13.53
-11.27
-8.44
-5.60
-3.11
-1.10
0.46
1.62
2.44
2.97
3.29
3.58
4.00
4.62
5.27
5.53
4.84
2.73
-0.91
-5.75
-11.02
-15.80
-19.23
-20.77
-20.28
-18.03
-14.52
-10.40
-6.25
-2.53
0.51
2.85
4.61
5.97
7.15
8.32
9.58
10.93
12.27
13.42
14.11
14.12
13.34
11.80
9.75
7.53
5.50
3.97
3.09
2.84
3.02
3.28
3.21
2.51
1.04
-1.09
-3.56
-6.03
-8.26
-10.21
-12.03
-13.94
-16.07
-18.44
-20.83
-22.89
-24.19
-24.37
-23.17
-20.61
-16.90
-12.51
-7.92
-3.60
0.17
3.28
5.71
7.50
8.66
9.22
9.25
8.88
8.27
7.60
6.99
6.52
6.23
6.17
6.36
6.78
7.30
7.73
7.87
7.61
7.00
6.17
5.36
4.72
4.27
3.87
3.28
2.23
0.58
-1.72
-4.52
-7.55
-10.46
-12.84
-14.32
-14.60
-13.56
-11.29
-8.05
-4.28
-0.41
3.20
6.31
8.84
10.80
12.24
13.18
13.68
13.75
13.45
12.89
12.18
11.44
10.73
10.08
9.44
8.77
8.02
7.14
6.12
4.95
3.60
2.02
0.23
-1.72
-3.60
-5.17
-6.20
-6.63
-6.62
-6.48
-6.61
-7.30
-8.68
-10.61
-12.73
-14.60
-15.76
-15.87
-14.78
-12.58
-9.56
-6.10
-2.53
0.91
4.11
7.01
9.50
11.41
12.54
12.78
12.19
11.01
9.61
8.28
7.26
6.67
6.56
6.90
7.61
8.50
9.26
9.59
9.25
8.22
6.62
4.69
2.61
0.47
-1.78
-4.21
-6.88
-9.78
-12.83
-15.88
-18.69
-20.90
-22.04
-21.69
-19.63
-15.97
-11.17
-5.89
-0.83
3.48
6.74
8.87
9.93
10.06
9.46
8.39
7.11
5.85
4.76
3.90
3.23
2.71
2.32
2.03
1.84
1.70
1.58
1.38
0.97
0.26
-0.86
-2.40
-4.31
-6.49
-8.85
-11.34
-13.96
-16.75
-19.73
-22.83
-25.79
-28.21
-29.58
-29.39
-27.30
-23.29
-17.68
-11.10
-4.31
2.00
7.33
11.49
14.44
16.27
17.12
17.13
16.56
15.72
15.00
14.72
15.02
15.77
16.69
17.44
17.75
17.58
17.01
16.20
15.25
14.19
13.00
11.58
9.85
7.76
5.28
2.37
-0.96
-4.73
-8.90
-13.35
-17.86
-21.99
-25.18
-26.82
-26.39
-23.73
-19.05
-12.98
-6.36
-0.06
5.24
9.18
11.71
12.98
13.23
12.68
11.51
9.83
7.80
5.62
3.51
1.69
0.31
-0.57
-1.01
-1.14
-1.16
-1.27
-1.64
-2.32
-3.25
-4.19
-4.92
-5.22
-5.04
-4.54
-3.97
-3.68
-3.93
-4.90
-6.67
-9.16
-12.11
-15.11
-17.57
-18.91
-18.63
-16.54
-12.83
-7.99
-2.71
2.32
6.61
9.91
12.21
13.66
14.43
14.73
14.70
14.54
14.42
14.56
15.13
16.16
17.56
19.06
20.39
21.28
21.64
21.44
20.80
19.79
18.54
17.17
15.81
14.64
13.77
13.25
12.95
12.66
12.11
11.02
9.25
6.86
4.16
1.75
0.34
0.58
2.82
6.96
12.48
18.54
24.24
28.83
31.78
32.88
32.21
30.08
26.96
23.42
19.90
16.73
14.05
11.88
10.20
8.98
8.16
7.61
7.12
6.48
5.55
4.24
2.56
0.49
-2.02
-5.02
-8.51
-12.34
-16.30
-20.10
-23.55
-26.56
-29.16
-31.45
-33.48
-35.21
-36.46
-36.91
-36.23
-34.14
-30.59
-25.83
-20.36
-14.79
-9.64
-5.24
-1.70
1.02
3.01
4.37
5.20
5.61
5.79
5.93
6.23
6.78
7.62
8.70
9.92
11.16
12.31
13.26
13.93
14.25
14.21
13.81
13.06
11.97
10.49
8.58
6.28
3.72
1.19
-1.01
-2.65
-3.64
-4.08
-4.14
-3.87
-3.19
-1.80
0.57
4.05
8.48
13.47
18.56
23.44
28.15
32.92
38.07
43.68
49.51
54.94
59.25
61.78
62.16
60.34
56.58
51.43
45.56
39.76
34.67
30.68
27.65
24.95
21.60
16.61
9.38
0.01
-10.61
-21.11
-29.99
-36.18
-39.38
-40.16
-39.72
-39.35
-39.93
-41.46
-43.14
-43.68
-41.94
-37.44
-30.61
-22.64
-14.99
-8.86
-4.88
-3.00
-2.77
-3.65
-5.28
-7.48
-10.18
-13.24
-16.30
-18.98
-20.92
-22.00
-22.43
-22.55
-22.72
-23.11
-23.61
-23.92
-23.74
-22.93
-21.58
-20.01
-18.68
-17.93
-17.98
-18.82
-20.29
-22.15
-24.09
-25.74
-26.74
-26.63
-25.02
-21.62
-16.36
-9.52
-1.73
6.13
13.03
17.98
20.36
20.01
17.29
13.02
8.23
3.90
0.73
-0.93
-1.14
-0.20
1.40
3.15
4.64
5.62
6.04
6.01
5.73
5.40
5.14
5.01
4.91
4.70
4.13
2.98
1.07
-1.62
-4.92
-8.45
-11.75
-14.33
-15.79
-15.95
-14.75
-12.31
-8.90
-4.95
-1.00
2.27
4.23
4.41
2.63
-0.90
-5.71
-11.19
-16.77
-22.05
-26.80
-30.94
-34.39
-37.10
-38.97
-39.91
-39.83
-38.63
-36.26
-32.75
-28.31
-23.37
-18.58
-14.64
-12.07
-11.11
-11.56
-12.88
-14.31
-15.04
-14.33
-11.71
-7.02
-0.53
7.10
14.97
22.19
28.12
32.56
35.59
37.53
38.64
39.02
38.65
37.51
35.73
33.61
31.53
29.85
28.69
27.94
27.28
26.26
24.53
21.99
18.78
15.31
12.07
9.43
7.59
6.50
5.92
5.56
5.02
3.98
2.18
-0.43
-3.64
-6.97
-9.81
-11.62
-12.08
-11.26
-9.55
-7.57
-5.95
-5.21
-5.52
-6.74
-8.44
-10.04
-11.03
-11.13
-10.25
-8.49
-5.98
-2.79
1.05
5.41
9.99
14.35
18.07
20.91
22.87
24.06
24.56
24.32
23.19
21.02
17.81
13.75
9.03
3.78
-1.97
-8.12
-14.38
-20.16
-24.67
-27.21
-27.41
-25.37
-21.51
-16.41
-10.58
-4.36
2.04
8.48
14.79
20.72
25.92
29.98
32.51
33.26
32.22
29.64
25.98
21.78
17.52
13.49
9.76
6.24
2.75
-0.82
-4.56
-8.44
-12.36
-16.26
-20.12
-23.90
-27.58
-31.04
-34.08
-36.48
-38.14
-39.11
-39.48
-39.24
-38.09
-35.52
-30.99
-24.23
-15.54
-5.75
4.08
12.90
20.12
25.61
29.63
32.55
34.69
36.15
36.88
36.77
35.68
33.56
30.45
26.48
22.00
17.53
13.73
11.24
10.48
11.41
13.55
16.07
18.11
19.03
18.57
16.88
14.41
11.68
9.15
7.17
5.83
5.01
4.32
3.20
1.11
-2.16
-6.40
-10.89
-14.64
-16.75
-16.67
-14.39
-10.37
-5.31
0.01
4.90
8.85
11.55
12.84
12.78
11.60
9.64
7.32
4.98
2.88
1.15
-0.19
-1.15
-1.78
-2.19
-2.45
-2.63
-2.81
-3.03
-3.30
-3.60
-3.88
-4.01
-3.89
-3.38
-2.51
-1.43
-0.52
-0.19
-0.82
-2.61
-5.52
-9.38
-13.90
-18.81
-23.82
-28.56
-32.62
-35.58
-37.08
-36.97
-35.31
-32.32
-28.32
-23.64
-18.70
-14.02
-10.24
-8.01
-7.84
-9.91
-14.07
-19.91
-26.91
-34.60
-42.51
-50.12
-56.85
-62.02
-64.86
-64.70
-61.02
-53.57
-42.46
-28.12
-11.17
7.62
27.46
47.35
66.05
81.97
93.49
99.43
99.65
95.34
88.72
82.31
77.94
76.15
76.29
77.10
77.59
77.52
77.43
78.07
79.92
82.85
86.42
90.41
95.22
101.88
111.29
123.45
137.03
149.70
159.26
164.48
165.33
162.17
154.54
140.52
117.60
84.54
43.27
-0.71
-39.99
-68.25
-82.99
-86.31
-83.32
-79.24
-76.85
-75.81
-73.90
-69.04
-60.85
-50.77
-40.88
-32.52
-25.45
-18.29
-9.65
0.84
12.17
22.38
29.63
33.10
33.44
32.34
31.68
32.57
34.88
37.34
38.29
36.68
32.60
27.30
22.47
19.46
18.59
19.24
20.43
21.55
22.76
24.76
28.19
32.97
38.15
42.25
43.99
42.89
39.46
34.88
30.36
26.72
24.15
22.49
21.48
21.01
21.07
21.64
22.49
23.25
23.56
23.17
22.06
20.21
17.58
13.97
9.18
3.23
-3.64
-11.05
-18.64
-26.40
-34.54
-43.48
-53.55
-64.87
-77.32
-90.62
-104.41
-118.25
-131.60
-143.79
-154.14
-162.06
-167.27
-169.84
-170.08
-168.48
-165.37
-160.98
-155.35
-148.51
-140.55
-131.65
-122.01
-111.78
-101.03
-89.80
-78.23
-66.68
-55.68
-45.73
-37.00
-29.17
-21.52
-13.27
-3.99
6.22
16.71
26.63
35.26
42.10
46.98
49.81
50.59
49.37
46.33
41.74
35.90
29.05
21.18
12.23
2.22
-8.50
-19.18
-28.84
-36.59
-41.97
-45.10
-46.65
-47.61
-48.92
-51.20
-54.49
-58.31
-61.84
-64.26
-65.14
-64.59
-63.18
-61.59
-60.28
-59.21
-57.90
-55.67
-51.91
-46.15
-38.06
-27.22
-13.23
4.01
23.90
44.91
64.79
81.16
92.34
97.85
98.40
95.26
89.50
81.43
70.74
57.11
40.85
23.16
5.68
-10.47
-25.38
-40.31
-56.69
-74.77
-92.84
-107.66
-116.05
-116.68
-110.81
-101.43
-91.26
-81.04
-69.29
-53.84
-34.16
-12.66
5.73
15.97
15.55
6.06
-7.58
-19.47
-25.53
-25.04
-20.42
-15.36
-12.65
-12.73
-13.65
-12.38
-6.46
4.62
19.10
33.82
45.55
52.32
54.01
51.98
48.17
44.15
40.69
37.82
35.30
32.96
30.83
29.06
27.84
27.19
26.92
26.59
25.62
23.40
19.56
14.21
8.02
2.10
-2.43
-4.87
-5.24
-4.23
-2.90
-2.20
-2.64
-4.15
-6.28
-8.47
-10.38
-11.96
-13.45
-15.12
-16.96
-18.69
-19.79
-19.75
-18.33
-15.66
-12.10
-8.12
-4.10
-0.27
3.22
6.27
8.76
10.57
11.71
12.24
12.35
12.15
11.79
11.35
10.91
10.64
10.75
11.47
12.89
14.94
17.38
19.91
22.25
24.33
26.16
27.71
28.74
28.83
27.58
24.83
20.81
16.01
11.02
6.25
1.83
-2.30
-6.17
-9.75
-12.99
-15.76
-17.81
-18.69
-17.86
-15.03
-10.70
-6.22
-3.41
-3.69
-7.20
-12.55
-17.47
-19.90
-19.01
-15.42
-10.71
-6.31
-2.94
-0.49
1.52
3.38
5.03
6.27
7.06
7.59
8.22
9.11
10.11
10.75
10.50
9.07
6.44
2.89
-1.17
-5.35
-9.38
-13.08
-16.29
-18.88
-20.65
-21.37
-20.82
-18.88
-15.64
-11.42
-6.64
-1.75
2.86
6.96
10.34
12.89
14.56
15.33
15.31
14.66
13.61
12.36
11.10
9.98
9.09
8.46
8.05
7.73
7.36
6.86
6.22
5.55
4.91
4.26
3.44
2.27
0.68
-1.24
-3.27
-5.17
-6.85
-8.45
-10.21
-12.36
-14.87
-17.41
-19.40
-20.22
-19.46
-17.01
-13.16
-8.41
-3.32
1.65
6.18
10.12
13.36
15.84
17.49
18.28
18.26
17.54
16.29
14.69
12.97
11.32
9.92
8.91
8.34
8.15
8.17
8.21
8.09
7.69
6.98
5.98
4.75
3.36
1.90
0.41
-1.09
-2.68
-4.48
-6.57
-8.89
-11.18
-13.01
-13.91
-13.50
-11.72
-8.74
-4.99
-0.93
3.06
6.70
9.80
12.18
13.68
14.20
13.75
12.58
11.03
9.48
8.20
7.33
6.83
6.61
6.54
6.53
6.55
6.52
6.43
6.27
6.07
5.81
5.41
4.75
3.72
2.34
0.73
-0.90
-2.42
-3.79
-5.15
-6.69
-8.52
-10.55
-12.43
-13.69
-13.94
-12.96
-10.83
-7.81
-4.24
-0.47
3.29
6.85
10.02
12.59
14.36
15.21
15.21
14.52
13.42
12.13
10.81
9.52
8.35
7.44
6.92
6.90
7.38
8.24
9.26
10.23
10.96
11.27
11.07
10.26
8.84
6.89
4.61
2.19
-0.23
-2.68
-5.29
-8.28
-11.75
-15.56
-19.32
-22.45
-24.31
-24.38
-22.48
-18.80
-13.92
-8.65
-3.79
0.13
2.88
4.57
5.45
5.76
5.63
5.06
4.06
2.69
1.13
-0.41
-1.74
-2.78
-3.55
-4.13
-4.56
-4.81
-4.85
-4.61
-4.14
-3.54
-3.00
-2.67
-2.67
-3.01
-3.64
-4.48
-5.48
-6.59
-7.79
-8.99
-10.10
-10.98
-11.51
-11.59
-11.11
-9.90
-7.83
-4.83
-1.04
3.15
7.13
10.30
12.20
12.68
11.95
10.44
8.63
6.90
5.45
4.37
3.63
3.21
3.12
3.34
3.82
4.45
5.04
5.44
5.55
5.43
5.22
5.07
5.06
5.09
4.98
4.57
3.78
2.71
1.49
0.23
-1.03
-2.32
-3.71
-5.21
-6.79
-8.45
-10.20
-12.03
-13.80
-15.21
-15.91
-15.68
-14.53
-12.72
-10.65
-8.58
-6.59
-4.55
-2.36
-0.04
2.20
4.06
5.35
6.09
6.55
7.02
7.75
8.73
9.82
10.74
11.28
11.34
10.96
10.28
9.42
8.43
7.25
5.80
4.01
1.91
-0.42
-2.77
-4.90
-6.59
-7.58
-7.71
-6.93
-5.45
-3.69
-2.14
-1.22
-1.04
-1.44
-2.04
-2.53
-2.77
-2.85
-2.94
-3.11
-3.29
-3.28
-2.94
-2.27
-1.39
-0.47
0.37
1.10
1.73
2.21
2.48
2.43
1.99
1.14
-0.02
-1.37
-2.72
-3.90
-4.77
-5.28
-5.51
-5.64
-5.87
-6.28
-6.77
-7.11
-6.96
-6.03
-4.11
-1.18
2.59
6.81
10.94
14.46
17.01
18.47
19.03
19.00
18.61
18.01
17.15
16.02
14.63
13.13
11.67
10.36
9.20
8.12
7.07
6.10
5.30
4.71
4.32
3.99
3.55
2.90
2.00
0.90
-0.33
-1.64
-3.06
-4.63
-6.43
-8.50
-10.74
-12.96
-14.81
-15.93
-16.04
-15.02
-12.99
-10.20
-6.99
-3.64
-0.36
2.72
5.47
7.75
9.40
10.23
10.24
9.52
8.35
7.09
6.04
5.33
4.93
4.63
4.27
3.78
3.26
2.90
2.83
3.08
3.45
3.71
3.59
2.97
1.89
0.49
-1.05
-2.55
-3.90
-5.08
-6.17
-7.35
-8.77
-10.49
-12.39
-14.15
-15.39
-15.76
-15.11
-13.49
-11.12
-8.32
-5.35
-2.44
0.24
2.51
4.22
5.31
5.86
6.02
6.02
6.00
6.00
5.99
5.92
5.79
5.70
5.66
5.70
5.74
5.75
5.71
5.64
5.60
5.56
5.46
5.18
4.69
4.03
3.32
2.70
2.27
2.01
1.80
1.48
0.91
0.02
-1.21
-2.69
-4.28
-5.80
-7.05
-7.84
-8.03
-7.52
-6.25
-4.25
-1.61
1.47
4.76
7.98
10.82
13.06
14.53
15.20
15.14
14.51
13.51
12.34
11.15
10.07
9.16
8.50
8.11
7.94
7.96
8.07
8.17
8.19
8.07
7.78
7.33
6.71
5.94
5.04
4.08
3.10
2.10
1.03
-0.20
-1.68
-3.51
-5.69
-8.14
-10.67
-12.93
-14.53
-15.09
-14.41
-12.48
-9.55
-6.02
-2.32
1.14
4.08
6.31
7.77
8.48
8.56
8.17
7.52
6.80
6.10
5.45
4.82
4.22
3.66
3.21
2.95
2.90
3.05
3.31
3.56
3.61
3.33
2.62
1.52
0.18
-1.22
-2.52
-3.68
-4.72
-5.80
-7.03
-8.49
-10.18
-11.98
-13.66
-14.88
-15.29
-14.58
-12.61
-9.52
-5.69
-1.63
2.21
5.55
8.28
10.43
12.02
13.00
13.35
13.13
12.50
11.71
11.02
10.54
10.29
10.14
9.93
9.55
8.96
8.22
7.42
6.66
5.94
5.20
4.30
3.13
1.64
-0.09
-1.89
-3.58
-4.96
-5.95
-6.57
-6.96
-7.33
-7.89
-8.75
-9.84
-10.86
-11.32
-10.74
-8.79
-5.40
-0.80
4.50
9.88
14.67
18.32
20.50
21.15
20.56
19.18
17.47
15.70
13.90
11.97
9.85
7.68
5.74
4.31
3.50
3.17
2.99
2.60
1.78
0.52
-1.03
-2.71
-4.37
-5.93
-7.39
-8.74
-9.98
-11.10
-12.06
-12.80
-13.26
-13.42
-13.34
-13.16
-13.02
-13.03
-13.17
-13.30
-13.23
-12.80
-11.88
-10.44
-8.52
-6.19
-3.62
-0.95
1.58
3.84
5.82
7.65
9.53
11.66
14.11
16.87
19.86
22.98
26.14
29.21
31.92
33.86
34.55
33.55
30.55
25.46
18.48
10.10
1.07
-7.68
-15.30
-21.11
-24.82
-26.52
-26.62
-25.64
-24.13
-22.50
-21.04
-19.81
-18.72
-17.50
-15.83
-13.44
-10.31
-6.64
-2.83
0.72
3.72
6.00
7.52
8.29
8.38
7.92
7.20
6.65
6.68
7.59
9.35
11.67
14.09
16.20
17.72
18.66
19.15
19.35
19.27
18.85
17.93
16.41
14.30
11.71
8.80
5.70
2.42
-1.10
-4.94
-9.04
-13.15
-16.78
-19.38
-20.49
-19.92
-17.78
-14.44
-10.34
-5.91
-1.52
2.49
5.73
7.92
8.86
8.58
7.35
5.59
3.72
2.07
0.79
-0.12
-0.76
-1.27
-1.77
-2.33
-2.96
-3.61
-4.20
-4.67
-4.96
-5.07
-5.00
-4.75
-4.38
-4.04
-3.92
-4.23
-5.06
-6.36
-7.92
-9.49
-10.86
-11.96
-12.81
-13.55
-14.27
-15.00
-15.66
-16.06
-15.88
-14.73
-12.26
-8.28
-2.98
3.05
8.92
13.69
16.67
17.67
16.95
15.12
12.80
10.47
8.38
6.66
5.33
4.40
3.81
3.40
2.88
2.05
0.88
-0.36
-1.15
-0.93
0.66
3.62
7.51
11.66
15.29
17.73
18.52
17.43
14.54
10.25
5.33
0.72
-2.67
-4.34
-4.35
-3.20
-1.61
-0.15
1.02
2.01
3.06
4.24
5.42
6.34
6.77
6.68
6.22
5.64
5.14
4.81
4.64
4.57
4.51
4.43
4.32
4.19
4.03
3.77
3.29
2.43
1.12
-0.61
-2.64
-4.77
-6.88
-9.04
-11.43
-14.27
-17.65
-21.35
-24.90
-27.67
-29.08
-28.81
-26.85
-23.51
-19.28
-14.73
-10.38
-6.63
-3.69
-1.63
-0.42
0.07
-0.02
-0.55
-1.34
-2.24
-3.10
-3.78
-4.21
-4.39
-4.38
-4.22
-3.97
-3.65
-3.27
-2.85
-2.44
-2.12
-1.95
-1.99
-2.20
-2.54
-2.87
-3.11
-3.26
-3.43
-3.75
-4.28
-4.90
-5.27
-5.05
-4.01
-2.17
0.21
2.81
5.41
8.00
10.69
13.54
16.39
18.87
20.47
20.79
19.77
17.70
15.15
12.73
10.93
9.96
9.74
10.02
10.50
10.97
11.30
11.40
11.24
10.75
9.89
8.67
7.13
5.41
3.62
1.90
0.31
-1.15
-2.60
-4.24
-6.20
-8.50
-10.93
-13.05
-14.28
-14.12
-12.37
-9.20
-5.12
-0.83
2.98
5.85
7.52
8.03
7.52
6.22
4.35
2.12
-0.30
-2.76
-5.11
-7.22
-8.95
-10.19
-10.92
-11.19
-11.19
-11.16
-11.34
-11.83
-12.62
-13.55
-14.43
-15.13
-15.58
-15.79
-15.83
-15.70
-15.38
-14.88
-14.20
-13.48
-12.85
-12.40
-12.11
-11.74
-10.97
-9.49
-7.19
-4.25
-1.03
2.03
4.64
6.70
8.34
9.64
10.66
11.31
11.46
11.02
10.07
8.80
7.45
6.24
5.27
4.55
4.00
3.47
2.79
1.83
0.57
-0.85
-2.14
-2.95
-2.97
-1.98
0.07
3.12
6.91
11.07
15.11
18.53
20.93
22.14
22.30
21.73
20.94
20.32
20.11
20.36
20.95
21.66
22.19
22.28
21.65
20.13
17.73
14.62
11.17
7.81
4.87
2.55
0.85
-0.37
-1.25
-1.89
-2.39
-2.89
-3.63
-4.93
-7.09
-10.30
-14.49
-19.30
-24.07
-27.96
-30.18
-30.20
-27.96
-23.86
-18.70
-13.37
-8.57
-4.69
-1.78
0.32
1.86
3.10
4.30
5.64
7.22
8.90
10.32
11.06
10.74
9.32
7.08
4.58
2.39
0.91
0.23
0.14
0.24
0.11
-0.57
-1.98
-3.99
-6.27
-8.35
-9.80
-10.40
-10.23
-9.70
-9.32
-9.52
-10.61
-12.56
-15.13
-17.80
-19.88
-20.68
-19.77
-17.19
-13.68
-10.49
-9.00
-10.13
-13.88
-19.23
-24.50
-28.02
-28.65
-26.05
-20.59
-12.95
-3.83
6.09
15.98
24.65
30.58
32.37
29.39
22.38
13.44
5.31
0.25
-0.90
0.89
3.38
4.15
1.66
-4.24
-12.43
-21.14
-28.70
-33.82
-35.70
-33.87
-28.17
-18.98
-7.45
4.54
14.75
21.25
23.14
20.81
15.69
9.65
4.33
0.62
-1.34
-1.92
-1.69
-1.16
-0.79
-1.01
-2.18
-4.44
-7.63
-11.18
-14.34
-16.42
-17.01
-16.12
-14.04
-11.21
-8.08
-5.07
-2.53
-0.79
-0.05
-0.34
-1.47
-3.05
-4.64
-5.83
-6.35
-6.02
-4.80
-2.74
-0.05
2.89
5.59
7.62
8.82
9.42
10.01
11.20
13.33
16.24
19.27
21.62
22.61
21.96
19.81
16.60
12.80
8.82
5.08
2.07
0.38
0.43
2.20
4.99
7.53
8.53
7.19
3.61
-1.29
-6.27
-10.34
-13.14
-14.88
-16.06
-17.07
-18.00
-18.72
-19.16
-19.43
-19.86
-20.79
-22.35
-24.29
-26.01
-26.76
-25.83
-22.87
-17.93
-11.44
-4.03
3.71
11.30
18.47
24.95
30.40
34.33
36.24
35.81
33.18
29.03
24.41
20.43
17.77
16.47
15.92
15.19
13.54
10.70
6.98
3.06
-0.45
-3.24
-5.38
-7.11
-8.61
-9.88
-10.74
-11.02
-10.69
-9.87
-8.75
-7.53
-6.25
-4.97
-3.81
-3.00
-2.74
-3.03
-3.52
-3.54
-2.39
0.30
4.32
8.85
12.87
15.52
16.47
16.00
14.71
13.22
11.80
10.37
8.59
6.18
3.12
-0.32
-3.65
-6.42
-8.36
-9.52
-10.23
-10.95
-12.11
-13.92
-16.25
-18.61
-20.32
-20.71
-19.44
-16.62
-12.91
-9.27
-6.76
-6.21
-7.96
-11.65
-16.22
-19.99
-20.99
-17.55
-8.93
4.27
20.11
35.82
48.71
56.99
60.20
59.14
55.40
50.74
46.60
43.82
42.61
42.70
43.50
44.37
44.77
44.38
43.05
40.75
37.55
33.61
29.23
24.91
21.20
18.53
16.96
16.14
15.44
14.34
12.66
10.75
9.44
9.77
12.63
18.43
26.78
36.29
44.79
49.84
49.47
43.00
31.40
17.14
3.37
-7.16
-12.98
-14.14
-11.85
-7.75
-3.46
-0.42
0.16
-2.63
-8.99
-18.06
-27.88
-35.98
-40.45
-40.71
-37.71
-33.25
-28.92
-25.37
-22.31
-19.09
-15.49
-11.99
-9.37
-8.04
-7.72
-7.50
-6.55
-4.67
-2.47
-1.11
-1.69
-4.77
-10.15
-17.12
-24.78
-32.33
-39.18
-44.90
-49.17
-51.76
-52.57
-51.69
-49.38
-45.99
-41.92
-37.51
-33.10
-29.02
-25.60
-23.05
-21.42
-20.51
-19.92
-19.22
-18.02
-16.21
-13.89
-11.36
-8.95
-6.89
-5.27
-4.01
-3.00
-2.10
-1.28
-0.50
0.20
0.86
1.51
2.19
2.94
3.72
4.44
4.98
5.24
5.11
4.59
3.72
2.69
1.81
1.38
1.71
2.93
4.92
7.45
10.14
12.68
14.79
16.32
17.17
17.30
16.71
15.49
13.82
11.95
10.14
8.60
7.44
6.70
6.29
6.12
6.05
5.92
5.61
5.01
4.09
2.87
1.46
0.04
-1.19
-2.07
-2.51
-2.57
-2.42
-2.33
-2.57
-3.32
-4.56
-6.11
-7.64
-8.78
-9.25
-8.93
-7.82
-6.09
-4.01
-1.93
-0.18
1.04
1.70
2.02
2.27
2.64
3.09
3.32
2.98
1.90
0.34
-1.12
-1.71
-0.94
1.23
4.35
7.72
10.73
13.05
14.70
15.89
16.84
17.67
18.36
18.84
19.07
19.10
19.03
18.92
18.78
18.49
17.91
16.93
15.61
14.16
12.89
12.12
12.04
12.63
13.66
14.81
15.75
16.29
16.42
16.24
15.86
15.34
14.66
13.82
12.88
12.04
11.56
11.65
12.31
13.34
14.35
14.96
14.99
14.53
13.90
13.46
13.48
13.98
14.70
15.23
15.07
13.80
11.18
7.29
2.50
-2.47
-6.75
-9.51
-10.22
-8.84
-5.79
-1.84
2.32
6.29
10.18
14.49
19.82
26.44
34.02
41.56
47.65
51.01
50.95
47.77
42.73
37.67
34.37
33.96
36.52
41.05
45.93
49.51
50.81
49.77
47.16
44.12
41.50
39.53
37.74
35.29
31.44
25.96
19.20
11.93
5.05
-0.66
-4.74
-6.98
-7.51
-6.59
-4.63
-2.05
0.80
3.68
6.44
8.99
11.34
13.63
16.13
19.21
23.21
28.27
34.25
40.72
47.14
52.98
57.86
61.60
64.15
65.56
65.87
65.23
63.82
61.96
60.06
58.46
57.07
55.27
51.87
45.53
35.28
21.06
3.78
-14.95
-33.50
-50.73
-66.02
-79.06
-89.47
-96.56
-99.58
-98.13
-92.44
-83.35
-72.02
-59.62
-47.11
-35.31
-25.04
-17.08
-11.93
-9.54
-9.19
-9.77
-10.20
-9.90
-8.81
-7.27
-5.61
-4.00
-2.56
-1.56
-1.55
-3.17
-6.90
-12.62
-19.53
-26.44
-32.15
-35.88
-37.42
-37.05
-35.30
-32.79
-30.09
-27.69
-25.96
-25.14
-25.28
-26.29
-27.97
-30.06
-32.27
-34.19
-35.36
-35.34
-33.92
-31.22
-27.73
-24.10
-20.91
-18.41
-16.51
-14.90
-13.24
-11.43
-9.59
-8.04
-7.08
-6.84
-7.19
-7.83
-8.35
-8.46
-7.99
-7.01
-5.72
-4.36
-3.08
-1.95
-0.91
0.08
1.01
1.77
2.20
2.20
1.83
1.20
0.53
-0.08
-0.61
-1.17
-1.91
-2.94
-4.31
-6.00
-7.95
-10.07
-12.29
-14.48
-16.46
-17.99
-18.77
-18.55
-17.20
-14.82
-11.79
-8.64
-5.90
-3.90
-2.73
-2.22
-2.13
-2.24
-2.39
-2.50
-2.48
-2.26
-1.82
-1.22
-0.59
-0.07
0.25
0.40
0.48
0.68
1.06
1.62
2.19
2.57
2.50
1.84
0.54
-1.25
-3.28
-5.27
-6.97
-8.32
-9.41
-10.40
-11.46
-12.71
-14.22
-15.97
-17.89
-19.73
-21.12
-21.67
-21.03
-19.14
-16.21
-12.71
-9.08
-5.72
-2.77
-0.29
1.67
3.03
3.67
3.56
2.81
1.72
0.66
-0.03
-0.16
0.25
1.04
1.95
2.67
2.89
2.38
1.07
-0.91
-3.30
-5.71
-7.85
-9.59
-10.94
-12.02
-12.95
-13.77
-14.45
-14.93
-15.26
-15.56
-16.03
-16.80
-17.92
-19.23
-20.43
-21.19
-21.18
-20.26
-18.42
-15.90
-13.02
-10.15
-7.54
-5.29
-3.40
-1.83
-0.57
0.37
0.94
1.17
1.17
1.11
1.15
1.37
1.76
2.26
2.77
3.21
3.54
3.75
3.83
3.82
3.76
3.72
3.71
3.66
3.48
3.05
2.36
1.46
0.54
-0.24
-0.76
-1.07
-1.36
-1.80
-2.51
-3.42
-4.28
-4.77
-4.60
-3.65
-1.97
0.23
2.68
5.11
7.37
9.31
10.83
11.82
12.24
12.08
11.42
10.43
9.29
8.14
7.06
6.10
5.29
4.69
4.35
4.30
4.53
4.94
5.40
5.78
5.96
5.88
5.54
4.95
4.15
3.17
2.03
0.74
-0.67
-2.13
-3.56
-4.85
-5.97
-6.90
-7.63
-8.13
-8.23
-7.80
-6.73
-5.07
-3.03
-0.91
1.02
2.59
3.76
4.54
4.99
5.07
4.78
4.17
3.32
2.40
1.55
0.85
0.32
-0.08
-0.43
-0.78
-1.13
-1.45
-1.68
-1.78
-1.77
-1.71
-1.71
-1.85
-2.22
-2.86
-3.80
-5.00
-6.43
-8.02
-9.71
-11.43
-13.15
-14.82
-16.41
-17.84
-18.93
-19.48
-19.34
-18.44
-16.87
-14.83
-12.62
-10.49
-8.66
-7.22
-6.16
-5.37
-4.71
-3.98
-3.07
-1.98
-0.79
0.34
1.32
2.18
3.03
4.01
5.14
6.30
7.26
7.77
7.74
7.26
6.53
5.74
5.02
4.38
3.84
3.38
3.04
2.78
2.50
2.05
1.22
-0.08
-1.78
-3.68
-5.44
-6.72
-7.21
-6.80
-5.50
-3.51
-1.15
1.23
3.34
4.97
6.01
6.47
6.42
5.97
5.25
4.42
3.61
2.90
2.36
1.98
1.71
1.49
1.27
1.00
0.69
0.32
-0.10
-0.59
-1.24
-2.10
-3.16
-4.30
-5.31
-5.97
-6.18
-6.01
-5.73
-5.65
-6.00
-6.85
-8.09
-9.49
-10.84
-11.97
-12.71
-12.89
-12.39
-11.17
-9.33
-7.13
-4.86
-2.74
-0.85
0.87
2.48
3.98
5.27
6.20
6.68
6.77
6.68
6.60
6.65
6.81
6.95
6.94
6.74
6.44
6.17
6.09
6.21
6.47
6.69
6.67
6.28
5.51
4.44
3.26
2.14
1.17
0.33
-0.47
-1.34
-2.34
-3.42
-4.48
-5.37
-5.95
-6.13
-5.88
-5.14
-3.96
-2.40
-0.62
1.19
2.89
4.37
5.56
6.42
6.91
7.00
6.70
6.11
5.37
4.64
4.05
3.57
3.12
2.58
1.90
1.10
0.26
-0.55
-1.27
-1.92
-2.52
-3.10
-3.65
-4.16
-4.62
-5.07
-5.60
-6.31
-7.25
-8.42
-9.78
-11.27
-12.85
-14.42
-15.81
-16.75
-16.97
-16.24
-14.53
-12.03
-9.09
-6.09
-3.31
-0.89
1.16
2.87
4.24
5.21
5.78
5.96
5.85
5.58
5.23
4.82
4.34
3.79
3.24
2.82
2.65
2.76
3.06
3.38
3.52
3.37
2.86
2.03
0.95
-0.30
-1.61
-2.93
-4.22
-5.46
-6.72
-8.08
-9.60
-11.24
-12.90
-14.36
-15.40
-15.84
-15.60
-14.71
-13.27
-11.46
-9.46
-7.42
-5.46
-3.66
-2.09
-0.76
0.32
1.22
1.99
2.67
3.25
3.66
3.82
3.67
3.30
2.83
2.45
2.26
2.30
2.49
2.75
3.02
3.21
3.23
2.98
2.41
1.51
0.42
-0.66
-1.57
-2.26
-2.83
-3.45
-4.27
-5.36
-6.72
-8.27
-9.91
-11.50
-12.79
-13.49
-13.32
-12.10
-9.87
-6.86
-3.44
-0.00
3.17
5.92
8.17
9.91
11.16
11.96
12.37
12.53
12.58
12.68
12.93
13.36
13.96
14.64
15.36
16.13
16.96
17.85
18.69
19.29
19.33
18.58
16.92
14.43
11.39
8.12
4.90
1.87
-0.93
-3.52
-5.87
-7.93
-9.65
-11.02
-12.09
-12.95
-13.71
-14.39
-14.93
-15.17
-14.92
-14.02
-12.42
-10.30
-7.96
-5.86
-4.39
-3.74
-3.84
-4.40
-5.05
-5.53
-5.76
-5.75
-5.44
-4.68
-3.19
-0.75
2.59
6.41
10.09
12.99
14.62
14.74
13.26
10.13
5.47
-0.32
-6.41
-11.75
-15.38
-16.93
-16.75
-15.76
-14.90
-14.65
-14.91
-15.20
-15.13
-14.71
-14.34
-14.41
-14.97
-15.52
-15.23
-13.36
-9.68
-4.61
0.96
6.08
10.15
12.99
14.91
16.31
17.48
18.37
18.68
18.09
16.53
14.23
11.69
9.36
7.43
5.76
4.00
1.83
-0.78
-3.52
-5.90
-7.56
-8.44
-8.79
-9.00
-9.32
-9.77
-10.23
-10.59
-10.92
-11.44
-12.33
-13.49
-14.55
-14.89
-13.99
-11.63
-8.05
-3.75
0.67
4.78
8.34
11.33
13.75
15.66
17.04
17.91
18.34
18.52
18.66
18.94
19.49
20.27
21.20
22.11
22.88
23.44
23.83
24.15
24.52
25.06
25.79
26.65
27.47
28.06
28.25
27.94
27.10
25.69
23.68
21.03
17.70
13.74
9.36
4.87
0.72
-2.68
-4.99
-6.07
-5.99
-5.00
-3.39
-1.46
0.61
2.69
4.66
6.36
7.58
8.09
7.77
6.65
4.93
2.89
0.87
-0.94
-2.47
-3.79
-5.06
-6.37
-7.72
-9.00
-10.08
-10.89
-11.46
-11.96
-12.57
-13.40
-14.40
-15.41
-16.20
-16.67
-16.81
-16.78
-16.82
-17.13
-17.82
-18.85
-20.07
-21.25
-22.18
-22.70
-22.68
-22.00
-20.57
-18.28
-15.18
-11.54
-7.81
-4.54
-2.17
-0.89
-0.57
-0.86
-1.40
-1.94
-2.42
-2.94
-3.58
-4.31
-4.97
-5.30
-5.10
-4.30
-3.04
-1.62
-0.45
0.15
0.00
-0.82
-2.05
-3.40
-4.59
-5.51
-6.16
-6.63
-6.98
-7.29
-7.58
-7.91
-8.28
-8.69
-9.09
-9.34
-9.26
-8.71
-7.60
-5.94
-3.75
-1.12
1.85
4.99
8.04
10.65
12.53
13.52
13.71
13.39
12.95
12.69
12.71
12.89
13.04
12.99
12.72
12.36
12.09
11.98
12.00
11.98
11.72
11.09
10.06
8.71
7.22
5.76
4.43
3.26
2.12
0.88
-0.58
-2.26
-4.06
-5.78
-7.19
-8.12
-8.42
-8.05
-7.05
-5.53
-3.65
-1.58
0.48
2.40
4.08
5.48
6.57
7.35
7.85
8.10
8.15
8.07
7.92
7.76
7.63
7.54
7.46
7.39
7.30
7.20
7.12
7.04
6.96
6.79
6.45
5.87
5.05
4.04
2.91
1.69
0.35
-1.18
-3.02
-5.16
-7.48
-9.72
-11.59
-12.86
-13.37
-13.10
-12.10
-10.51
-8.48
-6.20
-3.87
-1.73
0.02
1.27
2.01
2.34
2.42
2.37
2.24
1.98
1.57
1.04
0.52
0.20
0.21
0.56
1.11
1.67
2.07
2.24
2.22
2.05
1.75
1.31
0.69
-0.11
-1.10
-2.28
-3.65
-5.23
-6.94
-8.59
-9.89
-10.58
-10.46
-9.53
-7.92
-5.85
-3.59
-1.31
0.81
2.67
4.17
5.25
5.90
6.14
6.02
5.59
4.96
4.25
3.65
3.33
3.38
3.77
4.32
4.80
5.04
4.98
4.67
4.24
3.79
3.36
2.94
2.51
2.07
1.64
1.20
0.74
0.19
-0.45
-1.10
-1.67
-2.01
-1.99
-1.47
-0.39
1.30
3.53
6.10
8.70
11.01
12.80
14.01
14.73
15.09
15.19
15.00
14.45
13.53
12.30
10.95
9.68
8.65
7.89
7.33
6.79
6.08
5.07
3.70
2.03
0.23
-1.49
-2.98
-4.17
-5.18
-6.20
-7.42
-8.94
-10.71
-12.51
-14.07
-15.11
-15.47
-15.13
-14.20
-12.90
-11.39
-9.78
-8.06
-6.22
-4.25
-2.23
-0.32
1.35
2.68
3.63
4.27
4.69
4.99
5.25
5.53
5.83
6.11
6.32
6.41
6.37
6.24
6.07
5.88
5.63
5.29
4.82
4.20
3.46
2.64
1.71
0.62
-0.68
-2.22
-3.94
-5.69
-7.31
-8.57
-9.26
-9.19
-8.27
-6.55
-4.23
-1.62
0.94
3.20
5.06
6.54
7.72
8.64
9.35
9.81
10.03
10.02
9.81
9.47
9.03
8.52
8.04
7.68
7.51
7.52
7.58
7.49
7.09
6.33
5.24
3.93
2.49
1.01
-0.45
-1.82
-3.07
-4.20
-5.30
-6.51
-7.95
-9.58
-11.15
-12.26
-12.58
-11.96
-10.51
-8.57
-6.51
-4.59
-2.97
-1.65
-0.61
0.18
0.75
1.13
1.39
1.58
1.74
1.81
1.75
1.52
1.16
0.75
0.38
0.13
0.02
-0.01
-0.02
-0.11
-0.34
-0.75
-1.30
-1.93
-2.59
-3.21
-3.78
-4.30
-4.78
-5.24
-5.72
-6.31
-7.14
-8.32
-9.83
-11.46
-12.88
-13.66
-13.49
-12.28
-10.19
-7.56
-4.79
-2.22
0.01
1.86
3.38
4.59
5.48
5.97
6.06
5.86
5.62
5.56
5.82
6.33
6.84
7.08
6.92
6.38
5.72
5.17
4.91
4.92
5.00
4.90
4.41
3.45
2.11
0.62
-0.74
-1.74
-2.28
-2.51
-2.72
-3.23
-4.18
-5.48
-6.83
-7.86
-8.28
-8.04
-7.21
-5.96
-4.44
-2.70
-0.79
1.26
3.30
5.14
6.55
7.36
7.56
7.27
6.74
6.28
6.08
6.14
6.32
6.39
6.20
5.74
5.15
4.62
4.31
4.24
4.32
4.40
4.36
4.13
3.67
2.98
2.11
1.16
0.20
-0.69
-1.49
-2.32
-3.27
-4.42
-5.73
-7.04
-8.10
-8.68
-8.58
-7.72
-6.17
-4.04
-1.60
0.92
3.27
5.28
6.85
7.95
8.61
8.89
8.91
8.85
8.87
9.09
9.52
10.06
10.52
10.73
10.60
10.15
9.51
8.85
8.31
7.93
7.69
7.44
7.05
6.38
5.39
4.11
2.67
1.17
-0.32
-1.79
-3.28
-4.83
-6.47
-8.21
-9.99
-11.70
-13.14
-14.04
-14.18
-13.45
-11.94
-9.93
-7.80
-5.88
-4.37
-3.29
-2.54
-2.03
-1.73
-1.67
-1.92
-2.46
-3.17
-3.82
-4.20
-4.22
-3.96
-3.60
-3.39
-3.42
-3.71
-4.11
-4.48
-4.72
-4.84
-4.91
-5.01
-5.18
-5.42
-5.71
-6.03
-6.39
-6.81
-7.31
-7.87
-8.40
-8.83
-9.17
-9.52
-10.06
-10.93
-12.08
-13.27
-14.09
-14.12
-13.14
-11.14
-8.37
-5.23
-2.09
0.76
3.15
5.03
6.44
7.42
8.02
8.30
8.34
8.22
8.08
8.06
8.22
8.56
8.99
9.36
9.60
9.67
9.63
9.57
9.53
9.47
9.27
8.82
8.06
6.99
5.71
4.35
3.05
1.90
0.92
0.03
-0.92
-2.08
-3.61
-5.51
-7.68
-9.89
-11.84
-13.24
-13.86
-13.56
-12.33
-10.21
-7.42
-4.23
-1.02
1.85
4.13
5.76
6.83
7.56
8.15
8.73
9.29
9.74
10.01
10.10
10.12
10.21
10.45
10.81
11.15
11.24
10.95
10.26
9.32
8.34
7.45
6.66
5.85
4.87
3.68
2.34
1.00
-0.22
-1.28
-2.29
-3.36
-4.56
-5.93
-7.42
-9.01
-10.66
-12.27
-13.73
-14.85
-15.39
-15.19
-14.15
-12.29
-9.71
-6.68
-3.50
-0.55
1.90
3.75
5.04
5.95
6.65
7.22
7.64
7.83
7.79
7.58
7.33
7.13
6.98
6.83
6.63
6.36
6.10
5.91
5.80
5.71
5.51
5.05
4.30
3.27
2.07
0.82
-0.39
-1.51
-2.52
-3.48
-4.45
-5.50
-6.71
-8.11
-9.70
-11.44
-13.22
-14.87
-16.16
-16.84
-16.73
-15.75
-13.95
-11.53
-8.77
-5.94
-3.27
-0.88
1.20
2.99
4.49
5.73
6.67
7.25
7.46
7.33
6.99
6.63
6.46
6.58
6.95
7.43
7.85
8.13
8.33
8.52
8.76
8.94
8.84
8.27
7.17
5.73
4.24
3.03
2.28
1.90
1.68
1.34
0.67
-0.40
-1.86
-3.62
-5.54
-7.46
-9.19
-10.51
-11.21
-11.15
-10.30
-8.78
-6.76
-4.49
-2.16
0.12
2.30
4.31
6.05
7.35
8.08
8.24
7.97
7.51
7.12
6.98
7.06
7.29
7.55
7.77
8.00
8.28
8.63
8.97
9.23
9.32
9.19
8.83
8.23
7.35
6.18
4.73
3.07
1.34
-0.31
-1.75
-2.97
-4.08
-5.23
-6.57
-8.14
-9.78
-11.20
-12.03
-12.03
-11.10
-9.39
-7.17
-4.76
-2.31
0.11
2.54
4.97
7.30
9.34
10.90
11.85
12.22
12.16
11.87
11.48
11.00
10.36
9.51
8.44
7.27
6.24
5.52
5.16
5.03
4.89
4.42
3.42
1.89
0.00
-1.95
-3.69
-5.09
-6.17
-7.03
-7.81
-8.59
-9.43
-10.36
-11.49
-12.97
-14.83
-17.00
-19.18
-20.93
-21.89
-21.87
-20.89
-19.21
-17.12
-14.84
-12.47
-10.09
-7.77
-5.66
-3.96
-2.80
-2.20
-2.03
-2.06
-2.07
-1.94
-1.59
-1.03
-0.31
0.54
1.43
2.26
2.93
3.34
3.45
3.27
2.88
2.33
1.65
0.83
-0.15
-1.27
-2.46
-3.63
-4.69
-5.64
-6.52
-7.50
-8.67
-10.05
-11.54
-12.90
-13.82
-14.08
-13.53
-12.16
-10.08
-7.42
-4.33
-0.89
2.74
6.40
9.82
12.74
14.94
16.34
17.01
17.09
16.81
16.33
15.81
15.32
14.94
14.67
14.51
14.39
14.20
13.81
13.18
12.33
11.35
10.29
9.14
7.85
6.36
4.65
2.82
0.97
-0.81
-2.55
-4.30
-6.13
-8.07
-10.04
-11.95
-13.70
-15.25
-16.55
-17.46
-17.76
-17.18
-15.59
-13.04
-9.86
-6.51
-3.47
-1.10
0.53
1.49
1.97
2.13
2.09
1.89
1.59
1.25
0.98
0.89
1.03
1.39
1.82
2.19
2.45
2.65
2.89
3.26
3.76
4.24
4.49
4.36
3.78
2.83
1.60
0.24
-1.21
-2.68
-4.13
-5.52
-6.83
-8.11
-9.41
-10.75
-12.00
-12.90
-13.10
-12.37
-10.67
-8.19
-5.28
-2.26
0.66
3.38
5.83
7.87
9.33
10.06
10.14
9.82
9.57
9.77
10.61
11.96
13.46
14.76
15.65
16.14
16.38
16.51
16.60
16.63
16.56
16.39
16.23
16.19
16.30
16.46
16.46
16.11
15.29
14.06
12.60
11.10
9.67
8.34
7.05
5.81
4.71
3.95
3.75
4.20
5.27
6.71
8.25
9.65
10.77
11.60
12.21
12.69
13.03
13.20
13.12
12.74
12.07
11.21
10.31
9.53
8.99
8.71
8.67
8.81
9.04
9.29
9.49
9.62
9.70
9.82
10.07
10.46
10.89
11.14
11.01
10.35
9.19
7.65
5.85
3.85
1.63
-0.80
-3.34
-5.74
-7.70
-8.98
-9.51
-9.40
-8.89
-8.26
-7.69
-7.28
-7.03
-6.94
-7.05
-7.47
-8.33
-9.69
-11.46
-13.32
-14.90
-15.88
-16.20
-16.04
-15.75
-15.64
-15.83
-16.22
-16.62
-16.84
-16.84
-16.72
-16.62
-16.63
-16.76
-16.95
-17.13
-17.26
-17.43
-17.77
-18.42
-19.45
-20.75
-22.01
-22.76
-22.56
-21.16
-18.66
-15.47
-12.19
-9.34
-7.18
-5.67
-4.59
-3.76
-3.11
-2.73
-2.68
-2.93
-3.31
-3.61
-3.63
-3.30
-2.69
-1.89
-0.99
-0.09
0.72
1.29
1.45
1.09
0.22
-1.00
-2.31
-3.44
-4.26
-4.73
-4.98
-5.19
-5.58
-6.31
-7.44
-8.86
-10.29
-11.36
-11.67
-10.96
-9.18
-6.52
-3.34
-0.12
2.73
4.87
6.14
6.55
6.26
5.47
4.42
3.27
2.20
1.35
0.84
0.69
0.86
1.25
1.70
2.09
2.32
2.30
1.93
1.14
-0.11
-1.75
-3.63
-5.47
-7.01
-8.08
-8.61
-8.65
-8.38
-8.06
-7.99
-8.41
-9.38
-10.69
-11.92
-12.59
-12.35
-11.18
-9.27
-6.96
-4.56
-2.24
0.02
2.24
4.44
6.54
8.38
9.88
10.99
11.70
12.00
11.81
10.99
9.45
7.19
4.38
1.37
-1.37
-3.39
-4.43
-4.52
-3.94
-3.21
-2.80
-3.06
-4.04
-5.57
-7.33
-9.06
-10.67
-12.23
-13.89
-15.83
-18.13
-20.79
-23.76
-26.92
-30.09
-32.99
-35.18
-36.18
-35.63
-33.45
-29.93
-25.60
-20.89
-15.96
-10.63
-4.61
2.23
9.65
17.08
23.84
29.53
34.19
38.18
42.01
45.95
49.92
53.61
56.70
59.07
60.84
62.34
63.85
65.51
67.29
69.07
70.69
72.01
72.91
73.18
72.57
70.81
67.67
63.05
56.98
49.71
41.66
33.43
25.68
19.03
13.91
10.52
8.84
8.67
9.66
11.34
13.11
14.33
14.43
13.11
10.42
6.71
2.47
-1.84
-5.99
-9.90
-13.60
-17.09
-20.28
-22.98
-25.00
-26.22
-26.69
-26.64
-26.47
-26.57
-27.17
-28.27
-29.64
-30.95
-31.93
-32.50
-32.72
-32.71
-32.59
-32.41
-32.19
-31.99
-31.91
-32.00
-32.29
-32.59
-32.63
-32.15
-30.96
-29.09
-26.69
-24.07
-21.53
-19.38
-17.81
-16.84
-16.36
-16.10
-15.73
-14.94
-13.58
-11.63
-9.17
-6.33
-3.23
-0.04
2.99
5.58
7.44
8.46
8.71
8.45
7.93
7.21
6.13
4.40
1.80
-1.65
-5.62
-9.61
-13.11
-15.80
-17.64
-18.83
-19.66
-20.40
-21.17
-21.86
-22.16
-21.70
-20.25
-17.82
-14.66
-11.28
-8.17
-5.71
-4.03
-3.02
-2.48
-2.24
-2.21
-2.41
-2.92
-3.73
-4.81
-6.06
-7.41
-8.82
-10.25
-11.59
-12.61
-13.01
-12.54
-11.12
-8.92
-6.30
-3.70
-1.45
0.27
1.42
1.98
1.95
1.30
0.12
-1.38
-2.90
-4.14
-4.95
-5.37
-5.60
-5.77
-5.89
-5.80
-5.24
-4.04
-2.22
0.01
2.37
4.59
6.49
8.01
9.14
9.88
10.21
10.15
9.79
9.33
9.05
9.20
9.91
11.11
12.62
14.18
15.61
16.84
17.86
18.71
19.35
19.68
19.59
19.06
18.19
17.14
16.07
15.11
14.26
13.49
12.77
12.01
11.13
10.02
8.54
6.64
4.43
2.20
0.36
-0.72
-0.82
-0.01
1.42
3.08
4.59
5.75
6.48
6.82
6.84
6.57
6.01
5.18
4.17
3.11
2.15
1.44
1.00
0.76
0.62
0.41
0.02
-0.61
-1.47
-2.47
-3.50
-4.43
-5.18
-5.71
-6.04
-6.19
-6.19
-6.08
-5.92
-5.85
-6.00
-6.48
-7.26
-8.13
-8.77
-8.87
-8.26
-6.97
-5.18
-3.11
-0.89
1.45
3.88
6.36
8.75
10.83
12.43
13.44
13.91
14.00
13.85
13.58
13.25
12.92
12.63
12.40
12.20
11.93
11.45
10.72
9.79
8.88
8.25
8.07
8.38
9.03
9.75
10.29
10.41
9.99
9.01
7.55
5.84
4.17
2.84
2.11
2.01
2.44
3.16
3.94
4.55
4.86
4.81
4.33
3.43
2.15
0.59
-1.18
-3.05
-4.94
-6.76
-8.41
-9.81
-10.90
-11.74
-12.45
-13.18
-14.07
-15.16
-16.38
-17.64
-18.92
-20.18
-21.46
-22.69
-23.77
-24.58
-25.08
-25.31
-25.40
-25.51
-25.71
-25.92
-25.93
-25.50
-24.42
-22.64
-20.27
-17.56
-14.82
-12.27
-10.03
-8.09
-6.40
-4.94
-3.74
-2.86
-2.28
-1.93
-1.63
-1.25
-0.72
-0.07
0.62
1.31
2.02
2.82
3.67
4.46
5.00
5.07
4.55
3.48
2.04
0.50
-0.87
-1.96
-2.76
-3.44
-4.15
-4.99
-5.90
-6.69
-7.15
-7.12
-6.56
-5.54
-4.13
-2.44
-0.55
1.42
3.28
4.80
5.75
6.01
5.63
4.77
3.67
2.60
1.75
1.20
0.96
0.92
0.98
1.00
0.94
0.79
0.65
0.57
0.54
0.46
0.16
-0.44
-1.34
-2.42
-3.48
-4.45
-5.36
-6.30
-7.33
-8.29
-8.87
-8.73
-7.62
-5.61
-3.01
-0.24
2.31
4.43
6.10
7.38
8.31
8.91
9.13
9.00
8.65
8.26
7.99
7.89
7.91
7.92
7.87
7.83
7.99
8.64
9.94
11.85
14.01
15.91
17.08
17.35
16.93
16.39
16.41
17.45
19.57
22.28
24.75
26.17
26.12
25.06
24.39
26.15
32.18
43.18
58.17
74.62
89.30
99.45
103.63
101.90
95.46
86.00
75.18
64.40
54.52
45.58
36.39
24.56
7.10
-18.15
-51.18
-89.18
-127.28
-160.13
-183.69
-196.17
-197.98
-190.88
-177.02
-158.52
-137.49
-116.30
-97.48
-83.32
-75.11
-72.70
-74.56
-78.39
-81.96
-83.81
-83.48
-81.32
-78.10
-74.51
-70.83
-66.78
-61.71
-54.91
-46.03
-35.37
-23.86
-12.72
-2.96
5.13
12.05
18.74
26.09
34.33
42.87
50.49
55.78
57.76
56.15
51.49
44.92
37.79
31.30
26.15
22.46
19.83
17.58
15.08
11.95
8.16
3.99
-0.11
-3.59
-5.88
-6.55
-5.35
-2.47
1.41
5.29
8.24
9.98
11.18
13.27
17.71
25.20
35.15
45.88
55.29
61.83
64.88
64.59
61.49
55.90
47.98
37.93
26.39
14.43
3.31
-5.83
-12.18
-15.11
-14.22
-9.57
-2.02
6.47
13.22
15.60
12.03
2.54
-11.40
-27.35
-42.37
-53.20
-56.39
-48.91
-29.27
1.30
38.32
75.10
104.92
123.45
130.28
128.61
123.45
119.36
118.73
121.48
125.82
129.49
130.81
129.11
124.68
118.43
111.54
105.07
99.74
95.82
93.32
92.13
92.11
93.18
95.16
97.78
100.76
103.99
107.60
111.90
116.86
121.65
124.36
122.54
114.16
98.66
77.35
52.94
28.44
6.05
-13.43
-30.31
-45.29
-58.81
-70.86
-81.24
-89.97
-97.35
-103.74
-109.14
-113.04
-114.64
-113.33
-109.05
-102.43
-94.51
-86.41
-79.05
-73.07
-68.79
-66.23
-65.10
-64.80
-64.49
-63.35
-60.90
-57.12
-52.44
-47.48
-42.80
-38.69
-35.30
-32.84
-31.82
-33.09
-37.48
-45.45
-56.59
-69.64
-82.79
-94.24
-102.79
-107.97
-109.86
-108.67
-104.34
-96.49
-84.81
-69.46
-51.41
-32.21
-13.56
3.19
17.36
28.80
37.69
44.33
49.16
52.60
55.02
56.46
56.52
54.43
49.49
41.56
31.24
19.76
8.52
-1.10
-7.85
-10.45
-7.80
0.49
13.23
27.58
39.77
46.74
47.74
44.75
41.40
40.77
43.54
47.29
47.89
41.67
27.52
7.54
-13.89
-31.84
-42.58
-44.57
-38.53
-26.81
-12.48
1.50
12.81
19.94
22.26
19.93
13.90
5.90
-1.84
-7.22
-8.94
-7.06
-2.97
1.28
3.92
4.16
2.34
-0.56
-3.66
-6.62
-9.49
-12.34
-14.94
-16.79
-17.56
-17.43
-17.08
-17.38
-18.75
-20.93
-23.12
-24.40
-24.22
-22.63
-20.25
-17.90
-16.16
-15.20
-14.67
-13.99
-12.71
-10.72
-8.43
-6.51
-5.66
-6.28
-8.29
-11.20
-14.20
-16.49
-17.51
-17.17
-15.82
-14.17
-12.97
-12.77
-13.64
-15.26
-17.04
-18.43
-19.24
-19.68
-20.25
-21.50
-23.69
-26.73
-30.04
-32.70
-33.59
-31.66
-26.33
-17.74
-6.89
4.68
15.35
23.99
30.22
34.32
36.94
38.65
39.75
40.28
40.17
39.34
37.74
35.32
32.06
28.02
23.40
18.69
14.42
11.07
8.80
7.39
6.31
4.96
2.94
0.12
-3.32
-7.06
-10.73
-14.04
-16.75
-18.64
-19.58
-19.44
-18.24
-16.12
-13.34
-10.25
-7.20
-4.58
-2.72
-1.94
-2.40
-4.01
-6.49
-9.40
-12.29
-14.89
-17.09
-18.91
-20.43
-21.66
-22.57
-23.09
-23.21
-23.00
-22.59
-22.20
-21.96
-21.95
-22.03
-21.96
-21.44
-20.30
-18.58
-16.50
-14.44
-12.74
-11.68
-11.46
-12.19
-13.78
-15.93
-18.04
-19.34
-19.21
-17.38
-14.09
-10.01
-5.91
-2.38
0.32
2.21
3.45
4.09
4.13
3.53
2.37
0.83
-0.80
-2.22
-3.20
-3.62
-3.44
-2.75
-1.73
-0.64
0.26
0.79
0.84
0.40
-0.50
-1.82
-3.43
-5.18
-6.92
-8.56
-10.21
-12.10
-14.53
-17.53
-20.87
-23.94
-26.06
-26.67
-25.51
-22.66
-18.41
-13.17
-7.38
-1.49
3.99
8.51
11.65
13.20
13.27
12.20
10.39
8.17
5.76
3.25
0.74
-1.56
-3.35
-4.36
-4.43
-3.69
-2.53
-1.49
-1.08
-1.58
-2.96
-4.92
-7.09
-9.19
-11.13
-12.98
-14.78
-16.44
-17.69
-18.13
-17.47
-15.63
-12.78
-9.31
-5.68
-2.27
0.73
3.28
5.43
7.17
8.39
8.92
8.59
7.41
5.48
3.11
0.64
-1.61
-3.33
-4.24
-4.05
-2.55
0.31
4.35
9.10
13.91
18.05
20.91
22.02
21.18
18.42
14.02
8.52
2.60
-3.00
-7.64
-10.88
-12.50
-12.47
-10.91
-8.04
-4.17
0.26
4.80
9.01
12.55
15.18
16.81
17.43
17.14
16.10
14.49
12.53
10.45
8.50
6.91
5.86
5.42
5.52
5.91
6.26
6.23
5.57
4.19
2.13
-0.50
-3.53
-6.80
-10.09
-13.18
-15.90
-18.24
-20.36
-22.44
-24.60
-26.63
-28.03
-28.10
-26.28
-22.41
-16.86
-10.50
-4.38
0.57
3.88
5.51
5.86
5.43
4.65
3.75
2.75
1.63
0.45
-0.62
-1.36
-1.54
-1.07
-0.02
1.41
2.99
4.53
5.88
6.95
7.65
7.93
7.74
7.10
6.11
4.86
3.40
1.71
-0.34
-2.91
-6.12
-9.99
-14.29
-18.57
-22.17
-24.44
-24.82
-23.10
-19.43
-14.22
-8.07
-1.56
4.82
10.71
15.82
19.95
22.93
24.72
25.35
24.95
23.74
22.15
20.81
20.52
22.02
25.57
30.75
36.48
41.39
44.40
45.12
43.94
41.68
39.01
36.13
32.76
28.44
23.05
16.95
10.88
5.57
1.26
-2.41
-6.26
-11.12
-17.44
-25.03
-33.14
-40.77
-47.00
-51.34
-53.79
-54.72
-54.56
-53.63
-51.93
-49.18
-44.93
-38.74
-30.29
-19.48
-6.45
8.34
24.14
40.02
55.07
68.69
80.70
91.32
100.85
109.23
115.91
119.89
120.22
116.53
109.31
99.75
89.20
78.61
68.05
56.82
43.75
27.71
8.08
-14.85
-39.62
-63.59
-83.33
-95.60
-98.69
-93.49
-83.31
-72.54
-64.71
-61.11
-60.57
-60.43
-57.98
-51.33
-39.57
-22.29
0.66
28.92
61.11
94.57
125.86
151.81
170.51
181.65
185.99
184.56
178.05
166.99
152.20
135.18
117.89
102.42
90.37
82.56
78.87
78.33
79.29
79.63
77.26
70.74
59.84
45.74
30.73
17.42
7.83
2.74
1.45
1.89
1.02
-4.56
-17.79
-40.16
-70.78
-106.15
-140.88
-169.47
-188.20
-196.54
-197.08
-194.34
-192.75
-195.11
-201.92
-211.79
-222.55
-232.43
-240.57
-247.03
-252.17
-256.09
-258.21
-257.36
-252.15
-241.52
-225.05
-203.05
-176.61
-147.42
-117.42
-88.40
-61.36
-36.00
-10.62
17.36
50.73
91.41
139.65
193.45
248.17
296.77
330.78
342.36
327.02
285.91
226.25
159.55
97.69
49.00
15.93
-4.52
-18.05
-29.81
-42.22
-54.75
-65.11
-70.66
-69.41
-59.93
-41.42
-13.98
20.69
58.85
95.18
124.25
142.50
149.42
147.58
141.20
134.10
128.28
123.48
118.13
110.72
100.92
89.66
78.49
68.50
59.78
51.54
42.82
33.33
23.77
15.52
9.96
7.81
8.87
12.28
16.96
21.79
25.52
26.41
22.29
11.24
-7.09
-30.57
-54.53
-73.14
-81.62
-78.18
-64.73
-45.83
-26.77
-11.40
-1.27
4.06
5.76
4.92
2.34
-0.97
-3.62
-4.31
-2.87
-1.03
-1.90
-8.59
-22.47
-42.14
-63.92
-83.44
-97.41
-104.39
-104.58
-98.79
-87.64
-71.41
-50.55
-26.25
-0.56
24.04
45.40
62.26
74.47
82.95
89.13
94.31
99.09
102.87
104.10
101.05
92.76
79.63
63.19
45.13
26.57
7.93
-10.28
-26.47
-37.92
-41.84
-37.20
-26.04
-13.21
-4.50
-4.11
-12.85
-28.13
-45.41
-60.27
-70.02
-74.12
-73.72
-70.72
-66.93
-63.64
-61.38
-60.09
-59.31
-58.44
-57.05
-54.97
-52.21
-48.83
-44.83
-40.22
-35.18
-30.17
-25.82
-22.61
-20.69
-19.70
-19.04
-18.18
-16.98
-15.70
-14.80
-14.58
-14.89
-15.15
-14.50
-12.17
-7.81
-1.61
5.67
12.95
19.11
23.24
24.87
24.04
21.26
17.36
13.20
9.54
6.92
5.66
5.87
7.44
10.02
12.99
15.51
16.78
16.29
14.07
10.69
7.00
3.81
1.51
-0.06
-1.56
-3.84
-7.56
-12.87
-19.25
-25.68
-30.96
