1593107532.00
64.000000
-0.00
-0.00
-0.00
-0.00
-0.00
-0.00
-0.00
-0.00
-0.00
-0.00
0.00
0.01
0.01
-0.00
-0.03
-0.05
-0.05
0.00
0.13
0.36
0.66
1.01
1.37
1.72
2.06
2.40
2.79
3.24
3.80
4.42
5.06
5.66
6.20
6.68
7.15
7.68
8.31
9.14
10.09
11.04
11.88
12.56
13.14
13.76
14.65
15.96
17.91
20.32
22.90
25.38
27.58
29.57
31.68
34.32
37.81
42.54
48.15
54.10
59.83
64.97
69.58
74.14
79.34
85.71
93.76
103.00
112.62
121.73
129.77
136.75
143.30
150.75
157.77
166.64
177.95
191.79
206.97
220.57
228.25
225.36
208.53
176.87
132.76
80.05
23.07
-34.94
-92.44
-149.16
-205.23
-260.37
-313.74
-363.87
-409.83
-450.91
-486.50
-515.74
-537.23
-549.22
-549.96
-538.37
-514.21
-478.67
-433.88
-382.45
-327.02
-269.84
-212.63
-156.66
-102.95
-52.37
-5.90
35.58
71.43
101.35
125.50
144.38
158.69
169.15
176.37
180.75
182.57
182.07
179.51
175.23
169.65
163.18
156.15
148.81
141.30
133.69
126.02
118.33
110.69
103.16
95.80
88.68
81.83
75.25
68.95
62.95
57.25
51.86
46.78
42.03
37.59
33.45
29.61
26.07
22.81
19.83
17.11
14.67
12.48
10.54
8.83
7.35
6.07
4.97
4.05
3.27
2.62
2.09
1.65
1.30
1.01
0.79
0.61
0.48
0.37
0.29
0.24
0.20
0.18
0.17
0.17
0.18
0.20
0.22
0.25
0.28
0.31
0.35
0.39
0.45
0.52
0.58
0.63
0.65
0.62
0.56
0.49
0.46
0.48
0.56
0.69
0.83
0.94
1.00
1.03
1.06
1.15
1.31
1.58
1.89
2.20
2.44
2.58
2.65
2.73
2.92
3.30
3.89
4.58
5.21
5.61
5.72
5.59
5.44
5.54
6.08
7.09
8.35
9.51
10.19
10.24
9.77
9.18
8.97
9.49
10.70
12.14
13.07
12.75
10.79
7.32
2.94
-1.58
-5.68
-9.20
-12.50
-16.10
-20.43
-25.76
-32.19
-39.70
-47.92
-55.79
-61.28
-61.82
-55.37
-41.64
-22.71
-2.60
14.28
24.94
28.84
27.64
24.05
20.26
17.17
14.56
11.93
9.21
6.95
5.85
6.15
7.28
8.17
7.73
5.54
2.22
-0.86
-2.06
-0.27
4.50
11.12
17.87
23.13
26.24
27.60
28.33
29.48
31.43
33.81
35.82
36.78
36.38
34.81
32.35
29.04
24.62
18.87
11.90
4.46
-2.15
-6.63
-7.93
-5.62
-0.08
7.77
16.70
25.42
32.83
38.54
41.78
42.00
38.85
32.13
21.85
8.13
-8.69
-28.05
-49.09
-70.69
-91.29
-109.02
-121.99
-128.57
-127.90
-120.22
-107.02
-90.82
-74.66
-61.19
-52.01
-47.49
-46.81
-48.58
-51.42
-54.35
-56.93
-59.01
-60.43
-60.99
-60.52
-59.09
-57.01
-54.55
-51.62
-47.72
-42.24
-35.03
-26.74
-18.66
-12.16
-7.85
-5.18
-2.77
0.83
6.39
13.68
21.73
29.47
36.22
41.78
46.24
49.69
52.07
53.30
53.44
52.75
51.50
49.74
47.22
43.53
38.35
31.81
24.58
17.66
11.95
7.78
4.74
1.78
-2.37
-8.63
-17.23
-27.44
-37.78
-46.36
-51.46
-52.00
-47.90
-40.04
-29.96
-19.35
-9.49
-0.99
6.11
12.04
17.03
21.11
24.31
26.80
29.04
31.68
35.22
39.75
44.83
49.62
53.21
54.97
54.70
52.52
48.71
43.47
36.95
29.42
21.50
14.11
8.35
5.03
4.36
5.87
8.58
11.36
13.35
14.05
13.39
11.58
9.05
6.38
4.17
2.90
2.67
3.23
4.05
4.67
4.98
5.39
6.58
9.13
13.17
18.18
23.20
27.11
29.12
28.97
27.00
24.05
21.18
19.38
19.24
20.85
23.62
26.46
28.09
27.49
24.29
18.89
12.34
5.96
0.91
-2.10
-2.88
-1.65
1.09
4.76
8.69
12.21
14.74
15.95
15.83
14.66
12.83
10.61
8.12
5.33
2.27
-0.89
-3.77
-5.93
-6.98
-6.74
-5.30
-2.91
0.01
3.01
5.60
7.38
8.09
7.73
6.54
4.93
3.33
2.01
1.01
0.25
-0.40
-0.97
-1.42
-1.67
-1.73
-1.66
-1.49
-1.13
-0.30
1.32
3.84
7.05
10.38
13.11
14.72
15.07
14.45
13.32
11.99
10.52
8.65
6.12
2.90
-0.74
-4.37
-7.59
-10.29
-12.62
-14.82
-17.04
-19.12
-20.69
-21.36
-20.92
-19.48
-17.44
-15.27
-13.36
-11.82
-10.61
-9.55
-8.53
-7.66
-7.18
-7.42
-8.55
-10.47
-12.67
-14.39
-14.91
-13.82
-11.23
-7.67
-3.91
-0.61
1.96
3.83
5.22
6.34
7.14
7.47
7.17
6.23
4.89
3.57
2.67
2.42
2.83
3.62
4.46
4.99
5.01
4.57
3.89
3.30
3.04
3.18
3.54
3.87
3.92
3.62
3.05
2.33
1.52
0.53
-0.78
-2.52
-4.52
-6.37
-7.48
-7.33
-5.65
-2.57
1.40
5.54
9.19
11.94
13.69
14.57
14.83
14.69
14.28
13.72
13.18
12.91
13.14
13.97
15.32
16.91
18.47
19.96
21.65
24.02
27.50
32.14
37.51
42.87
47.52
51.21
54.34
57.81
62.66
69.63
78.82
89.61
100.69
110.30
116.68
118.55
115.59
108.65
99.49
90.15
81.99
75.14
68.35
59.60
47.02
29.76
8.51
-14.76
-37.36
-56.62
-70.56
-78.22
-79.83
-76.73
-70.99
-64.82
-59.92
-56.94
-55.41
-54.18
-52.03
-48.46
-43.90
-39.53
-36.71
-36.39
-38.77
-43.36
-49.31
-55.71
-61.76
-66.82
-70.34
-71.86
-71.00
-67.55
-61.49
-53.04
-42.56
-30.52
-17.44
-3.89
9.36
21.29
30.59
35.94
36.31
31.41
21.92
9.40
-4.09
-16.57
-26.61
-33.58
-37.49
-38.88
-38.40
-36.68
-34.18
-31.22
-28.03
-24.75
-21.53
-18.37
-15.25
-12.12
-8.95
-5.88
-3.12
-0.97
0.13
-0.42
-3.37
-9.54
-19.55
-33.54
-50.99
-70.71
-91.01
-109.97
-125.80
-137.04
-142.79
-142.78
-137.38
-127.49
-114.29
-98.96
-82.56
-65.99
-50.20
-36.16
-24.79
-16.59
-11.43
-8.48
-6.55
-4.62
-2.20
0.45
2.67
3.69
3.08
0.87
-2.51
-6.41
-10.22
-13.42
-15.69
-16.86
-16.92
-15.94
-14.14
-11.73
-8.94
-5.90
-2.61
0.98
4.95
9.30
13.90
18.47
22.63
26.03
28.36
29.54
29.67
28.97
27.70
26.03
23.98
21.52
18.74
15.89
13.48
12.11
12.21
13.89
16.85
20.57
24.45
28.07
31.16
33.63
35.39
36.37
36.49
35.73
34.21
32.09
29.62
27.05
24.57
22.37
20.57
19.22
18.25
17.46
16.65
15.65
14.50
13.39
12.54
12.11
12.02
12.02
11.76
10.96
9.53
7.62
5.49
3.40
1.57
0.03
-1.29
-2.61
-4.14
-6.10
-8.55
-11.33
-14.02
-16.04
-16.74
-15.63
-12.55
-7.74
-1.85
4.26
9.74
13.97
16.75
18.22
18.72
18.60
18.05
17.15
15.93
14.49
13.06
11.98
11.48
11.62
12.22
12.98
13.56
13.77
13.58
13.09
12.48
11.83
11.19
10.50
9.68
8.63
7.26
5.51
3.34
0.80
-1.94
-4.61
-6.92
-8.68
-9.93
-10.90
-11.94
-13.29
-14.92
-16.54
-17.66
-17.88
-16.95
-14.95
-12.21
-9.18
-6.28
-3.75
-1.63
0.21
1.95
3.66
5.27
6.53
7.12
6.82
5.64
3.85
1.89
0.25
-0.68
-0.65
0.41
2.41
5.08
8.03
10.85
13.20
14.92
16.08
16.81
17.22
17.28
16.80
15.62
13.77
11.52
9.29
7.41
5.98
4.73
3.22
1.01
-2.06
-5.76
-9.57
-12.76
-14.68
-14.87
-13.24
-10.10
-6.02
-1.71
2.18
5.24
7.36
8.61
9.12
8.95
8.13
6.69
4.78
2.76
1.09
0.15
0.08
0.74
1.81
2.94
3.94
4.79
5.55
6.29
6.96
7.40
7.47
7.09
6.30
5.24
4.10
3.07
2.29
1.80
1.48
1.16
0.57
-0.48
-2.05
-4.08
-6.39
-8.74
-10.86
-12.42
-13.00
-12.20
-9.71
-5.65
-0.60
4.42
8.35
10.41
10.49
9.03
6.86
4.71
2.99
1.72
0.67
-0.34
-1.34
-2.20
-2.79
-3.04
-2.98
-2.65
-2.02
-1.02
0.36
2.00
3.59
4.76
5.21
4.82
3.68
2.06
0.21
-1.65
-3.37
-4.89
-6.13
-7.08
-7.76
-8.36
-9.11
-10.31
-12.17
-14.67
-17.55
-20.39
-22.75
-24.39
-25.30
-25.63
-25.59
-25.25
-24.54
-23.35
-21.70
-19.78
-18.06
-17.11
-17.53
-19.80
-24.26
-31.08
-40.21
-51.38
-64.05
-77.48
-90.84
-103.54
-115.35
-126.57
-137.85
-149.89
-163.17
-177.65
-192.81
-207.69
-220.93
-230.82
-235.38
-232.69
-221.21
-200.32
-170.55
-133.51
-91.54
-47.32
-3.49
37.53
73.76
103.89
127.64
145.88
160.32
172.81
184.52
195.46
204.53
210.20
211.32
207.58
199.52
188.20
174.75
160.13
145.18
130.77
117.75
106.85
98.40
92.19
87.54
83.61
79.72
75.42
70.61
65.39
59.93
54.46
49.25
44.61
40.84
38.11
36.43
35.68
35.68
36.28
37.38
38.84
40.40
41.64
42.12
41.52
39.90
37.72
35.78
34.91
35.70
38.19
41.90
45.98
49.48
51.61
51.91
50.16
46.42
40.89
33.94
26.12
18.05
10.40
3.69
-1.81
-6.09
-9.31
-11.68
-13.35
-14.43
-14.95
-14.91
-14.30
-13.06
-11.16
-8.67
-5.79
-2.95
-0.72
0.27
-0.46
-3.16
-7.74
-13.72
-20.33
-26.70
-32.02
-35.80
-37.95
-38.71
-38.47
-37.50
-35.84
-33.31
-29.68
-24.98
-19.51
-13.90
-8.80
-4.74
-1.94
-0.31
0.47
0.72
0.73
0.63
0.45
0.11
-0.44
-1.27
-2.33
-3.50
-4.57
-5.25
-5.28
-4.47
-2.83
-0.57
1.92
4.22
5.98
7.06
7.50
7.49
7.26
6.95
6.53
5.86
4.73
2.98
0.56
-2.43
-5.70
-8.85
-11.43
-13.03
-13.34
-12.28
-9.97
-6.72
-2.95
0.93
4.65
8.10
11.22
13.93
16.02
17.23
17.34
16.33
14.42
12.05
9.68
7.69
6.22
5.31
4.90
4.99
5.59
6.70
8.17
9.76
11.14
12.04
12.35
12.15
11.75
11.48
11.60
12.16
13.00
13.78
14.24
14.24
13.91
13.51
13.36
13.66
14.45
15.71
17.40
19.59
22.37
25.79
29.68
33.75
37.61
40.93
43.56
45.52
46.95
48.03
48.95
49.95
51.25
53.05
55.40
58.16
61.06
63.84
66.38
68.82
71.51
74.78
78.66
82.71
86.00
87.18
84.89
78.02
66.07
49.28
28.69
5.89
-17.34
-39.37
-59.10
-76.04
-90.15
-101.58
-110.35
-116.28
-119.12
-118.82
-115.77
-110.74
-104.76
-98.65
-92.83
-87.29
-81.87
-76.48
-71.26
-66.50
-62.40
-58.84
-55.41
-51.57
-47.00
-41.67
-35.96
-30.41
-25.51
-21.53
-18.50
-16.28
-14.70
-13.61
-12.92
-12.56
-12.48
-12.60
-12.83
-13.17
-13.64
-14.34
-15.39
-16.85
-18.70
-20.80
-22.97
-24.93
-26.42
-27.14
-26.81
-25.29
-22.68
-19.40
-16.16
-13.69
-12.52
-12.74
-14.06
-15.97
-18.00
-19.90
-21.63
-23.28
-24.91
-26.49
-27.89
-28.92
-29.40
-29.24
-28.46
-27.20
-25.79
-24.64
-24.11
-24.45
-25.66
-27.53
-29.69
-31.82
-33.68
-35.19
-36.34
-37.23
-37.99
-38.78
-39.75
-40.97
-42.32
-43.41
-43.61
-42.19
-38.58
-32.70
-25.07
-16.64
-8.45
-1.10
5.43
11.69
18.37
25.86
34.00
42.23
49.88
56.52
62.03
66.43
69.61
71.16
70.53
67.35
61.68
54.11
45.57
37.02
29.22
22.59
17.30
13.33
10.62
8.99
8.14
7.65
6.98
5.65
3.37
0.23
-3.33
-6.62
-8.88
-9.59
-8.66
-6.42
-3.50
-0.57
1.94
3.89
5.36
6.49
7.30
7.74
7.78
7.62
7.73
8.73
11.10
14.97
20.00
25.56
30.89
35.39
38.63
40.35
40.38
38.71
35.52
31.38
27.13
23.78
22.22
22.90
25.73
30.09
35.10
39.78
43.37
45.42
45.91
45.17
43.71
42.08
40.67
39.57
38.64
37.57
36.00
33.68
30.40
25.99
20.27
13.09
4.48
-5.21
-15.29
-24.87
-33.12
-39.46
-43.68
-45.87
-46.21
-44.90
-42.07
-37.98
-33.09
-28.10
-23.78
-20.81
-19.55
-19.98
-21.80
-24.54
-27.80
-31.23
-34.58
-37.61
-40.02
-41.48
-41.72
-40.61
-38.22
-34.78
-30.57
-25.83
-20.77
-15.61
-10.65
-6.34
-3.14
-1.41
-1.23
-2.27
-3.96
-5.63
-6.72
-6.97
-6.38
-5.15
-3.59
-1.95
-0.45
0.76
1.60
2.02
2.05
1.74
1.17
0.42
-0.47
-1.52
-2.74
-4.08
-5.45
-6.64
-7.35
-7.22
-5.90
-3.09
1.31
7.13
13.92
21.01
27.69
33.38
37.78
40.84
42.76
43.84
44.32
44.39
44.15
43.62
42.76
41.53
39.88
37.77
35.19
32.24
29.07
25.81
22.59
19.46
16.46
13.65
11.12
9.00
7.44
6.52
6.25
6.60
7.54
9.04
11.07
13.58
16.46
19.57
22.73
25.61
27.59
27.72
24.86
18.05
6.88
-8.23
-26.00
-44.71
-62.61
-78.40
-91.32
-101.00
-107.24
-109.87
-108.82
-104.36
-97.21
-88.53
-79.56
-71.33
-64.30
-58.43
-53.35
-48.72
-44.39
-40.44
-37.02
-34.11
-31.52
-28.89
-25.97
-22.68
-19.19
-15.78
-12.72
-10.19
-8.20
-6.68
-5.54
-4.64
-3.80
-2.82
-1.51
0.27
2.57
5.34
8.43
11.67
14.88
17.87
20.39
22.16
22.85
22.23
20.31
17.38
14.03
10.86
8.18
5.80
2.98
-1.13
-7.03
-14.33
-21.67
-27.05
-28.42
-24.30
-14.11
1.50
20.65
40.33
56.78
66.29
66.15
55.59
36.13
11.25
-14.67
-37.60
-54.86
-65.50
-69.98
-69.61
-65.83
-59.93
-52.95
-45.82
-39.41
-34.54
-31.87
-31.68
-33.90
-38.04
-43.47
-49.49
-55.41
-60.45
-63.56
-63.39
-58.47
-47.72
-30.92
-9.01
16.01
41.49
64.70
83.31
95.70
101.12
99.66
92.14
79.90
64.51
47.43
29.72
12.01
-5.34
-21.99
-37.37
-50.69
-61.12
-68.08
-71.35
-71.11
-67.72
-61.68
-53.61
-44.36
-34.98
-26.64
-20.34
-16.50
-14.90
-14.73
-14.94
-14.62
-13.17
-10.39
-6.28
-0.89
5.78
13.73
22.82
32.70
42.78
52.39
61.00
68.29
74.22
78.95
82.65
85.39
87.08
87.61
86.95
85.34
83.18
80.92
78.83
76.91
74.89
72.35
68.81
63.92
57.49
49.63
40.79
31.68
23.11
15.74
9.80
5.06
0.87
-3.44
-8.30
-13.66
-19.13
-24.10
-28.03
-30.54
-31.47
-30.74
-28.38
-24.55
-19.62
-14.09
-8.53
-3.36
1.29
5.53
9.62
13.72
17.80
21.67
25.10
27.98
30.36
32.41
34.30
36.11
37.81
39.27
40.35
40.87
40.63
39.40
36.97
33.22
28.16
21.99
15.05
7.84
0.90
-5.15
-9.78
-12.59
-13.41
-12.44
-10.14
-7.16
-4.07
-1.22
1.43
4.12
7.19
10.83
14.97
19.38
23.79
28.00
31.93
35.55
38.78
41.56
43.92
46.09
48.55
51.89
56.60
62.84
70.38
78.71
87.35
95.99
104.64
113.59
123.18
133.76
145.58
158.79
173.34
188.83
204.19
217.59
226.66
229.01
223.12
208.85
187.58
161.73
134.00
106.53
80.41
55.75
31.77
7.29
-18.95
-47.98
-80.28
-115.42
-151.85
-186.99
-217.65
-240.88
-254.99
-260.26
-259.03
-254.72
-250.34
-247.14
-244.10
-238.74
-228.62
-212.97
-193.06
-171.62
-151.31
-133.50
-117.88
-103.15
-88.07
-72.32
-56.45
-41.32
-27.41
-14.46
-1.76
11.42
25.36
39.72
53.61
65.94
75.81
82.81
87.13
89.34
90.05
89.58
87.83
84.45
79.21
72.43
65.06
58.47
53.94
52.09
52.65
54.53
56.34
56.81
55.28
51.61
46.06
38.94
30.57
21.28
11.66
2.54
-5.19
-10.88
-14.44
-16.37
-17.47
-18.46
-19.69
-21.05
-22.14
-22.59
-22.36
-21.74
-21.28
-21.56
-22.93
-25.39
-28.67
-32.53
-37.10
-43.07
-51.53
-63.59
-79.73
-99.41
-121.08
-142.56
-161.68
-176.75
-186.87
-191.96
-192.63
-190.12
-186.08
-182.24
-179.90
-179.43
-179.94
-179.54
-175.98
-167.52
-153.67
-135.30
-114.27
-92.62
-71.85
-52.50
-34.23
-16.39
1.42
19.03
35.73
50.66
63.29
73.67
82.33
89.92
96.86
103.06
108.02
111.09
111.82
110.12
106.27
100.78
94.17
86.85
79.08
71.05
62.96
55.04
47.53
40.57
34.14
28.02
21.79
15.09
7.71
-0.23
-8.34
-16.14
-23.20
-29.34
-34.53
-38.81
-42.02
-43.85
-43.86
-41.78
-37.73
-32.31
-26.44
-21.07
-16.77
-13.50
-10.68
-7.44
-3.10
2.56
9.15
15.91
22.02
26.82
29.93
31.24
30.84
29.03
26.38
23.66
21.73
21.20
22.16
24.14
26.29
27.86
28.49
28.45
28.42
29.19
31.23
34.53
38.56
42.51
45.46
46.66
45.63
42.17
36.39
28.66
19.50
9.61
-0.24
-9.28
-16.81
-22.32
-25.52
-26.33
-24.89
-21.58
-16.98
-11.92
-7.42
-4.48
-3.85
-5.67
-9.41
-13.99
-18.25
-21.39
-23.31
-24.55
-25.93
-28.02
-30.88
-33.98
-36.60
-38.23
-38.78
-38.59
-38.05
-37.31
-36.12
-34.00
-30.55
-25.79
-20.21
-14.63
-9.80
-6.18
-3.83
-2.54
-2.05
-2.16
-2.73
-3.67
-4.84
-6.09
-7.33
-8.47
-9.47
-10.19
-10.41
-9.91
-8.59
-6.61
-4.38
-2.39
-1.03
-0.50
-0.70
-1.37
-2.21
-2.94
-3.46
-3.78
-4.10
-4.65
-5.59
-6.89
-8.24
-9.15
-9.09
-7.71
-5.00
-1.24
3.03
7.29
11.11
14.29
16.87
19.12
21.39
23.98
26.98
30.19
33.21
35.54
36.86
37.03
36.17
34.60
32.66
30.68
28.88
27.35
26.04
24.81
23.49
21.98
20.32
18.63
17.07
15.66
14.29
12.76
10.89
8.62
5.98
3.03
-0.21
-3.74
-7.38
-10.66
-12.82
-13.04
-10.81
-6.25
-0.15
6.32
12.01
16.19
18.69
19.79
19.97
19.59
18.89
18.01
17.14
16.54
16.47
17.13
18.49
20.34
22.33
24.14
25.51
26.37
26.77
26.81
26.62
26.24
25.65
24.72
23.40
21.72
19.88
18.19
16.93
16.21
15.85
15.46
14.61
13.01
10.73
8.16
5.89
4.36
3.78
3.97
4.53
5.06
5.32
5.29
5.09
4.91
4.81
4.79
4.78
4.81
4.96
5.42
6.28
7.49
8.74
9.55
9.48
8.17
5.53
1.76
-2.71
-7.26
-11.24
-14.04
-15.28
-14.92
-13.24
-10.78
-8.12
-5.71
-3.77
-2.28
-1.11
-0.03
1.17
2.71
4.83
7.75
11.58
16.24
21.50
26.99
32.32
37.12
41.00
43.61
44.63
43.91
41.61
38.26
34.50
30.89
27.54
24.09
19.87
14.31
7.24
-0.95
-9.49
-17.45
-24.10
-29.05
-32.14
-33.39
-32.87
-30.70
-27.09
-22.39
-17.04
-11.59
-6.43
-1.87
2.08
5.58
9.01
12.72
16.91
21.55
26.36
30.94
34.84
37.60
38.76
37.71
33.85
26.72
16.35
3.49
-10.39
-23.48
-34.14
-41.46
-45.43
-46.78
-46.52
-45.45
-43.96
-42.04
-39.63
-36.84
-34.09
-31.87
-30.54
-30.10
-30.24
-30.50
-30.52
-30.15
-29.45
-28.61
-27.68
-26.63
-25.28
-23.48
-21.18
-18.59
-16.10
-14.19
-13.18
-13.08
-13.51
-13.83
-13.45
-12.15
-10.21
-8.19
-6.68
-5.84
-5.35
-4.54
-2.84
-0.14
3.06
5.90
7.48
7.33
5.47
2.37
-1.38
-5.36
-9.34
-13.22
-16.82
-19.83
-21.83
-22.44
-21.59
-19.54
-16.85
-14.18
-12.00
-10.50
-9.58
-8.95
-8.27
-7.30
-5.95
-4.28
-2.38
-0.41
1.51
3.28
4.83
6.08
6.96
7.34
7.12
6.26
4.79
2.93
0.97
-0.80
-2.16
-2.99
-3.32
-3.27
-2.95
-2.52
-2.12
-1.91
-2.02
-2.49
-3.28
-4.30
-5.42
-6.56
-7.68
-8.82
-10.04
-11.45
-13.12
-15.02
-16.98
-18.58
-19.33
-18.77
-16.71
-13.36
-9.20
-4.87
-0.87
2.53
5.27
7.38
8.89
9.77
10.02
9.72
9.13
8.52
8.15
8.18
8.59
9.27
10.07
10.84
11.46
11.88
12.11
12.22
12.23
12.15
11.87
11.16
9.85
7.89
5.42
2.73
0.09
-2.40
-4.81
-7.23
-9.63
-11.64
-12.69
-12.27
-10.18
-6.65
-2.22
2.53
7.22
11.66
15.81
19.54
22.62
24.78
25.91
26.22
26.13
26.10
26.42
27.09
27.85
28.37
28.45
28.02
27.14
25.95
24.52
22.85
20.89
18.59
15.90
12.85
9.54
6.13
2.83
-0.20
-2.91
-5.38
-7.86
-10.68
-14.08
-18.11
-22.49
-26.70
-30.07
-31.96
-32.01
-30.18
-26.80
-22.44
-17.79
-13.41
-9.62
-6.50
-3.86
-1.43
1.03
3.64
6.38
9.11
11.72
14.18
16.56
19.05
21.75
24.71
27.88
31.13
34.31
37.22
39.67
41.34
41.90
41.05
38.63
34.70
29.61
23.88
18.13
12.83
8.23
4.35
0.99
-2.11
-5.18
-8.35
-11.56
-14.59
-17.03
-18.46
-18.43
-16.69
-13.19
-8.17
-2.04
4.66
11.41
17.78
23.41
27.95
30.95
31.81
29.91
24.71
16.03
4.18
-10.03
-25.27
-39.96
-52.49
-61.56
-66.41
-67.02
-64.18
-59.27
-54.00
-49.85
-47.76
-47.82
-49.30
-50.99
-51.54
-49.89
-45.57
-38.73
-30.11
-20.74
-11.74
-3.98
2.06
6.41
9.50
11.96
14.40
17.17
20.23
23.28
25.82
27.41
27.77
26.87
24.81
21.75
17.85
13.30
8.36
3.40
-1.16
-5.07
-8.26
-10.95
-13.32
-15.36
-16.69
-16.76
-15.15
-11.96
-7.89
-3.99
-1.21
0.01
-0.15
-1.05
-1.92
-2.15
-1.37
0.53
3.59
7.75
12.81
18.38
23.87
28.55
31.81
33.28
33.06
31.71
30.11
29.04
28.79
28.82
27.91
24.65
18.12
8.48
-2.99
-14.43
-24.14
-31.14
-35.40
-37.46
-37.99
-37.38
-35.82
-33.43
-30.63
-28.05
-26.35
-25.85
-26.36
-27.28
-27.88
-27.66
-26.54
-24.79
-22.75
-20.63
-18.37
-15.73
-12.57
-8.95
-5.22
-1.84
0.77
2.43
3.22
3.36
3.08
2.51
1.70
0.56
-0.98
-2.92
-5.13
-7.33
-9.09
-9.92
-9.49
-7.75
-4.98
-1.72
1.50
4.37
6.83
9.07
11.30
13.64
16.04
18.32
20.26
21.69
22.54
22.84
22.69
22.25
21.68
21.17
20.80
20.58
20.46
20.40
20.35
20.23
19.97
19.49
18.73
17.72
16.57
15.47
14.55
13.86
13.34
12.83
12.19
11.34
10.27
8.95
7.37
5.46
3.22
0.75
-1.68
-3.68
-4.86
-5.00
-4.15
-2.61
-0.82
0.85
2.23
3.44
4.70
6.24
8.07
9.96
11.50
12.27
12.07
11.00
9.46
7.97
7.01
6.75
7.04
7.50
7.76
7.67
7.40
7.26
7.50
8.08
8.64
8.73
8.05
6.61
4.76
2.90
1.31
-0.05
-1.41
-3.05
-5.14
-7.67
-10.50
-13.46
-16.33
-18.85
-20.65
-21.32
-20.47
-17.95
-13.83
-8.40
-2.14
4.39
10.66
16.19
20.72
24.22
26.91
29.18
31.40
33.78
36.34
38.94
41.43
43.78
46.03
48.30
50.62
52.93
55.13
57.08
58.75
60.11
61.18
61.91
62.26
62.16
61.64
60.77
59.61
58.08
55.94
52.79
48.19
41.87
33.82
24.32
13.80
2.73
-8.54
-19.74
-30.66
-41.04
-50.51
-58.69
-65.16
-69.66
-72.14
-72.92
-72.66
-72.27
-72.62
-74.23
-76.97
-80.05
-82.22
-82.25
-79.44
-73.82
-66.21
-57.88
-50.20
-44.24
-40.63
-39.42
-40.25
-42.36
-44.83
-46.66
-46.98
-45.26
-41.44
-35.92
-29.45
-22.92
-17.05
-12.21
-8.47
-5.66
-3.61
-2.25
-1.65
-1.83
-2.79
-4.39
-6.47
-8.87
-11.44
-13.99
-16.16
-17.51
-17.58
-16.17
-13.46
-10.00
-6.60
-3.96
-2.46
-2.05
-2.26
-2.48
-2.11
-0.83
1.37
4.13
6.98
9.54
11.64
13.42
15.20
17.24
19.60
22.07
24.28
25.91
26.81
27.09
26.97
26.66
26.24
25.72
25.05
24.23
23.22
22.03
20.60
18.92
17.01
14.99
12.99
11.08
9.30
7.63
6.09
4.81
3.97
3.70
3.94
4.47
5.04
5.45
5.73
6.05
6.62
7.52
8.55
9.28
9.26
8.29
6.62
4.96
4.29
5.43
8.80
14.30
21.44
29.66
38.59
48.11
58.14
68.34
78.02
86.14
91.68
94.04
93.30
90.20
85.83
81.27
77.12
73.28
68.96
62.95
54.07
41.62
25.70
7.17
-12.54
-31.76
-48.98
-63.09
-73.37
-79.58
-81.94
-81.05
-77.89
-73.68
-69.55
-66.31
-64.18
-62.80
-61.50
-59.64
-56.99
-53.89
-51.07
-49.25
-48.70
-49.06
-49.39
-48.60
-45.96
-41.38
-35.48
-29.25
-23.73
-19.62
-17.24
-16.54
-17.33
-19.41
-22.62
-26.79
-31.64
-36.77
-41.61
-45.51
-47.84
-48.06
-45.84
-41.17
-34.42
-26.36
-17.99
-10.36
-4.31
-0.36
1.34
0.99
-0.96
-3.86
-6.96
-9.55
-11.10
-11.51
-11.03
-10.19
-9.45
-9.00
-8.66
-8.02
-6.80
-4.96
-2.82
-0.80
0.75
1.81
2.65
3.67
5.18
7.26
9.78
12.45
14.92
16.88
18.17
18.68
18.49
17.74
16.61
15.30
14.00
12.82
11.81
10.89
9.80
8.12
5.37
1.26
-4.08
-10.01
-15.49
-19.45
-21.18
-20.59
-18.22
-14.87
-11.30
-7.96
-4.95
-2.19
0.33
2.48
4.04
4.84
4.91
4.55
4.16
4.06
4.40
5.07
5.81
6.41
6.79
7.03
7.30
7.78
8.48
9.32
10.06
10.47
10.36
9.68
8.49
7.01
5.44
4.01
2.81
1.82
0.94
0.01
-1.17
-2.74
-4.85
-7.56
-10.81
-14.33
-17.65
-20.19
-21.38
-20.90
-18.77
-15.36
-11.24
-6.98
-3.04
0.42
3.40
6.03
8.40
10.47
12.13
13.25
13.77
13.79
13.55
13.36
13.44
13.87
14.52
15.17
15.61
15.74
15.61
15.41
15.33
15.39
15.50
15.43
14.98
14.08
12.80
11.26
9.62
7.89
6.03
3.97
1.66
-0.91
-3.73
-6.76
-9.97
-13.26
-16.44
-19.15
-20.98
-21.58
-20.74
-18.56
-15.33
-11.49
-7.48
-3.62
-0.09
3.07
5.82
8.11
9.84
10.94
11.39
11.32
11.04
10.88
11.17
12.02
13.29
14.68
15.85
16.59
16.93
17.03
17.11
17.18
17.07
16.45
15.05
12.83
10.01
6.94
3.95
1.17
-1.46
-4.15
-7.15
-10.62
-14.56
-18.83
-23.07
-26.82
-29.55
-30.85
-30.54
-28.70
-25.66
-21.88
-17.74
-13.52
-9.34
-5.31
-1.57
1.68
4.25
6.05
7.14
7.74
8.11
8.47
8.97
9.62
10.37
11.11
11.77
12.30
12.65
12.83
12.83
12.65
12.24
11.55
10.51
9.09
7.38
5.50
3.59
1.68
-0.33
-2.65
-5.49
-8.97
-13.02
-17.35
-21.48
-24.82
-26.86
-27.29
-26.08
-23.52
-20.09
-16.40
-12.98
-10.17
-8.15
-6.90
-6.33
-6.34
-6.83
-7.72
-8.96
-10.50
-12.31
-14.36
-16.64
-19.09
-21.63
-24.12
-26.41
-28.40
-30.05
-31.45
-32.72
-33.94
-35.12
-36.12
-36.75
-36.79
-36.11
-34.71
-32.72
-30.40
-28.06
-26.03
-24.52
-23.56
-22.96
-22.27
-20.93
-18.40
-14.33
-8.70
-1.76
6.00
14.06
21.92
29.20
35.62
40.98
45.17
48.09
49.76
50.33
50.09
49.43
48.73
48.24
47.99
47.81
47.34
46.29
44.49
42.05
39.22
36.30
33.47
30.71
27.89
24.88
21.67
18.41
15.30
12.50
9.99
7.63
5.21
2.58
-0.36
-3.60
-7.11
-10.85
-14.75
-18.64
-22.22
-25.08
-26.87
-27.32
-26.41
-24.28
-21.08
-16.96
-12.03
-6.48
-0.70
4.73
9.13
12.03
13.29
13.20
12.28
11.08
9.94
8.93
7.93
6.90
6.02
5.72
6.61
9.26
13.97
20.60
28.55
36.85
44.41
50.23
53.62
54.29
52.40
48.38
42.91
36.68
30.22
23.76
17.24
10.48
3.36
-3.86
-10.57
-15.84
-18.85
-19.21
-17.15
-13.47
-9.19
-5.23
-2.12
0.01
1.34
2.07
2.35
2.21
1.70
1.01
0.40
0.18
0.48
1.22
2.12
2.88
3.40
3.75
4.21
5.03
6.30
7.89
9.48
10.70
11.28
11.06
10.11
8.55
6.62
4.51
2.39
0.34
-1.64
-3.59
-5.64
-7.92
-10.61
-13.83
-17.60
-21.72
-25.71
-28.91
-30.67
-30.56
-28.57
-25.13
-20.93
-16.72
-13.03
-10.10
-7.88
-6.18
-4.72
-3.24
-1.45
0.94
4.11
8.00
12.23
16.14
19.01
20.51
20.86
20.95
21.90
24.56
29.01
34.43
39.39
42.41
42.48
39.39
33.64
26.16
18.02
10.07
2.83
-3.55
-9.36
-15.13
-21.50
-28.92
-37.48
-46.83
-56.24
-64.81
-71.54
-75.41
-75.46
-70.95
-61.66
-48.23
-32.19
-15.65
-0.80
10.82
18.67
23.30
25.95
28.05
30.71
34.40
39.02
44.02
48.88
53.28
57.35
61.48
66.13
71.52
77.51
83.66
89.41
94.32
98.12
100.72
102.02
101.79
99.69
95.48
89.15
81.06
71.88
62.37
53.09
44.26
35.85
27.69
19.80
12.47
6.22
1.67
-0.78
-1.03
0.75
4.11
8.48
13.07
16.86
18.49
16.37
9.04
-4.43
-24.04
-48.56
-75.66
-102.27
-125.11
-141.43
-149.50
-148.91
-140.51
-126.00
-107.34
-86.28
-64.17
-42.10
-21.16
-2.61
12.26
22.46
27.75
28.72
26.65
22.94
18.71
14.50
10.28
5.81
0.87
-4.58
-10.35
-16.23
-22.04
-27.66
-33.02
-37.96
-42.13
-45.07
-46.29
-45.45
-42.60
-38.22
-33.11
-28.11
-23.73
-19.95
-16.27
-12.01
-6.70
-0.32
6.60
13.24
18.71
22.30
23.55
22.26
18.47
12.45
4.75
-3.87
-12.58
-20.62
-27.48
-32.92
-36.81
-39.07
-39.53
-38.01
-34.52
-29.31
-22.96
-16.22
-9.85
-4.41
-0.19
2.87
5.05
6.81
8.60
10.70
13.11
15.52
17.40
18.18
17.55
15.53
12.49
8.99
5.50
2.25
-0.72
-3.46
-5.87
-7.69
-8.57
-8.29
-6.83
-4.46
-1.48
1.93
5.85
10.53
16.12
22.49
29.08
35.06
39.64
42.41
43.45
43.25
42.43
41.36
40.02
38.00
34.78
29.99
23.71
16.42
8.88
1.84
-4.12
-8.69
-11.76
-13.31
-13.35
-12.01
-9.57
-6.55
-3.62
-1.39
-0.18
0.19
0.27
0.82
2.43
5.23
8.87
12.65
15.89
18.24
19.75
20.72
21.52
22.22
22.67
22.58
21.78
20.38
18.77
17.40
16.60
16.37
16.46
16.47
16.06
15.04
13.45
11.46
9.32
7.32
5.74
4.78
4.54
5.04
6.24
8.02
10.27
12.82
15.49
18.02
20.15
21.64
22.39
22.46
22.03
21.29
20.37
19.22
17.75
15.85
13.52
10.84
7.87
4.56
0.68
-4.14
-10.20
-17.53
-25.72
-33.99
-41.34
-46.90
-50.20
-51.26
-50.45
-48.25
-44.93
-40.48
-34.64
-27.27
-18.54
-8.99
0.69
9.98
18.78
27.54
36.91
47.42
59.15
71.63
84.01
95.44
105.41
113.82
120.95
127.11
132.48
136.94
140.13
141.62
141.04
138.16
132.91
125.44
116.05
105.18
93.34
81.02
68.56
56.08
43.51
30.62
17.16
2.94
-11.99
-27.26
-42.25
-56.18
-68.32
-78.25
-85.98
-91.85
-96.34
-99.75
-102.14
-103.36
-103.36
-102.41
-101.11
-100.17
-99.94
-100.09
-99.56
-96.90
-90.89
-80.97
-67.56
-51.90
-35.73
-20.88
-8.94
-1.03
2.37
1.42
-3.07
-9.86
-17.62
-25.21
-31.94
-37.55
-42.00
-45.27
-47.27
-47.90
-47.18
-45.46
-43.40
-41.73
-41.08
-41.70
-43.42
-45.71
-47.89
-49.37
-49.80
-49.18
-47.82
-46.16
-44.70
-43.86
-43.88
-44.83
-46.70
-49.40
-52.83
-56.90
-61.55
-66.74
-72.41
-78.49
-84.73
-90.76
-96.11
-100.36
-103.34
-105.36
-107.24
-110.13
-115.20
-123.28
-134.64
-149.04
-165.86
-184.34
-203.68
-222.99
-241.24
-257.15
-269.28
-276.17
-276.63
-269.98
-256.28
-236.44
-212.06
-185.17
-157.70
-131.00
-105.59
-81.08
-56.46
-30.54
-2.38
28.15
60.21
92.17
121.89
147.27
166.64
179.07
184.63
184.29
179.59
172.17
163.33
153.67
143.19
131.60
118.87
105.39
91.93
79.23
67.69
57.29
47.95
39.96
34.22
31.83
33.48
38.93
47.15
56.89
67.38
78.87
92.55
109.92
132.07
159.02
189.43
220.86
250.20
274.46
291.37
299.99
301.02
296.82
291.01
287.57
289.81
299.35
315.60
335.90
356.27
372.58
381.46
380.92
370.35
350.24
321.71
286.30
245.91
202.74
159.29
117.99
80.71
48.47
21.25
-1.88
-22.29
-41.25
-59.49
-77.09
-93.64
-108.75
-122.35
-134.84
-147.01
-159.71
-173.53
-188.58
-204.38
-219.95
-233.94
-245.03
-252.25
-255.37
-255.03
-252.48
-249.13
-245.95
-243.13
-240.17
-236.23
-230.81
-224.05
-216.91
-210.76
-206.97
-206.43
-209.27
-214.79
-221.45
-226.91
-228.18
-222.24
-207.07
-182.60
-151.07
-116.60
-83.76
-56.21
-35.57
-21.28
-11.23
-2.71
6.65
18.32
32.67
49.08
66.21
82.46
96.47
107.70
116.46
123.55
129.42
133.41
133.77
128.39
115.93
96.76
73.10
48.33
25.82
7.87
-4.78
-12.49
-16.04
-16.05
-12.93
-7.35
-0.72
4.76
6.74
3.79
-3.65
-13.11
-20.85
-23.31
-18.75
-8.25
4.58
14.97
19.08
15.69
6.80
-3.32
-10.06
-10.49
-4.53
5.26
15.00
21.29
22.52
19.26
13.97
10.13
11.18
19.56
36.02
59.16
85.69
111.23
131.63
144.22
148.51
146.16
140.21
133.97
129.87
128.59
128.60
126.40
117.42
97.48
64.48
19.55
-32.74
-85.47
-131.21
-164.11
-181.20
-182.75
-171.59
-151.96
-128.36
-104.73
-84.11
-68.29
-57.72
-51.48
-47.49
-43.17
-36.27
-25.76
-12.20
2.52
15.85
25.59
30.56
30.89
27.57
21.87
14.68
6.29
-3.46
-14.78
-27.37
-40.18
-51.49
-59.38
-62.38
-60.00
-52.92
-42.72
-31.36
-20.63
-11.72
-5.13
-0.84
1.49
2.27
2.01
1.33
1.10
2.38
6.14
12.80
21.87
31.95
41.08
47.55
50.64
50.80
49.39
47.94
47.36
47.62
47.89
47.03
44.22
39.37
32.97
25.66
17.70
8.61
-2.58
-16.64
-33.21
-50.36
-64.68
-72.49
-71.23
-60.61
-42.71
-21.04
0.92
20.83
37.65
50.98
60.14
64.01
61.59
53.02
40.27
26.87
16.75
12.82
16.01
25.04
36.99
48.32
55.79
57.26
52.05
40.92
25.61
8.35
-8.71
-23.82
-35.65
-43.24
-46.16
-45.11
-42.20
-40.80
-44.29
-54.45
-70.29
-88.11
-102.96
-110.79
-110.01
-101.89
-89.57
-76.65
-65.92
-58.64
-54.68
-52.94
-51.90
-50.18
-47.03
-42.75
-38.71
-36.89
-38.76
-44.39
-52.07
-58.67
-60.79
-56.20
-44.77
-28.56
-11.01
4.45
15.91
23.68
30.18
38.71
51.92
70.68
93.99
119.77
145.83
170.45
192.20
209.42
219.93
221.47
212.79
194.53
169.42
141.31
113.58
87.90
64.15
41.61
20.48
2.70
-8.75
-11.74
-6.89
1.80
8.04
6.02
-7.00
-29.38
-55.84
-79.95
-96.87
-104.98
-105.55
-101.15
-93.76
-83.76
-70.24
-52.26
-30.19
-6.14
16.61
34.86
46.88
52.83
54.37
53.57
51.69
48.73
43.85
36.27
26.34
15.87
7.56
3.73
5.22
10.78
17.58
22.50
23.43
20.09
13.89
7.06
1.55
-1.66
-2.62
-2.01
-0.58
1.18
3.07
4.96
6.62
7.70
7.85
6.87
4.79
1.86
-1.64
-5.35
-8.96
-12.21
-14.81
-16.52
-17.17
-16.73
-15.32
-13.25
-10.96
-8.82
-7.09
-5.79
-4.80
-3.97
-3.31
-3.01
-3.42
-4.78
-7.13
-10.27
-13.91
-17.83
-22.00
-26.49
-31.26
-36.00
-40.15
-43.10
-44.44
-44.17
-42.69
-40.54
-38.15
-35.70
-33.09
-30.03
-26.16
-21.07
-14.36
-5.71
4.93
17.11
29.71
41.07
49.44
53.52
52.98
48.57
41.81
34.43
27.70
22.22
17.90
14.27
10.87
7.41
3.83
0.06
-4.05
-8.81
-14.43
-20.86
-27.63
-33.90
-38.72
-41.45
-41.92
-40.58
-38.32
-36.11
-34.73
-34.59
-35.74
-37.92
-40.75
-43.75
-46.46
-48.35
-48.98
-47.98
-45.17
-40.57
-34.45
-27.35
-20.01
-13.23
-7.65
-3.56
-0.82
1.02
2.47
3.82
5.07
6.03
6.54
6.68
6.80
7.37
8.73
10.97
13.90
17.24
20.82
24.61
28.76
33.35
38.29
43.24
47.66
50.96
52.71
52.68
50.94
47.74
43.44
38.41
33.01
27.59
22.43
17.70
13.37
9.19
4.73
-0.43
-6.43
-12.97
-19.30
-24.47
-27.64
-28.41
-26.93
-23.82
-19.85
-15.68
-11.63
-7.73
-3.86
0.07
4.03
7.80
11.05
13.56
15.23
16.14
16.56
16.78
17.11
17.75
18.73
19.94
21.05
21.55
20.94
18.80
15.06
10.11
4.69
-0.31
-4.20
-6.73
-8.12
-8.92
-9.59
-10.37
-11.17
-11.71
-11.76
-11.28
-10.51
-9.89
-9.85
-10.75
-12.75
-15.67
-19.07
-22.28
-24.65
-25.67
-25.15
-23.23
-20.24
-16.51
-12.28
-7.69
-2.84
2.00
6.42
9.91
12.04
12.69
12.09
10.77
9.33
8.28
7.82
7.84
8.00
7.85
7.03
5.40
3.16
0.82
-0.96
-1.60
-0.88
0.86
2.79
3.80
2.83
-0.78
-7.11
-15.65
-25.34
-34.61
-41.57
-44.37
-41.79
-33.82
-21.95
-8.73
3.27
12.52
19.13
24.58
30.61
38.15
46.74
54.97
61.46
65.75
68.48
70.84
73.60
76.51
78.39
77.74
73.66
66.27
56.67
46.36
36.63
28.15
21.00
14.87
9.42
4.46
-0.03
-3.95
-7.17
-9.57
-11.06
-11.59
-11.20
-10.07
-8.48
-6.82
-5.47
-4.73
-4.75
-5.54
-6.96
-8.76
-10.69
-12.56
-14.33
-16.14
-18.19
-20.65
-23.45
-26.22
-28.45
-29.61
-29.40
-27.92
-25.64
-23.27
-21.62
-21.27
-22.42
-24.80
-27.83
-30.86
-33.47
-35.71
-38.00
-40.95
-45.00
-50.20
-56.17
-62.24
-67.49
-70.87
-71.34
-68.00
-60.72
-50.49
-39.47
-30.32
-24.98
-23.62
-24.35
-24.07
-20.09
-11.46
0.61
13.59
25.07
33.87
40.23
45.06
48.92
51.41
51.39
47.79
40.43
30.19
18.78
8.08
-0.42
-5.83
-7.80
-6.30
-1.50
6.26
16.36
27.95
39.87
50.86
59.70
65.65
68.49
68.70
67.24
65.21
63.47
62.44
62.03
61.82
61.36
60.37
58.82
56.83
54.54
52.00
49.09
45.55
41.03
35.20
27.82
18.83
8.43
-3.02
-15.12
-27.49
-39.92
-52.28
-64.48
-76.34
-87.60
-97.92
-106.82
-113.71
-117.87
-118.59
-115.52
-108.97
-100.13
-90.78
-82.64
-76.72
-72.98
-70.50
-68.20
-65.41
-62.19
-59.13
-56.82
-55.36
-54.22
-52.42
-49.08
-43.82
-36.88
-29.04
-21.26
-14.25
-8.25
-2.94
2.33
8.19
14.92
22.39
30.18
37.82
45.00
51.52
57.14
61.55
64.37
65.44
64.99
63.59
61.99
60.62
59.38
57.63
54.55
49.48
42.29
33.41
23.62
13.77
4.51
-3.76
-10.91
-16.93
-21.87
-25.80
-28.77
-30.80
-31.89
-31.98
-30.99
-28.93
-25.84
-21.87
-17.16
-11.74
-5.49
1.94
10.95
21.83
34.49
48.35
62.32
75.14
85.70
93.39
98.23
100.73
101.49
100.91
99.02
95.54
90.24
83.16
74.77
65.76
56.71
47.75
38.40
27.72
14.72
-1.21
-19.87
-40.11
-60.12
-77.90
-91.86
-101.17
-105.96
-106.96
-105.18
-101.36
-95.74
-87.94
-77.27
-63.06
-45.10
-23.94
-0.78
22.74
44.91
64.25
79.66
90.47
96.37
97.20
92.97
83.73
69.70
51.34
29.52
5.79
-17.65
-38.18
-53.13
-60.56
-59.83
-51.95
-39.47
-25.80
-14.24
-6.89
-4.19
-5.17
-8.30
-12.43
-17.35
-23.49
-31.10
-39.44
-46.62
-50.24
-48.51
-41.23
-29.93
-17.19
-5.45
3.89
10.73
15.81
19.97
23.63
26.60
28.36
28.55
27.17
24.77
22.07
19.74
18.02
16.76
15.55
14.02
12.01
9.68
7.36
5.29
3.52
1.84
-0.02
-2.28
-4.91
-7.70
-10.40
-12.85
-15.12
-17.41
-20.00
-23.05
-26.52
-30.08
-33.15
-35.05
-35.24
-33.67
-30.98
-28.25
-26.70
-27.07
-29.26
-32.42
-35.26
-36.59
-35.72
-32.49
-27.18
-20.27
-12.33
-3.99
4.07
11.31
17.49
22.79
27.68
32.64
37.89
43.25
48.34
52.81
56.63
60.02
63.30
66.56
69.51
71.63
72.54
72.28
71.32
70.30
69.56
68.86
67.32
63.79
57.28
47.39
34.36
18.92
2.07
-15.12
-31.64
-46.52
-59.00
-68.58
-75.09
-78.62
-79.37
-77.51
-73.16
-66.42
-57.50
-46.79
-34.82
-22.15
-9.29
3.36
15.43
26.55
36.31
44.29
50.12
53.59
54.76
54.01
51.99
49.44
46.91
44.62
42.36
39.61
35.84
30.72
24.24
16.59
8.09
-1.05
-10.66
-20.47
-30.03
-38.58
-45.35
-49.79
-51.81
-51.85
-50.60
-48.67
-46.39
-43.77
-40.71
-37.30
-33.82
-30.66
-28.05
-25.91
-23.92
-21.84
-19.77
-18.22
-17.86
-19.13
-21.94
-25.66
-29.45
-32.71
-35.54
-38.67
-43.20
-50.04
-59.45
-70.95
-83.43
-95.57
-106.08
-113.83
-117.83
-117.38
-112.32
-103.39
-92.28
-80.97
-70.71
-61.19
-50.49
-36.21
-17.20
5.22
27.45
45.20
55.67
58.98
57.80
55.73
55.30
56.87
59.17
60.55
60.37
59.25
58.40
58.64
59.74
60.61
60.08
57.52
53.10
47.46
41.29
34.97
28.54
21.93
15.14
8.36
1.96
-3.60
-7.90
-10.56
-11.48
-10.82
-8.99
-6.57
-4.17
-2.20
-0.85
-0.12
0.14
0.08
-0.16
-0.48
-0.80
-1.03
-1.07
-0.82
-0.19
0.89
2.39
4.16
6.00
7.69
9.18
10.64
12.40
14.70
17.47
20.28
22.48
23.57
23.49
22.72
22.04
22.11
23.14
24.72
26.11
26.69
26.22
24.91
23.15
21.23
19.13
16.67
13.75
10.58
7.69
5.76
5.31
6.46
8.82
11.62
13.93
14.91
14.07
11.42
7.52
3.24
-0.39
-2.58
-2.93
-1.57
0.93
3.81
6.32
7.96
8.63
8.56
8.15
7.78
7.63
7.63
7.60
7.37
6.84
6.02
4.94
3.66
2.27
0.92
-0.18
-0.84
-1.05
-1.04
-1.16
-1.71
-2.72
-3.91
-4.72
-4.52
-2.74
0.87
6.16
12.50
18.92
24.37
28.07
29.80
29.90
29.05
27.93
26.85
25.74
24.35
22.55
20.55
18.82
17.79
17.63
18.14
18.95
19.67
20.10
20.15
19.71
18.58
16.51
13.48
9.77
5.96
2.67
0.24
-1.41
-2.64
-3.83
-5.09
-6.24
-6.96
-7.05
-6.64
-6.07
-5.72
-5.84
-6.39
-7.18
-8.03
-8.83
-9.61
-10.44
-11.37
-12.44
-13.67
-15.09
-16.74
-18.57
-20.44
-22.11
-23.31
-23.78
-23.40
-22.19
-20.23
-17.70
-14.81
-11.77
-8.88
-6.40
-4.54
-3.36
-2.74
-2.43
-2.13
-1.65
-0.94
-0.04
0.96
2.03
3.15
4.30
5.36
6.16
6.56
6.52
6.14
5.61
5.09
4.64
4.18
3.62
2.88
1.90
0.65
-0.94
-3.03
-5.82
-9.36
-13.50
-17.83
-21.69
-24.36
-25.31
-24.38
-21.87
-18.38
-14.67
-11.30
-8.58
-6.49
-4.78
-3.21
-1.65
-0.09
1.33
2.48
3.25
3.68
3.89
4.01
4.17
4.39
4.62
4.78
4.77
4.53
3.99
3.12
1.85
0.16
-1.92
-4.22
-6.52
-8.65
-10.51
-12.18
-13.89
-15.85
-18.23
-21.05
-24.07
-26.92
-29.12
-30.23
-30.03
-28.58
-26.20
-23.36
-20.49
-17.85
-15.44
-13.08
-10.59
-7.91
-5.12
-2.42
-0.04
1.92
3.45
4.66
5.65
6.43
7.02
7.40
7.63
7.90
8.39
9.22
10.34
11.51
12.37
12.60
12.04
10.81
9.18
7.49
5.97
4.62
3.28
1.65
-0.55
-3.47
-7.04
-10.93
-14.64
-17.64
-19.48
-19.97
-19.25
-17.63
-15.55
-13.33
-11.14
-9.06
-7.06
-5.17
-3.44
-1.93
-0.61
0.65
2.04
3.72
5.70
7.84
9.96
11.91
13.68
15.40
17.23
19.25
21.32
23.16
24.46
24.96
24.63
23.59
22.07
20.30
18.44
16.61
14.91
13.40
12.05
10.71
9.13
7.05
4.37
1.20
-2.08
-5.03
-7.24
-8.54
-9.05
-9.08
-8.96
-8.88
-8.76
-8.28
-7.08
-4.96
-2.16
0.58
2.14
1.43
-2.23
-8.69
-16.98
-25.55
-32.73
-37.27
-38.69
-37.27
-33.85
-29.47
-24.97
-20.78
-16.83
-12.77
-8.23
-3.10
2.30
7.29
11.06
12.99
12.88
10.95
7.76
4.00
0.30
-2.78
-4.85
-5.63
-5.07
-3.40
-0.99
1.88
5.22
9.43
14.94
21.81
29.34
36.25
41.14
43.25
42.82
40.97
38.97
37.59
36.72
35.55
33.24
29.56
25.01
20.58
17.15
15.03
13.92
13.15
12.12
10.54
8.53
6.38
4.40
2.67
1.15
-0.37
-2.12
-4.31
-7.06
-10.37
-14.08
-17.99
-21.90
-25.84
-30.02
-34.72
-40.01
-45.58
-50.71
-54.46
-56.14
-55.54
-53.03
-49.32
-45.12
-40.89
-36.66
-32.27
-27.50
-22.30
-16.81
-11.28
-5.96
-1.03
3.46
7.47
11.01
13.99
16.29
17.89
18.83
19.37
19.83
20.57
21.84
23.68
25.96
28.40
30.69
32.59
33.93
34.66
34.78
34.26
32.99
30.77
27.33
22.47
16.12
8.46
-0.22
-9.52
-19.06
-28.45
-37.22
-44.83
-50.68
-54.35
-55.71
-55.03
-52.87
-49.84
-46.41
-42.81
-39.12
-35.41
-31.77
-28.30
-24.94
-21.44
-17.45
-12.68
-7.17
-1.33
4.29
9.26
13.45
16.98
20.05
22.68
24.67
25.69
25.51
24.20
22.00
19.23
16.07
12.52
8.60
4.42
0.36
-3.16
-5.83
-7.65
-8.97
-10.31
-12.12
-14.52
-17.18
-19.35
-20.14
-18.81
-15.04
-9.04
-1.47
6.76
14.80
21.99
27.94
32.41
35.29
36.50
36.10
34.36
31.74
28.82
26.09
23.86
22.14
20.74
19.37
17.76
15.73
13.12
9.80
5.62
0.56
-5.21
-11.24
-16.93
-21.74
-25.46
-28.27
-30.65
-33.10
-35.90
-39.00
-42.15
-45.15
-48.04
-51.08
-54.58
-58.64
-62.94
-66.80
-69.42
-70.24
-69.21
-66.85
-64.02
-61.53
-59.69
-58.13
-55.79
-51.32
-43.41
-31.24
-14.73
5.35
27.46
49.49
69.22
84.71
94.83
99.51
99.70
97.00
93.20
89.63
86.92
84.91
82.90
80.08
75.92
70.51
64.52
58.99
54.87
52.44
51.17
49.78
46.79
41.17
32.70
22.06
10.53
-0.54
-10.05
-17.30
-21.96
-24.06
-23.96
-22.39
-20.39
-19.09
-19.36
-21.51
-25.18
-29.48
-33.35
-35.94
-36.74
-35.67
-32.85
-28.58
-23.23
-17.36
-11.68
-7.02
-4.04
-2.97
-3.45
-4.53
-5.03
-4.00
-1.17
3.02
7.55
11.28
13.46
13.92
13.08
11.53
9.73
7.74
5.27
1.94
-2.37
-7.40
-12.46
-16.77
-19.72
-21.09
-21.09
-20.17
-18.82
-17.40
-16.10
-14.94
-13.93
-13.04
-12.27
-11.60
-10.98
-10.44
-10.04
-9.96
-10.37
-11.36
-12.76
-14.10
-14.73
-14.04
-11.72
-7.91
-3.16
1.78
6.19
9.58
11.77
12.85
13.05
12.66
11.93
10.99
9.89
8.48
6.47
3.57
-0.33
-5.00
-9.70
-13.43
-15.22
-14.49
-11.28
-6.20
-0.15
6.09
12.05
17.63
22.92
27.99
32.82
37.32
41.48
45.44
49.44
53.73
58.33
62.97
67.07
69.86
70.56
68.65
64.02
57.14
48.88
40.25
31.98
24.27
16.78
8.89
0.16
-9.40
-19.33
-28.96
-37.81
-45.86
-53.44
-61.06
-68.97
-76.99
-84.51
-90.75
-95.11
-97.52
-98.51
-99.10
-100.49
-103.57
-108.45
-114.22
-118.91
-120.02
-115.14
-102.81
-83.04
-57.49
-29.12
-1.36
22.69
41.06
53.27
60.28
64.02
66.56
69.42
73.08
77.01
80.13
81.51
80.89
78.77
76.04
73.43
71.13
68.79
65.97
62.64
59.40
57.25
57.02
58.85
62.03
65.25
67.26
67.31
65.35
61.80
57.23
52.06
46.48
40.54
34.26
27.62
20.49
12.60
3.71
-6.23
-16.93
-27.84
-38.43
-48.46
-58.07
-67.64
-77.41
-87.22
-96.48
-104.40
-110.37
-114.17
-115.97
-116.18
-115.24
-113.43
-110.91
-107.74
-103.93
-99.43
-94.02
-87.28
-78.54
-67.01
-52.05
-33.44
-11.60
12.41
37.09
60.71
81.69
98.80
111.41
119.51
123.71
125.07
124.82
123.93
122.87
121.47
119.15
115.19
109.15
101.09
91.49
81.14
70.81
61.03
52.00
43.59
35.54
27.59
19.72
12.14
5.27
-0.49
-5.06
-8.63
-11.70
-14.83
-18.48
-22.82
-27.81
-33.11
-38.20
-42.38
-45.01
-45.72
-44.65
-42.52
-40.40
-39.29
-39.63
-41.12
-42.99
-44.36
-44.83
-44.65
-44.53
-45.15
-46.72
-48.73
-50.18
-50.00
-47.49
-42.52
-35.50
-27.03
-17.74
-8.09
1.51
10.62
18.70
25.20
29.81
32.54
33.76
34.04
33.82
33.22
32.03
29.76
25.98
20.46
13.36
5.28
-2.95
-10.42
-16.37
-20.36
-22.31
-22.45
-21.19
-18.96
-16.13
-12.98
-9.72
-6.48
-3.28
0.03
3.72
8.06
13.08
18.44
23.46
27.39
29.76
30.60
30.33
29.54
28.60
27.58
26.34
24.82
23.19
21.77
20.73
19.82
18.38
15.61
11.12
5.23
-0.98
-6.15
-9.21
-9.87
-8.70
-6.83
-5.52
-5.65
-7.56
-11.03
-15.49
-20.20
-24.51
-28.01
-30.63
-32.77
-35.14
-38.56
-43.40
-49.28
-54.93
-58.49
-58.20
-53.09
-43.36
-30.28
-15.66
-1.20
11.94
23.20
32.45
39.71
45.09
48.86
51.56
53.93
56.53
59.48
62.25
63.86
63.41
60.49
55.42
49.08
42.50
36.49
31.40
27.16
23.48
20.00
16.45
12.61
8.36
3.69
-1.32
-6.41
-11.25
-15.40
-18.53
-20.42
-21.05
-20.58
-19.23
-17.22
-14.54
-11.17
-7.23
-3.23
-0.23
0.50
-1.98
-7.73
-15.64
-23.66
-29.42
-31.17
-28.32
-21.57
-12.56
-3.24
4.57
9.33
9.79
5.04
-5.25
-20.36
-38.37
-56.32
-71.07
-80.21
-82.80
-79.26
-70.76
-58.46
-43.21
-25.82
-7.62
9.37
22.84
31.15
34.14
33.21
30.51
27.94
26.26
25.07
23.53
21.11
18.05
15.13
13.07
12.02
11.54
10.92
9.71
8.02
6.46
5.79
6.52
8.71
11.94
15.49
18.48
20.04
19.41
16.14
10.20
2.17
-6.84
-15.40
-22.07
-25.82
-26.29
-23.86
-19.49
-14.45
-9.98
-7.00
-5.92
-6.54
-8.22
-10.10
-11.36
-11.52
-10.43
-8.23
-5.23
-1.74
1.95
5.50
8.57
10.86
12.15
12.41
11.87
10.87
9.82
8.92
8.24
7.63
6.91
6.01
4.98
4.00
3.31
2.99
2.96
2.93
2.52
1.46
-0.35
-2.73
-5.24
-7.40
-8.80
-9.30
-9.14
-8.83
-8.90
-9.75
-11.38
-13.45
-15.41
-16.77
-17.25
-16.84
-15.69
-13.98
-11.81
-9.25
-6.44
-3.67
-1.29
0.41
1.37
1.78
2.05
2.50
3.25
4.15
4.91
5.27
5.20
4.93
4.84
5.26
6.31
7.87
9.63
11.27
12.57
13.47
14.02
14.27
14.28
14.02
13.51
12.80
11.99
11.15
10.31
9.39
8.26
6.82
5.01
2.93
0.74
-1.29
-2.90
-3.85
-3.99
-3.34
-2.00
-0.25
1.62
3.30
4.55
5.19
5.15
4.44
3.17
1.54
-0.22
-1.87
-3.25
-4.28
-4.98
-5.38
-5.55
-5.53
-5.39
-5.20
-5.03
-4.95
-4.95
-4.96
-4.89
-4.71
-4.44
-4.20
-4.15
-4.37
-4.90
-5.70
-6.69
-7.82
-9.00
-10.16
-11.16
-11.84
-12.12
-11.94
-11.35
-10.39
-9.06
-7.36
-5.23
-2.74
-0.11
2.32
4.16
5.15
5.21
4.50
3.29
1.87
0.48
-0.78
-1.83
-2.60
-3.03
-3.01
-2.56
-1.79
-0.87
-0.03
0.54
0.76
0.60
0.09
-0.65
-1.46
-2.09
-2.32
-2.05
-1.38
-0.60
-0.11
-0.21
-0.99
-2.30
-3.83
-5.17
-5.99
-6.07
-5.35
-3.92
-2.01
0.08
2.05
3.72
5.02
6.02
6.87
7.68
8.54
9.48
10.55
11.77
13.15
14.72
16.43
18.25
20.07
21.79
23.35
24.69
25.83
26.83
27.75
28.61
29.29
29.57
29.15
27.75
25.18
21.44
16.73
11.41
5.93
0.68
-4.08
-8.32
-12.14
-15.74
-19.15
-22.26
-24.73
-26.23
-26.55
-25.75
-24.15
-22.19
-20.31
-18.80
-17.83
-17.42
-17.57
-18.25
-19.41
-20.96
-22.78
-24.65
-26.31
-27.49
-27.96
-27.60
-26.52
-25.02
-23.56
-22.56
-22.27
-22.60
-23.25
-23.76
-23.79
-23.24
-22.25
-21.09
-20.04
-19.30
-18.97
-19.08
-19.63
-20.55
-21.66
-22.62
-22.98
-22.36
-20.60
-17.85
-14.47
-10.93
-7.60
-4.65
-2.10
0.08
1.93
3.40
4.49
5.21
5.60
5.69
5.50
5.00
4.24
3.36
2.62
2.26
2.41
2.97
3.70
4.29
4.51
4.25
3.49
2.25
0.57
-1.49
-3.74
-5.94
-7.80
-9.17
-10.07
-10.69
-11.35
-12.37
-13.93
-16.04
-18.46
-20.72
-22.29
-22.63
-21.40
-18.64
-14.71
-10.22
-5.77
-1.81
1.53
4.33
6.75
8.89
10.76
12.28
13.40
14.13
14.56
14.81
15.04
15.37
15.93
16.82
18.06
19.57
21.09
22.25
22.65
22.07
20.49
18.23
15.77
13.66
12.31
11.88
12.22
12.91
13.36
12.96
11.26
8.04
3.36
-2.43
-8.73
-14.86
-20.07
-23.78
-25.55
-25.27
-23.09
-19.39
-14.67
-9.42
-4.10
0.92
5.27
8.67
10.91
11.89
11.73
10.68
9.14
7.52
6.26
5.70
6.04
7.27
9.16
11.31
13.27
14.68
15.34
15.28
14.66
13.74
12.74
11.84
11.16
10.66
10.27
9.87
9.40
8.96
8.69
8.79
9.24
9.82
10.12
9.76
8.65
7.04
5.40
4.25
3.94
4.58
6.18
8.72
12.14
16.32
20.86
25.21
28.82
31.40
33.08
34.36
35.78
37.64
39.85
42.00
43.65
44.50
44.52
43.86
42.65
40.86
38.38
35.15
31.26
26.98
22.60
18.28
13.96
9.46
4.60
-0.57
-5.69
-10.23
-13.69
-15.74
-16.38
-15.84
-14.50
-12.79
-11.16
-10.00
-9.66
-10.28
-11.78
-13.78
-15.68
-16.79
-16.59
-14.79
-11.49
-7.10
-2.29
2.20
5.66
7.57
7.71
6.22
3.54
0.32
-2.83
-5.50
-7.52
-8.98
-10.06
-10.89
-11.54
-12.01
-12.36
-12.67
-13.10
-13.75
-14.63
-15.63
-16.57
-17.34
-17.94
-18.51
-19.23
-20.20
-21.45
-22.88
-24.30
-25.52
-26.42
-26.97
-27.27
-27.48
-27.82
-28.49
-29.52
-30.79
-31.97
-32.60
-32.20
-30.44
-27.22
-22.67
-17.21
-11.41
-5.85
-1.00
2.90
5.84
8.00
9.58
10.71
11.39
11.47
10.85
9.58
7.94
6.31
5.08
4.48
4.53
5.14
6.16
7.41
8.73
9.85
10.50
10.36
9.31
7.44
5.08
2.64
0.51
-1.12
-2.26
-3.07
-3.80
-4.73
-6.11
-8.11
-10.68
-13.57
-16.26
-18.19
-18.86
-18.01
-15.72
-12.30
-8.22
-3.96
0.02
3.40
5.97
7.62
8.35
8.31
7.67
6.72
5.68
4.73
3.98
3.45
3.15
3.05
3.13
3.28
3.36
3.18
2.60
1.61
0.34
-1.04
-2.39
-3.71
-5.15
-6.81
-8.70
-10.70
-12.62
-14.29
-15.69
-16.91
-18.11
-19.43
-20.95
-22.63
-24.32
-25.70
-26.31
-25.69
-23.43
-19.50
-14.32
-8.75
-3.87
-0.68
0.26
-1.07
-4.11
-8.03
-11.96
-15.27
-17.64
-19.04
-19.56
-19.27
-18.22
-16.49
-14.14
-11.34
-8.23
-4.92
-1.43
2.29
6.32
10.64
15.12
19.54
23.64
27.20
30.23
33.00
35.94
39.56
44.13
49.53
55.22
60.45
64.59
67.50
69.73
72.32
76.50
83.11
92.21
102.86
113.21
120.97
124.00
120.81
111.04
95.46
75.76
54.10
32.54
12.58
-5.12
-20.64
-34.49
-47.14
-58.67
-68.67
-76.44
-81.40
-83.38
-82.87
-80.83
-78.33
-76.17
-74.60
-73.28
-71.54
-68.74
-64.69
-59.74
-54.71
-50.52
-47.86
-46.96
-47.54
-48.99
-50.62
-51.86
-52.25
-51.47
-49.22
-45.26
-39.43
-31.83
-22.81
-13.04
-3.39
5.29
12.37
17.58
21.08
23.29
24.70
25.68
26.37
26.69
26.52
25.71
24.25
22.20
19.76
17.19
14.77
12.78
11.35
10.46
9.89
9.35
8.51
7.12
4.99
2.02
-1.89
-6.74
-12.43
-18.78
-25.45
-32.01
-37.97
-42.82
-46.17
-47.79
-47.75
-46.45
-44.51
-42.56
-41.13
-40.43
-40.47
-41.14
-42.37
-44.14
-46.41
-49.02
-51.52
-53.29
-53.64
-52.04
-48.23
-42.28
-34.54
-25.59
-16.10
-6.84
1.52
8.40
13.47
16.71
18.47
19.33
19.96
20.95
22.58
24.85
27.57
30.57
33.85
37.59
42.08
47.43
53.45
59.69
65.61
70.86
75.37
79.33
82.88
85.90
87.93
88.28
86.33
81.83
75.00
66.46
57.04
47.55
38.68
30.92
24.62
20.04
17.29
16.23
16.53
17.63
18.94
19.92
20.23
19.75
18.56
16.83
14.71
12.38
9.95
7.57
5.45
3.86
3.11
3.41
4.80
7.00
9.49
11.60
12.69
12.35
10.54
7.51
3.74
-0.30
-4.26
-7.93
-11.24
-14.19
-16.82
-19.20
-21.37
-23.37
-25.15
-26.54
-27.31
-27.23
-26.22
-24.34
-21.84
-19.01
-16.16
-13.52
-11.27
-9.55
-8.46
-8.08
-8.35
-9.17
-10.39
-11.96
-13.96
-16.52
-19.72
-23.39
-27.02
-29.90
-31.30
-30.71
-28.05
-23.61
-17.96
-11.77
-5.62
0.02
4.90
8.86
11.93
14.29
16.14
17.74
19.20
20.44
21.21
21.14
19.92
17.46
13.90
9.64
5.15
0.90
-2.78
-5.72
-7.92
-9.52
-10.70
-11.57
-12.21
-12.59
-12.75
-12.78
-12.97
-13.72
-15.39
-18.20
-22.13
-26.94
-32.26
-37.61
-42.45
-46.24
-48.43
-48.67
-46.87
-43.29
-38.48
-33.10
-27.72
-22.72
-18.23
-14.27
-10.80
-7.87
-5.57
-4.05
-3.40
-3.55
-4.27
-5.18
-5.90
-6.14
-5.82
-5.04
-4.04
-3.10
-2.40
-2.03
-1.97
-2.13
-2.34
-2.34
-1.88
-0.71
1.32
4.21
7.70
11.40
14.72
17.09
18.02
17.35
15.30
12.38
9.24
6.33
3.74
1.26
-1.39
-4.25
-7.05
-9.26
-10.42
-10.28
-8.95
-6.65
-3.55
0.31
4.92
10.12
15.47
20.29
23.92
25.93
26.30
25.38
23.73
21.92
20.40
19.46
19.17
19.41
19.90
20.25
20.04
19.09
17.52
15.85
14.77
14.77
15.85
17.49
18.75
18.74
16.96
13.37
8.35
2.39
-4.12
-10.93
-17.93
-25.03
-32.21
-39.44
-46.73
-53.97
-60.88
-66.99
-71.80
-75.05
-76.85
-77.72
-78.42
-79.69
-82.16
-86.17
-91.79
-98.72
-106.25
-113.10
-117.63
-117.97
-112.66
-101.05
-83.67
-62.09
-38.43
-14.59
8.28
29.91
50.61
70.73
90.16
108.35
124.60
138.49
150.12
159.94
168.35
175.36
180.54
183.29
183.29
180.65
175.85
169.40
161.61
152.48
141.95
130.08
117.15
103.61
89.89
76.32
63.06
50.13
37.47
24.93
12.32
-0.47
-13.24
-25.47
-36.25
-44.65
-50.06
-52.56
-52.86
-52.19
-51.83
-52.74
-55.26
-59.13
-63.55
-67.55
-70.29
-71.39
-71.01
-69.60
-67.39
-63.81
-57.24
-45.54
-27.10
-2.08
26.83
54.90
76.81
88.62
89.15
80.25
65.72
49.53
34.47
21.58
10.67
1.21
-6.96
-13.61
-18.52
-21.98
-24.87
-28.27
-32.84
-38.38
-43.79
-47.55
-48.33
-45.56
-39.60
-31.58
-22.89
-14.75
-7.87
-2.37
1.96
5.45
8.23
10.24
11.30
11.35
10.52
9.16
7.68
6.42
5.54
5.05
4.90
5.04
5.53
6.49
8.10
10.53
13.86
18.01
22.74
27.72
32.57
36.99
40.77
43.77
45.83
46.67
45.88
42.96
37.45
29.14
18.11
4.78
-10.09
-25.53
-40.49
-53.94
-65.06
-73.34
-78.64
-81.14
-81.26
-79.52
-76.37
-72.16
-67.05
-61.15
-54.51
-47.22
-39.45
-31.36
-23.12
-14.82
-6.52
1.74
9.84
17.59
24.71
30.90
35.97
39.91
42.85
44.98
46.47
47.37
47.66
47.34
46.58
45.72
45.28
45.78
47.58
50.69
54.66
58.55
61.01
60.52
55.68
45.58
30.03
9.72
-13.91
-38.80
-62.64
-83.23
-98.75
-108.06
-110.83
-107.46
-99.04
-87.08
-73.30
-59.27
-46.23
-34.93
-25.57
-17.97
-11.68
-6.18
-1.05
3.96
8.97
13.98
18.95
23.78
28.36
32.56
36.31
39.65
42.73
45.87
49.40
53.59
58.55
64.00
69.36
73.72
76.07
75.44
71.10
62.74
50.44
34.66
16.24
-3.77
-24.12
-43.51
-60.71
-74.68
-84.73
-90.44
-91.74
-88.84
-82.20
-72.54
-60.80
-47.95
-34.87
-22.15
-10.09
1.19
11.70
21.37
30.12
37.86
44.51
50.01
54.20
56.78
57.34
55.46
50.90
43.67
34.04
22.48
9.58
-3.91
-17.09
-29.00
-38.71
-45.59
-49.41
-50.44
-49.27
-46.62
-43.18
-39.41
-35.52
-31.55
-27.42
-23.02
-18.27
-13.19
-7.90
-2.71
1.94
5.59
7.91
8.91
9.00
8.84
9.09
10.15
12.02
14.43
16.99
19.45
21.68
23.71
25.51
27.00
28.06
28.63
28.75
28.57
28.20
27.70
27.07
26.30
25.46
24.66
24.06
23.71
23.58
23.53
23.45
23.22
22.79
22.18
21.44
20.63
19.78
18.90
17.91
16.65
14.94
12.62
9.71
6.41
3.12
0.28
-1.80
-3.10
-3.88
-4.62
-5.76
-7.43
-9.39
-11.17
-12.31
-12.67
-12.52
-12.34
-12.50
-13.03
-13.60
-13.68
-12.90
-11.17
-8.69
-5.81
-2.85
-0.09
2.20
3.74
4.31
3.95
3.11
2.56
3.16
5.45
9.33
14.01
18.32
21.07
21.45
19.31
15.11
9.78
4.35
-0.29
-3.69
-5.76
-6.77
-7.07
-6.99
-6.70
-6.29
-5.85
-5.62
-5.90
-6.97
-8.88
-11.34
-13.79
-15.57
-16.20
-15.57
-13.94
-11.82
-9.69
-7.91
-6.58
-5.66
-5.04
-4.67
-4.54
-4.72
-5.20
-5.94
-6.78
-7.50
-7.91
-7.88
-7.40
-6.64
-5.79
-5.03
-4.42
-3.87
-3.25
-2.42
-1.38
-0.27
0.77
1.59
2.13
2.42
2.48
2.34
2.00
1.50
0.91
0.33
-0.19
-0.69
-1.23
-1.98
-3.08
-4.62
-6.61
-8.95
-11.41
-13.64
-15.21
-15.76
-15.05
-13.16
-10.38
-7.20
-4.11
-1.48
0.48
1.74
2.30
2.23
1.54
0.31
-1.36
-3.31
-5.29
-7.10
-8.54
-9.48
-9.84
-9.65
-8.99
-8.05
-7.05
-6.16
-5.49
-5.02
-4.65
-4.23
-3.65
-2.89
-2.02
-1.24
-0.76
-0.79
-1.38
-2.52
-4.06
-5.85
-7.80
-9.89
-12.20
-14.83
-17.87
-21.33
-25.14
-29.16
-33.17
-36.94
-40.26
-43.03
-45.26
-47.06
-48.65
-50.21
-51.86
-53.64
-55.42
-57.03
-58.25
-58.96
-59.16
-58.99
-58.69
-58.46
-58.35
-58.18
-57.60
-56.14
-53.43
-49.34
-43.96
-37.56
-30.46
-23.05
-15.63
-8.42
-1.56
4.92
11.15
17.29
23.48
29.67
35.57
40.70
44.62
47.12
48.38
48.85
49.00
49.08
49.02
48.51
47.30
45.44
43.32
41.58
40.79
41.20
42.68
44.73
46.79
48.34
49.06
48.79
47.54
45.38
42.50
39.16
35.68
32.37
29.43
26.95
24.88
23.20
21.89
20.95
20.39
20.21
20.37
20.80
21.43
22.13
22.77
23.17
23.19
22.77
21.84
20.31
18.05
14.89
10.77
5.82
0.38
-5.12
-10.29
-14.95
-19.10
-22.88
-26.43
-29.78
-32.88
-35.62
-37.86
-39.52
-40.52
-40.90
-40.75
-40.23
-39.55
-38.89
-38.31
-37.75
-37.14
-36.42
-35.72
-35.24
-35.20
-35.70
-36.66
-37.86
-39.14
-40.50
-42.00
-43.55
-44.56
-43.88
-40.20
-32.73
-21.69
-8.41
5.42
18.45
30.22
40.87
50.30
57.64
61.32
60.06
54.07
45.49
37.73
33.85
35.05
40.11
46.20
50.39
51.07
48.41
43.77
38.68
34.00
29.79
25.71
21.53
17.45
14.01
11.76
10.92
11.29
12.30
13.25
13.51
12.70
10.73
7.85
4.50
1.17
-1.82
-4.40
-6.74
-9.09
-11.58
-14.01
-16.02
-17.23
-17.51
-17.07
-16.43
-16.09
-16.39
-17.31
-18.62
-20.02
-21.32
-22.46
-23.47
-24.31
-24.90
-25.13
-24.99
-24.61
-24.24
-24.16
-24.59
-25.59
-27.09
-28.80
-30.29
-31.06
-30.71
-29.03
-26.13
-22.33
-18.06
-13.64
-9.33
-5.30
-1.85
0.63
1.71
1.13
-0.96
-4.01
-7.19
-9.71
-11.05
-11.13
-10.23
-8.86
-7.56
-6.74
-6.60
-7.15
-8.20
-9.49
-10.73
-11.61
-11.93
-11.47
-10.03
-7.47
-3.74
1.01
6.45
12.09
17.34
21.67
24.56
25.59
24.45
21.14
16.09
10.31
5.17
2.06
1.87
4.64
9.54
15.25
20.49
24.50
27.22
29.11
30.80
32.72
34.97
37.39
39.73
41.92
44.04
46.23
48.59
51.01
53.24
55.00
56.12
56.62
56.62
56.20
55.28
53.68
51.30
48.34
45.35
42.97
41.66
41.28
41.13
40.14
37.36
32.43
25.58
17.55
9.11
0.81
-7.03
-14.26
-20.73
-26.30
-30.94
-34.86
-38.36
-41.66
-44.65
-46.88
-47.80
-47.14
-45.21
-42.81
-40.91
-40.14
-40.57
-41.69
-42.74
-43.04
-42.27
-40.43
-37.76
-34.57
-31.21
-28.02
-25.45
-23.95
-23.89
-25.33
-27.91
-30.90
-33.47
-35.02
-35.43
-35.03
-34.33
-33.69
-33.00
-31.75
-29.37
-25.63
-20.88
-16.02
-12.17
-10.18
-10.42
-12.66
-16.32
-20.65
-25.02
-28.95
-32.14
-34.36
-35.49
-35.48
-34.38
-32.32
-29.45
-26.00
-22.30
-18.83
-16.14
-14.72
-14.79
-16.20
-18.35
-20.30
-20.96
-19.30
-14.74
-7.54
0.98
8.62
12.99
12.65
8.02
1.66
-2.55
-1.08
7.57
22.08
38.90
53.84
63.88
68.20
67.87
64.74
60.28
55.06
49.06
42.55
36.63
33.10
33.70
39.06
48.18
58.64
67.48
72.26
71.82
66.30
56.76
44.49
30.53
15.62
0.38
-14.30
-27.26
-37.21
-43.20
-44.99
-43.26
-39.42
-35.18
-32.04
-30.85
-31.65
-33.70
-35.77
-36.54
-35.00
-30.72
-24.00
-15.71
-7.09
0.62
6.45
9.89
11.00
10.25
8.47
6.52
5.12
4.62
4.99
5.83
6.63
6.89
6.24
4.53
1.86
-1.45
-4.82
-7.43
-8.44
-7.21
-3.57
2.10
8.92
15.85
22.01
26.94
30.57
33.14
34.93
36.12
36.72
36.71
36.12
35.17
34.17
33.44
33.15
33.29
33.63
33.90
33.84
33.25
31.96
29.80
26.55
22.15
16.73
10.81
5.04
0.01
-3.97
-7.06
-9.65
-12.18
-14.92
-17.99
-21.52
-25.79
-31.15
-37.88
-45.94
-54.93
-64.32
-73.65
-82.61
-90.79
-97.23
-100.22
-97.63
-87.63
-69.61
-44.61
-15.20
15.32
43.65
67.20
84.20
93.78
96.07
92.35
84.98
77.06
71.46
69.97
72.72
78.38
84.93
90.47
93.91
94.88
93.52
90.06
84.73
77.85
69.86
61.23
52.26
42.86
32.59
20.90
7.56
-7.11
-22.30
-36.84
-49.48
-59.11
-64.79
-66.00
-62.70
-55.64
-46.31
-36.70
-28.82
-24.08
-23.00
-25.14
-29.50
-35.00
-40.87
-46.70
-52.36
-57.80
-62.90
-67.49
-71.44
-74.76
-77.50
-79.67
-80.98
-80.87
-78.61
-73.66
-65.95
-56.02
-44.83
-33.45
-22.72
-13.10
-4.73
2.39
8.31
13.12
17.02
20.41
23.75
27.34
31.17
34.90
38.03
40.21
41.46
42.15
42.89
44.24
46.48
49.45
52.60
55.19
56.61
56.53
55.13
52.90
50.50
48.43
46.92
45.90
45.14
44.45
43.77
43.19
42.85
42.83
42.99
43.07
42.69
41.53
39.51
36.80
33.78
30.97
28.81
27.60
27.43
28.22
29.81
32.01
34.73
38.02
42.13
47.52
54.71
64.12
75.89
89.71
104.79
119.85
133.40
144.06
150.90
153.79
153.38
150.78
146.76
141.17
132.69
119.39
99.84
74.23
44.93
16.00
-8.05
-23.79
-29.87
-27.21
-18.42
-6.89
3.93
11.05
12.17
5.90
-8.03
-28.61
-53.65
-80.24
-105.33
-126.42
-142.11
-152.40
-158.49
-162.29
-165.57
-169.40
-173.76
-177.76
-180.17
-180.08
-177.28
-172.17
-165.42
-157.45
-148.27
-137.58
-124.97
-110.25
-93.43
-74.83
-55.03
-34.95
-15.78
1.24
15.18
25.79
33.47
39.02
43.07
45.61
45.90
42.77
35.26
23.23
7.48
-10.59
-29.58
-48.56
-67.19
-85.25
-102.14
-116.62
-127.13
-132.53
-132.85
-129.69
-125.81
-124.54
-129.07
-141.69
-163.22
-192.49
-225.91
-257.74
-281.15
-289.77
-279.37
-248.77
-200.00
-137.69
-68.22
1.00
62.46
109.66
138.63
149.12
144.84
132.31
118.58
108.94
105.62
108.01
113.89
120.89
127.21
131.77
133.84
132.78
128.21
120.18
109.42
97.20
84.98
73.85
64.34
56.49
49.91
44.25
39.23
34.84
31.22
28.51
26.79
26.00
25.91
26.19
26.53
26.74
26.78
26.78
26.86
27.07
27.29
27.23
26.56
25.09
22.90
20.33
17.90
16.09
15.25
15.56
16.97
19.34
22.48
26.18
30.18
34.17
37.78
40.64
42.54
43.48
43.73
43.78
44.22
45.59
48.30
52.47
57.88
64.06
70.35
76.21
81.37
86.03
90.74
96.25
103.15
111.60
121.34
131.82
142.54
153.39
164.74
177.45
192.72
211.87
235.95
265.35
299.06
334.35
366.95
391.94
405.27
405.12
392.48
370.72
344.08
316.20
289.04
262.99
237.57
212.36
187.56
163.75
141.50
120.74
100.77
80.53
59.11
36.25
12.43
-11.31
-33.78
-54.23
-72.61
-89.70
-106.79
-125.19
-145.74
-168.41
-192.34
-216.31
-239.16
-260.38
-280.26
-299.72
-319.99
-342.26
-367.60
-396.76
-429.73
-465.10
-499.55
-528.04
-545.05
-546.37
-530.82
-500.83
-461.66
-419.56
-379.80
-345.50
-317.64
-295.79
-279.00
-266.18
-255.94
-246.16
-234.03
-216.64
-191.88
-159.41
-120.92
-79.86
-40.45
-6.47
19.57
36.89
46.16
48.98
47.17
42.27
35.35
27.22
18.60
10.49
4.20
1.21
2.72
9.14
19.60
31.84
42.68
48.77
47.61
38.39
22.22
1.75
-19.72
-39.01
-53.72
-62.33
-63.92
-58.00
-44.46
-23.83
2.35
31.65
61.12
88.10
110.93
129.16
143.33
154.26
162.54
168.17
170.69
169.51
164.24
154.82
141.49
124.79
105.51
84.73
63.79
44.12
26.96
13.03
2.47
-5.10
-10.27
-13.67
-15.79
-17.08
-18.09
-19.43
-21.70
-25.17
-29.59
-34.20
-37.91
-39.80
-39.40
-36.83
-32.68
-27.80
-22.95
-18.67
-15.26
-12.84
-11.43
-11.13
-12.04
-14.31
-17.99
-22.95
-28.68
-34.37
-38.95
-41.35
-40.84
-37.15
-30.63
-22.10
-12.65
-3.48
4.39
10.17
13.47
14.23
12.74
9.54
5.41
1.25
-1.95
-3.27
-1.98
2.27
9.39
18.80
29.57
40.61
50.90
59.60
66.19
70.46
72.47
72.46
70.83
68.02
64.50
60.67
56.82
53.16
49.81
46.82
44.19
41.89
39.77
37.56
34.83
31.10
26.03
19.54
11.89
3.61
-4.61
-12.10
-18.21
-22.42
-24.32
-23.74
-20.95
-16.66
-11.90
-7.75
-4.89
-3.43
-2.90
-2.63
-2.14
-1.46
-1.19
-2.13
-4.89
-9.54
-15.59
-22.18
-28.54
-34.29
-39.60
-45.16
-51.75
-60.03
-70.14
-81.62
-93.58
-105.08
-115.53
-124.97
-134.00
-143.56
-154.33
-166.64
-180.33
-194.95
-209.95
-224.53
-237.47
-247.17
-252.30
-252.57
-249.29
-244.94
-242.01
-241.51
-242.35
-241.80
-237.17
-227.25
-212.98
-196.70
-180.76
-166.21
-152.46
-137.96
-121.24
-101.61
-79.23
-54.59
-28.03
0.37
30.60
62.32
94.78
126.84
157.30
185.41
211.21
235.66
260.34
286.72
315.28
344.83
372.61
395.04
408.94
412.53
405.98
391.08
370.54
347.03
322.52
298.13
274.29
251.21
229.15
208.60
190.10
173.98
160.14
147.94
136.46
124.85
112.78
100.55
88.78
78.03
68.48
59.90
51.96
44.46
37.49
31.27
26.01
21.71
18.19
15.25
12.74
10.58
8.73
7.10
5.64
4.31
3.18
2.31
1.74
1.36
1.09
0.82
0.53
0.30
0.15
0.04
-0.24
-0.92
-2.17
-4.06
-6.59
-9.72
-13.36
-17.35
-21.31
-24.78
-27.30
-28.64
-28.98
-28.87
-28.94
-29.66
-31.11
-33.06
-35.13
-36.94
-38.28
-39.05
-39.17
-38.57
-37.18
-35.11
-32.57
-29.84
-27.13
-24.51
-21.87
-19.08
-16.09
-12.95
-9.82
-6.84
-4.07
-1.52
0.81
2.84
4.46
5.62
6.33
6.77
7.18
7.71
8.24
8.41
7.81
6.21
3.79
1.14
-0.89
-1.62
-0.76
1.47
4.37
7.12
9.07
9.92
9.75
8.99
8.09
7.46
7.20
7.17
6.99
6.33
5.00
3.13
1.01
-1.06
-2.89
-4.56
-6.23
-8.02
-9.90
-11.71
-13.26
-14.46
-15.36
-16.16
-17.09
-18.39
-20.19
-22.52
-25.27
-28.14
-30.73
-32.59
-33.44
-33.31
-32.58
-31.81
-31.55
-32.08
-33.38
-35.22
-37.36
-39.66
-42.12
-44.80
-47.70
-50.69
-53.53
-55.88
-57.37
-57.49
-55.59
-50.90
-42.83
-31.29
-17.00
-1.49
13.41
26.12
35.92
43.07
48.49
53.22
57.79
62.15
65.82
68.33
69.50
69.47
68.50
66.80
64.47
61.55
58.20
54.68
51.20
47.84
44.47
40.88
36.91
32.56
27.95
23.24
18.46
13.61
8.71
3.86
-0.76
-5.03
-8.96
-12.74
-16.55
-20.49
-24.40
-27.89
-30.54
-32.15
-32.79
-32.85
-32.83
-33.18
-33.99
-34.98
-35.59
-35.20
-33.40
-30.23
-26.16
-21.93
-18.22
-15.43
-13.53
-12.18
-10.98
-9.63
-8.09
-6.46
-4.89
-3.47
-2.22
-1.14
-0.28
0.20
0.12
-0.71
-2.37
-4.82
-7.94
-11.60
-15.62
-19.80
-23.86
-27.48
-30.30
-32.04
-32.54
-31.81
-30.01
-27.34
-24.05
-20.33
-16.38
-12.38
-8.42
-4.49
-0.49
3.71
8.10
12.47
16.43
19.58
21.72
22.95
23.65
24.27
25.11
26.26
27.55
28.77
29.73
30.36
30.59
30.38
29.67
28.46
26.83
25.00
23.24
21.76
20.66
19.85
19.05
17.92
16.14
13.55
10.28
6.72
3.51
1.32
0.70
1.84
4.60
8.53
13.03
17.52
21.54
24.81
27.24
28.88
29.93
30.59
30.99
31.10
30.79
29.91
28.40
26.45
24.35
22.52
21.23
20.63
20.68
21.28
22.27
23.45
24.46
24.78
23.78
21.03
16.45
10.48
3.84
-2.69
-8.67
-14.02
-18.95
-23.77
-28.59
-33.35
-37.91
-42.07
-45.70
-48.60
-50.50
-51.06
-50.01
-47.30
-43.13
-37.98
-32.33
-26.57
-20.93
-15.52
-10.49
-5.94
-2.04
1.09
3.38
4.83
5.44
5.26
4.41
3.12
1.71
0.53
-0.18
-0.31
0.12
0.92
1.98
3.18
4.46
5.80
7.14
8.43
9.61
10.65
11.58
12.46
13.41
14.47
15.63
16.73
17.52
17.65
16.89
15.14
12.64
9.84
7.30
5.53
4.76
4.97
5.91
7.21
8.60
9.91
11.13
12.27
13.35
14.34
15.16
15.73
15.97
15.89
15.49
14.87
14.20
13.66
13.46
13.67
14.26
15.01
15.65
15.99
15.93
15.43
14.51
13.12
11.22
8.79
5.92
2.77
-0.58
-4.19
-8.35
-13.53
-20.12
-28.21
-37.50
-47.21
-56.30
-63.74
-68.74
-71.00
-70.66
-68.24
-64.33
-59.48
-54.01
-48.02
-41.50
-34.43
-26.86
-18.93
-10.85
-2.88
4.71
11.63
17.63
22.56
26.34
29.04
30.82
31.89
32.41
32.53
32.26
31.53
30.22
28.28
25.80
23.02
20.33
18.03
16.19
14.58
12.80
10.40
7.15
3.06
-1.71
-7.01
-12.79
-19.12
-26.03
-33.36
-40.77
-47.75
-53.73
-58.20
-60.69
-60.79
-58.25
-53.08
-45.69
-36.96
-28.01
-19.94
-13.50
-8.80
-5.37
-2.33
1.28
6.08
12.19
19.19
26.31
32.67
37.62
40.88
42.58
43.13
42.97
42.36
41.25
39.39
36.45
32.24
26.78
20.32
13.22
5.83
-1.60
-8.88
-15.92
-22.66
-29.10
-35.34
-41.46
-47.50
-53.37
-58.78
-63.26
-66.29
-67.38
-66.21
-62.70
-57.06
-49.82
-41.70
-33.54
-26.06
-19.73
-14.73
-11.01
-8.39
-6.73
-5.96
-6.00
-6.73
-7.86
-9.00
-9.80
-10.02
-9.65
-8.86
-7.85
-6.81
-5.75
-4.60
-3.29
-1.81
-0.31
0.99
1.88
2.31
2.42
2.50
2.86
3.72
5.12
6.91
8.82
10.63
12.22
13.70
15.33
17.40
20.10
23.42
27.19
31.15
35.09
38.84
42.33
45.39
47.82
49.33
49.73
49.03
47.49
45.52
43.51
41.74
40.27
38.99
37.74
36.39
34.88
33.23
31.52
29.82
28.19
26.63
25.12
23.55
21.79
19.73
17.30
14.48
11.33
7.93
4.36
0.67
-3.10
-6.94
-10.90
-15.05
-19.52
-24.42
-29.83
-35.70
-41.74
-47.46
-52.23
-55.47
-56.80
-56.16
-53.84
-50.31
-46.10
-41.57
-36.88
-32.01
-26.87
-21.46
-15.83
-10.18
-4.69
0.44
5.08
9.18
12.69
15.54
17.62
18.86
19.20
18.66
17.40
15.66
13.71
11.82
10.13
8.64
7.27
5.85
4.27
2.51
0.66
-1.09
-2.54
-3.60
-4.31
-4.82
-5.31
-5.98
-6.89
-8.10
-9.60
-11.36
-13.28
-15.13
-16.58
-17.26
-16.92
-15.53
-13.35
-10.82
-8.33
-6.12
-4.15
-2.26
-0.24
1.97
4.24
6.37
8.16
9.58
10.77
11.99
13.48
15.35
17.55
19.94
22.34
24.63
26.87
29.17
31.72
34.68
38.17
42.22
46.84
51.95
57.42
63.11
68.86
74.55
80.17
85.78
91.46
97.18
102.76
107.86
112.28
116.16
120.08
124.87
131.22
139.18
147.86
155.47
159.59
157.65
147.41
127.32
97.04
57.84
12.89
-32.99
-74.17
-105.59
-124.06
-128.95
-121.94
-105.97
-84.02
-58.29
-30.21
-0.93
28.06
54.87
77.50
94.57
105.71
111.55
113.25
111.95
108.36
102.68
94.65
83.64
68.69
48.70
22.98
-8.04
-42.14
-75.55
-104.02
-124.48
-136.38
-142.04
-145.54
-151.00
-160.93
-175.58
-193.42
-212.40
-231.03
-248.83
-266.08
-283.13
-300.00
-316.29
-331.46
-345.20
-357.26
-367.06
-373.17
-373.07
-363.56
-341.75
-306.21
-257.76
-199.46
-135.86
-71.93
-12.07
40.49
83.88
117.48
141.87
158.67
170.13
178.55
185.47
191.04
194.02
192.42
184.61
170.27
150.80
128.90
107.57
88.82
72.90
58.61
43.93
27.34
8.64
-10.70
-27.64
-37.82
-36.09
-17.70
19.93
75.07
140.69
205.47
257.13
286.58
291.03
274.21
243.77
207.34
169.44
130.92
90.61
47.82
3.63
-39.33
-78.68
-113.77
-146.06
-178.36
-213.52
-253.58
-299.30
-349.57
-401.08
-448.10
-483.18
-499.00
-491.00
-459.28
-408.87
-347.93
-284.75
-225.18
-171.60
-123.74
-80.38
-40.68
-4.31
29.29
61.53
94.51
129.65
166.37
201.55
230.46
248.58
253.96
248.34
236.39
223.54
213.50
206.86
201.40
193.80
181.71
164.97
145.55
126.35
109.92
97.56
89.33
84.42
81.79
80.38
79.17
77.15
73.41
67.38
59.04
49.16
39.13
30.74
25.62
24.64
27.43
32.51
37.66
40.89
41.10
38.41
33.92
29.04
24.85
21.71
19.41
17.55
15.94
14.73
14.37
15.26
17.51
20.87
24.90
29.14
33.18
36.66
39.13
40.03
38.74
34.80
28.11
19.05
8.43
-2.63
-12.98
-21.70
-28.29
-32.77
-35.69
-37.94
-40.48
-44.03
-48.71
-53.95
-58.63
-61.39
-61.08
-57.14
-49.76
-39.81
-28.53
-17.18
-6.73
2.25
9.54
15.16
19.20
21.85
23.31
23.83
23.63
22.92
21.79
20.32
18.58
16.69
14.82
13.10
11.59
10.18
8.55
6.26
2.89
-1.79
-7.68
-14.41
-21.52
-28.67
-35.88
-43.41
-51.62
-60.75
-70.72
-81.14
-91.53
-101.47
-110.70
-119.17
-126.85
-133.70
-139.57
-144.10
-146.67
-146.41
-142.36
-133.78
-120.61
-103.64
-84.41
-64.75
-46.14
-29.09
-12.98
3.63
22.37
44.04
68.04
92.17
113.26
128.19
135.05
133.74
125.83
113.72
99.62
84.83
69.54
53.43
36.36
18.88
2.27
-11.87
-22.08
-27.51
-27.93
-23.69
-15.48
-4.28
8.65
21.83
33.67
42.88
48.71
51.41
52.07
52.40
54.01
57.82
63.68
70.26
75.48
77.01
72.95
62.40
45.81
25.07
3.21
-16.26
-30.21
-36.62
-34.89
-25.79
-10.91
7.79
28.36
48.89
67.30
81.29
88.40
86.55
74.80
53.90
26.45
-3.54
-31.66
-54.16
-68.88
-75.56
-75.58
-71.32
-65.25
-59.21
-54.10
-49.85
-45.79
-41.13
-35.49
-29.08
-22.68
-17.18
-13.11
-10.39
-8.38
-6.32
-3.87
-1.27
0.82
1.78
1.57
0.78
0.48
1.62
4.66
9.31
14.86
20.60
26.15
31.64
37.43
43.85
50.86
58.17
65.32
71.92
77.55
81.53
82.70
79.51
70.51
55.07
33.94
9.32
-15.78
-38.42
-56.57
-69.45
-77.31
-80.94
-81.22
-78.94
-74.84
-69.66
-64.01
-58.22
-52.18
-45.37
-37.23
-27.49
-16.51
-5.25
4.99
13.02
18.24
20.77
21.51
21.76
22.84
25.70
30.77
37.89
46.48
55.70
64.71
72.77
79.52
84.96
89.31
92.57
94.13
92.47
85.50
71.52
50.27
23.70
-4.26
-28.76
-45.54
-52.08
-48.01
-34.69
-14.39
10.19
36.24
60.81
80.99
94.23
98.87
94.54
82.17
63.87
42.51
21.32
3.40
-8.90
-14.56
-14.25
-10.10
-4.97
-1.33
-0.47
-2.24
-5.48
-8.94
-11.92
-14.68
-18.04
-22.81
-29.05
-35.74
-40.95
-42.65
-39.53
-31.73
-20.93
-9.79
-0.94
3.82
4.00
0.13
-6.63
-15.01
-23.68
-31.26
-36.19
-37.10
-33.36
-25.44
-15.03
-4.44
4.15
9.54
11.66
11.48
10.43
9.86
10.73
13.49
18.09
23.98
30.23
35.67
39.24
40.36
39.10
36.18
32.60
29.22
26.47
24.44
22.97
22.02
21.70
22.12
23.16
24.35
24.93
24.21
21.94
18.45
14.56
11.19
8.86
7.60
6.90
6.14
4.78
2.57
-0.46
-4.19
-8.45
-13.04
-17.71
-22.15
-26.12
-29.56
-32.68
-35.85
-39.42
-43.41
-47.42
-50.81
-52.94
-53.47
-52.61
-50.97
-49.34
-48.44
-48.70
-50.26
-52.99
-56.62
-60.75
-64.95
-68.90
-72.59
-76.52
-81.63
-89.09
-99.65
-113.10
-127.91
-141.48
-150.83
-153.51
-148.39
-135.92
-117.78
-96.18
-73.14
-49.94
-27.13
-4.80
16.98
37.77
56.81
73.17
86.14
95.34
100.77
102.64
101.17
96.60
89.21
79.61
68.77
57.92
48.26
40.47
34.58
29.95
25.57
20.52
14.27
6.93
-0.85
-8.18
-14.20
-18.43
-20.88
-21.96
-22.20
-21.98
-21.34
-19.97
-17.57
-14.02
-9.66
-5.11
-1.11
1.84
3.56
4.18
3.87
2.73
0.74
-2.09
-5.65
-9.57
-13.40
-16.76
-19.53
-21.93
-24.40
-27.48
-31.48
-36.38
-41.83
-47.24
-52.03
-55.73
-58.09
-59.03
-58.49
-56.47
-52.93
-47.85
-41.16
-32.74
-22.33
-9.64
5.48
22.84
41.64
60.62
78.31
93.45
105.36
114.09
120.23
124.52
127.56
129.58
130.54
130.28
128.78
126.18
122.75
118.66
113.94
108.39
101.76
93.87
84.77
74.69
63.96
52.93
41.89
31.16
21.15
12.28
4.91
-0.77
-4.86
-7.69
-9.70
-11.28
-12.64
-13.89
-15.02
-16.05
-16.99
-17.89
-18.75
-19.49
-20.00
-20.14
-19.83
-19.07
-17.98
-16.71
-15.42
-14.26
-13.27
-12.43
-11.65
-10.79
-9.75
-8.45
-6.93
-5.26
-3.54
-1.84
-0.13
1.73
3.89
6.39
9.06
11.48
13.19
13.84
13.37
12.13
10.80
10.08
10.51
12.28
15.17
18.69
22.25
25.32
27.59
28.92
29.32
28.86
27.64
25.71
23.18
20.13
16.67
12.81
8.49
3.56
-2.09
-8.39
-15.04
-21.56
-27.47
-32.45
-36.47
-39.70
-42.41
-44.77
-46.88
-48.75
-50.44
-52.10
-53.84
-55.72
-57.62
-59.25
-60.26
-60.32
-59.23
-56.89
-53.34
-48.70
-43.22
-37.18
-30.89
-24.56
-18.41
-12.62
-7.48
-3.40
-0.80
-0.02
-1.10
-3.78
-7.51
-11.58
-15.24
-17.85
-19.05
-18.81
-17.49
-15.65
-13.89
-12.59
-11.76
-11.05
-10.01
-8.26
-5.72
-2.51
1.10
4.79
8.25
11.19
13.31
14.45
14.65
14.20
13.57
13.12
12.99
12.92
12.43
11.09
8.74
5.66
2.45
-0.28
-2.20
-3.46
-4.72
-6.77
-10.30
-15.49
-22.04
-29.31
-36.75
-44.18
-51.86
-60.32
-69.97
-80.81
-92.34
-103.76
-114.21
-123.00
-129.52
-133.02
-132.55
-127.24
-116.78
-101.83
-83.97
-65.01
-46.12
-27.34
-7.68
13.89
37.57
62.20
85.59
105.51
120.65
131.08
137.83
142.11
144.58
145.07
142.96
137.82
129.86
120.10
109.97
100.80
93.36
87.57
82.63
77.37
70.70
61.97
51.11
38.56
25.08
11.54
-1.23
-12.49
-21.67
-28.41
-32.65
-34.72
-35.24
-34.99
-34.59
-34.35
-34.17
-33.62
-32.20
-29.54
-25.51
-20.25
-14.11
-7.54
-1.11
4.62
9.06
11.78
12.54
11.42
8.68
4.74
0.00
-5.20
-10.69
-16.35
-22.05
-27.61
-32.72
-37.09
-40.52
-42.91
-44.29
-44.69
-44.07
-42.32
-39.34
-35.17
-30.18
-24.97
-20.24
-16.54
-14.14
-12.93
-12.66
-13.07
-14.06
-15.61
-17.58
-19.57
-20.90
-20.81
-18.77
-14.77
-9.38
-3.48
2.05
6.68
10.39
13.51
16.46
19.48
22.52
25.31
27.54
29.08
30.03
30.71
31.49
32.60
34.05
35.59
36.80
37.32
37.07
36.30
35.48
35.02
35.00
35.10
34.72
33.28
30.54
26.71
22.26
17.64
13.07
8.53
3.84
-1.14
-6.48
-12.26
-18.65
-25.88
-33.97
-42.58
-50.93
-58.07
-63.21
-66.00
-66.62
-65.60
-63.43
-60.40
-56.58
-52.03
-46.99
-41.98
-37.72
-34.76
-33.35
-33.27
-33.96
-34.76
-35.24
-35.40
-35.68
-36.80
-39.42
-43.83
-49.82
-56.83
-64.24
-71.74
-79.52
-88.11
-98.02
-109.38
-121.70
-134.08
-145.43
-154.69
-160.80
-162.57
-158.58
-147.65
-129.37
-104.69
-75.84
-45.60
-16.28
11.00
36.12
59.27
80.14
97.67
110.74
118.97
123.30
125.68
127.98
130.98
133.99
135.37
133.61
128.35
120.47
111.75
103.94
98.04
94.15
91.67
89.83
88.06
86.21
84.51
83.40
83.18
83.90
85.26
86.69
87.51
87.12
85.17
81.58
76.48
70.19
63.08
55.58
48.07
40.82
33.83
26.86
19.51
11.53
3.01
-5.55
-13.38
-19.89
-25.04
-29.44
-34.16
-40.12
-47.58
-55.82
-63.38
-68.69
-70.77
-69.78
-66.93
-63.85
-61.63
-60.07
-57.55
-51.69
-40.43
-23.20
-1.32
22.37
44.50
62.25
74.00
79.37
79.10
74.88
69.22
65.26
65.90
72.55
84.19
97.51
108.32
113.63
113.46
111.00
110.97
116.85
128.66
142.50
152.24
152.41
140.78
119.16
92.17
64.86
40.50
19.67
0.97
-17.32
-35.81
-53.41
-68.20
-78.76
-85.22
-89.32
-93.63
-100.60
-111.69
-127.01
-145.35
-164.57
-182.18
-196.08
-205.31
-210.57
-213.95
-217.80
-223.31
-229.42
-232.85
-229.35
-215.39
-189.51
-152.67
-107.72
-58.63
-9.87
33.85
67.93
88.49
93.48
83.38
61.23
31.73
-0.29
-30.86
-57.03
-76.55
-87.65
-89.24
-81.72
-67.37
-49.87
-32.98
-18.89
-7.38
3.64
16.63
32.74
50.97
68.52
82.07
89.02
88.30
80.34
66.41
47.97
26.28
2.54
-21.73
-44.30
-62.44
-73.53
-75.91
-69.43
-55.52
-36.75
-16.07
3.90
21.36
35.41
46.00
53.65
59.16
63.17
65.94
67.17
66.28
62.75
56.57
48.33
39.01
29.65
21.13
14.06
8.80
5.43
3.81
3.51
4.01
4.91
6.14
7.93
10.64
14.33
18.61
22.78
26.04
27.87
28.15
27.16
25.42
23.49
21.84
20.87
20.85
21.88
23.84
26.38
28.95
30.97
32.02
31.95
30.95
29.42
27.82
26.51
25.56
24.79
23.88
22.51
20.59
18.25
15.78
13.47
11.50
9.91
8.62
7.58
6.75
6.16
5.72
5.27
4.53
3.28
1.51
-0.44
-1.95
-2.26
-0.83
2.41
6.91
11.77
16.07
19.24
21.31
22.78
24.30
26.30
28.72
31.01
32.43
32.32
30.40
26.86
22.08
16.51
10.45
4.21
-1.78
-6.74
-9.62
-9.45
-5.81
0.82
9.01
16.83
22.45
24.76
23.63
19.80
14.45
8.75
3.59
-0.57
-3.64
-5.85
-7.62
-9.46
-11.84
-15.08
-19.16
-23.66
-27.80
-30.61
-31.20
-29.15
-24.74
-19.02
-13.55
-9.84
-8.79
-10.28
-13.27
-16.27
-17.99
-17.87
-16.18
-13.77
-11.53
-10.04
-9.34
-9.11
-8.89
-8.26
-6.98
-4.99
-2.36
0.76
4.15
7.57
10.82
13.65
15.85
17.11
17.17
15.90
13.43
10.18
6.72
3.60
1.07
-0.95
-2.82
-4.96
-7.60
-10.62
-13.61
-16.00
-17.27
-17.13
-15.63
-13.18
-10.33
-7.60
-5.28
-3.38
-1.67
0.13
2.13
4.22
6.17
7.72
8.83
9.58
10.18
10.73
11.15
11.29
11.06
10.58
10.14
10.11
10.62
11.52
12.42
12.93
12.80
12.06
10.88
9.40
7.71
5.74
3.48
1.02
-1.46
-3.77
-5.83
-7.77
-9.85
-12.40
-15.57
-19.24
-22.94
-25.95
-27.50
-27.06
-24.54
-20.36
-15.30
-10.20
-5.61
-1.71
1.71
4.90
7.98
10.79
12.95
14.12
14.29
13.78
13.26
13.43
14.83
17.66
21.73
26.61
31.60
35.85
38.41
38.40
35.29
29.12
20.60
10.96
1.49
-6.84
-13.68
-19.22
-23.84
-27.81
-31.11
-33.49
-34.76
-35.02
-34.68
-34.25
-34.17
-34.49
-34.87
-34.77
-33.65
-31.26
-27.76
-23.73
-19.93
-17.11
-15.71
-15.72
-16.70
-18.02
-19.11
-19.68
-19.87
-20.12
-21.03
-23.12
-26.71
-31.82
-38.10
-44.91
-51.42
-56.85
-60.70
-62.85
-63.48
-62.97
-61.62
-59.47
-56.23
-51.37
-44.13
-33.69
-19.40
-1.12
20.32
42.92
63.57
78.82
85.85
83.44
72.54
55.94
37.39
20.47
7.59
-0.29
-3.46
-2.83
0.59
5.91
12.29
18.75
24.15
27.51
28.39
27.28
25.48
24.53
25.53
28.49
32.37
35.58
36.80
35.68
32.91
29.83
27.64
26.77
26.70
26.32
24.68
21.47
17.25
13.09
10.03
8.56
8.44
8.89
9.05
8.39
6.83
4.72
2.49
0.42
-1.42
-3.08
-4.51
-5.38
-5.11
-3.08
0.98
6.78
13.41
19.64
24.27
26.64
26.76
25.28
23.10
21.02
19.39
18.16
16.96
15.45
13.48
11.26
9.21
7.81
7.35
7.87
9.06
10.43
11.45
11.73
11.11
9.60
7.34
4.48
1.05
-2.93
-7.39
-12.10
-16.62
-20.39
-22.95
-24.22
-24.65
-25.12
-26.66
-30.03
-35.27
-41.48
-46.91
-49.38
-46.87
-37.99
-22.39
-0.98
24.22
50.28
73.94
92.34
103.73
107.92
106.31
101.34
95.71
91.52
89.82
90.59
93.04
96.14
98.96
100.84
101.34
100.17
97.08
91.90
84.49
74.83
62.96
49.02
33.22
15.93
-2.18
-20.10
-36.51
-49.92
-58.97
-62.72
-60.99
-54.53
-44.82
-33.89
-23.61
-15.35
-9.55
-5.86
-3.44
-1.47
0.46
2.29
3.65
4.29
4.21
3.71
3.08
2.36
1.19
-1.04
-4.98
-11.07
-19.34
-29.47
-40.88
-52.88
-64.88
-76.49
-87.54
-98.12
-108.36
-118.29
-127.75
-136.33
-143.56
-149.21
-153.60
-157.55
-162.28
-168.86
-177.92
-189.44
-202.79
-217.06
-231.16
-243.91
-253.84
-259.12
-257.78
-248.22
-229.78
-203.17
-170.39
-134.00
-96.31
-58.84
-22.46
12.03
43.40
70.16
91.36
107.54
120.82
133.94
148.70
164.70
179.38
189.40
192.53
188.89
180.78
171.27
162.48
154.80
147.21
138.64
129.14
120.09
113.54
110.96
112.35
116.09
119.72
121.12
119.46
115.69
111.99
110.89
114.10
121.77
132.34
142.99
150.51
152.35
147.64
137.82
126.80
120.12
123.35
140.00
169.83
208.41
248.27
281.43
302.11
308.36
301.98
286.91
267.14
245.18
221.91
197.40
172.02
146.85
123.21
101.68
81.36
59.98
34.73
3.37
-34.97
-79.59
-128.34
-177.91
-224.23
-263.12
-291.15
-306.72
-310.71
-306.25
-297.53
-288.13
-279.68
-271.77
-262.89
-251.84
-238.67
-224.52
-210.60
-197.15
-183.15
-166.99
-147.68
-125.78
-103.43
-83.57
-68.62
-59.58
-55.81
-55.56
-56.76
-57.79
-57.76
-56.34
-53.45
-49.02
-42.95
-35.26
-26.33
-17.02
-8.65
-2.70
-0.42
-2.46
-8.62
-17.95
-28.90
-39.62
-48.13
-52.62
-51.65
-44.52
-31.30
-12.81
9.74
35.10
62.30
90.55
118.85
145.60
168.55
185.17
193.54
193.06
184.52
169.81
151.16
130.64
109.90
90.29
72.93
58.67
47.88
40.33
35.16
31.19
27.34
23.12
18.74
14.93
12.44
11.47
11.25
10.08
5.89
-2.83
-16.14
-32.38
-48.62
-61.80
-69.82
-72.36
-70.82
-67.67
-65.45
-65.79
-68.90
-73.72
-78.45
-81.42
-81.80
-79.84
-76.43
-72.52
-68.47
-64.01
-58.65
-52.23
-45.31
-38.93
-34.09
-31.16
-29.78
-29.08
-28.27
-26.95
-25.22
-23.49
-22.18
-21.49
-21.33
-21.41
-21.42
-21.16
-20.66
-20.10
-19.74
-19.77
-20.20
-20.86
-21.48
-21.74
-21.34
-19.98
-17.48
-13.80
-9.21
-4.34
-0.07
2.73
3.48
2.09
-1.14
-5.58
-10.57
-15.47
-19.67
-22.64
-23.92
-23.28
-20.80
-16.82
-11.93
-6.74
-1.76
2.64
6.25
9.02
11.05
12.55
13.80
14.98
16.13
17.14
17.80
18.01
17.79
17.31
16.74
16.18
15.64
15.13
14.67
14.35
14.31
14.56
14.90
14.96
14.29
12.51
9.50
5.41
0.66
-4.23
-8.77
-12.61
-15.60
-17.70
-18.93
-19.25
-18.52
-16.61
-13.47
-9.29
-4.47
0.45
4.93
8.59
11.27
12.96
13.77
13.82
13.21
12.03
10.32
8.06
5.16
1.53
-2.86
-7.79
-12.75
-17.06
-20.13
-21.74
-22.26
-22.49
-23.37
-25.61
-29.39
-34.35
-39.78
-44.84
-48.67
-50.45
-49.40
-44.90
-36.80
-25.70
-13.14
-1.19
8.25
14.18
16.83
17.44
17.43
17.81
18.78
20.10
21.70
24.15
28.56
35.89
46.17
58.01
68.97
76.56
79.31
77.41
72.50
66.71
61.65
57.73
54.24
50.10
44.70
38.33
31.96
26.46
21.91
17.33
11.10
1.90
-10.49
-24.92
-39.33
-51.69
-60.91
-67.20
-71.92
-76.81
-83.27
-91.73
-101.54
-111.32
-119.43
-124.57
-126.20
-124.64
-120.90
-116.23
-111.45
-106.57
-100.51
-91.53
-77.84
-58.54
-34.29
-7.35
18.75
40.46
55.58
64.18
68.94
74.49
86.16
108.26
142.53
187.01
235.96
281.11
313.86
327.86
320.94
295.58
257.52
213.50
168.67
125.66
84.88
45.93
9.00
-24.88
-54.71
-80.59
-103.89
-126.09
-146.95
-163.69
-171.88
-167.87
-151.59
-127.73
-104.14
-88.41
-84.28
-90.00
-99.60
-106.09
-104.78
-94.89
-78.76
-59.69
-39.96
-20.12
0.03
20.00
37.79
50.49
55.63
52.91
44.65
34.94
27.61
24.36
24.01
23.41
19.46
10.98
-0.20
-10.04
-14.17
-10.05
1.67
17.09
30.49
36.46
32.13
18.33
-0.64
-18.63
-29.95
-31.45
-23.43
-9.13
6.71
19.57
26.56
26.93
21.84
13.72
5.42
-0.75
-3.55
-3.12
-0.73
1.98
3.74
4.09
3.23
1.40
-1.59
-6.34
-13.33
-22.34
-32.10
-40.60
-45.74
-46.07
-41.07
-31.21
-17.71
-2.30
12.91
25.52
33.22
34.31
28.26
16.10
0.30
-15.82
-29.03
-36.90
-38.28
-33.36
-23.35
-10.13
4.05
16.83
26.01
29.88
27.61
19.51
7.03
-7.56
-21.80
-33.67
-41.97
-46.50
-47.71
-46.37
-43.25
-38.96
-34.00
-29.00
-24.70
-21.89
-21.08
-22.06
-23.82
-24.68
-22.96
-17.57
-8.67
2.48
13.88
23.68
30.74
34.90
36.63
36.60
35.16
32.27
27.73
21.51
13.95
5.77
-2.06
-8.49
-12.50
-13.23
-10.09
-3.10
6.95
18.56
29.90
39.29
45.67
48.80
49.15
47.60
45.09
42.41
39.96
37.90
36.14
34.58
33.16
31.90
30.73
29.33
27.09
23.41
18.00
11.24
4.14
-2.07
-6.44
-8.74
-9.40
-9.29
-9.33
-10.39
-13.19
-18.27
-25.80
-35.16
-44.79
-52.32
-55.23
-51.74
-41.37
-25.08
-4.82
17.14
38.87
59.13
77.37
93.61
108.23
121.74
134.65
147.27
159.60
171.37
182.22
191.93
200.65
208.87
217.26
226.18
235.38
243.68
249.11
249.44
242.81
228.46
207.00
180.25
150.58
120.18
90.42
61.72
33.70
5.51
-23.92
-55.73
-90.87
-129.54
-170.57
-211.23
-247.63
-275.90
-293.60
-300.44
-298.28
-290.05
-278.46
-265.19
-250.70
-234.77
-217.27
-198.50
-179.06
-159.55
-140.24
-121.13
-102.30
-84.19
-67.75
-54.16
-44.30
-38.15
-34.50
-31.18
-25.84
-16.90
-4.36
10.22
24.51
36.73
46.62
55.56
65.84
79.35
96.54
116.42
137.38
158.28
179.10
200.76
224.43
250.93
280.97
315.75
357.26
407.43
466.13
529.38
589.05
635.02
658.78
656.92
632.35
592.70
546.83
501.34
458.86
418.76
379.15
338.79
297.80
257.14
217.44
178.42
139.09
98.71
57.54
17.07
-20.32
-52.30
-77.46
-95.77
-108.49
-117.53
-124.78
-131.39
-137.63
-143.06
-146.95
-148.76
-148.36
-146.10
-142.47
-138.02
-133.07
-127.74
-122.06
-116.07
-109.90
-103.78
-97.97
-92.71
-88.28
-85.02
-83.33
-83.59
-85.87
-89.69
-93.98
-97.19
-97.88
-95.32
-90.02
-83.71
-78.81
-77.34
-80.06
-85.97
-92.63
-97.31
-98.43
-96.59
-94.59
-96.37
-105.18
-121.81
-143.95
-167.04
-186.03
-197.70
-202.20
-202.81
-204.77
-213.13
-231.10
-258.93
-293.25
-327.20
-350.93
-353.87
-327.98
-271.75
-192.35
-104.79
-27.71
23.45
42.57
35.72
18.77
10.70
25.43
66.40
126.10
190.57
246.22
285.33
307.70
318.32
322.91
324.19
321.31
310.50
289.76
261.48
231.23
205.14
184.51
166.36
145.48
116.98
77.86
29.46
-22.79
-71.89
-111.63
-140.69
-161.32
-177.46
-193.00
-213.25
-240.12
-271.18
-301.24
-323.65
-337.70
-345.39
-349.36
-352.13
-363.74
-389.53
-426.56
-465.18
-490.16
-499.56
-496.16
-483.36
-465.55
-464.19
-493.20
-550.83
-621.42
-676.44
-712.24
-732.71
-741.69
-744.61
-773.65
-849.37
-968.03
-1104.37
-1213.11
-1289.01
-1339.16
-1370.72
-1393.63
-1451.76
-1573.70
-1756.24
-1967.65
-2149.50
-2295.10
-2412.62
-2509.31
-2349.41
-1819.20
-984.49
-53.17
634.03
1090.78
1376.28
1536.95
1643.75
1721.76
1746.47
1699.86
1590.17
1450.43
1337.89
1254.20
1187.31
1129.03
1072.84
992.20
874.11
728.88
585.21
487.59
432.44
404.53
391.85
384.76
362.64
313.08
238.08
151.54
106.78
114.97
164.84
233.71
299.89
345.06
362.60
356.80
337.91
321.35
302.04
279.22
256.01
238.71
230.83
233.31
246.46
269.63
304.15
343.82
382.76
411.70
426.19
424.50
407.20
377.76
338.96
307.06
277.37
247.01
217.93
199.56
202.39
223.45
260.89
310.52
366.66
418.51
456.37
471.28
461.19
428.83
381.41
330.21
285.39
252.86
230.04
210.99
171.25
100.45
4.75
-96.91
-184.82
-250.13
-294.58
-325.92
-350.16
-369.80
-381.83
-382.89
-372.90
-354.96
-334.60
-316.54
-303.56
-294.86
-288.75
-280.22
-265.62
-244.47
-219.15
-193.60
-171.23
-154.05
-142.13
-134.35
-127.69
-119.89
-110.54
-100.78
-92.41
-86.65
-83.76
-83.18
-84.07
-84.81
-84.41
-82.86
-80.83
-79.04
-77.73
-76.63
-75.31
-73.72
-71.96
-70.61
-70.49
-72.06
-74.96
-78.05
-79.90
-79.56
-77.23
-74.24
-72.37
-73.16
-76.96
-82.75
-87.92
-89.46
-85.30
-75.29
-61.23
-45.58
-30.53
-16.69
-3.02
12.87
33.72
61.60
97.46
141.31
192.42
247.87
301.61
344.46
367.89
367.73
347.46
317.87
293.70
289.11
310.99
357.23
418.24
485.37
554.10
623.86
693.74
758.94
812.49
844.94
848.90
820.73
768.02
704.91
645.83
598.56
562.72
536.17
513.65
488.89
451.72
399.45
335.09
266.53
202.57
151.20
122.62
119.84
136.99
155.87
164.82
160.77
149.51
138.81
100.69
21.12
-97.13
-201.66
-283.58
-346.57
-405.91
-466.42
-530.78
-599.79
-665.86
-719.06
-744.45
-737.86
-700.87
-644.02
-580.75
-523.23
-477.75
-440.28
-404.83
-367.98
-335.71
-311.54
-295.99
-285.85
-277.65
-268.68
-255.37
-236.82
-214.89
-196.62
-185.49
-181.40
-181.18
-181.46
-179.66
-173.44
-162.38
-147.78
-133.61
-122.38
-114.00
-106.70
-98.66
-88.33
-74.83
-58.39
-40.20
-22.58
-7.16
5.41
15.20
22.40
27.54
30.64
31.32
29.14
23.71
15.02
3.44
-10.44
-26.06
-42.36
-58.72
-74.68
-89.74
-103.12
-113.71
-120.09
-120.59
-118.13
-113.82
-108.69
-103.57
-98.83
-94.27
-89.19
-82.76
-74.50
-64.67
-53.59
-42.24
-31.53
-21.68
-11.88
-0.52
14.12
32.97
55.52
80.39
105.30
128.26
148.44
166.58
184.49
204.14
226.73
252.39
280.64
310.18
338.91
363.82
381.10
386.93
378.94
357.66
327.12
294.05
265.21
244.82
233.18
227.58
224.58
222.57
222.40
225.94
233.57
241.99
244.23
231.86
198.50
142.92
70.58
-7.69
-78.90
-131.77
-159.88
-162.47
-143.09
-106.80
-57.84
0.81
66.10
132.84
192.78
236.25
255.65
248.86
220.56
180.07
137.26
98.68
65.84
36.40
6.76
-25.34
-59.82
-94.84
-128.65
-161.10
-193.78
-229.11
-268.61
-311.31
-352.93
-386.78
-405.38
-403.39
-379.69
-337.70
-284.41
-228.27
-176.92
-135.68
-107.04
-90.66
-84.54
-85.74
-89.60
-89.88
-79.73
-53.84
-11.21
43.29
100.03
147.26
174.73
178.55
161.93
133.04
101.31
73.52
48.11
23.05
-2.90
-30.56
-59.31
-88.41
-116.80
-142.20
-161.81
-171.66
-167.78
-148.35
-116.27
-76.44
-33.85
6.87
44.26
80.27
118.18
155.81
194.24
224.15
235.03
218.84
173.56
104.84
24.33
-53.82
-116.97
-157.12
-173.70
-170.73
-155.08
-133.93
-112.55
-93.58
-77.33
-62.63
-47.63
-32.12
-16.63
-2.76
6.90
9.63
3.44
-11.94
-34.22
-58.52
-79.28
-91.19
-91.38
-80.65
-63.09
-44.51
-29.87
-20.97
-15.30
-7.57
7.79
32.99
64.40
93.19
108.66
103.49
77.67
39.28
1.03
-25.20
-33.42
-25.42
-8.53
8.69
20.52
25.65
26.29
25.70
26.17
28.36
31.68
34.87
36.03
32.47
21.20
0.33
-29.10
-62.34
-92.01
-110.91
-114.69
-103.35
-80.46
-51.29
-21.11
5.35
23.46
28.49
16.46
-13.92
-59.70
-113.44
-165.02
-204.80
-226.42
-228.23
-212.90
-185.83
-153.06
-119.80
-89.44
-62.97
-39.19
-15.18
12.85
48.46
93.62
147.51
205.62
259.82
299.95
316.81
305.85
269.56
217.26
162.03
115.71
84.63
68.22
60.90
56.06
49.68
41.57
34.03
29.54
28.95
31.43
35.44
39.98
44.68
49.57
53.92
56.06
53.92
45.88
31.02
9.09
-19.79
-54.79
-93.50
-131.15
-160.96
-175.47
-168.82
-139.46
-91.25
-32.66
25.83
75.04
109.09
125.62
125.97
114.42
96.64
78.43
64.69
58.41
60.12
66.90
71.48
65.32
42.40
1.68
-51.67
-107.62
-154.70
-183.62
-190.31
-177.78
-152.33
-119.33
-81.75
-39.71
8.14
57.84
101.76
138.47
163.91
170.03
154.73
122.50
83.15
48.10
25.74
18.50
22.37
28.31
28.40
20.42
7.53
-4.34
-10.36
-9.41
-3.48
4.20
10.47
14.29
16.69
18.14
17.15
10.42
-5.46
-31.77
-66.42
-104.61
-138.96
-160.73
-162.49
-140.63
-97.15
-40.02
18.70
66.61
94.58
99.86
86.34
61.83
34.66
11.34
-4.30
-10.72
-8.25
0.67
11.28
17.13
11.93
-7.82
-40.26
-78.05
-110.80
-129.11
-127.89
-107.88
-74.40
-34.84
3.56
35.75
58.91
71.43
72.07
60.50
38.84
13.04
-7.83
-15.12
-3.47
26.03
65.16
100.97
120.66
116.20
86.47
35.93
-29.03
-100.93
-172.08
-234.73
-281.60
-307.18
-309.54
-291.21
-253.56
-204.58
-155.05
-113.72
-83.73
-63.16
-48.13
-35.34
-22.22
-7.16
9.57
27.44
46.16
65.76
86.66
109.77
134.64
162.35
194.51
231.49
272.31
313.66
349.64
372.63
375.51
354.26
309.98
248.31
177.18
105.06
39.06
-16.24
-58.86
-88.88
-107.73
-117.49
-120.98
-121.71
-122.88
-126.48
-132.62
-139.37
-143.26
-140.58
-128.82
-108.08
-81.29
-53.04
-27.90
-8.97
2.65
7.44
6.75
2.12
-5.14
-13.82
-22.88
-31.58
-39.65
-47.14
-53.84
-58.86
-60.59
-57.50
-49.12
-36.54
-22.07
-8.15
3.79
13.72
22.54
30.89
38.24
42.73
41.83
33.72
18.57
-0.86
-19.69
-32.46
-35.08
-26.46
-8.98
12.36
31.78
44.63
48.47
43.24
30.64
13.44
-5.03
-21.10
-31.29
-33.14
-26.32
-13.08
2.21
14.61
20.58
19.26
12.70
4.81
-0.36
-0.12
5.88
15.59
25.24
30.63
28.44
17.59
-0.23
-20.84
-38.97
-50.17
-52.45
-46.91
-36.93
-26.62
-19.07
-15.50
-15.49
-17.99
-22.29
-28.35
-36.41
-46.32
-57.31
-68.33
-78.87
-89.28
-100.48
-112.68
-124.49
-132.69
-133.21
-122.81
-100.34
-66.87
-24.62
24.14
77.43
132.51
184.68
227.00
251.93
254.27
233.74
195.63
148.96
103.13
64.84
36.86
18.91
9.17
5.65
6.29
8.47
8.90
4.47
-6.27
-22.07
-39.16
-52.82
-59.27
-57.15
-47.77
-34.23
-20.25
-9.11
-3.07
-3.17
-9.12
-19.18
-30.45
-39.42
-43.17
-40.47
-32.60
-23.10
-16.47
-16.41
-24.13
-37.67
-52.64
-63.88
-67.48
-62.06
-48.95
-31.31
-12.76
3.71
16.35
24.48
28.29
28.45
26.07
22.53
19.07
16.29
13.75
10.11
3.85
-5.59
-17.10
-27.96
-34.70
-34.52
-26.45
-11.84
5.99
22.87
35.11
40.51
38.90
32.01
22.86
14.87
10.77
11.74
16.92
23.65
28.50
28.69
23.29
13.64
2.84
-5.54
-8.83
-6.11
1.75
12.61
24.06
34.10
41.65
46.45
48.90
49.73
49.67
49.36
49.03
48.30
46.26
41.79
34.24
24.07
13.17
4.53
1.27
5.17
15.73
30.10
44.38
55.29
61.69
64.54
66.30
69.23
73.89
78.49
79.67
74.39
61.67
43.70
24.85
10.51
4.81
8.59
18.56
28.54
32.24
26.13
10.89
-9.97
-31.42
-48.58
-58.08
-58.60
-50.74
-36.87
-21.52
-11.40
-15.01
-38.75
-83.25
-141.49
-201.08
-248.75
-275.12
-277.77
-255.49
-213.89
-163.10
-113.14
-69.07
-30.95
3.03
34.71
63.62
88.33
107.09
119.84
126.47
128.64
128.35
127.06
125.15
122.11
117.21
109.65
100.20
91.53
87.37
89.91
97.87
106.46
108.91
99.64
76.49
42.34
4.07
-30.24
-55.23
-70.12
-77.92
-82.87
-87.54
-91.88
-93.68
-90.42
-80.88
-65.94
-47.84
-28.98
-11.20
4.17
15.63
21.44
20.19
11.94
-1.08
-14.70
-24.11
-25.74
-18.80
-5.78
8.49
18.78
21.37
15.27
2.29
-13.78
-28.43
-37.81
-39.74
-34.40
-24.33
-13.58
-6.29
-5.06
-9.86
-18.19
-26.40
-31.25
-31.08
-25.77
-15.96
-2.72
12.14
25.39
32.46
28.81
12.51
-13.95
-44.05
-69.72
-84.84
-87.64
-80.64
-68.71
-56.36
-46.03
-37.84
-30.46
-22.19
-11.48
2.67
20.31
39.87
57.79
68.89
68.01
52.35
23.22
-13.58
-49.33
-75.28
-85.73
-79.84
-61.72
-38.68
-18.17
-5.07
-0.34
-1.44
-4.24
-5.12
-2.45
3.38
10.65
17.25
20.98
19.40
9.99
-8.93
-36.71
-69.33
-99.69
-119.89
-124.29
-111.88
-86.62
-55.24
-24.19
2.94
25.60
44.67
60.08
69.88
71.08
62.11
44.90
25.11
10.09
5.73
13.80
31.30
52.05
69.41
78.69
78.23
68.94
53.34
34.55
16.04
1.24
-6.95
-7.05
0.07
11.05
20.97
25.13
20.88
8.63
-8.30
-25.10
-37.13
-41.35
-37.14
-26.30
-12.39
0.36
8.29
9.39
3.91
-5.68
-15.39
-20.98
-19.33
-9.65
6.00
23.18
36.42
41.19
35.68
21.65
3.77
-12.35
-22.59
-26.03
-24.82
-22.34
-20.83
-19.98
-17.26
-9.97
2.76
19.17
35.85
49.88
60.29
68.02
74.40
79.53
81.64
77.87
65.67
44.01
13.96
-21.64
-58.79
-92.95
-119.83
-136.30
-141.23
-135.57
-121.69
-101.95
-77.44
-48.21
-14.63
20.67
52.50
74.75
83.40
78.84
66.09
52.58
44.95
46.89
58.62
78.14
102.65
129.43
155.55
177.87
193.66
201.57
202.43
198.46
191.64
181.80
166.45
142.57
108.84
67.28
22.15
-22.34
-64.04
-102.60
-137.16
-163.92
-175.94
-166.14
-131.69
-77.26
-14.94
39.54
72.76
78.17
56.88
14.69
-42.18
-108.77
-180.90
-253.25
-318.34
-367.51
-393.54
-393.55
-370.41
-331.68
-285.32
-236.44
-185.95
-131.74
-71.25
-2.97
73.11
156.00
238.33
309.19
357.86
379.17
375.74
354.81
323.98
289.08
254.06
221.36
193.48
172.98
161.60
158.71
160.03
158.47
146.58
119.65
78.16
28.82
-17.73
-51.37
-66.84
-65.99
-55.99
-45.37
-40.27
-42.53
-49.63
-57.14
-61.20
-59.93
-53.98
-45.30
-35.92
-27.23
-19.69
-13.20
-7.64
-3.24
-0.44
0.05
-1.36
-2.84
-1.62
4.90
17.86
36.10
56.48
75.04
87.90
93.31
91.99
86.25
78.67
70.70
62.15
51.36
40.33
30.37
23.37
20.94
23.44
29.32
35.44
38.20
34.99
25.07
9.17
-10.23
-29.75
-45.84
-55.50
-57.18
-51.47
-41.26
-31.15
-26.38
-30.33
-43.22
-61.57
-78.80
-86.87
-78.45
-49.11
0.91
66.03
136.67
201.76
251.67
280.68
287.80
275.83
249.49
213.55
171.76
127.07
82.22
39.92
2.49
-28.76
-53.95
-74.16
-90.50
-103.27
-111.82
-115.20
-113.05
-106.33
-96.94
-87.18
-79.11
-74.31
-74.00
-78.88
-88.67
-101.28
-112.44
-116.58
-108.92
-87.86
-56.52
-22.04
7.07
24.29
27.44
19.01
4.27
-11.32
-24.13
-32.86
-37.75
-39.33
-37.77
-33.18
-26.37
-19.09
-13.79
-12.34
-15.26
-21.70
-29.82
-37.64
-43.39
-45.46
-42.32
-32.95
-17.65
1.35
20.06
34.15
40.68
39.32
32.20
22.47
12.74
3.95
-4.40
-13.43
-23.92
-36.02
-49.78
-65.98
-86.77
-115.20
-153.71
-201.89
-255.20
-305.04
-341.03
-354.38
-340.78
-301.21
-240.74
-166.31
-85.11
-4.48
67.44
121.44
148.98
145.58
113.86
64.34
12.52
-26.77
-45.01
-42.60
-27.21
-9.18
3.92
10.38
14.06
21.09
35.76
57.84
82.28
101.42
108.23
98.98
74.10
37.51
-4.89
-46.59
-81.38
-103.70
-109.48
-97.27
-69.41
-32.31
5.09
34.21
50.02
52.72
46.83
38.80
33.91
34.63
40.54
49.44
58.40
64.40
64.43
55.70
36.52
7.10
-30.02
-70.23
-107.99
-137.90
-155.48
-158.04
-145.52
-121.31
-92.10
-66.19
-50.32
-46.76
-52.61
-61.37
-66.60
-64.71
-55.99
-43.54
-31.35
-23.10
-22.16
-31.46
-52.96
-85.94
-125.42
-162.23
-185.51
-186.62
-162.65
-118.00
-62.55
-8.28
34.19
58.25
62.59
50.49
28.19
2.23
-23.07
-45.61
-64.09
-76.34
-78.65
-67.00
-40.02
-0.54
44.29
84.78
113.34
127.03
127.39
118.01
101.98
80.26
52.77
19.98
-18.22
-59.28
-98.25
-129.09
-146.53
-146.37
-127.44
-90.81
-40.55
11.79
54.67
80.58
87.81
79.33
61.89
40.69
19.69
0.49
-24.93
-62.66
-112.59
-169.11
-226.26
-279.87
-333.15
-390.04
-451.58
-522.90
-600.35
-671.20
-720.16
-738.74
-726.94
-697.11
-662.39
-574.59
-416.36
-207.42
8.27
194.39
320.86
405.05
461.49
500.64
531.12
551.85
562.48
568.09
576.83
594.14
621.76
651.86
675.22
684.39
668.30
623.37
556.15
480.18
409.25
353.88
314.50
286.45
262.95
233.43
192.40
142.25
91.02
46.93
15.28
-5.87
-21.40
-36.04
-54.23
-76.09
-97.40
-111.88
-114.43
-102.34
-77.10
-42.47
-3.65
32.47
59.21
71.57
67.39
48.05
18.55
-14.01
-41.99
-59.56
-64.75
-59.72
-49.51
-39.32
-32.03
-26.91
-20.21
-7.29
14.92
46.38
83.98
122.78
157.75
184.76
200.83
203.89
192.83
167.77
130.43
84.26
33.63
-17.45
-66.15
-110.91
-150.69
-184.23
-209.92
-226.50
-234.21
-235.17
-232.47
-228.35
-222.91
-214.04
-199.43
-178.62
-154.17
-130.62
-111.73
-97.82
-85.53
-70.55
-51.26
-30.79
-15.31
-9.44
-11.95
-15.16
-8.99
12.64
47.22
84.02
109.33
113.42
95.26
62.30
26.38
-1.90
-16.98
-19.27
-13.70
-7.54
-8.05
-20.40
-45.70
-79.95
-114.78
-139.84
-146.39
-130.29
-93.29
-41.85
14.98
67.56
107.65
129.87
132.98
120.51
99.70
78.55
62.23
50.54
38.69
20.94
-4.65
-33.39
-55.39
-60.71
-45.28
-13.97
21.81
50.17
64.92
67.60
64.41
60.56
56.36
47.85
31.30
8.11
-13.66
-23.08
-13.26
13.40
44.59
62.92
53.35
9.43
-64.64
-156.08
-248.19
-325.41
-377.02
-399.20
-395.04
-372.66
-342.01
-311.39
-284.92
-262.26
-240.35
-216.13
-188.54
-159.01
-129.97
-103.11
-78.22
-53.26
-25.50
7.12
45.46
89.23
137.69
189.60
242.38
291.13
328.82
348.46
346.72
326.92
299.03
276.17
268.60
278.52
298.72
315.96
317.12
294.84
249.59
187.98
119.30
52.44
-5.16
-47.20
-68.29
-65.01
-37.54
8.55
62.70
112.16
145.94
157.87
147.59
119.51
80.93
40.69
7.00
-13.38
-15.80
1.40
35.83
80.64
125.66
160.20
177.42
174.78
154.01
119.70
77.13
30.28
-18.87
-69.38
-119.36
-163.12
-194.21
-207.57
-201.11
-175.88
-135.38
-83.85
-25.17
37.72
104.02
170.14
228.98
272.24
294.14
293.94
276.14
248.21
202.72
141.25
72.88
9.51
-41.04
-76.88
-99.93
-113.15
-122.23
-131.34
-140.50
-149.16
-157.25
-165.29
-172.27
-178.36
-184.88
-194.44
-210.23
-233.85
-267.27
-311.78
-366.07
-424.61
-478.60
-518.41
-537.39
-533.99
-511.19
-476.15
-436.99
-399.55
-365.86
-335.23
-306.13
-278.20
-252.24
-228.98
-208.64
-190.40
-172.58
-153.32
-131.45
-106.79
-80.29
-53.21
-26.42
-0.22
25.71
52.22
80.34
110.70
143.17
176.78
209.93
240.76
267.70
289.97
307.86
322.70
336.43
351.20
368.99
391.30
418.47
449.08
479.54
504.65
519.27
520.13
507.37
484.66
457.55
430.89
406.87
384.73
362.27
338.30
313.46
290.42
272.98
264.29
265.22
273.58
284.45
291.25
287.76
268.66
231.62
179.23
119.27
62.72
20.49
0.06
3.22
26.60
61.22
96.21
123.06
137.94
141.11
134.81
121.28
101.84
78.06
49.72
15.93
-23.42
-67.86
-117.63
-174.31
-240.33
-322.82
-413.66
-497.03
-559.65
-595.51
-602.98
-582.08
-535.11
-468.49
-392.42
-317.72
-254.65
-209.08
-180.30
-162.50
-148.91
-135.36
-121.28
-107.93
-95.62
-84.34
-73.32
-61.02
-46.10
-28.67
-10.35
6.50
20.51
31.98
41.65
50.46
59.44
69.49
81.09
94.13
108.02
121.97
134.45
142.77
144.03
136.49
120.59
98.94
75.22
50.93
28.84
10.97
-1.80
-9.34
-11.85
-9.85
-4.56
2.18
8.52
13.88
18.91
25.38
35.22
49.31
66.91
85.83
103.32
117.12
125.98
129.21
126.74
119.36
108.94
98.31
90.39
86.86
87.13
88.11
84.82
72.40
48.02
12.06
-31.92
-78.12
-120.11
-152.52
-172.32
-179.71
-177.80
-171.48
-165.49
-162.66
-163.14
-164.96
-165.83
-164.75
-162.85
-162.68
-166.86
-176.57
-191.24
-209.02
-227.76
-245.61
-260.93
-271.63
-274.92
-267.75
-248.14
-216.46
-175.95
-131.75
-89.13
-51.71
-20.73
4.39
24.69
40.50
51.28
56.50
56.98
55.40
55.76
61.72
74.73
93.02
112.02
125.98
130.18
122.73
105.32
82.74
61.46
47.69
45.55
55.83
75.76
99.91
122.07
137.29
143.58
142.11
136.23
129.61
124.62
121.80
120.38
119.31
118.12
116.94
115.74
113.75
109.51
101.50
89.14
73.32
56.16
39.98
26.45
15.73
6.67
-2.46
-13.11
-25.74
-39.78
-53.98
-67.08
-78.37
-87.83
-95.90
-102.93
-108.71
-112.18
-111.74
-105.83
-93.72
-76.01
-54.60
-32.17
-11.29
6.46
20.89
33.09
44.89
58.22
74.64
94.94
119.08
146.10
174.11
200.64
223.21
240.00
250.33
254.43
252.65
244.62
229.12
204.83
171.74
131.97
89.58
49.12
13.78
-15.64
-40.49
-62.90
-84.17
-104.08
-121.22
-134.16
-142.51
-147.29
-150.28
-153.10
-156.54
-160.40
-163.87
-166.11
-166.56
-164.96
-161.20
-155.30
-147.67
-139.56
-133.25
-131.56
-136.70
-148.97
-166.10
-183.81
-197.30
-202.84
-198.72
-184.94
-162.55
-133.09
-98.62
-62.04
-26.98
3.01
25.86
41.88
53.68
64.74
77.65
92.95
109.19
124.14
136.07
144.52
150.01
153.29
154.71
154.22
151.76
147.60
142.48
137.24
132.42
127.92
123.17
117.54
110.80
103.35
95.94
89.33
83.85
79.16
74.33
68.11
59.42
47.71
33.29
17.34
1.61
-12.25
-23.33
-31.84
-38.94
-46.13
-54.51
-64.29
-74.75
-84.64
-92.73
-98.26
-101.08
-101.60
-100.38
-97.96
-94.63
-90.51
-85.73
-80.62
-75.64
-71.30
-67.98
-65.68
-64.15
-62.99
-61.96
-61.09
-60.63
-60.84
-61.74
-62.97
-63.91
-63.88
-62.43
-59.50
-55.46
-50.92
-46.48
-42.54
-39.17
-36.17
-33.20
-30.06
-26.83
-23.91
-21.80
-20.75
-20.48
-20.16
-18.61
-14.86
-8.55
-0.13
9.30
18.39
26.04
31.68
35.26
37.01
37.22
36.13
33.91
30.75
26.88
22.52
17.79
12.78
7.67
2.83
-1.23
-4.07
-5.64
-6.44
-7.30
-9.01
-11.83
-15.28
-18.38
-20.21
-20.42
-19.52
-18.58
-18.71
-20.49
-23.75
-27.68
-31.17
-33.19
-33.07
-30.46
-25.36
-18.19
-9.89
-1.89
4.21
7.32
7.49
6.02
4.79
5.09
6.76
8.11
6.85
1.27
-8.71
-21.42
-34.10
-43.88
-48.60
-47.07
-38.88
-24.19
-3.64
21.55
49.44
77.57
103.38
124.65
139.94
148.85
152.10
151.41
149.09
147.38
147.79
150.71
155.43
160.43
163.99
164.64
161.55
154.66
144.73
133.11
121.52
111.46
103.80
98.31
93.76
88.27
80.12
68.48
53.76
37.31
20.81
5.36
-8.86
-22.43
-35.81
-48.59
-59.17
-65.34
-65.41
-59.27
-48.56
-35.91
-23.70
-13.21
-4.72
1.87
6.40
8.67
9.06
8.94
10.33
14.79
22.23
30.73
37.66
41.13
41.07
38.90
36.19
33.49
30.17
25.21
18.31
10.13
1.47
-7.74
-18.80
-33.30
-51.71
-72.36
-91.80
-106.33
-113.79
-114.46
-110.63
-105.22
-100.42
-97.01
-94.68
-92.72
-90.68
-88.50
-86.35
-84.31
-82.24
-79.95
-77.39
-74.68
-72.14
-69.99
-68.23
-66.58
-64.45
-61.17
-56.10
-48.97
-39.97
-29.82
-19.61
-10.44
-3.14
2.04
5.42
7.65
9.37
10.89
12.11
12.66
12.16
10.44
7.65
4.19
0.51
-3.06
-6.41
-9.59
-12.73
-15.95
-19.28
-22.68
-26.02
-29.15
-31.89
-34.19
-36.16
-38.19
-40.86
-44.65
-49.79
-55.86
-61.91
-66.67
-69.10
-68.78
-66.23
-62.75
-59.88
-58.84
-59.96
-62.68
-65.83
-68.37
-69.93
-71.17
-73.41
-77.87
-84.92
-93.50
-101.43
-106.18
-105.90
-99.93
-88.71
-73.41
-55.43
-36.28
-17.50
-0.47
14.09
26.69
39.19
53.92
72.11
92.45
110.74
121.19
119.03
102.98
76.21
45.43
18.36
0.93
-4.53
0.71
13.15
29.12
46.28
64.10
83.01
103.04
122.92
140.04
151.39
155.01
150.88
140.99
128.31
115.40
103.49
92.49
81.66
70.70
60.20
51.66
46.66
46.02
49.25
54.42
58.73
59.43
54.74
44.61
30.73
16.07
3.67
-4.50
-8.31
-9.36
-10.13
-12.75
-17.99
-25.06
-32.07
-37.05
-38.87
-37.73
-35.00
-32.67
-32.63
-36.13
-43.58
-54.41
-67.12
-79.40
-88.54
-92.23
-89.51
-81.36
-70.48
-60.15
-52.77
-48.72
-46.19
-42.21
-34.02
-20.33
-1.60
20.52
44.02
67.26
88.93
107.89
122.84
132.53
136.17
134.02
127.43
118.58
109.75
102.54
97.38
93.57
89.82
85.01
78.84
72.03
65.85
61.34
58.72
57.17
55.34
52.11
47.09
40.69
33.61
26.17
18.08
8.63
-2.55
-15.06
-27.61
-38.61
-46.85
-52.04
-54.80
-56.20
-57.13
-57.95
-58.53
-58.63
-58.34
-58.13
-58.73
-60.64
-63.87
-67.89
-71.90
-75.25
-77.66
-79.21
-80.09
-80.25
-79.29
-76.62
-71.78
-64.83
-56.39
-47.50
-39.29
-32.56
-27.62
-24.28
-22.11
-20.70
-19.84
-19.52
-19.84
-20.80
-22.22
-23.74
-24.96
-25.65
-25.76
-25.53
-25.31
-25.39
-25.87
-26.61
-27.31
-27.63
-27.44
-26.85
-26.15
-25.66
-25.56
-25.87
-26.44
-27.12
-27.69
-27.95
-27.62
-26.44
-24.25
-21.10
-17.33
-13.39
-9.71
-6.54
-3.89
-1.65
0.23
1.74
2.84
3.55
3.99
4.36
4.80
5.37
6.06
6.86
7.80
8.96
10.32
11.76
13.02
13.84
14.09
13.79
13.15
12.36
11.47
10.39
8.90
6.79
3.91
0.16
-4.48
-9.91
-15.79
-21.55
-26.40
-29.64
-30.82
-30.02
-27.63
-24.29
-20.52
-16.67
-12.99
-9.66
-6.98
-5.17
-4.34
-4.31
-4.70
-5.15
-5.43
-5.54
-5.55
-5.56
-5.51
-5.28
-4.79
-4.04
-3.07
-1.95
-0.67
0.89
2.78
4.97
7.35
9.70
11.77
13.32
14.10
13.91
12.70
10.61
8.04
5.61
4.01
3.85
5.43
8.77
13.57
19.31
25.39
31.25
36.40
40.53
43.55
45.53
46.66
47.11
46.97
46.23
44.93
43.18
41.32
39.82
39.11
39.39
40.50
42.00
43.29
43.91
43.65
42.60
41.03
39.24
37.37
35.39
33.14
30.41
27.03
22.95
18.20
12.92
7.31
1.75
-3.35
-7.45
-10.09
-10.94
-9.95
-7.41
-3.86
-0.02
3.43
6.02
7.54
8.04
7.72
6.77
5.31
3.34
0.87
-2.02
-5.10
-8.08
-10.68
-12.78
-14.39
-15.64
-16.73
-17.82
-19.04
-20.52
-22.34
-24.45
-26.70
-28.81
-30.51
-31.67
-32.40
-32.97
-33.75
-35.07
-37.01
-39.46
-42.02
-44.10
-44.94
-43.83
-40.28
-34.13
-25.68
-15.58
-4.73
5.96
15.65
23.72
29.78
33.71
35.72
36.19
35.61
34.38
32.75
30.83
28.71
26.60
24.82
23.68
23.29
23.48
23.83
23.82
23.10
21.59
19.46
17.02
14.58
12.27
10.18
8.31
6.64
5.18
3.79
2.24
0.17
-2.74
-6.59
-11.09
-15.52
-18.97
-20.51
-19.59
-16.14
-10.64
-3.95
2.92
9.06
13.85
17.02
18.66
18.98
18.27
16.71
14.41
11.50
8.24
5.00
2.25
0.33
-0.58
-0.55
0.27
1.62
3.29
5.06
6.67
7.85
8.35
8.02
6.90
5.24
3.31
1.38
-0.42
-2.19
-4.22
-6.96
-10.79
-15.87
-21.88
-27.99
-32.95
-35.54
-34.95
-31.07
-24.58
-16.60
-8.34
-0.76
5.55
10.33
13.52
15.18
15.47
14.68
13.25
11.65
10.28
9.34
8.80
8.54
8.34
8.05
7.57
6.86
5.94
4.84
3.58
2.14
0.39
-1.79
-4.43
-7.36
-10.23
-12.57
-14.05
-14.64
-14.70
-14.82
-15.62
-17.46
-20.25
-23.49
-26.39
-28.15
-28.12
-26.02
-21.93
-16.29
-9.72
-2.90
3.56
9.21
13.74
16.96
18.77
19.15
18.29
16.52
14.32
12.25
10.76
10.10
10.32
11.34
13.07
15.49
18.57
22.21
26.08
29.69
32.54
34.30
34.87
34.40
33.16
31.38
29.20
26.69
23.88
20.84
17.61
14.18
10.49
6.50
2.40
-1.29
-3.76
-4.08
-1.57
3.94
11.88
21.10
30.14
37.71
42.98
45.74
46.21
44.75
41.56
36.65
29.91
21.37
11.35
0.47
-10.55
-21.13
-30.94
-39.90
-47.97
-55.06
-60.94
-65.38
-68.33
-69.98
-70.82
-71.47
-72.49
-74.23
-76.76
-79.77
-82.69
-84.84
-85.57
-84.64
-82.38
-79.66
-77.59
-76.98
-77.90
-79.47
-80.20
-78.67
-74.09
-66.57
-57.00
-46.49
-35.95
-25.90
-16.57
-8.19
-1.15
4.18
7.56
9.21
9.72
9.78
9.92
10.28
10.71
10.93
10.78
10.35
9.85
9.53
9.61
10.20
11.36
13.04
15.02
16.88
18.12
18.27
17.22
15.35
13.29
11.74
11.13
11.46
12.39
13.45
14.21
14.41
13.92
12.73
11.06
9.34
8.33
8.87
11.62
16.80
24.00
32.38
40.89
48.68
55.24
60.39
64.19
66.75
68.16
68.46
67.76
66.26
64.28
62.19
60.29
58.75
57.53
56.47
55.33
53.97
52.36
50.58
48.74
46.85
44.72
42.08
38.67
34.37
29.35
23.95
18.55
13.40
8.55
3.87
-0.85
-5.79
-11.06
-16.69
-22.69
-28.90
-35.03
-40.50
-44.56
-46.44
-45.63
-42.12
-36.43
-29.48
-22.31
-15.78
-10.40
-6.30
-3.35
-1.34
-0.12
0.38
0.20
-0.51
-1.51
-2.43
-2.99
-3.05
-2.73
-2.30
-2.06
-2.19
-2.61
-3.11
-3.40
-3.38
-3.15
-3.07
-3.55
-4.90
-7.17
-10.10
-13.19
-15.85
-17.63
-18.36
-18.22
-17.62
-17.07
-17.07
-17.91
-19.58
-21.71
-23.63
-24.53
-23.69
-20.70
-15.64
-9.02
-1.60
5.82
12.54
18.15
22.39
25.17
26.50
26.57
25.69
24.31
22.89
21.74
21.02
20.75
20.89
21.34
21.96
22.56
22.93
22.91
22.47
21.76
20.94
20.16
19.34
18.29
16.74
14.55
11.78
8.72
5.67
2.86
0.29
-2.22
-5.01
-8.43
-12.72
-17.90
-23.61
-29.16
-33.65
-36.13
-35.98
-33.04
-27.73
-20.90
-13.52
-6.47
-0.34
4.58
8.27
10.78
12.25
12.81
12.59
11.78
10.57
9.22
7.94
6.95
6.35
6.21
6.49
7.13
8.08
9.33
10.87
12.64
14.40
15.81
16.44
16.02
14.49
12.02
8.89
5.34
1.51
-2.55
-6.82
-11.25
-15.75
-20.34
-25.21
-30.67
-36.89
-43.68
-50.24
-55.36
-57.80
-56.75
-52.17
-44.79
-35.74
-26.17
-16.81
-7.93
0.53
8.66
16.36
23.29
28.94
32.83
34.78
34.94
33.94
32.66
32.08
32.89
35.30
39.02
43.46
47.99
52.20
55.84
58.73
60.56
60.90
59.34
55.70
50.27
43.73
37.00
30.91
25.91
22.07
18.99
16.11
12.91
9.08
4.64
-0.16
-4.93
-9.33
-13.05
-15.79
-17.13
-16.62
-13.89
-8.88
-2.06
5.72
13.39
20.14
25.53
29.58
32.44
34.16
34.57
33.38
30.41
25.85
20.31
14.63
9.60
5.72
3.07
1.41
0.36
-0.40
-1.00
-1.49
-1.84
-2.13
-2.54
-3.34
-4.78
-6.95
-9.78
-12.96
-16.10
-18.82
-20.89
-22.33
-23.41
-24.54
-26.19
-28.64
-31.96
-35.89
-39.93
-43.42
-45.69
-46.17
-44.46
-40.45
-34.31
-26.62
-18.20
-10.01
-2.88
2.69
6.59
8.98
10.13
10.22
9.35
7.55
4.92
1.74
-1.53
-4.33
-6.18
-6.78
-6.20
-4.79
-3.08
-1.56
-0.45
0.31
0.95
1.67
2.38
2.78
2.44
1.09
-1.20
-4.09
-7.06
-9.73
-12.02
-14.12
-16.43
-19.39
-23.32
-28.27
-34.02
-39.98
-45.30
-49.07
-50.53
-49.40
-45.95
-40.99
-35.61
-30.83
-27.28
-25.11
-24.04
-23.64
-23.48
-23.32
-23.08
-22.65
-21.89
-20.63
-18.80
-16.45
-13.85
-11.28
-8.92
-6.75
-4.66
-2.49
-0.18
2.19
4.49
6.56
8.23
9.33
9.73
9.36
8.31
6.86
5.36
4.12
3.21
2.48
1.57
0.05
-2.41
-5.95
-10.35
-15.00
-18.95
-21.15
-20.78
-17.65
-12.29
-5.77
0.76
6.48
11.05
14.55
17.12
18.78
19.41
19.00
17.83
16.48
15.57
15.49
16.15
17.12
17.85
18.09
17.89
17.61
17.58
17.95
18.60
19.29
19.82
20.14
20.33
20.43
20.35
19.87
18.75
16.88
14.37
11.50
8.56
5.69
2.72
-0.79
-5.28
-11.01
-17.75
-24.77
-31.00
-35.34
-37.05
-36.02
-32.76
-28.23
-23.50
-19.38
-16.31
-14.41
-13.59
-13.74
-14.78
-16.54
-18.75
-21.00
-22.81
-23.80
-23.81
-22.87
-21.15
-18.82
-16.01
-12.85
-9.52
-6.27
-3.39
-1.16
0.23
0.66
0.11
-1.30
-3.33
-5.70
-8.18
-10.78
-13.74
-17.53
-22.53
-28.82
-35.95
-43.03
-48.92
-52.61
-53.54
-51.68
-47.53
-41.87
-35.50
-29.02
-22.71
-16.56
-10.35
-3.90
2.87
9.80
16.59
22.84
28.22
32.60
35.95
38.42
40.19
41.41
42.25
42.89
43.52
44.27
45.16
45.98
46.41
46.07
44.69
42.28
39.08
35.48
31.82
28.31
25.00
21.76
18.44
14.83
10.74
6.08
0.97
-4.18
-8.66
-11.64
-12.42
-10.68
-6.63
-0.95
5.50
11.86
17.56
22.28
25.90
28.37
29.65
29.74
28.76
26.92
24.56
22.01
19.59
17.52
15.93
14.82
14.07
13.52
12.99
12.47
12.07
12.10
12.86
14.51
17.03
20.08
23.26
26.14
28.49
30.26
31.52
32.35
32.72
32.43
31.05
28.19
23.63
17.61
10.89
4.64
0.06
-2.06
-1.65
0.57
3.38
5.52
6.03
4.50
1.06
-3.84
-9.58
-15.47
-20.78
-24.75
-26.66
-26.02
-22.70
-17.05
-9.83
-1.99
5.57
12.24
17.84
22.51
26.52
30.08
33.24
35.75
37.35
37.83
37.17
35.56
33.27
30.49
27.16
23.01
17.67
10.83
2.41
-7.44
-18.41
-30.00
-41.56
-52.23
-60.95
-66.78
-69.09
-67.96
-64.13
-58.78
-53.10
-47.85
-43.27
-39.18
-35.33
-31.61
-28.17
-25.21
-22.87
-21.03
-19.44
-17.80
-15.93
-13.83
-11.59
-9.38
-7.34
-5.48
-3.68
-1.73
0.61
3.45
6.68
10.01
13.03
15.42
17.09
18.12
18.67
18.77
18.18
16.48
13.26
8.41
2.27
-4.38
-10.47
-14.95
-17.06
-16.48
-13.43
-8.50
-2.51
3.67
9.31
13.92
17.33
19.67
21.22
22.33
23.21
23.91
24.35
24.44
24.21
23.85
23.53
23.33
23.17
22.87
22.30
21.42
20.34
19.01
17.14
14.31
10.09
4.47
-2.00
-8.41
-13.80
-17.63
-19.96
-21.41
-22.80
-24.91
-28.22
-32.80
-38.27
-43.94
-48.81
-51.73
-51.74
-48.36
-41.73
-32.73
-22.75
-13.25
-5.53
-0.34
2.14
2.16
0.24
-3.05
-7.28
-12.13
-17.39
-22.81
-28.07
-32.72
-36.40
-38.80
-39.85
-39.59
-38.18
-35.82
-32.78
-29.37
-26.04
-23.23
-21.26
-20.24
-20.07
-20.46
-21.01
-21.41
-21.43
-21.08
-20.56
-20.30
-20.80
-22.52
-25.49
-29.22
-32.66
-34.43
-33.30
-28.63
-20.58
-10.01
1.85
13.84
25.11
35.19
43.74
50.46
54.96
57.08
56.97
55.21
52.68
50.18
48.17
46.68
45.39
43.99
42.41
40.88
39.75
39.29
39.43
39.81
39.82
38.92
36.78
33.39
29.06
24.33
19.79
15.93
12.98
10.87
9.23
7.57
5.39
2.41
-1.37
-5.59
-9.64
-12.83
-14.52
-14.38
-12.43
-9.01
-4.66
0.03
4.57
8.66
12.15
15.01
17.21
18.71
19.46
19.55
19.11
18.32
17.33
16.21
15.00
13.81
12.82
12.24
12.24
12.78
13.59
14.24
14.30
13.48
11.68
9.01
5.65
1.87
-2.06
-5.95
-9.66
-13.27
-17.05
-21.38
-26.59
-32.70
-39.30
-45.47
-50.08
-52.10
-50.90
-46.52
-39.52
-30.92
-21.81
-13.10
-5.38
1.12
6.37
10.36
13.04
14.34
14.25
12.97
10.91
8.60
6.47
4.72
3.30
2.02
0.79
-0.35
-1.18
-1.55
-1.56
-1.57
-2.15
-3.80
-6.71
-10.74
-15.44
-20.29
-24.92
-29.23
-33.45
-37.96
-43.16
-49.31
-56.41
-64.11
-71.64
-77.94
-81.76
-82.04
-78.22
-70.52
-59.93
-47.97
-36.17
-25.66
-16.94
-9.90
-4.16
0.69
4.85
8.38
11.31
13.73
15.78
17.61
19.27
20.72
21.86
22.68
23.28
23.92
24.81
26.07
27.58
29.02
29.95
29.98
28.94
26.91
24.14
20.93
17.43
13.65
9.38
4.35
-1.73
-9.04
-17.55
-26.97
-36.58
-45.30
-51.79
-54.75
-53.32
-47.39
-37.62
-25.20
-11.40
2.73
16.48
29.46
41.36
51.86
60.70
67.74
73.07
76.97
79.77
81.76
83.09
83.82
83.98
83.56
82.57
80.98
78.74
75.78
72.07
67.59
62.37
56.41
49.86
42.94
36.03
29.56
23.89
19.12
15.05
11.16
6.82
1.48
-5.10
-12.60
-20.16
-26.41
-29.91
-29.53
-24.91
-16.69
-6.27
4.61
14.43
22.32
28.11
32.10
34.71
36.21
36.62
35.92
34.18
31.68
28.88
26.27
24.20
22.82
22.13
22.04
22.51
23.52
25.00
26.80
28.54
29.69
29.72
28.31
25.49
21.73
17.70
14.08
11.23
9.05
7.01
4.35
0.44
-5.00
-11.63
-18.57
-24.59
-28.42
-29.21
-26.67
-21.25
-13.92
-5.92
1.63
7.90
12.54
15.56
17.26
18.01
18.17
17.95
17.40
16.54
15.38
14.03
12.67
11.50
10.66
10.19
10.03
10.08
10.21
10.23
9.88
8.88
6.99
4.21
0.74
-3.07
-6.91
-10.76
-14.89
-19.81
-26.00
-33.71
-42.77
-52.59
-62.18
-70.36
-75.99
-78.16
-76.55
-71.42
-63.66
-54.51
-45.25
-36.87
-30.02
-24.96
-21.71
-20.13
-20.00
-20.94
-22.46
-23.97
-24.95
-25.02
-24.03
-21.99
-19.02
-15.28
-10.91
-6.05
-0.82
4.58
9.84
14.52
18.08
19.94
19.66
17.09
12.41
6.13
-1.18
-9.04
-17.18
-25.42
-33.43
-40.52
-45.65
-47.70
-45.87
-40.18
-31.50
-21.28
-11.11
-2.15
5.09
10.75
15.23
18.91
21.92
24.21
25.68
26.39
26.58
26.62
26.83
27.34
28.07
28.72
28.92
28.37
26.93
24.66
21.78
18.57
15.20
11.76
8.13
4.10
-0.65
-6.46
-13.63
-22.30
-32.25
-42.83
-52.95
-61.23
-66.40
-67.63
-64.83
-58.59
-50.00
-40.30
-30.53
-21.49
-13.67
-7.37
-2.86
-0.37
-0.02
-1.70
-5.06
-9.49
-14.24
-18.60
-22.04
-24.36
-25.69
-26.33
-26.56
-26.45
-25.76
-24.07
-21.05
-16.70
-11.35
-5.59
0.03
5.15
9.65
13.54
16.87
19.74
22.35
24.90
27.40
29.36
29.80
27.60
22.10
13.71
3.90
-5.21
-11.71
-14.47
-13.24
-8.37
-0.44
9.85
21.54
33.33
43.68
51.20
55.11
55.39
52.52
47.05
39.31
29.50
17.91
5.22
-7.61
-19.57
-29.97
-38.53
-45.36
-50.70
-54.87
-58.20
-61.09
-63.92
-66.82
-69.55
-71.49
-71.82
-69.84
-65.21
-57.95
-48.40
-37.00
-24.27
-10.83
2.50
14.82
25.32
33.47
39.27
43.13
45.65
47.29
48.17
48.06
46.58
43.53
39.07
33.80
28.64
24.44
21.71
20.44
20.17
20.18
19.83
18.71
16.79
14.30
11.56
8.81
6.12
3.30
0.09
-3.76
-8.37
-13.71
-19.63
-25.79
-31.73
-36.72
-39.86
-40.29
-37.46
-31.52
-23.30
-14.19
-5.54
1.63
7.03
10.82
13.41
15.09
15.86
15.56
13.99
11.16
7.29
2.86
-1.62
-5.66
-8.98
-11.53
-13.50
-15.27
-17.25
-19.67
-22.51
-25.52
-28.37
-30.88
-33.13
-35.45
-38.23
-41.78
-46.29
-51.84
-58.41
-65.89
-73.71
-80.66
-84.88
-84.22
-76.93
-62.44
-41.66
-16.74
9.59
34.81
57.18
75.81
90.40
100.97
107.61
110.58
110.43
108.10
104.77
101.62
99.52
98.85
99.55
101.24
103.38
105.45
107.02
107.65
106.98
104.62
100.23
93.60
84.76
74.03
62.06
49.65
37.49
25.93
14.79
3.51
-8.62
-21.87
-35.86
-49.46
-61.19
-69.79
-74.75
-76.53
-76.23
-75.21
-74.44
-74.28
-74.44
-74.32
-73.24
-70.84
-67.09
-62.35
-57.15
-52.01
-47.29
-43.05
-39.07
-34.94
-30.31
-24.96
-18.88
-12.21
-5.14
2.09
9.32
16.44
23.42
30.39
37.58
45.18
53.27
61.72
70.18
78.27
85.67
92.21
97.86
102.60
106.44
109.44
111.77
113.64
115.17
116.05
115.51
112.45
105.87
95.32
81.24
64.87
47.91
31.89
17.83
6.06
-3.61
-11.60
-18.28
-23.82
-28.23
-31.40
-33.27
-33.87
-33.39
-32.06
-30.19
-28.10
-26.14
-24.72
-24.38
-25.61
-28.79
-33.98
-40.91
-48.98
-57.50
-65.90
-73.93
-81.58
-88.85
-95.43
-100.55
-102.99
-101.58
-95.68
-85.55
-72.40
-58.01
-44.20
-32.24
-22.62
-15.11
-9.03
-3.69
1.36
6.19
10.64
14.37
17.12
18.80
19.55
19.66
19.46
19.16
18.86
18.53
18.09
17.43
16.45
14.98
12.83
9.80
5.84
1.06
-4.21
-9.54
-14.55
-19.07
-23.18
-27.15
-31.41
-36.30
-41.93
-47.94
-53.52
-57.50
-58.67
-56.23
-50.04
-40.80
-29.87
-18.80
-8.96
-1.20
4.18
7.25
8.25
7.44
5.09
1.58
-2.59
-6.80
-10.58
-13.76
-16.51
-19.23
-22.29
-25.78
-29.53
-33.22
-36.71
-40.20
-44.25
-49.61
-56.94
-66.60
-78.47
-92.00
-106.13
-119.53
-130.68
-138.19
-141.16
-139.49
-133.84
-125.41
-115.36
-104.30
-92.13
-78.25
-62.05
-43.46
-23.14
-2.29
17.82
36.28
52.78
67.42
80.37
91.56
100.58
106.85
110.03
110.26
108.18
104.79
101.10
97.79
95.08
92.82
90.85
89.12
87.80
87.14
87.19
87.66
88.04
87.79
86.62
84.66
82.28
79.95
77.91
76.03
73.79
70.43
65.08
57.02
46.02
32.52
17.82
3.80
-7.58
-14.89
-17.74
-16.83
-13.64
-9.80
-6.57
-4.54
-3.80
-4.14
-5.40
-7.50
-10.40
-14.00
-18.10
-22.42
-26.71
-30.75
-34.39
-37.49
-39.93
-41.67
-42.79
-43.51
-44.06
-44.63
-45.32
-46.11
-47.00
-48.06
-49.39
-51.04
-52.96
-54.97
-56.95
-58.88
-60.88
-63.08
-65.37
-67.32
-68.09
-66.74
-62.49
-55.02
-44.55
-31.76
-17.65
-3.36
10.01
21.47
30.33
36.28
39.31
39.69
37.81
34.04
28.74
22.27
15.03
7.44
-0.18
-7.67
-14.84
-21.34
-26.43
-29.02
-28.01
-22.80
-13.68
-1.82
11.02
23.12
33.27
40.95
46.23
49.44
50.84
50.57
48.59
44.87
39.40
32.38
24.23
15.61
7.51
1.05
-2.76
-3.30
-0.51
5.08
12.61
21.14
29.88
38.26
45.91
52.56
58.04
62.31
65.47
67.73
69.31
70.27
70.52
69.92
68.46
66.34
63.99
61.82
60.05
58.60
57.10
55.10
52.14
47.91
42.32
35.52
27.93
20.23
13.30
7.87
4.35
2.54
1.71
0.87
-0.89
-4.09
-8.66
-14.06
-19.44
-23.75
-26.03
-25.62
-22.33
-16.49
-8.94
-0.78
6.90
13.30
17.97
20.81
21.92
21.47
19.73
17.06
13.90
10.76
8.07
6.06
4.65
3.56
2.45
1.11
-0.39
-1.79
-2.77
-3.12
-2.96
-2.69
-2.85
-3.94
-6.15
-9.38
-13.26
-17.35
-21.31
-24.98
-28.44
-31.86
-35.49
-39.56
-44.21
-49.43
-54.97
-60.23
-64.32
-66.22
-65.12
-60.84
-53.96
-45.69
-37.47
-30.53
-25.49
-22.42
-21.09
-21.25
-22.84
-25.93
-30.40
-35.87
-41.62
-46.88
-51.19
-54.48
-57.10
-59.61
-62.51
-66.17
-70.73
-76.11
-81.86
-87.21
-91.00
-91.97
-89.03
-81.64
-70.09
-55.37
-38.96
-22.33
-6.59
7.65
20.23
31.14
40.18
46.78
50.09
49.38
44.46
36.04
25.70
15.38
6.70
0.36
-4.01
-7.48
-11.14
-15.39
-19.75
-23.12
-24.45
-23.32
-20.15
-15.92
-11.59
-7.68
-4.08
-0.34
3.99
9.11
15.13
22.36
31.42
42.96
57.11
72.99
88.61
101.31
108.55
108.73
101.56
88.22
70.87
52.18
34.82
20.86
11.27
5.68
2.48
-0.44
-4.82
-11.23
-18.86
-25.97
-30.72
-31.93
-29.30
-23.28
-14.59
-3.98
7.92
20.40
32.57
43.44
52.09
58.02
61.25
62.30
61.92
60.88
59.77
58.93
58.42
58.16
58.11
58.31
58.94
60.19
62.07
64.25
66.10
66.86
65.99
63.39
59.52
55.13
50.97
47.50
44.77
42.49
40.28
37.73
34.55
30.56
25.77
20.48
15.30
11.05
8.47
7.93
9.13
11.18
12.96
13.54
12.53
10.09
6.77
3.04
-0.84
-4.88
-9.11
-13.33
-17.03
-19.44
-19.90
-18.13
-14.36
-9.31
-3.81
1.46
6.21
10.44
14.29
17.73
20.45
21.90
21.54
19.02
14.41
8.10
0.73
-6.97
-14.38
-21.12
-27.06
-32.35
-37.33
-42.40
-47.84
-53.57
-59.07
-63.41
-65.52
-64.60
-60.39
-53.38
-44.62
-35.39
-26.76
-19.43
-13.65
-9.43
-6.75
-5.69
-6.24
-8.16
-10.84
-13.39
-14.93
-15.03
-13.76
-11.69
-9.55
-7.88
-6.89
-6.48
-6.38
-6.34
-6.24
-6.07
-5.87
-5.73
-5.74
-6.02
-6.71
-7.88
-9.56
-11.75
-14.56
-18.14
-22.64
-27.92
-33.46
-38.40
-41.70
-42.57
-40.74
-36.56
-30.84
-24.58
-18.63
-13.48
-9.33
-6.15
-3.86
-2.37
-1.65
-1.60
-2.08
-2.83
-3.52
-3.71
-3.02
-1.27
1.51
5.01
8.76
12.29
15.23
17.40
18.76
19.36
19.15
18.07
15.99
12.92
8.99
4.45
-0.47
-5.72
-11.49
-18.12
-25.81
-34.44
-43.31
-51.29
-57.11
-59.83
-59.25
-55.95
-51.16
-46.24
-42.28
-39.68
-38.21
-37.24
-36.12
-34.39
-31.97
-29.02
-25.74
-22.31
-18.75
-15.01
-10.99
-6.68
-2.13
2.57
7.19
11.51
15.32
18.47
20.90
22.69
23.90
24.53
24.45
23.41
21.23
17.89
13.64
8.81
3.75
-1.40
-6.58
-11.59
-15.91
-18.62
-18.70
-15.50
-9.08
-0.34
9.36
18.64
26.61
32.90
37.53
40.60
42.16
42.21
40.84
38.36
35.25
31.97
28.84
25.95
23.24
20.66
18.19
15.89
13.84
12.08
10.56
9.14
7.61
5.72
3.26
0.14
-3.56
-7.58
-11.55
-15.17
-18.33
-21.20
-24.16
-27.65
-31.89
-36.80
-41.86
-46.23
-48.97
-49.33
-47.01
-42.21
-35.53
-27.82
-19.92
-12.49
-5.94
-0.49
3.77
6.81
8.68
9.44
9.23
8.16
6.35
3.94
1.09
-1.95
-4.94
-7.70
-10.15
-12.31
-14.23
-15.93
-17.39
-18.63
-19.74
-20.94
-22.54
-24.86
-28.02
-31.91
-36.20
-40.44
-44.27
-47.58
-50.48
-53.32
-56.47
-60.18
-64.48
-69.16
-73.81
-77.89
-80.80
-81.97
-81.02
-77.86
-72.77
-66.33
-59.31
-52.38
-46.00
-40.36
-35.49
-31.44
-28.33
-26.30
-25.33
-25.07
-24.89
-23.98
-21.69
-17.72
-12.26
-5.86
0.86
7.41
13.54
19.20
24.37
28.91
32.55
34.92
35.74
35.01
33.01
30.32
27.51
25.06
23.11
21.50
19.85
17.74
14.88
11.13
6.55
1.36
-4.05
-9.05
-12.79
-14.31
-12.87
-8.19
-0.67
8.69
18.65
28.12
36.47
43.47
49.15
53.46
56.27
57.39
56.80
54.81
52.04
49.25
47.04
45.74
45.28
45.43
45.88
46.46
47.13
47.93
48.93
50.08
51.25
52.16
52.48
51.93
50.37
47.89
44.73
41.19
37.53
33.86
30.13
26.23
22.09
17.72
13.19
8.64
4.28
0.45
-2.37
-3.60
-2.76
0.38
5.65
12.54
20.30
28.20
35.61
42.01
47.00
50.20
51.39
50.48
47.64
43.18
37.57
31.27
24.75
18.44
12.68
7.72
3.67
0.53
-1.83
-3.51
-4.65
-5.34
-5.72
-6.04
-6.63
-7.84
-9.93
-12.99
-16.87
-21.28
-25.87
-30.39
-34.67
-38.74
-42.72
-46.78
-51.10
-55.74
-60.57
-65.14
-68.78
-70.66
-70.08
-66.76
-60.88
-53.05
-43.99
-34.32
-24.51
-14.89
-5.90
1.96
8.13
12.31
14.57
15.30
15.09
14.42
13.58
12.61
11.43
9.96
8.11
5.75
2.73
-1.03
-5.43
-10.05
-14.30
-17.59
-19.68
-20.77
-21.52
-22.71
-24.97
-28.45
-32.87
-37.53
-41.64
-44.49
-45.60
-44.77
-42.14
-38.13
-33.32
-28.31
-23.48
-18.91
-14.36
-9.41
-3.68
3.03
10.59
18.67
26.76
34.28
40.70
45.57
48.60
49.66
48.88
46.54
42.98
38.55
33.48
27.94
22.04
15.93
9.82
3.91
-1.62
-6.83
-12.00
-17.60
-24.09
-31.72
-40.36
-49.49
-58.34
-66.24
-72.84
-78.16
-82.59
-86.44
-89.87
-92.65
-94.24
-93.73
-89.82
-80.91
-65.47
-43.02
-14.72
16.28
45.76
69.90
86.80
97.14
103.51
108.87
114.90
121.34
126.32
127.64
123.81
114.59
100.80
83.94
65.96
49.07
35.66
27.58
25.72
29.51
37.10
46.02
54.08
59.99
63.41
64.70
64.32
62.65
59.88
56.13
51.55
46.17
39.84
32.20
23.03
12.64
2.02
-7.39
-14.46
-19.11
-22.73
-27.71
-36.44
-49.98
-67.49
-86.33
-103.12
-114.93
-120.01
-118.11
-110.06
-97.43
-82.16
-66.40
-52.26
-41.32
-34.25
-30.58
-29.01
-28.03
-26.59
-24.45
-22.01
-19.80
-18.07
-16.64
-15.09
-13.04
-10.34
-6.96
-2.96
1.63
6.69
11.97
16.96
21.09
23.80
24.81
24.15
22.07
18.93
15.05
10.60
5.63
0.05
-6.26
-13.45
-21.54
-30.34
-39.38
-47.98
-55.35
-60.90
-64.30
-65.59
-64.95
-62.48
-57.87
-50.38
-38.97
-22.89
-2.00
22.91
50.27
78.19
104.91
129.03
149.42
165.08
175.03
178.72
176.36
169.21
159.27
148.70
139.02
130.66
123.15
115.59
107.19
97.43
86.09
73.17
58.88
43.88
29.26
16.32
6.06
-1.43
-7.07
-12.48
-19.22
-28.10
-38.74
-49.64
-58.65
-63.58
-62.80
-55.62
-42.37
-24.32
-3.28
18.80
40.29
60.07
77.53
92.47
104.88
114.85
122.48
127.85
131.04
132.11
131.13
128.21
123.49
117.09
108.97
98.89
86.50
71.49
53.92
34.36
14.00
-5.63
-22.96
-36.84
-46.76
-52.91
-56.02
-57.13
-57.28
-57.38
-58.12
-59.97
-63.22
-67.86
-73.46
-79.12
-83.52
-85.34
-83.60
-78.13
-69.61
-59.39
-48.97
-39.58
-31.86
-25.89
-21.51
-18.53
-16.82
-16.33
-16.86
-18.14
-19.78
-21.46
-23.00
-24.30
-25.30
-25.85
-25.80
-25.07
-23.80
-22.35
-21.23
-20.89
-21.65
-23.53
-26.43
-30.17
-34.53
-39.32
-44.32
-49.44
-54.63
-60.09
-66.05
-72.80
-80.37
-88.45
-96.29
-102.87
-107.10
-108.13
-105.65
-99.84
-91.44
-81.37
-70.55
-59.69
-49.26
-39.61
-31.13
-24.31
-19.73
-17.82
-18.65
-21.76
-26.24
-30.95
-34.86
-37.28
-37.96
-36.95
-34.45
-30.59
-25.46
-19.16
-11.95
-4.34
3.06
9.59
14.82
18.53
20.71
21.55
21.30
20.33
19.04
17.76
16.62
15.42
13.68
10.86
6.71
1.42
-4.19
-9.00
-11.83
-11.83
-8.64
-2.41
6.37
16.94
28.41
39.84
50.32
59.02
65.39
69.15
70.41
69.64
67.49
64.73
61.94
59.51
57.50
55.78
54.11
52.34
50.50
48.76
47.32
46.28
45.48
44.49
42.81
40.05
36.18
31.61
27.08
23.46
21.49
21.54
23.47
26.61
30.00
32.54
33.37
32.08
28.83
24.33
19.63
15.82
13.69
13.55
15.08
17.40
19.32
19.67
17.61
12.94
6.07
-2.11
-10.60
-18.55
-25.46
-31.21
-35.85
-39.47
-42.09
-43.67
-44.23
-43.87
-42.85
-41.40
-39.72
-37.89
-35.96
-34.10
-32.68
-32.24
-33.28
-36.07
-40.39
-45.57
-50.66
-54.81
-57.53
-58.86
-59.33
-59.83
-61.31
-64.49
-69.60
-76.11
-82.87
-88.37
-91.28
-91.04
-88.11
-83.89
-80.17
-78.43
-79.36
-82.65
-87.44
-92.91
-98.79
-105.49
-113.74
-123.91
-135.46
-146.87
-156.04
-161.00
-160.32
-153.09
-138.62
-116.38
-86.35
-49.50
-8.15
34.61
75.98
114.47
150.16
183.65
214.62
240.70
257.73
261.36
249.27
222.54
185.55
144.40
104.75
70.42
43.08
23.00
10.04
4.23
5.62
13.72
26.98
42.77
57.98
69.83
76.64
78.06
74.88
68.40
59.83
49.95
39.12
27.50
15.41
3.61
-6.77
-14.47
-18.55
-18.82
-15.92
-11.06
-5.66
-0.77
3.11
6.11
8.74
11.73
15.65
20.81
27.07
33.94
40.78
47.01
52.37
56.87
60.68
63.92
66.47
68.04
68.20
66.48
62.29
55.14
44.85
32.09
18.62
7.07
0.22
-0.09
6.21
17.26
29.95
40.83
47.04
46.85
39.73
26.37
8.48
-11.27
-29.65
-43.52
-50.64
-50.32
-43.61
-32.93
-21.35
-11.78
-6.32
-5.94
-10.46
-18.85
-29.70
-41.61
-53.57
-64.97
-75.49
-84.85
-92.75
-99.00
-103.70
-107.39
-110.80
-114.32
-117.32
-117.99
-113.89
-103.01
-85.09
-62.11
-37.83
-16.28
-0.16
10.25
16.96
23.17
31.80
44.54
61.65
82.31
105.23
128.70
150.52
167.96
178.21
179.42
171.64
157.23
140.21
124.78
113.80
107.80
105.22
103.41
99.98
93.69
84.53
73.20
60.41
46.46
31.34
15.04
-2.14
-19.63
-36.85
-53.50
-69.59
-85.08
-99.64
-112.40
-122.25
-128.27
-130.14
-128.30
-123.71
-117.48
-110.53
-103.45
-96.54
-89.93
-83.57
-77.30
-70.79
-63.80
-56.25
-48.44
-40.94
-34.36
-29.09
-25.08
-21.86
-18.73
-15.07
-10.57
-5.38
-0.05
4.73
8.38
10.68
11.73
11.90
11.57
11.02
10.29
9.30
7.87
5.82
3.03
-0.55
-4.83
-9.56
-14.19
-18.05
-20.33
-20.42
-17.99
-13.17
-6.49
1.25
9.21
16.70
23.21
28.48
32.41
34.95
36.17
36.16
35.15
33.45
31.47
29.57
28.01
26.88
26.12
25.66
25.35
25.13
24.92
24.65
24.21
23.44
22.21
20.39
17.91
14.78
10.99
6.65
1.93
-2.96
-7.79
-12.53
-17.30
-22.47
-28.43
-35.40
-43.21
-51.22
-58.41
-63.61
-65.80
-64.34
-59.20
-50.93
-40.60
-29.53
-19.00
-10.03
-3.21
1.18
3.18
2.82
0.22
-4.42
-10.68
-17.84
-25.08
-31.64
-37.06
-41.25
-44.38
-46.55
-47.65
-47.35
-45.33
-41.52
-36.25
-30.11
-23.73
-17.54
-11.64
-5.95
-0.39
5.01
10.11
14.77
18.90
22.48
25.49
27.82
29.22
29.51
28.60
26.68
24.22
21.90
20.53
20.84
23.22
27.49
32.87
38.10
41.94
43.58
42.96
40.67
37.56
34.24
30.79
26.91
22.25
16.90
11.50
7.09
4.59
4.43
6.40
9.82
13.96
18.33
22.76
27.24
31.63
35.53
38.30
39.40
38.52
35.85
31.95
27.53
23.25
19.46
16.27
13.52
10.90
8.07
4.74
0.79
-3.68
-8.30
-12.55
-15.74
-17.28
-16.72
-13.93
-9.15
-2.97
3.77
10.18
15.57
19.53
21.98
23.01
22.83
21.63
19.68
17.28
14.86
12.78
11.28
10.29
9.49
8.46
6.85
4.62
1.95
-0.78
-3.26
-5.35
-7.18
-9.09
-11.44
-14.50
-18.29
-22.59
-27.02
-31.24
-35.06
-38.56
-42.10
-46.12
-50.97
-56.69
-62.96
-69.07
-74.12
-77.27
-77.93
-75.91
-71.45
-65.19
-58.01
-50.79
-44.27
-38.89
-34.69
-31.51
-29.08
-27.22
-25.93
-25.36
-25.56
-26.50
-27.89
-29.35
-30.59
-31.52
-32.22
-32.80
-33.26
-33.30
-32.53
-30.52
-26.94
-21.66
-14.63
-5.82
4.70
16.75
29.94
43.65
57.19
69.97
81.50
91.49
99.63
105.61
109.05
109.72
107.65
103.29
97.48
91.31
85.85
81.92
79.93
79.81
81.08
83.03
84.95
86.28
86.66
85.86
83.72
80.11
75.02
68.65
61.43
53.96
46.83
40.42
34.82
29.86
25.32
20.99
16.87
13.04
9.61
6.57
3.77
0.97
-2.07
-5.45
-9.13
-12.86
-16.38
-19.47
-22.06
-24.26
-26.31
-28.47
-30.97
-33.95
-37.40
-41.16
-44.85
-47.89
-49.60
-49.26
-46.45
-41.09
-33.61
-24.82
-15.75
-7.45
-0.74
3.81
6.01
5.95
3.98
0.60
-3.61
-8.05
-12.18
-15.54
-17.86
-19.03
-19.15
-18.41
-17.05
-15.25
-13.18
-11.00
-8.96
-7.34
-6.45
-6.52
-7.59
-9.53
-12.11
-15.06
-18.15
-21.25
-24.28
-27.26
-30.27
-33.53
-37.22
-41.39
-45.75
-49.54
-51.70
-51.15
-47.25
-40.08
-30.46
-19.73
-9.25
-0.09
7.17
12.44
15.82
17.54
17.75
16.65
14.53
11.81
8.97
6.48
4.62
3.50
3.05
3.06
3.27
3.47
3.51
3.31
2.88
2.20
1.21
-0.20
-2.13
-4.58
-7.42
-10.42
-13.34
-16.12
-18.98
-22.27
-26.39
-31.51
-37.41
-43.39
-48.45
-51.46
-51.48
-48.00
-41.10
-31.46
-20.12
-8.29
2.98
12.88
20.93
26.86
30.52
31.93
31.26
28.97
25.67
22.04
18.60
15.57
12.92
10.53
8.37
6.59
5.48
5.24
5.87
7.03
8.18
8.74
8.27
6.58
3.70
-0.16
-4.70
-9.62
-14.68
-19.71
-24.67
-29.66
-34.87
-40.50
-46.69
-53.42
-60.42
-67.12
-72.77
-76.51
-77.66
-75.86
-71.31
-64.75
-57.21
-49.80
-43.41
-38.53
-35.21
-33.20
-32.11
-31.60
-31.45
-31.60
-32.07
-32.82
-33.77
-34.76
-35.70
-36.59
-37.59
-38.74
-39.77
-39.97
-38.35
-34.07
-26.96
-17.79
-7.98
1.06
8.59
14.76
20.35
26.13
32.23
37.95
42.20
44.02
43.16
40.10
35.82
31.35
27.53
24.88
23.84
24.76
27.98
33.61
41.44
50.79
60.55
69.34
75.86
79.28
79.49
77.12
73.22
68.89
64.88
61.38
58.13
54.68
50.69
46.12
41.22
36.46
32.26
28.93
26.51
24.82
23.57
22.45
21.23
19.87
18.42
16.97
15.52
14.04
12.48
10.89
9.37
7.97
6.61
4.99
2.82
-0.05
-3.40
-6.60
-8.82
-9.33
-7.68
-3.88
1.66
8.30
15.28
21.88
27.51
31.78
34.57
36.01
36.41
36.10
35.41
34.56
33.71
33.00
32.60
32.67
33.33
34.64
36.57
38.94
41.35
43.11
43.39
41.39
36.64
29.21
19.70
9.15
-1.15
-10.02
-16.60
-20.57
-22.18
-22.16
-21.46
-20.94
-21.04
-21.69
-22.36
-22.33
-20.88
-17.61
-12.39
-5.51
2.49
10.85
18.72
25.33
30.15
32.96
33.86
33.25
31.56
29.23
26.57
23.72
20.71
17.56
14.35
11.29
8.62
6.58
5.19
4.30
3.63
2.84
1.73
0.23
-1.72
-4.16
-7.17
-10.80
-14.98
-19.46
-23.92
-28.04
-31.69
-34.93
-38.01
-41.15
-44.42
-47.65
-50.29
-51.61
-50.83
-47.40
-41.26
-32.90
-23.28
-13.56
-4.74
2.59
8.31
12.56
15.57
17.46
18.27
18.07
17.07
15.67
14.37
13.50
13.15
13.15
13.20
13.09
12.79
12.45
12.24
12.21
12.15
11.70
10.52
8.41
5.38
1.65
-2.48
-6.75
-10.96
-15.10
-19.26
-23.68
-28.60
-34.17
-40.24
-46.32
-51.62
-55.24
-56.45
-54.93
-50.81
-44.62
-37.15
-29.19
-21.45
-14.47
-8.67
-4.37
-1.75
-0.89
-1.64
-3.67
-6.43
-9.30
-11.67
-13.09
-13.31
-12.32
-10.24
-7.31
-3.76
0.14
4.14
7.98
11.37
14.05
15.87
16.81
17.00
16.59
15.78
14.64
13.14
11.15
8.50
5.02
0.65
-4.45
-9.84
-14.76
-18.31
-19.63
-18.23
-14.21
-8.19
-1.13
5.97
12.34
17.57
21.51
24.17
25.59
25.84
25.01
23.33
21.11
18.75
16.63
15.07
14.19
14.00
14.32
14.91
15.46
15.76
15.67
15.23
14.56
13.80
13.06
12.28
11.27
9.77
7.60
4.66
0.97
-3.43
-8.52
-14.32
-20.74
-27.44
-33.73
-38.71
-41.57
-41.87
-39.70
-35.67
-30.61
-25.29
-20.23
-15.66
-11.64
-8.19
-5.37
-3.28
-1.97
-1.39
-1.29
-1.34
-1.17
-0.52
0.65
2.22
3.93
5.60
7.19
8.80
10.51
12.23
13.67
14.35
13.91
12.26
9.65
6.52
3.28
0.12
-3.01
-6.39
-10.30
-14.93
-20.25
-25.99
-31.61
-36.42
-39.62
-40.57
-38.97
-35.03
-29.41
-23.04
-16.77
-11.16
-6.39
-2.34
1.17
4.26
6.85
8.86
10.27
11.21
11.91
12.58
13.31
14.09
14.88
15.74
16.82
18.26
20.05
21.92
23.42
24.12
23.86
22.79
21.29
19.65
17.88
15.66
12.57
8.26
2.68
-3.93
-11.12
-18.45
-25.52
-31.88
-36.96
-40.02
-40.31
-37.37
-31.23
-22.51
-12.32
-1.91
7.55
15.27
20.83
24.22
25.65
25.46
24.09
21.95
19.40
16.70
14.07
11.70
9.79
8.48
7.87
7.92
8.49
9.46
10.79
12.46
14.42
16.37
17.82
18.19
17.10
14.49
10.75
6.44
2.10
-2.00
-5.92
-10.00
-14.69
-20.31
-26.93
-34.15
-41.01
-46.13
-48.05
-45.71
-38.86
-28.25
-15.27
-1.50
11.77
23.72
33.82
41.66
46.80
48.88
47.90
44.35
39.18
33.50
28.22
23.84
20.41
17.72
15.54
13.79
12.49
11.72
11.46
11.42
11.14
10.00
7.52
3.44
-2.05
-8.43
-14.96
-21.04
-26.38
-31.07
-35.51
-40.17
-45.37
-51.18
-57.39
-63.51
-68.86
-72.59
-73.84
-72.00
-66.91
-59.07
-49.60
-39.95
-31.45
-24.97
-20.70
-18.27
-17.10
-16.66
-16.69
-17.15
-18.13
-19.66
-21.66
-24.01
-26.58
-29.32
-32.19
-35.13
-38.00
-40.66
-42.99
-45.03
-46.96
-49.07
-51.59
-54.58
-57.96
-61.42
-64.54
-66.94
-68.33
-68.65
-68.11
-67.08
-65.99
-65.13
-64.48
-63.69
-62.18
-59.31
-54.50
-47.38
-37.85
-26.12
-12.76
1.36
15.20
27.81
38.51
47.00
53.36
57.82
60.67
62.15
62.54
62.28
61.96
62.19
63.39
65.64
68.63
71.91
75.11
78.07
80.82
83.34
85.47
86.78
86.76
85.06
81.64
76.82
71.10
65.03
59.02
53.31
48.01
43.08
38.36
33.53
28.24
22.20
15.41
8.28
1.65
-3.43
-6.06
-5.75
-2.69
2.26
7.89
12.98
16.73
19.06
20.51
21.97
24.28
27.86
32.53
37.76
42.89
47.56
51.82
55.96
60.28
64.67
68.60
71.15
71.43
68.89
63.49
55.68
46.21
35.90
25.47
15.49
6.39
-1.52
-8.01
-12.95
-16.34
-18.35
-19.35
-19.93
-20.71
-22.27
-24.89
-28.51
-32.72
-36.96
-40.63
-43.20
-44.25
-43.46
-40.66
-35.96
-29.87
-23.20
-16.91
-11.82
-8.32
-6.35
-5.59
-5.71
-6.51
-7.97
-10.07
-12.59
-15.07
-16.94
-17.70
-17.16
-15.43
-12.88
-9.92
-6.88
-3.94
-1.21
1.17
3.02
4.07
4.08
2.92
0.54
-2.93
-7.27
-12.20
-17.44
-22.87
-28.52
-34.73
-42.00
-50.81
-61.24
-72.80
-84.43
-94.78
-102.66
-107.48
-109.37
-109.06
-107.49
-105.59
-104.03
-103.21
-103.36
-104.44
-106.02
-107.20
-106.74
-103.39
-96.43
-85.97
-73.03
-59.17
-45.88
-34.08
-23.93
-14.98
-6.63
1.49
9.27
16.22
21.87
26.06
29.21
32.26
36.24
41.88
49.29
57.84
66.44
73.89
79.35
82.63
84.12
84.60
84.92
85.86
88.18
92.73
100.31
111.39
125.50
140.95
154.93
164.27
166.44
160.43
147.05
128.45
107.18
85.21
63.42
41.87
20.41
-0.62
-20.09
-36.46
-48.47
-55.79
-59.01
-59.25
-57.34
-53.42
-47.21
-38.57
-28.07
-17.17
-7.68
-0.91
2.89
4.53
5.34
6.39
8.04
10.00
11.70
12.68
12.82
12.17
10.76
8.63
5.85
2.73
-0.19
-2.27
-3.02
-2.39
-0.80
1.11
2.73
3.78
4.23
4.23
3.76
2.72
0.94
-1.66
-5.00
-8.89
-13.26
-18.14
-23.54
-29.25
-34.68
-38.95
-41.15
-40.69
-37.48
-32.02
-25.20
-18.16
-12.11
-8.09
-6.77
-8.20
-11.66
-15.84
-19.22
-20.63
-19.75
-17.15
-14.07
-11.73
-10.84
-11.28
-12.23
-12.50
-11.06
-7.35
-1.40
6.15
14.34
22.06
28.30
32.40
34.16
34.00
32.88
32.16
33.20
36.88
43.23
51.40
59.83
66.76
70.68
70.77
67.00
60.03
50.97
41.03
31.23
22.14
13.84
6.02
-1.79
-9.97
-18.55
-27.20
-35.28
-42.18
-47.49
-51.26
-53.97
-56.51
-60.03
-65.55
-73.62
-83.83
-94.55
-102.83
-104.99
-97.57
-78.60
-48.57
-10.62
30.15
68.15
98.88
120.04
131.60
135.11
132.69
126.18
116.93
105.92
94.09
82.41
71.74
62.57
54.83
47.89
40.93
33.40
25.28
17.26
10.36
5.48
3.01
2.66
3.65
5.10
6.27
6.76
6.35
4.82
1.79
-2.98
