1607664323.00
64.000000
-0.00
-0.00
-0.00
-0.00
-0.00
-0.00
-0.00
-0.00
-0.00
-0.00
0.00
0.01
0.01
-0.00
-0.03
-0.05
-0.05
0.00
0.13
0.36
0.66
1.01
1.37
1.72
2.06
2.40
2.79
3.24
3.80
4.42
5.06
5.66
6.20
6.68
7.15
7.68
8.31
9.14
10.09
11.04
11.88
12.56
13.14
13.76
14.65
15.96
17.91
20.32
22.90
25.38
27.58
29.57
31.68
34.32
37.81
42.54
48.15
54.10
59.83
64.97
69.58
74.14
79.34
85.71
93.76
103.00
112.62
121.73
129.77
136.75
143.30
150.75
157.77
166.64
177.95
191.79
206.97
220.57
228.25
225.36
208.53
176.87
132.76
80.05
23.07
-34.94
-92.44
-149.16
-205.23
-260.37
-313.74
-363.87
-409.83
-450.91
-486.50
-515.74
-537.23
-549.22
-549.96
-538.37
-514.21
-478.67
-433.88
-382.45
-327.02
-269.84
-212.63
-156.66
-102.95
-52.37
-5.90
35.58
71.43
101.35
125.50
144.38
158.69
169.15
176.37
180.75
182.57
182.07
179.51
175.23
169.65
163.18
156.15
148.81
141.30
133.69
126.02
118.33
110.69
103.16
95.80
88.68
81.83
75.25
68.95
62.95
57.25
51.86
46.78
42.03
37.59
33.45
29.61
26.07
22.81
19.83
17.11
14.67
12.48
10.54
8.83
7.35
6.07
4.97
4.05
3.27
2.62
2.09
1.65
1.30
1.01
0.79
0.61
0.47
0.37
0.28
0.23
0.18
0.15
0.13
0.13
0.13
0.14
0.16
0.18
0.21
0.24
0.28
0.32
0.36
0.41
0.45
0.50
0.55
0.60
0.65
0.71
0.77
0.83
0.91
0.99
1.07
1.17
1.28
1.40
1.53
1.68
1.85
2.05
2.26
2.49
2.75
3.04
3.35
3.70
4.07
4.49
4.93
5.42
5.94
6.50
7.11
7.76
8.45
9.19
9.97
10.80
11.67
12.59
13.56
14.59
15.68
16.84
18.05
19.33
20.64
21.94
23.15
24.17
24.87
25.10
24.78
23.80
22.11
19.73
16.70
13.05
8.92
4.47
-0.13
-4.66
-8.91
-12.67
-15.79
-18.17
-19.80
-20.73
-21.07
-20.95
-20.46
-19.68
-18.65
-17.40
-15.99
-14.52
-13.14
-12.02
-11.26
-10.85
-10.68
-10.54
-10.23
-9.68
-8.98
-8.33
-8.04
-8.31
-9.15
-10.35
-11.55
-12.43
-12.87
-13.00
-13.23
-14.06
-15.87
-18.69
-22.20
-25.90
-29.28
-32.03
-34.19
-36.07
-38.24
-41.34
-45.94
-52.43
-60.57
-69.29
-76.70
-80.47
-78.55
-70.16
-56.14
-38.90
-21.65
-7.46
1.57
4.65
2.01
-4.52
-13.21
-22.04
-28.91
-31.95
-29.74
-21.83
-9.07
6.43
21.83
34.13
41.45
43.67
42.46
40.81
42.03
48.73
62.20
82.22
107.15
134.66
162.29
188.14
211.36
232.22
251.68
270.61
288.89
304.89
315.79
318.43
310.44
291.20
262.01
225.63
185.35
144.07
103.77
65.34
28.73
-6.87
-42.57
-79.20
-116.71
-153.78
-187.79
-215.34
-232.98
-238.04
-229.15
-206.37
-171.20
-126.37
-75.77
-24.08
23.90
64.05
93.70
111.90
119.07
116.27
104.46
84.35
56.51
21.85
-18.00
-60.57
-102.77
-141.37
-173.69
-198.02
-213.79
-221.50
-222.27
-217.31
-207.60
-193.75
-176.12
-155.09
-131.37
-106.21
-81.51
-59.74
-43.47
-34.72
-34.14
-40.60
-51.39
-63.11
-72.78
-78.75
-80.84
-79.86
-76.81
-72.24
-66.26
-58.77
-49.94
-40.37
-31.02
-22.83
-16.38
-11.82
-8.87
-7.12
-6.27
-6.29
-7.40
-9.94
-14.12
-19.86
-26.61
-33.50
-39.49
-43.65
-45.41
-44.64
-41.60
-36.80
-30.73
-23.74
-15.99
-7.56
1.42
10.70
19.92
28.66
36.57
43.45
49.23
53.97
57.82
60.97
63.59
65.81
67.61
68.90
69.56
69.43
68.41
66.39
63.28
59.09
54.01
48.47
43.11
38.61
35.39
33.36
31.92
30.10
27.01
22.16
15.76
8.69
2.10
-3.08
-6.69
-9.54
-13.21
-19.30
-28.52
-40.03
-51.43
-59.36
-60.74
-53.97
-39.82
-21.59
-4.55
5.20
2.47
-15.28
-46.64
-86.21
-125.88
-157.41
-175.00
-177.01
-166.02
-147.52
-127.73
-111.60
-101.47
-96.82
-94.88
-91.98
-84.96
-72.28
-54.50
-33.83
-13.27
4.52
18.05
27.10
32.47
35.48
37.55
39.97
43.71
49.26
56.49
64.43
71.47
75.58
74.76
67.64
54.04
35.22
13.70
-7.42
-25.42
-38.83
-47.69
-53.25
-57.13
-60.45
-63.33
-64.86
-63.44
-57.42
-45.73
-28.45
-6.92
16.56
39.28
58.90
74.32
86.09
96.17
106.95
119.82
134.66
149.89
163.24
172.69
177.12
176.59
172.10
165.25
157.45
150.53
147.05
150.13
162.50
185.31
217.44
255.53
294.66
328.21
350.85
360.44
358.51
348.81
335.36
321.33
308.48
297.23
284.36
266.86
244.10
218.33
192.48
168.33
146.35
126.28
107.81
86.34
58.25
23.40
-14.42
-50.89
-83.79
-113.12
-140.02
-165.96
-198.13
-242.48
-300.52
-368.35
-440.87
-515.10
-590.36
-666.97
-708.09
-687.28
-606.28
-495.11
-384.84
-291.10
-216.25
-156.82
-108.14
-66.23
-34.06
-14.22
-6.30
-4.91
-3.62
1.61
12.20
28.05
48.43
64.43
73.76
76.14
75.16
75.29
79.12
87.20
98.78
112.58
124.52
131.79
132.84
129.45
124.53
120.07
116.68
113.86
110.18
102.10
90.78
76.12
59.54
43.14
28.64
17.05
8.53
2.46
-3.02
-9.96
-21.14
-37.96
-59.87
-84.24
-106.57
-121.71
-125.66
-117.13
-97.95
-72.97
-47.39
-24.88
-6.70
8.08
21.42
35.16
50.36
67.33
85.09
101.60
113.65
117.19
108.83
87.58
56.08
20.25
-12.59
-36.59
-49.13
-51.06
-45.44
-35.47
-23.09
-8.92
7.01
24.17
41.27
56.84
70.13
81.50
92.11
103.28
115.60
128.67
141.30
152.08
159.97
164.66
166.39
165.74
163.07
158.34
151.01
140.22
125.21
105.59
81.45
53.53
22.98
-8.79
-40.39
-70.72
-99.07
-125.23
-149.38
-171.92
-193.31
-213.87
-233.74
-252.84
-270.97
-287.97
-303.77
-318.63
-333.10
-347.89
-363.70
-381.01
-400.01
-420.42
-441.43
-461.31
-477.59
-487.32
-487.78
-477.46
-456.66
-427.45
-392.85
-355.89
-318.61
-281.98
-246.14
-210.77
-175.57
-140.33
-104.81
-68.63
-31.54
6.45
44.59
81.62
116.31
147.70
175.23
198.84
218.97
235.73
248.81
257.35
260.28
257.71
250.59
240.50
229.42
219.50
211.97
207.47
205.71
205.76
208.28
214.33
224.55
239.31
259.64
286.30
320.93
363.91
412.73
463.63
509.60
541.14
550.31
535.55
500.07
452.29
401.23
353.05
312.97
283.01
261.18
245.04
235.83
233.27
237.40
246.96
240.66
205.73
143.04
64.49
-14.15
-70.61
-107.02
-130.71
-148.85
-168.13
-192.56
-223.64
-265.88
-322.95
-390.89
-465.94
-541.74
-609.58
-661.50
-690.66
-678.17
-621.55
-559.95
-511.44
-473.93
-445.43
-422.61
-402.76
-383.13
-362.23
-342.59
-325.96
-307.65
-285.45
-259.70
-231.35
-202.22
-173.71
-146.68
-123.54
-105.35
-87.92
-69.04
-48.84
-27.93
-7.53
11.31
27.86
40.58
48.97
55.86
62.96
70.31
77.68
84.55
90.26
94.38
96.14
95.39
93.61
91.72
89.75
87.57
84.97
81.73
77.74
72.82
67.02
60.99
55.21
49.77
44.74
40.13
35.90
32.04
28.57
25.48
22.80
20.55
18.73
17.35
16.43
15.97
15.96
16.39
17.21
18.41
19.88
21.59
23.45
25.35
27.21
28.95
30.46
31.67
32.49
32.87
32.74
32.05
30.78
28.89
26.36
23.20
19.41
15.06
10.23
5.06
-0.29
-5.68
-10.94
-15.96
-20.63
-24.86
-28.55
-31.61
-33.91
-35.36
-35.90
-35.51
-34.28
-32.33
-29.81
-26.86
-23.56
-19.98
-16.16
-12.19
-8.22
-4.53
-1.42
0.84
2.09
2.37
1.93
1.12
0.25
-0.49
-1.11
-1.76
-2.58
-3.45
-3.98
-3.47
-1.19
3.43
10.50
19.63
30.05
41.00
52.03
63.27
75.35
89.14
105.25
123.76
144.07
165.19
186.13
206.27
225.65
244.87
265.00
287.43
313.71
344.98
381.19
420.22
457.62
487.36
503.50
502.30
483.66
451.27
411.32
370.40
333.52
303.03
278.76
258.99
241.56
224.66
207.15
188.49
168.74
148.73
130.12
115.30
106.69
105.93
112.88
125.26
139.08
149.71
153.17
147.10
131.11
106.39
75.03
39.20
0.49
-40.42
-83.59
-129.12
-176.18
-222.26
-263.25
-294.51
-312.44
-315.85
-306.24
-286.95
-261.68
-233.37
-203.85
-174.42
-146.60
-122.40
-103.75
-91.62
-85.39
-82.97
-81.67
-79.32
-75.00
-69.16
-63.10
-58.29
-55.81
-56.18
-59.49
-65.55
-73.99
-84.17
-95.03
-105.07
-112.55
-115.91
-114.17
-107.23
-95.79
-81.10
-64.54
-47.35
-30.47
-14.60
-0.27
12.03
21.97
29.33
34.02
36.17
36.05
34.18
31.24
28.01
25.31
23.85
24.19
26.65
31.29
37.86
45.70
53.77
60.87
65.83
67.93
67.02
63.58
58.49
52.66
46.75
41.00
35.30
29.33
22.75
15.49
7.80
0.31
-6.03
-10.15
-11.07
-8.24
-1.86
6.97
16.45
24.51
29.51
30.66
28.29
23.57
18.01
12.91
9.12
6.97
6.49
7.55
9.91
13.15
16.65
19.61
21.31
21.27
19.46
16.24
12.27
8.28
4.95
2.67
1.53
1.34
1.71
2.15
2.19
1.52
0.03
-2.15
-4.75
-7.46
-10.03
-12.30
-14.29
-16.12
-18.01
-20.20
-22.90
-26.22
-30.11
-34.26
-38.16
-41.12
-42.54
-42.08
-39.79
-36.13
-31.75
-27.27
-23.05
-19.17
-15.49
-11.88
-8.34
-5.03
-2.18
0.02
1.49
2.25
2.40
2.01
1.19
0.07
-1.14
-2.19
-2.93
-3.32
-3.52
-3.74
-4.16
-4.81
-5.65
-6.59
-7.57
-8.70
-10.12
-12.01
-14.47
-17.53
-21.11
-25.10
-29.32
-33.50
-37.29
-40.27
-42.16
-42.90
-42.66
-41.73
-40.23
-37.98
-34.55
-29.43
-22.42
-13.86
-4.59
4.30
11.88
17.73
22.07
25.55
28.94
32.76
37.16
41.86
46.36
50.06
52.39
52.80
50.79
46.02
38.58
29.20
19.34
10.74
4.87
2.27
2.37
3.78
5.00
5.02
3.65
1.32
-1.36
-4.01
-6.51
-8.82
-10.77
-11.97
-12.04
-10.97
-9.25
-7.78
-7.52
-9.05
-12.32
-16.62
-20.88
-24.05
-25.39
-24.70
-22.19
-18.42
-14.03
-9.55
-5.31
-1.48
1.83
4.52
6.42
7.42
7.50
6.77
5.39
3.53
1.29
-1.18
-3.70
-5.98
-7.67
-8.55
-8.60
-8.10
-7.48
-7.17
-7.40
-8.13
-9.13
-10.11
-10.88
-11.39
-11.77
-12.21
-12.84
-13.67
-14.65
-15.71
-16.92
-18.47
-20.57
-23.32
-26.51
-29.63
-32.06
-33.20
-32.75
-30.68
-27.24
-22.86
-17.98
-13.04
-8.39
-4.29
-0.87
1.79
3.78
5.24
6.46
7.80
9.55
11.74
14.06
15.90
16.58
15.71
13.46
10.53
7.83
6.06
5.38
5.39
5.40
4.85
3.61
2.05
0.98
1.16
3.11
6.92
12.11
17.78
22.81
26.06
26.57
23.75
17.45
8.16
-3.00
-14.35
-24.03
-30.46
-32.75
-30.92
-25.86
-19.02
-11.94
-5.88
-1.60
0.83
1.95
2.78
4.48
8.04
13.87
21.60
30.14
37.87
43.28
45.28
43.55
38.53
31.21
22.84
14.62
7.48
1.91
-1.94
-4.27
-5.35
-5.37
-4.22
-1.50
3.24
10.17
18.78
27.77
35.36
39.79
40.01
35.93
28.36
18.62
8.18
-1.70
-10.10
-16.53
-21.04
-24.17
-26.81
-29.89
-34.00
-39.17
-44.98
-50.80
-56.06
-60.42
-63.67
-65.61
-66.09
-65.12
-63.06
-60.66
-58.72
-57.79
-57.86
-58.36
-58.49
-57.57
-55.35
-52.03
-48.02
-43.57
-38.59
-32.79
-25.95
-18.24
-10.37
-3.42
1.53
3.71
2.91
-0.48
-5.58
-11.25
-16.35
-19.98
-21.67
-21.45
-19.86
-17.70
-15.71
-14.30
-13.47
-12.93
-12.31
-11.38
-10.07
-8.42
-6.45
-4.09
-1.28
1.91
5.21
8.25
10.69
12.45
13.79
15.16
16.94
19.24
21.76
23.99
25.42
25.81
25.23
24.03
22.61
21.21
19.85
18.43
16.85
15.22
13.82
13.02
13.04
13.83
14.99
15.99
16.42
16.18
15.43
14.48
13.45
12.19
10.36
7.65
3.96
-0.45
-5.13
-9.50
-13.10
-15.60
-16.85
-16.82
-15.61
-13.40
-10.43
-7.07
-3.63
-0.47
2.22
4.32
5.89
7.08
8.10
9.14
10.29
11.47
12.49
13.14
13.23
12.72
11.76
10.58
9.49
8.74
8.45
8.66
9.32
10.29
11.35
12.20
12.55
12.20
11.15
9.60
7.83
6.05
4.37
2.71
0.93
-1.07
-3.33
-5.84
-8.54
-11.35
-14.06
-16.31
-17.67
-17.81
-16.69
-14.57
-11.89
-9.07
-6.29
-3.56
-0.79
2.01
4.67
6.96
8.73
10.03
11.08
12.15
13.35
14.60
15.64
16.18
16.05
15.31
14.21
13.11
12.31
11.98
12.03
12.18
12.13
11.64
10.67
9.30
7.71
6.04
4.35
2.70
1.10
-0.38
-1.72
-2.99
-4.34
-5.96
-8.02
-10.50
-13.18
-15.66
-17.50
-18.31
-17.98
-16.67
-14.76
-12.76
-11.06
-9.73
-8.56
-7.15
-5.13
-2.43
0.73
3.92
6.69
8.78
10.17
11.00
11.47
11.76
11.98
12.20
12.46
12.79
13.17
13.54
13.76
13.75
13.48
13.00
12.43
11.83
11.25
10.62
9.83
8.73
7.22
5.25
2.89
0.33
-2.15
-4.28
-5.91
-7.02
-7.76
-8.38
-9.10
-10.12
-11.53
-13.30
-15.26
-17.12
-18.50
-19.07
-18.62
-17.21
-15.13
-12.73
-10.36
-8.22
-6.31
-4.50
-2.66
-0.69
1.38
3.41
5.18
6.47
7.15
7.23
6.89
6.41
6.08
6.02
6.20
6.48
6.68
6.70
6.59
6.47
6.49
6.72
7.09
7.42
7.47
7.08
6.22
5.03
3.71
2.46
1.35
0.31
-0.80
-2.12
-3.72
-5.57
-7.59
-9.64
-11.58
-13.23
-14.39
-14.82
-14.35
-12.97
-10.82
-8.24
-5.62
-3.28
-1.40
0.01
1.15
2.26
3.56
5.15
6.93
8.69
10.15
11.11
11.51
11.43
11.04
10.51
9.96
9.45
8.99
8.57
8.19
7.83
7.43
6.87
5.99
4.75
3.20
1.52
-0.02
-1.21
-1.98
-2.45
-2.90
-3.64
-4.89
-6.70
-8.94
-11.33
-13.55
-15.32
-16.47
-16.93
-16.72
-15.88
-14.51
-12.74
-10.66
-8.42
-6.11
-3.78
-1.46
0.88
3.16
5.29
7.13
8.56
9.53
10.08
10.34
10.43
10.46
10.52
10.64
10.80
10.97
11.03
10.88
10.43
9.67
8.62
7.36
6.02
4.68
3.47
2.49
1.74
1.16
0.58
-0.19
-1.28
-2.70
-4.35
-6.09
-7.84
-9.58
-11.34
-13.12
-14.77
-16.09
-16.84
-16.91
-16.28
-15.09
-13.45
-11.50
-9.27
-6.80
-4.14
-1.39
1.28
3.71
5.79
7.46
8.76
9.80
10.67
11.44
12.10
12.56
12.75
12.60
12.18
11.66
11.21
10.95
10.80
10.60
10.09
9.10
7.63
5.82
3.91
2.12
0.56
-0.78
-1.96
-3.09
-4.25
-5.50
-6.84
-8.31
-9.96
-11.80
-13.79
-15.80
-17.60
-18.98
-19.77
-19.91
-19.50
-18.72
-17.74
-16.68
-15.54
-14.21
-12.60
-10.63
-8.33
-5.77
-3.02
-0.20
2.59
5.22
7.54
9.41
10.73
11.48
11.71
11.58
11.27
10.89
10.51
10.12
9.66
9.11
8.49
7.88
7.36
6.94
6.58
6.15
5.52
4.59
3.38
1.95
0.39
-1.23
-2.90
-4.63
-6.42
-8.24
-10.04
-11.74
-13.30
-14.72
-16.04
-17.28
-18.44
-19.48
-20.28
-20.75
-20.77
-20.28
-19.22
-17.57
-15.34
-12.63
-9.60
-6.47
-3.46
-0.70
1.82
4.17
6.41
8.52
10.35
11.69
12.42
12.52
12.10
11.34
10.39
9.36
8.28
7.21
6.19
5.26
4.44
3.68
2.89
2.00
1.02
0.00
-0.97
-1.87
-2.75
-3.71
-4.87
-6.19
-7.58
-8.86
-9.88
-10.58
-11.03
-11.40
-11.89
-12.69
-13.94
-15.64
-17.62
-19.55
-21.06
-21.83
-21.74
-20.83
-19.29
-17.31
-15.03
-12.53
-9.89
-7.28
-4.86
-2.75
-0.98
0.57
2.07
3.64
5.27
6.81
8.03
8.69
8.63
7.84
6.50
4.93
3.52
2.62
2.38
2.74
3.47
4.21
4.69
4.74
4.40
3.82
3.23
2.90
2.96
3.39
4.03
4.64
5.00
5.07
4.92
4.69
4.49
4.27
3.87
3.13
1.95
0.39
-1.41
-3.25
-4.92
-6.26
-7.07
-7.23
-6.66
-5.45
-3.79
-1.92
0.04
2.08
4.29
6.71
9.29
11.84
14.13
16.00
17.38
18.33
18.86
18.96
18.61
17.81
16.70
15.45
14.31
13.40
12.75
12.23
11.69
10.93
9.83
8.35
6.59
4.78
3.21
2.12
1.60
1.46
1.25
0.38
-1.70
-5.28
-10.22
-16.03
-21.92
-27.09
-30.94
-33.18
-33.86
-33.25
-31.67
-29.39
-26.60
-23.48
-20.28
-17.29
-14.76
-12.79
-11.22
-9.75
-8.06
-5.99
-3.61
-1.17
1.03
2.78
4.03
4.83
5.26
5.38
5.22
4.88
4.52
4.36
4.56
5.11
5.80
6.31
6.39
5.96
5.10
3.94
2.54
0.79
-1.48
-4.24
-7.12
-9.50
-10.78
-10.76
-9.85
-8.95
-8.97
-10.42
-13.07
-16.08
-18.43
-19.37
-18.77
-17.14
-15.38
-14.41
-14.79
-16.51
-18.92
-20.88
-21.14
-18.76
-13.49
-5.86
2.89
11.25
17.87
21.93
23.32
22.44
19.98
16.65
13.08
9.84
7.52
6.66
7.60
10.30
14.27
18.55
22.12
24.18
24.51
23.45
21.69
19.91
18.45
17.24
15.90
13.94
11.08
7.33
3.02
-1.32
-5.22
-8.46
-11.10
-13.47
-15.93
-18.71
-21.81
-24.94
-27.71
-29.77
-30.95
-31.31
-31.02
-30.29
-29.25
-27.96
-26.50
-24.96
-23.46
-22.08
-20.72
-19.18
-17.25
-14.81
-11.94
-8.84
-5.71
-2.69
0.17
2.81
5.11
6.84
7.83
8.05
7.74
7.30
7.13
7.45
8.19
9.07
9.71
9.82
9.28
8.16
6.60
4.79
2.81
0.75
-1.33
-3.33
-5.13
-6.64
-7.92
-9.06
-10.21
-11.36
-12.32
-12.76
-12.41
-11.18
-9.27
-7.03
-4.82
-2.80
-0.97
0.76
2.46
4.07
5.45
6.49
7.32
8.21
9.59
11.76
14.76
18.18
21.31
23.34
23.63
22.04
18.95
15.18
11.60
8.85
7.13
6.23
5.87
5.87
6.35
7.62
9.93
13.32
17.46
21.83
25.80
28.89
30.80
31.48
31.01
29.54
27.17
23.89
19.65
14.42
8.33
1.82
-4.40
-9.59
-13.19
-15.15
-15.91
-16.29
-17.19
-19.22
-22.52
-26.70
-30.93
-34.17
-35.45
-34.22
-30.56
-25.22
-19.39
-14.30
-10.73
-8.76
-7.86
-7.27
-6.40
-5.10
-3.60
-2.25
-1.27
-0.65
-0.22
0.16
0.57
0.98
1.36
1.70
2.00
2.17
2.05
1.50
0.51
-0.78
-2.18
-3.56
-4.92
-6.37
-8.02
-9.78
-11.36
-12.28
-12.11
-10.54
-7.59
-3.55
1.12
5.92
10.54
14.94
19.31
23.90
28.84
33.90
38.53
42.04
43.88
43.89
42.34
39.76
36.72
33.67
30.75
27.88
24.67
20.46
14.27
5.07
-7.92
-24.62
-43.84
-63.30
-80.32
-92.77
-99.87
-102.51
-102.81
-103.07
-104.74
-107.60
-109.79
-108.56
-101.47
-87.49
-67.45
-43.64
-18.81
4.90
26.34
45.13
60.89
72.73
79.46
80.29
75.64
67.27
57.68
49.10
42.72
38.65
36.46
35.84
36.84
39.57
43.70
48.27
51.86
53.22
51.80
47.94
42.65
37.13
32.37
28.87
26.59
25.04
23.48
21.12
17.38
12.07
5.42
-2.04
-9.61
-16.60
-22.54
-27.21
-30.63
-33.05
-34.77
-36.08
-37.21
-38.28
-39.36
-40.52
-41.70
-42.78
-43.61
-44.11
-44.33
-44.41
-44.35
-43.80
-42.04
-38.08
-31.13
-20.93
-7.95
6.78
21.90
36.06
48.12
57.30
63.20
65.81
65.47
62.78
58.43
52.95
46.67
39.73
32.34
24.87
17.77
11.42
5.93
1.25
-2.72
-5.85
-7.82
-8.30
-7.20
-4.90
-2.14
0.25
1.70
2.06
1.48
0.24
-1.53
-3.85
-6.80
-10.40
-14.46
-18.64
-22.39
-25.14
-26.34
-25.63
-23.01
-18.89
-14.02
-9.30
-5.47
-2.89
-1.53
-1.18
-1.64
-2.86
-4.81
-7.37
-10.13
-12.62
-14.54
-16.02
-17.63
-19.93
-22.99
-25.92
-27.07
-24.63
-17.53
-6.06
8.12
22.65
35.44
45.25
51.87
55.67
57.08
56.25
53.15
47.86
40.83
32.83
24.64
16.63
8.69
0.46
-8.21
-16.97
-24.85
-30.69
-33.64
-33.58
-31.13
-27.48
-23.86
-21.17
-19.67
-19.05
-18.61
-17.59
-15.51
-12.26
-8.15
-3.72
0.44
3.96
6.70
8.76
10.30
11.40
12.03
12.09
11.53
10.46
9.16
7.90
6.82
5.92
5.08
4.20
3.37
2.78
2.60
2.89
3.43
3.85
3.77
3.03
1.70
0.06
-1.54
-2.82
-3.66
-4.10
-4.34
-4.69
-5.49
-7.01
-9.26
-11.95
-14.46
-16.13
-16.42
-15.18
-12.60
-9.08
-4.91
-0.19
5.14
11.05
17.29
23.20
27.91
30.60
30.77
28.53
24.49
19.52
14.43
9.74
5.51
1.52
-2.69
-7.68
-14.27
-23.41
-35.95
-52.12
-71.01
-90.52
-107.88
-120.81
-128.54
-132.10
-133.77
-135.68
-138.58
-141.20
-140.71
-133.79
-118.11
-93.27
-61.08
-25.06
10.53
41.84
66.27
83.02
92.92
97.85
99.84
100.46
100.56
100.36
99.91
99.34
98.82
98.35
97.54
95.64
91.78
85.46
76.81
66.74
56.43
46.87
38.37
30.57
22.76
14.41
5.49
-3.63
-12.37
-20.24
-26.76
-31.37
-33.28
-31.76
-26.58
-18.45
-9.07
-0.49
5.62
8.73
9.48
9.10
8.72
8.78
9.04
8.94
8.10
6.53
4.51
2.52
0.91
-0.03
-0.04
1.21
4.01
8.52
14.56
21.60
28.81
35.18
39.75
41.82
41.11
37.80
32.48
25.93
18.96
12.22
6.11
0.77
-3.84
-7.94
-11.85
-15.98
-20.74
-26.42
-33.02
-40.30
-47.70
-54.44
-59.54
-61.89
-60.45
-54.62
-44.61
-31.61
-17.63
-4.91
4.73
10.44
12.30
11.01
7.30
1.61
-5.87
-14.91
-24.79
-34.32
-42.12
-47.20
-49.31
-49.03
-47.34
-45.16
-42.94
-40.54
-37.52
-33.45
-28.18
-21.94
-15.18
-8.37
-1.79
4.45
10.36
15.95
21.19
25.95
30.06
33.40
35.94
37.77
39.05
39.88
40.32
40.42
40.32
40.29
40.65
41.70
43.48
45.87
48.59
51.42
54.21
56.90
59.37
61.39
62.66
62.90
61.84
59.23
54.74
47.99
38.80
27.34
14.32
0.87
-11.82
-22.88
-31.92
-39.00
-44.32
-48.14
-50.64
-52.03
-52.45
-51.87
-49.94
-46.05
-39.63
-30.64
-19.85
-8.75
0.87
7.61
10.74
10.29
6.73
0.74
-6.88
-15.15
-22.99
-29.57
-34.69
-39.02
-43.71
-49.66
-56.78
-63.82
-68.78
-70.03
-67.20
-61.46
-55.07
-50.31
-48.61
-50.17
-54.12
-58.97
-63.09
-65.00
-63.54
-58.10
-48.78
-36.47
-22.69
-9.21
2.45
11.36
17.36
20.90
22.83
24.11
25.54
27.64
30.49
33.81
37.02
39.55
41.03
41.44
41.07
40.33
39.54
38.81
38.01
36.98
35.58
33.79
31.72
29.51
27.30
25.14
22.99
20.75
18.33
15.71
13.02
10.46
8.32
6.87
6.34
6.82
8.20
10.06
11.57
11.49
8.45
1.57
-8.97
-21.57
-33.51
-41.81
-44.35
-40.71
-32.26
-21.53
-11.11
-2.75
3.07
6.85
9.52
11.82
14.06
16.18
17.99
19.43
20.59
21.65
22.73
23.71
24.25
23.88
22.33
19.62
16.22
12.80
9.97
7.98
6.62
5.35
3.67
1.35
-1.42
-4.17
-6.40
-7.85
-8.49
-8.50
-7.92
-6.62
-4.27
-0.67
4.02
9.07
13.34
15.64
15.16
11.76
6.02
-0.95
-7.85
-13.47
-16.93
-17.77
-16.00
-11.98
-6.37
0.09
6.66
12.77
18.03
22.20
25.14
26.86
27.48
27.33
26.89
26.72
27.32
28.95
31.52
34.47
36.84
37.43
35.25
29.88
21.75
12.05
2.38
-5.87
-11.88
-15.58
-17.45
-18.11
-18.03
-17.39
-16.28
-14.86
-13.54
-12.79
-13.01
-14.24
-16.13
-18.07
-19.43
-19.79
-19.05
-17.37
-15.11
-12.69
-10.49
-8.72
-7.45
-6.53
-5.65
-4.40
-2.44
0.42
4.21
8.78
13.88
19.15
24.09
28.18
30.85
31.72
30.72
28.11
24.42
20.34
16.48
13.31
11.07
9.67
8.76
7.72
5.92
2.94
-1.23
-6.13
-11.08
-15.44
-18.88
-21.37
-23.09
-24.19
-24.74
-24.78
-24.44
-24.05
-24.08
-24.90
-26.71
-29.37
-32.54
-35.88
-39.04
-41.75
-43.64
-44.26
-43.11
-39.84
-34.50
-27.59
-20.14
-13.37
-8.44
-6.14
-6.66
-9.49
-13.56
-17.43
-19.67
-19.33
-16.22
-10.98
-4.85
0.78
4.91
7.18
7.92
7.85
7.72
8.02
8.79
9.71
10.31
10.13
8.86
6.47
3.15
-0.71
-4.64
-8.28
-11.42
-14.00
-16.08
-17.67
-18.65
-18.72
-17.39
-14.07
-8.32
0.06
10.81
23.21
36.29
49.05
60.66
70.56
78.31
83.36
84.98
82.42
75.36
64.22
50.35
35.74
22.49
12.22
5.75
2.99
3.23
5.39
8.29
10.84
12.20
11.89
9.91
6.71
3.02
-0.46
-3.22
-5.20
-6.65
-8.01
-9.68
-11.85
-14.44
-17.10
-19.43
-21.10
-22.08
-22.64
-23.34
-24.74
-27.22
-30.81
-35.22
-39.96
-44.58
-48.77
-52.38
-55.32
-57.49
-58.64
-58.54
-57.03
-54.14
-50.10
-45.29
-40.13
-35.01
-30.24
-25.98
-22.32
-19.25
-16.66
-14.44
-12.46
-10.68
-9.26
-8.58
-9.13
-11.19
-14.44
-17.72
-19.25
-17.19
-10.49
0.46
13.91
27.25
38.06
44.83
47.35
46.36
43.06
38.66
34.12
30.22
27.54
26.38
26.60
27.61
28.52
28.55
27.39
25.30
22.97
21.15
20.43
21.03
22.89
25.67
28.81
31.59
33.19
32.92
30.39
25.66
19.18
11.58
3.51
-4.49
-11.90
-18.10
-22.40
-24.12
-22.98
-19.21
-13.62
-7.38
-1.63
2.82
5.55
6.59
6.15
4.50
1.95
-1.21
-4.67
-8.14
-11.38
-14.27
-16.73
-18.72
-20.22
-21.22
-21.84
-22.36
-23.16
-24.58
-26.73
-29.34
-31.77
-33.15
-32.69
-29.90
-24.79
-17.88
-10.04
-2.32
4.42
9.65
13.25
15.50
16.83
17.67
18.26
18.71
19.01
19.25
19.59
20.26
21.36
22.75
24.05
24.74
24.45
23.10
20.96
18.52
16.24
14.38
12.98
11.85
10.68
9.14
6.88
3.66
-0.67
-6.06
-12.23
-18.65
-24.66
-29.43
-32.15
-32.13
-29.00
-22.88
-14.51
-5.15
3.77
11.01
15.82
17.93
17.38
14.35
9.18
2.53
-4.39
-9.99
-12.74
-11.74
-7.14
-0.04
7.95
15.35
21.32
25.69
28.76
30.89
32.26
32.82
32.43
30.93
28.25
24.43
19.55
13.81
7.47
0.89
-5.54
-11.47
-16.67
-21.07
-24.79
-28.02
-30.97
-33.64
-35.72
-36.69
-36.05
-33.63
-29.81
-25.44
-21.56
-19.01
-18.11
-18.74
-20.57
-23.28
-26.65
-30.44
-34.12
-36.85
-37.73
-36.24
-32.45
-27.07
-21.03
-15.03
-9.34
-3.95
1.07
5.25
7.79
7.98
5.83
2.31
-0.83
-1.72
0.77
6.55
14.36
22.41
29.04
33.37
35.35
35.46
34.31
32.38
30.03
27.63
25.67
24.64
24.78
25.79
26.98
27.41
26.40
23.86
20.21
16.19
12.43
9.16
6.13
2.87
-1.07
-5.84
-11.13
-16.42
-21.05
-24.56
-26.75
-27.63
-27.40
-26.35
-24.78
-23.05
-21.42
-20.00
-18.59
-16.71
-13.73
-9.21
-3.18
3.70
10.38
15.73
18.97
19.89
18.91
16.78
14.29
12.05
10.34
9.24
8.67
8.59
8.94
9.66
10.68
11.93
13.30
14.64
15.64
15.85
14.70
11.74
6.84
0.38
-6.82
-13.76
-19.63
-23.95
-26.73
-28.21
-28.74
-28.69
-28.40
-28.25
-28.60
-29.64
-31.21
-32.72
-33.31
-32.18
-28.88
-23.61
-17.17
-10.75
-5.52
-2.21
-0.90
-1.06
-1.78
-2.26
-2.05
-1.23
-0.17
0.66
1.03
0.94
0.60
0.31
0.33
0.84
1.94
3.70
6.09
8.91
11.78
14.21
15.79
16.30
15.82
14.71
13.43
12.41
11.88
11.82
11.96
11.93
11.34
9.97
7.78
4.91
1.64
-1.68
-4.63
-6.85
-8.08
-8.25
-7.52
-6.15
-4.45
-2.63
-0.71
1.41
3.84
6.63
9.67
12.76
15.71
18.37
20.65
22.49
23.80
24.54
24.75
24.63
24.50
24.69
25.43
26.72
28.33
29.94
31.23
32.00
32.25
32.03
31.41
30.32
28.60
26.08
22.67
18.47
13.76
8.89
4.19
-0.15
-4.06
-7.64
-11.08
-14.54
-18.08
-21.56
-24.63
-26.79
-27.62
-27.00
-25.19
-22.75
-20.28
-18.15
-16.31
-14.38
-11.89
-8.50
-4.20
0.68
5.51
9.64
12.41
13.32
12.07
8.69
3.58
-2.49
-8.51
-13.47
-16.76
-18.35
-18.71
-18.47
-17.90
-16.55
-13.37
-7.24
2.23
14.22
26.68
37.04
43.02
43.41
38.21
28.41
15.47
0.89
-14.03
-28.25
-40.95
-51.57
-59.84
-65.75
-69.39
-70.74
-69.56
-65.41
-57.92
-47.18
-34.03
-20.08
-7.31
2.61
8.91
11.97
13.03
13.43
14.00
14.74
15.11
14.57
13.12
11.35
10.12
10.14
11.76
14.94
19.39
24.69
30.22
35.27
39.23
42.06
44.57
48.24
54.52
63.97
75.78
87.98
98.39
105.50
108.90
109.03
106.43
101.33
93.54
83.04
70.40
56.91
44.26
33.83
26.35
21.77
19.68
19.72
21.77
25.65
30.71
35.38
37.36
34.23
24.45
8.10
-12.95
-35.68
-57.00
-74.89
-88.95
-100.04
-109.58
-118.60
-127.40
-135.65
-142.90
-148.98
-154.03
-158.26
-161.48
-163.11
-162.33
-158.68
-152.53
-145.21
-138.78
-135.24
-135.80
-140.17
-146.52
-151.93
-153.29
-148.35
-136.50
-118.95
-98.33
-77.70
-59.47
-44.73
-33.16
-23.56
-14.70
-5.86
3.03
11.80
20.62
30.20
41.48
55.03
70.69
87.63
104.94
122.15
139.26
156.36
173.17
188.84
202.37
213.26
221.79
228.69
234.39
238.45
239.68
236.91
229.88
219.59
207.81
196.06
184.74
173.03
159.47
143.01
123.55
102.16
80.49
60.09
41.88
26.04
12.24
-0.01
-11.02
-20.80
-29.22
-36.20
-41.84
-46.43
-50.27
-53.41
-55.61
-56.36
-55.26
-52.25
-47.73
-42.53
-37.54
-33.56
-31.02
-30.01
-30.34
-31.71
-33.86
-36.71
-40.27
-44.56
-49.45
-54.53
-59.13
-62.57
-64.38
-64.49
-63.26
-61.29
-59.17
-57.22
-55.55
-54.07
-52.72
-51.47
-50.38
-49.44
-48.58
-47.60
-46.36
-44.81
-43.08
-41.41
-39.92
-38.53
-36.91
-34.57
-31.16
-26.66
-21.46
-16.29
-11.92
-9.00
-7.82
-8.33
-10.27
-13.22
-16.83
-20.83
-25.04
-29.31
-33.47
-37.19
-40.01
-41.37
-40.78
-38.08
-33.60
-28.18
-22.92
-18.79
-16.29
-15.29
-15.22
-15.37
-15.22
-14.57
-13.38
-11.61
-9.10
-5.62
-1.03
4.42
10.18
15.47
19.57
22.13
23.18
23.08
22.29
21.12
19.66
17.73
15.11
11.78
8.07
4.68
2.50
2.22
4.01
7.43
11.66
15.81
19.24
21.69
23.10
23.49
22.83
21.14
18.60
15.60
12.62
10.00
7.84
6.03
4.41
2.89
1.54
0.46
-0.37
-1.14
-2.18
-3.81
-6.18
-9.28
-12.89
-16.60
-19.91
-22.33
-23.58
-23.73
-23.20
-22.56
-22.27
-22.43
-22.81
-23.05
-22.89
-22.35
-21.62
-20.82
-19.81
-18.18
-15.43
-11.38
-6.35
-1.15
3.27
6.29
7.86
8.56
9.21
10.48
12.52
14.96
17.14
18.44
18.61
17.77
16.35
14.89
13.80
13.26
13.09
12.85
12.01
10.16
7.28
3.80
0.41
-2.26
-3.99
-5.09
-6.20
-7.89
-10.30
-13.13
-15.81
-17.87
-19.11
-19.47
-18.79
-16.62
-12.26
-5.10
5.04
17.78
32.24
47.40
62.32
76.16
88.09
97.14
102.25
102.63
98.11
89.46
78.31
66.77
56.77
49.50
45.14
42.93
41.62
40.05
37.42
33.52
28.64
23.44
18.94
16.43
17.34
22.82
33.22
47.66
64.13
79.99
92.78
101.02
104.46
103.84
100.36
94.97
88.08
79.45
68.60
55.24
39.72
23.23
7.68
-4.75
-12.22
-13.73
-9.36
-0.23
11.83
24.81
36.78
46.01
50.84
49.67
40.96
23.62
-2.48
-36.01
-73.98
-112.16
-145.99
-171.63
-186.92
-191.58
-186.92
-175.10
-158.40
-138.84
-118.08
-97.50
-78.35
-61.69
-48.34
-38.75
-32.92
-30.33
-30.06
-30.88
-31.61
-31.44
-30.19
-28.21
-26.13
-24.41
-23.18
-22.29
-21.54
-20.97
-20.79
-21.20
-22.09
-23.03
-23.40
-22.71
-20.84
-18.03
-14.65
-11.08
-7.45
-3.77
0.02
3.90
7.76
11.39
14.54
17.02
18.75
19.76
20.16
20.06
19.54
18.59
17.13
15.08
12.47
9.37
5.96
2.42
-1.11
-4.54
-7.87
-11.09
-14.18
-17.03
-19.51
-21.48
-22.90
-23.84
-24.53
-25.31
-26.54
-28.45
-31.02
-33.92
-36.53
-38.14
-38.17
-36.37
-32.89
-28.25
-23.08
-17.95
-13.17
-8.82
-4.79
-0.96
2.75
6.28
9.55
12.41
14.75
16.55
17.81
18.63
19.08
19.24
19.15
18.84
18.31
17.62
16.85
16.09
15.37
14.66
13.88
12.89
11.59
9.96
8.06
6.01
3.95
1.98
0.16
-1.53
-3.15
-4.78
-6.46
-8.26
-10.17
-12.23
-14.43
-16.74
-19.04
-21.09
-22.61
-23.29
-22.96
-21.59
-19.28
-16.28
-12.77
-8.97
-5.02
-1.09
2.66
6.08
9.06
11.56
13.62
15.26
16.47
17.21
17.44
17.21
16.60
15.79
14.86
13.86
12.79
11.63
10.44
9.32
8.37
7.63
7.05
6.52
5.95
5.29
4.56
3.80
3.02
2.21
1.31
0.30
-0.89
-2.33
-4.11
-6.32
-8.97
-11.94
-14.98
-17.72
-19.87
-21.21
-21.74
-21.54
-20.75
-19.50
-17.84
-15.75
-13.24
-10.32
-7.05
-3.57
0.00
3.47
6.67
9.44
11.70
13.41
14.64
15.48
16.04
16.37
16.44
16.19
15.56
14.62
13.52
12.47
11.59
10.91
10.28
9.53
8.53
7.30
5.97
4.67
3.49
2.40
1.30
0.08
-1.32
-2.93
-4.75
-6.82
-9.19
-11.86
-14.74
-17.59
-20.08
-21.86
-22.66
-22.36
-20.98
-18.68
-15.72
-12.41
-9.04
-5.83
-2.85
-0.06
2.70
5.52
8.43
11.28
13.83
15.82
17.15
17.86
18.15
18.20
18.11
17.85
17.33
16.43
15.12
13.48
11.68
9.89
8.27
6.91
5.78
4.80
3.81
2.64
1.22
-0.44
-2.23
-3.99
-5.55
-6.89
-8.07
-9.30
-10.78
-12.64
-14.92
-17.52
-20.28
-22.99
-25.43
-27.41
-28.77
-29.42
-29.43
-28.91
-27.98
-26.52
-24.20
-20.42
-14.61
-6.46
3.82
15.40
27.06
37.50
45.69
51.11
53.81
54.26
53.00
50.51
46.99
42.55
37.32
31.61
26.00
21.12
17.47
15.14
13.66
12.08
9.16
3.73
-4.99
-17.10
-31.89
-47.99
-63.69
-77.49
-88.47
-96.66
-103.00
-108.97
-116.02
-124.95
-135.37
-145.54
-152.57
-153.03
-143.83
-123.12
-91.00
-49.69
-3.20
43.51
85.63
119.42
142.86
155.74
159.42
156.26
148.90
139.75
130.56
122.28
115.06
108.57
102.23
95.59
88.47
81.07
73.94
67.79
63.27
60.67
59.68
59.31
58.09
54.63
48.19
39.14
28.87
19.27
11.91
7.42
5.30
4.24
2.79
-0.06
-4.66
-10.76
-17.82
-25.31
-32.80
-39.92
-46.35
-51.79
-56.07
-59.22
-61.41
-62.91
-63.94
-64.52
-64.55
-63.83
-62.20
-59.54
-55.83
-51.08
-45.40
-39.04
-32.51
-26.42
-21.39
-17.75
-15.41
-13.88
-12.51
-10.76
-8.44
-5.74
-3.04
-0.69
1.16
2.57
3.74
4.79
5.71
6.39
6.67
6.50
6.00
5.42
4.98
4.76
4.61
4.22
3.28
1.56
-0.93
-4.01
-7.37
-10.72
-13.84
-16.58
-18.81
-20.39
-21.20
-21.10
-20.00
-17.89
-14.86
-11.07
-6.82
-2.50
1.46
4.70
7.04
8.54
9.44
10.07
10.71
11.45
12.24
12.92
13.29
13.24
12.75
11.91
10.92
10.01
9.37
9.08
9.08
9.22
9.29
9.17
8.82
8.29
7.64
6.92
6.16
5.38
4.63
3.99
3.53
3.22
2.97
2.61
1.96
0.89
-0.64
-2.60
-4.87
-7.25
-9.49
-11.31
-12.44
-12.67
-11.92
-10.25
-7.88
-5.10
-2.18
0.68
3.41
6.04
8.62
11.17
13.60
15.78
17.55
18.83
19.61
20.01
20.15
20.12
19.99
19.76
19.45
19.12
18.81
18.54
18.27
17.84
17.01
15.59
13.45
10.63
7.29
3.68
0.04
-3.48
-6.76
-9.76
-12.43
-14.72
-16.60
-18.14
-19.49
-20.84
-22.31
-23.85
-25.25
-26.16
-26.26
-25.32
-23.24
-20.07
-15.99
-11.27
-6.28
-1.38
3.11
6.99
10.20
12.84
15.01
16.81
18.31
19.53
20.46
21.08
21.35
21.26
20.85
20.22
19.47
18.60
17.50
15.95
13.79
11.02
7.94
5.04
2.79
1.44
0.90
0.79
0.62
0.06
-0.91
-2.01
-2.77
-2.74
-1.66
0.50
3.53
7.07
10.66
13.76
15.80
16.35
15.21
12.60
9.14
5.66
2.98
1.57
1.53
2.60
4.38
6.53
8.84
11.19
13.41
15.30
16.59
17.06
16.66
15.52
13.86
11.90
9.77
7.51
5.15
2.82
0.71
-0.97
-2.13
-2.89
-3.50
-4.20
-5.09
-6.12
-7.20
-8.31
-9.55
-11.04
-12.76
-14.52
-15.98
-16.87
-17.16
-17.11
-17.16
-17.73
-18.98
-20.81
-22.84
-24.60
-25.65
-25.69
-24.65
-22.60
-19.76
-16.36
-12.63
-8.68
-4.64
-0.61
3.28
6.85
9.90
12.34
14.13
15.34
16.10
16.56
16.84
17.03
17.13
17.14
17.04
16.84
16.55
16.19
15.72
15.08
14.16
12.92
11.37
9.63
7.89
6.33
5.07
4.14
3.41
2.72
1.84
0.60
-1.12
-3.34
-6.00
-8.93
-11.92
-14.74
-17.16
-19.05
-20.32
-20.95
-20.89
-20.07
-18.44
-16.01
-12.87
-9.28
-5.55
-1.96
1.31
4.18
6.65
8.73
10.43
11.77
12.82
13.66
14.35
14.94
15.39
15.66
15.71
15.54
15.13
14.48
13.56
12.41
11.10
9.77
8.58
7.58
6.73
5.86
4.85
3.62
2.25
0.89
-0.30
-1.28
-2.17
-3.11
-4.29
-5.79
-7.63
-9.69
-11.81
-13.70
-15.05
-15.49
-14.80
-12.91
-9.99
-6.40
-2.53
1.35
5.12
8.86
12.70
16.67
20.66
24.42
27.60
29.94
31.30
31.76
31.56
31.09
30.69
30.52
30.50
30.16
28.85
25.97
21.23
14.82
7.41
-0.12
-7.01
-12.80
-17.43
-21.05
-23.88
-26.11
-27.93
-29.59
-31.40
-33.62
-36.30
-39.22
-41.97
-44.15
-45.55
-46.21
-46.29
-45.93
-45.16
-43.88
-42.02
-39.65
-36.96
-34.14
-31.31
-28.38
-25.18
-21.52
-17.37
-12.91
-8.44
-4.32
-0.79
2.04
4.22
5.87
7.17
8.27
9.31
10.41
11.66
13.16
14.96
16.97
18.93
20.47
21.20
20.88
19.57
17.65
15.63
13.95
12.81
12.07
11.36
10.25
8.49
6.10
3.35
0.63
-1.77
-3.73
-5.38
-6.96
-8.72
-10.71
-12.73
-14.38
-15.23
-14.99
-13.65
-11.45
-8.78
-5.98
-3.19
-0.42
2.45
5.39
8.22
10.64
12.40
13.44
13.95
14.26
14.68
15.34
16.16
16.90
17.36
17.46
17.26
16.88
16.45
16.00
15.55
15.04
14.43
13.66
12.67
11.42
9.92
8.23
6.49
4.85
3.42
2.16
0.94
-0.45
-2.14
-4.14
-6.32
-8.43
-10.22
-11.53
-12.35
-12.77
-12.90
-12.79
-12.35
-11.41
-9.74
-7.21
-3.87
0.02
3.92
7.09
8.75
8.27
5.44
0.58
-5.39
-11.25
-15.77
-18.14
-18.20
-16.36
-13.40
-10.08
-6.94
-4.22
-1.92
0.01
1.60
2.82
3.66
4.16
4.41
4.50
4.48
4.28
3.80
2.90
1.51
-0.36
-2.58
-4.96
-7.26
-9.32
-11.05
-12.46
-13.68
-14.85
-16.04
-17.20
-18.13
-18.56
-18.23
-17.00
-14.98
-12.44
-9.72
-7.00
-4.24
-1.16
2.54
6.96
11.86
16.70
20.88
23.90
25.62
26.14
25.71
24.53
22.75
20.55
18.21
16.13
14.70
14.15
14.41
15.14
15.88
16.26
16.09
15.39
14.29
12.93
11.40
9.74
7.95
6.01
3.93
1.68
-0.70
-3.15
-5.57
-7.81
-9.75
-11.30
-12.51
-13.56
-14.73
-16.22
-18.11
-20.21
-22.10
-23.29
-23.37
-22.18
-19.86
-16.74
-13.27
-9.78
-6.44
-3.35
-0.52
1.96
3.97
5.42
6.31
6.82
7.23
7.84
8.79
10.00
11.22
12.12
12.46
12.20
11.53
10.73
10.07
9.67
9.44
9.21
8.77
8.00
6.95
5.74
4.54
3.47
2.56
1.76
0.97
0.09
-0.96
-2.22
-3.74
-5.53
-7.60
-9.87
-12.16
-14.17
-15.56
-16.08
-15.61
-14.27
-12.30
-9.98
-7.47
-4.84
-2.05
0.91
3.98
7.02
9.87
12.38
14.42
15.95
16.97
17.55
17.83
17.95
18.05
18.15
18.20
18.09
17.71
17.00
16.02
14.93
13.89
13.02
12.32
11.62
10.72
9.50
8.09
6.94
6.66
7.76
10.39
14.11
18.01
20.97
21.93
20.19
15.49
8.05
-1.47
-12.00
-22.17
-30.53
-36.01
-38.24
-37.77
-35.72
-33.13
-30.34
-26.67
-20.79
-11.55
1.23
16.40
31.80
45.07
54.46
59.20
59.42
55.68
48.66
39.01
27.51
15.15
3.10
-7.54
-16.01
-21.87
-24.97
-25.34
-23.21
-19.12
-13.95
-8.88
-4.96
-2.83
-2.45
-3.23
-4.37
-5.15
-5.22
-4.54
-3.25
-1.56
0.25
1.86
2.83
2.72
1.17
-1.90
-6.34
-11.73
-17.51
-23.01
-27.57
-30.56
-31.57
-30.43
-27.35
-22.80
-17.35
-11.45
-5.28
1.31
8.63
16.86
25.81
34.80
42.77
48.63
51.67
51.77
49.53
45.98
42.25
39.14
36.99
35.68
34.83
34.10
33.35
32.66
32.24
32.20
32.55
33.18
33.91
34.56
34.97
35.01
34.50
33.40
31.86
30.32
29.45
30.06
32.75
37.70
44.34
51.08
55.45
54.52
45.95
28.85
4.58
-23.52
-51.07
-74.00
-89.74
-97.56
-98.22
-93.11
-83.64
-70.96
-56.25
-40.85
-26.32
-13.97
-4.38
2.81
8.85
15.25
23.10
32.35
41.52
47.75
47.50
37.65
16.70
-14.35
-51.91
-90.64
-124.88
-150.21
-164.39
-167.51
-161.39
-148.61
-131.81
-113.29
-95.03
-78.82
-66.11
-57.71
-53.43
-52.00
-51.41
-49.61
-45.29
-38.28
-29.50
-20.47
-12.59
-6.53
-2.00
1.97
6.57
12.46
19.43
26.27
31.13
32.32
28.99
21.62
11.95
2.37
-4.97
-8.81
-9.08
-6.66
-2.80
1.39
5.27
8.59
11.33
13.46
14.80
15.14
14.41
12.82
10.90
9.27
8.44
8.46
8.95
9.22
8.64
6.93
4.27
1.05
-2.38
-5.89
-9.58
-13.51
-17.44
-20.82
-23.01
-23.61
-22.69
-20.80
-18.60
-16.54
-14.53
-11.96
-7.98
-1.89
6.48
16.63
27.44
37.47
45.37
50.23
51.77
50.25
46.23
40.44
33.54
26.12
18.77
12.02
6.31
1.82
-1.60
-4.42
-7.11
-9.91
-12.68
-14.94
-16.25
-16.50
-16.08
-15.81
-16.55
-18.95
-23.10
-28.65
-34.97
-41.48
-47.84
-54.02
-60.12
-66.23
-72.23
-77.71
-82.03
-84.57
-85.00
-83.59
-81.37
-79.83
-80.32
-83.10
-86.77
-88.23
-83.40
-68.48
-40.97
-0.58
50.58
107.98
165.21
214.97
250.41
266.80
262.70
240.41
205.03
162.90
119.78
79.76
45.09
16.77
-4.76
-19.21
-26.54
-27.20
-22.19
-12.80
-0.22
14.68
31.26
48.85
66.36
82.22
94.51
101.41
101.71
95.22
83.04
67.50
51.63
38.37
29.57
25.24
23.50
21.27
15.62
5.09
-9.59
-25.81
-40.28
-50.38
-55.11
-55.11
-51.98
-47.36
-42.32
-37.34
-32.68
-28.66
-25.71
-24.14
-23.71
-23.60
-22.69
-20.08
-15.63
-10.08
-4.73
-0.77
1.34
2.02
2.32
3.27
5.30
7.95
10.12
10.50
8.15
2.79
-5.19
-14.99
-25.59
-35.95
-45.04
-51.86
-55.49
-55.29
-51.05
-43.20
-32.74
-21.06
-9.64
0.27
7.79
12.54
14.56
14.31
12.60
10.38
8.66
8.12
8.94
10.70
12.43
13.04
11.73
8.43
3.87
-0.63
-3.74
-4.59
-3.19
-0.29
2.84
5.00
5.38
3.79
0.60
-3.46
-7.60
-11.23
-14.05
-16.09
-17.57
-18.80
-19.94
-21.02
-21.92
-22.51
-22.71
-22.50
-21.84
-20.63
-18.78
-16.29
-13.29
-10.09
-6.98
-4.14
-1.53
1.04
3.81
6.85
10.03
13.06
15.61
17.52
18.75
19.41
19.56
19.22
18.40
17.20
15.85
14.68
13.96
13.75
13.82
13.72
13.02
11.45
9.07
6.15
2.99
-0.12
-3.04
-5.67
-7.93
-9.74
-11.10
-12.15
-13.15
-14.37
-15.96
-17.89
-19.95
-21.86
-23.37
-24.29
-24.43
-23.61
-21.59
-18.30
-13.94
-9.00
-4.16
-0.04
3.11
5.40
7.19
8.83
10.49
12.11
13.49
14.47
15.00
15.18
15.12
14.89
14.45
13.77
12.84
11.78
10.80
10.09
9.73
9.63
9.54
9.12
8.11
6.46
4.36
2.19
0.34
-0.95
-1.67
-2.02
-2.33
-2.92
-4.04
-5.79
-8.12
-10.85
-13.64
-16.06
-17.69
-18.23
-17.71
-16.37
-14.61
-12.73
-10.83
-8.82
-6.55
-3.99
-1.31
1.23
3.37
5.00
6.16
7.01
7.71
8.39
9.14
10.01
11.03
12.12
13.07
13.57
13.33
12.25
10.49
8.48
6.69
5.48
4.96
5.00
5.28
5.48
5.37
4.84
3.89
2.60
1.07
-0.54
-2.09
-3.50
-4.78
-6.09
-7.67
-9.69
-12.15
-14.85
-17.40
-19.40
-20.55
-20.73
-19.97
-18.43
-16.26
-13.56
-10.49
-7.26
-4.21
-1.67
0.15
1.29
1.92
2.23
2.13
1.33
-0.53
-3.54
-7.29
-10.98
-13.81
-15.46
-16.38
-17.57
-20.04
-24.23
-29.70
-35.36
-39.99
-42.67
-43.00
-40.84
-36.03
-28.31
-17.53
-4.16
10.47
24.29
35.16
41.54
43.10
40.58
35.28
28.37
20.52
11.95
2.76
-6.68
-15.60
-23.14
-28.69
-32.19
-34.13
-35.22
-36.01
-36.59
-36.67
-35.81
-33.78
-30.77
-27.42
-24.53
-22.72
-22.13
-22.26
-22.22
-21.05
-18.14
-13.52
-7.72
-1.44
4.85
11.29
18.55
27.54
38.96
52.89
68.59
84.59
99.02
110.06
116.48
118.11
115.94
111.94
108.28
106.58
107.29
109.64
112.05
112.86
110.85
105.45
96.61
84.62
70.09
54.03
37.85
23.15
11.29
2.86
-2.44
-5.59
-7.75
-9.74
-11.84
-13.89
-15.69
-17.29
-19.03
-21.42
-24.84
-29.38
-34.81
-40.65
-46.43
-51.75
-56.37
-60.17
-63.01
-64.72
-65.08
-63.91
-61.20
-57.19
-52.43
-47.74
-44.03
-42.07
-42.27
-44.64
-48.74
-53.97
-59.71
-65.52
-71.09
-76.20
-80.56
-83.75
-85.19
-84.18
-80.13
-72.83
-62.69
-50.80
-38.77
-28.13
-19.78
-13.56
-8.34
-2.66
4.45
12.94
21.70
29.19
34.15
36.20
35.83
34.05
31.85
29.84
28.19
26.77
25.40
24.03
22.84
22.16
22.31
23.52
25.75
28.66
31.65
34.09
35.46
35.55
34.46
32.56
30.29
28.08
26.25
24.96
24.12
23.37
22.06
19.32
14.23
6.12
-5.14
-18.84
-33.43
-46.80
-56.80
-61.82
-61.26
-55.54
-45.84
-33.58
-20.05
-6.17
7.39
20.05
31.23
40.43
47.39
52.18
55.19
56.90
57.57
57.24
55.71
52.81
48.68
43.80
38.94
34.86
32.08
30.68
30.32
30.41
30.27
29.39
27.48
24.52
20.71
16.37
11.88
7.57
3.66
0.21
-2.87
-5.77
-8.74
-11.96
-15.52
-19.37
-23.30
-27.00
-30.13
-32.40
-33.64
-33.83
-33.04
-31.42
-29.15
-26.41
-23.32
-19.96
-16.40
-12.69
-8.94
-5.31
-2.04
0.66
2.70
4.13
5.14
5.97
6.74
7.42
7.84
7.80
7.23
6.24
5.14
4.25
3.79
3.70
3.69
3.33
2.19
0.06
-3.05
-6.84
-10.92
-14.92
-18.64
-22.09
-25.44
-28.89
-32.55
-36.33
-40.04
-43.44
-46.41
-49.03
-51.53
-54.14
-56.91
-59.63
-61.91
-63.31
-63.53
-62.44
-60.04
-56.37
-51.53
-45.70
-39.27
-32.75
-26.59
-20.75
-14.53
-6.63
4.27
18.88
36.75
56.34
75.47
92.00
104.44
112.03
114.62
112.40
105.86
95.91
83.99
71.95
61.51
53.73
48.61
45.24
42.39
39.09
34.98
30.16
24.86
19.12
12.86
6.07
-0.87
-7.26
-12.43
-16.11
-18.62
-20.63
-22.68
-24.77
-26.35
-26.54
-24.70
-20.67
-14.83
-7.88
-0.55
6.51
12.81
17.98
21.93
24.92
27.60
30.85
35.36
41.22
47.74
53.62
57.37
57.91
54.85
48.62
40.20
30.77
21.37
12.72
5.20
-1.03
-5.96
-9.63
-12.17
-13.95
-15.61
-18.00
-21.93
-27.80
-35.25
-43.14
-49.85
-53.82
-54.16
-51.02
-45.43
-38.82
-32.45
-26.92
-22.13
-17.59
-12.83
-7.77
-2.75
1.63
4.91
6.96
8.10
8.92
10.02
11.80
14.39
17.69
21.45
25.23
28.30
29.59
27.75
21.62
10.70
-4.37
-21.81
-39.10
-53.84
-64.39
-70.32
-72.23
-71.25
-68.52
-64.85
-60.75
-56.57
-52.68
-49.45
-47.11
-45.55
-44.32
-42.76
-40.32
-36.85
-32.67
-28.45
-24.83
-22.12
-20.13
-18.24
-15.69
-11.91
-6.83
-0.85
5.28
10.84
15.31
18.53
20.63
21.86
22.38
22.27
21.48
20.00
17.93
15.55
13.18
11.10
9.35
7.74
5.96
3.69
0.84
-2.44
-5.81
-8.86
-11.31
-13.09
-14.39
-15.50
-16.71
-18.15
-19.76
-21.34
-22.60
-23.28
-23.22
-22.39
-20.88
-18.82
-16.39
-13.69
-10.80
-7.77
-4.62
-1.41
1.75
4.76
7.46
9.73
11.46
12.60
13.15
13.25
13.09
12.89
12.77
12.74
12.69
12.48
12.04
11.42
10.72
10.03
9.36
8.62
7.66
6.43
4.97
3.41
1.88
0.44
-1.01
-2.65
-4.64
-6.98
-9.56
-12.12
-14.38
-16.09
-17.06
-17.16
-16.35
-14.64
-12.14
-9.10
-5.84
-2.68
0.14
2.52
4.52
6.24
7.76
9.10
10.19
10.97
11.42
11.58
11.51
11.27
10.81
10.00
8.67
6.71
4.15
1.25
-1.60
-3.93
-5.45
-6.04
-5.79
-4.89
-3.52
-1.82
0.11
2.10
3.87
5.20
6.03
6.68
7.72
9.77
13.13
17.62
22.64
27.48
31.67
35.10
38.01
40.68
43.21
45.45
47.13
48.04
48.27
48.10
47.88
47.83
47.87
47.75
47.04
45.39
42.67
38.96
34.57
29.93
25.55
21.94
19.65
19.18
20.91
24.86
30.57
37.12
43.29
47.94
50.30
50.09
47.52
42.99
36.95
29.76
21.71
13.12
4.32
-4.45
-13.03
-21.39
-29.44
-36.88
-43.17
-47.60
-49.70
-49.40
-47.15
-43.76
-39.98
-36.28
-32.74
-29.22
-25.61
-22.01
-18.71
-16.00
-13.95
-12.39
-10.99
-9.53
-8.05
-6.93
-6.64
-7.49
-9.47
-12.22
-15.17
-17.84
-19.96
-21.55
-22.80
-23.89
-24.87
-25.69
-26.29
-26.73
-27.18
-27.83
-28.73
-29.68
-30.38
-30.58
-30.26
-29.70
-29.29
-29.24
-29.47
-29.60
-29.20
-28.06
-26.32
-24.32
-22.30
-20.25
-17.87
-14.79
-10.87
-6.27
-1.40
3.33
7.68
11.61
15.19
18.42
21.17
23.23
24.38
24.55
23.78
22.27
20.25
18.02
15.90
14.16
12.95
12.20
11.61
10.79
9.43
7.41
4.91
2.29
-0.10
-2.02
-3.49
-4.71
-5.99
-7.64
-9.84
-12.60
-15.79
-19.13
-22.35
-25.18
-27.44
-28.94
-29.52
-29.06
-27.44
-24.69
-20.98
-16.60
-11.91
-7.18
-2.60
1.73
5.78
9.48
12.71
15.34
17.31
18.67
19.58
20.22
20.75
21.18
21.44
21.39
20.91
19.98
18.67
17.11
15.41
13.62
11.79
9.92
8.05
6.22
4.43
2.61
0.62
-1.60
-4.07
-6.66
-9.24
-11.68
-13.92
-15.98
-17.89
-19.66
-21.28
-22.73
-24.03
-25.16
-26.10
-26.69
-26.73
-26.04
-24.50
-22.12
-19.01
-15.31
-11.17
-6.75
-2.24
2.10
6.02
9.33
12.01
14.17
16.04
17.77
19.36
20.66
21.46
21.60
21.14
20.26
19.28
18.45
17.91
17.61
17.38
16.98
16.20
14.92
13.13
10.97
8.65
6.36
4.26
2.37
0.64
-1.03
-2.75
-4.55
-6.43
-8.33
-10.25
-12.19
-14.18
-16.24
-18.36
-20.41
-22.17
-23.38
-23.74
-23.07
-21.33
-18.62
-15.18
-11.27
-7.16
-3.04
0.91
4.55
7.75
10.39
12.44
13.92
14.97
15.75
16.40
16.99
17.48
17.82
17.92
17.75
17.28
16.53
15.56
14.42
13.23
12.05
10.89
9.67
8.25
6.49
4.38
2.03
-0.32
-2.42
-4.12
-5.43
-6.56
-7.77
-9.34
-11.37
-13.84
-16.56
-19.24
-21.58
-23.34
-24.30
-24.38
-23.52
-21.80
-19.35
-16.36
-13.04
-9.53
-5.89
-2.11
1.86
6.00
10.17
14.08
17.36
19.69
20.88
20.96
20.21
18.99
17.70
16.67
16.05
15.79
15.69
15.45
14.77
13.50
11.68
9.55
7.39
5.45
3.85
2.55
1.39
0.22
-1.07
-2.50
-4.05
-5.70
-7.44
-9.29
-11.26
-13.36
-15.55
-17.81
-20.06
-22.19
-24.04
-25.41
-26.06
-25.75
-24.34
-21.79
-18.24
-14.01
-9.50
-5.09
-1.03
2.61
5.92
8.99
11.86
14.41
16.48
17.96
18.85
19.26
19.31
19.08
18.57
17.78
16.76
15.63
14.54
13.55
12.60
11.56
10.29
8.74
6.94
4.98
2.94
0.88
-1.18
-3.16
-4.97
-6.53
-7.85
-9.05
-10.33
-11.93
-13.96
-16.41
-19.11
-21.78
-24.15
-26.03
-27.32
-28.02
-28.16
-27.77
-26.80
-25.15
-22.72
-19.42
-15.31
-10.57
-5.53
-0.61
3.85
7.61
10.61
12.93
14.78
16.40
18.06
20.01
22.34
24.93
27.41
29.25
29.99
29.48
28.04
26.34
25.17
25.04
25.94
27.35
28.40
28.34
26.80
23.90
20.19
16.30
12.69
9.49
6.53
3.44
-0.09
-4.20
-8.68
-13.07
-16.79
-19.31
-20.36
-19.94
-18.33
-15.93
-13.20
-10.46
-7.95
-5.73
-3.76
-1.92
-0.10
1.68
3.18
3.95
3.51
1.58
-1.70
-5.78
-9.80
-12.97
-14.79
-15.12
-14.14
-12.22
-9.73
-7.06
-4.57
-2.58
-1.32
-0.80
-0.84
-1.07
-1.17
-0.94
-0.46
0.01
0.16
-0.21
-1.10
-2.31
-3.52
-4.49
-5.12
-5.50
-5.78
-6.19
-6.89
-7.99
-9.40
-10.78
-11.47
-10.54
-7.07
-0.60
8.49
18.92
28.81
36.29
40.22
40.47
37.85
33.63
29.01
24.69
20.93
17.60
14.51
11.55
8.69
5.92
3.23
0.50
-2.36
-5.33
-8.22
-10.65
-12.19
-12.56
-11.83
-10.44
-9.04
-8.23
-8.19
-8.64
-8.98
-8.63
-7.38
-5.49
-3.63
-2.50
-2.59
-4.01
-6.48
-9.52
-12.50
-14.86
-16.06
-15.77
-13.91
-10.74
-6.82
-2.87
0.49
2.94
4.55
5.67
6.70
7.88
9.13
10.21
10.83
10.85
10.37
9.71
9.26
9.36
10.26
12.09
14.85
18.44
22.58
26.88
30.84
34.00
36.12
37.25
37.74
38.00
38.34
38.71
38.72
37.83
35.58
31.87
27.02
21.61
16.22
11.22
6.57
1.90
-3.33
-9.68
-17.43
-26.46
-36.20
-45.74
-53.97
-59.87
-62.76
-62.47
-59.38
-54.29
-48.12
-41.61
-35.18
-28.92
-22.77
-16.73
-10.93
-5.67
-1.36
1.69
3.35
3.79
3.52
3.26
3.86
6.04
10.16
16.09
23.18
30.35
36.37
40.16
41.01
38.69
33.61
26.69
19.26
12.71
8.09
5.69
4.88
4.28
2.22
-2.64
-10.80
-21.70
-33.92
-45.67
-55.36
-62.01
-65.34
-65.71
-63.76
-60.19
-55.51
-50.00
-43.74
-36.70
-28.86
-20.35
-11.48
-2.77
5.22
11.99
17.26
21.03
23.57
25.49
27.64
31.04
36.54
44.49
54.40
64.96
74.34
80.80
83.36
81.95
77.25
70.17
61.23
50.38
37.20
21.38
3.21
-16.32
-35.72
-53.35
-67.76
-77.76
-82.44
-81.21
-74.05
-61.89
-46.74
-31.44
-18.82
-10.80
-7.77
-8.60
-11.35
-14.13
-15.86
-16.31
-15.86
-14.93
-13.68
-11.97
-9.58
-6.44
-2.82
0.68
3.39
4.72
4.52
3.11
1.20
-0.34
-0.86
-0.13
1.72
4.39
7.68
11.62
16.32
21.73
27.47
32.75
36.69
38.60
38.13
35.36
30.66
24.48
17.26
9.37
1.19
-6.84
-14.17
-20.27
-24.73
-27.40
-28.49
-28.45
-27.84
-27.09
-26.34
-25.52
-24.45
-22.97
-21.08
-18.87
-16.47
-13.97
-11.41
-8.85
-6.38
-4.19
-2.43
-1.24
-0.66
-0.63
-1.02
-1.61
-2.14
-2.37
-2.20
-1.66
-0.96
-0.40
-0.23
-0.58
-1.40
-2.54
-3.81
-5.05
-6.24
-7.42
-8.69
-10.17
-11.92
-13.98
-16.37
-19.03
-21.86
-24.59
-26.89
-28.33
-28.57
-27.47
-25.09
-21.75
-17.90
-13.93
-10.14
-6.60
-3.23
0.13
3.58
7.05
10.31
13.03
14.96
16.07
16.57
16.82
17.12
17.61
18.16
18.54
18.52
18.08
17.32
16.45
15.59
14.76
13.87
12.80
11.51
10.03
8.49
6.97
5.56
4.25
2.95
1.56
-0.04
-1.91
-4.09
-6.56
-9.28
-12.15
-14.99
-17.52
-19.42
-20.41
-20.31
-19.13
-17.07
-14.44
-11.54
-8.66
-5.91
-3.33
-0.88
1.53
3.90
6.23
8.42
10.32
11.80
12.82
13.39
13.57
13.44
13.09
12.65
12.25
12.02
12.03
12.18
12.29
12.12
11.55
10.62
9.54
8.54
7.76
7.18
6.67
6.06
5.25
4.23
3.03
1.66
0.13
-1.67
-3.82
-6.38
-9.27
-12.26
-14.98
-17.04
-18.11
-18.05
-16.92
-14.94
-12.36
-9.37
-6.06
-2.53
1.11
4.66
7.91
10.69
12.96
14.73
16.11
17.21
18.08
18.74
19.15
19.27
19.05
18.50
17.68
16.70
15.68
14.69
13.72
12.64
11.36
9.82
8.07
6.26
4.54
2.97
1.52
0.13
-1.23
-2.49
-3.57
-4.43
-5.20
-6.14
-7.53
-9.55
-12.18
-15.16
-18.14
-20.71
-22.58
-23.53
-23.48
-22.41
-20.39
-17.59
-14.23
-10.52
-6.63
-2.61
1.48
5.53
9.36
12.72
15.39
17.34
18.78
20.08
21.65
23.72
26.23
28.93
31.39
33.24
34.24
34.35
33.73
32.77
32.01
32.07
33.43
36.29
40.38
45.06
49.46
52.71
54.11
53.27
50.05
44.53
36.97
27.81
17.62
6.99
-3.59
-13.84
-23.64
-32.90
-41.49
-49.12
-55.50
-60.47
-64.06
-66.46
-67.85
-68.30
-67.67
-65.73
-62.33
-57.60
-51.87
-45.65
-39.39
-33.36
-27.66
-22.28
-17.24
-12.64
-8.63
-5.32
-2.72
-0.68
1.04
2.72
4.53
6.52
8.53
10.33
11.64
12.29
12.25
11.63
10.64
9.51
8.40
7.39
6.46
5.52
4.47
3.24
1.79
0.16
-1.59
-3.41
-5.33
-7.41
-9.70
-12.13
-14.46
-16.26
-17.09
-16.63
-14.88
-12.10
-8.74
-5.20
-1.72
1.64
4.91
8.02
10.83
13.07
14.57
15.32
15.54
15.56
15.70
16.07
16.59
17.03
17.18
16.94
16.38
15.65
14.92
14.29
13.75
13.22
12.57
11.76
10.73
9.50
8.11
6.58
4.98
3.37
1.78
0.22
-1.40
-3.18
-5.28
-7.81
-10.75
-13.88
-16.86
-19.28
-20.74
-21.00
-20.06
-18.04
-15.25
-12.00
-8.57
-5.20
-2.02
0.91
3.60
6.10
8.46
10.73
12.87
14.82
16.45
17.67
18.45
18.80
18.79
18.53
18.10
17.56
16.92
16.14
15.21
14.10
12.87
11.58
10.30
9.06
7.79
6.40
4.79
2.98
1.08
-0.77
-2.49
-4.11
-5.80
-7.72
-9.93
-12.38
-14.89
-17.26
-19.34
-21.03
-22.26
-22.96
-23.03
-22.39
-21.01
-18.92
-16.20
-12.97
-9.33
-5.43
-1.40
2.57
6.31
9.65
12.55
14.98
16.97
18.54
19.67
20.36
20.64
20.56
20.21
19.61
18.76
17.60
16.14
14.42
12.59
10.82
9.24
7.83
6.50
5.09
3.51
1.76
-0.05
-1.81
-3.43
-4.91
-6.29
-7.67
-9.11
-10.69
-12.48
-14.55
-16.92
-19.51
-22.15
-24.51
-26.23
-26.97
-26.57
-25.04
-22.56
-19.43
-15.92
-12.24
-8.51
-4.84
-1.29
2.08
5.21
8.07
10.61
12.80
14.58
15.88
16.66
16.92
16.76
16.31
15.74
15.21
14.82
14.61
14.52
14.38
14.01
13.23
11.96
10.26
8.32
6.37
4.59
3.08
1.80
0.67
-0.43
-1.59
-2.84
-4.18
-5.61
-7.16
-8.85
-10.75
-12.89
-15.22
-17.55
-19.58
-20.99
-21.55
-21.17
-19.93
-18.06
-15.77
-13.24
-10.55
-7.73
-4.81
-1.88
0.96
3.61
6.00
8.12
9.95
11.46
12.65
13.52
14.12
14.52
14.80
14.97
15.04
14.99
14.80
14.49
14.08
13.54
12.85
11.94
10.77
9.38
7.84
6.27
4.73
3.23
1.73
0.19
-1.40
-3.02
-4.68
-6.39
-8.24
-10.25
-12.34
-14.30
-15.83
-16.59
-16.34
-15.01
-12.71
-9.66
-6.22
-2.72
0.56
3.45
5.95
8.17
10.27
12.34
14.33
16.17
17.78
19.17
20.43
21.59
22.59
23.24
23.32
22.71
21.50
19.97
18.41
16.99
15.67
14.24
12.50
10.35
7.88
5.29
2.79
0.52
-1.59
-3.67
-5.90
-8.40
-11.23
-14.39
-17.86
-21.59
-25.47
-29.24
-32.51
-34.86
-35.96
-35.73
-34.46
-32.63
-30.77
-29.19
-27.86
-26.47
-24.65
-22.18
-19.12
-15.75
-12.42
-9.33
-6.55
-4.06
-1.89
-0.20
0.79
0.99
0.57
-0.03
-0.28
0.23
1.57
3.46
5.40
6.95
7.89
8.27
8.33
8.30
8.27
8.18
7.92
7.40
6.63
5.63
4.42
2.96
1.14
-1.06
-3.54
-6.07
-8.31
-9.97
-10.83
-10.85
-10.04
-8.53
-6.46
-4.02
-1.34
1.45
4.30
7.14
9.90
12.41
14.49
16.02
16.94
17.35
17.42
17.32
17.17
16.99
16.76
16.42
15.85
14.92
13.51
11.58
9.23
6.76
4.50
2.67
1.22
-0.17
-1.94
-4.41
-7.59
-11.14
-14.50
-17.17
-18.88
-19.77
-20.31
-21.10
-22.62
-25.07
-28.21
-31.35
-33.44
-33.18
-29.38
-21.41
-9.54
4.82
19.43
31.77
39.88
42.96
41.51
37.04
31.31
25.78
21.19
17.68
15.01
12.92
11.28
10.08
9.27
8.72
8.16
7.32
6.07
4.45
2.68
1.06
-0.18
-0.91
-1.16
-1.08
-0.83
-0.59
-0.42
-0.35
-0.32
-0.24
-0.06
0.17
0.25
-0.11
-1.15
-2.89
-5.14
-7.52
-9.62
-11.19
-12.19
-12.72
-12.94
-12.88
-12.44
-11.39
-9.55
-6.89
-3.59
-0.00
3.46
6.48
8.85
10.54
11.62
12.15
12.19
11.76
10.95
9.97
9.07
8.50
8.36
8.59
8.97
9.32
9.50
9.52
9.44
9.30
9.07
8.68
8.08
7.34
6.62
6.06
5.70
5.39
4.86
3.82
2.16
0.01
-2.36
-4.65
-6.73
-8.68
-10.64
-12.62
-14.42
-15.63
-15.86
-14.95
-13.10
-10.70
-8.21
-5.89
-3.73
-1.57
0.77
3.33
6.03
8.63
10.90
12.62
13.69
14.14
14.13
13.98
13.99
14.35
15.02
15.72
16.10
15.84
14.84
13.25
11.36
9.48
7.77
6.27
4.84
3.35
1.69
-0.06
-1.78
-3.27
-4.44
-5.30
-5.97
-6.55
-7.11
-7.67
-8.23
-8.94
-10.00
-11.65
-13.99
-16.83
-19.71
-22.00
-23.21
-23.12
-21.88
-19.90
-17.66
-15.55
-13.70
-12.08
-10.56
-8.99
-7.29
-5.46
-3.48
-1.37
0.84
3.04
5.02
6.53
7.32
7.36
6.85
6.20
5.88
6.24
7.34
8.93
10.45
11.30
10.98
9.27
6.28
2.45
-1.64
-5.29
-7.93
-9.18
-8.98
-7.56
-5.42
-3.16
-1.35
-0.40
-0.46
-1.46
-3.10
-4.96
-6.61
-7.62
-7.72
-6.85
-5.23
-3.25
-1.40
-0.11
0.38
0.05
-0.93
-2.33
-3.89
-5.38
-6.52
-7.08
-6.85
-5.82
-4.12
-2.09
-0.06
1.73
3.21
4.44
5.49
6.29
6.66
6.45
5.61
4.34
2.98
1.83
0.97
0.23
-0.69
-2.03
-3.72
-5.50
-7.02
-8.03
-8.54
-8.79
-8.98
-9.18
-9.28
-9.20
-9.00
-8.91
-9.14
-9.75
-10.48
-10.91
-10.58
-9.25
-6.98
-4.02
-0.68
2.78
6.18
9.37
12.16
14.38
15.89
16.64
16.73
16.30
15.47
14.25
12.69
10.81
8.72
6.56
4.52
2.73
1.22
-0.09
-1.35
-2.60
-3.81
-4.85
-5.59
-5.99
-6.21
-6.55
-7.30
-8.61
-10.43
-12.55
-14.70
-16.71
-18.50
-20.14
-21.63
-22.89
-23.72
-23.90
-23.32
-22.08
-20.46
-18.74
-17.12
-15.56
-13.89
-11.96
-9.77
-7.53
-5.54
-4.08
-3.22
-2.86
-2.76
-2.70
-2.52
-2.19
-1.77
-1.33
-0.94
-0.64
-0.38
-0.11
0.25
0.73
1.26
1.69
1.81
1.45
0.60
-0.59
-1.84
-2.82
-3.34
-3.36
-3.00
-2.48
-2.02
-1.80
-1.91
-2.35
-2.94
-3.23
-2.47
0.26
5.76
14.35
25.59
38.34
51.06
62.31
71.09
76.99
80.12
80.73
79.13
75.62
70.62
64.76
58.82
53.49
49.11
45.44
41.71
36.90
30.12
21.00
9.83
-2.48
-14.76
-25.89
-35.10
-42.09
-46.98
-50.19
-52.31
-53.90
-55.42
-57.16
-59.17
-61.31
-63.31
-64.89
-65.80
-65.87
-65.00
-63.10
-60.19
-56.35
-51.79
-46.76
-41.52
-36.25
-31.02
-25.83
-20.62
-15.45
-10.45
-5.87
-1.97
1.11
3.36
4.99
6.26
7.41
8.52
9.60
10.53
11.23
11.62
11.72
11.51
11.02
10.24
9.19
7.93
6.53
5.07
3.63
2.23
0.90
-0.41
-1.80
-3.41
-5.37
-7.74
-10.41
-13.18
-15.71
-17.68
-18.78
-18.85
-17.85
-15.89
-13.18
-10.03
-6.72
-3.56
-0.75
1.57
3.39
4.75
5.73
6.41
6.86
7.07
7.09
6.93
6.66
6.35
6.07
5.85
5.67
5.53
5.41
5.33
5.27
5.16
4.94
4.51
3.83
2.89
1.78
0.54
-0.77
-2.16
-3.68
-5.41
-7.39
-9.53
-11.65
-13.46
-14.65
-15.05
-14.62
-13.48
-11.79
-9.73
-7.36
-4.68
-1.69
1.56
4.87
8.00
10.66
12.67
13.98
14.66
14.88
14.79
14.49
14.03
13.42
12.69
11.90
11.15
10.51
9.99
9.55
9.14
8.73
8.29
7.84
7.34
6.79
6.10
5.19
3.96
2.32
0.25
-2.21
-4.85
-7.33
-9.21
-10.11
-9.78
-8.19
-5.51
-2.04
1.94
6.23
10.66
15.07
19.27
23.00
26.04
28.27
29.66
30.34
30.45
30.12
29.42
28.39
27.03
25.35
23.42
21.34
19.22
17.19
15.28
13.47
11.66
9.78
7.80
5.72
3.63
1.56
-0.42
-2.32
-4.15
-5.92
-7.69
-9.53
-11.56
-13.85
-16.32
-18.77
-20.87
-22.29
-22.80
-22.35
-21.03
-18.99
-16.38
-13.30
-9.85
-6.15
-2.35
1.37
4.86
8.07
10.94
13.48
15.65
17.39
18.64
19.35
19.57
19.35
18.82
18.11
17.30
16.44
15.52
14.50
13.34
12.04
10.62
9.14
7.67
6.24
4.87
3.55
2.21
0.83
-0.64
-2.18
-3.76
-5.35
-6.93
-8.54
-10.32
-12.43
-14.89
-17.51
-19.95
-21.68
-22.10
-20.75
-17.42
-12.37
-6.27
-0.02
5.53
9.93
13.36
16.54
20.32
25.33
31.65
38.88
46.42
53.62
59.96
65.04
68.75
71.23
73.10
75.01
77.71
81.87
87.87
95.84
105.64
117.36
130.78
145.58
160.19
172.42
179.92
180.75
173.90
159.24
137.94
111.26
81.19
49.08
16.65
-14.04
-40.95
-62.52
-78.48
-89.12
-96.55
-102.85
-111.23
-124.24
-143.10
-167.50
-195.44
-224.19
-250.12
-271.60
-276.41
-255.41
-206.05
-135.25
-56.03
19.91
79.50
125.03
160.43
188.71
209.77
222.45
228.27
228.75
226.37
223.65
223.31
225.66
230.14
234.65
237.16
236.50
232.53
226.38
219.44
213.47
208.54
204.22
199.18
192.26
182.87
171.04
157.60
143.58
130.22
117.76
106.11
94.75
83.28
71.57
59.75
48.33
37.80
28.73
21.02
14.40
8.38
2.53
-3.36
-9.41
-15.44
-21.21
-26.43
-31.00
-34.97
-38.47
-41.74
-44.99
-48.44
-52.16
-56.11
-60.14
-64.18
-68.22
-72.46
-77.19
-82.71
-89.13
-96.31
-103.94
-111.69
-119.43
-127.34
-135.97
-145.92
-157.61
-171.04
-185.73
-201.02
-216.44
-232.19
-249.08
-268.19
-290.29
-315.21
-341.93
-369.25
-396.88
-425.86
-457.93
-493.78
-531.50
-566.16
-591.08
-600.33
-590.83
-562.86
-519.20
-463.58
-400.18
-334.34
-273.72
-227.94
-206.14
-212.84
-244.68
-290.27
-333.82
-360.92
-363.72
-342.64
-304.44
-258.19
-211.18
-166.97
-126.01
-87.41
-50.60
-15.90
16.12
45.79
74.70
105.36
139.70
177.65
216.55
251.84
278.87
295.10
301.35
301.51
300.68
302.62
307.83
313.42
314.68
307.60
290.91
266.46
238.17
210.12
185.20
164.72
149.01
138.09
131.95
130.37
132.41
136.31
139.99
141.85
141.35
139.17
136.65
135.02
134.79
135.56
136.30
135.88
133.55
129.25
123.55
117.39
111.46
105.85
99.92
92.59
82.91
70.52
55.85
39.95
24.18
9.86
-1.93
-10.55
-15.81
-17.95
-17.63
-15.73
-13.14
-10.53
-8.24
-6.34
-4.66
-3.04
-1.36
0.40
2.25
4.24
6.45
8.95
11.68
14.38
16.54
17.51
16.69
13.85
9.27
3.72
-1.74
-6.15
-8.97
-10.22
-10.37
-10.08
-9.83
-9.69
-9.29
-7.95
-5.01
-0.08
6.72
14.77
23.03
30.41
36.05
39.58
41.15
41.24
40.48
39.41
38.34
37.45
36.91
37.04
38.33
41.14
45.54
50.99
56.39
60.42
62.07
61.17
58.66
56.30
56.01
58.98
65.02
72.25
77.58
77.43
68.72
49.75
20.69
-16.17
-56.52
-94.80
-125.52
-144.96
-152.67
-151.91
-148.44
-148.01
-153.72
-164.44
-175.50
-181.06
-177.07
-163.21
-142.69
-120.45
-100.75
-85.63
-74.93
-67.17
-60.86
-55.03
-49.10
-42.43
-34.05
-22.76
-7.60
11.55
33.70
56.77
77.98
94.51
104.38
107.13
104.03
97.59
90.54
84.71
80.35
76.42
71.43
64.49
55.81
46.61
38.33
31.95
27.58
24.60
22.09
19.37
16.19
12.71
9.37
6.66
4.91
4.22
4.45
5.25
6.24
7.10
7.59
7.59
7.08
5.96
4.13
1.42
-2.16
-6.39
-10.75
-14.48
-16.93
-17.68
-16.70
-14.22
-10.53
-5.82
-0.14
6.39
13.48
20.59
27.08
32.48
36.59
39.57
41.72
43.37
44.72
45.98
47.27
48.63
49.76
49.99
48.38
44.13
37.04
27.76
17.62
8.17
0.61
-4.61
-7.76
-9.53
-10.69
-11.74
-12.88
-14.09
-15.28
-16.40
-17.40
-18.29
-19.10
-19.90
-20.86
-22.27
-24.38
-27.38
-31.12
-35.16
-38.77
-41.18
-41.83
-40.63
-37.96
-34.45
-30.68
-26.86
-22.85
-18.23
-12.66
-6.12
1.06
8.23
14.78
20.27
24.64
28.09
30.94
33.48
35.76
37.65
38.95
39.47
39.11
37.90
35.94
33.31
30.15
26.57
22.76
18.94
15.37
12.29
9.82
7.95
6.55
5.45
4.48
3.59
2.72
1.80
0.67
-0.86
-2.98
-5.81
-9.28
-13.20
-17.28
-21.19
-24.60
-27.26
-28.95
-29.60
-29.32
-28.33
-26.89
-25.15
-23.07
-20.43
-16.93
-12.43
-7.04
-1.13
4.77
10.09
14.47
17.78
20.14
21.81
22.98
23.73
23.95
23.47
22.21
20.37
18.38
16.75
15.87
15.80
16.28
16.86
17.12
16.87
16.19
15.39
14.87
14.86
15.41
16.22
16.77
16.43
14.62
10.91
5.09
-2.74
-12.17
-22.47
-32.70
-41.87
-49.24
-54.49
-57.77
-59.46
-59.90
-59.15
-57.05
-53.37
-48.07
-41.40
-33.84
-25.94
-18.23
-11.16
-5.16
-0.60
2.32
3.70
4.02
3.94
4.13
4.96
6.45
8.30
10.09
11.47
12.21
12.24
11.57
10.30
8.57
6.56
4.45
2.35
0.31
-1.67
-3.62
-5.61
-7.68
-9.92
-12.41
-15.29
-18.67
-22.60
-27.02
-31.64
-35.94
-39.20
-40.68
-39.80
-36.38
-30.66
-23.28
-15.08
-6.90
0.62
7.07
12.28
16.26
19.18
21.27
22.80
23.99
25.00
25.85
26.49
26.85
26.85
26.47
25.69
24.53
23.05
21.38
19.68
18.11
16.76
15.56
14.33
12.86
11.02
8.83
6.43
4.04
1.82
-0.17
-1.92
-3.56
-5.32
-7.46
-10.34
-14.21
-19.14
-24.84
-30.68
-35.78
-39.31
-40.75
-40.04
-37.52
-33.70
-29.04
-23.78
-18.00
-11.68
-4.91
2.04
8.77
14.83
19.92
23.89
26.77
28.65
29.68
29.96
29.57
28.67
27.45
26.17
25.11
24.48
24.28
24.33
24.28
23.72
22.36
20.11
17.10
13.64
10.04
6.51
3.15
-0.05
-3.17
-6.33
-9.74
-13.66
-18.40
-24.11
-30.71
-37.72
-44.35
-49.65
-52.78
-53.30
-51.22
-46.99
-41.23
-34.51
-27.22
-19.58
-11.73
-3.88
3.66
10.56
16.58
21.69
25.98
29.65
32.74
35.18
36.77
37.37
36.98
35.83
34.30
32.73
31.34
30.11
28.90
27.54
25.92
24.01
21.82
19.35
16.51
13.25
9.54
5.46
1.19
-3.06
-7.16
-11.09
-14.98
-19.01
-23.41
-28.37
-33.94
-40.03
-46.29
-52.12
-56.73
-59.36
-59.46
-56.89
-51.96
-45.36
-37.87
-30.21
-22.77
-15.68
-8.89
-2.32
3.90
9.49
14.07
17.31
19.11
19.61
19.19
18.25
17.15
16.00
14.70
12.95
10.38
6.73
1.91
-3.90
-10.37
-17.18
-24.07
-30.88
-37.74
-45.02
-53.45
-63.83
-76.70
-91.92
-108.57
-125.23
-140.76
-154.97
-168.84
-184.09
-202.16
-223.27
-245.86
-267.00
-283.21
-291.64
-290.70
-280.24
-261.26
-235.54
-205.49
-173.92
-143.85
-117.88
-97.57
-82.89
-72.17
-62.79
-52.14
-38.51
-21.60
-2.23
18.21
38.42
57.53
75.04
90.68
104.30
115.97
126.27
136.38
148.03
163.12
182.91
207.26
234.10
259.64
279.28
289.11
287.21
274.30
253.40
228.66
203.94
181.92
163.80
149.60
138.71
130.20
122.97
115.98
108.31
99.52
89.82
80.06
71.37
64.77
60.79
59.30
59.64
60.86
62.08
62.74
62.76
62.49
62.48
63.23
64.88
67.13
69.33
70.73
70.76
69.17
66.06
61.74
56.63
51.12
45.60
40.44
35.95
32.32
29.49
27.23
25.16
22.92
20.21
16.93
13.17
9.13
5.08
1.24
-2.27
-5.54
-8.81
-12.40
-16.62
-21.66
-27.47
-33.75
-39.96
-45.40
-49.38
-51.32
-50.96
-48.32
-43.76
-37.79
-30.91
-23.56
-16.02
-8.48
-1.13
5.76
11.89
16.97
20.80
23.35
24.72
25.17
24.99
24.42
23.62
22.66
21.56
20.29
18.84
17.20
15.36
13.33
11.13
8.85
6.59
4.45
2.44
0.57
-1.24
-3.07
-4.91
-6.70
-8.26
-9.46
-10.17
-10.45
-10.47
-10.56
-11.08
-12.23
-14.00
-16.07
-17.87
-18.78
-18.31
-16.24
-12.72
-8.13
-3.04
2.00
6.48
10.05
12.61
14.25
15.23
15.88
16.41
16.88
17.19
17.18
16.76
15.97
14.97
13.95
13.01
12.16
11.36
10.61
9.96
9.53
9.33
9.21
8.89
7.99
6.24
3.61
0.34
-3.14
-6.41
-9.22
-11.61
-13.84
-16.27
-19.21
-22.80
-26.99
-31.61
-36.40
-41.02
-45.04
-48.00
-49.43
-48.97
-46.50
-42.14
-36.26
-29.31
-21.74
-13.91
-6.08
1.48
8.48
14.56
19.40
22.83
24.89
25.79
25.93
25.68
25.27
24.75
24.00
22.86
21.22
19.11
16.61
13.86
10.93
7.85
4.64
1.35
-1.96
-5.20
-8.32
-11.39
-14.51
-17.83
-21.39
-25.16
-29.06
-33.03
-37.09
-41.37
-45.93
-50.66
-55.09
-58.45
-59.93
-58.89
-55.17
-49.13
-41.45
-32.89
-24.08
-15.33
-6.84
1.25
8.74
15.32
20.78
25.03
28.21
30.53
32.29
33.63
34.57
35.00
34.76
33.76
32.06
29.83
27.34
24.84
22.46
20.19
17.88
15.35
12.47
9.22
5.72
2.08
-1.57
-5.20
-8.85
-12.63
-16.63
-20.96
-25.71
-30.95
-36.69
-42.73
-48.54
-53.31
-56.03
-55.90
-52.57
-46.33
-38.01
-28.68
-19.22
-10.16
-1.68
6.29
13.77
20.66
26.75
31.76
35.50
37.89
39.00
39.03
38.24
36.89
35.19
33.27
31.21
29.10
27.05
25.20
23.59
22.12
20.50
18.38
15.45
11.67
7.24
2.57
-1.89
-5.84
-9.23
-12.24
-15.19
-18.39
-22.11
-26.47
-31.53
-37.20
-43.27
-49.24
-54.38
-57.79
-58.68
-56.58
-51.60
-44.37
-35.83
-26.85
-18.04
-9.60
-1.54
6.12
13.19
19.31
24.09
27.32
29.08
29.73
29.78
29.70
29.75
29.96
30.22
30.35
30.30
30.09
29.87
29.78
29.89
30.12
30.21
29.80
28.56
26.32
23.13
19.28
15.13
11.00
7.01
3.08
-0.99
-5.39
-10.24
-15.56
-21.30
-27.41
-33.74
-39.91
-45.31
-49.08
-50.39
-48.69
-43.99
-36.88
-28.31
-19.24
-10.35
-1.96
5.87
13.08
19.43
24.56
28.16
30.17
30.80
30.50
29.77
28.91
28.02
27.01
25.74
24.17
22.36
20.48
18.64
16.92
15.28
13.62
11.83
9.82
7.55
5.03
2.27
-0.62
-3.56
-6.47
-9.31
-12.11
-14.95
-17.93
-21.14
-24.70
-28.66
-33.07
-37.78
-42.41
-46.29
-48.60
-48.62
-45.97
-40.75
-33.52
-25.06
-16.13
-7.31
1.02
8.60
15.22
20.64
24.66
27.19
28.35
28.42
27.85
27.06
26.35
25.81
25.33
24.68
23.67
22.24
20.51
18.71
17.03
15.55
14.22
12.84
11.16
9.01
6.30
3.13
-0.32
-3.77
-6.99
-9.83
-12.32
-14.61
-16.98
-19.69
-22.97
-26.90
-31.36
-35.92
-39.91
-42.55
-43.09
-41.13
-36.68
-30.23
-22.49
-14.22
-5.96
1.91
9.20
15.70
21.16
25.31
28.02
29.37
29.63
29.19
28.40
27.50
26.61
25.71
24.78
23.76
22.55
21.12
19.45
17.60
15.62
13.62
11.56
9.37
6.88
3.99
0.72
-2.74
-6.11
-9.14
-11.74
-14.09
-16.48
-19.32
-22.87
-27.21
-32.21
-37.49
-42.53
-46.65
-49.18
-49.53
-47.34
-42.62
-35.77
-27.52
-18.65
-9.83
-1.50
6.09
12.78
18.44
22.95
26.26
28.49
29.87
30.67
31.13
31.35
31.31
30.93
30.13
28.92
27.33
25.43
23.30
21.05
18.76
16.48
14.17
11.66
8.72
5.21
1.15
-3.14
-7.22
-10.69
-13.38
-15.44
-17.25
-19.25
-21.78
-24.93
-28.61
-32.50
-36.11
-38.83
-40.01
-39.11
-35.89
-30.50
-23.43
-15.36
-7.01
1.07
8.52
15.08
20.59
24.90
27.94
29.78
30.67
30.93
30.89
30.72
30.46
29.99
29.22
28.19
27.13
26.37
26.16
26.49
27.02
27.19
26.44
24.58
21.87
19.02
16.86
15.97
16.36
17.38
17.93
16.94
13.83
8.81
2.94
-2.25
-5.22
-4.98
-1.32
5.21
13.54
22.58
31.55
40.23
49.12
59.27
72.04
88.39
108.10
129.11
147.60
158.93
159.23
147.02
123.84
93.66
61.19
30.13
2.12
-22.83
-45.26
-65.17
-81.75
-94.07
-102.08
-107.02
-111.11
-116.66
-125.29
-137.58
-153.25
-171.35
-190.29
-207.86
-221.64
-229.85
-232.38
-231.23
-229.71
-230.90
-236.00
-243.73
-251.24
-255.68
-255.66
-251.48
-244.25
-234.64
-222.26
-206.01
-185.10
-159.93
-132.23
-104.42
-78.56
-55.59
-35.21
-16.34
2.13
20.66
38.74
55.10
68.21
77.02
81.36
82.01
80.24
77.22
73.56
69.26
64.19
58.49
52.86
48.27
45.41
44.19
43.62
42.23
38.65
32.18
22.84
11.09
-2.64
-18.05
-34.88
-52.46
-69.42
-83.65
-92.65
-94.24
-87.26
-71.98
-50.17
-24.64
1.40
25.11
44.54
58.73
67.51
71.12
69.92
64.50
55.92
45.80
36.14
28.61
23.90
21.43
19.78
17.57
14.38
10.90
8.47
8.19
10.12
13.28
16.13
17.44
16.74
14.36
10.98
7.26
3.79
1.23
0.53
2.80
8.95
19.21
32.94
48.82
65.34
81.34
96.18
109.67
121.80
132.44
141.31
148.05
152.41
154.35
154.04
151.79
147.91
142.70
136.39
129.13
121.03
112.19
102.70
92.70
82.46
72.39
62.94
54.51
47.31
41.28
36.12
31.44
26.81
21.93
16.63
10.86
4.73
-1.40
-6.94
-11.11
-13.15
-12.63
-9.63
-4.82
0.86
6.50
11.55
15.94
19.94
23.95
28.25
32.80
37.29
41.15
43.84
45.05
44.87
43.85
42.85
42.67
43.74
45.79
47.85
48.48
46.22
39.99
29.54
15.50
-0.60
-16.79
-31.11
-42.21
-49.64
-53.83
-55.70
-56.18
-55.83
-54.76
-52.77
-49.60
-44.99
-38.66
-30.32
-19.77
-7.24
6.36
19.48
30.37
37.70
41.14
41.37
39.66
37.21
34.74
32.45
30.39
28.74
27.98
28.55
30.55
33.43
36.15
37.58
36.97
34.15
29.45
23.36
16.21
8.00
-1.33
-11.70
-22.54
-32.95
-41.90
-48.72
-53.31
-56.19
-58.02
-59.19
-59.51
-58.32
-54.90
-48.91
-40.60
-30.67
-19.89
-8.81
2.32
13.42
24.31
34.61
43.78
51.35
57.08
60.99
63.27
64.14
63.74
62.10
59.24
55.18
50.04
44.01
37.34
30.25
22.90
15.31
7.41
-1.00
-10.11
-20.02
-30.64
-41.68
-52.71
-63.30
-73.11
-82.04
-90.13
-97.38
-103.48
-107.65
-108.83
-106.16
-99.42
-89.38
-77.58
-65.70
-54.80
-44.90
-35.05
-23.99
-10.82
4.41
20.72
36.69
51.00
62.82
71.92
78.53
83.01
85.71
86.90
86.74
85.40
83.02
79.77
75.82
71.33
66.44
61.18
55.51
49.32
42.55
35.26
27.67
20.09
12.80
5.90
-0.81
-7.68
-15.00
-22.77
-30.55
-37.52
-42.78
-45.66
-45.86
-43.51
-38.89
-32.36
-24.22
-14.76
-4.33
6.56
17.38
27.69
37.21
45.90
53.76
60.73
66.49
70.49
72.09
70.71
66.04
58.20
47.75
35.56
22.62
9.85
-2.05
-12.53
-21.18
-27.59
-31.48
-32.77
-31.78
-29.28
-26.39
-24.32
-24.14
-26.47
-31.36
-38.27
-46.13
-53.56
-59.11
-61.61
-60.43
-55.57
-47.57
-37.40
-26.25
-15.41
-6.24
0.10
2.80
1.77
-2.42
-8.66
-15.78
-22.97
-30.00
-37.06
-44.32
-51.69
-58.63
-64.44
-68.60
-71.00
-71.99
-72.14
-71.92
-71.56
-71.00
-70.01
-68.43
-66.22
-63.53
-60.61
-57.81
-55.48
-53.99
-53.71
-54.92
-57.64
-61.44
-65.41
-68.17
-68.27
-64.51
-56.43
-44.47
-29.91
-14.43
0.30
13.07
23.34
31.14
36.94
41.29
44.70
47.42
49.47
50.71
50.89
49.89
47.74
44.70
41.22
37.72
34.53
31.69
28.94
25.85
21.92
16.79
10.40
3.05
-4.61
-11.65
-17.05
-19.91
-19.69
-16.36
-10.56
-3.49
3.35
8.58
11.35
11.60
10.11
8.18
7.23
8.28
11.77
17.42
24.50
32.10
39.42
45.83
50.95
54.54
56.50
56.88
56.00
54.55
53.59
54.43
58.24
65.54
75.80
87.34
97.72
104.45
105.79
101.35
92.06
79.68
66.02
52.34
39.17
26.47
14.09
2.06
-9.38
-19.96
-29.63
-38.62
-47.35
-56.22
-65.30
-74.22
-82.23
-88.37
-91.82
-92.16
-89.53
-84.56
-78.09
-70.85
-63.33
-55.83
-48.54
-41.77
-35.85
-30.94
-26.92
-23.30
-19.51
-15.16
-10.24
-5.14
-0.41
3.50
6.36
8.18
9.07
9.23
8.89
8.28
7.61
6.93
6.10
4.92
3.25
1.17
-1.00
-2.83
-4.05
-4.65
-4.92
-5.36
-6.51
-8.78
-12.31
-16.85
-21.73
-25.96
-28.47
-28.42
-25.55
-20.29
-13.57
-6.55
-0.18
5.03
9.03
12.14
14.77
17.37
20.16
23.18
26.14
28.45
29.26
27.74
23.39
16.41
7.78
-0.84
-7.64
-11.15
-10.79
-6.89
-0.60
6.59
13.26
18.38
21.38
22.14
20.86
17.92
13.87
9.19
4.24
-0.88
-6.27
-12.13
-18.47
-24.96
-30.88
-35.26
-37.22
-36.27
-32.48
-26.52
-19.37
-12.07
-5.45
0.02
4.23
7.35
9.66
11.45
12.89
13.91
14.22
13.34
10.78
6.27
-0.03
-7.46
-14.93
-21.09
-24.72
-25.04
-22.03
-16.47
-9.73
-3.33
1.56
4.48
5.78
6.28
6.82
7.85
9.24
10.46
10.89
10.19
8.41
5.95
3.36
1.12
-0.43
-1.04
-0.50
1.39
4.67
9.25
14.71
20.41
25.66
29.91
32.92
34.74
35.68
36.11
36.27
36.28
36.10
35.62
34.68
33.20
31.18
28.72
26.03
23.35
20.82
18.53
16.37
14.13
11.61
8.64
5.18
1.35
-2.62
-6.41
-9.71
-12.32
-14.26
-15.73
-17.02
-18.36
-19.70
-20.64
-20.64
-19.20
-16.11
-11.51
-5.87
0.26
6.40
12.22
17.56
22.31
26.38
29.63
31.95
33.24
33.48
32.68
30.88
28.19
24.73
20.70
16.30
11.76
7.27
2.91
-1.34
-5.55
-9.81
-14.07
-18.19
-21.89
-24.91
-27.12
-28.57
-29.41
-29.86
-30.11
-30.23
-30.28
-30.31
-30.38
-30.60
-31.06
-31.83
-32.84
-33.93
-34.79
-35.06
-34.36
-32.47
-29.31
-25.04
-19.93
-14.31
-8.48
-2.66
2.96
8.22
12.90
16.85
19.96
22.18
23.55
24.19
24.27
24.01
23.66
23.43
23.44
23.68
24.03
24.27
24.26
23.95
23.40
22.74
22.04
21.21
20.11
18.56
16.53
14.13
11.56
9.00
6.48
3.92
1.16
-1.87
-5.12
-8.42
-11.51
-14.14
-16.03
-16.94
-16.61
-14.86
-11.65
-7.17
-1.86
3.77
9.17
13.97
17.97
21.18
23.66
25.51
26.78
27.50
27.66
27.32
26.56
25.47
24.10
22.47
20.54
18.33
15.87
13.29
10.74
8.33
6.09
4.02
2.06
0.16
-1.68
-3.42
-5.01
-6.37
-7.48
-8.39
-9.23
-10.22
-11.52
-13.24
-15.29
-17.44
-19.33
-20.58
-20.86
-19.94
-17.77
-14.36
-9.84
-4.39
1.75
8.27
14.82
21.06
26.70
31.55
35.59
38.98
42.00
45.01
48.33
52.13
56.39
60.77
64.65
67.23
67.79
65.92
61.73
55.80
48.98
42.10
35.61
29.56
23.66
17.52
10.84
3.60
-4.02
-11.69
-19.11
-26.08
-32.54
-38.56
-44.29
-49.88
-55.44
-61.04
-66.69
-72.29
-77.62
-82.30
-85.75
-87.36
-86.61
-83.37
-77.94
-71.08
-63.73
-56.73
-50.58
-45.36
-40.81
-36.63
-32.60
-28.72
-25.14
-22.07
-19.62
-17.72
-16.20
-14.77
-13.19
-11.30
-9.03
-6.45
-3.68
-0.88
1.80
4.24
6.29
7.79
8.59
8.61
7.94
6.87
5.78
5.02
4.75
4.84
4.97
4.76
3.96
2.59
0.86
-0.86
-2.22
-2.98
-3.09
-2.57
-1.55
-0.12
1.66
3.80
6.34
9.27
12.53
15.91
19.11
21.83
23.84
25.04
25.50
25.37
24.78
23.79
22.40
20.58
18.40
16.05
13.75
11.67
9.89
8.34
6.89
5.42
3.88
2.29
0.70
-0.84
-2.28
-3.59
-4.71
-5.62
-6.36
-7.07
-7.96
-9.24
-11.04
-13.28
-15.72
-17.97
-19.61
-20.34
-20.03
-18.73
-16.58
-13.79
-10.51
-6.91
-3.17
0.48
3.82
6.63
8.78
10.25
11.11
11.51
11.61
11.51
11.30
11.01
10.59
10.04
9.34
8.48
7.52
6.48
5.43
4.43
3.57
2.90
2.45
2.17
1.92
1.54
0.91
0.01
-1.07
-2.19
-3.26
-4.26
-5.24
-6.30
-7.49
-8.83
-10.27
-11.68
-12.88
-13.69
-13.89
-13.34
-11.97
-9.79
-6.94
-3.60
-0.03
3.45
6.51
8.90
10.49
11.32
11.57
11.46
11.18
10.81
10.34
9.78
9.10
8.36
7.58
6.78
5.95
5.03
3.95
2.65
1.14
-0.52
-2.17
-3.67
-4.89
-5.83
-6.56
-7.25
-8.04
-9.06
-10.37
-11.97
-13.79
-15.63
-17.24
-18.27
-18.47
-17.67
-15.88
-13.27
-10.05
-6.48
-2.80
0.74
3.96
6.70
8.93
10.68
12.04
13.07
13.74
14.02
13.88
13.35
12.55
11.60
10.58
9.52
8.37
7.07
5.61
4.00
2.32
0.68
-0.81
-2.11
-3.26
-4.34
-5.47
-6.71
-8.05
-9.43
-10.81
-12.22
-13.75
-15.46
-17.30
-19.03
-20.31
-20.81
-20.36
-18.94
-16.68
-13.78
-10.41
-6.78
-3.08
0.44
3.50
5.90
7.56
8.52
8.94
8.99
8.82
8.47
7.93
7.20
6.31
5.34
4.38
3.50
2.72
2.02
1.35
0.69
0.09
-0.42
-0.81
-1.07
-1.21
-1.21
-1.04
-0.73
-0.35
-0.10
-0.23
-0.94
-2.27
-4.09
-6.04
-7.74
-8.84
-9.12
-8.51
-7.03
-4.78
-1.91
1.42
5.00
8.61
12.02
15.01
17.40
19.05
19.91
20.05
19.63
18.87
17.95
16.92
15.72
14.23
12.36
10.23
8.03
6.03
4.40
3.12
2.04
0.90
-0.51
-2.31
-4.53
-7.12
-9.99
-13.06
-16.18
-19.18
-21.88
-24.10
-25.75
-26.80
-27.23
-27.02
-26.07
-24.27
-21.47
-17.67
-12.99
-7.70
-2.18
3.22
8.24
12.72
16.57
19.74
22.17
23.81
24.71
24.98
24.84
24.45
23.96
23.42
22.81
22.07
21.16
20.01
18.55
16.71
14.45
11.77
8.76
5.53
2.25
-0.96
-3.99
-6.78
-9.26
-11.38
-13.09
-14.41
-15.41
-16.20
-16.88
-17.45
-17.81
-17.74
-17.05
-15.60
-13.43
-10.66
-7.35
-3.47
1.08
6.41
12.38
18.56
24.24
28.70
31.34
31.98
30.76
28.10
24.47
20.26
15.72
11.01
6.28
1.72
-2.48
-6.15
-9.23
-11.73
-13.67
-15.14
-16.15
-16.74
-16.94
-16.79
-16.36
-15.73
-15.00
-14.34
-13.91
-13.84
-14.24
-15.09
-16.32
-17.81
-19.41
-20.92
-22.07
-22.55
-22.08
-20.52
-18.01
-14.87
-11.49
-8.13
-4.80
-1.29
2.64
7.01
11.53
15.64
18.72
20.38
20.53
19.36
17.25
14.58
11.75
9.14
7.18
6.20
6.41
7.70
9.62
11.58
12.95
13.31
12.53
10.71
8.11
4.99
1.57
-2.02
-5.70
-9.44
-13.21
-16.97
-20.67
-24.22
-27.53
-30.49
-32.95
-34.74
-35.70
-35.73
-34.88
-33.29
-31.21
-28.90
-26.59
-24.42
-22.51
-20.94
-19.82
-19.24
-19.11
-19.19
-19.01
-18.04
-15.95
-12.76
-8.97
-5.37
-2.78
-1.74
-2.23
-3.73
-5.40
-6.45
-6.35
-4.97
-2.47
0.80
4.42
7.95
10.93
12.88
13.46
12.53
10.25
6.99
3.23
-0.60
-4.18
-7.31
-9.82
-11.50
-12.10
-11.42
-9.38
-6.07
-1.79
3.04
7.88
12.24
15.71
18.07
19.33
19.70
19.45
18.86
18.09
17.22
16.28
15.35
14.52
13.85
13.28
12.65
11.77
10.55
9.00
7.25
5.41
3.46
1.25
-1.41
-4.65
-8.44
-12.64
-17.04
-21.43
-25.67
-29.62
-33.12
-35.96
-37.92
-38.91
-39.05
-38.69
-38.27
-38.10
-38.20
-38.24
-37.75
-36.33
-33.89
-30.61
-26.76
-22.52
-17.77
-12.22
-5.66
1.82
9.77
17.46
24.23
29.58
33.36
35.69
36.93
37.48
37.67
37.70
37.51
36.91
35.67
33.63
30.84
27.50
23.88
20.20
16.55
12.90
9.27
5.72
2.42
-0.47
-2.85
-4.73
-6.24
-7.61
-9.02
-10.64
-12.48
-14.40
-16.15
-17.44
-18.08
-18.04
-17.48
-16.67
-15.80
-14.84
-13.48
-11.29
-7.89
-3.25
2.29
8.07
13.39
17.73
20.92
23.16
24.84
26.36
27.89
29.38
30.55
31.12
30.94
30.11
28.85
27.45
26.10
24.94
24.05
23.58
23.62
24.15
24.79
24.90
23.75
20.94
16.69
11.86
7.68
5.24
5.05
6.92
10.13
13.79
17.31
20.47
23.37
26.27
29.28
32.32
35.07
37.06
37.85
37.02
34.31
29.55
22.76
14.21
4.51
-5.39
-14.38
-21.47
-26.05
-28.12
-28.18
-27.09
-25.67
-24.53
-23.95
-23.93
-24.33
-24.95
-25.58
-26.02
-26.17
-26.06
-25.96
-26.23
-27.26
-29.31
-32.36
-36.12
-40.04
-43.44
-45.64
-46.09
-44.55
-41.09
-36.11
-30.25
-24.17
-18.48
-13.60
-9.71
-6.88
-4.96
-3.70
-2.78
-1.86
-0.70
0.77
2.48
4.30
6.06
7.66
8.99
9.91
10.27
9.98
9.04
7.65
6.07
4.57
3.24
1.99
0.67
-0.87
-2.68
-4.72
-6.89
-9.10
-11.24
-13.10
-14.42
-14.87
-14.20
-12.37
-9.57
-6.12
-2.37
1.41
5.05
8.43
11.41
13.83
15.51
16.38
16.50
16.03
15.14
14.00
12.70
11.34
9.99
8.72
7.54
6.41
5.19
3.77
2.11
0.29
-1.53
-3.20
-4.65
-5.95
-7.27
-8.80
-10.67
-12.98
-15.73
-18.78
-21.89
-24.63
-26.56
-27.37
-27.06
-25.88
-24.28
-22.55
-20.69
-18.42
-15.45
-11.79
-7.91
-4.62
-2.67
-2.44
-3.75
-5.87
-7.86
-8.72
-7.62
-4.06
2.07
10.34
19.77
28.95
36.42
41.12
42.86
42.46
41.44
41.35
43.02
46.24
49.77
52.07
52.09
49.92
46.82
44.70
45.25
49.19
55.98
64.00
71.29
76.26
78.24
77.64
75.76
74.42
75.48
80.49
90.33
105.16
124.41
146.80
170.48
193.23
212.90
227.91
237.86
243.71
247.47
251.38
256.81
263.57
269.76
272.45
268.84
257.40
238.50
214.25
187.71
161.83
138.62
118.69
101.42
85.57
69.87
53.59
36.73
19.93
4.18
-9.39
-19.87
-26.67
-29.78
-29.70
-27.45
-24.34
-21.76
-20.87
-22.44
-26.89
-34.29
-44.47
-56.98
-71.10
-85.89
-100.36
-113.66
-125.30
-135.27
-143.91
-151.75
-159.31
-166.88
-174.51
-182.07
-189.33
-196.23
-202.87
-209.50
-216.32
-223.30
-229.99
-235.69
-239.66
-241.58
-241.66
-240.75
-239.90
-239.92
-240.87
-241.97
-241.71
-238.56
-231.47
-220.33
-205.96
-189.69
-172.83
-156.23
-140.28
-125.09
-110.82
-97.76
-86.17
-76.02
-66.80
-57.69
-47.89
-36.95
-24.90
-12.08
1.17
14.70
28.52
42.68
57.12
71.62
85.93
99.76
112.81
124.63
134.56
141.69
144.82
142.66
134.08
118.59
96.75
70.34
42.16
15.28
-7.94
-26.71
-41.87
-55.32
-68.70
-82.35
-94.85
-103.48
-105.36
-98.63
-83.33
-61.61
-37.29
-14.77
2.14
11.39
13.19
9.73
4.37
0.37
-0.14
3.32
9.84
17.79
25.61
32.29
37.45
40.97
42.74
42.53
40.16
35.84
30.33
24.82
20.44
17.59
15.54
12.60
6.72
-3.50
-18.16
-35.85
-54.15
-70.56
-83.21
-91.40
-95.43
-96.25
-94.90
-92.13
-88.27
-83.23
-76.61
-67.95
-56.97
-43.85
-29.40
-14.91
-1.79
9.05
17.54
24.50
31.23
38.72
47.07
55.32
61.86
65.24
64.87
61.30
55.95
50.54
46.59
45.03
46.05
49.09
52.87
55.58
55.27
50.39
40.45
26.32
10.13
-5.31
-17.37
-24.40
-26.11
-23.39
-17.89
-11.37
-5.28
-0.57
2.34
3.49
3.32
2.55
1.98
2.23
3.39
4.86
5.54
4.28
0.36
-6.08
-14.06
-22.16
-28.94
-33.44
-35.37
-35.06
-33.24
-30.78
-28.46
-26.76
-25.77
-25.23
-24.68
-23.72
-22.23
-20.44
-18.97
-18.50
-19.54
-22.26
-26.38
-31.29
-36.18
-40.23
-42.70
-43.02
-40.91
-36.51
-30.48
-23.92
-18.11
-14.09
-12.25
-12.21
-13.01
-13.54
-12.99
-11.12
-8.19
-4.68
-1.05
2.42
5.58
8.35
10.56
12.06
12.79
12.89
12.67
12.54
12.84
13.69
14.98
16.44
17.76
18.69
19.13
19.08
18.62
17.79
16.63
15.08
13.03
10.44
7.29
3.63
-0.47
-4.95
-9.80
-15.04
-20.62
-26.38
-31.93
-36.76
-40.32
-42.27
-42.49
-41.15
-38.54
-34.96
-30.57
-25.40
-19.44
-12.75
-5.62
1.45
7.86
13.10
16.92
19.40
20.93
22.07
23.40
25.36
28.25
32.09
36.68
41.49
45.72
48.54
49.41
48.45
46.56
45.23
46.04
50.05
57.35
66.97
77.05
85.32
89.71
88.81
82.39
71.43
57.94
44.39
33.05
25.32
21.51
21.02
22.75
25.70
29.16
32.83
36.69
40.86
45.57
51.15
57.94
66.11
75.44
85.17
94.11
100.97
104.73
105.04
102.24
97.14
90.68
83.52
75.94
67.84
58.93
48.92
37.69
25.39
12.39
-0.71
-13.18
-24.26
-33.30
-39.89
-43.98
-45.90
-46.42
-46.64
-47.77
-50.86
-56.38
-63.99
-72.46
-80.16
-85.54
-87.83
-87.29
-85.09
-82.79
-81.80
-82.88
-86.02
-90.62
-95.84
-100.95
-105.53
-109.49
-112.86
-115.51
-117.06
-117.04
-115.24
-112.27
-109.65
-109.53
-113.98
-124.13
-139.80
-159.41
-180.36
-199.32
-212.61
-216.59
-208.40
-187.02
-154.15
-114.24
-73.26
-36.76
-7.80
13.81
30.84
46.72
63.62
81.45
98.28
111.75
120.52
124.73
125.63
124.43
121.51
116.24
107.78
96.05
82.33
69.00
58.45
51.87
48.53
46.08
41.81
33.96
22.61
9.44
-3.17
-13.28
-20.14
-24.17
-26.40
-27.73
-28.45
-28.02
-25.42
-19.69
-10.53
1.21
13.51
23.61
28.90
27.81
20.39
8.41
-5.32
-17.80
-26.67
-30.67
-29.63
-24.24
-15.65
-5.23
5.71
16.02
24.77
31.34
35.31
36.50
34.99
31.17
25.69
19.34
12.76
6.36
0.16
-6.00
-12.26
-18.60
-24.79
-30.43
-35.08
-38.32
-39.75
-39.12
-36.37
-31.75
-25.84
-19.40
-13.13
-7.44
-2.38
2.28
6.90
11.71
16.75
21.85
26.75
31.18
34.98
38.12
40.61
42.48
43.77
44.47
44.63
44.30
43.56
42.49
41.10
39.38
37.28
34.88
32.28
29.64
27.08
24.62
22.21
19.80
17.40
15.10
13.01
11.07
9.04
6.49
3.13
-0.96
-5.18
-8.58
-10.26
-9.81
-7.48
-4.09
-0.58
2.49
5.07
7.58
10.50
13.96
17.59
20.66
22.37
22.22
20.14
16.57
12.21
7.86
4.19
1.62
0.28
0.07
0.69
1.79
3.01
4.06
4.71
4.78
4.18
2.90
1.06
-1.08
-3.14
-4.69
-5.44
-5.34
-4.77
-4.41
-5.07
-7.38
-11.50
-17.02
-23.05
-28.55
-32.59
-34.63
-34.51
-32.27
-28.06
-22.03
-14.42
-5.72
3.32
11.77
18.79
23.92
27.17
28.96
29.83
30.27
30.53
30.67
30.63
30.37
29.91
29.29
28.57
27.79
26.99
26.26
25.68
25.28
24.97
24.58
23.90
22.79
21.24
19.36
17.25
14.90
12.19
8.83
4.61
-0.51
-6.26
-12.07
-17.19
-20.87
-22.58
-22.14
-19.72
-15.71
-10.57
-4.69
1.59
8.00
14.27
20.16
25.47
30.05
33.84
36.80
38.87
39.98
40.09
39.32
37.90
36.17
34.42
32.92
31.91
31.68
32.51
34.58
37.71
41.27
44.29
45.70
44.72
41.09
35.18
27.79
19.88
12.29
5.57
-0.09
-4.81
-8.96
-12.96
-17.21
-21.87
-26.81
-31.54
-35.38
-37.65
-37.93
-36.18
-32.70
-27.99
-22.55
-16.78
-10.93
-5.16
0.43
5.71
10.60
15.06
19.08
22.66
25.78
28.37
30.36
31.71
32.41
32.51
32.07
31.21
30.09
28.90
27.81
26.90
26.08
25.18
24.02
22.52
20.78
18.97
17.24
15.57
13.80
11.67
9.02
5.89
2.49
-0.84
-3.90
-6.65
-9.28
-12.02
-14.97
-17.93
-20.45
-21.96
-21.97
-20.22
-16.76
-11.84
-5.77
1.17
8.72
16.56
24.16
30.77
35.64
38.29
38.76
37.68
35.95
34.37
33.24
32.31
30.99
28.83
25.82
22.50
19.66
17.96
17.51
17.87
18.25
17.96
16.62
14.30
11.39
8.46
6.12
4.98
5.52
7.94
11.99
16.82
21.02
23.05
21.60
16.12
7.01
-4.46
-16.51
-27.33
-35.50
-40.27
-41.55
-39.80
-35.82
-30.49
-24.64
-18.90
-13.72
-9.33
-5.74
-2.77
-0.15
2.37
4.81
6.94
8.26
8.23
6.49
3.02
-1.79
-7.26
-12.63
-17.20
-20.54
-22.58
-23.65
-24.31
-25.22
-26.88
-29.48
-32.82
-36.36
-39.48
-41.59
-42.29
-41.45
-39.17
-35.81
-31.91
-28.15
-25.16
-23.37
-22.88
-23.42
-24.56
-25.91
-27.29
-28.69
-30.07
-31.18
-31.53
-30.50
-27.66
-22.98
-16.78
-9.61
-2.00
5.75
13.48
21.15
28.61
35.68
42.06
47.51
51.82
54.85
56.55
56.92
55.98
53.59
49.44
42.98
33.78
21.83
7.84
-6.76
-20.18
-30.80
-37.67
-40.66
-40.35
-37.73
-33.82
-29.60
-25.88
-23.31
-22.24
-22.57
-23.71
-24.71
-24.63
-22.87
-19.38
-14.62
-9.29
-3.99
1.06
6.03
11.39
17.63
25.02
33.47
42.44
51.07
58.38
63.52
65.98
65.71
63.06
58.62
53.01
46.68
39.93
33.00
26.14
19.64
13.79
8.74
4.41
0.57
-3.08
-6.71
-10.27
-13.56
-16.37
-18.66
-20.66
-22.83
-25.65
-29.42
-34.14
-39.47
-44.94
-50.05
-54.42
-57.75
-59.81
-60.40
-59.29
-56.42
-51.88
-46.01
-39.25
-32.10
-24.93
-17.97
-11.32
-5.02
0.88
6.24
10.88
14.66
17.48
19.41
20.65
21.46
22.04
22.45
22.60
22.31
21.46
20.04
18.20
16.21
14.28
12.48
10.78
9.08
7.25
5.28
3.17
1.01
-1.17
-3.33
-5.45
-7.51
-9.50
-11.40
-13.29
-15.31
-17.59
-20.27
-23.33
-26.59
-29.70
-32.25
-33.85
-34.28
-33.52
-31.80
-29.44
-26.75
-23.87
-20.73
-17.16
-13.01
-8.32
-3.47
0.92
4.14
5.70
5.66
4.72
4.06
4.99
8.35
14.10
21.23
28.03
32.76
34.22
32.07
26.79
19.39
11.16
3.52
-2.05
-4.25
-2.35
3.28
11.09
18.68
23.71
24.74
21.71
15.71
8.34
0.88
-6.01
-12.16
-17.48
-21.62
-24.07
-24.41
-22.67
-19.33
-15.05
-10.24
-4.85
1.61
9.73
19.72
31.24
43.45
55.41
66.56
76.92
87.03
97.63
109.25
122.03
135.77
150.11
164.77
179.73
195.21
211.57
229.27
248.68
269.82
292.15
314.28
333.92
348.14
354.00
349.34
333.45
307.30
273.23
234.37
193.76
153.80
115.97
80.90
48.57
18.54
-10.05
-38.42
-67.97
-99.83
-134.12
-169.47
-203.01
-231.15
-250.84
-260.71
-261.68
-256.49
-248.60
-240.93
-235.03
-231.00
-228.03
-225.11
-221.53
-216.88
-210.98
-203.67
-194.85
-184.63
-173.40
-161.85
-150.88
-141.26
-133.49
-127.60
-123.18
-119.45
-115.57
-110.92
-105.42
-99.58
-94.32
-90.57
-88.91
-89.29
-91.11
-93.46
-95.34
-95.84
-94.09
-89.47
-81.71
-71.23
-59.22
-47.33
-37.17
-29.79
-25.33
-23.17
-22.25
-21.55
-20.30
-18.03
-14.61
-10.11
-4.92
0.47
5.51
10.03
14.26
18.78
24.01
29.76
34.93
37.66
35.98
28.44
14.80
-3.77
-24.82
-45.13
-61.42
-71.10
-72.85
-66.86
-54.80
-39.25
-23.02
-8.54
2.65
9.97
13.72
14.82
14.59
14.44
15.65
19.04
24.77
32.24
40.33
47.75
53.46
56.92
58.13
57.41
55.21
51.97
48.06
43.89
39.87
36.38
33.61
31.44
29.54
27.50
25.09
22.43
19.87
17.81
16.44
15.64
15.06
14.27
13.02
11.28
9.22
7.07
4.98
2.94
0.74
-1.95
-5.43
-9.78
-14.76
-19.80
-24.11
-26.98
-27.99
-27.19
-24.97
-21.86
-18.35
-14.71
-11.05
-7.44
-3.95
-0.78
1.87
3.88
5.32
6.39
7.35
8.31
9.17
9.63
9.40
8.36
6.69
4.82
3.14
1.84
0.78
-0.51
-2.56
-5.77
-10.17
-15.48
-21.17
-26.64
-31.41
-35.22
-38.08
-40.18
-41.80
-43.15
-44.28
-44.99
-44.95
-43.82
-41.38
-37.69
-33.00
-27.68
-22.09
-16.46
-10.86
-5.30
0.26
5.78
11.18
16.33
21.07
25.31
28.97
31.96
34.13
35.31
35.35
34.22
32.14
29.53
26.92
24.73
23.12
21.98
21.01
19.88
18.44
16.74
14.98
13.40
12.15
11.22
10.45
9.58
8.28
6.36
3.83
0.93
-1.86
-4.05
-5.25
-5.29
-4.20
-2.12
0.83
4.58
9.01
13.90
18.88
23.53
27.43
30.36
32.28
33.33
33.71
33.59
33.06
32.13
30.76
28.89
26.54
23.83
21.01
18.38
16.22
14.65
13.61
12.83
12.00
10.84
9.24
7.22
4.93
2.53
0.15
-2.16
-4.36
-6.46
-8.47
-10.47
-12.59
-14.97
-17.63
-20.38
-22.75
-24.15
-24.03
-22.12
-18.52
-13.70
-8.28
-2.82
2.32
7.00
11.14
14.65
17.37
19.14
19.93
19.87
19.24
18.34
17.35
16.38
15.42
14.45
13.50
12.63
11.94
11.47
11.22
11.15
11.15
11.14
11.00
10.61
9.91
8.88
7.55
5.97
4.08
1.76
-1.18
-4.86
-9.20
-13.83
-18.17
-21.55
-23.47
-23.72
-22.43
-19.96
-16.74
-13.03
-8.94
-4.41
0.56
5.76
10.74
14.91
17.73
18.97
18.81
17.78
16.50
15.50
14.95
14.74
14.60
14.32
13.85
13.25
12.60
11.88
10.97
9.77
8.29
6.69
5.21
4.03
3.17
2.43
1.52
0.12
-1.95
-4.75
-8.13
-11.85
-15.47
-18.51
-20.48
-21.03
-20.07
-17.79
-14.58
-10.87
-7.02
-3.25
0.31
3.63
6.70
9.53
12.13
14.51
16.65
18.43
19.74
20.43
20.47
19.97
19.13
18.18
17.27
16.46
15.75
15.11
14.54
14.04
13.55
12.95
12.10
10.89
9.24
7.16
4.70
1.92
-1.11
-4.37
-7.79
-11.32
-14.88
-18.34
-21.53
-24.20
-26.11
-26.98
-26.64
-25.04
-22.31
-18.73
-14.62
-10.30
-5.98
-1.75
2.36
6.33
10.06
13.38
16.17
18.41
20.24
21.92
23.72
25.70
27.76
29.58
30.89
31.51
31.48
30.96
30.15
29.17
28.00
26.55
24.70
22.46
19.97
17.49
15.31
13.62
12.40
11.40
10.21
8.41
5.75
2.29
-1.60
-5.34
-8.25
-9.81
-9.76
-8.18
-5.40
-1.90
1.82
5.42
8.74
11.76
14.51
16.92
18.78
19.85
19.93
19.07
17.57
15.91
14.51
13.61
13.08
12.60
11.83
10.58
8.91
7.03
5.14
3.30
1.52
-0.14
-1.49
-2.24
-2.19
-1.38
-0.24
0.66
0.78
-0.11
-1.94
-4.43
-7.36
-10.62
-14.20
-17.97
-21.59
-24.54
-26.29
-26.55
-25.40
-23.28
-20.76
-18.28
-16.01
-13.84
-11.53
-8.88
-5.90
-2.82
0.01
2.27
3.79
4.60
4.89
4.86
4.67
4.41
4.05
3.56
2.94
2.26
1.59
1.04
0.61
0.21
-0.32
-1.12
-2.25
-3.64
-5.12
-6.54
-7.84
-9.10
-10.45
-12.04
-13.88
-15.85
-17.82
-19.73
-21.66
-23.81
-26.33
-29.11
-31.82
-33.89
-34.77
-34.12
-31.92
-28.46
-24.17
-19.48
-14.69
-9.99
-5.54
-1.47
2.05
4.84
6.81
8.00
8.57
8.83
9.06
9.47
10.07
10.73
11.24
11.40
11.20
10.71
10.10
9.48
8.85
8.13
7.18
5.92
4.35
2.53
0.60
-1.30
-3.05
-4.60
-6.00
-7.38
-8.91
-10.76
-12.99
-15.54
-18.23
-20.81
-23.04
-24.68
-25.48
-25.24
-23.89
-21.49
-18.30
-14.65
-10.84
-7.05
-3.33
0.37
3.98
7.36
10.24
12.42
13.81
14.51
14.76
14.79
14.77
14.79
14.86
14.91
14.84
14.53
13.88
12.87
11.59
10.22
8.94
7.85
6.91
5.99
4.93
3.67
2.22
0.66
-0.93
-2.53
-4.17
-5.94
-7.95
-10.25
-12.88
-15.74
-18.65
-21.30
-23.30
-24.33
-24.19
-22.86
-20.46
-17.21
-13.26
-8.80
-4.00
0.91
5.61
9.84
13.39
16.24
18.40
19.94
20.91
21.35
21.36
21.14
20.88
20.77
20.84
21.01
21.12
21.07
20.87
20.67
20.62
20.85
21.35
21.98
22.56
22.96
23.16
23.28
23.47
23.85
24.43
25.12
25.84
26.59
27.44
28.51
29.84
31.37
32.93
34.40
35.76
37.09
38.46
39.79
40.76
40.85
39.56
36.62
32.14
26.63
20.76
15.18
10.29
6.28
3.22
1.22
0.51
1.40
4.03
8.23
13.42
18.73
23.21
26.14
27.17
26.29
23.69
19.56
14.06
7.28
-0.66
-9.56
-19.13
-29.05
-39.04
-48.87
-58.33
-67.18
-75.08
-81.71
-86.79
-90.18
-91.84
-91.77
-90.03
-86.74
-82.12
-76.49
-70.21
-63.64
-57.05
-50.61
-44.36
-38.29
-32.33
-26.41
-20.49
-14.64
-9.04
-3.98
0.30
3.81
6.75
9.42
11.90
13.85
14.67
13.79
11.09
7.11
2.82
-0.80
-3.05
-3.74
-3.03
-1.22
1.40
4.53
7.71
10.36
11.81
11.45
8.91
4.10
-2.67
-10.72
-18.98
-26.19
-31.22
-33.40
-32.70
-29.63
-24.89
-19.09
-12.57
-5.48
2.01
9.57
16.82
23.40
29.12
33.95
37.94
41.20
43.88
46.22
48.46
50.80
53.26
55.74
58.03
60.05
61.92
63.99
66.65
70.17
74.54
79.46
84.46
89.00
92.61
94.85
95.33
93.74
89.94
84.05
76.47
67.77
58.65
49.74
41.64
34.91
30.04
27.23
26.13
25.55
23.47
17.44
5.21
-14.65
-42.36
-76.96
-116.55
-158.76
-200.98
-240.65
-275.29
-302.57
-320.35
-326.90
-321.20
-303.30
-274.50
-237.40
-195.58
-153.05
-113.51
-79.75
-53.07
-33.32
-19.13
-8.59
0.14
8.22
15.93
22.82
28.12
31.20
31.78
29.98
26.19
20.91
14.79
8.63
3.39
0.02
-0.90
0.59
3.71
7.28
10.06
11.30
10.96
9.57
7.90
6.63
6.18
6.81
8.85
12.70
18.67
26.57
35.42
43.56
49.20
51.09
49.11
44.17
37.77
31.28
25.36
19.96
14.58
8.87
2.84
-2.99
-7.93
-11.32
-12.91
-12.88
-11.84
-10.62
-9.94
-10.15
-11.12
-12.40
-13.55
-14.48
-15.60
-17.44
-20.27
-23.72
-26.77
-28.04
-26.34
-20.95
-11.78
0.76
15.90
32.54
49.31
64.62
76.95
85.28
89.44
90.24
89.24
88.21
88.50
90.53
93.75
96.78
97.96
95.89
89.91
80.27
67.95
54.30
40.59
27.80
16.52
7.05
-0.54
-6.31
-10.57
-13.82
-16.68
-19.69
-23.07
-26.66
-29.89
-32.16
-33.05
-32.70
-31.77
-31.21
-31.90
-34.18
-37.70
-41.44
-44.15
-44.69
-42.53
-37.80
-31.18
-23.64
-16.10
-9.23
-3.40
1.30
5.09
8.33
11.49
14.94
18.76
22.75
26.39
29.16
30.69
30.96
30.19
28.75
26.94
24.91
22.65
20.17
17.48
14.70
11.93
9.19
6.46
3.70
0.86
-2.02
-4.88
-7.63
-10.20
-12.48
-14.41
-15.99
-17.36
-18.86
-20.91
-23.92
-28.07
-33.13
-38.45
-43.14
-46.30
-47.32
-46.03
-42.67
-37.78
-32.01
-25.92
-19.82
-13.83
-7.95
-2.21
3.23
8.10
12.17
15.31
17.66
19.51
21.16
22.78
24.29
25.42
25.87
25.50
24.41
22.92
21.43
20.30
19.64
19.35
19.12
18.59
17.55
15.93
13.90
11.70
9.54
7.48
5.49
3.48
1.40
-0.67
-2.66
-4.53
-6.40
-8.46
-10.87
-13.54
-16.08
-17.89
-18.32
-17.03
-14.04
-9.75
-4.75
0.42
5.43
10.11
14.43
18.29
21.53
23.96
25.46
26.11
26.16
25.92
25.58
25.13
24.39
23.07
20.98
18.20
15.02
11.91
9.32
7.50
6.46
5.97
5.64
5.11
4.13
2.57
0.53
-1.77
-4.06
-6.11
-7.82
-9.24
-10.57
-12.08
-14.02
-16.56
-19.68
-23.16
-26.57
-29.33
-30.91
-30.89
-29.22
-26.15
-22.19
-17.89
-13.70
-9.78
-6.15
-2.74
0.41
3.15
5.28
6.74
7.64
8.21
8.69
9.20
9.72
10.13
10.34
10.38
10.40
10.52
10.77
11.06
11.19
10.97
10.28
9.16
7.73
6.16
4.63
3.26
2.09
1.02
-0.16
-1.70
-3.80
-6.59
-9.98
-13.69
-17.28
-20.20
-22.01
-22.38
-21.26
-18.84
-15.47
-11.56
-7.49
-3.54
0.10
3.32
6.06
8.23
9.78
10.65
10.84
10.45
9.68
8.82
8.17
7.93
8.06
8.38
8.60
8.52
8.11
7.53
6.97
6.55
6.23
5.85
5.23
4.31
3.14
1.85
0.50
-0.96
-2.68
-4.83
-7.54
-10.74
-14.21
-17.58
-20.38
-22.17
-22.59
-21.52
-19.04
-15.48
-11.31
-7.05
-3.13
0.22
2.96
5.24
7.23
9.07
10.75
12.21
13.32
14.01
14.28
14.21
13.91
13.51
13.18
13.05
13.29
13.94
14.94
16.06
16.94
17.25
16.77
15.46
13.44
10.90
8.01
4.88
1.58
-1.89
-5.46
-9.07
-12.60
-15.83
-18.51
-20.29
-20.88
-20.08
-17.90
-14.59
-10.58
-6.32
-2.21
1.50
4.71
7.44
9.72
11.59
13.14
14.46
15.65
16.82
17.93
18.88
19.54
19.79
19.64
19.16
18.45
17.60
16.60
15.33
13.72
11.73
9.49
7.18
5.02
3.09
1.30
-0.56
-2.78
-5.51
-8.69
-12.04
-15.13
-17.51
-18.89
-19.09
-18.13
-16.08
-13.14
-9.55
-5.63
-1.72
1.90
5.09
7.82
10.19
12.26
14.05
15.45
16.37
16.76
16.71
16.40
16.03
15.73
15.48
15.15
14.58
13.71
12.58
11.34
10.10
8.92
7.74
6.47
5.05
3.52
1.95
0.36
-1.39
-3.57
-6.43
-10.02
-14.05
-17.87
-20.70
-21.92
-21.35
-19.23
-16.12
-12.59
-9.05
-5.64
-2.37
0.72
3.53
5.92
7.81
9.27
10.47
11.57
12.58
13.39
13.80
13.66
13.05
12.18
11.35
10.79
10.54
10.48
10.38
10.04
9.39
8.48
7.43
6.35
5.27
4.15
2.86
1.29
-0.70
-3.15
-5.98
-8.95
-11.69
-13.74
-14.70
-14.33
-12.58
-9.63
-5.79
-1.41
3.14
7.55
11.57
15.00
17.71
19.63
20.73
21.05
20.68
19.81
18.68
17.54
16.57
15.84
15.29
14.80
14.23
13.52
12.67
11.68
10.55
9.27
7.78
6.13
4.41
2.74
1.19
-0.29
-1.82
-3.59
-5.70
-8.11
-10.68
-13.22
-15.56
-17.60
-19.24
-20.30
-20.54
-19.73
-17.76
-14.75
-11.03
-6.99
-2.99
0.76
4.19
7.28
9.97
12.12
13.60
14.35
14.48
14.15
13.63
13.05
12.51
11.97
11.41
10.82
10.24
9.69
9.16
8.58
7.86
6.91
5.65
4.07
2.21
0.19
-1.85
-3.76
-5.41
-6.83
-8.17
-9.64
-11.45
-13.61
-15.96
-18.17
-19.87
-20.78
-20.79
-19.93
-18.30
-16.02
-13.16
-9.78
-5.97
-1.85
2.34
6.35
9.89
12.78
14.96
16.45
17.31
17.60
17.36
16.64
15.54
14.23
12.96
11.91
11.18
10.70
10.34
9.90
9.26
8.36
7.23
5.92
4.48
2.96
1.37
-0.29
-2.00
-3.74
-5.49
-7.21
-8.92
-10.67
-12.55
-14.61
-16.81
-18.99
-20.94
-22.40
-23.17
-23.10
-22.09
-20.14
-17.34
-13.86
-9.98
-6.03
-2.26
1.20
4.32
7.11
9.56
11.57
13.04
13.93
14.33
14.48
14.65
15.00
15.53
16.08
16.46
16.64
16.75
17.12
18.06
19.72
21.92
24.17
25.85
26.44
25.73
23.89
21.35
18.66
16.36
15.04
15.28
17.57
21.94
27.66
33.12
36.23
35.29
29.77
20.69
10.22
0.76
-6.13
-10.17
-12.13
-13.05
-13.53
-13.44
-12.20
-9.41
-5.19
-0.27
4.31
7.67
9.37
9.49
8.47
6.91
5.30
3.94
2.91
2.07
1.26
0.34
-0.69
-1.75
-2.79
-3.88
-5.25
-7.19
-9.91
-13.39
-17.37
-21.41
-25.07
-27.96
-29.92
-30.97
-31.35
-31.42
-31.51
-31.86
-32.44
-33.04
-33.32
-33.03
-32.08
-30.60
-28.79
-26.81
-24.71
-22.42
-19.92
-17.35
-14.97
-13.07
-11.81
-11.10
-10.66
-10.13
-9.27
-8.07
-6.68
-5.34
-4.21
-3.33
-2.65
-2.08
-1.60
-1.21
-0.93
-0.77
-0.71
-0.71
-0.75
-0.83
-1.01
-1.40
-2.12
-3.24
-4.71
-6.34
-7.87
-9.10
-9.96
-10.63
-11.42
-12.61
-14.27
-16.18
-17.90
-18.95
-18.99
-17.90
-15.81
-12.99
-9.75
-6.33
-2.94
0.28
3.19
5.66
7.58
8.98
9.94
10.64
11.24
11.78
12.19
12.33
12.09
11.48
10.61
9.68
8.88
8.30
7.96
7.77
7.61
7.30
6.68
5.62
4.07
2.09
-0.11
-2.29
-4.19
-5.66
-6.72
-7.50
-8.26
-9.25
-10.70
-12.70
-15.15
-17.76
-20.13
-21.81
-22.47
-21.97
-20.34
-17.78
-14.56
-10.94
-7.14
-3.40
0.08
3.09
5.50
7.25
8.37
9.01
9.33
9.48
9.58
9.68
9.78
9.81
9.74
9.54
9.23
8.85
8.41
7.93
7.38
6.76
6.09
5.43
4.81
4.25
3.68
3.01
2.14
1.04
-0.25
-1.67
-3.16
-4.70
-6.39
-8.33
-10.56
-13.01
-15.41
-17.42
-18.72
-19.10
-18.55
-17.16
-15.05
-12.29
-8.94
-5.11
-1.03
2.92
6.35
9.01
10.82
11.94
12.64
13.14
13.60
14.04
14.41
14.67
14.76
14.64
14.29
13.66
12.79
11.74
10.66
9.66
8.80
8.04
7.25
6.30
5.08
3.53
1.70
-0.30
-2.30
-4.11
-5.62
-6.89
-8.07
-9.42
-11.12
-13.14
-15.21
-16.86
-17.64
-17.24
-15.62
-13.03
-9.83
-6.43
-3.11
-0.06
2.70
5.22
7.60
9.92
12.21
14.43
16.45
18.14
19.39
20.14
20.42
20.30
19.89
19.28
18.54
17.73
16.92
16.16
15.49
14.84
14.03
12.83
11.07
8.70
5.87
2.85
-0.09
-2.76
-5.11
-7.26
-9.36
-11.59
-14.02
-16.65
-19.31
-21.75
-23.66
-24.73
-24.79
-23.82
-21.99
-19.54
-16.75
-13.81
-10.83
-7.93
-5.25
-2.96
-1.27
-0.25
0.13
0.08
-0.13
-0.24
-0.09
0.40
1.23
2.37
3.80
5.52
7.53
9.81
12.35
15.10
17.96
20.69
22.92
24.15
23.94
22.02
18.43
13.53
7.86
2.01
-3.59
-8.76
-13.53
-18.02
-22.28
-26.15
-29.31
-31.37
-32.07
-31.33
-29.28
-26.18
-22.28
-17.79
-12.84
-7.56
-2.12
3.26
8.30
12.76
16.50
19.53
21.95
23.92
25.57
26.95
28.01
28.61
28.65
28.11
27.11
25.84
24.53
23.30
22.19
21.13
20.05
18.84
17.46
15.86
14.01
11.93
9.66
7.28
4.85
2.41
0.00
-2.40
-4.79
-7.21
-9.74
-12.49
-15.53
-18.82
-22.12
-25.00
-26.99
-27.71
-27.01
-24.97
-21.84
-17.97
-13.67
-9.22
-4.85
-0.74
2.96
6.17
8.84
10.97
12.57
13.68
14.31
14.48
14.22
13.60
12.70
11.67
10.63
9.67
8.79
7.94
7.01
5.92
4.58
3.01
1.23
-0.68
-2.67
-4.69
-6.72
-8.78
-10.89
-13.04
-15.17
-17.13
-18.78
-20.00
-20.84
-21.43
-21.99
-22.70
-23.59
-24.55
-25.32
-25.64
-25.29
-24.14
-22.21
-19.55
-16.27
-12.50
-8.37
-4.03
0.33
4.55
8.47
11.96
14.91
17.27
19.03
20.24
20.94
21.18
21.01
20.48
19.68
18.73
17.77
16.88
16.13
15.50
14.93
14.39
13.81
13.18
12.50
11.76
10.97
10.17
9.41
8.69
7.97
7.11
5.95
4.39
2.45
0.30
-1.82
-3.77
-5.50
-7.17
-9.01
-11.18
-13.66
-16.18
-18.32
-19.67
-19.94
-19.06
-17.15
-14.43
-11.11
-7.40
-3.47
0.49
4.30
7.75
10.66
12.89
14.35
15.03
14.99
14.36
13.37
12.22
11.07
10.02
9.10
8.30
7.62
7.03
6.48
5.88
5.18
4.34
3.41
2.42
1.38
0.24
-1.04
-2.44
-3.86
-5.16
-6.27
-7.23
-8.21
-9.39
-10.83
-12.44
-14.06
-15.57
-16.95
-18.28
-19.63
-20.98
-22.20
-23.05
-23.31
-22.79
-21.40
-19.15
-16.17
-12.66
-8.86
-5.01
-1.30
2.11
5.09
7.53
9.33
10.43
10.85
10.69
10.13
9.36
8.54
7.73
6.97
6.23
5.54
4.95
4.52
4.27
4.16
4.07
3.84
3.35
2.52
1.40
0.05
-1.43
-2.94
-4.39
-5.70
-6.85
-7.85
-8.85
-10.01
-11.52
-13.44
-15.70
-18.05
-20.13
-21.55
-22.00
-21.28
-19.35
-16.35
-12.53
-8.18
-3.64
0.83
4.97
8.63
11.69
14.14
16.02
17.37
18.27
18.80
19.00
18.94
18.66
18.19
17.53
16.70
15.75
14.81
13.99
13.37
12.89
12.34
11.46
10.08
8.17
5.87
3.42
1.05
-1.06
-2.88
-4.48
-6.00
-7.63
-9.51
-11.76
-14.37
-17.20
-20.02
-22.55
-24.49
-25.60
-25.66
-24.55
-22.27
-18.94
-14.85
-10.40
-5.98
-1.84
1.92
5.34
8.42
11.14
13.33
14.82
15.52
15.49
14.97
14.31
13.77
13.50
13.46
13.48
13.30
12.70
11.59
10.12
8.74
8.06
8.75
11.18
15.30
20.51
25.81
30.00
32.05
31.30
27.61
21.30
13.06
3.77
-5.70
-14.60
-22.39
-28.83
-33.87
-37.64
-40.27
-41.89
-42.51
-42.06
-40.53
-37.93
-34.42
-30.24
-25.65
-20.84
-15.96
-11.12
-6.48
-2.24
1.40
4.35
6.64
8.48
10.07
11.53
12.85
13.95
14.76
15.29
15.63
15.89
16.10
16.25
16.25
16.02
15.52
14.72
13.63
12.23
10.56
8.67
6.63
4.53
2.37
0.16
-2.14
-4.51
-6.90
-9.30
-11.68
-14.03
-16.30
-18.32
-19.81
-20.46
-20.02
-18.40
-15.71
-12.19
-8.14
-3.84
0.51
4.72
8.66
12.17
15.11
17.38
18.96
19.90
20.32
20.34
20.04
19.42
18.48
17.28
15.96
14.67
13.54
12.58
11.66
10.63
9.37
7.91
6.37
4.87
3.44
2.00
0.41
-1.44
-3.58
-5.95
-8.41
-10.87
-13.20
-15.35
-17.30
-19.08
-20.83
-22.71
-24.83
-27.17
-29.48
-31.35
-32.30
-31.98
-30.29
-27.34
-23.45
-18.98
-14.25
-9.50
-4.90
-0.62
3.17
6.34
8.82
10.63
11.87
12.67
13.17
13.43
13.51
13.46
13.29
13.03
12.70
12.28
11.80
11.30
10.83
10.41
9.98
9.42
8.55
7.26
5.51
3.44
1.25
-0.85
-2.74
-4.40
-5.92
-7.42
-9.01
-10.77
-12.80
-15.13
-17.73
-20.45
-23.00
-25.00
-26.08
-25.98
-24.59
-22.00
-18.42
-14.14
-9.49
-4.77
-0.22
3.96
7.63
10.73
13.19
14.99
16.14
16.74
16.93
16.91
16.80
16.64
16.37
15.92
15.22
14.29
13.22
12.14
11.13
10.24
9.41
8.56
7.56
6.32
4.77
2.94
0.95
-1.03
-2.89
-4.59
-6.24
-8.01
-10.06
-12.47
-15.15
-17.86
-20.29
-22.10
-23.02
-22.85
-21.47
-18.91
-15.30
-10.90
-6.09
-1.22
3.36
7.37
10.67
13.14
14.76
15.57
15.69
15.35
14.81
14.30
13.95
13.77
13.66
13.47
13.08
12.45
11.59
10.56
9.38
8.06
6.58
4.83
2.78
0.42
-2.17
-4.85
-7.50
-10.13
-12.86
-15.83
-19.16
-22.72
-26.15
-28.98
-30.68
-30.90
-29.47
-26.41
-21.89
-16.18
-9.61
-2.59
4.49
11.32
17.78
23.99
30.13
36.31
42.36
47.79
51.85
53.88
53.58
51.25
47.67
43.88
40.75
38.68
37.60
37.10
36.67
35.95
34.80
33.17
31.11
28.64
25.91
23.16
20.70
18.76
17.30
15.85
13.60
9.66
3.42
-5.19
-15.63
-26.93
-38.00
-47.93
-56.12
-62.34
-66.57
-68.90
-69.46
-68.41
-65.92
-62.22
-57.56
-52.20
-46.41
-40.41
-34.38
-28.45
-22.73
-17.33
-12.37
-8.00
-4.35
-1.47
0.73
2.45
3.93
5.36
6.80
8.17
9.33
10.15
10.56
10.57
10.23
9.61
8.78
7.83
6.80
5.71
4.52
3.19
1.71
0.12
-1.50
-3.11
-4.74
-6.54
-8.69
-11.28
-14.19
-17.08
-19.46
-20.84
-20.92
-19.63
-17.09
-13.58
-9.39
-4.76
0.10
4.99
9.73
14.11
17.92
20.99
23.23
24.65
25.35
25.51
25.31
24.94
24.46
23.85
23.02
21.90
20.50
18.90
17.27
15.76
14.47
13.36
12.32
11.14
9.69
7.89
5.77
3.37
0.78
-1.98
-4.89
-7.94
-11.07
-14.20
-17.32
-20.41
-23.49
-26.51
-29.28
-31.49
-32.75
-32.81
-31.58
-29.18
-25.87
-21.88
-17.39
-12.51
-7.37
-2.21
2.67
6.92
10.32
12.78
14.40
15.38
15.90
16.13
16.15
16.03
15.85
15.68
15.58
15.52
15.48
15.37
15.14
14.80
14.40
14.01
13.60
13.11
12.47
11.63
10.63
9.57
8.63
7.95
7.61
7.61
7.87
8.30
8.77
9.20
9.49
9.56
9.38
9.01
8.63
8.59
9.27
10.95
13.71
17.35
21.46
25.61
29.50
33.06
36.37
39.64
43.09
46.95
51.30
56.08
60.91
65.15
67.94
68.48
66.31
61.43
54.32
45.69
36.30
26.78
17.62
9.18
1.70
-4.66
-9.88
-14.07
-17.42
-20.19
-22.62
-25.03
-27.76
-31.08
-35.14
-39.84
-44.90
-49.93
-54.59
-58.72
-62.31
-65.39
-67.84
-69.35
-69.55
-68.09
-64.95
-60.42
-55.09
-49.58
-44.36
-39.67
-35.53
-31.88
-28.72
-26.08
-23.96
-22.30
-20.94
-19.68
-18.39
-17.03
-15.69
-14.43
-13.34
-12.42
-11.67
-11.03
-10.55
-10.27
-10.26
-10.57
-11.19
-12.02
-12.85
-13.49
-13.78
-13.74
-13.53
-13.40
-13.61
-14.31
-15.55
-17.33
-19.58
-22.19
-24.94
-27.48
-29.41
-30.38
-30.19
-28.86
-26.58
-23.57
-20.06
-16.21
-12.17
-8.14
-4.30
-0.81
2.24
4.81
6.88
8.38
9.18
9.20
8.47
7.18
5.66
4.29
3.31
2.81
2.70
2.82
2.98
3.08
3.05
2.89
2.58
2.12
1.47
0.63
-0.38
-1.51
-2.74
-4.10
-5.65
-7.47
-9.51
-11.52
-13.07
-13.62
-12.78
-10.46
-6.95
-2.74
1.62
5.75
9.55
13.04
16.29
19.22
21.64
23.39
24.42
24.88
25.03
25.17
25.44
25.83
26.23
26.50
26.57
26.42
26.13
25.71
25.15
24.36
23.21
21.58
19.39
16.73
13.76
10.69
7.72
4.94
2.29
-0.38
-3.24
-6.43
-9.95
-13.67
-17.36
-20.66
-23.24
-24.78
-25.06
-23.98
-21.58
-18.03
-13.58
-8.54
-3.22
2.08
7.11
11.68
15.65
18.97
21.60
23.59
24.94
25.69
25.87
25.55
24.83
23.81
22.63
21.37
20.10
18.91
17.84
16.92
16.12
15.30
14.25
12.77
10.80
8.46
6.01
3.74
1.85
0.33
-0.95
-2.21
-3.66
-5.46
-7.65
-10.13
-12.54
-14.34
-14.83
-13.46
-10.02
-4.82
1.44
7.90
13.85
18.94
23.13
26.52
29.14
30.90
31.58
31.06
29.39
26.83
23.76
20.55
17.42
14.38
11.34
8.16
4.79
1.29
-2.12
-5.22
-7.84
-9.97
-11.80
-13.60
-15.63
-18.04
-20.80
-23.72
-26.56
-29.06
-31.09
-32.60
-33.62
-34.19
-34.42
-34.43
-34.35
-34.37
-34.59
-35.03
-35.49
-35.61
-34.97
-33.19
-30.05
-25.58
-19.99
-13.64
-6.96
-0.38
5.66
10.83
14.93
17.95
20.08
21.59
22.72
23.62
24.30
24.68
24.65
24.17
23.32
22.19
20.94
19.63
18.29
16.92
15.54
14.24
13.08
12.06
11.04
9.78
8.04
5.72
2.91
-0.13
-3.10
-5.78
-8.11
-10.12
-11.98
-13.83
-15.81
-17.96
-20.27
-22.58
-24.63
-26.08
-26.60
-25.95
-24.02
-20.86
-16.63
-11.64
-6.27
-0.95
3.99
8.33
11.98
14.97
17.39
19.30
20.74
21.76
22.38
22.65
22.56
22.12
21.34
20.28
19.06
17.82
16.71
15.77
14.96
14.17
13.23
12.00
10.37
8.35
6.00
3.47
0.96
-1.33
-3.30
-4.92
-6.32
-7.71
-9.30
-11.22
-13.46
-15.84
-18.05
-19.76
-20.72
-20.77
-19.87
-18.02
-15.24
-11.64
-7.41
-2.93
1.37
5.07
7.91
9.84
10.97
11.53
11.72
11.69
11.52
11.26
10.94
10.62
10.35
10.15
9.99
9.80
9.48
8.96
8.17
7.14
5.91
4.53
3.03
1.45
-0.24
-2.04
-3.96
-5.99
-8.10
-10.25
-12.44
-14.71
-17.17
-19.91
-22.89
-25.86
-28.39
-29.95
-30.14
-28.80
-26.09
-22.31
-17.84
-12.92
-7.77
-2.58
2.41
6.93
10.78
13.92
16.42
18.44
20.03
21.17
21.77
21.81
21.35
20.52
19.49
18.34
17.11
15.81
14.49
13.22
12.05
10.95
9.80
8.41
6.73
4.77
2.72
0.74
-1.06
-2.70
-4.32
-6.10
-8.22
-10.77
-13.76
-17.06
-20.41
-23.51
-25.99
-27.57
-28.05
-27.38
-25.59
-22.81
-19.16
-14.81
-9.94
-4.82
0.28
5.05
9.21
12.56
14.95
16.40
17.01
16.98
16.58
16.02
15.47
14.95
14.47
13.98
13.45
12.91
12.38
11.88
11.44
11.03
10.63
10.16
9.57
8.77
7.76
6.53
5.13
3.60
2.00
0.36
-1.28
-2.92
-4.57
-6.33
-8.25
-10.32
-12.33
-13.97
-14.83
-14.63
-13.34
-11.16
-8.42
-5.43
-2.28
1.10
4.83
8.84
12.77
16.07
18.24
19.24
19.70
20.78
23.78
29.60
38.34
49.18
60.64
70.91
78.20
80.98
78.19
69.49
55.64
38.70
21.73
8.04
-0.02
-1.82
1.31
6.75
11.67
14.09
13.32
9.74
4.22
-2.51
-10.04
-18.12
-26.34
-33.91
-39.78
-42.98
-43.04
-40.16
-35.10
-28.88
-22.34
-15.79
-9.04
-1.60
6.94
16.57
26.80
36.76
45.51
52.36
57.02
59.59
60.50
60.39
60.00
60.03
61.00
63.09
66.08
69.47
72.67
75.26
77.03
78.07
78.72
79.60
81.56
85.54
92.38
102.37
114.96
128.71
141.60
151.52
156.86
156.77
151.19
140.60
125.88
108.21
89.19
70.82
55.33
44.60
39.46
39.09
40.97
41.45
36.85
24.67
4.40
-22.51
-53.30
-84.99
-115.32
-143.19
-168.37
-190.99
-210.91
-227.47
-239.67
-246.61
-247.95
-244.17
-236.38
-225.96
-214.09
-201.55
-188.72
-176.00
-164.12
-154.18
-147.35
-144.28
-144.55
-146.63
-148.26
-147.27
-142.31
-133.25
-120.99
-107.01
-92.63
-78.67
-65.35
-52.49
-39.82
-27.26
-14.93
-3.18
7.59
17.05
25.11
31.91
37.83
43.28
48.54
53.62
58.27
62.17
65.24
67.74
70.33
73.74
78.50
84.69
91.85
99.14
105.60
110.51
113.73
115.84
118.11
122.06
128.78
138.39
149.87
161.43
171.30
178.37
182.38
183.64
182.62
179.71
175.28
169.67
163.03
154.86
143.79
127.91
105.66
76.90
43.25
7.51
-27.73
-61.60
-95.56
-132.75
-175.85
-224.74
-274.89
-317.74
-343.24
-343.54
-316.31
-266.02
-202.56
-137.87
-81.90
-40.15
-13.29
1.36
7.61
8.75
7.05
3.98
0.78
-1.42
-1.85
-0.40
2.21
4.48
4.55
0.90
-7.03
-18.44
-31.22
-42.63
-50.24
-52.89
-51.12
-46.73
-42.03
-38.83
-37.84
-38.61
-39.97
-40.69
-40.06
-38.19
-35.89
-34.21
-33.87
-34.95
-36.84
-38.44
-38.72
-37.10
-33.63
-28.90
-23.82
-19.26
-15.82
-13.75
-12.97
-13.24
-14.35
-16.12
-18.47
-21.31
-24.43
-27.52
-30.21
-32.21
-33.38
-33.72
-33.31
-32.18
-30.34
-27.90
-25.14
-22.47
-20.24
-18.41
-16.48
-13.58
-8.96
-2.38
5.59
13.68
20.44
24.75
26.29
25.57
23.71
21.99
21.43
22.46
24.73
27.07
27.65
24.48
16.14
2.53
-14.84
-33.19
-49.38
-61.07
-67.47
-69.43
-68.76
-67.35
-66.41
-66.26
-66.72
-67.49
-68.45
-69.59
-70.63
-70.93
-69.46
-65.31
-58.07
-48.14
-36.70
-25.20
-14.87
-6.20
1.11
7.89
15.02
23.01
31.71
40.37
47.98
53.68
57.00
58.05
57.39
55.80
53.97
52.30
50.81
49.21
47.05
43.94
39.63
34.10
27.52
20.20
12.51
4.79
-2.72
-9.83
-16.33
-21.90
-26.18
-28.89
-30.15
-30.54
-31.06
-32.71
-35.99
-40.55
-45.23
-48.53
-49.25
-47.05
-42.56
-37.11
-32.21
-29.08
-28.37
-30.08
-33.41
-36.64
-37.20
-32.15
-19.08
2.83
32.18
65.38
97.70
124.57
142.90
151.61
151.49
144.51
133.01
119.20
104.90
91.41
79.61
69.91
62.25
56.29
51.35
46.61
41.05
33.67
23.77
11.31
-2.91
-17.31
-29.94
-39.15
-44.13
-45.08
-42.91
-38.63
-32.87
-25.79
-17.38
-7.94
1.70
10.29
16.68
20.30
21.52
21.37
21.14
21.77
23.55
26.10
28.73
30.76
31.80
31.90
31.32
30.47
29.63
28.87
28.01
26.75
24.83
22.12
18.77
15.11
11.59
8.54
6.16
4.43
3.18
2.23
1.44
0.80
0.32
-0.00
-0.29
-0.79
-1.85
-3.77
-6.75
-10.81
-15.74
-21.14
-26.40
-30.82
-33.64
-34.25
-32.34
-27.99
-21.71
-14.26
-6.52
0.83
7.35
12.87
17.39
20.93
23.50
25.09
25.76
25.62
24.86
23.63
21.97
19.84
17.27
14.44
11.70
9.51
8.19
7.77
7.92
8.14
7.98
7.19
5.80
4.00
1.95
-0.33
-2.92
-5.96
-9.50
-13.42
-17.48
-21.46
-25.24
-28.86
-32.45
-36.04
-39.42
-42.11
-43.46
-42.80
-39.76
-34.35
-27.12
-19.05
-11.32
-4.98
-0.68
1.61
2.50
3.08
4.40
7.12
11.23
16.04
20.54
23.68
24.66
23.12
19.53
15.55
14.04
18.45
31.47
53.55
82.21
112.56
139.09
157.72
167.08
168.38
164.05
156.15
145.43
131.63
114.44
94.41
73.04
52.24
33.38
16.93
2.46
-10.80
-23.39
-35.24
-45.62
-53.51
-58.03
-59.00
-57.18
-54.09
-51.45
-50.40
-50.99
-52.32
-53.06
-52.27
-49.76
-45.98
-41.57
-36.80
-31.52
-25.43
-18.52
-11.29
-4.47
1.33
6.05
10.03
13.66
16.94
19.41
20.49
19.98
18.43
17.08
17.24
19.62
23.78
28.20
30.96
30.76
27.71
23.49
20.66
21.44
26.54
34.68
43.07
48.58
49.05
44.18
35.44
25.25
15.91
8.75
3.89
0.72
-1.52
-3.22
-4.24
-4.27
-3.14
-1.12
1.11
2.73
3.11
2.13
0.22
-1.88
-3.40
-3.94
-3.62
-3.07
-3.11
-4.38
-7.02
-10.66
-14.60
-18.17
-21.05
-23.37
-25.53
-28.03
-31.13
-34.82
-38.84
-42.83
-46.42
-49.30
-51.19
-51.86
-51.16
-49.04
-45.52
-40.79
-35.10
-28.72
-22.01
-15.32
-9.01
-3.36
1.45
5.41
8.62
11.23
13.32
14.95
16.11
16.76
16.88
16.50
15.67
14.49
13.12
11.82
10.85
10.48
10.81
11.69
12.74
13.44
13.36
12.29
10.37
7.96
5.41
2.89
0.23
-2.89
-6.79
-11.56
-16.91
-22.28
-27.01
-30.54
-32.56
-32.94
-31.73
-29.07
-25.17
-20.28
-14.74
-8.89
-3.01
2.65
7.92
12.63
16.61
19.71
21.79
22.80
22.78
21.81
20.02
17.61
14.84
12.03
9.50
7.45
5.84
4.42
2.81
0.73
-1.91
-4.93
-8.03
-10.88
-13.33
-15.40
-17.28
-19.20
-21.41
-24.04
-27.16
-30.69
-34.33
-37.62
-39.96
-40.82
-39.91
-37.27
-33.21
-28.16
-22.50
-16.46
-10.20
-3.88
2.24
7.85
12.67
16.59
19.66
22.05
23.91
25.30
26.17
26.46
26.15
25.35
24.24
23.07
22.05
21.25
20.61
19.97
19.10
17.78
15.93
13.53
10.68
7.51
4.12
0.61
-2.99
-6.62
-10.32
-14.11
-18.02
-21.99
-25.79
-29.04
-31.27
-32.07
-31.24
-28.91
-25.40
-21.15
-16.54
-11.71
-6.78
-1.82
2.95
7.20
10.58
12.96
14.41
15.20
15.67
16.01
16.26
16.31
16.06
15.45
14.55
13.46
12.25
10.95
9.54
8.00
6.34
4.57
2.71
0.76
-1.32
-3.51
-5.79
-8.14
-10.53
-13.01
-15.69
-18.69
-22.13
-26.00
-30.12
-34.15
-37.58
-39.91
-40.76
-39.99
-37.70
-34.15
-29.66
-24.53
-18.97
-13.19
-7.36
-1.70
3.60
8.35
12.41
15.68
18.08
19.58
20.21
20.13
19.58
18.81
18.02
17.26
16.50
15.68
14.79
13.87
12.98
12.13
11.21
10.01
8.31
6.03
3.22
0.12
-2.99
-5.88
-8.51
-10.95
-13.40
-16.01
-18.86
-21.94
-25.18
-28.50
-31.77
-34.76
-37.15
-38.57
-38.64
-37.20
-34.28
-30.06
-24.89
-19.03
-12.77
-6.31
0.09
6.16
11.59
16.14
19.69
22.22
23.86
24.82
25.33
25.56
25.64
25.55
25.18
24.39
23.10
21.37
19.34
17.28
15.36
13.67
12.14
10.59
8.81
6.71
4.32
1.73
-0.91
-3.56
-6.28
-9.16
-12.31
-15.80
-19.60
-23.57
-27.46
-30.97
-33.72
-35.38
-35.63
-34.32
-31.49
-27.34
-22.22
-16.55
-10.70
-4.96
0.48
5.56
10.22
14.42
18.06
21.00
23.15
24.49
25.11
25.20
24.97
24.51
23.86
22.96
21.74
20.22
18.49
16.69
14.92
13.17
11.36
9.40
7.22
4.83
2.29
-0.34
-3.01
-5.70
-8.43
-11.22
-14.09
-17.09
-20.27
-23.70
-27.33
-31.07
-34.66
-37.75
-39.91
-40.75
-39.96
-37.45
-33.30
-27.83
-21.47
-14.70
-7.96
-1.53
4.40
9.76
14.50
18.56
21.84
24.29
25.88
26.68
26.85
26.57
26.06
25.44
24.77
23.99
23.03
21.83
20.38
18.73
16.96
15.18
13.41
11.63
9.78
7.73
5.37
2.67
-0.33
-3.47
-6.61
-9.63
-12.54
-15.48
-18.68
-22.34
-26.56
-31.22
-35.96
-40.29
-43.62
-45.42
-45.30
-43.14
-39.05
-33.41
-26.72
-19.53
-12.31
-5.38
1.11
7.10
12.56
17.39
21.40
24.37
26.12
26.65
26.18
25.12
23.95
23.03
22.50
22.26
22.04
21.61
20.84
19.78
18.54
17.20
15.77
14.15
12.24
9.97
7.36
4.47
1.36
-1.95
-5.43
-9.09
-12.85
-16.68
-20.53
-24.42
-28.41
-32.50
-36.58
-40.33
-43.31
-44.99
-44.94
-42.96
-39.08
-33.59
-26.95
-19.67
-12.18
-4.81
2.20
8.70
14.53
19.54
23.59
26.65
28.79
30.16
30.95
31.32
31.34
31.08
30.57
29.88
29.13
28.39
27.68
26.93
26.03
24.84
23.26
21.26
18.86
16.13
13.22
10.28
7.45
4.79
2.26
-0.31
-3.11
-6.31
-10.03
-14.30
-19.07
-24.12
-29.11
-33.51
-36.74
-38.31
-37.92
-35.59
-31.58
-26.29
-20.16
-13.52
-6.65
0.23
6.86
12.98
18.32
22.69
26.00
28.29
29.69
30.36
30.52
30.31
29.82
29.10
28.16
26.97
25.57
24.02
22.38
20.71
18.94
16.98
14.74
12.16
9.28
6.19
2.96
-0.37
-3.78
-7.27
-10.77
-14.21
-17.58
-20.95
-24.51
-28.43
-32.74
-37.19
-41.27
-44.35
-45.88
-45.54
-43.30
-39.41
-34.17
-27.95
-21.03
-13.66
-6.08
1.40
8.47
14.82
20.17
24.38
27.41
29.33
30.27
30.44
30.02
29.17
28.05
26.76
25.41
24.06
22.79
21.62
20.54
19.45
18.20
16.63
14.59
12.05
9.06
5.74
2.25
-1.29
-4.79
-8.18
-11.45
-14.63
-17.81
-21.13
-24.71
-28.63
-32.83
-37.04
-40.83
-43.63
-44.92
-44.34
-41.79
-37.42
-31.63
-24.84
-17.47
-9.84
-2.22
5.15
11.99
18.00
22.96
26.77
29.45
31.18
32.17
32.63
32.72
32.52
32.03
31.26
30.19
28.89
27.48
26.09
24.76
23.40
21.82
19.76
17.08
13.80
10.11
6.32
2.68
-0.71
-3.93
-7.16
-10.64
-14.51
-18.86
-23.64
-28.72
-33.74
-38.24
-41.60
-43.25
-42.76
-40.03
-35.28
-28.98
-21.71
-14.04
-6.41
0.89
7.62
13.67
18.92
23.29
26.72
29.24
30.88
31.75
31.99
31.77
31.23
30.45
29.49
28.41
27.25
26.06
24.82
23.48
21.88
19.88
17.38
14.40
11.06
7.53
4.00
0.57
-2.71
-5.86
-8.96
-12.11
-15.46
-19.14
-23.31
-28.00
-33.08
-38.23
-42.91
-46.47
-48.34
-48.13
-45.75
-41.44
-35.62
-28.79
-21.31
-13.45
-5.42
2.56
10.16
16.96
22.59
26.84
29.71
31.39
32.22
32.50
32.45
32.14
31.55
30.59
29.25
27.60
25.79
23.97
22.24
20.60
18.91
17.05
14.93
12.52
9.83
6.87
3.64
0.12
-3.61
-7.42
-11.15
-14.70
-18.11
-21.56
-25.31
-29.56
-34.28
-39.18
-43.73
-47.26
-49.13
-48.87
-46.31
-41.59
-35.14
-27.55
-19.49
-11.46
-3.82
3.26
9.68
15.37
20.21
24.09
26.99
28.96
30.20
30.89
31.19
31.13
30.74
30.01
29.02
27.82
26.48
24.99
23.29
21.31
19.04
16.52
13.81
10.99
8.15
5.35
2.62
-0.04
-2.72
-5.54
-8.70
-12.38
-16.65
-21.45
-26.53
-31.48
-35.77
-38.85
-40.25
-39.65
-36.97
-32.37
-26.21
-19.01
-11.30
-3.57
3.81
10.60
16.66
21.88
26.14
29.36
31.51
32.66
33.01
32.75
32.10
31.14
29.92
28.43
26.70
24.81
22.89
21.04
19.32
17.69
16.02
14.14
11.86
9.08
5.80
2.16
-1.62
-5.32
-8.83
-12.16
-15.45
-18.90
-22.67
-26.87
-31.45
-36.20
-40.71
-44.42
-46.71
-47.07
-45.22
-41.18
-35.32
-28.18
-20.35
-12.33
-4.45
3.02
9.92
16.07
21.27
25.36
28.28
30.10
31.08
31.51
31.67
31.64
31.36
30.70
29.55
27.95
26.13
24.34
22.76
21.33
19.82
17.93
15.44
12.31
8.67
4.74
0.74
-3.21
-7.06
-10.81
-14.49
-18.12
-21.77
-25.56
-29.65
-34.16
-39.00
-43.78
-47.91
-50.66
-51.44
-49.94
-46.21
-40.59
-33.62
-25.79
-17.56
-9.25
-1.17
6.43
13.28
19.12
23.82
27.37
29.92
31.74
33.14
34.33
35.38
36.25
36.82
37.08
37.10
37.03
36.96
36.85
36.55
35.85
34.66
33.09
31.43
30.02
29.07
28.55
28.21
27.70
26.76
25.33
23.60
21.82
20.19
18.82
17.72
16.98
16.85
17.71
20.02
24.13
30.29
38.59
49.01
61.32
74.94
88.74
101.02
109.74
113.02
109.64
99.48
83.54
63.64
41.95
20.41
0.43
-17.25
-32.50
-45.57
-56.95
-67.19
-76.76
-85.94
-94.77
-103.12
-110.73
-117.24
-122.25
-125.32
-126.07
-124.30
-120.16
-114.21
-107.31
-100.39
-94.09
-88.67
-84.03
-79.99
-76.49
-73.64
-71.46
-69.69
-67.69
-64.50
-59.29
-51.62
-41.67
-30.15
-17.96
-5.96
5.28
15.42
24.32
31.86
37.90
42.31
45.06
46.32
46.41
45.77
44.80
43.71
42.50
41.02
39.07
36.55
33.49
30.06
26.51
23.04
19.82
16.87
14.15
11.56
9.00
6.40
3.74
1.04
-1.69
-4.50
-7.49
-10.78
-14.51
-18.78
-23.63
-29.01
-34.74
-40.35
-45.16
-48.34
-49.21
-47.40
-43.07
-36.78
-29.30
-21.34
-13.35
-5.54
1.96
9.00
15.34
20.67
24.77
27.60
29.33
30.24
30.59
30.58
30.29
29.72
28.84
27.69
26.36
25.00
23.70
22.46
21.16
19.59
17.52
14.82
11.56
7.95
4.29
0.88
-2.16
-4.92
-7.64
-10.67
-14.32
-18.75
-23.92
-29.54
-35.07
-39.80
-42.99
-44.03
-42.62
-38.81
-33.00
-25.84
-18.04
-10.18
-2.67
4.32
10.72
16.53
21.68
26.08
29.58
32.08
33.63
34.35
34.48
34.21
33.67
32.90
31.90
30.73
29.48
28.27
27.13
25.99
24.64
22.82
20.33
17.12
13.34
9.25
5.15
1.22
-2.45
-5.97
-9.50
-13.18
-17.10
-21.28
-25.69
-30.29
-34.94
-39.35
-43.06
-45.47
-46.05
-44.47
-40.78
-35.27
-28.43
-20.69
-12.41
-3.86
4.64
12.68
19.81
25.67
30.13
33.34
35.63
37.34
38.65
39.55
39.89
39.52
38.43
36.72
34.58
32.20
29.70
27.14
24.56
22.00
19.45
16.89
14.25
11.41
8.30
4.93
1.40
-2.18
-5.69
-9.15
-12.59
-16.11
-19.81
-23.76
-27.98
-32.43
-36.94
-41.18
-44.67
-46.83
-47.17
-45.43
-41.63
-36.12
-29.41
-22.01
-14.34
-6.69
0.68
7.53
13.55
18.45
22.05
24.37
25.67
26.32
26.68
26.93
27.01
26.75
26.01
24.84
23.49
22.29
21.41
20.79
20.13
19.08
17.41
15.15
12.55
9.95
7.55
5.39
3.31
1.09
-1.46
-4.45
-7.95
-12.00
-16.61
-21.66
-26.83
-31.56
-35.15
-36.99
-36.76
-34.54
-30.71
-25.77
-20.12
-13.96
-7.34
-0.32
6.89
13.87
20.13
25.23
28.94
31.33
32.66
33.30
33.52
33.47
33.19
32.60
31.64
30.30
28.67
26.86
24.98
23.06
21.07
18.89
16.38
13.44
10.09
6.46
2.76
-0.81
-4.16
-7.31
-10.42
-13.70
-17.27
-21.21
-25.51
-30.12
-34.91
-39.58
-43.64
-46.44
-47.40
-46.14
-42.67
-37.34
-30.69
-23.29
-15.55
-7.77
-0.17
6.99
13.46
18.98
23.43
26.80
29.20
30.77
31.61
31.84
31.51
30.73
29.60
28.24
26.74
25.21
23.72
22.33
21.04
19.75
18.32
16.53
14.24
11.41
8.16
4.71
1.29
-1.92
-4.93
-7.86
-10.89
-14.18
-17.80
-21.75
-26.00
-30.48
-35.14
-39.78
-44.03
-47.32
-49.04
-48.70
-46.08
-41.36
-35.00
-27.59
-19.71
-11.79
-4.09
3.23
10.02
16.13
21.41
25.70
28.92
31.06
32.19
32.45
32.03
31.13
29.93
28.56
27.12
25.66
24.21
22.77
21.32
19.84
18.30
16.62
14.67
12.33
9.48
6.15
2.45
-1.42
-5.24
-8.87
-12.27
-15.53
-18.74
-22.03
-25.51
-29.25
-33.33
-37.67
-42.07
-46.11
-49.16
-50.63
-50.06
-47.30
-42.55
-36.25
-28.98
-21.26
-13.53
-6.08
0.92
7.37
13.22
18.38
22.76
26.28
28.89
30.63
31.62
32.03
32.06
31.82
31.36
30.70
29.85
28.86
27.79
26.68
25.50
24.14
22.42
20.19
17.34
13.91
10.07
6.07
2.13
-1.55
-4.92
-8.07
-11.17
-14.49
-18.27
-22.66
-27.59
-32.73
-37.52
-41.25
-43.31
-43.29
-41.11
-37.03
-31.51
-25.06
-18.16
-11.16
-4.30
2.22
8.21
13.47
17.82
21.13
23.42
24.78
25.41
25.51
25.27
24.78
24.14
23.37
22.51
21.53
20.46
19.28
17.98
16.58
15.05
13.32
11.30
8.89
6.10
3.02
-0.15
-3.18
-5.92
-8.30
-10.38
-12.26
-14.11
-16.10
-18.43
-21.32
-24.89
-29.13
-33.73
-38.13
-41.60
-43.46
-43.28
-41.00
-36.90
-31.41
-25.04
-18.17
-11.10
-4.06
2.74
9.11
14.92
20.08
24.56
28.30
31.23
33.25
34.35
34.64
34.31
33.59
32.66
31.62
30.47
29.17
27.71
26.13
24.49
22.78
20.97
18.95
16.64
14.03
11.14
8.06
4.85
1.57
-1.81
-5.24
-8.69
-12.08
-15.39
-18.66
-22.05
-25.78
-30.00
-34.65
-39.41
-43.68
-46.74
-47.96
-46.97
-43.76
-38.71
-32.37
-25.36
-18.17
-11.12
-4.41
1.88
7.71
13.03
17.79
21.86
25.08
27.29
28.39
28.43
27.67
26.45
25.16
24.07
23.28
22.74
22.29
21.74
20.94
19.77
18.17
16.15
13.79
11.21
8.56
5.96
3.46
1.03
-1.42
-3.95
-6.59
-9.32
-12.11
-14.97
-17.97
-21.22
-24.82
-28.77
-32.92
-36.90
-40.17
-42.12
-42.23
-40.23
-36.21
-30.52
-23.70
-16.28
-8.68
-1.20
5.92
12.38
17.92
22.26
25.39
27.45
28.78
29.69
30.34
30.69
30.60
29.95
28.80
27.36
25.90
24.63
23.63
22.77
21.82
20.56
18.81
16.52
13.76
10.68
7.46
4.25
1.08
-2.12
-5.48
-9.07
-12.89
-16.82
-20.79
-24.79
-28.91
-33.25
-37.73
-42.00
-45.48
-47.54
-47.74
-45.93
-42.34
-37.35
-31.35
-24.58
-17.21
-9.43
-1.56
5.98
12.69
18.18
22.30
25.17
27.05
28.26
29.07
29.61
29.89
29.85
29.44
28.60
27.35
25.76
23.98
22.11
20.23
18.35
16.40
14.33
12.09
9.69
7.12
4.38
1.44
-1.71
-5.03
-8.45
-11.88
-15.31
-18.79
-22.47
-26.49
-30.94
-35.75
-40.66
-45.23
-48.89
-51.10
-51.42
-49.61
-45.75
-40.13
-33.24
-25.60
-17.71
-10.03
-2.93
3.28
8.34
12.14
14.72
16.29
17.19
17.75
18.25
18.81
19.39
19.89
20.16
20.14
19.77
19.10
18.22
17.25
16.32
15.50
14.79
14.07
13.16
11.88
10.14
7.95
5.41
2.62
-0.32
-3.37
-6.54
-9.87
-13.40
-17.13
-20.98
-24.71
-27.93
-30.12
-30.81
-29.67
-26.64
-21.94
-15.94
-9.12
-1.93
5.22
11.96
18.00
23.11
27.17
30.18
32.23
33.47
34.10
34.30
34.16
33.71
32.84
31.42
29.39
26.84
24.05
21.39
19.11
17.30
15.75
14.12
12.10
9.51
6.39
2.96
-0.56
-4.01
-7.28
-10.41
-13.48
-16.68
-20.24
-24.35
-29.03
-34.04
-38.82
-42.66
-44.84
-44.92
-42.78
-38.62
-32.87
-25.98
-18.37
-10.38
-2.26
5.77
13.51
20.74
27.25
32.88
37.51
41.11
43.82
45.78
47.14
47.92
47.99
47.20
45.44
42.76
39.34
35.39
31.02
26.22
20.86
14.86
8.26
1.28
-5.76
-12.55
-18.88
-24.63
-29.83
-34.53
-38.88
-43.05
-47.28
-51.80
-56.70
-61.85
-66.76
-70.73
-73.00
-72.99
-70.50
-65.71
-59.10
-51.21
-42.54
-33.44
-24.17
-14.97
-6.14
1.95
8.91
14.45
18.49
21.17
22.85
23.94
24.79
25.56
26.19
26.52
26.40
25.81
24.92
23.95
23.09
22.36
21.62
20.66
19.24
17.21
14.58
11.45
8.05
4.59
1.23
-1.96
-5.04
-8.11
-11.35
-14.90
-18.86
-23.20
-27.66
-31.76
-34.84
-36.22
-35.42
-32.34
-27.21
-20.56
-12.98
-4.98
3.04
10.78
17.97
24.34
29.67
33.85
36.91
38.98
40.26
40.92
41.09
40.82
40.10
38.91
37.27
35.27
33.10
30.97
29.05
27.37
25.81
24.14
22.11
19.56
16.50
13.07
9.53
6.15
3.13
0.51
-1.80
-4.10
-6.73
-9.98
-13.91
-18.25
-22.40
-25.57
-26.95
-25.94
-22.30
-16.14
-7.87
1.92
12.58
23.43
33.83
43.20
51.08
57.18
61.41
63.87
64.81
64.61
63.72
62.63
61.86
61.81
62.71
64.45
66.54
68.16
68.43
66.61
62.38
55.87
47.54
37.95
27.60
16.74
5.54
-5.79
-16.86
-27.17
-36.25
-43.89
-50.25
-55.79
-61.05
-66.41
-71.92
-77.34
-82.25
-86.13
-88.54
-89.07
-87.43
-83.47
-77.23
-68.98
-59.20
-48.50
-37.40
-26.36
-15.66
-5.55
3.73
11.89
18.68
23.95
27.70
30.11
31.35
31.62
31.03
29.65
27.62
25.12
22.38
19.58
16.83
14.09
11.19
7.98
4.29
0.15
-4.27
-8.62
-12.41
-15.22
-16.82
-17.26
-16.81
-15.92
-14.99
-14.36
-14.24
-14.79
-16.10
-18.07
-20.40
-22.55
-23.90
-23.95
-22.59
-20.07
-16.99
-13.97
-11.49
-9.76
-8.74
-8.30
-8.29
-8.64
-9.30
-10.20
-11.18
-12.05
-12.65
-12.95
-13.04
-13.05
-13.16
-13.42
-13.82
-14.25
-14.65
-14.96
-15.24
-15.59
-16.15
-17.02
-18.23
-19.71
-21.31
-22.87
-24.31
-25.66
-27.11
-28.91
-31.33
-34.55
-38.56
-43.15
-47.88
-52.17
-55.35
-56.83
-56.23
-53.48
-48.79
-42.58
-35.32
-27.46
-19.34
-11.27
-3.54
3.53
9.62
14.44
17.83
19.81
20.61
20.57
20.11
19.53
18.96
18.35
17.57
16.53
15.28
14.03
13.00
12.30
11.85
11.35
10.49
9.02
6.92
4.35
1.57
-1.17
-3.68
-5.91
-7.90
-9.73
-11.53
-13.46
-15.69
-18.31
-21.29
-24.34
-26.95
-28.46
-28.29
-26.04
-21.63
-15.27
-7.40
1.46
10.79
20.13
29.17
37.73
45.73
53.14
59.85
65.67
70.34
73.64
75.53
76.13
75.73
74.57
72.79
70.35
67.13
63.15
58.57
53.67
48.72
43.91
39.27
34.83
30.75
27.35
25.04
24.16
24.73
26.38
28.43
30.05
30.37
28.67
24.39
17.26
7.41
-4.46
-17.10
-28.90
-38.29
-44.27
-46.57
-45.70
-42.57
-38.08
-32.87
-27.29
-21.58
-16.00
-10.89
-6.53
-3.04
-0.34
1.74
3.28
4.20
4.31
3.48
1.80
-0.43
-2.79
-4.97
-6.86
-8.57
-10.28
-12.17
-14.37
-16.92
-19.85
-23.15
-26.76
-30.48
-34.02
-37.10
-39.57
-41.50
-43.15
-44.91
-47.16
-50.13
-53.88
-58.22
-62.64
-66.40
-68.66
-68.69
-66.14
-61.19
-54.38
-46.44
-37.97
-29.25
-20.33
-11.26
-2.22
6.41
14.12
20.51
25.43
28.94
31.27
32.68
33.40
33.64
33.51
33.13
32.56
31.83
30.92
29.80
28.41
26.76
24.84
22.71
20.44
18.03
15.50
12.76
9.79
6.58
3.19
-0.28
-3.80
-7.42
-11.31
-15.70
-20.74
-26.42
-32.42
-38.21
-43.06
-46.31
-47.46
-46.30
-42.89
-37.49
-30.48
-22.28
-13.27
-3.89
5.47
14.41
22.55
29.64
35.52
40.10
43.37
45.41
46.36
46.48
46.04
45.28
44.34
43.20
41.78
40.00
37.82
35.35
32.71
29.98
27.15
24.07
20.61
16.70
12.43
7.96
3.50
-0.85
-5.06
-9.19
-13.27
-17.33
-21.46
-25.80
-30.58
-35.95
-41.81
-47.62
-52.54
-55.64
-56.25
-54.21
-49.89
-43.95
-37.06
-29.68
-22.01
-14.15
-6.25
1.37
8.28
14.05
18.44
21.42
23.20
24.07
24.34
24.22
23.84
23.30
22.66
21.97
21.31
20.74
20.33
20.08
19.92
19.68
19.10
17.95
16.08
13.49
10.35
6.97
3.66
0.65
-1.95
-4.18
-6.14
-8.00
-9.95
-12.20
-14.95
-18.22
-21.79
-25.16
-27.64
-28.56
-27.48
-24.33
-19.39
-13.14
-6.16
1.05
8.11
14.73
20.69
25.81
29.98
33.23
35.77
37.96
40.19
42.78
45.81
49.15
52.50
55.47
57.77
59.23
59.73
59.20
57.53
54.60
50.36
44.92
38.56
31.67
24.70
18.03
11.90
6.36
1.39
-3.14
-7.35
-11.29
-15.06
-18.77
-22.62
-26.74
-31.08
-35.35
-38.98
-41.30
-41.81
-40.32
-37.05
-32.43
-26.90
-20.79
-14.26
-7.42
-0.50
6.13
12.00
16.71
20.09
22.24
23.43
23.95
23.95
23.47
22.48
21.02
19.23
17.29
15.42
13.70
12.12
10.59
8.98
7.24
5.34
3.27
0.99
-1.52
-4.31
-7.40
-10.76
-14.33
-18.03
-21.83
-25.69
-29.71
-34.01
-38.76
-44.02
-49.59
-54.95
-59.36
-62.00
-62.26
-59.94
-55.29
-48.88
-41.33
-33.17
-24.70
-16.07
-7.43
0.98
8.83
15.78
21.59
26.15
29.49
31.72
32.97
33.38
33.13
32.39
31.33
30.10
28.77
27.42
26.06
24.72
23.42
22.16
20.87
19.42
17.66
15.45
12.68
9.37
5.66
1.76
-2.09
-5.75
-9.25
-12.81
-16.75
-21.36
-26.67
-32.34
-37.71
-41.98
-44.45
-44.74
-42.85
-39.07
-33.83
-27.48
-20.30
-12.46
-4.18
4.22
12.31
19.66
25.92
30.87
34.51
36.98
38.47
39.20
39.32
38.92
38.03
36.68
34.97
33.05
31.09
29.23
27.48
25.66
23.48
20.61
16.91
12.44
7.53
2.62
-1.95
-6.03
-9.73
-13.34
-17.19
-21.54
-26.55
-32.27
-38.56
-45.07
-51.22
-56.27
-59.46
-60.28
-58.62
-54.75
-49.17
-42.43
-34.94
-26.97
-18.71
-10.42
-2.41
4.96
11.40
16.73
20.92
24.05
26.22
27.53
28.11
28.09
27.64
26.96
26.21
25.47
24.73
23.93
22.93
21.63
19.96
17.87
15.39
12.59
9.55
6.39
3.21
0.13
-2.84
-5.75
-8.77
-12.08
-15.91
-20.39
-25.55
-31.25
-37.10
-42.59
-47.07
-49.93
-50.75
-49.36
-45.88
-40.62
-33.98
-26.34
-18.07
-9.46
-0.84
7.44
15.04
21.65
27.08
31.25
34.09
35.64
35.96
35.25
33.80
31.96
30.01
28.15
26.35
24.55
22.63
20.64
18.71
16.98
15.46
14.01
12.34
10.21
7.51
4.34
0.94
-2.46
-5.74
-8.89
-11.99
-15.20
-18.67
-22.53
-26.89
-31.68
-36.67
-41.34
-45.03
-47.05
-46.88
-44.32
-39.53
-32.87
-24.86
-16.01
-6.80
2.30
10.89
18.63
25.30
30.78
35.05
38.19
40.27
41.40
41.71
41.34
40.45
39.19
37.69
36.06
34.38
32.72
31.10
29.46
27.61
25.35
22.51
19.06
15.15
11.07
7.04
3.23
-0.39
-4.00
-7.80
-11.96
-16.56
-21.63
-27.04
-32.58
-37.91
-42.50
-45.80
-47.31
-46.69
-43.87
-39.03
-32.50
-24.73
-16.21
-7.43
1.13
9.05
15.96
21.62
25.94
28.98
30.89
31.93
32.39
32.47
32.31
31.86
31.00
29.59
27.62
25.19
22.53
19.89
17.44
15.21
13.12
11.00
8.65
5.94
2.77
-0.82
-4.72
-8.74
-12.68
-16.42
-19.94
-23.38
-26.96
-30.95
-35.46
-40.43
-45.44
-49.86
-52.88
-53.83
-52.29
-48.27
-42.12
-34.39
-25.71
-16.65
-7.65
0.90
8.69
15.49
21.22
25.88
29.60
32.49
34.68
36.22
37.12
37.36
36.90
35.75
33.99
31.78
29.37
27.04
24.92
23.04
21.24
19.32
17.10
14.48
11.47
8.12
4.50
0.69
-3.20
-7.06
-10.83
-14.51
-18.22
-22.15
-26.49
-31.32
-36.56
-41.91
-46.89
-50.90
-53.37
-53.87
-52.18
-48.38
-42.75
-35.71
-27.72
-19.18
-10.48
-1.99
5.93
12.92
18.76
23.35
26.76
29.14
30.69
31.55
31.80
31.53
30.78
29.68
28.32
26.79
25.13
23.34
21.40
19.35
17.25
15.12
12.92
10.54
7.85
4.79
1.42
-2.08
-5.53
-8.77
-11.82
-14.79
-17.90
-21.34
-25.25
-29.65
-34.39
-39.20
-43.63
-47.13
-49.14
-49.18
-46.97
-42.57
-36.35
-28.88
-20.78
-12.54
-4.45
3.38
10.89
17.89
24.11
29.23
33.08
35.68
37.23
38.01
38.21
37.87
36.99
35.57
33.76
31.80
29.94
28.31
26.85
25.35
23.56
21.25
18.31
14.82
10.95
6.93
2.98
-0.79
-4.40
-8.00
-11.81
-16.07
-20.92
-26.35
-32.15
-37.86
-42.92
-46.67
-48.61
-48.44
-46.20
-42.17
-36.82
-30.64
-24.05
-17.30
-10.52
-3.78
2.85
9.21
15.08
20.19
24.36
27.54
29.82
31.40
32.49
33.19
33.55
33.52
33.09
32.32
31.33
30.26
29.16
27.98
26.58
24.79
22.51
19.76
16.60
13.14
9.42
5.44
1.21
-3.24
-7.82
-12.43
-17.00
-21.64
-26.52
-31.80
-37.42
-43.06
-48.13
-51.93
-53.87
-53.64
-51.19
-46.76
-40.68
-33.31
-25.07
-16.33
-7.51
0.99
8.86
15.82
21.72
26.43
29.93
32.29
33.68
34.32
34.44
34.23
33.75
32.98
31.90
30.49
28.75
26.76
24.58
22.25
19.79
17.21
14.47
11.55
8.41
5.06
1.48
-2.28
-6.18
-10.18
-14.24
-18.35
-22.53
-26.86
-31.41
-36.23
-41.21
-46.03
-50.16
-52.99
-53.97
-52.82
-49.56
-44.52
-38.14
-30.86
-23.04
-14.91
-6.72
1.23
8.59
14.98
20.20
24.26
27.37
29.85
31.91
33.54
34.50
34.49
33.31
31.06
28.11
25.02
22.27
20.12
18.52
17.15
15.63
13.59
10.88
7.55
3.83
0.02
-3.61
-6.91
-9.85
-12.51
-15.03
-17.59
-20.46
-23.83
-27.84
-32.32
-36.79
-40.47
-42.54
-42.35
-39.65
-34.70
-28.04
-20.40
-12.38
-4.41
3.27
10.51
17.16
23.00
27.82
31.42
33.74
34.90
35.12
34.69
33.88
32.81
31.55
30.13
28.55
26.90
25.24
23.60
21.93
20.09
17.90
15.24
12.08
8.50
4.71
0.93
-2.71
-6.15
-9.49
-12.90
-16.59
-20.74
-25.41
-30.55
-35.88
-40.97
-45.28
-48.22
-49.34
-48.36
-45.31
-40.42
-34.09
-26.77
-18.88
-10.75
-2.69
5.05
12.20
18.53
23.84
28.04
31.13
33.22
34.48
35.07
35.12
34.70
33.86
32.66
31.15
29.43
27.61
25.77
23.90
21.94
19.77
17.29
14.46
11.28
7.81
4.14
0.34
-3.55
-7.49
-11.46
-15.44
-19.47
-23.65
-28.11
-32.93
-37.95
-42.76
-46.70
-49.06
-49.28
-47.12
-42.70
-36.43
-28.84
-20.48
-11.78
-3.13
5.13
12.69
19.28
24.71
28.90
31.86
33.69
34.57
34.66
34.12
33.08
31.62
29.79
27.67
25.37
23.05
20.86
18.83
16.88
14.80
12.29
9.15
5.37
1.08
-3.44
-7.91
-12.15
-16.15
-20.00
-23.86
-27.83
-32.05
-36.64
-41.74
-47.40
-53.41
-59.24
-64.03
-66.88
-67.12
-64.59
-59.65
-53.01
-45.38
-37.24
-28.77
-20.06
-11.28
-2.81
4.80
11.03
15.65
18.73
20.67
21.98
23.12
24.42
25.97
27.71
29.50
31.18
32.61
33.68
34.28
34.33
33.78
32.63
30.92
28.79
26.42
23.97
21.56
19.23
16.96
14.68
12.29
9.67
6.69
3.25
-0.72
-5.15
-9.87
-14.55
-18.75
-22.04
-24.02
-24.45
-23.23
-20.43
-16.23
-10.87
-4.68
2.00
8.77
15.26
21.09
26.01
29.86
32.63
34.43
35.44
35.90
36.01
35.88
35.51
34.87
33.93
32.73
31.36
29.91
28.40
26.75
24.76
22.25
19.09
15.31
11.05
6.55
2.03
-2.38
-6.64
-10.81
-14.98
-19.28
-23.82
-28.71
-33.91
-39.28
-44.43
-48.81
-51.77
-52.72
-51.30
-47.49
-41.58
-34.05
-25.49
-16.47
-7.45
1.19
9.14
16.21
22.20
27.06
30.75
33.35
34.98
35.80
35.94
35.49
34.51
33.03
31.12
28.89
26.48
24.02
21.58
19.14
16.64
13.98
11.15
8.19
5.15
2.10
-0.94
-4.01
-7.12
-10.34
-13.69
-17.20
-20.95
-25.02
-29.46
-34.26
-39.21
-43.90
-47.79
-50.29
-50.91
-49.40
-45.78
-40.31
-33.39
-25.47
-16.97
-8.25
0.37
8.52
15.88
22.15
27.13
30.82
33.33
34.88
35.67
35.85
35.49
34.60
33.25
31.49
29.47
27.33
25.18
23.10
21.05
18.97
16.75
14.30
11.57
8.52
5.17
1.55
-2.31
-6.33
-10.46
-14.57
-18.60
-22.49
-26.39
-30.50
-35.09
-40.26
-45.77
-50.99
-55.07
-57.17
-56.79
-53.88
-48.82
-42.19
-34.58
-26.41
-17.99
-9.61
-1.57
5.79
12.18
17.46
21.64
24.86
27.31
29.17
30.54
31.50
32.06
32.23
32.02
31.45
30.57
29.47
28.24
26.98
25.67
24.21
22.43
20.14
17.28
13.91
10.26
6.61
3.18
0.01
-3.04
-6.23
-9.85
-14.07
-18.92
-24.25
-29.70
-34.81
-38.96
-41.56
-42.13
-40.45
-36.62
-31.01
-24.16
-16.63
-8.87
-1.21
6.09
12.81
18.69
23.52
27.17
29.65
31.14
31.86
31.99
31.62
30.77
29.42
27.62
25.51
23.28
21.08
19.02
17.07
15.11
12.94
10.38
7.33
3.80
-0.07
-4.09
-8.03
-11.76
-15.26
-18.61
-21.98
-25.55
-29.53
-34.03
-39.13
-44.72
-50.42
-55.64
-59.58
-61.49
-60.87
-57.55
-51.73
-43.88
-34.60
-24.54
-14.30
-4.37
4.84
13.11
20.37
26.67
32.10
36.67
40.33
42.95
44.45
44.82
44.21
42.88
41.12
39.22
37.36
35.62
33.96
32.22
30.24
27.81
24.84
21.30
17.29
12.94
8.46
3.98
-0.36
-4.51
-8.48
-12.37
-16.34
-20.62
-25.43
-30.89
-36.87
-42.90
-48.25
-52.11
-53.80
-53.02
-49.91
-44.89
-38.51
-31.25
-23.42
-15.23
-6.92
1.17
8.63
15.06
20.19
23.95
26.46
27.92
28.56
28.58
28.13
27.37
26.41
25.37
24.34
23.38
22.49
21.56
20.43
18.92
16.88
14.28
11.23
7.93
4.57
1.31
-1.83
-4.92
-8.04
-11.25
-14.56
-17.97
-21.51
-25.30
-29.49
-34.13
-39.06
-43.85
-47.84
-50.34
-50.81
-49.04
-45.12
-39.41
-32.35
-24.35
-15.81
-7.09
1.36
9.08
15.66
20.86
24.67
27.31
29.09
30.29
31.05
31.40
31.28
30.68
29.66
28.36
26.97
25.66
24.55
23.61
22.70
21.54
19.86
17.46
14.35
10.74
6.99
3.41
0.14
-2.90
-5.98
-9.41
-13.44
-18.14
-23.43
-29.01
-34.43
-39.11
-42.40
-43.74
-42.82
-39.66
-34.55
-27.96
-20.40
-12.32
-4.08
3.99
11.61
18.49
24.42
29.22
32.79
35.11
36.26
36.39
35.73
34.52
33.01
31.40
29.84
28.41
27.15
26.02
24.85
23.42
21.45
18.75
15.28
11.21
6.86
2.57
-1.39
-4.95
-8.22
-11.47
-15.00
-19.05
-23.76
-29.07
-34.71
-40.23
-44.98
-48.28
-49.54
-48.41
-44.89
-39.31
-32.22
-24.23
-15.81
-7.33
0.98
8.85
15.99
22.06
26.82
30.17
32.20
33.13
33.27
32.83
31.94
30.66
29.02
27.14
25.17
23.31
21.68
20.29
18.96
17.38
15.26
12.40
8.79
4.68
0.38
-3.75
-7.53
-10.92
-14.11
