1587319047.00
64.000000
-0.00
-0.00
-0.00
-0.00
-0.00
-0.00
-0.00
-0.00
-0.00
-0.00
0.00
0.01
0.01
-0.00
-0.03
-0.05
-0.05
0.00
0.13
0.36
0.66
1.01
1.37
1.72
2.06
2.40
2.79
3.24
3.80
4.42
5.06
5.66
6.20
6.68
7.15
7.68
8.31
9.14
10.09
11.04
11.88
12.56
13.14
13.76
14.65
15.96
17.91
20.32
22.90
25.38
27.58
29.57
31.68
34.32
37.81
42.54
48.15
54.10
59.83
64.97
69.58
74.14
79.34
85.71
93.76
103.00
112.62
121.73
129.77
136.75
143.30
150.75
157.77
166.64
177.95
191.79
206.97
220.57
228.25
225.36
208.53
176.87
132.76
80.05
23.07
-34.94
-92.44
-149.16
-205.23
-260.37
-313.74
-363.87
-409.83
-450.91
-486.50
-515.74
-537.23
-549.22
-549.96
-538.37
-514.21
-478.67
-433.88
-382.45
-327.02
-269.84
-212.63
-156.66
-102.95
-52.37
-5.90
35.58
71.43
101.35
125.50
144.38
158.69
169.15
176.37
180.75
182.57
182.07
179.51
175.23
169.65
163.18
156.15
148.81
141.30
133.69
126.02
118.33
110.69
103.16
95.80
88.68
81.83
75.25
68.95
62.95
57.25
51.86
46.78
42.03
37.59
33.45
29.61
26.07
22.81
19.83
17.11
14.67
12.48
10.54
8.83
7.35
6.07
4.97
4.05
3.27
2.62
2.09
1.65
1.30
1.01
0.79
0.61
0.47
0.37
0.29
0.23
0.18
0.16
0.14
0.13
0.14
0.15
0.17
0.19
0.23
0.26
0.30
0.34
0.38
0.43
0.48
0.52
0.57
0.63
0.68
0.74
0.80
0.86
0.94
1.02
1.11
1.21
1.32
1.45
1.59
1.75
1.93
2.13
2.35
2.60
2.86
3.17
3.49
3.85
4.24
4.67
5.13
5.63
6.16
6.74
7.35
8.01
8.71
9.46
10.25
11.09
11.96
12.88
13.86
14.90
16.00
17.16
18.37
19.64
20.90
22.11
23.20
24.06
24.58
24.62
24.11
22.92
21.01
18.38
15.09
11.19
6.89
2.37
-2.16
-6.46
-10.34
-13.62
-16.21
-18.06
-19.19
-19.63
-19.47
-18.81
-17.73
-16.35
-14.79
-13.14
-11.51
-9.96
-8.49
-7.13
-5.84
-4.57
-3.27
-1.92
-0.56
0.78
2.08
3.42
4.74
6.13
7.69
9.47
11.47
13.55
15.56
17.41
19.19
20.83
22.48
24.39
26.71
29.38
32.11
34.54
36.40
37.81
38.62
39.19
39.98
41.26
42.96
44.61
45.58
45.37
44.05
41.45
37.96
34.07
29.95
25.15
18.56
8.45
-7.62
-27.67
-51.59
-79.05
-108.87
-138.74
-165.28
-184.91
-194.93
-194.62
-185.33
-170.61
-153.99
-137.85
-122.96
-108.81
-94.52
-79.69
-64.66
-50.18
-37.40
-26.68
-17.63
-9.51
-1.69
5.97
13.01
18.67
22.42
24.04
24.09
23.63
23.69
24.79
26.81
29.18
31.22
32.55
32.97
32.62
31.76
30.53
28.83
26.49
23.28
19.26
14.86
10.76
7.69
6.09
5.82
6.11
5.93
4.37
1.08
-3.66
-9.18
-14.78
-20.12
-25.30
-30.66
-36.53
-42.87
-49.17
-54.61
-58.29
-59.65
-58.55
-55.34
-50.52
-44.52
-37.55
-29.66
-21.02
-12.09
-3.61
3.65
9.33
13.62
17.18
20.72
24.72
29.22
33.95
38.53
42.62
45.96
48.19
49.00
48.13
45.72
42.35
39.04
36.82
36.40
37.80
40.41
43.25
45.35
46.19
45.73
44.52
43.41
43.27
44.71
47.90
52.60
58.33
64.63
71.15
77.65
83.78
89.03
92.74
94.42
94.00
92.04
89.59
87.75
87.15
87.54
87.68
85.72
79.65
68.06
50.56
28.10
2.75
-22.77
-45.87
-64.77
-78.80
-88.33
-94.26
-97.53
-98.80
-98.38
-96.45
-93.30
-89.39
-85.22
-81.24
-77.65
-74.45
-71.52
-68.72
-65.92
-63.02
-59.94
-56.69
-53.34
-49.98
-46.61
-43.03
-38.82
-33.39
-26.17
-16.79
-5.26
7.96
22.07
36.02
48.73
59.25
66.96
71.63
73.42
72.78
70.37
66.87
62.95
59.12
55.65
52.62
49.88
47.20
44.32
41.10
37.44
33.40
29.06
24.57
20.10
15.84
11.91
8.32
4.90
1.33
-2.72
-7.30
-12.11
-16.52
-19.74
-21.21
-20.75
-18.62
-15.28
-11.28
-6.99
-2.64
1.56
5.45
8.82
11.50
13.45
14.67
15.20
15.01
14.09
12.50
10.47
8.39
6.71
5.77
5.65
6.13
6.81
7.25
7.14
6.43
5.26
3.85
2.33
0.68
-1.27
-3.68
-6.58
-9.78
-13.01
-16.08
-19.05
-22.22
-25.93
-30.33
-35.10
-39.54
-42.78
-44.07
-43.19
-40.44
-36.61
-32.61
-29.14
-26.39
-24.07
-21.54
-18.30
-14.25
-9.82
-5.73
-2.71
-1.06
-0.65
-1.03
-1.78
-2.71
-3.94
-5.68
-8.03
-10.80
-13.67
-16.33
-18.69
-20.94
-23.43
-26.44
-29.99
-33.80
-37.43
-40.44
-42.61
-44.05
-45.13
-46.34
-48.16
-50.86
-54.46
-58.80
-63.45
-67.85
-71.28
-73.03
-72.53
-69.52
-64.15
-56.95
-48.64
-39.97
-31.57
-23.86
-17.07
-11.28
-6.45
-2.43
0.95
3.88
6.46
8.72
10.62
12.10
13.13
13.69
13.76
13.31
12.32
10.89
9.20
7.48
5.89
4.42
2.88
1.00
-1.39
-4.28
-7.49
-10.75
-13.73
-16.16
-17.80
-18.45
-18.13
-17.06
-15.68
-14.47
-13.74
-13.39
-12.90
-11.55
-8.67
-3.95
2.46
10.06
18.21
26.41
34.44
42.31
50.20
58.37
67.02
76.26
85.97
95.84
105.32
113.63
119.82
122.88
121.95
116.56
106.84
93.55
77.92
61.35
45.02
29.61
15.37
2.28
-9.67
-20.20
-28.87
-35.33
-39.72
-42.77
-45.60
-49.20
-53.92
-59.21
-63.93
-66.88
-67.40
-65.46
-61.36
-55.24
-46.82
-35.62
-21.52
-5.35
11.19
25.88
36.73
42.59
43.21
39.02
30.74
19.31
5.81
-8.37
-21.71
-32.91
-41.30
-46.95
-50.38
-52.12
-52.17
-50.08
-45.21
-37.38
-27.17
-16.02
-5.81
1.83
6.07
7.31
6.86
6.51
7.73
11.11
16.23
21.90
26.74
29.75
30.66
29.90
28.26
26.54
25.17
24.27
23.76
23.63
24.06
25.34
27.67
30.88
34.43
37.53
39.50
40.09
39.52
38.34
37.09
35.99
34.92
33.56
31.66
29.22
26.51
23.90
21.68
20.00
18.86
18.20
17.89
17.70
17.36
16.54
15.00
12.75
10.09
7.49
5.36
3.84
2.69
1.41
-0.62
-3.83
-8.22
-13.37
-18.46
-22.60
-25.06
-25.57
-24.36
-22.00
-19.16
-16.35
-13.73
-11.19
-8.51
-5.60
-2.64
-0.01
1.89
2.85
2.96
2.49
1.79
1.09
0.43
-0.31
-1.29
-2.57
-4.04
-5.48
-6.63
-7.36
-7.70
-7.85
-8.00
-8.17
-8.19
-7.68
-6.33
-4.17
-1.70
0.19
0.66
-0.74
-3.72
-7.45
-10.91
-13.44
-15.06
-16.31
-17.76
-19.55
-21.30
-22.15
-21.26
-18.36
-14.01
-9.47
-6.24
-5.17
-6.37
-9.27
-13.00
-16.69
-19.70
-21.66
-22.33
-21.70
-20.07
-18.82
-20.44
-27.65
-41.87
-61.85
-83.44
-100.98
-109.44
-105.54
-89.74
-65.58
-37.55
-8.91
19.33
47.41
75.37
102.35
128.69
154.37
179.01
202.08
223.31
242.80
260.69
277.01
292.02
309.06
329.94
353.30
374.88
389.69
394.38
388.09
371.98
348.76
325.33
306.49
293.24
283.59
274.92
266.26
258.33
252.41
225.13
166.17
82.24
-6.72
-82.45
-137.89
-174.31
-195.71
-206.68
-210.68
-208.63
-202.46
-196.04
-193.58
-199.27
-215.02
-240.59
-277.07
-321.68
-361.59
-386.22
-390.92
-377.49
-353.47
-325.78
-297.03
-268.84
-242.39
-216.80
-192.10
-175.26
-163.99
-157.48
-154.89
-153.01
-151.13
-150.80
-153.91
-164.09
-185.75
-222.02
-269.13
-321.59
-368.18
-399.55
-410.86
-402.02
-378.56
-349.09
-309.45
-263.74
-231.41
-212.66
-199.00
-186.58
-173.74
-160.10
-145.22
-127.61
-107.94
-87.01
-63.36
-38.49
-15.99
1.36
12.13
16.45
15.96
11.24
3.24
-5.03
-12.72
-20.57
-29.00
-37.87
-46.51
-53.80
-59.64
-63.93
-65.47
-64.45
-62.10
-59.45
-57.18
-55.62
-54.74
-54.76
-55.53
-56.16
-56.21
-55.69
-54.61
-52.98
-50.80
-47.95
-44.26
-39.17
-31.64
-20.80
-6.18
12.22
33.86
57.77
82.88
108.38
134.02
160.04
186.90
214.94
243.93
273.14
301.51
328.12
352.50
374.87
395.94
416.76
438.69
463.26
491.94
525.25
561.75
597.44
626.17
641.39
638.45
616.51
578.91
531.83
482.01
434.53
391.88
354.16
320.25
288.79
258.69
229.07
199.28
168.95
138.59
109.90
85.68
69.03
62.30
66.01
78.40
95.92
114.32
130.05
141.29
148.07
151.60
153.05
152.53
148.81
140.09
125.12
104.11
78.80
51.57
24.06
-3.74
-33.65
-68.62
-111.73
-165.13
-229.16
-301.66
-377.53
-449.16
-507.81
-545.97
-559.72
-550.10
-522.54
-484.59
-443.22
-402.73
-364.56
-328.28
-293.12
-258.70
-224.91
-191.30
-156.91
-120.88
-83.44
-46.47
-13.11
13.32
30.86
39.69
42.01
40.92
39.14
38.07
37.68
37.03
35.07
31.21
25.49
18.40
10.66
3.01
-3.88
-9.50
-13.66
-16.48
-18.42
-20.06
-21.83
-23.78
-25.49
-26.35
-25.83
-23.78
-20.51
-16.66
-12.87
-9.56
-6.76
-4.27
-1.78
0.93
3.94
7.15
10.39
13.53
16.51
19.26
21.71
23.78
25.31
26.23
26.59
26.54
26.36
26.31
26.52
26.95
27.39
27.58
27.31
26.55
25.44
24.22
23.26
22.87
23.31
24.76
27.22
30.57
34.54
38.81
43.14
47.46
51.84
56.53
61.84
68.08
75.57
84.64
95.52
108.32
122.90
138.79
155.24
171.35
186.29
199.43
210.49
219.56
227.13
233.94
240.57
246.99
252.06
253.53
248.57
234.87
211.62
180.10
143.33
105.03
68.33
34.94
4.96
-22.55
-48.89
-75.19
-102.12
-129.81
-157.71
-184.41
-207.70
-225.11
-234.76
-236.22
-230.86
-221.33
-210.44
-199.88
-189.79
-179.03
-166.34
-151.40
-135.29
-119.98
-107.41
-98.54
-93.10
-89.98
-87.92
-86.14
-84.52
-83.25
-82.39
-81.61
-80.20
-77.36
-72.64
-66.12
-58.41
-50.45
-43.21
-37.29
-32.86
-29.60
-26.94
-24.44
-21.96
-19.81
-18.49
-18.49
-19.93
-22.50
-25.54
-28.29
-30.12
-30.71
-30.14
-28.75
-27.03
-25.48
-24.53
-24.48
-25.50
-27.52
-30.18
-32.90
-34.93
-35.58
-34.46
-31.53
-27.18
-22.06
-16.95
-12.51
-9.20
-7.21
-6.43
-6.51
-6.96
-7.30
-7.19
-6.59
-5.70
-4.89
-4.50
-4.68
-5.36
-6.32
-7.33
-8.23
-8.96
-9.52
-9.90
-10.13
-10.28
-10.48
-10.89
-11.63
-12.62
-13.69
-14.56
-15.10
-15.31
-15.34
-15.37
-15.53
-15.91
-16.59
-17.72
-19.34
-21.31
-23.20
-24.33
-24.11
-22.26
-19.05
-15.11
-11.20
-7.81
-5.13
-3.03
-1.31
0.17
1.42
2.44
3.27
4.00
4.72
5.46
6.13
6.64
6.92
6.97
6.79
6.40
5.76
4.91
3.99
3.23
2.87
2.95
3.29
3.48
3.08
1.85
-0.11
-2.41
-4.58
-6.28
-7.48
-8.39
-9.28
-10.33
-11.57
-12.90
-14.31
-15.90
-17.74
-19.73
-21.43
-22.19
-21.39
-18.79
-14.72
-9.99
-5.52
-1.94
0.55
2.22
3.50
4.71
5.96
7.11
7.95
8.33
8.23
7.79
7.22
6.75
6.52
6.58
6.79
6.96
6.87
6.46
5.87
5.34
5.10
5.17
5.33
5.20
4.49
3.08
1.15
-0.94
-2.80
-4.16
-4.95
-5.30
-5.50
-5.89
-6.78
-8.35
-10.58
-13.28
-16.14
-18.71
-20.51
-21.08
-20.10
-17.53
-13.74
-9.42
-5.35
-2.12
0.07
1.45
2.47
3.51
4.69
5.86
6.80
7.39
7.69
7.90
8.13
8.44
8.72
8.89
8.88
8.70
8.38
7.95
7.44
6.88
6.34
5.89
5.56
5.26
4.85
4.17
3.10
1.71
0.19
-1.24
-2.41
-3.29
-3.96
-4.61
-5.39
-6.43
-7.81
-9.57
-11.74
-14.26
-16.91
-19.28
-20.79
-20.90
-19.33
-16.17
-11.95
-7.41
-3.25
0.09
2.56
4.38
5.81
7.08
8.26
9.29
10.10
10.67
11.01
11.21
11.29
11.25
10.98
10.38
9.36
7.97
6.41
4.97
3.94
3.43
3.32
3.32
3.12
2.58
1.72
0.72
-0.27
-1.23
-2.23
-3.42
-4.86
-6.52
-8.29
-10.07
-11.84
-13.61
-15.41
-17.26
-19.07
-20.66
-21.77
-22.04
-21.21
-19.17
-16.10
-12.39
-8.55
-4.99
-1.89
0.81
3.26
5.53
7.60
9.33
10.60
11.41
11.89
12.18
12.36
12.46
12.41
12.18
11.78
11.31
10.83
10.39
10.00
9.59
9.15
8.60
7.89
6.93
5.64
4.02
2.19
0.35
-1.31
-2.68
-3.79
-4.83
-6.05
-7.67
-9.84
-12.61
-15.88
-19.44
-22.90
-25.73
-27.39
-27.46
-25.81
-22.74
-18.83
-14.75
-11.03
-7.91
-5.32
-3.08
-1.03
0.86
2.52
3.89
5.01
6.07
7.27
8.75
10.49
12.33
14.05
15.46
16.49
17.21
17.78
18.36
19.03
19.75
20.35
20.58
20.21
19.18
17.59
15.66
13.63
11.64
9.61
7.32
4.56
1.19
-2.73
-7.05
-11.62
-16.28
-20.88
-25.13
-28.56
-30.58
-30.70
-28.75
-25.02
-20.21
-15.15
-10.49
-6.55
-3.26
-0.43
2.16
4.55
6.68
8.44
9.80
10.84
11.69
12.44
13.17
13.87
14.48
14.92
15.11
15.02
14.70
14.27
13.92
13.73
13.67
13.56
13.18
12.36
11.07
9.44
7.62
5.75
3.83
1.80
-0.38
-2.74
-5.25
-7.96
-10.93
-14.32
-18.17
-22.31
-26.28
-29.38
-30.89
-30.32
-27.65
-23.33
-18.23
-13.28
-9.22
-6.34
-4.48
-3.22
-2.11
-0.96
0.16
1.01
1.38
1.24
0.71
-0.01
-0.82
-1.71
-2.77
-4.04
-5.45
-6.91
-8.33
-9.66
-10.84
-11.73
-12.15
-11.87
-10.82
-9.11
-7.05
-4.91
-2.82
-0.65
1.82
4.80
8.20
11.66
14.59
16.35
16.40
14.36
10.15
4.10
-3.04
-10.03
-15.36
-17.53
-15.52
-9.06
1.22
14.03
27.81
41.10
52.81
62.24
69.02
72.98
74.14
72.73
69.21
64.29
58.78
53.43
48.82
45.22
42.67
41.03
40.12
39.77
39.86
40.33
41.14
42.19
43.27
44.02
44.02
42.84
40.23
36.25
31.24
25.78
20.45
15.65
11.60
8.27
5.55
3.26
1.25
-0.63
-2.54
-4.67
-7.19
-10.18
-13.57
-17.07
-20.19
-22.35
-23.06
-22.05
-19.41
-15.55
-11.01
-6.34
-1.92
2.05
5.47
8.24
10.27
11.48
11.91
11.74
11.22
10.55
9.83
8.98
7.91
6.58
5.14
3.84
2.90
2.36
2.03
1.54
0.53
-1.19
-3.63
-6.61
-9.84
-13.10
-16.21
-19.12
-21.86
-24.53
-27.30
-30.37
-33.92
-38.10
-42.92
-48.18
-53.46
-58.13
-61.45
-62.82
-61.94
-59.00
-54.63
-49.79
-45.34
-41.81
-39.20
-37.13
-35.11
-32.83
-30.33
-27.90
-25.92
-24.62
-23.99
-23.93
-24.33
-25.10
-26.13
-27.20
-28.04
-28.50
-28.76
-29.25
-30.44
-32.42
-34.64
-36.03
-35.40
-32.03
-25.90
-17.78
-8.89
-0.48
6.47
11.41
14.30
15.54
15.91
16.41
17.97
21.22
26.29
32.78
39.84
46.32
50.99
52.77
51.17
46.57
40.38
34.85
32.50
35.37
44.42
59.22
78.15
98.85
118.80
135.84
148.50
156.22
159.27
158.68
155.81
151.90
147.67
143.15
137.80
130.92
122.04
111.26
99.17
86.68
74.64
63.71
54.28
46.49
40.35
35.76
32.53
30.41
29.21
28.94
29.86
32.34
36.63
42.55
49.39
56.00
61.19
64.06
64.29
62.21
58.58
54.25
49.79
45.11
39.36
31.10
18.85
1.88
-19.19
-42.31
-64.49
-82.88
-95.84
-103.49
-107.49
-110.24
-113.79
-119.22
-126.36
-134.06
-140.51
-143.66
-141.66
-133.28
-118.50
-98.66
-76.39
-54.84
-36.76
-23.68
-15.65
-11.52
-9.65
-8.54
-7.16
-4.94
-1.61
2.93
8.57
14.98
21.65
27.96
33.41
37.80
41.21
43.89
46.15
48.15
49.86
50.99
51.09
49.71
46.59
41.84
36.03
30.03
24.71
20.61
17.75
15.70
13.78
11.39
8.18
4.19
-0.39
-5.32
-10.46
-15.81
-21.36
-27.04
-32.64
-37.87
-42.52
-46.50
-49.76
-52.21
-53.54
-53.24
-50.73
-45.73
-38.47
-29.79
-20.91
-13.06
-7.11
-3.32
-1.43
-0.91
-1.20
-1.88
-2.71
-3.52
-4.07
-4.10
-3.45
-2.18
-0.67
0.51
0.86
0.22
-1.12
-2.56
-3.50
-3.72
-3.50
-3.54
-4.57
-7.01
-10.74
-15.16
-19.52
-23.28
-26.34
-29.02
-31.89
-35.44
-39.88
-45.04
-50.43
-55.42
-59.41
-62.05
-63.28
-63.35
-62.75
-62.00
-61.50
-61.42
-61.69
-62.13
-62.64
-63.36
-64.67
-67.01
-70.62
-75.27
-80.16
-84.07
-85.75
-84.48
-80.53
-75.19
-70.25
-67.05
-65.63
-64.26
-60.00
-49.75
-31.66
-5.98
24.83
56.64
84.62
104.07
111.08
103.10
79.32
41.00
-8.78
-65.69
-125.49
-185.24
-243.92
-301.84
-359.04
-413.65
-461.21
-495.75
-511.93
-507.32
-483.41
-444.77
-396.96
-344.36
-289.23
-232.17
-173.46
-114.21
-56.40
-2.01
48.08
94.50
138.68
181.53
222.40
259.06
288.61
309.01
320.18
324.07
323.78
322.24
321.07
320.37
319.17
316.23
310.74
302.55
291.97
279.64
266.53
254.14
244.42
239.39
240.10
245.76
253.37
258.49
256.69
245.33
224.58
197.36
168.13
141.18
119.27
103.16
92.10
84.84
80.39
78.36
78.69
81.33
86.04
92.54
100.71
110.66
122.46
135.87
150.05
163.57
174.77
182.07
184.44
181.42
173.25
160.76
145.32
128.62
112.39
98.03
86.29
77.25
70.53
65.80
63.10
62.89
65.89
72.64
83.17
96.79
112.13
127.31
140.28
149.30
153.24
151.84
145.74
136.10
124.25
111.20
97.49
83.25
68.43
53.02
37.20
21.26
5.47
-9.97
-24.87
-39.08
-52.35
-64.42
-75.06
-84.15
-91.73
-97.92
-102.89
-106.73
-109.55
-111.40
-112.43
-112.86
-112.98
-113.03
-113.15
-113.35
-113.51
-113.52
-113.38
-113.27
-113.57
-114.79
-117.51
-122.27
-129.36
-138.63
-149.31
-160.02
-169.15
-175.31
-177.80
-176.80
-173.24
-168.34
-163.14
-158.17
-153.44
-148.65
-143.55
-138.16
-132.82
-128.08
-124.47
-122.32
-121.63
-122.11
-123.33
-124.94
-126.88
-129.32
-132.63
-137.04
-142.57
-148.99
-155.88
-162.85
-169.57
-175.82
-181.52
-186.59
-190.94
-194.28
-195.87
-194.37
-187.99
-174.81
-153.53
-123.89
-86.96
-44.82
-0.07
44.62
86.82
124.20
154.46
175.50
185.76
184.75
173.24
153.22
127.32
98.52
69.90
44.71
26.22
17.28
19.47
32.04
51.45
71.74
86.03
88.71
77.24
52.82
19.41
-17.84
-54.51
-88.33
-119.72
-151.41
-187.28
-230.81
-283.64
-344.69
-409.23
-469.66
-517.47
-546.10
-553.11
-540.65
-513.96
-479.11
-441.79
-405.37
-371.01
-338.55
-307.66
-277.97
-248.44
-216.87
-180.70
-140.63
-98.42
-55.96
-14.44
25.40
63.31
100.00
137.97
180.22
224.71
269.51
313.44
355.28
391.10
413.64
415.27
392.70
347.23
277.53
187.68
87.56
-9.61
-93.18
-159.12
-208.89
-245.42
-273.91
-309.08
-360.86
-429.53
-505.68
-577.01
-635.06
-676.17
-698.54
-636.14
-455.99
-175.31
143.30
435.16
666.08
831.42
933.26
996.31
1036.02
1050.12
1035.11
992.94
932.09
864.80
798.76
736.86
680.88
629.28
572.86
505.61
428.12
347.62
273.01
209.83
159.22
121.31
93.71
69.19
42.35
11.61
-20.59
-50.45
-75.76
-97.80
-117.29
-135.09
-153.37
-173.65
-196.44
-220.95
-245.66
-269.20
-294.32
-321.83
-350.39
-377.69
-401.77
-422.35
-440.22
-456.70
-473.14
-497.05
-532.15
-575.90
-619.84
-653.64
-669.80
-665.65
-643.85
-611.39
-585.44
-578.21
-591.24
-615.99
-640.38
-655.96
-660.37
-656.55
-596.88
-464.42
-276.43
-74.34
104.71
243.94
342.38
406.08
442.75
460.28
457.62
436.13
401.95
362.83
327.36
298.91
276.79
258.82
243.33
223.24
194.92
159.93
123.61
91.39
65.69
46.69
32.25
20.86
7.67
-9.94
-31.32
-53.40
-72.98
-88.86
-101.42
-111.69
-120.42
-130.01
-141.75
-155.20
-168.59
-179.90
-187.98
-192.32
-192.75
-188.92
-181.19
-169.66
-153.99
-133.61
-108.10
-77.70
-43.15
-5.67
33.49
72.93
111.23
147.06
179.27
206.93
229.38
246.23
257.38
263.08
263.77
260.07
252.70
242.42
229.94
215.91
200.86
185.22
169.28
153.26
137.30
121.46
105.82
90.42
75.34
60.67
46.53
33.02
20.25
8.31
-2.73
-12.84
-22.02
-30.30
-37.69
-44.24
-49.95
-54.78
-58.69
-61.58
-63.33
-63.82
-62.90
-60.48
-56.49
-50.88
-43.67
-34.95
-24.82
-13.46
-1.08
12.10
25.86
39.97
54.23
68.48
82.54
96.28
109.56
122.30
134.42
145.90
156.73
166.92
176.46
185.27
193.24
200.11
205.57
209.25
210.72
209.55
205.36
197.81
186.65
171.75
153.13
130.99
105.74
78.01
48.69
18.80
-10.55
-38.36
-63.75
-86.12
-105.08
-120.40
-131.93
-139.53
-143.12
-142.68
-138.41
-130.67
-120.07
-107.27
-92.85
-77.19
-59.94
-40.66
-19.13
4.46
29.52
55.41
81.60
107.77
133.79
160.08
186.97
214.56
242.88
272.16
302.93
335.50
369.13
401.52
430.03
451.58
463.64
465.30
457.77
444.15
428.25
413.32
401.54
397.30
403.60
420.89
446.13
473.65
497.28
512.23
516.39
510.64
504.32
505.97
519.34
541.60
565.73
585.03
595.47
595.78
586.44
578.25
579.36
591.41
608.62
622.01
625.42
617.60
600.49
577.16
562.96
568.93
597.26
640.34
686.04
725.95
757.81
783.20
725.50
542.52
238.89
-129.93
-491.53
-795.68
-1023.89
-1179.88
-1277.79
-1333.88
-1350.10
-1328.79
-1277.52
-1210.45
-1146.51
-1098.66
-1070.99
-1060.82
-1060.55
-1050.73
-1015.61
-949.74
-855.69
-750.66
-655.72
-580.46
-526.66
-490.40
-458.85
-420.63
-371.26
-312.67
-251.51
-192.92
-138.76
-89.34
-44.03
1.06
49.13
101.40
157.50
215.76
275.63
336.82
396.43
448.50
486.17
502.92
495.18
464.04
414.65
355.16
293.65
234.98
180.47
129.21
80.11
33.24
-9.63
-46.38
-75.25
-95.69
-108.60
-115.46
-117.51
-115.29
-109.01
-99.41
-88.53
-79.58
-75.96
-79.82
-90.72
-105.51
-119.57
-129.07
-132.32
-130.37
-125.96
-122.28
-121.63
-125.01
-132.38
-142.81
-154.88
-165.46
-169.62
-162.03
-139.50
-103.49
-60.42
-19.83
9.16
19.92
11.01
-14.92
-53.83
-102.63
-159.07
-219.74
-277.78
-323.36
-348.48
-349.09
-327.59
-292.55
-255.70
-227.10
-211.67
-207.71
-209.46
-212.61
-214.12
-212.35
-206.37
-195.82
-180.72
-162.43
-142.94
-109.69
-58.45
6.62
74.94
135.75
183.25
217.42
240.59
256.28
265.38
266.56
256.67
232.72
193.61
140.41
77.08
8.39
-50.11
-83.32
-82.83
-49.79
5.54
68.50
121.31
161.14
190.27
214.27
238.22
264.49
293.85
325.66
359.60
394.66
428.55
455.56
469.26
464.15
437.86
392.61
334.91
273.41
215.81
167.65
130.48
103.79
85.46
71.97
59.55
45.24
27.93
8.46
-10.39
-25.98
-36.34
-41.38
-44.63
-50.85
-63.67
-83.74
-108.69
-134.18
-156.08
-171.69
-180.85
-189.04
-203.13
-228.36
-266.08
-313.89
-366.58
-416.74
-455.16
-472.29
-466.13
-439.59
-399.50
-354.44
-312.96
-281.66
-263.15
-255.20
-252.87
-258.45
-276.54
-311.16
-362.78
-428.71
-505.31
-588.95
-675.62
-719.61
-688.03
-574.31
-404.33
-218.40
-49.12
86.72
185.92
253.81
299.44
324.79
329.79
315.25
285.91
249.81
215.30
188.88
174.06
171.26
172.81
170.18
158.11
136.79
111.81
89.42
74.17
67.86
70.06
74.90
75.89
68.89
53.98
34.69
15.51
0.26
-9.00
-11.61
-10.53
-9.58
-11.45
-16.16
-21.01
-21.79
-13.81
2.27
25.56
52.91
80.30
104.34
123.63
139.07
153.06
168.40
187.19
211.02
239.83
271.79
303.22
328.70
341.85
337.16
312.35
270.22
219.20
170.45
134.01
114.96
111.71
117.26
122.76
121.47
110.98
93.01
70.55
45.30
16.77
-16.48
-54.46
-94.11
-129.45
-154.05
-163.73
-158.78
-143.70
-125.13
-109.05
-98.80
-94.52
-94.18
-95.17
-95.68
-95.33
-94.93
-95.75
-98.43
-102.40
-105.88
-106.56
-102.72
-94.11
-82.15
-69.25
-57.68
-48.52
-41.30
-34.63
-27.03
-17.93
-7.99
1.39
8.78
13.46
15.60
16.07
15.84
15.66
15.90
16.78
18.63
21.93
27.12
34.26
42.73
51.29
58.46
62.97
64.15
62.10
57.49
51.30
44.54
38.07
32.45
27.93
24.37
21.44
18.74
15.98
13.08
10.08
7.11
4.25
1.58
-0.68
-2.14
-2.29
-0.69
2.76
7.73
13.62
19.71
25.49
30.61
34.75
37.40
37.93
35.89
31.46
25.66
20.07
15.99
13.72
12.22
9.70
4.77
-2.50
-10.53
-16.95
-20.00
-19.62
-17.39
-15.68
-16.16
-18.89
-22.37
-24.53
-23.85
-20.11
-14.38
-8.32
-3.38
-0.37
0.59
-0.24
-2.65
-6.49
-11.67
-17.86
-24.31
-29.94
-33.59
-34.43
-32.31
-27.78
-21.86
-15.63
-9.87
-4.85
-0.43
3.67
7.70
11.69
15.45
18.70
21.15
22.64
23.31
23.45
23.49
23.73
24.24
24.76
24.94
24.53
23.58
22.37
21.21
20.19
19.06
17.38
14.78
11.24
7.14
3.03
-0.60
-3.56
-6.00
-8.25
-10.69
-13.51
-16.82
-20.53
-24.51
-28.58
-32.48
-35.82
-38.14
-38.94
-37.84
-34.71
-29.80
-23.67
-17.09
-10.73
-5.02
-0.09
4.25
8.25
12.15
16.01
19.70
23.00
25.60
27.33
28.15
28.24
27.94
27.61
27.49
27.64
27.89
27.98
27.72
27.07
26.18
25.27
24.47
23.70
22.71
21.27
19.20
16.51
13.29
9.72
5.98
2.22
-1.39
-4.82
-8.10
-11.43
-15.05
-19.04
-23.19
-26.96
-29.65
-30.64
-29.64
-26.72
-22.25
-16.72
-10.59
-4.30
1.83
7.55
12.71
17.28
21.31
24.79
27.61
29.66
30.84
31.28
31.28
31.21
31.34
31.71
32.11
32.21
31.79
30.78
29.36
27.83
26.50
25.52
24.80
24.07
22.98
21.21
18.61
15.26
11.43
7.49
3.81
0.63
-1.96
-4.01
-5.72
-7.39
-9.36
-11.93
-15.25
-19.13
-23.10
-26.41
-28.26
-28.02
-25.50
-21.03
-15.32
-9.25
-3.50
1.59
5.99
9.82
13.08
15.67
17.41
18.29
18.56
18.75
19.35
20.55
22.15
23.58
24.17
23.58
21.85
19.50
17.22
15.59
14.80
14.60
14.40
13.53
11.59
8.67
5.28
2.19
0.01
-1.06
-1.32
-1.44
-2.12
-3.75
-6.37
-9.73
-13.55
-17.64
-21.91
-26.12
-29.74
-31.96
-31.97
-29.37
-24.44
-18.07
-11.42
-5.42
-0.44
3.75
7.65
11.67
15.76
19.43
22.05
23.21
23.02
22.14
21.41
21.48
22.45
23.94
25.27
25.93
25.77
25.02
24.02
22.97
21.80
20.23
18.01
15.22
12.21
9.46
7.25
5.57
4.04
2.13
-0.55
-4.13
-8.42
-12.98
-17.42
-21.44
-24.95
-27.97
-30.44
-32.08
-32.49
-31.26
-28.21
-23.59
-17.96
-12.04
-6.43
-1.37
3.22
7.54
11.70
15.61
19.00
21.59
23.30
24.20
24.55
24.61
24.55
24.45
24.31
24.10
23.78
23.28
22.51
21.48
20.21
18.84
17.48
16.10
14.56
12.62
10.14
7.21
4.14
1.35
-0.89
-2.59
-4.06
-5.78
-8.15
-11.36
-15.35
-19.88
-24.67
-29.34
-33.43
-36.39
-37.61
-36.64
-33.39
-28.21
-21.91
-15.47
-9.72
-5.08
-1.54
1.27
3.79
6.29
8.72
10.79
12.09
12.42
11.85
10.67
9.29
8.04
7.06
6.29
5.56
4.69
3.58
2.25
0.75
-0.88
-2.71
-4.90
-7.62
-10.93
-14.64
-18.32
-21.41
-23.42
-24.19
-23.86
-22.83
-21.53
-20.27
-19.21
-18.47
-18.26
-18.79
-20.18
-22.20
-24.25
-25.46
-25.00
-22.45
-17.88
-11.87
-5.19
1.42
7.52
12.97
17.80
22.11
25.89
29.01
31.36
32.89
33.72
34.09
34.23
34.25
34.09
33.52
32.25
30.06
26.90
22.93
18.46
13.83
9.33
5.01
0.70
-4.02
-9.54
-16.12
-23.68
-31.82
-40.00
-47.76
-54.87
-61.44
-67.73
-74.17
-81.18
-89.15
-98.35
-108.70
-119.67
-130.24
-139.05
-144.84
-146.84
-144.98
-139.87
-132.47
-123.54
-113.29
-101.13
-85.92
-66.40
-41.85
-12.58
19.82
52.74
83.12
108.19
126.19
136.70
140.57
139.54
135.67
130.74
125.98
121.93
118.53
115.45
112.31
108.86
105.03
100.80
96.21
91.29
86.17
81.08
76.31
72.12
68.57
65.46
62.41
59.03
55.04
50.40
45.31
40.06
34.97
30.32
26.28
22.98
20.54
19.06
18.62
19.21
20.68
22.76
25.12
27.53
29.92
32.40
35.11
38.15
41.44
44.76
47.90
50.77
53.51
56.44
59.86
63.96
68.70
73.96
79.59
85.64
92.26
99.69
108.11
117.47
127.43
137.35
146.45
153.96
159.26
161.90
161.54
157.85
150.55
139.66
125.62
109.35
91.76
73.24
53.46
31.67
7.49
-18.30
-43.74
-66.23
-83.67
-95.33
-101.92
-105.01
-106.01
-105.63
-103.95
-101.06
-97.74
-95.56
-96.37
-101.40
-110.40
-121.29
-130.55
-134.43
-130.40
-118.22
-100.20
-80.38
-62.96
-50.90
-45.17
-44.80
-47.75
-51.74
-55.01
-56.64
-56.72
-56.24
-56.77
-59.96
-66.92
-77.84
-91.91
-107.86
-124.49
-141.04
-157.03
-171.95
-185.00
-195.21
-202.00
-205.72
-207.78
-210.21
-214.88
-222.80
-233.95
-247.47
-262.02
-275.91
-287.17
-293.49
-292.48
-282.24
-261.92
-231.94
-193.79
-149.54
-101.49
-52.20
-4.63
37.83
71.97
95.68
108.73
112.99
111.75
108.59
106.34
106.62
109.93
116.02
124.21
133.57
142.99
151.38
157.89
162.06
163.79
163.10
159.99
154.39
146.31
135.98
123.92
110.88
97.54
84.43
71.79
59.62
47.82
36.25
24.84
13.58
2.50
-8.44
-19.32
-30.24
-41.14
-51.68
-61.15
-68.65
-73.44
-75.40
-75.22
-74.26
-74.06
-75.73
-79.42
-84.08
-87.60
-87.27
-80.65
-66.26
-44.34
-16.99
12.37
39.97
62.85
79.47
89.90
95.22
96.88
96.14
93.97
91.17
88.49
86.58
85.71
85.66
85.76
85.40
84.31
82.77
81.45
81.02
81.79
83.66
86.10
88.55
90.59
92.08
93.15
94.06
95.00
96.05
97.19
98.30
99.27
99.99
100.47
100.89
101.58
102.92
105.06
107.75
110.28
111.62
110.77
107.12
100.76
92.40
83.19
74.34
66.83
61.09
56.98
53.78
50.43
45.90
39.52
31.29
21.78
11.92
2.61
-5.55
-12.44
-18.28
-23.35
-27.79
-31.32
-33.36
-33.10
-29.89
-23.65
-15.11
-5.79
2.32
7.37
8.25
4.87
-1.91
-10.71
-20.03
-28.61
-35.54
-40.22
-42.36
-42.04
-39.81
-36.72
-34.01
-32.82
-33.74
-36.62
-40.70
-44.96
-48.55
-51.14
-53.01
-54.76
-57.04
-60.16
-63.98
-67.83
-70.72
-71.60
-69.74
-65.03
-58.12
-50.34
-43.31
-38.41
-36.37
-36.99
-39.26
-41.70
-42.80
-41.45
-37.11
-29.85
-20.20
-8.99
2.91
14.70
25.87
36.21
45.83
55.03
64.04
72.81
80.93
87.66
92.14
93.75
92.37
88.44
83.00
77.36
72.80
70.05
68.82
67.58
63.83
55.10
40.20
20.22
-1.51
-20.54
-33.10
-37.61
-35.07
-28.28
-20.32
-13.09
-6.89
-0.89
5.89
13.80
22.55
31.96
42.20
54.09
68.71
86.75
108.00
131.17
154.28
175.49
194.13
210.54
225.79
241.10
257.14
273.73
289.73
303.28
312.29
315.27
310.74
297.47
274.90
243.49
204.89
161.75
116.87
72.84
32.09
-4.26
-36.14
-64.04
-88.41
-109.33
-126.49
-139.69
-152.64
-165.73
-177.19
-184.23
-184.81
-178.73
-167.28
-152.14
-135.78
-119.44
-103.07
-87.08
-72.68
-61.75
-56.27
-57.88
-65.05
-76.16
-89.31
-102.49
-114.86
-126.72
-139.14
-153.29
-170.10
-190.05
-213.44
-239.40
-265.21
-286.75
-299.19
-298.55
-283.41
-255.64
-219.79
-181.48
-144.85
-111.23
-79.69
-48.56
-17.16
13.46
40.98
63.11
78.56
87.67
91.93
92.91
91.52
87.82
81.27
71.55
59.10
45.06
31.07
18.44
7.71
-1.50
-10.05
-18.61
-27.09
-34.61
-39.92
-42.06
-40.87
-37.12
-32.16
-27.26
-23.14
-19.72
-16.40
-12.57
-8.09
-3.57
-0.03
1.42
0.13
-3.81
-9.67
-16.37
-22.88
-28.51
-33.00
-36.54
-39.71
-43.28
-47.88
-53.61
-59.80
-65.20
-68.55
-69.31
-68.13
-66.70
-66.99
-70.47
-77.45
-87.15
-98.18
-109.04
-118.63
-126.33
-131.99
-135.84
-138.52
-141.02
-144.42
-149.47
-155.95
-162.32
-165.87
-163.46
-152.70
-133.17
-106.84
-77.72
-50.72
-30.20
-18.76
-16.70
-22.33
-32.69
-44.57
-55.24
-62.98
-67.20
-68.20
-66.91
-64.39
-61.63
-59.27
-57.48
-55.71
-52.77
-46.99
-36.88
-21.76
-2.31
19.62
41.77
62.37
80.92
97.92
114.18
129.92
144.26
155.47
161.68
161.55
154.57
140.94
121.35
96.86
69.01
39.77
11.38
-14.08
-35.24
-51.53
-63.14
-70.47
-73.80
-73.23
-68.93
-61.52
-52.16
-42.29
-33.14
-25.23
-18.38
-11.99
-5.66
0.48
5.93
10.18
13.26
15.94
19.50
25.08
33.10
42.88
52.85
61.20
66.69
69.11
69.10
67.50
64.52
59.40
50.80
37.55
19.50
-2.31
-26.01
-49.64
-71.61
-90.72
-105.86
-115.89
-120.11
-119.00
-114.81
-111.04
-111.14
-116.48
-125.23
-132.71
-133.22
-122.78
-101.04
-71.68
-40.84
-14.48
4.04
14.91
21.04
26.15
32.60
40.50
48.16
53.52
55.71
55.77
56.16
59.43
66.75
77.08
87.54
94.72
96.35
92.52
85.95
81.02
82.26
92.70
112.85
140.99
174.11
209.18
244.03
277.63
309.73
340.31
369.04
394.74
415.80
430.36
436.59
432.90
418.20
392.23
355.80
310.70
258.72
201.95
142.64
83.04
25.21
-29.12
-78.71
-122.75
-160.96
-194.56
-224.93
-253.17
-279.80
-304.67
-327.09
-345.97
-360.13
-368.60
-372.17
-371.55
-366.92
-357.84
-343.87
-325.42
-304.23
-282.99
-256.06
-221.02
-178.17
-130.72
-83.21
-39.47
-2.04
27.73
49.69
64.88
74.00
78.33
79.30
78.01
74.84
69.38
60.81
48.53
32.30
11.78
-11.78
-35.25
-54.08
-63.87
-62.30
-50.48
-32.50
-13.66
1.41
11.44
18.87
28.16
43.31
65.95
93.97
123.71
151.92
176.88
199.12
220.56
243.31
268.75
297.36
328.34
359.40
386.46
403.90
406.07
389.35
353.89
303.97
246.40
188.09
133.57
84.53
40.91
2.60
-29.45
-53.66
-69.01
-76.30
-78.33
-79.47
-83.21
-90.66
-100.27
-108.81
-113.17
-111.49
-103.72
-91.33
-78.22
-68.15
-63.50
-64.62
-70.24
-78.73
-88.83
-100.04
-112.46
-128.85
-151.26
-179.82
-212.59
-246.75
-280.11
-311.32
-338.99
-361.10
-378.27
-391.17
-400.48
-406.96
-411.65
-416.06
-421.39
-427.67
-413.78
-366.12
-283.55
-179.92
-75.12
16.45
89.66
145.73
188.03
218.93
236.89
240.88
232.38
215.68
196.46
179.05
164.85
152.88
140.09
120.91
91.04
49.10
-2.22
-56.61
-105.99
-142.85
-156.90
-146.70
-119.94
-88.51
-63.37
-50.22
-48.69
-53.37
-59.41
-64.05
-67.24
-70.38
-74.20
-77.81
-79.07
-75.83
-67.07
-53.03
-37.09
-21.78
-7.89
5.54
20.40
38.31
59.65
83.38
107.45
129.95
150.08
168.40
186.37
205.81
228.11
253.92
282.90
313.15
341.09
362.00
371.18
365.91
346.87
318.11
285.27
252.98
222.82
193.29
161.67
126.37
88.47
51.33
18.56
-8.12
-29.92
-50.25
-72.64
-98.82
-128.08
-157.83
-185.07
-207.87
-225.97
-240.57
-253.52
-266.11
-278.51
-289.90
-299.01
-304.86
-307.23
-306.60
-303.60
-298.53
-290.97
-280.03
-265.01
-246.16
-224.75
-203.33
-185.05
-172.58
-167.20
-168.41
-174.18
-181.86
-188.98
-193.60
-194.84
-192.85
-188.51
-183.15
-178.02
-173.93
-170.81
-167.61
-161.86
-151.31
-134.85
-113.13
-88.12
-62.27
-37.48
-14.42
7.66
32.30
62.37
98.73
139.87
182.77
224.41
262.88
297.89
330.94
368.71
416.70
476.64
545.41
616.35
681.91
735.89
775.08
799.89
819.77
842.96
873.02
908.23
944.38
978.07
1007.54
1031.35
1046.93
1057.97
1064.45
1062.01
1043.77
1004.18
941.96
859.44
760.35
599.05
361.14
66.42
-235.87
-493.00
-673.46
-773.77
-811.85
-816.40
-816.05
-822.32
-835.34
-846.72
-845.37
-823.07
-778.02
-716.21
-649.14
-588.48
-535.06
-485.55
-436.55
-388.09
-344.01
-309.21
-286.52
-274.70
-268.40
-256.67
-232.18
-195.79
-156.84
-128.62
-121.00
-135.99
-166.89
-201.28
-224.57
-227.81
-210.71
-179.15
-143.72
-112.76
-89.42
-72.56
-59.24
-46.79
-34.81
-24.74
-18.55
-17.78
-22.64
-31.84
-42.83
-51.74
-53.88
-45.11
-23.78
7.90
43.94
76.99
101.09
113.89
116.87
113.71
107.94
101.33
93.86
85.01
75.20
66.09
59.75
57.33
58.17
60.12
60.69
58.07
52.13
44.81
38.17
34.25
33.91
36.46
40.07
42.64
42.72
40.11
35.82
31.56
29.01
29.20
32.31
37.54
43.24
47.19
47.20
41.81
30.89
15.95
-0.37
-15.16
-26.39
-33.37
-36.89
-38.43
-39.56
-41.16
-43.17
-44.88
-45.33
-43.78
-40.24
-35.55
-31.04
-27.86
-26.48
-26.06
-25.00
-21.82
-16.05
-8.71
-1.82
2.53
3.36
1.26
-1.82
-3.63
-2.58
1.49
7.39
13.08
16.35
15.69
10.42
0.96
-11.51
-25.11
-37.24
-45.15
-46.32
-39.66
-26.39
-10.25
3.64
10.88
9.95
3.05
-5.18
-9.99
-9.08
-3.50
3.49
8.60
10.45
10.05
9.56
10.46
12.70
14.80
15.15
13.26
10.04
7.33
6.51
7.91
10.46
12.22
11.44
7.15
0.11
-7.70
-13.93
-16.93
-16.62
-14.14
-10.82
-7.12
-2.58
3.65
11.48
19.46
25.40
27.50
25.47
20.72
15.34
10.73
6.94
2.58
-3.63
-11.81
-20.81
-28.75
-34.07
-36.00
-34.82
-31.23
-25.67
-19.66
-14.11
-9.77
-7.15
-6.47
-7.41
-9.54
-11.94
-14.31
-16.88
-20.16
-24.88
-31.63
-40.87
-52.87
-67.37
-81.92
-93.97
-99.27
-93.65
-75.44
-46.84
-13.62
17.07
39.58
51.91
55.52
54.10
51.10
48.20
45.37
42.12
38.63
36.02
35.62
37.70
41.33
44.58
45.71
43.91
40.04
36.05
34.00
35.09
38.84
43.63
47.43
48.69
47.09
43.67
40.14
38.24
39.40
44.14
52.00
61.02
67.63
67.36
56.48
33.86
2.10
-32.79
-63.89
-85.91
-97.20
-99.76
-97.48
-93.82
-90.26
-86.66
-81.53
-74.27
-65.40
-56.18
-47.56
-39.61
-31.58
-22.21
-11.40
0.42
12.04
22.13
29.76
34.73
37.61
39.33
40.81
42.46
44.35
46.04
47.30
48.14
48.88
49.80
50.89
51.67
51.25
48.91
44.24
37.79
30.62
23.88
18.19
13.20
7.76
0.49
-8.92
-20.27
-31.80
-41.08
-46.20
-46.50
-43.10
-38.33
-34.90
-34.38
-37.53
-43.97
-52.47
-60.65
-64.60
-59.59
-41.94
-11.72
25.56
59.68
79.70
78.85
57.87
24.97
-8.39
-32.89
-45.18
-48.08
-47.47
-48.08
-50.95
-53.91
-53.77
-49.31
-42.30
-35.74
-32.79
-34.76
-40.72
-48.00
-55.33
-62.07
-68.01
-72.30
-73.13
-67.29
-52.61
-29.45
-1.28
26.32
48.19
61.39
66.13
64.86
60.56
55.29
49.92
44.68
39.88
36.29
34.69
35.11
36.69
38.00
37.87
35.81
32.40
28.82
26.26
25.34
25.87
27.05
27.99
28.10
27.47
26.67
26.42
27.13
28.62
30.28
31.35
31.54
31.13
30.95
31.91
34.53
38.48
42.72
46.12
47.78
47.67
46.53
45.47
45.67
48.15
53.61
62.09
72.27
80.96
83.43
74.90
52.83
18.66
-22.01
-61.47
-92.89
-112.89
-122.35
-125.00
-125.05
-125.09
-125.65
-125.94
-125.46
-124.68
-124.68
-126.21
-128.91
-131.21
-131.00
-126.94
-117.89
-104.23
-87.26
-68.65
-49.78
-31.24
-13.09
4.87
22.62
39.64
54.81
66.75
74.37
77.19
75.49
70.15
62.41
53.37
43.83
34.15
24.41
14.66
5.08
-3.99
-12.13
-19.00
-24.49
-28.75
-32.09
-34.93
-37.69
-40.64
-43.77
-46.99
-49.95
-52.23
-53.37
-52.86
-50.18
-44.98
-37.10
-26.56
-13.59
1.44
18.23
35.88
53.46
70.22
85.49
98.75
109.48
117.26
121.80
123.08
121.19
116.59
109.91
101.84
92.94
83.72
74.53
65.64
57.33
49.97
43.93
39.51
36.79
35.37
34.72
33.68
31.26
26.91
20.96
14.25
8.02
3.50
1.01
0.30
0.44
0.38
-0.60
-1.93
-2.60
-1.18
3.37
10.50
18.46
24.63
26.36
21.99
12.35
-0.58
-14.09
-25.73
-35.45
-44.82
-56.74
-74.33
-100.41
-135.38
-178.77
-228.11
-273.74
-306.86
-318.68
-303.24
-260.79
-204.26
-144.95
-95.24
-64.21
-53.79
-59.01
-69.56
-74.92
-66.49
-43.00
-8.29
30.44
67.16
98.93
124.52
143.66
155.81
160.04
155.99
145.67
131.96
117.98
106.52
98.32
92.61
87.78
82.25
74.88
66.20
57.36
49.47
43.76
40.29
37.89
34.37
27.65
17.22
5.89
-0.81
2.99
21.20
52.65
90.86
126.36
150.52
158.86
152.29
137.21
117.58
96.81
76.08
54.87
32.23
7.91
-17.34
-42.83
-66.46
-87.49
-105.19
-119.04
-128.01
-130.54
-125.15
-111.83
-93.43
-74.45
-60.95
-57.01
-62.88
-74.39
-84.73
-87.29
-79.01
-61.47
-39.15
-17.47
0.14
12.71
20.95
25.81
27.83
27.18
24.36
20.61
17.31
15.56
15.65
16.75
17.43
16.57
13.76
9.74
5.84
3.39
3.09
4.66
7.30
9.48
9.74
6.86
0.63
-7.48
-13.94
-13.96
-3.42
19.14
50.97
85.72
115.65
134.89
141.49
137.49
127.45
114.72
101.09
86.39
69.80
51.06
31.18
11.84
-5.74
-20.58
-33.04
-43.77
-53.43
-62.06
-69.30
-74.60
-77.84
-79.06
-78.75
-77.65
-76.17
-74.64
-73.19
-72.08
-71.62
-72.24
-74.06
-76.75
-79.57
-81.42
-81.51
-79.76
-76.94
-74.25
-72.62
-72.24
-72.01
-70.06
-64.27
-53.05
-35.88
-13.30
13.08
40.35
64.41
80.60
84.40
74.94
54.82
29.75
6.31
-10.67
-19.95
-23.88
-26.50
-31.42
-39.27
-47.62
-51.96
-47.86
-33.25
-9.52
18.80
45.81
66.50
78.58
82.96
82.34
79.57
76.11
71.88
66.21
59.12
51.83
46.39
44.21
45.22
47.79
49.67
49.12
45.81
40.89
36.28
33.64
33.60
35.51
37.91
39.30
38.85
36.70
33.85
31.77
31.84
34.80
40.14
45.99
49.38
47.19
37.63
21.20
0.82
-19.14
-34.68
-43.54
-45.74
-43.06
-37.81
-31.91
-26.28
-21.25
-16.90
-13.38
-10.86
-9.39
-8.64
-8.07
-7.12
-5.48
-3.12
-0.49
1.92
3.50
4.05
3.87
3.76
4.74
7.37
11.24
15.02
17.02
16.02
11.84
5.48
-1.56
-7.99
-13.43
-18.43
-23.87
-30.63
-39.25
-49.86
-62.12
-74.61
-84.52
-87.99
-81.69
-64.49
-38.78
-10.06
15.06
31.63
38.08
36.22
30.16
23.43
17.70
12.70
7.54
1.99
-3.14
-6.51
-7.30
-5.69
-3.01
-0.83
-0.37
-1.71
-4.08
-6.22
-7.07
-6.25
-4.13
-1.65
0.17
0.66
-0.15
-1.70
-3.17
-3.89
-3.58
-2.45
-1.04
0.03
0.40
0.06
-0.69
-1.43
-1.82
-1.73
-1.26
-0.65
-0.17
0.01
-0.09
-0.36
-0.65
-0.82
-0.83
-0.70
-0.50
-0.31
-0.17
-0.08
-0.03
0.01
0.03
0.07
0.10
0.13
0.14
0.15
0.16
0.16
0.16
0.17
0.17
0.17
0.18
0.18
0.18
0.19
0.19
0.20
0.20
0.20
0.21
0.21
0.22
0.24
0.25
0.26
0.23
0.21
0.18
0.18
0.25
0.41
0.66
0.94
1.20
1.38
1.48
1.48
1.46
1.49
1.59
1.78
2.00
2.17
2.21
2.11
1.93
1.75
1.72
1.93
2.36
2.89
3.34
3.52
3.39
3.07
2.82
3.00
3.78
5.14
6.77
8.17
8.91
8.83
8.20
7.62
7.81
9.24
11.80
14.90
17.58
18.99
18.82
17.50
16.07
15.77
17.40
20.86
25.20
28.99
31.04
30.80
28.72
25.88
23.68
23.29
25.56
30.89
38.73
47.05
52.03
48.76
32.93
3.27
-37.48
-82.91
-125.12
-157.72
-177.89
-186.65
-187.24
-183.40
-176.35
-165.78
-150.90
-131.65
-109.23
-85.60
-62.52
-40.37
-19.52
0.40
19.59
37.54
53.10
64.91
72.00
74.42
73.06
69.44
65.37
62.11
60.05
58.82
57.63
55.72
52.77
48.96
44.80
41.05
38.17
36.19
34.80
33.53
31.98
30.04
27.85
25.68
23.89
22.62
21.84
21.34
20.91
20.45
19.99
19.65
19.54
19.78
20.34
21.04
21.73
22.33
22.90
23.66
24.84
26.59
28.94
31.62
34.23
36.37
37.91
39.08
40.46
42.61
45.91
50.20
54.67
58.06
59.18
57.44
53.04
47.00
40.42
34.07
27.92
20.89
11.46
-1.55
-18.22
-37.15
-55.19
-69.91
-79.74
-84.60
-86.13
-86.63
-88.16
-91.74
-97.81
-105.58
-114.12
-121.48
-124.24
-118.19
-100.48
-72.00
-38.74
-10.28
4.44
1.24
-16.98
-41.39
-62.14
-73.09
-73.80
-68.55
-62.78
-59.71
-59.32
-59.55
-58.62
-56.54
-54.85
-54.91
-56.84
-58.81
-57.88
-51.26
-37.73
-18.15
5.24
28.44
48.22
62.89
72.50
78.39
82.26
85.29
87.85
89.48
89.34
87.03
82.67
77.02
71.20
66.18
62.44
59.92
58.12
56.39
54.50
52.24
49.74
47.24
44.92
42.76
40.64
38.36
35.71
32.61
28.91
24.31
18.44
10.89
1.38
-9.99
-22.86
-36.50
-50.02
-62.58
-73.52
-82.58
-89.56
-94.39
-96.97
-97.19
-94.89
-90.19
-83.27
-74.51
-64.40
-53.17
-41.75
-31.44
-24.12
-21.34
-23.07
-26.27
-25.51
-15.21
7.90
42.01
80.83
116.30
142.18
156.02
158.70
152.73
139.21
119.05
94.12
68.46
47.56
36.18
34.88
40.19
45.98
46.47
39.23
25.14
7.18
-12.10
-30.46
-47.06
-61.04
-70.82
-74.77
-71.86
-62.39
-47.39
-28.56
-8.08
11.27
26.14
33.43
31.46
20.67
5.06
-10.67
-23.51
-33.22
-41.82
-51.08
-60.02
-64.69
-60.36
-45.13
-22.02
1.35
16.68
19.26
10.54
-2.66
-12.04
-11.99
-2.63
10.79
20.68
21.12
10.67
-7.47
-27.79
-44.30
-52.99
-52.44
-43.35
-27.79
-8.99
8.62
20.21
22.58
15.97
5.06
-2.69
-0.41
14.44
38.76
65.36
86.51
98.49
101.08
97.23
90.20
81.40
70.29
55.87
38.36
19.69
3.08
-9.18
-16.03
-18.86
-20.35
-22.90
-27.63
-33.72
-39.16
-41.71
-40.23
-35.06
-28.04
-21.56
-17.51
-16.65
-18.36
-21.20
-23.67
-25.00
-25.46
-26.03
-27.77
-31.10
-35.37
-39.32
-41.41
-40.68
-37.05
-31.52
-25.38
-19.88
-15.43
-11.73
-8.00
-3.12
4.01
14.48
28.44
44.73
60.27
70.59
71.29
60.07
38.39
10.90
-14.79
-32.73
-40.43
-39.58
-34.42
-29.35
-26.92
-27.11
-28.30
-28.69
-27.78
-26.17
-25.01
-25.26
-26.99
-29.83
-33.11
-36.99
-41.74
-47.23
-51.61
-51.43
-42.88
-23.88
4.00
35.84
64.90
85.64
95.61
96.02
90.33
81.98
73.18
63.69
52.89
40.60
27.58
14.98
3.65
-6.34
-15.89
-25.20
-34.54
-43.16
-49.75
-52.66
-51.06
-44.89
-34.93
-22.65
-9.61
2.81
13.99
23.47
31.91
39.65
46.78
53.13
58.25
61.79
63.48
63.46
62.06
59.81
57.24
54.46
51.19
47.14
42.14
36.02
28.82
20.71
12.03
3.13
-5.83
-13.96
-20.72
-25.78
-29.10
-30.93
-31.72
-31.90
-31.77
-31.25
-29.87
-27.13
-22.63
-16.48
-9.28
-1.97
4.65
10.03
14.29
18.16
22.47
27.74
33.78
39.65
43.85
45.63
44.72
41.84
38.32
35.57
34.72
36.55
41.48
49.24
