1595446619.00
64.000000
-0.00
-0.00
-0.00
-0.00
-0.00
-0.00
-0.00
-0.00
-0.00
-0.00
0.00
0.01
0.01
-0.00
-0.03
-0.05
-0.05
0.00
0.13
0.36
0.66
1.01
1.37
1.72
2.06
2.40
2.79
3.24
3.80
4.42
5.06
5.66
6.20
6.68
7.15
7.68
8.31
9.14
10.09
11.04
11.88
12.56
13.14
13.76
14.65
15.96
17.91
20.32
22.90
25.38
27.58
29.57
31.68
34.32
37.81
42.54
48.15
54.10
59.83
64.97
69.58
74.14
79.34
85.71
93.76
103.00
112.62
121.73
129.77
136.75
143.30
150.75
157.77
166.64
177.95
191.79
206.97
220.57
228.25
225.36
208.53
176.87
132.76
80.05
23.07
-34.94
-92.44
-149.16
-205.23
-260.37
-313.74
-363.87
-409.83
-450.91
-486.50
-515.74
-537.23
-549.22
-549.96
-538.37
-514.21
-478.67
-433.88
-382.45
-327.02
-269.84
-212.63
-156.66
-102.95
-52.37
-5.90
35.58
71.43
101.35
125.50
144.38
158.70
169.15
176.37
180.75
182.57
182.06
179.50
175.24
169.68
163.24
156.21
148.84
141.23
133.47
125.63
117.81
110.11
102.61
95.36
88.36
81.56
74.93
68.50
62.31
56.43
50.96
45.91
41.28
36.95
32.83
28.84
24.96
21.27
17.92
15.04
12.71
10.83
9.19
7.51
5.58
3.38
1.13
-0.79
-2.04
-2.46
-2.24
-1.89
-2.03
-3.10
-5.12
-7.66
-9.93
-11.17
-11.05
-9.84
-8.39
-7.75
-8.70
-11.35
-15.02
-18.52
-20.76
-21.09
-19.68
-17.41
-15.45
-14.94
-16.76
-21.41
-28.58
-36.64
-42.47
-42.12
-32.41
-12.77
13.58
40.19
59.71
67.01
61.39
46.74
29.49
15.54
7.91
6.30
8.39
11.72
14.93
17.80
20.34
22.13
22.41
20.85
17.93
15.15
14.17
15.65
18.66
21.16
21.19
18.12
13.04
8.18
5.64
6.17
8.80
11.49
12.21
10.08
5.75
0.98
-2.26
-2.72
-0.29
3.94
8.50
12.15
14.38
15.38
15.59
15.17
13.80
10.81
5.80
-0.79
-7.51
-12.44
-14.02
-11.89
-7.31
-2.56
0.09
-0.55
-3.98
-8.41
-11.69
-12.35
-10.37
-6.93
-3.69
-1.95
-2.12
-3.84
-6.34
-8.93
-11.18
-12.87
-13.81
-13.69
-12.34
-9.84
-6.73
-3.80
-1.61
-0.20
1.06
2.91
5.57
8.25
9.36
7.36
1.65
-6.97
-16.57
-25.12
-31.26
-34.62
-35.40
-33.67
-29.02
-21.14
-10.58
0.70
10.03
15.60
17.96
20.24
26.40
38.51
54.78
69.58
75.97
69.32
50.04
23.66
-1.67
-19.02
-25.63
-23.33
-16.64
-9.89
-5.26
-2.42
-0.20
2.09
3.82
3.30
-0.85
-8.59
-18.36
-28.13
-36.97
-45.96
-57.71
-74.75
-97.57
-123.67
-148.46
-167.54
-179.33
-186.15
-193.10
-204.99
-223.20
-244.13
-260.35
-263.94
-250.17
-219.34
-176.24
-127.32
-77.71
-29.51
18.06
67.18
119.65
175.69
233.65
290.30
341.53
383.23
412.11
426.64
427.46
417.23
399.81
379.04
357.84
337.94
320.18
304.96
292.48
282.52
274.22
266.15
256.97
246.23
234.89
225.10
219.35
219.20
224.28
231.98
238.14
238.28
228.98
208.87
178.84
141.67
101.04
60.59
23.08
-9.95
-38.06
-61.52
-80.87
-96.66
-109.38
-119.49
-127.58
-134.23
-139.88
-144.60
-148.02
-149.56
-148.79
-145.81
-141.30
-136.25
-131.42
-127.02
-122.68
-117.82
-112.21
-106.15
-100.32
-95.27
-90.95
-86.61
-81.12
-73.61
-63.90
-52.64
-40.97
-30.09
-20.73
-13.04
-6.79
-1.73
2.05
3.99
3.30
-0.65
-7.94
-17.99
-29.85
-42.51
-55.41
-68.51
-82.23
-96.99
-112.88
-129.42
-145.64
-160.35
-172.47
-181.45
-187.37
-190.96
-193.28
-195.33
-197.61
-199.78
-200.85
-199.44
-194.38
-185.17
-172.24
-156.83
-140.68
-125.56
-112.93
-103.71
-98.17
-96.08
-96.84
-99.77
-104.23
-109.85
-116.50
-124.30
-133.52
-144.43
-157.19
-171.88
-188.45
-206.86
-227.11
-249.16
-272.49
-295.70
-316.10
-329.95
-333.35
-323.29
-298.65
-260.39
-211.27
-155.20
-96.60
-39.72
11.90
55.98
91.87
120.39
143.26
162.07
177.68
190.04
198.78
203.87
206.00
206.19
205.08
202.45
197.32
188.65
176.11
160.39
142.95
125.32
108.64
93.37
79.50
66.83
55.13
44.26
34.06
24.46
15.55
7.69
1.28
-3.53
-7.20
-10.77
-15.41
-21.69
-29.06
-35.79
-39.63
-38.72
-32.45
-21.45
-7.09
9.38
27.28
46.06
64.35
79.21
86.41
81.99
64.57
36.82
5.23
-22.20
-39.26
-44.17
-40.13
-33.39
-30.01
-33.12
-42.05
-53.42
-63.45
-69.76
-71.94
-70.90
-68.05
-64.80
-62.59
-62.91
-66.69
-73.29
-79.89
-81.84
-74.42
-55.05
-24.70
12.32
50.27
84.31
112.06
133.59
150.02
162.12
169.60
171.59
167.68
158.68
146.57
133.80
122.37
113.22
106.28
101.04
97.10
94.50
93.63
94.88
98.26
103.11
108.21
112.09
113.53
112.06
108.10
102.75
97.37
92.94
89.74
87.49
85.68
84.08
82.75
81.93
81.65
81.52
80.84
78.95
75.49
70.56
64.48
57.49
49.74
41.30
32.46
23.75
15.84
9.20
3.81
-0.73
-5.00
-9.36
-13.66
-17.42
-20.02
-21.10
-20.80
-19.70
-18.58
-18.04
-18.34
-19.30
-20.53
-21.64
-22.49
-23.25
-24.26
-25.81
-27.98
-30.52
-33.02
-35.06
-36.46
-37.30
-37.90
-38.70
-40.15
-42.60
-46.20
-50.82
-56.02
-61.06
-65.09
-67.33
-67.34
-65.17
-61.23
-56.16
-50.49
-44.55
-38.38
-31.95
-25.28
-18.59
-12.25
-6.61
-1.82
2.22
5.82
9.24
12.56
15.60
18.06
19.73
20.68
21.23
21.82
22.75
24.01
25.30
26.20
26.41
25.96
25.14
24.39
24.08
24.38
25.30
26.68
28.33
30.11
31.85
33.40
34.64
35.44
35.77
35.76
35.72
36.12
37.46
40.03
43.69
47.81
51.41
53.46
53.18
50.31
45.04
37.90
29.46
20.25
10.78
1.58
-6.77
-13.69
-18.84
-22.26
-24.40
-25.91
-27.35
-29.04
-30.93
-32.75
-34.26
-35.40
-36.28
-37.13
-38.11
-39.23
-40.40
-41.48
-42.36
-42.96
-43.18
-42.85
-41.77
-39.81
-36.95
-33.30
-29.03
-24.29
-19.11
-13.54
-7.72
-2.00
3.06
6.85
8.87
8.95
7.27
4.34
0.81
-2.69
-5.64
-7.74
-8.92
-9.24
-8.91
-8.14
-7.13
-6.02
-4.94
-4.02
-3.45
-3.47
-4.29
-6.01
-8.55
-11.72
-15.18
-18.59
-21.60
-23.94
-25.33
-25.52
-24.34
-21.80
-18.13
-13.78
-9.30
-5.17
-1.69
0.99
2.86
3.89
4.11
3.56
2.39
0.84
-0.79
-2.29
-3.55
-4.54
-5.24
-5.59
-5.51
-4.99
-4.20
-3.44
-3.03
-3.21
-3.97
-5.15
-6.51
-7.92
-9.37
-10.99
-12.96
-15.29
-17.84
-20.27
-22.15
-23.09
-22.88
-21.49
-19.14
-16.21
-13.07
-10.07
-7.45
-5.36
-3.87
-3.03
-2.86
-3.24
-3.94
-4.62
-4.92
-4.63
-3.77
-2.56
-1.30
-0.25
0.60
1.39
2.32
3.48
4.75
5.87
6.57
6.71
6.23
5.16
3.51
1.24
-1.58
-4.75
-7.89
-10.46
-11.97
-12.13
-10.90
-8.50
-5.28
-1.65
2.02
5.44
8.38
10.74
12.46
13.56
14.11
14.22
13.99
13.61
13.23
13.03
13.12
13.50
14.04
14.51
14.69
14.41
13.63
12.45
11.00
9.43
7.76
5.96
3.97
1.78
-0.52
-2.81
-4.95
-6.83
-8.39
-9.57
-10.29
-10.43
-9.88
-8.62
-6.68
-4.21
-1.42
1.42
4.04
6.18
7.63
8.29
8.21
7.56
6.61
5.62
4.83
4.44
4.60
5.33
6.54
7.98
9.28
10.06
10.07
9.27
7.90
6.33
4.93
3.93
3.36
3.07
2.85
2.51
2.00
1.40
0.85
0.55
0.67
1.38
2.74
4.68
6.99
9.31
11.22
12.36
12.52
11.72
10.12
7.96
5.54
3.10
0.88
-0.99
-2.45
-3.55
-4.44
-5.25
-5.98
-6.39
-6.13
-4.82
-2.29
1.24
5.12
8.33
9.75
8.42
3.90
-3.61
-13.25
-23.60
-33.12
-40.44
-44.69
-45.65
-43.63
-39.34
-33.58
-27.09
-20.46
-14.12
-8.44
-3.71
-0.12
2.25
3.53
4.11
4.50
5.17
6.38
8.09
9.99
11.76
13.20
14.36
15.46
16.71
18.19
19.82
21.38
22.60
23.19
22.84
21.21
18.03
13.24
7.10
0.17
-6.88
-13.41
-19.05
-23.58
-26.84
-28.59
-28.51
-26.42
-22.38
-16.81
-10.37
-3.78
2.38
7.69
11.87
14.72
16.16
16.30
15.56
14.56
14.00
14.39
15.86
18.14
20.75
23.16
25.02
26.16
26.52
26.02
24.59
22.09
18.52
14.05
9.02
3.79
-1.38
-6.33
-10.95
-15.04
-18.23
-20.11
-20.36
-18.94
-16.12
-12.30
-7.91
-3.16
1.85
7.03
12.22
17.07
21.19
24.22
25.96
26.39
25.71
24.27
22.49
20.84
19.63
18.99
18.85
19.03
19.36
19.70
20.00
20.13
19.95
19.26
17.94
16.03
13.71
11.26
8.94
6.89
5.17
3.82
2.89
2.44
2.50
2.95
3.60
4.25
4.80
5.37
6.23
7.57
9.42
11.52
13.46
14.89
15.68
15.99
16.13
16.32
16.57
16.67
16.30
15.24
13.49
11.21
8.67
6.08
3.48
0.78
-2.25
-5.85
-10.21
-15.36
-21.09
-26.94
-32.25
-36.23
-38.22
-37.76
-34.76
-29.48
-22.54
-14.75
-7.06
-0.28
4.98
8.48
10.37
11.08
11.16
11.00
10.79
10.47
9.87
8.82
7.29
5.33
3.08
0.66
-1.80
-4.22
-6.53
-8.72
-10.87
-13.14
-15.74
-18.83
-22.40
-26.24
-29.88
-32.71
-34.08
-33.50
-30.72
-25.90
-19.52
-12.28
-4.94
1.92
7.89
12.77
16.49
19.08
20.57
21.05
20.65
19.54
17.96
16.14
14.31
12.64
11.23
10.08
9.14
8.30
7.53
6.81
6.18
5.61
4.99
4.11
2.76
0.83
-1.68
-4.55
-7.46
-9.97
-11.67
-12.27
-11.66
-9.99
-7.60
-4.87
-2.08
0.65
3.31
5.86
8.11
9.76
10.57
10.49
9.80
8.92
8.26
8.01
8.05
8.12
7.96
7.48
6.76
5.97
5.25
4.60
3.91
3.04
1.88
0.34
-1.61
-4.02
-6.88
-10.11
-13.47
-16.57
-18.98
-20.37
-20.65
-20.03
-18.88
-17.61
-16.46
-15.51
-14.69
-14.00
-13.48
-13.32
-13.70
-14.73
-16.35
-18.40
-20.62
-22.71
-24.33
-25.14
-24.88
-23.37
-20.67
-17.00
-12.72
-8.23
-3.89
-0.05
2.97
4.92
5.60
5.00
3.34
1.03
-1.39
-3.42
-4.69
-5.02
-4.42
-3.02
-1.03
1.28
3.64
5.80
7.64
9.12
10.29
11.16
11.65
11.54
10.62
8.83
6.39
3.80
1.69
0.56
0.61
1.70
3.42
5.27
6.86
7.92
8.31
8.03
7.09
5.56
3.54
1.14
-1.57
-4.55
-7.75
-11.09
-14.37
-17.26
-19.39
-20.43
-20.16
-18.58
-15.87
-12.34
-8.37
-4.34
-0.57
2.65
5.01
6.24
6.16
4.74
2.22
-0.96
-4.18
-6.90
-8.79
-9.82
-10.19
-10.21
-10.06
-9.84
-9.51
-9.05
-8.55
-8.16
-8.02
-8.18
-8.54
-8.99
-9.46
-10.02
-10.81
-11.96
-13.40
-14.87
-15.92
-16.15
-15.29
-13.35
-10.64
-7.66
-4.97
-2.97
-1.85
-1.50
-1.63
-1.81
-1.68
-1.03
0.17
1.82
3.71
5.61
7.36
8.91
10.25
11.47
12.58
13.60
14.42
14.97
15.17
14.99
14.41
13.45
12.09
10.38
8.41
6.35
4.38
2.69
1.40
0.58
0.30
0.63
1.64
3.37
5.81
8.84
12.31
16.06
19.90
23.56
26.73
29.03
30.07
29.59
27.52
24.16
20.06
16.00
12.80
11.03
10.87
11.98
13.53
14.46
13.78
10.98
6.15
0.09
-5.87
-10.31
-12.05
-10.65
-6.54
-0.98
4.27
7.55
7.89
5.24
0.52
-4.76
-8.96
-10.75
-9.29
-4.41
3.41
13.10
23.01
31.27
36.17
36.73
33.02
26.23
18.24
11.01
6.01
3.83
4.24
6.35
9.05
11.25
12.10
11.14
8.30
3.93
-1.31
-6.50
-10.80
-13.60
-14.71
-14.44
-13.50
-12.72
-12.78
-13.97
-16.10
-18.62
-20.88
-22.33
-22.74
-22.18
-20.89
-19.11
-16.95
-14.39
-11.34
-7.80
-3.95
-0.26
2.63
3.99
3.23
0.02
-5.55
-12.86
-20.83
-27.99
-32.83
-34.18
-31.60
-25.52
-17.10
-7.77
1.16
8.92
15.30
20.46
24.64
27.91
30.06
30.81
29.90
27.27
23.18
18.10
12.69
7.60
3.32
0.07
-2.19
-3.59
-4.26
-4.14
-3.10
-1.06
1.78
4.87
7.44
8.74
8.42
6.80
4.81
3.70
4.59
8.01
13.67
20.54
27.21
32.38
35.22
35.49
33.53
29.95
25.44
20.51
15.43
10.23
4.78
-1.05
-7.25
-13.51
-19.27
-23.83
-26.68
-27.66
-27.04
-25.41
-23.41
-21.52
-19.92
-18.53
-17.23
-15.90
-14.55
-13.29
-12.17
-11.16
-10.09
-8.74
-6.92
-4.60
-1.87
1.08
4.05
6.84
9.30
11.28
12.67
13.40
13.51
13.15
12.49
11.67
10.69
9.47
7.82
5.58
2.62
-1.12
-5.58
-10.52
-15.47
-19.80
-22.83
-24.07
-23.46
-21.34
-18.41
-15.46
-13.08
-11.56
-10.85
-10.72
-10.86
-11.12
-11.43
-11.83
-12.36
-12.98
-13.54
-13.84
-13.70
-13.09
-12.10
-10.90
-9.65
-8.46
-7.32
-6.23
-5.20
-4.32
-3.70
-3.44
-3.59
-4.13
-5.04
-6.33
-8.01
-10.05
-12.33
-14.60
-16.47
-17.56
-17.54
-16.31
-13.99
-10.92
-7.56
-4.37
-1.68
0.40
1.94
3.17
4.35
5.60
6.93
8.11
8.85
8.83
7.85
5.91
3.27
0.38
-2.19
-3.98
-4.72
-4.44
-3.42
-2.10
-0.87
0.00
0.41
0.31
-0.35
-1.63
-3.63
-6.22
-9.13
-11.88
-13.99
-15.11
-15.16
-14.23
-12.50
-10.10
-7.08
-3.48
0.53
4.65
8.48
11.67
13.97
15.39
16.01
15.95
15.29
14.04
12.27
10.09
7.72
5.39
3.28
1.46
-0.04
-1.18
-1.87
-2.00
-1.62
-0.99
-0.64
-1.18
-3.02
-6.17
-10.22
-14.40
-17.86
-19.99
-20.51
-19.58
-17.61
-15.13
-12.49
-9.89
-7.29
-4.54
-1.56
1.59
4.64
7.29
9.29
10.62
11.43
12.01
12.57
13.17
13.72
14.01
13.86
13.18
12.09
10.86
9.85
9.35
9.43
9.89
10.27
10.06
8.86
6.57
3.36
-0.31
-3.89
-6.87
-8.85
-9.59
-9.03
-7.28
-4.57
-1.23
2.39
6.03
9.45
12.50
15.08
17.14
18.63
19.58
20.05
20.13
19.94
19.49
18.80
17.80
16.48
14.83
12.89
10.76
8.56
6.40
4.31
2.27
0.10
-2.38
-5.34
-8.87
-12.90
-17.22
-21.49
-25.27
-28.05
-29.36
-28.84
-26.37
-22.17
-16.79
-11.00
-5.58
-1.13
2.08
4.06
5.06
5.34
5.14
4.56
3.63
2.42
1.08
-0.15
-0.96
-1.19
-0.81
-0.04
0.79
1.34
1.48
1.25
0.83
0.45
0.21
0.06
-0.15
-0.63
-1.58
-3.14
-5.30
-7.84
-10.31
-12.12
-12.76
-11.91
-9.65
-6.41
-2.78
0.65
3.54
5.78
7.44
8.66
9.55
10.12
10.32
10.09
9.37
8.27
6.98
5.76
4.83
4.22
3.81
3.38
2.80
2.09
1.47
1.13
1.14
1.29
1.22
0.59
-0.76
-2.73
-5.01
-7.30
-9.39
-11.12
-12.38
-12.95
-12.57
-11.06
-8.48
-5.21
-1.83
1.06
3.15
4.43
5.13
5.55
5.88
6.08
6.01
5.52
4.59
3.32
1.93
0.57
-0.59
-1.48
-2.01
-2.15
-1.89
-1.32
-0.59
0.12
0.63
0.79
0.45
-0.46
-1.93
-3.80
-5.80
-7.59
-8.87
-9.48
-9.38
-8.62
-7.24
-5.24
-2.64
0.52
4.05
7.69
11.19
14.33
16.94
18.92
20.14
20.53
20.13
19.10
17.76
16.40
15.24
14.32
13.58
12.91
12.23
11.59
11.06
10.69
10.41
10.08
9.54
8.72
7.61
6.27
4.75
3.07
1.24
-0.61
-2.24
-3.35
-3.67
-3.12
-1.90
-0.34
1.16
2.37
3.28
4.00
4.64
5.16
5.46
5.41
5.06
4.60
4.32
4.41
4.85
5.44
5.93
6.14
6.09
5.90
5.70
5.55
5.40
5.11
4.54
3.51
1.89
-0.46
-3.57
-7.32
-11.41
-15.42
-18.88
-21.39
-22.71
-22.69
-21.34
-18.79
-15.28
-11.22
-7.00
-2.98
0.66
3.81
6.40
8.28
9.25
9.23
8.37
7.03
5.71
4.76
4.28
4.07
3.82
3.32
2.57
1.70
0.83
-0.08
-1.18
-2.61
-4.38
-6.35
-8.37
-10.45
-12.84
-15.82
-19.53
-23.69
-27.66
-30.60
-31.86
-31.27
-29.11
-26.00
-22.55
-19.15
-15.96
-13.03
-10.43
-8.30
-6.84
-6.12
-6.05
-6.40
-6.87
-7.24
-7.34
-7.06
-6.29
-4.85
-2.50
1.03
5.94
12.22
19.62
27.56
35.22
41.70
46.32
48.77
49.17
47.94
45.58
42.45
38.80
34.84
30.89
27.35
24.58
22.76
21.74
21.13
20.48
19.46
17.96
16.00
13.62
10.69
7.04
2.51
-2.81
-8.56
-14.19
-19.04
-22.60
-24.57
-24.90
-23.77
-21.53
-18.62
-15.53
-12.70
-10.48
-9.07
-8.48
-8.63
-9.38
-10.62
-12.35
-14.62
-17.46
-20.79
-24.33
-27.66
-30.25
-31.60
-31.40
-29.58
-26.39
-22.30
-17.89
-13.64
-9.84
-6.52
-3.51
-0.62
2.16
4.55
6.07
6.21
4.69
1.70
-2.12
-5.87
-8.65
-9.81
-9.15
-6.86
-3.35
0.88
5.41
9.90
14.12
17.81
20.66
22.29
22.32
20.58
17.23
12.81
8.24
4.52
2.47
2.51
4.58
8.22
12.85
17.89
22.89
27.50
31.42
34.32
35.89
35.95
34.56
32.11
29.18
26.40
24.25
22.89
22.17
21.72
21.14
20.20
18.86
17.24
15.45
13.50
11.22
8.39
4.86
0.66
-4.02
-8.90
-13.80
-18.69
-23.64
-28.58
-33.22
-36.95
-39.09
-39.11
-36.95
-33.00
-27.92
-22.43
-17.00
-11.85
-7.03
-2.66
1.07
3.88
5.55
6.08
5.69
4.70
3.40
1.95
0.30
-1.62
-3.89
-6.45
-9.12
-11.70
-13.99
-15.88
-17.34
-18.46
-19.37
-20.19
-20.99
-21.72
-22.32
-22.71
-22.93
-23.13
-23.50
-24.05
-24.57
-24.58
-23.54
-21.14
-17.42
-12.80
-7.89
-3.29
0.61
3.64
5.73
6.90
7.13
6.52
5.25
3.59
1.80
-0.04
-2.06
-4.55
-7.75
-11.61
-15.85
-20.04
-23.83
-27.19
-30.42
-34.04
-38.42
-43.54
-48.88
-53.53
-56.55
-57.23
-55.19
-50.42
-43.01
-33.12
-20.84
-6.41
9.68
26.64
43.44
59.03
72.55
83.42
91.27
95.92
97.27
95.39
90.70
84.02
76.60
69.83
64.88
62.29
61.73
62.04
61.65
59.09
53.52
44.95
34.20
22.53
11.30
1.53
-6.21
-11.80
-15.53
-17.84
-19.25
-20.15
-20.69
-20.74
-19.89
-17.66
-13.80
-8.48
-2.31
3.80
8.99
12.69
14.82
15.68
15.74
15.52
15.35
15.38
15.61
15.91
15.99
15.50
14.05
11.44
7.78
3.53
-0.52
-3.64
-5.37
-5.78
-5.41
-5.03
-5.37
-6.85
-9.48
-13.02
-17.07
-21.17
-24.86
-27.73
-29.44
-29.85
-29.09
-27.54
-25.70
-24.02
-22.79
-22.05
-21.70
-21.54
-21.34
-20.81
-19.67
-17.71
-14.86
-11.27
-7.36
-3.64
-0.56
1.59
2.71
2.88
2.20
0.81
-1.21
-3.75
-6.71
-9.95
-13.32
-16.60
-19.49
-21.60
-22.51
-21.87
-19.55
-15.70
-10.75
-5.28
0.12
5.04
9.27
12.73
15.52
17.77
19.71
21.56
23.53
25.73
28.10
30.40
32.20
33.01
32.47
30.45
27.13
22.96
18.51
14.26
10.48
7.15
4.09
1.13
-1.78
-4.50
-6.90
-8.97
-10.96
-13.32
-16.46
-20.52
-25.19
-29.79
-33.52
-35.75
-36.23
-35.13
-32.87
-29.85
-26.22
-21.90
-16.66
-10.44
-3.53
3.44
9.57
14.07
16.43
16.60
14.96
12.18
9.05
6.27
4.33
3.37
3.08
2.82
1.84
-0.45
-4.22
-9.12
-14.54
-19.85
-24.61
-28.71
-32.27
-35.45
-38.27
-40.60
-42.08
-42.24
-40.66
-37.10
-31.59
-24.52
-16.46
-8.06
0.14
7.76
14.56
20.28
24.56
27.08
27.67
26.53
24.28
21.77
19.82
18.95
19.21
20.29
21.69
22.98
23.88
24.34
24.41
24.14
23.51
22.42
20.75
18.40
15.32
11.51
7.05
2.14
-2.81
-7.23
-10.42
-11.86
-11.33
-9.02
-5.51
-1.46
2.52
6.08
9.06
11.41
13.00
13.75
13.55
12.40
10.44
7.87
4.97
2.12
-0.23
-1.61
-1.74
-0.60
1.43
3.75
5.78
7.19
7.89
7.96
7.38
5.93
3.35
-0.54
-5.51
-10.97
-16.18
-20.47
-23.47
-25.14
-25.63
-25.05
-23.45
-20.75
-16.93
-12.17
-6.81
-1.34
3.69
7.84
10.83
12.53
13.01
12.46
11.22
9.65
8.11
6.85
5.94
5.32
4.81
4.23
3.49
2.56
1.50
0.39
-0.70
-1.77
-2.86
-4.11
-5.72
-7.88
-10.66
-13.96
-17.40
-20.41
-22.41
-22.94
-21.89
-19.42
-15.97
-12.06
-8.10
-4.37
-0.97
2.09
4.78
7.02
8.64
9.45
9.37
8.57
7.37
6.18
5.30
4.81
4.57
4.34
4.01
3.60
3.32
3.32
3.59
3.92
3.99
3.49
2.30
0.43
-2.08
-5.19
-8.91
-13.13
-17.47
-21.25
-23.65
-23.97
-21.98
-18.00
-12.78
-7.24
-2.13
2.17
5.60
8.28
10.31
11.69
12.33
12.19
11.34
10.02
8.55
7.21
6.19
5.52
5.15
4.96
4.82
4.58
4.14
3.45
2.45
1.12
-0.52
-2.45
-4.63
-6.99
-9.50
-12.18
-15.12
-18.46
-22.23
-26.08
-29.38
-31.22
-30.82
-27.82
-22.56
-15.95
-9.15
-3.16
1.48
4.72
6.83
8.18
9.02
9.49
9.64
9.53
9.24
8.93
8.78
8.97
9.60
10.68
12.03
13.38
14.45
15.05
15.17
14.99
14.73
14.51
14.26
13.70
12.43
10.11
6.59
2.00
-3.29
-8.74
-13.76
-17.84
-20.56
-21.67
-21.10
-18.98
-15.68
-11.72
-7.65
-3.91
-0.78
1.65
3.38
4.37
4.52
3.77
2.17
0.04
-2.18
-3.99
-5.12
-5.55
-5.52
-5.34
-5.29
-5.43
-5.68
-5.84
-5.74
-5.38
-4.90
-4.60
-4.81
-5.80
-7.62
-10.10
-12.89
-15.53
-17.48
-18.35
-17.84
-15.87
-12.62
-8.41
-3.70
1.04
5.47
9.39
12.72
15.41
17.42
18.67
19.08
18.66
17.53
15.98
14.37
13.07
12.31
12.15
12.44
12.92
13.31
13.42
13.21
12.74
12.12
11.44
10.71
9.84
8.70
7.10
4.81
1.67
-2.35
-7.00
-11.80
-16.00
-18.85
-19.80
-18.69
-15.83
-11.83
-7.44
-3.32
0.11
2.65
4.32
5.23
5.48
5.10
4.01
2.18
-0.38
-3.45
-6.65
-9.56
-11.84
-13.47
-14.70
-15.98
-17.72
-20.19
-23.39
-27.17
-31.30
-35.56
-39.63
-43.07
-45.31
-45.78
-44.14
-40.44
-35.13
-28.91
-22.45
-16.15
-10.01
-3.76
2.96
10.34
18.31
26.52
34.52
41.90
48.36
53.72
57.84
60.58
61.79
61.46
59.69
56.77
53.10
49.06
44.96
40.97
37.09
33.28
29.43
25.50
21.46
17.30
13.05
8.70
4.21
-0.42
-5.15
-9.86
-14.35
-18.45
-22.03
-25.08
-27.62
-29.66
-31.04
-31.51
-30.77
-28.62
-25.05
-20.31
-14.81
-8.96
-3.12
2.51
7.80
12.68
17.02
20.71
23.60
25.62
26.76
27.17
27.05
26.62
26.05
25.43
24.73
23.91
22.93
21.82
20.65
19.52
18.44
17.33
16.01
14.26
11.82
8.57
4.41
-0.61
-6.30
-12.31
-18.16
-23.31
-27.24
-29.57
-30.11
-28.94
-26.34
-22.71
-18.48
-14.03
-9.64
-5.52
-1.82
1.33
3.82
5.58
6.69
7.36
7.80
8.22
8.60
8.86
8.83
8.48
7.91
7.38
7.11
7.22
7.69
8.36
9.04
9.53
9.56
8.78
6.73
3.05
-2.31
-8.92
-15.92
-22.24
-26.98
-29.74
-30.62
-30.13
-28.86
-27.23
-25.40
-23.43
-21.42
-19.65
-18.53
-18.41
-19.41
-21.37
-23.88
-26.44
-28.53
-29.75
-29.93
-29.13
-27.77
-26.45
-25.81
-26.08
-26.90
-27.25
-25.83
-21.56
-14.14
-4.29
6.32
15.56
21.39
22.50
18.70
11.06
1.63
-7.10
-12.89
-14.32
-11.12
-4.02
5.62
16.34
26.92
36.62
45.03
51.98
57.31
60.76
62.03
60.87
57.35
51.99
45.72
39.66
34.73
31.30
29.06
27.23
24.91
21.60
17.31
12.59
8.17
4.65
2.29
0.91
0.15
-0.46
-1.35
-2.81
-4.99
-7.88
-11.27
-14.69
-17.46
-18.86
-18.34
-15.77
-11.44
-6.10
-0.61
4.22
7.87
10.11
10.95
10.46
8.76
6.03
2.54
-1.31
-4.96
-7.87
-9.72
-10.41
-10.10
-9.05
-7.46
-5.36
-2.71
0.46
3.93
7.27
10.04
11.88
12.66
12.38
11.09
8.78
5.38
0.95
-4.25
-9.60
-14.29
-17.48
-18.58
-17.37
-14.03
-9.07
-3.08
3.33
9.67
15.57
20.75
24.97
27.91
29.16
28.31
25.06
19.47
12.06
3.77
-4.23
-10.92
-15.70
-18.53
-19.74
-19.77
-18.90
-17.21
-14.76
-11.76
-8.63
-5.80
-3.56
-1.84
-0.43
0.81
1.66
1.68
0.54
-1.54
-3.68
-4.59
-3.23
0.58
6.08
11.79
16.25
18.52
18.43
16.33
12.66
7.70
1.50
-5.80
-13.72
-21.33
-27.46
-31.15
-32.00
-30.26
-26.64
-21.97
-16.81
-11.46
-6.02
-0.75
3.77
6.66
7.02
4.34
-1.21
-8.74
-16.94
-24.54
-30.75
-35.40
-38.79
-41.29
-43.01
-43.66
-42.71
-39.75
-34.82
-28.41
-21.28
-14.13
-7.39
-1.10
4.86
10.55
15.85
20.47
24.09
26.60
28.11
28.88
29.11
28.71
27.31
24.37
19.50
12.79
4.86
-3.24
-10.46
-16.15
-20.31
-23.48
-26.43
-29.78
-33.71
-38.00
-42.10
-45.41
-47.37
-47.55
-45.62
-41.44
-35.14
-27.19
-18.42
-9.76
-2.00
4.52
9.98
14.94
20.01
25.43
30.95
35.92
39.60
41.54
41.83
41.02
39.86
39.04
39.07
40.24
42.62
46.05
49.90
53.05
54.02
51.44
44.59
33.80
20.34
6.02
-7.45
-18.87
-27.61
-33.46
-36.37
-36.38
-33.73
-28.90
-22.71
-16.05
-9.67
-4.04
0.66
4.40
7.11
8.69
9.09
8.50
7.39
6.45
6.35
7.45
9.58
12.11
14.17
15.00
14.26
12.15
9.28
6.40
4.11
2.73
2.27
2.54
3.27
4.13
4.70
4.57
3.42
1.24
-1.47
-3.78
-4.60
-3.03
1.29
8.07
16.52
25.54
33.98
40.82
45.28
46.92
45.75
42.18
37.01
31.17
25.48
20.52
16.50
13.31
10.58
7.76
4.23
-0.51
-6.64
-13.96
-21.88
-29.70
-36.95
-43.58
-50.03
-56.97
-65.06
-74.60
-85.41
-96.86
-108.02
-117.93
-125.86
-131.48
-134.83
-136.16
-135.67
-133.41
-129.29
-123.22
-115.14
-105.02
-92.72
-78.03
-60.80
-41.19
-19.93
1.72
22.24
40.35
55.37
67.27
76.57
83.95
90.03
95.18
99.57
103.09
105.47
106.27
105.07
101.52
95.56
87.38
77.52
66.81
56.29
47.07
40.15
36.09
34.83
35.68
37.62
39.64
41.15
42.03
42.54
42.92
43.23
43.27
42.73
41.43
39.48
37.22
35.03
33.23
31.94
31.21
31.06
31.54
32.65
34.25
35.99
37.26
37.32
35.51
31.48
25.26
17.22
7.83
-2.51
-13.56
-25.05
-36.58
-47.41
-56.61
-63.35
-67.10
-67.83
-65.89
-61.79
-56.04
-49.21
-42.03
-35.51
-30.77
-28.60
-29.13
-31.64
-34.81
-37.23
-38.04
-37.28
-35.96
-35.68
-38.08
-44.16
-54.01
-66.64
-80.34
-93.16
-103.47
-110.24
-113.11
-112.25
-108.02
-100.79
-90.92
-78.92
-65.56
-51.93
-39.19
-28.35
-19.85
-13.38
-7.84
-1.57
7.47
21.21
41.08
67.56
99.69
134.82
168.81
196.81
214.51
219.58
212.60
196.99
177.86
160.19
147.08
138.85
133.37
127.52
118.80
106.51
91.71
76.21
61.22
46.57
30.97
13.09
-7.16
-28.02
-46.45
-59.41
-65.27
-64.49
-59.18
-51.97
-44.81
-38.33
-32.04
-25.26
-17.90
-11.07
-6.50
-5.53
-8.29
-13.41
-18.55
-21.47
-21.01
-17.61
-13.30
-10.56
-11.15
-15.39
-22.28
-30.26
-38.16
-45.79
-53.56
-62.16
-71.06
-77.82
-78.76
-70.83
-53.45
-29.50
-4.43
15.86
26.08
24.27
12.32
-5.47
-24.76
-42.82
-58.17
-69.08
-71.89
-64.32
-43.83
-7.97
44.87
113.75
194.08
278.09
356.03
419.05
455.88
459.48
430.43
377.19
311.91
245.27
183.58
128.21
78.80
27.86
-31.24
-100.75
-177.84
-257.89
-337.87
-416.76
-495.33
-542.69
-536.05
-472.50
-372.60
-263.14
-161.09
-71.85
5.59
63.99
110.03
142.10
157.01
154.52
139.34
118.50
96.24
79.38
68.12
61.22
50.52
28.74
-7.19
-54.72
-107.23
-157.74
-199.15
-225.72
-232.36
-222.57
-205.26
-192.55
-194.67
-215.12
-250.59
-289.71
-316.59
-315.12
-278.27
-208.51
-116.52
-16.69
78.12
156.01
209.95
238.44
249.71
251.52
250.84
250.57
244.20
230.87
209.71
180.09
144.41
103.39
55.62
-1.03
-68.34
-145.80
-214.80
-259.32
-271.19
-253.72
-217.75
-175.41
-135.86
-104.57
-83.38
-70.61
-66.00
-68.83
-76.83
-85.64
-89.36
-82.20
-61.04
-26.92
15.30
56.15
87.01
103.79
108.12
105.31
100.93
97.77
95.44
92.32
86.19
77.28
68.41
63.51
65.58
75.65
92.56
113.85
136.11
154.52
164.23
161.06
142.89
110.73
69.15
24.65
-16.66
-51.26
-79.36
-103.26
-126.31
-150.75
-176.15
-198.58
-212.18
-211.35
-193.35
-159.54
-113.90
-63.06
-14.05
27.75
60.59
85.52
105.19
122.11
138.90
160.47
192.19
238.38
296.42
360.27
420.30
466.10
489.40
478.21
432.95
365.33
292.59
228.88
180.18
144.34
116.03
89.79
63.38
39.47
19.42
2.55
-13.71
-32.32
-55.62
-84.36
-119.44
-161.18
-209.18
-259.37
-310.73
-364.54
-422.79
-487.19
-545.52
-587.42
-607.24
-604.80
-583.17
-545.58
-493.15
-426.20
-347.41
-263.11
-182.74
-114.89
-63.57
-26.89
-0.06
21.16
39.83
55.44
65.88
70.91
72.86
76.18
85.72
103.38
127.55
154.18
178.15
195.92
209.97
226.97
251.79
289.53
342.21
408.65
485.60
567.40
635.63
674.14
670.14
618.95
527.52
411.04
287.71
173.06
79.68
1.42
-68.71
-136.05
-202.74
-267.18
-326.39
-377.82
-411.28
-420.15
-404.89
-370.47
-326.37
-281.86
-241.94
-207.81
-178.59
-153.16
-132.54
-118.47
-109.32
-101.59
-92.00
-77.85
-59.75
-41.11
-25.87
-17.90
-18.92
-26.49
-35.75
-41.02
-37.55
-23.79
-2.41
19.84
31.64
22.32
-12.83
-69.79
-136.11
-195.19
-232.96
-242.93
-227.75
-196.98
-161.75
-129.97
-104.73
-85.19
-68.90
-53.77
-38.05
-19.43
5.77
42.09
92.65
156.20
225.47
287.77
328.01
333.93
300.86
234.11
147.77
60.17
-12.30
-59.92
-81.63
-83.39
-74.27
-62.43
-52.63
-45.91
-41.00
-36.20
-30.36
-22.98
-13.57
-0.59
18.43
45.84
82.02
123.86
164.77
196.44
212.33
210.62
195.08
173.07
151.77
134.69
120.56
105.05
84.23
57.41
27.82
0.93
-18.31
-27.72
-28.47
-23.90
-17.73
-12.48
-8.83
-5.50
0.28
11.93
32.49
63.67
105.01
153.60
204.37
251.06
287.57
309.22
313.72
301.25
274.04
235.38
188.61
136.67
81.98
26.25
-29.67
-85.79
-142.19
-197.61
-248.10
-287.01
-306.97
-303.33
-277.16
-235.87
-190.79
-152.72
-128.25
-118.76
-122.20
-136.05
-159.08
-190.63
-228.54
-267.59
-300.20
-319.37
-321.91
-309.82
-288.93
-265.73
-244.08
-223.77
-201.48
-173.15
-136.50
-92.41
-44.65
1.61
41.72
73.20
96.25
113.28
127.52
141.44
155.80
169.59
180.81
187.44
188.21
182.83
171.85
156.47
138.56
120.62
105.34
94.79
89.57
88.35
88.28
86.03
79.08
66.44
48.60
26.98
3.17
-21.28
-44.76
-65.34
-80.83
-89.30
-89.89
-83.31
-71.72
-57.96
-44.46
-32.35
-21.24
-9.96
2.45
15.78
28.33
37.63
41.50
39.10
31.27
20.10
8.10
-2.42
-9.57
-11.82
-8.07
1.76
16.00
30.94
41.80
44.58
38.06
24.65
9.51
-1.95
-6.62
-5.12
-1.07
1.12
-1.33
-8.32
-17.41
-25.50
-30.56
-32.31
-31.81
-30.20
-27.81
-24.10
-18.22
-9.99
-0.39
8.69
15.27
18.17
17.50
14.48
10.81
7.95
6.57
6.50
7.05
7.45
7.27
6.58
5.89
5.92
7.30
10.25
14.42
18.84
22.21
23.29
21.44
16.96
11.03
5.16
0.54
-2.45
-4.22
-5.38
-6.07
-5.60
-2.74
3.53
13.33
25.65
38.92
51.73
63.50
74.33
84.34
93.14
99.81
103.50
104.29
103.32
102.17
101.74
101.45
99.44
93.82
83.94
70.94
57.20
45.02
35.45
28.04
21.42
14.35
6.39
-2.13
-10.66
-18.95
-27.16
-35.59
-44.30
-52.91
-60.68
-66.74
-70.42
-71.20
-68.83
-63.26
-54.74
-44.01
-32.29
-21.16
-12.11
-6.12
-3.20
-2.49
-2.70
-2.80
-2.54
-2.45
-3.34
-5.60
-8.67
-11.27
-12.12
-10.72
-7.56
-3.59
0.69
5.71
12.47
21.42
31.46
39.95
43.94
41.88
34.69
25.51
17.91
14.08
13.68
14.34
13.34
9.30
3.05
-2.90
-5.71
-3.51
3.96
15.53
29.42
44.01
58.22
71.48
83.44
93.62
101.24
105.47
105.84
102.71
97.44
92.05
88.57
88.24
91.05
95.63
99.83
101.38
98.61
90.86
78.47
62.56
44.60
26.09
8.27
-8.06
-22.59
-35.48
-47.26
-58.62
-70.26
-82.64
-95.74
-108.85
-120.57
-129.06
-132.60
-130.21
-122.10
-109.69
-95.25
-81.13
-69.17
-60.21
-54.01
-49.57
-45.60
-41.02
-35.37
-28.86
-22.16
-16.06
-11.00
-6.88
-3.20
0.66
4.96
9.44
13.35
15.79
16.12
14.19
10.34
5.19
-0.71
-7.04
-13.70
-20.60
-27.35
-33.25
-37.49
-39.58
-39.65
-38.44
-36.94
-35.85
-35.20
-34.30
-32.17
-28.00
-21.53
-13.20
-3.97
5.06
12.96
19.22
23.81
27.05
29.41
31.20
32.53
33.29
33.37
32.76
31.61
30.17
28.59
26.82
24.56
21.39
16.88
10.77
3.00
-6.20
-16.31
-26.55
-35.89
-43.27
-47.80
-49.01
-47.08
-42.75
-37.10
-31.13
-25.32
-19.54
-13.11
-5.21
4.69
16.52
29.68
43.28
56.44
68.50
79.00
87.59
93.96
97.85
99.20
98.22
95.37
91.16
85.92
79.51
71.34
60.73
47.39
32.00
16.26
2.44
-7.48
-12.68
-13.93
-13.27
-13.16
-15.53
-21.14
-29.55
-39.64
-50.23
-60.55
-70.31
-79.45
-87.77
-94.79
-99.74
-101.81
-100.43
-95.45
-87.27
-76.74
-64.95
-53.01
-41.87
-32.28
-24.75
-19.59
-16.90
-16.56
-18.08
-20.64
-23.20
-24.75
-24.56
-22.36
-18.41
-13.31
-7.77
-2.45
2.10
5.42
7.10
6.90
4.81
1.20
-3.25
-7.67
-11.29
-13.56
-14.29
-13.61
-11.92
-9.88
-8.27
-7.85
-9.04
-11.68
-14.94
-17.51
-18.07
-15.81
-10.69
-3.48
4.60
12.36
18.95
23.98
27.40
29.29
29.75
28.96
27.19
24.87
22.59
20.83
19.94
19.95
20.67
21.73
22.79
23.54
23.78
23.45
22.51
21.05
19.17
17.01
14.78
12.64
10.67
8.83
7.04
5.21
3.24
1.09
-1.35
-4.03
-6.87
-9.57
-11.62
-12.36
-11.20
-7.84
-2.48
4.20
11.51
18.77
25.52
31.55
36.78
41.07
44.15
45.72
45.52
44.25
42.86
42.39
43.62
46.74
51.35
56.68
61.82
65.97
69.89
74.54
80.74
88.79
98.31
108.45
118.30
127.12
134.46
142.13
151.82
164.61
180.46
198.21
216.14
232.89
248.04
262.16
279.35
303.61
337.75
382.45
435.98
494.91
555.54
615.11
654.18
658.13
617.36
530.91
407.41
261.87
110.34
-34.29
-163.76
-273.93
-360.92
-423.24
-461.76
-479.70
-482.07
-474.43
-461.68
-447.32
-433.60
-419.71
-404.49
-386.98
-366.90
-344.92
-322.35
-300.63
-280.99
-264.25
-249.45
-235.28
-220.39
-203.84
-185.48
-166.02
-146.70
-128.97
-114.00
-101.86
-92.10
-83.92
-76.52
-69.48
-62.69
-56.30
-50.49
-45.36
-40.71
-36.29
-31.83
-27.15
-22.22
-17.21
-12.40
-8.13
-4.71
-2.26
-0.71
0.27
1.07
2.03
3.26
4.71
6.20
7.51
8.58
9.19
9.25
8.65
7.39
5.38
2.76
-0.13
-2.87
-4.99
-6.20
-6.44
-5.94
-5.16
-4.61
-4.60
-5.21
-6.32
-7.64
-8.94
-10.07
-11.00
-11.77
-12.42
-12.91
-13.18
-13.10
-12.58
-11.55
-9.97
-7.93
-5.62
-3.34
-1.41
-0.13
0.37
0.07
-0.83
-2.02
-3.10
-3.78
-3.89
-3.48
-2.75
-1.90
-1.09
-0.33
0.42
1.28
2.33
3.68
5.42
7.70
10.62
14.19
18.18
22.20
25.73
28.28
29.46
29.00
26.82
23.15
18.48
13.59
9.30
6.17
4.24
3.29
2.52
0.89
-2.51
-8.05
-15.42
-23.66
-31.46
-37.59
-41.17
-42.05
-40.73
-38.13
-35.39
-33.43
-32.76
-33.35
-34.72
-36.22
-37.31
-37.76
-37.68
-37.34
-37.01
-36.67
-36.04
-34.65
-32.11
-28.36
-23.68
-18.62
-13.79
-9.67
-6.53
-4.38
-3.07
-2.35
-1.92
-1.51
-0.87
0.17
1.67
3.61
5.88
8.35
10.87
13.25
15.35
17.10
18.56
19.86
21.19
22.64
24.16
25.48
26.25
26.20
25.22
23.45
21.21
18.87
16.69
14.83
13.29
12.05
11.08
10.46
10.34
10.92
12.38
14.77
17.97
21.62
25.20
28.07
29.73
29.93
28.75
26.54
23.73
20.71
17.65
14.60
11.57
8.64
6.03
4.03
2.87
2.58
2.98
3.75
4.58
5.28
5.79
6.10
6.18
5.94
5.36
4.53
3.66
3.03
2.71
2.54
2.08
0.79
-1.69
-5.40
-9.95
-14.72
-18.94
-21.94
-23.27
-22.76
-20.54
-16.97
-12.61
-8.05
-3.82
-0.28
2.40
4.23
5.33
5.93
6.35
7.03
8.41
10.83
14.41
18.93
23.89
28.62
32.52
35.24
36.72
37.14
36.85
36.22
35.58
35.13
34.93
34.80
34.44
33.47
31.62
28.85
25.36
21.42
17.18
12.45
6.78
-0.36
-9.21
-19.41
-29.93
-39.29
-45.96
-48.83
-47.50
-42.39
-34.52
-25.35
-16.35
-8.83
-3.71
-1.45
-2.04
-5.06
-9.84
-15.54
-21.38
-26.68
-31.01
-34.19
-36.21
-37.23
-37.40
-36.79
-35.34
-32.92
-29.43
-25.01
-20.04
-15.14
-11.01
-8.17
-6.85
-6.87
-7.85
-9.36
-11.06
-12.80
-14.51
-16.16
-17.65
-18.83
-19.56
-19.74
-19.34
-18.35
-16.74
-14.49
-11.69
-8.52
-5.34
-2.58
-0.62
0.35
0.38
-0.31
-1.33
-2.33
-2.98
-3.08
-2.53
-1.35
0.29
2.16
3.99
5.59
6.86
7.87
8.76
9.68
10.68
11.76
12.84
13.82
14.61
15.16
15.40
15.24
14.64
13.61
12.28
10.74
9.07
7.20
4.96
2.23
-0.96
-4.34
-7.46
-9.84
-11.15
-11.35
-10.63
-9.31
-7.74
-6.11
-4.52
-2.98
-1.51
-0.13
1.13
2.27
3.37
4.57
6.02
7.87
10.11
12.59
15.02
17.05
18.38
18.90
18.72
18.10
17.37
16.75
16.32
16.01
15.67
15.18
14.48
13.52
12.21
10.39
7.84
4.46
0.32
-4.29
-8.92
-13.06
-16.23
-18.04
-18.24
-16.72
-13.61
-9.33
-4.52
0.04
3.70
6.09
7.21
7.27
6.61
5.47
4.04
2.39
0.63
-1.09
-2.64
-3.95
-5.03
-5.97
-6.82
-7.52
-7.97
-8.07
-7.86
-7.54
-7.43
-7.81
-8.82
-10.39
-12.35
-14.45
-16.50
-18.32
-19.77
-20.72
-21.12
-20.98
-20.43
-19.62
-18.63
-17.38
-15.60
-12.94
-9.09
-4.00
2.11
8.69
15.10
20.67
24.94
27.69
29.01
29.14
28.41
27.07
25.32
23.28
21.07
18.84
16.73
14.78
12.92
10.99
8.79
6.27
3.56
0.93
-1.38
-3.29
-4.99
-6.78
-8.89
-11.33
-13.86
-16.09
-17.71
-18.68
-19.22
-19.69
-20.47
-21.67
-23.12
-24.38
-24.80
-23.73
-20.71
-15.58
-8.62
-0.57
7.49
14.39
19.19
21.47
21.44
19.84
17.65
15.79
14.84
15.05
16.37
18.64
21.62
25.05
28.54
31.64
33.93
35.19
35.54
35.32
34.96
34.66
34.35
33.65
32.15
29.59
26.08
22.04
18.08
14.76
12.40
11.04
10.47
10.32
10.17
9.70
8.67
7.09
5.18
3.42
2.41
2.72
4.65
8.08
12.38
16.59
19.70
21.01
20.33
18.06
14.96
11.86
9.32
7.47
6.11
4.88
3.53
2.00
0.43
-1.01
-2.24
-3.35
-4.48
-5.82
-7.47
-9.51
-12.04
-15.26
-19.40
-24.66
-31.02
-38.14
-45.45
-52.19
-57.68
-61.52
-63.66
-64.40
-64.23
-63.63
-62.80
-61.57
-59.54
-56.24
-51.51
-45.59
-39.06
-32.57
-26.48
-20.75
-14.96
-8.69
-1.78
5.49
12.53
18.70
23.59
27.13
29.48
30.86
31.36
30.92
29.37
26.67
22.96
18.68
14.44
10.81
8.11
6.23
4.63
2.64
-0.22
-3.91
-7.86
-11.18
-13.11
-13.42
-12.52
-11.28
-10.63
-11.17
-12.89
-15.26
-17.43
-18.50
-17.79
-14.96
-10.09
-3.61
3.75
11.06
17.32
21.64
23.44
22.54
19.26
14.30
8.64
3.24
-1.16
-4.17
-5.76
-6.19
-5.82
-5.04
-4.16
-3.33
-2.64
-2.11
-1.79
-1.72
-1.94
-2.44
-3.08
-3.65
-3.97
-3.93
-3.60
-3.21
-3.08
-3.51
-4.72
-6.80
-9.68
-13.09
-16.60
-19.66
-21.70
-22.31
-21.32
-18.91
-15.53
-11.78
-8.22
-5.24
-2.98
-1.34
-0.04
1.26
2.84
4.86
7.27
9.88
12.40
14.57
16.16
17.12
17.46
17.35
16.94
16.40
15.79
15.10
14.21
13.00
11.35
9.18
6.52
3.46
0.16
-3.12
-6.13
-8.74
-10.98
-13.10
-15.50
-18.46
-21.99
-25.73
-28.99
-31.05
-31.45
-30.12
-27.41
-23.85
-19.93
-15.98
-12.20
-8.77
-5.88
-3.68
-2.17
-1.10
-0.02
1.53
3.79
6.69
9.79
12.49
14.21
14.57
13.50
11.18
7.98
4.27
0.42
-3.34
-6.87
-10.12
-13.04
-15.61
-17.83
-19.75
-21.45
-22.99
-24.43
-25.75
-26.94
-28.00
-28.96
-29.80
-30.44
-30.65
-30.08
-28.40
-25.44
-21.25
-16.12
-10.60
-5.28
-0.68
2.85
5.31
6.98
8.37
9.99
12.12
14.74
17.52
20.05
22.02
23.38
24.37
25.31
26.40
27.58
28.55
28.91
28.38
26.97
24.94
22.72
20.69
19.04
17.73
16.61
15.48
14.30
13.09
11.93
10.85
9.86
9.03
8.56
8.74
9.82
11.81
14.49
17.42
20.18
22.59
24.71
26.75
28.84
30.85
32.37
32.85
31.85
29.19
25.11
20.17
15.19
10.98
8.22
7.24
7.98
9.97
12.49
14.75
16.04
15.87
13.94
10.22
4.87
-1.68
-8.82
-15.79
-21.86
-26.47
-29.39
-30.72
-30.84
-30.25
-29.37
-28.45
-27.50
-26.30
-24.40
-21.29
-16.58
-10.18
-2.48
5.70
13.29
19.38
23.52
25.90
27.19
28.20
29.42
30.86
32.00
32.14
30.79
27.88
23.80
19.22
14.69
10.50
6.51
2.40
-2.14
-7.16
-12.40
-17.40
-21.70
-25.04
-27.42
-29.08
-30.32
-31.39
-32.36
-33.22
-33.86
-34.15
-33.95
-33.16
-31.65
-29.33
-26.22
-22.40
-18.10
-13.60
-9.17
-5.07
-1.42
1.68
4.19
6.05
7.18
7.55
7.16
6.10
4.46
2.39
0.10
-2.07
-3.69
-4.28
-3.47
-1.17
2.39
6.63
10.86
14.42
16.90
18.20
18.52
18.22
17.69
17.16
16.67
16.11
15.30
14.08
12.36
10.11
7.37
4.23
0.84
-2.49
-5.36
-7.32
-8.08
-7.56
-5.96
-3.65
-1.08
1.39
3.52
5.18
6.33
6.92
6.98
6.53
5.70
4.64
3.56
2.68
2.13
2.00
2.27
2.89
3.78
4.89
6.10
7.29
8.23
8.73
8.62
7.87
6.55
4.82
2.86
0.78
-1.33
-3.47
-5.73
-8.22
-11.03
-14.10
-17.19
-19.84
-21.47
-21.60
-19.95
-16.57
-11.80
-6.19
-0.38
5.00
9.47
12.74
14.72
15.51
15.34
14.50
13.25
11.86
10.56
9.52
8.83
8.39
7.94
7.17
5.89
4.20
2.49
1.32
1.14
2.06
3.73
5.53
6.78
7.07
6.34
4.83
2.85
0.61
-1.91
-4.90
-8.51
-12.75
-17.41
-22.12
-26.44
-30.00
-32.55
-33.93
-34.08
-32.99
-30.74
-27.48
-23.43
-18.93
-14.35
-9.99
-6.06
-2.58
0.59
3.65
6.70
9.66
12.26
14.16
15.09
15.01
14.15
12.90
11.67
10.78
10.39
10.52
11.17
12.32
13.90
15.79
17.67
19.19
19.94
19.71
18.45
16.35
13.69
10.77
7.83
5.02
2.46
0.24
-1.54
-2.80
-3.43
-3.32
-2.39
-0.63
1.83
4.67
7.45
9.68
10.99
11.15
10.17
8.14
5.24
1.71
-2.14
-5.82
-8.77
-10.46
-10.56
-9.08
-6.38
-3.01
0.49
3.74
6.58
8.99
10.97
12.47
13.40
13.76
13.76
13.80
14.35
15.71
17.84
20.29
22.33
23.29
22.82
21.07
18.61
16.16
14.28
13.13
12.45
11.74
10.52
8.58
6.04
3.27
0.69
-1.43
-3.09
-4.44
-5.69
-6.90
-8.01
-8.85
-9.32
-9.49
-9.62
-10.00
-10.83
-12.09
-13.56
-14.95
-16.01
-16.61
-16.77
-16.57
-16.09
-15.43
-14.68
-13.91
-13.15
-12.35
-11.42
-10.28
-8.96
-7.64
-6.58
-6.08
-6.30
-7.19
-8.47
-9.75
-10.64
-10.88
-10.45
-9.52
-8.40
-7.39
-6.65
-6.14
-5.73
-5.28
-4.83
-4.62
-5.00
-6.28
-8.55
-11.60
-15.00
-18.21
-20.77
-22.41
-23.11
-23.01
-22.34
-21.34
-20.12
-18.72
-17.09
-15.19
-13.00
-10.57
-8.02
-5.49
-3.06
-0.83
1.15
2.76
3.89
4.41
4.24
3.48
2.35
1.27
0.70
1.07
2.62
5.31
8.82
12.68
16.39
19.59
22.14
24.08
25.45
26.29
26.50
26.03
24.90
23.28
21.43
19.64
18.05
16.69
15.49
14.42
13.60
13.29
13.76
15.17
17.41
20.11
22.74
24.80
25.91
25.93
24.88
22.82
19.75
15.62
10.39
4.18
-2.74
-9.97
-17.10
-23.89
-30.22
-36.01
-41.04
-44.88
-46.97
-46.89
-44.58
-40.49
-35.42
-30.23
-25.54
-21.49
-17.87
-14.32
-10.59
-6.75
-3.08
0.17
2.93
5.51
8.44
12.18
16.84
22.01
26.87
30.44
31.98
31.17
28.20
23.57
17.86
11.61
5.29
-0.71
-6.06
-10.60
-14.44
-18.01
-21.86
-26.39
-31.59
-36.94
-41.57
-44.61
-45.52
-44.17
-40.87
-36.14
-30.53
-24.48
-18.32
-12.25
-6.47
-1.17
3.49
7.36
10.35
12.49
13.93
14.92
15.72
16.47
17.21
17.85
18.31
18.57
18.69
18.78
18.92
19.07
19.13
18.94
18.42
17.59
16.62
15.68
14.89
14.18
13.31
11.93
9.81
7.02
4.01
1.52
0.27
0.65
2.55
5.37
8.29
10.57
11.83
12.05
11.55
10.70
9.81
9.00
8.23
7.37
6.31
5.06
3.78
2.74
2.20
2.25
2.75
3.34
3.63
3.40
2.73
1.95
1.57
2.01
3.46
5.87
8.94
12.20
15.01
16.61
16.18
13.03
6.76
-2.50
-14.07
-26.76
-39.11
-49.66
-57.28
-61.28
-61.51
-58.35
-52.53
-45.03
-36.89
-29.04
-22.13
-16.51
-12.20
-9.01
-6.64
-4.80
-3.27
-1.98
-0.93
-0.17
0.31
0.57
0.76
1.04
1.61
2.58
4.00
5.84
8.00
10.33
12.64
14.81
16.74
18.41
19.85
21.07
22.08
22.81
23.23
23.34
23.17
22.79
22.25
21.50
20.55
19.49
18.57
18.16
18.55
19.84
21.73
23.66
24.95
25.07
23.79
21.24
17.76
13.83
9.93
6.54
4.13
3.10
3.67
5.73
8.80
12.14
14.97
16.72
17.18
16.52
15.10
13.31
11.43
9.58
7.76
5.94
4.16
2.49
1.00
-0.33
-1.62
-3.06
-4.84
-7.02
-9.56
-12.26
-14.86
-17.13
-18.89
-20.05
-20.60
-20.55
-19.97
-18.90
-17.41
-15.55
-13.45
-11.23
-9.09
-7.18
-5.59
-4.34
-3.37
-2.60
-2.02
-1.64
-1.48
-1.49
-1.53
-1.40
-0.99
-0.27
0.60
1.41
1.96
2.11
1.87
1.27
0.41
-0.60
-1.66
-2.68
-3.64
-4.56
-5.55
-6.67
-7.85
-8.86
-9.35
-9.03
-7.83
-5.98
-3.88
-1.98
-0.55
0.36
0.87
1.10
1.03
0.56
-0.44
-1.98
-3.94
-6.12
-8.32
-10.44
-12.41
-14.24
-15.88
-17.34
-18.70
-20.15
-21.89
-23.95
-26.00
-27.36
-27.24
-25.09
-20.84
-15.00
-8.41
-1.92
3.92
8.79
12.59
15.16
16.26
15.71
13.53
10.11
6.19
2.60
0.04
-1.07
-0.68
0.95
3.42
6.25
9.08
11.65
13.89
15.84
17.57
19.10
20.34
21.12
21.27
20.73
19.60
18.13
16.58
15.15
13.93
12.90
11.89
10.68
9.00
6.58
3.27
-0.91
-5.68
-10.60
-15.16
-19.01
-22.06
-24.42
-26.35
-28.04
-29.55
-30.82
-31.76
-32.34
-32.51
-32.15
-30.98
-28.66
-24.91
-19.75
-13.48
-6.74
-0.20
5.60
10.39
14.21
17.23
19.61
21.34
22.26
22.18
21.05
19.08
16.71
14.51
12.99
12.34
12.51
13.21
14.04
14.69
14.94
14.65
13.77
12.35
10.64
9.06
8.17
8.47
10.19
13.09
16.49
19.49
21.31
21.51
20.22
17.98
15.47
13.20
11.35
9.81
8.23
6.32
3.89
0.91
-2.48
-6.03
-9.39
-12.15
-13.95
-14.61
-14.24
-13.22
-12.07
-11.21
-10.81
-10.69
-10.47
-9.65
-7.85
-4.93
-1.01
3.53
8.09
12.00
14.70
15.87
15.52
13.93
11.51
8.64
5.61
2.59
-0.30
-2.90
-5.01
-6.46
-7.22
-7.42
-7.35
-7.37
-7.72
-8.47
-9.46
-10.44
-11.19
-11.66
-11.95
-12.26
-12.72
-13.33
-13.98
-14.49
-14.72
-14.64
-14.25
-13.60
-12.72
-11.67
-10.58
-9.64
-9.08
-9.03
-9.45
-10.08
-10.55
-10.46
-9.60
-7.94
-5.69
-3.19
-0.76
1.32
2.94
4.11
4.92
5.46
5.80
5.98
6.06
6.16
6.46
7.14
8.32
9.91
11.69
13.33
14.50
15.04
14.95
14.35
13.36
12.05
10.42
8.42
6.03
3.32
0.44
-2.43
-5.12
-7.48
-9.49
-11.20
-12.76
-14.31
-15.92
-17.56
-19.09
-20.38
-21.36
-22.09
-22.76
-23.56
-24.60
-25.84
-27.16
-28.43
-29.66
-30.97
-32.48
-34.20
-35.91
-37.15
-37.35
-36.06
-33.10
-28.60
-22.94
-16.53
-9.70
-2.64
4.52
11.61
18.30
24.18
28.83
31.95
33.49
33.61
32.61
30.84
28.63
26.22
23.79
21.44
19.23
17.24
15.54
14.18
13.18
12.42
11.75
11.00
10.02
8.79
7.34
5.76
4.07
2.23
0.11
-2.41
-5.34
-8.49
-11.51
-13.92
-15.23
-15.15
-13.60
-10.83
-7.26
-3.36
0.45
3.92
6.99
9.66
11.95
13.87
15.37
16.38
16.86
16.85
16.39
15.65
14.73
13.73
12.71
11.70
10.70
9.73
8.79
7.86
6.90
5.86
4.71
3.42
2.03
0.54
-1.01
-2.62
-4.25
-5.90
-7.52
-9.09
-10.55
-11.85
-12.91
-13.58
-13.72
-13.24
-12.14
-10.52
-8.48
-6.10
-3.44
-0.56
2.40
5.17
7.41
8.86
9.42
9.15
8.32
7.23
6.12
5.14
4.30
3.53
2.64
1.44
-0.24
-2.42
-4.92
-7.36
-9.27
-10.26
-10.13
-8.95
-7.07
-4.94
-3.03
-1.65
-0.95
-0.89
-1.30
-1.97
-2.69
-3.26
-3.49
-3.19
-2.18
-0.36
2.29
5.69
9.65
13.98
18.49
23.03
27.38
31.22
34.12
35.61
35.29
33.03
29.07
23.99
18.61
13.75
10.01
7.64
6.50
6.19
6.25
6.26
5.95
5.18
3.85
1.93
-0.57
-3.50
-6.60
-9.48
-11.79
-13.34
-14.22
-14.80
-15.56
-16.90
-18.86
-21.11
-22.97
-23.77
-23.10
-21.00
-17.91
-14.49
-11.30
-8.58
-6.26
-4.07
-1.77
0.72
3.24
5.51
7.27
8.37
8.82
8.78
8.41
7.87
7.29
6.72
6.19
5.69
5.19
4.64
4.00
3.21
2.24
1.15
0.09
-0.66
-0.82
-0.17
1.24
3.10
4.83
5.88
5.91
4.96
3.50
2.19
1.58
1.89
2.95
4.29
5.39
5.90
5.74
5.05
4.08
3.05
2.02
0.94
-0.29
-1.71
-3.34
-5.11
-7.02
-9.17
-11.72
-14.81
-18.49
-22.62
-26.88
-30.86
-34.10
-36.17
-36.74
-35.56
-32.55
-27.87
-21.90
-15.28
-8.74
-2.97
1.54
4.58
6.18
6.63
6.33
5.74
5.32
5.47
6.47
8.41
11.19
14.50
17.86
20.73
22.64
23.31
22.73
21.13
18.92
16.49
14.17
12.09
10.26
8.57
6.90
5.05
2.91
0.42
-2.35
-5.21
-7.88
-10.15
-11.86
-12.95
-13.39
-13.09
-11.95
-9.87
-6.91
-3.33
0.46
4.01
6.98
9.29
11.01
12.34
13.43
14.32
14.98
15.31
15.20
14.63
13.66
12.44
11.13
9.90
8.87
8.12
7.68
7.58
7.87
8.54
9.52
10.62
11.58
12.15
12.19
11.73
10.94
10.00
8.99
7.86
6.43
4.52
2.08
-0.83
-3.96
-7.06
-9.88
-12.30
-14.23
-15.68
-16.67
-17.29
-17.64
-17.82
-17.86
-17.61
-16.81
-15.15
-12.44
-8.72
-4.26
0.54
5.27
9.67
13.54
16.75
19.13
20.57
21.04
20.72
19.89
18.83
17.72
16.57
15.32
13.90
12.37
10.83
9.39
8.08
6.86
5.73
4.72
3.93
3.41
3.12
2.85
2.29
1.16
-0.73
-3.40
-6.71
-10.46
-14.47
-18.63
-22.95
-27.46
-32.17
-36.97
-41.57
-45.63
-48.79
-50.87
-51.91
-52.12
-51.82
-51.19
-50.17
-48.46
-45.64
-41.40
-35.80
-29.25
-22.43
-15.97
-10.23
-5.22
-0.70
3.53
7.46
10.77
13.07
14.15
14.16
13.61
13.11
13.13
13.72
14.59
15.23
15.20
14.37
12.93
11.30
9.91
8.99
8.53
8.27
7.87
6.98
5.40
3.05
0.05
-3.32
-6.57
-9.07
-10.10
-9.10
-5.86
-0.64
5.80
12.41
18.16
22.36
24.82
25.81
25.85
25.48
25.08
24.80
24.68
24.64
24.64
24.56
24.22
23.41
21.92
19.66
16.72
13.37
9.86
6.43
3.16
0.04
-2.97
-5.82
-8.40
-10.55
-12.11
-13.00
-13.19
-12.71
-11.61
-9.99
-7.97
-5.65
-3.05
-0.06
3.52
7.86
12.90
18.28
23.31
27.19
29.22
28.98
26.46
21.99
16.10
9.45
2.72
-3.43
-8.44
-12.02
-14.16
-15.23
-15.75
-16.29
-17.16
-18.45
-20.03
-21.69
-23.34
-24.94
-26.53
-28.05
-29.37
-30.30
-30.74
-30.68
-30.25
-29.63
-28.99
-28.41
-27.91
-27.49
-27.09
-26.60
-25.81
-24.48
-22.35
-19.25
-15.18
-10.29
-4.87
0.75
6.20
11.18
15.43
18.83
21.40
23.31
24.82
26.21
27.61
28.97
30.03
30.43
29.89
28.37
26.12
23.60
21.33
19.69
18.75
18.29
17.93
17.26
16.00
14.01
11.36
8.17
4.66
1.05
-2.40
-5.41
-7.76
-9.33
-10.20
-10.63
-10.94
-11.42
-12.17
-13.09
-13.89
-14.25
-13.93
-12.87
-11.16
-9.04
-6.76
-4.54
-2.55
-0.84
0.55
1.61
2.34
2.72
2.77
2.50
2.01
1.45
1.10
1.22
2.07
3.73
6.08
8.75
11.26
13.12
14.00
13.83
12.77
11.15
9.31
7.50
5.85
4.45
3.32
2.47
1.81
1.18
0.33
-0.96
-2.79
-5.02
-7.31
-9.25
-10.48
-10.82
-10.31
-9.16
-7.68
-6.18
-4.88
-3.91
-3.22
-2.69
-2.14
-1.44
-0.59
0.31
1.03
1.41
1.40
1.16
0.98
1.16
1.91
3.22
4.88
6.57
7.95
8.79
8.96
8.46
7.39
5.88
4.11
2.20
0.25
-1.70
-3.69
-5.74
-7.89
-10.16
-12.53
-14.94
-17.27
-19.26
-20.52
-20.65
-19.32
-16.47
-12.34
-7.44
-2.39
2.28
6.26
9.44
11.86
13.58
14.59
14.89
14.50
13.57
12.30
10.95
9.69
8.61
7.72
7.05
6.64
6.54
6.72
7.06
7.32
7.29
6.81
5.85
4.48
2.82
1.04
-0.68
-2.17
-3.31
-4.15
-4.97
-6.14
-7.96
-10.46
-13.27
-15.77
-17.32
-17.54
-16.45
-14.41
-11.87
-9.25
-6.78
-4.58
-2.74
-1.35
-0.54
-0.39
-0.90
-1.99
-3.58
-5.64
-8.17
-11.21
-14.73
-18.54
-22.36
-25.85
-28.73
-30.87
-32.28
-33.09
-33.41
-33.34
-32.93
-32.21
-31.19
-29.94
-28.48
-26.83
-24.98
-22.97
-20.84
-18.62
-16.31
-13.76
-10.78
-7.13
-2.71
2.37
7.77
13.03
17.69
21.47
24.32
26.34
27.77
28.74
29.33
29.54
29.34
28.79
27.99
27.08
26.16
25.22
24.23
23.18
22.12
21.17
20.43
19.88
19.38
18.67
17.51
15.81
13.68
11.38
9.16
7.17
5.35
3.47
1.29
-1.26
-3.97
-6.44
-8.17
-8.77
-8.07
-6.17
-3.31
0.17
4.01
7.96
11.82
15.34
18.26
20.30
21.34
21.37
20.59
19.28
17.73
16.19
14.80
13.59
12.55
11.61
10.73
9.88
9.11
8.51
8.12
7.95
7.94
7.95
7.83
7.47
6.85
6.03
5.11
4.23
3.53
3.08
2.92
2.96
3.06
3.04
2.76
2.14
1.27
0.31
-0.57
-1.22
-1.64
-1.87
-2.00
-2.10
-2.20
-2.25
-2.23
-2.15
-2.11
-2.25
-2.68
-3.39
-4.23
-4.95
-5.29
-5.08
-4.27
-2.90
-1.08
1.09
3.44
5.74
7.73
9.13
9.82
9.84
9.40
8.78
8.11
7.34
6.24
4.55
2.05
-1.23
-5.04
-8.93
-12.32
-14.65
-15.49
-14.69
-12.45
-9.33
-6.01
-3.15
-1.12
0.05
0.61
0.93
1.25
1.66
2.05
2.24
2.09
1.57
0.76
-0.18
-1.04
-1.69
-2.07
-2.22
-2.25
-2.30
-2.48
-2.88
-3.59
-4.71
-6.28
-8.23
-10.31
-12.19
-13.53
-14.18
-14.22
-14.01
-13.98
-14.46
-15.44
-16.61
-17.47
-17.53
-16.51
-14.48
-11.78
-8.84
-6.03
-3.56
-1.41
0.55
2.49
4.52
6.73
9.12
11.64
14.15
16.46
18.25
19.20
19.05
17.71
15.29
12.16
8.79
5.66
3.07
1.10
-0.36
-1.50
-2.40
-3.05
-3.32
-3.21
-2.85
-2.49
-2.41
-2.73
-3.40
-4.29
-5.32
-6.49
-7.85
-9.29
-10.52
-11.06
-10.51
-8.72
-5.93
-2.68
0.40
2.81
4.36
5.11
5.30
5.23
5.10
5.09
5.23
5.51
5.86
6.20
6.45
6.56
6.53
6.36
6.07
5.68
5.19
4.61
4.00
3.46
3.06
2.83
2.70
2.53
2.21
1.68
1.02
0.36
-0.18
-0.63
-1.15
-1.96
-3.18
-4.67
-6.07
-6.87
-6.67
-5.34
-3.11
-0.44
2.15
4.30
5.91
7.07
7.98
8.74
9.34
9.64
9.57
9.12
8.40
7.64
7.00
6.55
6.19
5.73
5.03
4.06
3.04
2.23
1.90
2.05
2.44
2.65
2.31
1.26
-0.36
-2.21
-3.98
-5.49
-6.80
-8.11
-9.61
-11.34
-13.18
-14.87
-16.17
-16.88
-16.97
-16.49
-15.55
-14.22
-12.51
-10.43
-8.04
-5.49
-3.05
-1.01
0.44
1.33
1.85
2.33
3.02
4.03
5.27
6.50
7.51
8.21
8.65
9.02
9.51
10.27
11.27
12.37
13.33
13.93
14.03
13.59
12.67
11.40
9.84
8.04
6.01
3.80
1.49
-0.83
-3.05
-5.16
-7.20
-9.20
-11.15
-12.90
-14.22
-14.87
-14.69
-13.69
-12.09
-10.20
-8.35
-6.78
-5.57
-4.65
-3.85
-3.09
-2.36
-1.76
-1.41
-1.31
-1.36
-1.36
-1.17
-0.79
-0.38
-0.10
-0.02
-0.06
-0.06
0.17
0.63
1.19
1.61
1.65
1.24
0.49
-0.33
-0.95
-1.18
-1.10
-1.00
-1.30
-2.38
-4.36
-7.05
-10.03
-12.81
-15.02
-16.52
-17.34
-17.62
-17.44
-16.85
-15.88
-14.60
-13.18
-11.87
-10.90
-10.43
-10.40
-10.57
-10.53
-9.83
-8.17
-5.49
-2.01
1.87
5.76
9.43
12.81
15.96
18.89
21.48
23.47
24.56
24.63
23.79
22.33
20.64
19.04
17.66
16.48
15.39
14.26
13.02
11.67
10.19
8.57
6.86
5.13
3.57
2.46
2.02
2.39
3.46
5.00
6.63
8.02
8.94
9.31
9.14
8.47
7.41
6.08
4.67
3.34
2.24
1.40
0.75
0.16
-0.51
-1.29
-2.13
-2.93
-3.59
-4.05
-4.30
-4.38
-4.32
-4.18
-4.05
-4.07
-4.40
-5.16
-6.41
-8.07
-10.01
-12.03
-13.95
-15.60
-16.80
-17.41
-17.28
-16.35
-14.64
-12.29
-9.54
-6.71
-4.05
-1.81
-0.09
1.09
1.76
2.05
2.04
1.83
1.47
1.03
0.56
0.14
-0.16
-0.28
-0.24
-0.09
0.08
0.19
0.22
0.20
0.16
0.12
0.02
-0.24
-0.74
-1.50
-2.41
-3.33
-4.15
-4.88
-5.64
-6.62
-7.92
-9.41
-10.82
-11.79
-12.01
-11.39
-10.02
-8.09
-5.78
-3.19
-0.31
2.85
6.20
9.54
12.54
14.87
16.31
16.86
16.66
16.00
15.15
14.30
13.54
12.84
12.21
11.65
11.22
10.94
10.80
10.69
10.45
9.90
8.91
7.43
5.50
3.19
0.61
-2.17
-5.07
-8.00
-10.85
-13.52
-15.92
-18.04
-19.90
-21.51
-22.80
-23.61
-23.70
-22.89
-21.15
-18.68
-15.82
-12.91
-10.21
-7.85
-5.86
-4.25
-3.03
-2.20
-1.72
-1.47
-1.29
-1.04
-0.67
-0.20
0.32
0.84
1.33
1.83
2.38
2.97
3.52
3.91
4.00
3.68
2.89
1.62
-0.09
-2.16
-4.43
-6.71
-8.77
-10.47
-11.76
-12.80
-13.88
-15.24
-16.94
-18.74
-20.12
-20.51
-19.49
-16.99
-13.28
-8.92
-4.54
-0.66
2.40
4.57
5.98
6.87
7.46
7.91
8.28
8.58
8.86
9.23
9.82
10.67
11.71
12.74
13.55
14.03
14.21
14.26
14.34
14.54
14.80
15.02
15.09
14.92
14.44
13.62
12.41
10.82
8.86
6.60
4.13
1.56
-0.96
-3.21
-4.97
-6.03
-6.34
-5.95
-5.01
-3.73
-2.25
-0.68
0.88
2.34
3.57
4.54
5.26
5.89
6.57
7.44
8.49
9.62
10.62
11.30
11.51
11.27
10.72
10.11
9.73
9.74
10.14
10.70
11.14
11.17
10.67
9.64
8.14
6.21
3.82
1.03
-2.03
-5.06
-7.75
-9.87
-11.39
-12.43
-13.15
-13.55
-13.49
-12.77
-11.27
-9.08
-6.51
-3.96
-1.72
0.13
1.65
2.97
4.12
5.05
5.60
5.66
5.29
4.62
3.91
3.38
3.15
3.18
3.32
3.39
3.24
2.84
2.30
1.75
1.28
0.79
0.04
-1.30
-3.44
-6.37
-9.80
-13.29
-16.43
-19.03
-21.20
-23.20
-25.39
-27.99
-31.02
-34.24
-37.15
-39.09
-39.29
-37.12
-32.25
-24.81
-15.45
-5.16
5.05
14.39
22.48
29.34
35.17
40.17
44.40
47.73
50.02
51.14
51.10
50.02
48.07
45.42
42.29
38.89
35.43
32.06
28.80
25.41
21.49
16.60
10.53
3.50
-3.83
-10.51
-15.68
-18.94
-20.53
-21.28
-22.30
-24.51
-28.33
-33.46
-39.08
-44.09
-47.55
-48.85
-47.82
-44.75
-40.20
-34.92
-29.69
-25.22
-22.02
-20.27
-19.75
-19.96
-20.22
-20.02
-19.12
-17.67
-16.05
-14.70
-13.88
-13.63
-13.88
-14.53
-15.58
-17.06
-19.00
-21.25
-23.50
-25.34
-26.40
-26.44
-25.37
-23.21
-20.07
-16.09
-11.53
-6.77
-2.29
1.38
3.90
5.21
5.62
5.76
6.35
7.97
10.91
15.02
19.83
24.70
29.04
32.50
35.03
36.79
38.01
38.88
39.40
39.54
39.24
38.56
37.69
36.86
36.20
35.70
35.17
34.40
33.25
31.72
29.90
27.89
25.69
23.22
20.34
17.01
13.36
9.64
6.13
3.05
0.43
-1.87
-4.06
-6.34
-8.80
-11.33
-13.73
-15.68
-16.88
-17.10
-16.23
-14.31
-11.52
-8.13
-4.48
-0.90
2.26
4.66
6.04
6.25
5.36
3.72
1.85
0.26
-0.66
-0.87
-0.58
-0.13
0.23
0.42
0.49
0.58
0.71
0.83
0.85
0.71
0.49
0.33
0.35
0.60
0.95
1.19
1.03
0.21
-1.45
-3.95
-7.12
-10.64
-14.06
-16.94
-18.94
-19.89
-19.83
-18.86
-17.15
-14.82
-11.97
-8.74
-5.32
-1.97
1.07
3.68
5.82
7.57
9.02
10.17
10.91
11.11
10.69
9.78
8.77
8.18
8.50
9.99
12.55
15.74
18.92
21.44
22.81
22.83
21.52
19.09
15.84
12.05
7.95
3.68
-0.66
-5.04
-9.40
-13.57
-17.31
-20.27
-22.11
-22.65
-21.91
-20.18
-17.94
-15.68
-13.80
-12.42
-11.50
-10.84
-10.24
-9.68
-9.22
-8.96
-8.95
-9.08
-9.13
-8.89
-8.23
-7.25
-6.16
-5.21
-4.54
-4.18
-4.05
-4.04
-4.08
-4.08
-3.96
-3.59
-2.86
-1.69
-0.10
1.83
4.03
6.40
8.84
11.18
13.13
14.35
14.64
14.10
13.18
12.55
12.83
14.29
16.77
19.75
22.62
24.95
26.58
27.58
28.05
27.94
27.05
25.13
22.08
18.11
13.66
9.32
5.63
2.96
1.40
0.82
0.92
1.34
1.78
2.07
2.16
2.07
1.82
1.39
0.74
-0.10
-0.94
-1.47
-1.42
-0.78
0.10
0.55
-0.15
-2.48
-6.42
-11.45
-16.70
-21.21
-24.24
-25.40
-24.63
-22.11
-18.18
-13.28
-7.96
-2.87
1.33
4.17
5.45
5.40
4.53
3.43
2.56
2.08
1.91
1.83
1.71
1.59
1.68
2.21
3.34
4.97
6.80
8.31
9.02
8.67
7.31
5.38
3.43
1.89
0.79
-0.29
-2.02
-4.98
-9.39
-14.95
-21.01
-26.78
-31.60
-35.02
-36.81
-36.88
-35.21
-31.87
-27.12
-21.36
-15.13
-8.97
-3.31
1.56
5.51
8.60
10.93
12.70
14.09
15.24
16.17
16.82
17.07
16.85
16.16
15.12
13.92
12.71
11.47
10.10
8.39
6.12
3.24
-0.15
-3.78
-7.27
-10.27
-12.61
-14.29
-15.53
-16.65
-17.98
-19.75
-21.95
-24.37
-26.62
-28.31
-29.08
-28.78
-27.43
-25.21
-22.38
-19.19
-15.79
-12.22
-8.48
-4.56
-0.52
3.51
7.36
10.84
13.83
16.25
18.03
19.15
19.60
19.43
18.79
17.92
17.09
16.55
16.37
16.46
16.58
16.53
16.20
15.67
15.16
14.86
14.79
14.78
14.50
13.65
12.13
10.04
7.59
4.98
2.27
-0.54
-3.43
-6.17
-8.37
-9.58
-9.47
-8.05
-5.61
-2.65
0.39
3.23
5.87
8.43
11.03
13.64
16.10
18.12
19.48
20.03
19.81
18.93
17.61
16.06
14.48
13.00
11.65
10.37
9.02
7.47
5.69
3.74
1.77
-0.09
-1.73
-3.08
-4.05
-4.57
-4.65
-4.42
-4.22
-4.54
-5.86
-8.43
-12.12
-16.42
-20.57
-23.85
-25.76
-26.15
-25.21
-23.37
-21.10
-18.87
-16.98
-15.62
-14.81
-14.48
-14.48
-14.65
-14.88
-15.06
-15.14
-15.01
-14.59
-13.86
-12.84
-11.69
-10.59
-9.66
-8.89
-8.17
-7.39
-6.50
-5.63
-4.92
-4.53
-4.41
-4.44
-4.47
-4.45
-4.50
-4.78
-5.46
-6.56
-7.98
-9.50
-10.88
-11.86
-12.21
-11.71
-10.18
-7.58
-4.08
0.01
4.27
8.25
11.62
14.17
15.85
16.76
17.12
17.25
17.42
17.80
18.33
18.84
19.10
19.01
18.61
18.13
17.76
17.63
17.65
17.68
17.57
17.28
16.81
16.19
15.37
14.29
12.87
11.12
9.22
7.36
5.69
4.20
2.76
1.18
-0.67
-2.71
-4.67
-6.14
-6.70
-6.06
-4.14
-1.11
2.62
6.51
9.95
12.42
13.59
13.46
12.30
10.60
8.88
7.58
6.90
6.85
7.32
8.12
9.08
10.11
11.16
12.25
13.39
14.54
15.56
16.20
16.22
15.44
13.92
11.94
9.94
8.26
7.06
6.20
5.37
4.24
2.65
0.64
-1.58
-3.78
-5.77
-7.44
-8.74
-9.61
-9.96
-9.64
-8.53
-6.57
-3.81
-0.43
3.22
6.57
8.98
9.79
8.65
5.69
1.58
-2.60
-5.74
-7.07
-6.47
-4.43
-1.87
0.23
1.07
0.24
-2.27
-6.18
-10.96
-16.02
-20.77
-24.79
-27.85
-29.96
-31.24
-31.90
-32.08
-31.93
-31.60
-31.40
-31.67
-32.76
-34.84
-37.70
-40.73
-43.04
-43.74
-42.25
-38.54
-33.12
-26.84
-20.52
-14.73
-9.65
-5.15
-1.01
2.89
6.46
9.45
11.57
12.65
12.77
12.20
11.37
10.64
10.27
10.27
10.53
10.83
11.04
11.10
11.02
10.74
10.10
8.92
7.06
4.61
1.85
-0.81
-2.98
-4.48
-5.31
-5.65
-5.76
-5.83
-6.02
-6.36
-6.79
-7.13
-7.06
-6.25
-4.47
-1.70
1.86
5.84
9.87
13.67
17.08
19.94
22.06
23.24
23.31
22.29
20.39
17.94
15.30
12.66
10.06
7.48
4.94
2.56
0.50
-1.16
-2.56
-3.97
-5.78
-8.26
-11.45
-15.14
-18.91
-22.32
-25.07
-27.06
-28.44
-29.54
-30.75
-32.37
-34.46
-36.70
-38.47
-38.95
-37.41
-33.52
-27.46
-19.93
-11.91
-4.35
2.07
7.05
10.64
13.10
14.83
16.22
17.60
19.17
20.95
22.70
24.08
24.76
24.62
23.86
22.89
22.16
21.94
22.20
22.70
23.08
23.09
22.64
21.83
20.81
19.69
18.50
17.16
15.57
13.63
11.28
8.49
5.29
1.84
-1.61
-4.76
-7.34
-9.17
-10.17
-10.37
-9.82
-8.56
-6.63
-4.17
-1.44
1.20
3.36
4.82
5.53
5.58
5.15
4.36
3.24
1.83
0.15
-1.69
-3.52
-5.14
-6.42
-7.31
-7.88
-8.28
-8.68
-9.21
-9.91
-10.74
-11.59
-12.36
-12.98
-13.42
-13.72
-13.91
-14.11
-14.47
-15.14
-16.21
-17.59
-18.93
-19.69
-19.29
-17.40
-14.04
-9.64
-4.82
-0.22
3.74
6.89
9.26
10.96
12.08
12.67
12.77
12.48
11.94
11.33
10.78
10.38
10.12
9.98
9.91
9.91
9.95
10.01
10.04
9.97
9.69
9.17
8.39
7.39
6.29
5.19
4.20
3.33
2.54
1.67
0.57
-0.89
-2.61
-4.28
-5.47
-5.74
-4.89
-2.96
-0.25
2.84
5.99
8.98
11.73
14.19
16.29
17.96
19.14
19.83
20.09
20.03
19.74
19.30
18.73
18.10
17.47
16.90
16.36
15.79
15.06
14.07
12.83
11.51
10.36
9.62
9.47
9.89
10.68
11.50
11.93
11.59
10.17
7.48
3.51
-1.61
-7.52
-13.74
-19.67
-24.69
-28.29
-30.15
-30.26
-28.89
-26.63
-24.11
-21.95
-20.45
-19.67
-19.36
-19.15
-18.71
-17.83
-16.47
-14.73
-12.74
-10.58
-8.27
-5.79
-3.15
-0.43
2.24
4.76
7.08
9.16
10.95
12.36
13.27
13.67
13.74
13.75
13.93
14.30
14.58
14.35
13.25
11.24
8.63
5.93
3.63
2.04
1.22
1.11
1.65
2.79
4.46
6.48
8.56
10.36
11.65
12.35
12.56
12.45
12.14
11.63
10.79
9.45
7.51
5.01
2.15
-0.74
-3.35
-5.41
-6.86
-7.83
-8.61
-9.56
-10.89
-12.66
-14.65
-16.58
-18.16
-19.27
-19.97
-20.49
-21.06
-21.90
-23.16
-24.94
-27.26
-29.96
-32.58
-34.40
-34.57
-32.45
-27.87
-21.25
-13.47
-5.53
1.77
8.06
13.35
17.86
21.78
25.14
27.87
29.78
30.77
30.79
29.94
28.45
26.60
24.71
23.06
21.77
20.89
20.35
20.04
19.80
19.43
18.64
17.16
14.81
11.67
8.10
4.65
1.83
-0.13
-1.39
-2.47
-3.98
-6.40
-9.87
-14.17
-18.78
-23.07
-26.49
-28.67
-29.47
-29.03
-27.62
-25.64
-23.46
-21.40
-19.69
-18.47
-17.78
-17.55
-17.59
-17.60
-17.27
-16.30
-14.56
-12.05
-8.95
-5.56
-2.15
1.07
4.00
6.66
9.10
11.29
13.10
14.32
14.69
14.11
12.59
10.30
7.50
4.39
1.14
-2.19
-5.50
-8.72
-11.68
-14.21
-16.16
-17.36
-17.69
-17.04
-15.35
-12.61
-8.87
-4.29
0.93
6.50
12.08
17.27
21.70
25.03
27.03
27.67
27.04
25.41
23.14
20.62
18.17
16.02
14.25
12.77
11.47
10.23
9.01
7.90
7.02
6.44
6.15
5.95
5.56
4.71
3.23
1.13
-1.36
-3.92
-6.25
-8.15
-9.61
-10.77
-11.86
-13.09
-14.52
-16.01
-17.25
-17.82
-17.39
-15.78
-13.11
-9.73
-6.15
-2.85
-0.13
1.92
3.43
4.61
5.69
6.79
7.92
8.98
9.78
10.12
9.82
8.84
7.36
5.77
4.56
4.17
4.78
6.20
7.95
9.41
10.10
9.79
8.56
6.62
4.25
1.67
-0.93
-3.35
-5.39
-6.93
-7.97
-8.74
-9.51
-10.51
-11.75
-12.94
-13.69
-13.59
-12.42
-10.21
-7.17
-3.65
0.02
3.56
6.77
9.56
11.92
13.93
15.65
17.09
18.15
18.71
18.74
18.36
17.92
17.78
18.24
19.30
20.81
22.54
24.36
26.34
28.69
31.58
34.98
38.62
42.04
44.75
46.28
46.33
44.70
41.36
36.38
30.02
22.69
14.95
7.48
0.95
-4.07
-7.25
-8.58
-8.41
-7.34
-6.05
-5.18
-5.09
-5.87
-7.34
-9.15
-10.92
-12.32
-13.11
-13.16
-12.51
-11.45
-10.51
-10.44
-12.06
-16.03
-22.58
-31.42
-41.69
-52.16
-61.50
-68.65
-73.00
-74.51
-73.58
-70.87
-67.03
-62.55
-57.69
-52.66
-47.82
-43.69
-40.89
-39.78
-40.20
-41.33
-41.98
-41.06
-38.06
-33.25
-27.49
-21.72
-16.49
-11.86
-7.56
-3.22
1.64
7.79
16.30
28.35
44.55
64.31
85.56
105.26
120.43
129.26
131.77
129.60
125.10
120.26
116.06
112.50
109.22
106.15
103.86
103.40
105.60
110.55
117.33
124.30
129.82
132.81
132.71
129.04
120.79
106.25
83.43
51.20
10.46
-35.30
-80.45
-118.51
-143.83
-153.02
-145.75
-124.59
-94.31
-60.60
-28.83
-2.96
15.11
25.54
30.17
31.61
32.42
34.28
37.66
41.85
45.49
47.31
46.62
43.66
39.46
35.51
33.14
33.09
35.22
38.73
42.41
45.16
46.30
45.74
44.01
41.96
40.34
39.33
38.21
35.52
29.51
19.01
3.87
-14.75
-34.72
-53.59
-69.20
-80.15
-86.11
-87.83
-86.93
-85.48
-85.49
-88.20
-93.63
-100.55
-107.02
-111.30
-112.70
-111.95
-110.81
-111.25
-114.55
-120.76
-128.75
-136.62
-142.35
-144.37
-141.84
-134.71
-123.55
-109.47
-93.90
-78.45
-64.69
-53.86
-46.59
-42.81
-41.81
-42.47
-43.63
-44.39
-44.32
-43.39
-41.81
-39.92
-38.02
-36.45
-35.54
-35.60
-36.71
-38.63
-40.68
-42.03
-41.92
-40.05
-36.63
-32.24
-27.48
-22.79
-18.36
-14.22
-10.42
-6.98
-3.90
-1.07
1.65
4.31
6.85
9.02
10.67
11.83
12.81
14.07
16.02
18.79
22.13
25.45
27.91
28.61
26.96
22.92
17.30
11.65
7.72
6.82
9.18
13.89
19.35
24.03
27.15
28.76
29.45
29.70
29.47
28.22
25.37
20.77
14.91
8.80
3.49
-0.34
-2.64
-3.79
-4.25
-4.27
-3.80
-2.63
-0.64
1.99
4.90
7.77
10.56
13.55
17.21
21.81
27.20
32.80
37.75
41.24
42.75
42.07
39.25
34.49
28.11
20.67
12.99
6.12
1.11
-1.29
-0.86
1.98
6.29
10.84
14.45
16.34
16.36
15.02
13.33
12.39
12.95
15.17
18.59
22.44
26.03
29.02
31.39
33.19
34.40
34.80
34.28
33.01
31.65
31.09
32.11
34.85
38.71
42.44
44.67
44.49
41.93
38.01
34.42
32.94
34.67
39.50
45.97
51.53
53.33
49.11
37.92
20.44
-1.24
-24.29
-45.83
-63.57
-76.12
-82.98
-84.38
-81.25
-74.99
-67.42
-60.42
-55.60
-53.92
-55.43
-59.35
-64.31
-68.84
-71.70
-72.09
-69.70
-64.71
-57.66
-49.32
-40.62
-32.38
-25.22
-19.43
-15.01
-11.79
-9.56
-8.18
-7.55
-7.56
-8.04
-8.79
-9.59
-10.38
-11.20
-12.20
-13.49
-15.04
-16.67
-18.09
-19.05
-19.49
-19.60
-19.76
-20.36
-21.71
-23.83
-26.45
-29.07
-31.02
-31.67
-30.52
-27.36
-22.30
-15.75
-8.38
-0.83
6.33
12.79
18.44
23.28
27.26
30.22
31.92
32.17
31.01
28.71
25.78
22.75
20.04
17.78
15.88
14.12
12.33
10.49
8.77
7.42
6.56
6.08
5.66
4.85
3.22
0.56
-3.13
-7.58
-12.31
-16.70
-20.06
-21.76
-21.37
-18.74
-14.02
-7.62
-0.14
7.85
15.81
23.35
30.13
35.88
40.39
43.53
45.30
45.77
45.12
43.53
41.22
38.39
35.29
32.14
29.15
26.45
24.08
22.01
20.17
18.45
16.78
15.04
13.09
10.75
7.93
4.70
1.37
-1.53
-3.42
-3.85
-2.71
-0.19
3.27
7.17
11.11
14.82
18.11
20.77
22.59
23.38
23.11
21.98
20.37
18.70
17.29
16.23
15.38
14.52
13.44
12.05
10.40
8.60
6.77
5.04
3.45
2.07
0.88
-0.19
-1.30
-2.66
-4.44
-6.67
-9.16
-11.48
-13.15
-13.68
-12.82
-10.57
-7.18
-3.07
1.25
5.36
8.92
11.74
13.76
14.97
15.42
15.17
14.34
13.07
11.58
10.09
8.81
7.79
6.98
6.26
5.49
4.65
3.83
3.16
2.74
2.57
2.54
2.48
2.17
1.46
0.22
-1.57
-3.77
-6.13
-8.20
-9.47
-9.56
-8.31
-5.91
-2.75
0.70
4.03
6.97
9.38
11.16
12.25
12.57
12.15
11.08
9.59
7.93
6.32
4.88
3.62
2.48
1.40
0.38
-0.51
-1.16
-1.52
-1.61
-1.57
-1.59
-1.85
-2.47
-3.51
-4.92
-6.59
-8.28
-9.64
-10.29
-9.95
-8.54
-6.22
-3.37
-0.36
2.54
5.20
7.59
9.73
11.52
12.83
13.53
13.56
13.01
12.03
10.82
9.58
8.46
7.55
6.85
6.29
5.72
5.03
4.17
3.25
2.45
1.95
1.78
1.75
1.48
0.56
-1.26
-3.86
-6.76
-9.26
-10.68
-10.57
-8.84
-5.75
-1.85
2.27
6.01
8.94
10.78
11.47
11.10
9.86
8.00
5.76
3.33
0.87
-1.50
-3.73
-5.83
-7.85
-9.90
-12.07
-14.37
-16.76
-19.07
-21.13
-22.78
-23.91
-24.55
-24.83
-24.96
-25.18
-25.66
-26.44
-27.38
-28.20
-28.52
-27.99
-26.44
-23.88
-20.51
-16.61
-12.48
-8.33
-4.26
-0.32
3.46
7.01
10.17
12.76
14.63
15.66
15.86
15.38
14.41
13.22
12.02
10.98
10.16
9.54
9.11
8.79
8.46
7.88
6.79
4.92
2.17
-1.33
-5.18
-8.85
-11.83
-13.78
-14.58
-14.28
-12.94
-10.60
-7.38
-3.52
0.49
3.98
6.43
7.61
7.80
7.63
7.78
8.73
10.48
12.69
14.85
16.54
17.49
17.55
16.65
14.76
12.08
9.17
6.94
6.45
8.46
13.16
20.04
28.20
36.65
44.76
52.29
59.33
65.95
72.06
77.42
81.90
85.65
89.20
93.22
98.21
104.20
110.75
117.18
122.85
127.34
130.40
131.74
130.93
127.41
120.71
110.52
96.69
78.93
56.74
29.61
-2.39
-38.16
-75.42
-111.34
-143.28
-169.52
-189.44
-203.11
-210.81
-212.81
-209.48
-201.65
-190.72
-178.43
-166.29
-155.16
-145.02
-135.32
-125.40
-114.88
-103.74
-92.29
-80.93
-70.00
-59.76
-50.32
-41.62
-33.42
-25.50
-17.64
-9.79
-1.96
5.85
13.75
21.99
30.80
40.28
50.26
60.33
69.97
78.78
86.66
93.84
100.82
108.12
116.02
124.31
132.18
138.34
141.35
140.04
133.95
123.51
110.03
95.36
81.32
69.25
59.71
52.48
46.87
42.11
37.62
33.24
29.04
25.21
21.87
19.06
16.80
15.13
14.20
14.13
14.88
16.17
17.49
18.25
18.00
16.57
14.15
11.18
8.16
5.49
3.37
1.81
0.78
0.30
0.58
1.97
4.79
9.02
14.08
18.86
21.95
22.13
18.89
12.67
4.73
-3.38
-10.39
-15.77
-19.63
-22.44
-24.53
-25.86
-26.00
-24.58
-21.55
-17.45
-13.29
-10.18
-8.88
-9.49
-11.32
-13.22
-13.99
-12.95
-10.18
-6.57
-3.44
-2.18
-3.81
-8.74
-16.56
-25.91
-34.52
-39.46
-37.82
-27.74
-9.42
14.36
38.76
58.36
69.11
69.73
61.93
49.27
35.38
22.43
10.80
-0.32
-11.63
-22.93
-33.12
-41.05
-46.58
-50.92
-56.03
-63.26
-71.98
-79.35
-81.24
-74.03
-56.34
-30.00
0.31
28.57
49.18
58.47
55.62
42.66
23.86
4.47
-10.74
-18.69
-18.65
-11.98
-1.42
9.82
18.55
21.94
17.69
4.63
-16.56
-42.89
-69.52
-91.17
-103.98
-106.86
-101.61
-91.79
-80.96
-71.43
-63.89
-57.96
-53.03
-48.80
-45.39
-43.02
-41.74
-41.22
-40.91
-40.24
-38.83
-36.53
-33.35
-29.33
-24.40
-18.51
-11.72
-4.32
3.13
9.86
15.18
18.62
20.10
19.90
18.53
16.60
14.52
12.48
10.34
7.86
4.83
1.25
-2.59
-6.21
-9.11
-11.00
-11.90
-12.13
-12.23
-12.78
-14.24
-16.83
-20.46
-24.75
-29.07
-32.62
-34.58
-34.31
-31.55
-26.46
-19.68
-12.13
-4.75
1.76
7.09
11.31
14.60
17.09
18.70
19.25
18.69
17.28
15.66
14.58
14.64
15.99
18.23
20.62
22.37
23.04
22.70
21.92
21.48
22.02
23.55
25.36
26.17
24.74
20.56
14.42
8.20
4.07
3.41
5.82
9.20
10.53
7.25
-1.78
-15.83
-32.69
-49.28
-62.11
-67.77
-63.36
-47.23
-19.93
15.30
52.93
86.43
110.32
122.11
123.20
118.16
112.36
109.27
108.59
106.45
97.57
78.39
49.24
14.41
-19.95
-48.90
-70.68
-86.78
-100.06
-112.37
-123.27
-130.53
-131.76
-126.04
-114.47
-99.51
-83.66
-68.45
-54.07
-39.77
-24.76
-9.05
6.18
18.71
26.22
27.46
22.90
14.78
6.25
0.08
-2.40
-1.61
0.63
2.32
2.29
0.57
-1.98
-4.33
-5.94
-6.92
-7.82
-9.53
-12.45
-16.32
-20.35
-23.54
-25.09
-24.47
-21.50
-16.38
-10.43
-5.04
-1.24
0.40
-0.33
-3.44
-8.64
-15.23
-22.27
-30.42
-39.90
-50.25
-60.50
-69.86
-78.09
-85.24
-91.19
-95.63
-100.86
-108.42
-118.42
-129.80
-141.33
-152.34
-162.45
-171.07
-177.35
-183.69
-190.95
-197.60
-200.33
-196.44
-185.79
-171.15
-156.75
-127.13
-76.26
-7.68
67.75
140.40
206.06
263.80
312.88
351.95
382.65
402.15
408.59
402.55
386.88
365.26
341.19
316.34
294.31
278.35
266.64
255.30
239.81
216.95
186.21
150.31
114.47
84.27
62.41
45.47
27.86
5.20
-23.11
-54.01
-82.90
-106.03
-121.69
-130.25
-133.47
-131.82
-124.30
-110.02
-90.17
-68.81
-51.70
-43.70
-46.99
-60.58
-80.55
-101.73
-119.53
-131.24
-136.15
-135.10
-129.53
-121.11
-111.28
-101.11
-91.44
-82.96
-76.22
-71.54
-68.87
-67.69
-67.30
-66.82
-65.40
-62.50
-57.98
-52.15
-45.47
-38.41
-31.25
-24.52
-18.56
-13.47
-9.27
-6.19
-4.61
-4.85
-6.84
-10.18
-14.91
-20.73
-26.91
-32.59
-37.59
-42.32
-47.56
-53.77
-60.84
-69.33
-78.86
-88.16
-95.62
-100.81
-104.61
-108.67
-114.18
-121.17
-129.98
-139.11
-145.56
-145.65
-137.58
-121.84
-100.75
-76.86
-42.43
2.85
52.24
96.58
131.80
158.82
181.99
203.77
222.87
235.79
237.40
225.70
198.55
160.89
120.92
86.83
63.85
52.97
51.53
53.88
55.68
55.55
55.27
56.61
59.73
63.02
64.40
62.64
57.24
49.38
41.20
35.15
32.07
31.24
31.16
30.67
29.52
27.89
26.36
25.43
25.54
26.35
27.09
27.00
25.72
23.44
20.51
17.51
15.02
13.65
13.66
14.89
16.89
19.04
20.84
21.99
22.36
22.00
21.03
19.51
17.46
14.86
11.65
7.81
3.28
-1.98
-7.88
-14.17
-20.31
-25.70
-29.71
-31.98
-32.45
-31.33
-29.05
-26.04
-22.71
-19.40
-16.36
-13.81
-11.92
-10.83
-10.62
-11.32
-12.86
-15.04
-17.49
-19.78
-21.46
-22.26
-22.10
-21.09
-19.41
-17.18
-14.45
-11.19
-7.48
-3.52
0.29
3.42
5.34
5.65
4.21
1.29
-2.41
-5.80
-7.62
-6.81
-2.82
4.14
13.20
23.15
32.85
41.64
49.39
56.31
62.69
68.52
73.40
76.66
77.58
75.69
70.87
63.42
54.08
43.96
34.54
27.41
23.93
24.77
29.66
37.45
46.46
55.04
62.09
67.19
70.46
72.14
72.37
71.04
67.86
62.57
54.94
44.79
31.90
16.00
-3.12
-25.37
-50.15
-76.15
-101.53
-124.29
-142.81
-156.38
-165.40
-171.14
-175.07
-178.21
-180.48
-180.79
-177.45
-169.03
-155.16
-136.87
-116.44
-96.74
-80.31
-68.58
-61.51
-57.84
-55.74
-53.65
-50.84
-47.59
-44.87
-43.69
-44.56
-47.18
-50.53
-53.24
-54.00
-51.93
-46.68
-38.43
-27.78
-15.65
-3.17
8.44
18.07
24.99
29.01
30.46
29.94
28.08
25.21
21.37
16.41
10.21
2.88
-5.30
-13.99
-22.93
-31.97
-40.96
-49.54
-57.09
-62.88
-66.26
-67.02
-65.52
-62.71
-59.96
-58.71
-60.01
-64.07
-70.03
-75.93
-79.29
-77.78
-70.04
-55.96
-36.54
-13.25
12.51
39.66
67.27
94.32
119.49
141.43
159.07
171.99
180.41
184.98
186.38
185.09
181.38
175.42
167.44
157.86
147.32
136.65
126.78
118.52
112.26
107.73
104.09
100.17
95.01
88.24
80.12
71.35
62.69
54.70
47.70
41.82
37.14
33.71
31.52
30.48
30.37
30.91
31.70
32.19
31.74
29.70
25.75
20.09
13.46
6.87
1.22
-3.09
-6.29
-9.07
-12.24
-16.55
-22.44
-29.88
-38.10
-45.43
-49.30
-46.94
-36.46
-17.91
6.31
32.23
55.76
74.32
87.58
97.00
104.57
111.47
117.65
122.24
124.59
125.10
125.04
125.85
128.12
131.09
132.88
131.26
124.42
111.63
93.27
70.58
45.00
17.59
-11.25
-41.60
-73.50
-106.42
-139.07
-169.80
-197.16
-220.34
-239.04
-252.85
-260.66
-260.58
-250.69
-230.10
-199.76
-162.24
-120.84
-78.42
-36.71
3.53
41.81
77.30
108.67
134.46
153.65
166.06
172.37
173.74
171.38
166.23
158.81
149.30
137.74
124.33
109.46
93.71
77.60
61.49
45.44
29.34
13.06
-3.38
-19.71
-35.52
-50.42
-64.18
-76.73
-88.09
-98.21
-106.95
-114.23
-120.25
-125.64
-131.40
-138.44
-147.10
-156.72
-165.80
-172.54
-175.72
-175.11
-171.52
-166.26
-160.43
-154.43
-147.95
-140.19
-130.36
-117.96
-103.01
-86.03
-68.14
-50.89
-36.02
-24.84
-17.79
-14.39
-13.65
-14.43
-15.93
-17.91
-20.64
-24.63
-30.26
-37.62
-46.59
-56.58
-66.15
-72.99
-74.75
-70.28
-60.45
-47.65
-34.75
-24.12
-16.88
-12.56
-9.58
-6.13
-0.93
6.72
17.72
33.36
54.61
81.17
111.20
141.45
167.82
186.02
190.57
177.59
149.20
114.02
82.05
59.29
46.34
40.19
36.95
33.96
30.89
29.01
29.30
31.20
33.08
33.38
31.48
27.91
23.90
21.09
20.63
22.45
25.14
26.84
26.39
23.75
19.88
16.06
13.42
12.30
11.84
10.29
5.59
-2.80
-14.17
-26.75
-38.62
-48.43
-55.71
-61.01
-65.48
-70.14
-75.40
-81.09
-86.49
-90.48
-91.16
-85.80
-71.91
-48.57
-17.81
15.48
45.20
66.59
78.09
81.65
81.70
82.20
84.90
88.60
90.37
87.77
80.21
68.80
53.61
36.13
17.18
-0.56
-14.76
-25.13
-32.19
-36.28
-37.31
-35.51
-31.69
-27.73
-26.72
-28.92
-33.06
-36.24
-35.34
-28.69
-17.05
-2.92
10.60
21.45
29.35
34.34
37.22
38.84
39.35
38.09
34.07
26.16
13.85
-2.15
-19.73
-35.19
-44.43
-44.79
-36.52
-22.91
-8.95
0.63
3.29
-0.77
-8.82
-16.94
-21.34
-19.34
-9.88
6.05
25.45
44.11
57.90
64.49
64.11
59.05
52.25
45.69
39.80
34.03
27.90
21.96
17.74
16.87
20.00
26.31
33.77
40.06
43.58
43.94
41.85
38.48
34.81
31.26
27.73
24.07
20.36
16.85
13.67
10.44
6.30
0.35
-7.77
-17.47
-27.37
-35.84
-41.75
-44.89
-45.84
-45.62
-45.11
-44.83
-44.94
-45.48
-46.46
-47.92
-49.91
-52.42
-55.41
-58.92
-63.11
-68.04
-73.33
-77.80
-79.55
-76.42
-67.01
-51.50
-31.97
-11.92
4.80
15.24
18.09
13.78
4.08
-8.52
-21.37
-32.07
-38.90
-41.08
-38.98
-33.91
-27.70
-21.98
-17.77
-15.33
-14.34
-14.18
-14.26
-14.12
-13.45
-12.25
-10.86
-10.05
-10.73
-13.61
-18.80
-25.58
-32.63
-38.48
-42.04
-42.96
-41.63
-38.91
-35.72
-32.69
-30.09
-27.95
-26.18
-24.86
-24.07
-23.79
-23.66
-22.99
-20.86
-16.49
-9.66
-0.89
8.54
17.04
23.18
26.24
26.37
24.52
21.97
19.78
18.48
17.91
17.53
16.78
15.38
13.53
11.68
10.34
9.71
9.68
9.84
9.68
8.87
7.25
4.91
2.06
-1.00
-4.04
-6.94
-9.91
-13.61
-19.08
-27.46
-39.52
-55.06
-72.50
-89.09
-101.54
-107.10
-104.50
-94.24
-78.41
-59.78
-41.06
-24.29
-10.74
-1.07
4.51
6.15
4.56
0.99
-2.84
-5.22
-5.10
-2.60
0.80
2.69
0.45
-7.61
-21.57
-39.63
-58.53
-74.70
-85.33
-89.42
-87.88
-82.75
-75.93
-67.92
-57.27
-41.36
-17.84
14.01
53.09
97.14
144.20
193.15
242.79
290.39
331.01
358.97
370.73
367.03
352.70
333.65
313.19
290.31
261.10
222.56
175.96
127.48
85.42
56.07
40.74
35.83
35.60
35.40
33.61
31.34
30.62
32.66
37.03
41.92
44.91
44.07
38.87
30.27
20.30
11.13
3.95
-1.46
-6.49
-12.70
-20.78
-30.04
-38.69
-44.74
-47.01
-45.68
-42.22
-38.74
-37.23
-38.87
-43.82
-51.29
-59.99
-68.52
-75.84
-81.52
-85.67
-88.72
-91.04
-92.72
-93.51
-93.03
-91.12
-87.98
-84.18
-80.45
-77.41
-75.35
-74.14
-73.38
-72.64
-71.60
-70.25
-68.77
-67.44
-66.44
-65.82
-65.44
-65.16
-64.83
-64.37
-63.61
-62.20
-59.54
-55.00
-48.15
-39.08
-28.45
-17.33
-6.76
2.65
10.99
18.84
26.96
35.92
45.91
56.86
68.65
81.16
94.12
106.79
117.75
125.14
127.32
123.65
114.99
103.47
91.64
81.37
73.12
65.99
58.41
49.15
37.94
25.61
13.47
2.59
-6.73
-15.11
-23.59
-33.12
-44.14
-56.47
-69.17
-80.40
-87.28
-86.13
-73.49
-47.69
-10.47
32.42
72.32
100.28
110.26
101.32
77.77
47.17
17.30
-6.54
-22.48
-31.46
-35.68
-36.99
-36.18
-33.12
-27.21
-18.10
-6.03
8.10
22.71
35.72
44.83
48.05
44.45
34.66
21.04
7.27
-2.59
-5.09
1.91
18.84
44.73
77.68
115.52
156.10
197.38
237.09
272.36
299.70
315.36
315.98
299.55
266.12
218.21
160.42
98.45
37.76
-17.66
-65.65
-105.58
-137.42
-161.02
-176.06
-182.59
-181.85
-176.48
-169.86
-164.90
-162.86
-162.95
-163.08
-161.11
-156.04
-148.37
-139.67
-131.65
-125.52
-121.52
-119.07
-117.01
-114.10
-109.34
-102.22
-92.88
-81.93
-70.22
-58.48
-47.20
-36.63
-27.01
-18.72
-12.23
-7.90
-5.66
-4.93
-4.86
-4.63
-3.86
-2.65
-1.39
-0.43
0.12
0.38
0.49
0.40
-0.17
-1.55
-3.88
-7.02
-10.55
-14.00
-17.04
-19.64
-22.08
-24.73
-28.02
-32.16
-37.11
-42.62
-48.33
-53.94
-59.32
-64.44
-69.29
-73.65
-77.15
-79.32
-79.96
-79.34
-78.26
-77.71
-78.52
-81.06
-85.33
-91.18
-98.47
-106.89
-115.47
-122.24
-124.43
-119.40
-105.79
-84.31
-57.63
-29.35
-2.69
20.47
39.56
54.74
66.06
73.21
75.83
74.04
68.88
62.00
55.02
48.69
42.54
35.01
24.19
8.88
-10.69
-32.47
-53.16
-69.14
-77.74
-78.02
-70.88
-58.44
-43.14
-26.91
-10.91
4.28
18.15
29.86
38.16
41.73
39.75
32.44
21.20
8.34
-3.62
-12.73
-18.20
-20.39
-20.32
-19.09
-17.36
-15.42
-13.38
-11.34
-9.41
-7.32
-4.35
0.47
7.67
16.90
26.71
35.13
40.44
41.90
39.86
35.48
30.13
24.91
20.67
18.09
17.82
20.45
26.21
34.73
45.09
56.04
66.42
75.45
82.75
88.20
91.73
93.27
92.89
90.94
88.03
84.91
82.10
79.74
77.52
74.89
71.29
66.40
60.09
52.36
43.32
33.14
22.17
10.96
0.20
-9.50
-17.73
-24.43
-29.86
-34.51
-38.93
-43.53
-48.38
-53.13
-57.06
-59.21
-58.79
-55.41
-49.24
-41.06
-31.94
-23.02
-15.17
-8.86
-4.12
-0.74
1.66
3.54
5.35
7.56
10.48
14.20
18.54
23.06
27.30
30.98
34.05
36.62
38.77
40.37
41.08
40.53
38.47
34.98
30.41
25.20
19.64
13.82
7.59
0.71
-6.94
-15.39
-24.43
-33.68
-42.60
-50.40
-56.16
-58.95
-58.08
-53.36
-45.31
-35.04
-24.02
-13.66
-4.98
1.53
5.87
8.25
8.97
8.38
6.97
5.44
4.60
5.11
7.22
10.68
14.84
18.94
22.37
24.88
26.50
27.41
27.79
27.76
27.34
26.55
25.47
24.26
23.19
22.59
22.87
24.34
27.11
31.02
35.60
40.32
44.72
48.71
52.50
56.49
61.02
66.13
71.52
76.62
80.85
83.64
84.50
82.93
78.39
70.43
58.89
44.13
27.11
9.22
-8.05
-23.42
-36.20
-46.29
-54.10
-60.25
-65.30
-69.43
-72.49
-74.15
-74.23
-72.83
-70.39
-67.37
-64.05
-60.35
-56.09
-51.22
-46.09
-41.28
-37.29
-34.12
-31.18
-27.44
-21.92
-14.14
-4.25
7.01
18.60
29.54
39.06
46.68
52.18
55.56
57.08
57.19
56.41
55.12
53.22
49.97
43.89
33.16
16.14
-8.03
-38.97
-74.84
-112.56
-148.28
-178.14
-199.20
-210.06
-211.12
-204.05
-190.96
-173.54
-152.73
-129.10
-103.58
-77.86
-54.18
-34.53
-19.81
-9.53
-2.21
3.82
9.78
16.23
23.39
31.36
40.07
49.14
57.76
64.81
69.43
71.49
71.74
71.47
71.96
74.06
78.05
83.94
91.73
101.60
113.76
128.17
144.25
160.95
176.94
191.13
202.96
212.59
220.63
227.86
234.81
241.65
248.29
254.56
260.37
265.76
270.58
274.35
276.14
274.82
269.50
260.08
247.46
233.49
220.48
210.50
204.77
203.28
204.91
207.81
210.11
210.32
207.40
200.49
188.44
169.65
142.29
105.07
58.12
3.57
-54.63
-111.65
-162.97
-205.46
-237.83
-260.43
-274.69
-282.37
-285.09
-283.99
-279.80
-272.99
-263.95
-253.00
-240.46
-226.53
-211.28
-194.82
-177.56
-160.35
-144.33
-130.56
-119.44
-110.48
-102.39
-93.77
-83.71
-72.33
-60.51
-49.54
-40.45
-33.83
-29.74
-27.90
-27.92
-29.29
-31.43
-33.72
-35.66
-36.94
-37.55
-37.68
-37.50
-37.04
-36.14
-34.56
-32.27
-29.53
-26.92
-25.18
-24.82
-26.01
-28.48
-31.78
-35.54
-39.80
-44.88
-51.15
-58.60
-66.63
-74.22
-80.40
-84.75
-87.56
-89.64
-91.69
-93.85
-95.67
-96.37
-95.40
-92.86
-89.44
-86.13
-83.67
-82.25
-81.51
-80.82
-79.54
-77.22
-73.70
-69.00
-63.42
-57.56
-52.28
-48.54
-46.99
-47.63
-49.64
-51.48
-51.42
-48.09
-41.05
-30.93
-19.21
-7.70
2.23
10.18
16.87
23.82
32.59
44.02
57.68
71.89
84.32
92.74
95.74
92.96
85.04
73.26
59.18
44.54
31.04
20.16
12.91
9.62
9.96
13.29
19.16
27.66
39.21
54.01
71.26
88.78
103.45
112.30
113.70
107.92
96.83
82.88
68.06
53.30
38.65
23.79
8.64
-6.48
-21.00
-34.35
-46.21
-56.58
-65.65
-73.73
-81.22
-88.55
-96.15
-104.42
-113.68
-124.01
-135.04
-145.68
-154.20
-158.75
-158.06
-152.12
-142.23
-130.42
-118.44
-107.06
-95.89
-84.13
-71.39
-58.25
-46.19
-36.89
-31.43
-29.81
-30.94
-33.15
-34.72
-34.37
-31.33
-25.40
-16.74
-5.79
6.80
20.12
33.09
44.61
53.75
60.00
63.29
64.02
62.81
60.31
57.04
53.34
49.29
44.82
39.77
33.99
27.53
20.68
13.92
7.79
2.61
-1.63
-5.25
-8.73
-12.45
-16.57
-20.91
-25.05
-28.40
-30.32
-30.24
-27.78
-22.84
-15.69
-6.92
2.70
12.39
21.49
29.47
35.92
40.51
43.04
43.55
42.49
40.67
39.08
38.52
39.35
41.39
44.04
46.55
48.35
49.17
49.13
48.59
48.03
47.86
48.25
48.99
49.51
48.97
46.59
42.08
35.82
28.98
23.16
19.88
20.07
23.76
30.10
37.68
44.98
50.81
54.51
56.00
55.58
53.79
51.22
48.45
45.95
44.09
43.05
42.76
42.91
42.95
42.28
40.37
36.86
31.61
24.64
16.07
6.21
-4.40
-14.97
-24.59
-32.47
-38.26
-42.27
-45.33
-48.39
-52.08
-56.35
-60.64
-64.13
-66.20
-66.57
-65.18
-61.94
-56.60
-48.98
-39.27
-28.42
-17.98
-9.54
-4.06
-1.32
-0.01
1.64
5.10
10.93
18.65
27.15
35.10
41.52
45.88
48.11
48.42
47.22
44.97
42.11
39.01
35.80
32.43
28.67
24.33
19.39
14.13
9.22
5.44
3.55
3.94
6.50
10.59
15.32
19.81
23.41
25.80
26.87
26.49
24.45
20.50
14.56
6.89
-1.81
-10.54
-18.24
-23.98
-27.14
-27.53
-25.44
-21.65
-17.28
-13.53
-11.31
-10.93
-12.05
-13.92
-15.70
-16.76
-16.83
-15.81
-13.64
-10.20
-5.44
0.45
6.82
12.68
17.00
19.11
18.92
16.95
14.02
10.90
8.02
5.39
2.80
0.04
-2.82
-5.44
-7.35
-8.18
-7.88
-6.76
-5.34
-4.11
-3.37
-3.11
-3.14
-3.19
-3.08
-2.84
-2.65
-2.78
-3.49
-4.89
-6.87
-9.08
-10.98
-11.96
-11.52
-9.37
-5.54
-0.37
5.56
11.53
16.86
21.00
23.69
24.98
25.17
24.80
24.41
24.48
25.23
26.65
28.44
30.15
31.35
31.77
31.33
30.14
28.33
25.99
23.07
19.56
15.53
11.28
7.18
3.55
0.43
-2.36
-5.04
-7.71
-10.21
-12.19
-13.39
-13.71
-13.21
-11.93
-9.75
-6.43
-1.92
3.35
8.49
12.51
14.78
15.47
15.43
15.73
17.10
19.65
23.00
26.74
30.80
35.59
41.70
49.48
58.75
68.85
78.85
87.89
95.43
101.20
105.08
106.95
106.69
104.24
99.79
93.86
87.29
81.02
75.99
72.95
72.44
74.65
79.35
85.66
92.15
97.03
98.79
96.74
91.27
83.62
75.38
67.84
61.80
57.59
55.31
54.94
56.29
58.96
62.41
66.17
70.04
74.00
77.87
80.88
81.66
78.58
70.50
57.33
40.24
21.30
2.83
-13.30
-26.08
-35.46
-42.08
-46.82
-50.34
-52.70
-53.49
-52.25
-48.98
-44.50
-40.25
-37.68
-37.54
-39.52
-42.37
-44.54
-44.84
-42.94
-39.40
-35.39
-32.26
-31.27
-33.45
-39.52
-49.82
-64.18
-81.74
-101.11
-120.55
-138.43
-153.57
-165.46
-174.11
-179.79
-182.70
-182.89
-180.35
-175.24
-168.08
-159.71
-151.08
-142.97
-135.75
-129.41
-123.63
-117.99
-112.17
-106.00
-99.36
-92.02
-83.53
-73.24
-60.64
-45.74
-29.41
-13.23
0.98
11.89
19.14
23.33
25.56
26.74
27.07
26.02
22.78
16.86
8.47
-1.40
-11.27
-19.66
-25.41
-27.88
-26.95
-22.96
-16.53
-8.38
0.83
10.67
20.86
31.24
41.48
51.01
58.97
64.42
66.56
64.95
59.62
51.03
40.00
27.57
14.85
2.86
-7.61
-16.14
-22.72
-27.62
-31.34
-34.43
-37.39
-40.55
-44.04
-47.73
-51.32
-54.39
-56.57
-57.63
-57.46
-56.08
-53.52
-49.84
-45.15
-39.79
-34.30
-29.41
-25.81
-23.98
-24.06
-25.88
-28.95
-32.52
-35.59
-37.01
-35.82
-31.60
-24.81
-16.88
-9.83
-5.63
-5.40
-8.84
-14.22
-18.81
-19.72
-14.57
-2.00
18.27
45.59
78.47
114.68
151.31
185.26
214.04
236.58
253.85
268.63
284.50
304.29
329.02
357.26
385.39
408.48
421.05
418.02
395.76
353.57
295.13
228.93
166.59
119.35
93.69
88.60
95.90
103.67
101.16
82.75
49.07
5.27
-42.13
-87.99
-129.47
-165.35
-194.84
-216.95
-230.78
-236.43
-235.47
-230.61
-224.75
-219.97
-216.64
-213.55
-208.62
-199.85
-186.30
-168.57
-148.59
-128.95
-111.96
-98.97
-90.06
-84.25
-80.09
-76.29
-72.24
-68.17
-65.01
-63.86
-65.33
-69.22
-74.41
-79.32
-82.71
-84.19
-84.45
-84.87
-86.70
-90.37
-95.23
-99.83
-102.63
-102.77
-100.36
-96.39
-92.25
-89.12
-87.58
-87.54
-88.35
-88.91
-87.99
-84.33
-76.98
-65.71
-51.30
-35.56
-21.00
-10.13
-4.47
-3.99
-6.95
-10.51
-11.75
-8.64
-0.62
11.45
25.88
40.80
54.60
66.10
74.33
78.49
77.97
72.73
63.48
51.80
39.67
28.89
20.47
14.46
10.04
6.07
1.54
-4.03
-10.52
-17.43
-24.16
-30.23
-35.43
-39.73
-43.21
-45.92
-47.86
-49.03
-49.50
-49.39
-48.86
-48.08
-47.23
-46.43
-45.77
-45.27
-44.86
-44.34
-43.44
-41.90
-39.55
-36.33
-32.28
-27.51
-22.17
-16.44
-10.62
-5.12
-0.35
3.28
5.66
6.89
7.41
7.71
8.27
9.30
10.67
12.01
12.82
12.80
11.98
10.79
9.98
10.38
12.80
17.87
26.01
37.16
50.57
64.66
77.23
86.07
89.83
88.52
83.54
77.06
71.07
66.69
63.98
62.34
61.06
59.75
58.35
56.92
55.38
53.36
50.45
46.30
40.85
34.26
26.86
18.87
10.34
1.08
-9.13
-20.32
-32.13
-43.67
-53.61
-60.51
-63.25
-61.42
-55.52
-46.83
-37.07
-27.92
-20.56
-15.48
-12.50
-10.99
-10.24
-9.68
-9.01
-8.20
-7.28
-6.23
-4.92
-3.24
-1.21
0.87
2.48
3.03
2.13
-0.21
-3.47
-6.80
-9.18
-9.80
-8.21
-4.44
0.94
6.99
12.44
15.98
16.59
13.88
8.20
0.67
-7.18
-13.86
-18.30
-20.07
-19.32
-16.54
-12.23
-6.68
0.09
8.22
17.70
28.17
38.82
48.44
55.87
60.35
61.92
61.43
60.22
59.63
60.41
62.66
65.91
69.60
73.49
77.72
82.55
87.96
93.48
98.26
101.51
102.87
102.53
101.14
99.38
97.69
96.26
95.32
95.23
96.56
99.57
103.91
108.46
111.71
112.37
109.96
104.84
97.71
89.07
78.77
66.21
50.91
33.22
14.54
-3.03
-17.35
-26.85
-30.99
-30.40
-26.84
-22.84
-21.16
-23.89
-31.70
-43.43
-56.47
-67.71
-74.77
-76.80
-74.45
-69.24
-62.55
-55.05
-46.67
-37.19
-26.89
-16.75
-8.18
-2.25
0.94
2.51
4.41
8.72
16.96
29.71
46.73
67.05
89.08
110.49
128.33
139.39
140.98
131.62
111.39
81.45
43.29
-1.54
-51.21
-102.84
-152.08
-193.72
-223.24
-238.57
-240.95
-234.40
-223.77
-212.81
-203.01
-193.79
-183.79
-172.33
-160.17
-149.12
-141.02
-136.55
-134.78
-133.55
-130.43
-123.77
-113.41
-100.49
-86.78
-73.83
-62.33
-52.08
-42.43
-32.88
-23.58
-15.27
-8.91
-5.10
-3.71
-3.86
-4.36
-4.21
-3.04
-1.20
0.54
1.47
1.30
0.24
-1.20
-2.58
-3.75
-4.80
-5.88
-7.05
-8.26
-9.54
-11.14
-13.48
-16.87
-21.12
-25.47
-28.77
-30.05
-29.09
-26.53
-23.57
-21.40
-20.62
-21.11
-22.30
-23.65
-24.98
-26.54
-28.72
-31.71
-35.44
-39.51
-43.50
-47.14
-50.36
-53.29
-56.06
-58.79
-61.51
-64.14
-66.48
-68.27
-69.24
-69.17
-68.06
-66.06
-63.50
-60.71
-57.91
-55.25
-52.79
-50.64
-48.93
-47.72
-46.77
-45.50
-42.96
-38.12
-30.17
-18.87
-4.66
11.39
27.83
43.15
56.22
66.50
74.15
79.92
84.93
90.42
97.47
106.84
118.75
132.77
147.63
161.40
171.73
176.46
174.15
164.57
148.65
128.18
105.24
81.72
59.03
38.06
19.28
2.77
-11.84
-25.34
-38.73
-52.81
-67.53
-81.74
-93.48
-100.84
-102.90
-100.03
-93.55
-84.86
-74.71
-63.10
-49.93
-35.69
-21.62
-9.13
0.98
9.15
16.63
24.52
32.81
40.20
44.61
44.19
37.99
26.02
9.00
-11.96
-35.19
-58.15
-77.23
-88.12
-87.04
-72.27
-45.34
-11.08
23.78
52.89
72.32
81.75
84.04
83.49
83.80
86.66
91.55
96.66
100.26
101.83
102.05
102.39
104.09
107.52
111.98
116.08
118.40
118.12
115.29
110.66
105.27
99.89
94.80
89.87
84.89
79.89
75.15
70.84
66.53
60.98
52.25
38.53
18.98
-5.59
-32.76
-59.30
-82.30
-100.22
-113.09
-122.09
-128.48
-132.83
-134.85
-133.81
-129.39
-122.31
-114.29
-107.41
-103.23
-102.17
-103.50
-105.86
-108.01
-109.26
-109.52
-108.87
-107.19
-104.11
-99.32
-93.18
-86.97
-82.69
-81.97
-85.01
-89.84
-92.82
-89.92
-78.60
-58.91
-33.57
-6.85
17.14
35.70
47.82
53.59
53.40
47.81
38.23
27.70
20.99
23.29
37.89
64.24
97.48
130.15
155.09
168.00
168.50
159.13
143.53
124.72
104.64
84.50
65.41
48.43
34.16
22.30
11.76
1.42
-9.19
-19.50
-28.38
-34.98
-39.19
-41.56
-42.73
-42.89
-41.65
-38.38
-32.48
-23.49
-10.95
5.63
26.50
51.05
77.42
102.62
123.47
137.99
146.51
151.86
158.27
169.60
187.57
210.93
236.04
258.31
273.71
279.44
273.80
255.84
225.43
184.07
135.61
86.24
43.04
11.64
-5.93
-11.86
-11.20
-9.35
-9.70
-12.83
-17.32
-21.57
-25.10
-28.81
-34.07
-41.64
-51.05
-60.76
-68.84
-73.60
-74.12
-70.31
-62.80
-52.82
-42.10
-32.52
-25.61
-21.96
-20.88
-20.48
-18.42
-12.79
-2.93
10.38
25.29
39.57
51.30
59.34
63.37
63.92
62.08
59.25
56.84
55.80
56.28
57.45
57.82
55.79
50.17
40.60
27.55
12.01
-4.75
-21.38
-36.53
-49.01
-58.04
-63.70
-67.15
-70.35
-75.28
-82.89
-92.41
-101.53
-107.40
-107.99
-103.19
-94.76
-85.51
-78.06
-73.83
-72.75
-73.88
-76.12
-78.78
-81.66
-84.63
-87.25
-88.73
-88.16
-85.01
-79.36
-71.96
-63.88
-56.22
-49.68
-44.50
-40.40
-36.84
-33.25
-29.35
-25.30
-21.69
-19.30
-18.70
-20.01
-22.72
-25.83
-28.14
-28.54
-26.27
-21.00
-12.92
-2.62
8.93
20.54
31.02
39.46
45.39
48.83
50.11
49.59
47.48
43.83
38.69
32.35
25.47
18.84
13.16
8.69
5.21
2.22
-0.77
-3.93
-7.09
-9.89
-12.05
-13.51
-14.39
-14.90
-15.28
-15.73
-16.51
-17.88
-20.00
-22.67
-25.19
-26.46
-25.28
-20.80
-12.91
-2.26
9.89
22.09
33.07
41.93
48.20
51.71
52.46
50.58
46.30
40.12
32.75
25.15
18.31
12.98
9.48
7.59
6.69
5.94
4.66
2.49
-0.49
-3.92
-7.32
-10.27
-12.52
-14.00
-14.91
-15.62
-16.67
-18.57
-21.53
-25.24
-28.84
-31.14
-31.08
-28.16
-22.67
-15.52
-7.83
-0.49
5.96
11.38
15.72
18.93
20.97
21.90
22.10
22.16
22.69
24.04
26.13
28.51
30.60
31.99
32.56
32.41
31.60
30.04
27.41
23.42
18.06
11.75
5.20
-0.93
-6.43
-11.57
-16.91
-22.78
-28.92
-34.41
-38.00
-38.69
-36.18
-31.00
-24.34
-17.55
-11.76
-7.59
-5.14
-4.19
-4.39
-5.49
-7.38
-10.00
-13.17
-16.50
-19.42
-21.40
-22.20
-21.95
-21.19
-20.49
-20.30
-20.64
-21.16
-21.34
-20.78
-19.46
-17.68
-15.98
-14.85
-14.56
-15.23
-16.89
-19.65
-23.64
-28.82
-34.68
-40.14
-43.79
-44.45
-41.70
-36.10
-28.90
-21.54
-15.02
-9.70
-5.50
-2.19
0.25
1.59
1.54
0.06
-2.51
-5.49
-8.10
-9.67
-9.87
-8.81
-6.93
-4.90
-3.41
-2.92
-3.52
-4.93
-6.72
-8.48
-10.09
-11.63
-13.36
-15.57
-18.35
-21.64
-25.12
-28.18
-29.75
-28.36
-22.41
-10.90
5.90
26.03
46.30
63.20
74.21
78.68
77.78
73.81
69.04
64.95
62.02
60.08
58.84
58.19
58.15
58.57
59.00
58.74
57.11
53.71
48.51
41.81
34.09
25.81
17.38
9.10
1.13
-6.48
-13.78
-20.84
-27.70
-34.35
-40.72
-46.80
-52.53
-57.85
-62.40
-65.56
-66.47
-64.29
-58.60
-49.61
-38.15
-25.46
-12.79
-1.14
8.92
17.12
23.45
27.97
30.79
32.06
31.95
30.70
28.57
25.90
23.06
20.44
18.37
17.02
16.36
16.12
15.93
15.34
14.01
11.79
8.68
4.86
0.62
-3.77
-8.06
-12.21
-16.34
-20.77
-25.84
-31.81
-38.58
-45.66
-52.06
-56.52
-57.82
-55.15
-48.37
-38.14
-25.74
-12.76
-0.71
9.31
16.72
21.47
23.83
24.22
23.06
20.74
17.65
14.21
10.88
8.12
6.33
5.70
6.21
7.55
9.24
10.74
11.60
11.57
10.65
8.99
6.82
4.29
1.52
-1.36
-4.19
-6.78
-9.01
-10.95
-12.73
-14.42
-15.68
-15.74
-13.56
-8.28
0.34
11.70
24.47
37.06
48.10
56.73
62.64
65.85
66.58
65.17
62.13
58.17
54.12
50.75
48.55
47.63
47.70
48.20
48.53
48.18
46.91
44.73
41.90
38.77
35.65
32.68
29.66
26.04
20.93
13.27
2.15
-12.78
-31.07
-51.36
-71.69
-89.96
-104.43
-114.04
-118.36
-117.49
-111.73
-101.73
-88.49
-73.42
-58.20
-44.33
-32.77
-23.73
-16.88
-11.67
-7.69
-4.68
-2.41
-0.42
1.99
5.59
10.87
17.80
25.77
33.95
41.54
48.06
53.39
57.74
61.56
65.62
70.98
78.84
90.01
104.12
119.11
131.19
135.77
128.83
108.45
75.63
34.03
-11.11
-54.47
-91.76
-120.18
-138.31
-145.80
-143.18
-131.97
-114.80
-95.13
-76.59
-62.08
-52.94
-48.79
-47.91
-48.18
-47.93
-46.49
-44.13
-41.71
-40.06
-39.57
-39.96
-40.32
-39.44
-36.22
-30.14
-21.52
-11.50
-1.77
6.10
11.07
12.96
12.34
10.22
7.71
5.79
5.26
6.56
9.57
13.48
16.79
17.75
15.11
8.72
-0.23
-9.70
-17.61
-22.67
-24.77
-24.69
-23.53
-22.02
-20.38
-18.47
-16.24
-13.99
-12.36
-11.92
-12.80
-14.46
-15.87
-15.97
-14.20
-10.69
-6.26
-1.99
1.20
3.00
3.76
4.38
5.85
8.86
13.55
19.51
26.09
32.64
38.80
44.37
49.14
52.65
54.26
53.40
50.02
44.84
39.23
34.71
32.33
32.25
33.81
35.81
37.14
37.10
35.51
32.57
28.58
23.78
18.27
12.15
5.57
-1.17
-7.65
-13.41
-18.15
-21.80
-24.53
-26.80
-29.08
-31.74
-34.88
-38.33
-41.74
-44.83
-47.49
-49.82
-51.95
-53.90
-55.40
-55.87
-54.48
-50.34
-42.80
-31.75
-17.77
-2.06
13.79
28.21
40.03
48.66
53.99
56.24
55.74
52.87
48.04
41.75
34.64
27.51
21.15
16.26
13.33
12.54
13.68
16.26
19.63
23.12
26.18
28.41
29.67
30.05
29.99
30.12
31.05
33.10
36.06
39.19
41.66
42.89
42.85
41.87
40.32
38.30
35.63
32.13
27.93
23.59
19.84
17.23
15.85
15.48
15.89
17.18
19.74
24.00
29.88
36.56
42.64
46.69
47.82
46.08
42.42
38.20
34.66
32.60
32.15
32.97
34.63
36.70
38.92
41.11
43.14
44.87
46.23
47.16
47.58
47.28
45.85
42.77
37.61
30.20
20.68
9.49
-2.74
-15.21
-27.06
-37.52
-46.04
-52.53
-57.37
-61.20
-64.51
-67.37
-69.49
-70.62
-71.11
-72.18
-75.67
-83.15
-94.83
-108.85
-121.51
-128.43
-126.24
-113.92
-93.17
-67.72
-41.77
-18.47
0.82
16.34
28.96
39.14
46.59
50.60
50.87
48.16
44.28
41.38
41.06
43.68
48.37
53.56
57.86
60.60
62.06
63.07
64.38
66.22
68.05
68.88
67.76
64.31
58.91
52.59
46.54
41.70
38.42
36.52
35.59
35.21
35.09
34.96
34.46
33.02
29.95
24.76
17.33
8.10
-2.10
-12.28
-21.56
-29.24
-34.82
-37.85
-37.84
-34.32
-27.07
-16.30
-2.72
12.58
28.37
43.46
56.80
67.28
73.56
74.17
67.96
54.73
35.75
13.80
-7.40
-24.14
-33.76
-35.27
-29.55
-18.98
-6.76
3.77
9.82
9.46
1.98
-12.11
-31.08
-52.32
-72.83
-89.76
-100.77
-104.30
-99.59
-86.64
-66.14
-39.52
-8.88
23.01
52.89
77.35
93.20
98.09
91.02
72.89
46.73
17.47
-9.16
-28.07
-36.36
-34.05
-23.78
-9.44
5.57
19.47
32.36
45.26
58.78
72.12
82.79
87.40
83.09
69.00
47.20
22.58
1.35
-10.93
-11.33
-0.27
19.08
42.49
66.34
88.49
107.89
123.59
133.97
136.83
130.36
114.38
90.87
63.49
36.33
12.62
-5.95
-19.04
-27.09
-30.72
-30.60
-27.76
-23.92
-21.43
-22.59
-28.66
-39.16
-51.85
-63.60
-71.59
-74.29
-71.86
-65.82
-58.36
-51.69
-47.55
-46.97
-50.08
-56.02
-63.08
-69.06
-71.99
-70.74
-65.42
-57.16
-47.68
-38.74
-31.78
-27.66
-26.70
-28.65
-32.77
-38.01
-43.38
-48.40
-53.24
-58.67
-65.38
-73.33
-81.30
-87.09
-88.33
-83.52
-72.66
-57.24
-39.64
-22.44
-7.93
1.97
5.62
1.88
-9.38
-26.82
-47.58
-67.96
-84.54
-95.14
-99.33
-98.14
-93.35
-86.53
-78.46
-68.87
-56.79
-41.28
-22.24
-0.96
19.94
37.42
49.23
54.96
56.10
55.20
54.43
54.41
54.09
51.82
46.57
38.81
30.31
23.04
17.99
14.59
11.02
5.23
-4.05
-16.82
-32.11
-48.55
-64.91
-80.36
-94.22
-105.66
-113.56
-116.71
-114.21
-105.83
-92.24
-74.92
-55.89
-37.22
-20.65
-7.26
2.66
9.45
13.90
16.87
18.98
20.43
21.10
20.76
19.26
16.77
13.74
10.74
8.22
6.42
5.27
4.57
4.10
3.73
3.44
3.29
3.38
3.74
4.31
4.96
5.54
5.94
6.16
6.45
7.14
8.59
10.99
14.24
17.93
21.54
24.65
27.02
28.69
29.79
30.40
30.47
29.83
28.34
26.01
23.01
19.67
16.33
13.21
10.41
7.94
5.72
3.70
1.81
-0.02
-1.88
-3.85
-6.04
-8.56
-11.51
-14.93
-18.82
-23.07
-27.50
-31.84
-35.81
-39.17
-41.69
-43.18
-43.50
-42.56
-40.44
-37.38
-33.85
-30.37
-27.41
-25.17
-23.67
-22.75
-22.31
-22.40
-23.29
-25.20
-28.17
-31.92
-35.91
-39.61
-42.71
-45.24
-47.53
-49.99
-52.92
-56.48
-60.65
-65.26
-70.14
-75.03
-79.70
-83.87
-87.39
-90.18
-92.22
-93.45
-93.64
-92.29
-88.77
-82.46
-72.88
-59.79
-43.18
-23.38
-1.15
22.22
44.96
65.11
80.89
91.10
95.47
94.65
90.00
83.22
75.94
69.43
64.37
60.75
57.93
54.79
50.10
42.91
32.99
20.88
7.78
-4.86
-15.86
-24.67
-31.57
-37.53
-43.87
-51.76
-61.72
-73.41
-85.57
-96.33
-103.65
-105.80
-101.81
-91.60
-76.06
-56.71
-35.37
-13.76
6.80
25.40
41.50
54.70
64.73
71.58
75.69
78.07
80.03
82.67
86.28
90.09
92.55
92.10
87.95
80.62
71.77
63.54
57.70
55.02
55.10
56.59
57.79
57.33
54.74
50.76
47.21
46.47
50.66
60.98
77.20
97.71
119.80
140.31
156.31
165.97
169.32
168.64
167.92
171.38
181.31
196.54
212.24
221.67
218.85
200.86
168.67
126.36
79.40
33.06
-8.59
-42.88
-68.44
-85.12
-93.99
-97.17
-97.31
-96.78
-97.00
-98.21
-99.79
-100.79
-100.53
-98.90
-96.29
-93.36
-90.75
-88.75
-87.09
-85.12
-82.13
-77.72
-72.01
-65.43
-58.51
-51.62
-45.03
-38.97
-33.75
-29.67
-26.88
-25.22
-24.23
-23.31
-21.98
-20.02
-17.56
-15.00
-12.83
-11.42
-10.94
-11.24
-11.94
-12.64
-13.01
-13.03
-12.91
-13.02
-13.64
-14.78
-16.18
-17.43
-18.16
-18.20
-17.62
-16.60
-15.34
-13.89
-12.23
-10.28
-8.02
-5.50
-2.86
-0.25
2.18
4.29
5.99
7.21
7.97
8.32
8.36
8.18
7.83
7.33
6.70
6.02
5.43
5.08
5.05
5.27
5.58
5.76
5.68
5.40
5.04
4.76
4.59
4.44
4.12
3.40
2.21
0.49
-1.76
-4.57
-7.92
-11.67
-15.48
-18.87
-21.32
-22.47
-22.27
-21.00
-19.17
-17.34
-15.94
-15.22
-15.17
-15.67
-16.62
-18.05
-20.19
-23.39
-28.01
-34.14
-41.47
-49.22
-56.19
-61.10
-62.91
-61.13
-56.01
-48.53
-40.23
-32.78
-27.71
-25.99
-27.79
-32.36
-38.00
-42.33
-42.71
-37.00
-24.20
-4.89
18.79
43.74
66.85
85.73
99.28
107.53
111.22
111.34
108.88
104.75
99.85
94.92
90.25
85.46
79.54
71.35
60.38
47.24
33.71
22.14
14.55
11.85
13.46
17.52
21.49
22.90
20.10
12.64
1.49
-11.24
-22.99
-31.51
-35.66
-35.63
-32.77
-28.84
-25.30
-22.95
-21.93
-22.11
-23.37
-25.62
-28.64
-31.77
-33.92
-33.85
-30.70
-24.35
-15.52
-5.47
4.50
13.50
21.16
27.63
33.23
38.24
42.77
46.78
50.19
53.02
55.43
57.67
60.12
63.13
67.03
72.06
78.37
86.04
94.97
104.80
114.77
123.65
129.95
132.25
129.70
122.35
111.29
98.43
86.01
76.12
70.27
69.23
73.13
81.53
93.63
108.41
124.84
142.11
159.77
177.56
194.96
210.55
221.76
225.05
216.96
195.18
159.38
111.40
54.84
-5.58
-64.61
-117.00
-158.17
-184.96
-196.57
-195.04
-184.74
-171.10
-158.89
-150.94
-147.82
-148.61
-151.99
-157.12
-163.79
-171.99
-181.30
-190.69
-198.80
-204.51
-207.28
-207.31
-205.11
-201.01
-194.91
-186.40
-175.16
-161.42
-146.09
-130.45
-115.73
-102.59
-90.98
-80.28
-69.66
-58.45
-46.35
-33.54
-20.57
-8.21
2.71
11.54
17.99
22.03
23.95
24.12
22.94
20.73
17.82
14.61
11.50
8.90
7.05
5.96
5.39
4.97
4.29
3.04
1.06
-1.63
-4.90
-8.54
-12.31
-15.94
-19.21
-21.91
-23.89
-25.05
-25.34
-24.79
-23.46
-21.57
-19.44
-17.48
-16.08
-15.44
-15.55
-16.13
-16.84
-17.35
-17.56
-17.60
-17.75
-18.31
-19.48
-21.30
-23.67
-26.38
-29.11
-31.49
-33.13
-33.74
-33.25
-31.85
-29.97
-27.97
-25.97
-23.63
-20.33
-15.42
-8.52
0.22
10.25
20.83
31.32
41.25
50.29
58.13
64.37
68.72
71.14
72.11
72.51
73.46
75.90
80.24
86.24
92.93
98.87
102.45
102.20
97.29
87.66
74.19
58.37
41.94
26.23
11.95
-0.95
-12.91
-24.37
-35.45
-45.85
-55.00
-62.32
-67.45
-70.26
-70.81
-69.25
-65.85
-61.06
-55.55
-50.10
-45.48
-42.15
-40.22
-39.50
-39.66
-40.37
-41.32
-42.20
-42.59
-42.08
-40.46
-37.79
-34.52
-31.16
-28.10
-25.33
-22.58
-19.49
-15.99
-12.45
-9.58
-8.25
-9.02
-11.94
-16.42
-21.41
-25.74
-28.41
-28.95
-27.42
-24.34
-20.40
-16.27
-12.43
-9.19
-6.81
-5.56
-5.74
-7.59
-11.19
-16.35
-22.60
-29.31
-35.78
-41.52
-46.35
-50.46
-54.34
-58.53
-63.33
-68.65
-74.03
-78.75
-82.12
-83.53
-82.59
-79.18
-73.58
-66.49
-59.03
-52.48
-47.83
-45.44
-44.77
-44.59
-43.37
-39.82
-33.22
-23.55
-11.32
2.64
17.50
32.56
47.40
61.84
75.88
89.48
102.43
114.42
125.13
134.53
143.01
151.17
159.58
168.39
177.23
185.38
192.18
197.36
201.20
204.24
206.98
209.68
212.44
215.38
218.81
222.87
227.02
229.49
227.29
216.79
194.87
160.04
113.26
58.04
-0.30
-55.73
-102.78
-137.56
-158.22
-164.93
-159.44
-144.43
-122.99
-98.19
-72.93
-49.85
-31.15
-18.40
-12.06
-11.45
-14.76
-19.66
-23.94
-26.10
-25.76
-23.48
-20.36
-17.51
-15.67
-15.09
-15.64
-17.05
-19.14
-21.83
-25.06
-28.66
-32.35
-35.81
-38.89
-41.72
-44.79
-48.73
-53.98
-60.42
-67.15
-72.61
-75.00
-72.92
-65.90
-54.63
-40.75
-26.43
-13.73
-4.16
1.53
3.30
1.69
-2.44
-8.04
-13.93
-18.90
-21.87
-22.10
-19.33
-13.92
-6.68
1.33
9.22
16.47
23.05
29.18
35.08
40.70
45.62
49.20
50.80
50.00
46.72
41.19
33.89
25.50
16.88
9.04
3.00
-0.37
-0.70
1.75
6.11
11.15
15.73
19.06
20.90
21.44
21.03
19.99
18.44
16.44
14.09
11.67
9.63
8.49
8.73
10.57
13.94
18.48
23.62
28.74
33.32
37.01
39.53
40.60
39.79
36.56
30.44
21.38
9.82
-3.49
-17.73
-32.27
-46.76
-60.93
-74.41
-86.53
-96.29
-102.79
-105.63
-105.13
-102.08
-97.38
-91.63
-85.09
-77.92
-70.15
-62.13
-54.54
-48.18
-43.62
-40.86
-39.44
-38.73
-38.28
-37.21
-34.85
-30.94
-25.90
-20.51
-15.56
-11.68
-9.27
-8.74
-8.75
-7.74
-4.81
-0.40
4.11
7.23
7.88
5.61
0.13
-5.67
-8.35
-5.41
3.51
16.98
32.98
49.56
65.11
77.59
88.80
101.27
116.89
136.29
159.81
188.79
225.24
270.66
307.48
319.01
296.80
247.33
185.70
125.04
72.17
28.29
-3.65
-30.37
-53.13
-70.31
-80.04
-82.45
-79.77
-74.77
-71.57
-72.05
-77.58
-85.34
-91.81
-94.61
-93.66
-90.56
-87.06
-84.19
-81.99
-80.69
-78.20
-72.46
-62.39
-48.42
-32.05
-15.04
1.05
15.14
26.02
34.18
40.67
46.61
52.70
59.08
65.51
71.57
76.94
81.28
84.99
88.64
92.58
96.70
100.51
103.49
105.59
107.40
109.92
114.27
121.19
130.72
142.26
154.91
167.90
180.92
194.06
207.39
220.56
232.39
240.89
243.65
238.57
224.55
201.86
171.99
137.12
99.34
60.11
20.12
-20.50
-61.63
-102.84
-143.10
-180.81
-213.87
-239.78
-256.09
-261.01
-254.25
-237.64
-215.14
-191.91
-172.74
-160.58
-155.77
-156.39
-159.48
-162.42
-163.77
-163.26
-161.28
-158.17
-153.95
-148.45
-141.63
-133.81
-125.44
-116.84
-107.93
-98.14
-86.81
-73.65
-58.99
-43.90
-29.75
-17.83
-8.91
-3.03
0.39
2.22
3.33
4.35
5.51
6.74
7.78
8.34
8.23
7.50
6.30
4.90
3.56
2.33
1.14
-0.15
-1.62
-3.20
-4.79
-6.31
-7.93
-10.00
-12.88
-16.74
-21.39
-26.36
-31.03
-34.82
-37.34
-38.33
-37.60
-35.06
-30.83
-25.30
-19.19
-13.35
-8.54
-5.21
-3.43
-3.11
-4.09
-6.29
-9.61
-13.86
-18.62
-23.30
-27.30
-30.15
-31.74
-32.21
-31.99
-31.55
-31.40
-31.90
-33.29
-35.54
-38.33
-41.19
-43.55
-45.05
-45.64
-45.53
-44.99
-44.12
-42.72
-40.42
-36.83
-31.80
-25.56
-18.57
-11.33
-4.27
2.38
8.47
13.82
18.20
21.34
23.14
23.69
23.34
22.62
22.06
22.11
23.10
25.15
28.21
31.99
36.09
39.98
43.24
45.61
47.10
47.85
48.05
47.76
46.88
45.18
42.40
38.39
33.08
26.54
18.98
10.81
2.72
-4.32
-9.23
-11.07
-9.44
-4.65
2.27
9.86
16.62
21.49
24.01
24.29
22.88
20.43
17.52
14.61
12.06
10.15
9.05
8.82
9.28
10.10
10.89
11.32
11.25
10.72
9.88
8.83
7.53
5.70
2.92
-1.18
-6.73
-13.46
-20.64
-27.26
-32.26
-34.75
-34.09
-29.83
-21.60
-9.07
7.86
28.78
52.46
76.93
99.74
118.60
131.87
138.85
139.70
135.19
126.33
114.21
99.89
84.41
68.70
53.51
39.28
26.09
13.77
2.08
-9.15
-19.81
-29.65
-38.34
-45.69
-51.77
-56.88
-61.48
-65.92
-70.28
-74.29
-77.33
-78.69
-77.72
-74.09
-67.92
-59.74
-50.35
-40.61
-31.25
-22.77
-15.49
-9.65
-5.44
-3.02
-2.36
-3.13
-4.68
-6.25
-7.22
-7.37
-6.94
-6.41
-6.27
-6.75
-7.77
-9.04
-10.25
-11.26
-12.14
-13.14
-14.54
-16.62
-19.48
-23.05
-27.06
-31.01
-34.21
-35.89
-35.34
-32.15
-26.35
-18.44
-9.30
-0.01
8.48
15.47
20.63
23.93
25.55
25.74
24.80
22.98
20.58
17.93
15.41
13.35
11.94
11.20
10.89
10.65
10.10
9.03
7.46
5.64
3.91
2.40
1.02
-0.63
-3.04
-6.49
-10.83
-15.39
-19.09
-20.80
-19.67
-15.42
-8.43
0.43
10.14
19.78
28.72
36.58
43.17
48.30
51.77
53.44
53.31
51.70
49.28
46.94
45.53
45.57
46.99
49.24
51.51
53.09
53.69
53.53
53.18
53.24
53.99
55.29
56.52
56.77
55.04
50.39
42.23
30.57
16.11
0.27
-15.05
-27.89
-36.69
-40.67
-39.93
-35.43
-28.59
-20.99
-13.96
-8.43
-4.87
-3.42
-4.04
-6.56
-10.62
-15.69
-21.01
-25.71
-29.11
-30.98
-31.57
-31.55
-31.69
-32.51
-34.09
-36.07
-37.88
-39.00
-39.25
-38.87
-38.45
-38.71
-40.23
-43.19
-47.26
-51.65
-55.27
-57.04
-56.06
-51.86
-44.46
-34.41
-22.63
-10.26
1.62
12.18
20.92
27.61
32.24
34.88
35.63
34.68
32.34
29.06
25.29
21.46
17.83
14.52
11.51
8.74
6.10
3.41
0.44
-3.09
-7.42
-12.62
-18.61
-25.14
-31.91
-38.73
-45.55
-52.43
-59.23
-65.56
-70.61
-73.38
-72.95
-68.88
-61.34
-51.14
-39.41
-27.22
-15.28
-3.79
7.45
18.82
30.48
42.28
53.68
63.98
72.62
79.34
84.26
87.59
89.37
89.26
86.60
80.81
71.72
59.86
46.30
32.33
18.98
6.74
-4.53
-15.27
-25.92
-36.73
-47.68
-58.62
-69.44
-80.05
-90.33
-99.89
-108.03
-113.81
-116.41
-115.36
-110.75
-103.14
-93.21
-81.52
-68.45
-54.39
-39.95
-26.17
-14.30
-5.36
0.28
3.10
4.20
4.84
5.91
7.66
9.83
11.92
13.52
14.53
15.08
15.35
15.45
15.29
14.71
13.52
11.63
9.09
6.00
2.42
-1.67
-6.27
-11.26
-16.11
-19.93
-21.53
-19.86
-14.44
-5.60
5.52
17.30
28.23
37.25
44.00
48.59
51.37
52.58
52.33
50.64
47.75
44.17
40.62
37.85
36.25
35.78
35.93
36.05
35.64
34.55
32.99
31.34
29.94
28.90
28.09
27.30
26.28
24.87
22.92
20.27
16.77
12.39
7.42
2.50
-1.34
-2.93
-1.23
4.23
13.22
24.76
37.43
49.72
60.48
69.20
75.95
81.14
85.21
88.41
90.71
91.94
92.02
91.01
89.14
86.64
83.70
80.34
76.50
72.15
67.36
62.29
57.12
51.99
46.97
42.07
37.26
32.44
27.40
21.85
15.38
7.73
-1.05
-10.50
-19.64
-27.09
-31.34
-31.07
-25.54
-14.87
-0.11
16.97
34.31
50.11
63.14
72.88
79.39
82.87
83.46
81.07
75.51
66.77
55.33
42.17
28.61
16.02
5.39
-2.74
-8.32
-11.58
-12.81
-12.28
-10.36
-7.66
-5.06
-3.56
-4.03
-6.82
-11.74
-18.27
-25.75
-33.53
-40.90
-47.00
-50.93
-52.09
-50.47
-46.83
-42.36
-38.23
-35.04
-32.75
-30.87
-29.04
-27.25
-25.88
-25.31
-25.66
-26.71
-28.10
-29.60
-31.17
-32.90
-34.79
-36.72
-38.60
-40.36
-41.98
-43.42
-44.33
-44.08
-42.04
-37.89
-32.14
-25.96
-20.92
-18.31
-18.68
-21.79
-26.92
-33.24
-39.95
-46.32
-51.75
-55.89
-58.82
-61.16
-63.79
-67.20
-70.99
-73.77
-73.81
-69.88
-62.05
-51.66
-40.66
-30.76
-22.86
-17.21
-13.97
-13.76
-17.62
-26.42
-40.17
-57.59
-76.42
-94.21
-109.26
-121.15
-130.61
-138.71
-146.09
-152.33
-156.12
-155.80
-150.22
-139.24
-123.87
-105.92
-87.62
-71.18
-58.48
-50.63
-47.42
-47.02
-45.99
-40.09
-25.51
-0.04
36.26
81.21
131.38
182.97
232.41
276.45
312.17
337.05
349.51
349.50
338.74
320.33
297.71
273.31
247.61
219.24
186.11
147.38
105.30
65.57
35.93
23.21
30.05
53.15
83.82
110.90
124.56
119.42
95.64
57.70
12.04
-35.31
-80.07
-119.70
-152.83
-178.51
-196.11
-205.41
-207.07
-202.67
-194.52
-185.03
-176.11
-168.72
-162.94
-158.30
-154.37
-151.15
-149.18
-149.33
-152.32
-158.36
-166.85
-176.50
-185.67
-192.83
-197.01
-198.04
-196.47
-193.33
-189.77
-186.57
-183.89
-181.02
-176.45
-168.20
-154.25
-133.03
-103.87
-67.31
-25.23
19.12
61.69
98.35
125.85
142.62
148.95
146.62
138.17
126.26
113.52
102.78
97.19
100.04
113.95
139.78
175.82
217.89
260.26
297.10
324.01
338.90
341.99
335.30
321.60
303.58
283.22
261.64
239.19
215.65
190.60
163.74
135.36
106.64
79.75
57.35
41.48
32.35
27.60
22.75
12.89
-5.17
-31.32
-62.26
-93.21
-120.32
-142.49
-161.50
-180.54
-202.03
-226.15
-250.84
-273.10
-290.75
-303.37
-312.18
-318.88
-324.53
-328.99
-331.31
-330.56
-326.62
-320.40
-313.47
-307.48
-303.60
-302.26
-303.28
-306.11
-309.99
-313.85
-316.13
-314.62
-306.68
-289.78
-262.28
-223.94
-175.92
-120.38
-59.97
2.48
63.89
120.84
169.67
207.12
231.16
241.85
241.43
233.66
222.61
211.35
201.35
192.57
184.18
175.46
166.32
157.33
149.23
142.36
136.36
130.21
122.75
113.29
101.93
89.47
76.97
65.30
54.97
46.26
39.54
35.50
34.95
38.49
46.06
56.72
68.87
80.66
90.60
97.85
102.28
104.25
104.30
102.95
100.68
98.00
95.47
93.70
93.22
94.28
96.80
100.20
103.61
105.93
106.09
103.27
97.15
88.13
77.28
66.17
56.37
48.96
44.14
41.26
39.16
36.81
33.79
30.54
28.18
28.10
31.48
38.88
50.10
64.27
80.07
95.99
110.68
123.02
132.28
138.07
140.44
139.89
137.35
134.03
131.15
129.55
129.45
130.35
131.27
131.05
128.65
123.22
114.07
100.42
81.40
56.15
24.11
-14.59
-58.79
-106.11
-153.08
-195.78
-230.75
-255.81
-270.46
-275.56
-272.44
-262.20
-245.35
-222.06
-192.75
-158.28
-119.73
-77.78
-32.44
16.73
69.67
124.96
179.48
228.96
269.08
296.45
308.98
305.79
286.74
252.49
204.86
147.47
85.91
26.91
-23.23
-60.48
-84.19
-96.86
-102.74
-105.95
-108.95
-112.27
-115.14
-116.74
-116.95
-116.44
-115.94
-115.50
-114.13
-110.21
-102.33
-90.09
-74.34
-56.91
-39.90
-24.93
-12.76
-3.21
4.40
10.80
16.33
20.80
23.68
24.48
23.14
20.22
16.77
13.98
12.63
12.89
14.16
15.47
15.90
14.98
12.81
9.89
6.83
3.95
1.27
-1.42
-4.42
-7.88
-11.78
-16.05
-20.56
-25.12
-29.38
-32.77
-34.47
-33.65
-29.73
-22.69
-13.13
-2.16
8.93
18.95
27.13
33.13
36.96
38.75
38.60
36.50
32.44
26.49
18.96
10.51
1.99
-5.69
-11.87
-16.36
-19.46
-21.77
-23.98
-26.54
-29.55
-32.88
-36.29
-39.64
-42.94
-46.30
-49.81
-53.50
-57.44
-61.68
-66.27
-71.05
-75.48
-78.52
-78.98
-75.89
-68.99
-58.85
-46.74
-34.14
-22.32
-12.10
-3.84
2.43
6.89
9.98
12.44
15.12
18.66
23.10
27.69
31.24
32.87
32.70
32.14
33.36
38.10
46.45
56.39
64.46
67.42
64.15
56.56
49.12
46.95
53.49
68.96
90.29
112.44
130.27
139.97
139.33
127.43
104.49
72.40
35.61
1.21
-22.65
-29.75
-18.96
4.49
30.64
48.89
52.45
40.75
18.78
-6.15
-28.25
-45.42
-59.09
-72.09
-86.23
-101.12
-114.42
-123.30
-125.86
-121.96
-113.01
-101.32
-89.12
-78.17
-69.72
-64.69
-63.80
-67.63
-76.27
-88.98
-104.06
-119.03
-131.34
-139.08
-141.57
-139.48
-134.31
-127.80
-121.29
-115.40
-110.03
-104.56
-98.11
-89.81
-78.96
-65.29
-48.87
-30.02
-8.91
14.69
41.14
70.41
101.45
131.84
158.40
178.26
190.06
194.57
194.29
192.16
190.34
189.41
188.46
186.01
180.95
173.18
163.70
154.07
145.71
139.26
134.35
129.64
123.25
113.18
97.84
76.55
50.01
20.47
-8.51
-32.88
-49.28
-56.20
-54.53
-47.23
-38.29
-31.28
-28.34
-29.83
-34.77
-41.65
-49.11
-56.28
-62.65
-67.80
-71.28
-72.70
-71.92
-69.36
-65.91
-62.75
-60.97
-61.22
-63.51
-67.32
-71.85
-76.24
-79.71
-81.59
-81.31
-78.46
-72.92
-65.12
-56.02
-47.09
-39.99
-36.06
-36.03
-39.74
-46.35
-54.60
-63.30
-71.51
-78.61
-83.99
-86.84
-86.12
-80.94
-71.08
-57.33
-41.40
-25.32
-10.60
2.37
14.30
26.35
39.45
53.70
68.44
82.86
96.57
109.97
124.06
139.78
157.29
175.57
192.35
204.53
208.98
203.13
185.58
156.53
118.09
74.40
31.08
-5.88
-31.72
-44.35
-45.06
-38.05
-28.89
-22.74
-22.85
-30.02
-42.95
-59.15
-75.86
-90.71
-102.06
-109.10
-111.94
-111.49
-109.19
-106.53
-104.58
-103.71
-103.78
-104.31
-104.84
-105.21
-105.53
-106.07
-107.12
-108.80
-110.93
-112.89
-113.53
-111.31
-104.93
-93.89
-79.03
-62.46
-46.77
-33.91
-24.06
-15.24
-3.88
13.83
40.28
75.25
115.75
156.87
193.43
221.58
239.70
248.28
249.04
243.81
233.83
219.80
202.59
183.81
165.96
151.78
143.14
140.15
141.14
143.14
143.07
138.71
129.09
114.29
94.93
71.70
45.15
15.98
-14.58
-44.57
-71.51
-93.00
-107.46
-114.64
-115.64
-112.50
-107.42
-102.09
-97.20
-92.50
-87.21
-80.72
-73.06
-65.15
-58.42
-54.18
-53.01
-54.49
-57.43
-60.40
-62.33
-62.79
-62.03
-60.56
-58.84
-57.13
-55.49
-53.89
-52.36
-50.96
-49.77
-48.85
-48.23
-48.02
-48.34
-49.28
-50.71
-52.28
-53.28
-52.78
-49.86
-44.05
-35.60
-25.61
-15.82
-8.09
-3.78
-3.39
-6.51
-12.15
-19.18
-26.68
-33.94
-40.36
-45.28
-48.00
-47.97
-45.01
-39.46
-32.10
-23.93
-15.94
-8.84
-2.99
1.63
5.28
8.17
10.37
11.73
11.97
10.89
8.53
5.13
1.00
-3.69
-8.97
-14.86
-21.16
-27.25
-32.17
-34.99
-35.24
-33.08
-29.26
-24.78
-20.59
-17.41
-15.63
-15.43
-16.77
-19.37
-22.74
-26.20
-29.09
-30.88
-31.24
-29.94
-26.73
-21.36
-13.66
-3.83
7.43
18.94
29.26
36.98
40.92
40.28
34.61
23.90
8.65
-10.13
-31.04
-52.48
-72.93
-91.07
-105.69
-115.58
-119.45
-116.28
-105.71
-88.57
-66.93
-43.73
-21.98
-4.00
9.10
17.50
22.27
24.87
26.58
28.23
30.06
31.86
33.13
33.40
32.48
30.61
28.46
26.89
26.58
27.73
29.94
32.28
33.70
33.44
31.40
28.21
25.03
23.06
22.97
24.38
25.95
25.85
22.75
16.72
9.45
3.74
2.24
6.29
15.48
28.09
41.99
55.45
67.34
76.85
83.12
85.25
82.92
76.92
69.23
62.38
58.33
57.73
59.94
63.63
67.61
71.23
74.14
75.87
75.67
72.78
67.03
59.13
50.49
42.42
35.26
28.02
18.93
6.49
-9.40
-27.02
-43.42
-55.65
-62.06
-62.84
-59.64
-54.47
-48.56
-41.83
-33.35
-22.22
-8.63
5.87
18.77
27.55
30.63
27.75
19.91
8.80
-3.67
-15.81
-26.29
-34.26
-39.34
-41.63
-41.62
-39.93
-37.04
-33.13
-28.15
-22.08
-15.24
-8.56
-3.38
-1.07
-2.41
-7.09
-13.51
-19.11
-21.13
-17.51
-7.69
7.30
25.13
43.10
58.94
71.36
80.12
85.58
88.19
88.01
84.73
77.84
67.06
52.63
35.27
16.07
-3.93
-23.81
-42.79
-60.14
-75.12
-87.04
-95.47
-100.43
-102.46
-102.45
-101.33
-99.81
-98.25
-96.70
-95.12
-93.40
-91.40
-88.88
-85.42
-80.48
-73.58
-64.51
-53.56
-41.62
-29.99
-20.07
-12.96
-9.18
-8.61
-10.80
-15.16
-21.21
-28.52
-36.53
-44.52
-51.65
-57.26
-61.08
-63.18
-63.65
-62.16
-57.92
-50.05
-38.25
-23.48
-7.97
5.34
13.98
16.82
14.54
9.22
3.48
-0.36
-0.91
2.38
9.39
19.68
32.68
47.57
63.18
78.04
90.58
99.53
104.23
104.74
101.68
96.07
88.93
81.16
73.39
66.01
59.24
53.28
48.30
44.46
41.83
40.31
39.61
39.35
39.08
38.50
37.43
35.89
33.97
31.70
28.95
25.44
20.95
15.61
10.23
6.22
5.13
7.89
14.23
22.67
31.25
38.55
44.48
50.20
57.35
66.96
78.79
91.42
102.99
112.03
117.86
120.55
120.74
119.43
117.95
117.76
119.93
124.44
129.79
133.29
132.15
124.68
111.06
93.06
73.08
53.09
33.98
15.75
-1.93
-19.28
-36.35
-53.31
-70.71
-89.18
-109.13
-130.41
-152.40
-174.58
-196.88
-219.38
-241.48
-261.05
-274.54
-278.09
-269.24
-247.92
-216.27
-177.38
-133.86
-87.30
-38.84
9.68
55.12
93.70
122.40
140.35
149.12
151.77
151.39
149.93
147.97
145.35
141.88
137.70
133.10
128.35
123.60
119.00
114.90
111.83
110.17
109.87
110.43
111.11
111.36
110.87
109.49
106.91
102.63
96.43
89.16
83.19
82.11
89.45
107.15
134.42
168.24
204.56
239.83
271.63
298.08
316.63
323.60
315.16
289.43
248.30
197.45
144.32
94.92
51.37
11.59
-28.72
-73.24
-122.98
-176.00
-228.82
-278.21
-322.26
-360.41
-392.52
-418.27
-436.91
-447.77
-450.88
-447.18
-438.19
-425.25
-408.93
-388.56
-362.60
-329.63
-289.32
-243.14
-194.20
-146.31
-102.85
-65.74
-35.33
-10.93
8.45
23.38
33.99
40.17
42.05
40.26
36.06
31.13
27.28
25.96
27.85
32.59
38.77
44.48
47.94
48.20
45.47
40.85
35.79
31.39
28.03
25.50
23.31
21.16
19.13
17.55
16.70
16.45
16.22
15.21
12.83
9.10
4.74
0.87
-1.53
-1.98
-0.73
1.39
3.42
4.53
4.36
2.89
0.38
-2.85
-6.51
-10.34
-14.16
-17.86
-21.48
-25.18
-29.24
-33.96
-39.46
-45.68
-52.21
-58.35
-63.17
-65.59
-64.66
-59.79
-50.98
-38.93
-24.99
-10.83
1.98
12.32
19.78
24.66
27.70
29.92
32.27
35.46
39.86
45.46
51.89
58.48
64.36
68.56
70.26
69.02
64.92
58.53
50.70
42.22
33.56
24.92
16.39
8.24
0.97
-4.89
-9.17
-12.20
-14.78
-17.69
-21.26
-25.01
-27.92
-28.85
-27.18
-23.05
-17.39
-11.51
-6.73
-4.13
-4.40
-7.86
-14.45
-23.70
-34.86
-46.96
-59.02
-70.15
-79.62
-86.78
-91.16
-92.56
-91.20
-87.76
-83.18
-78.33
-73.63
-69.02
-64.12
-58.64
-52.61
-46.36
-40.29
-34.62
-29.29
-24.08
-18.71
-12.95
-6.52
0.95
9.98
20.96
33.89
48.20
62.83
76.50
88.18
97.32
103.89
108.15
110.36
110.65
109.03
105.61
100.69
94.81
88.55
82.32
76.21
70.08
63.80
57.36
51.01
45.04
39.51
34.07
27.95
20.23
10.29
-1.85
-15.38
-28.82
-40.46
-48.78
-52.85
-52.49
-48.22
-40.97
-31.82
-21.70
-11.25
-0.79
9.50
19.46
28.85
37.35
44.65
50.52
54.91
57.79
59.15
58.96
57.33
54.61
51.49
48.83
47.20
46.52
45.95
44.19
40.19
33.67
25.34
16.50
8.38
1.55
-4.23
-9.85
-16.27
-24.08
-33.18
-42.87
-52.01
-59.39
-64.01
-65.33
-63.33
-58.58
-51.98
-44.50
-36.96
-29.86
-23.51
-18.10
-13.79
-10.68
-8.64
-7.33
-6.21
-4.81
-2.88
-0.52
1.92
4.08
5.75
7.03
8.20
9.60
11.36
13.35
15.27
16.67
17.23
16.81
15.51
13.73
12.12
11.47
12.58
15.98
21.79
29.51
38.22
46.78
54.21
60.00
64.12
66.93
68.84
70.09
70.67
70.45
69.43
67.87
66.25
65.07
64.62
64.89
65.61
66.43
67.12
67.71
68.43
69.61
71.53
74.22
77.41
80.46
82.46
82.27
78.92
71.86
61.34
48.45
34.87
22.41
12.35
5.06
-0.07
-4.36
-9.37
-16.37
-26.06
-38.48
-53.16
-69.23
-85.70
-101.56
-115.97
-128.33
-138.18
-144.97
-147.89
-145.82
-137.79
-123.51
-103.89
-81.11
-57.98
-37.09
-19.88
-6.40
4.38
13.76
22.59
30.84
37.83
42.65
44.69
43.85
40.61
35.87
30.76
26.43
23.86
23.68
26.00
30.51
36.57
43.53
50.89
58.44
66.17
74.10
82.14
89.82
96.24
100.21
100.60
96.96
89.88
81.03
72.60
66.58
64.05
64.95
68.22
72.29
75.55
76.66
74.69
69.11
59.81
47.08
31.57
14.24
-3.70
-20.84
-35.63
-46.57
-52.62
-53.60
-50.63
-45.95
-42.49
-43.10
-49.66
-62.33
-79.25
-96.99
-111.70
-120.63
-123.30
-121.69
-119.27
-119.25
-122.92
-128.97
-134.15
-134.98
-129.55
-118.33
-103.81
-89.09
-76.37
-66.21
-57.94
-50.64
-44.31
-40.15
-40.06
-45.43
-55.97
-69.38
-82.11
-90.73
-93.14
-89.18
-80.27
-68.45
-55.46
-42.11
-28.34
-13.61
2.39
19.37
36.19
51.11
62.29
68.41
69.15
65.32
58.53
50.61
42.97
36.27
30.34
24.46
17.63
8.81
-3.04
-18.76
-38.50
-60.97
-83.04
-100.19
-107.87
-103.54
-87.88
-64.85
-40.05
-18.40
-2.27
8.94
17.62
26.10
35.24
44.35
52.12
57.94
62.52
67.53
74.41
83.43
93.33
101.89
107.08
108.33
106.83
104.96
104.87
107.18
110.32
111.32
107.37
97.43
82.78
66.34
51.15
39.04
30.50
25.37
23.75
25.78
30.63
35.59
36.52
29.83
14.95
-4.50
-21.95
-31.06
-28.95
-17.54
-2.09
12.01
22.00
28.52
34.27
41.70
51.42
62.01
71.00
76.02
75.35
68.02
53.88
33.61
8.71
-18.60
-45.97
-71.46
-93.92
-112.89
-128.22
-139.72
-147.39
-151.70
-153.84
-155.56
-158.47
-163.34
-169.70
-176.08
-180.58
-181.69
-178.69
-171.69
-161.30
-148.03
-131.97
-112.78
-90.06
-63.97
-35.78
-7.82
17.18
36.99
50.69
58.77
62.58
63.48
62.12
58.53
52.60
44.75
36.13
28.23
22.12
17.90
14.74
11.50
7.50
3.03
-0.90
-3.17
-3.33
-1.87
-0.06
0.67
-0.45
-3.22
-6.54
-8.85
-8.89
-6.17
-1.07
5.38
11.97
17.85
22.62
26.36
29.33
31.69
33.38
34.15
33.74
32.09
29.38
26.09
22.85
20.21
18.42
17.28
16.24
14.66
12.23
9.16
6.15
4.01
3.24
3.80
5.29
7.24
9.40
11.74
14.21
16.48
17.82
17.46
14.99
10.76
5.77
1.30
-1.67
-2.82
-2.50
-1.47
-0.50
-0.16
-0.67
-1.96
-3.73
-5.50
-6.75
-7.05
-6.20
-4.26
-1.41
2.19
6.55
11.76
17.83
24.39
30.66
35.67
38.65
39.40
38.36
36.40
34.33
32.63
31.40
30.56
30.11
30.17
30.79
31.66
32.09
31.30
28.96
25.68
22.86
21.95
23.56
26.95
30.37
31.91
30.48
26.23
20.32
14.31
9.48
6.57
5.83
7.20
10.44
15.12
20.64
26.43
32.20
38.08
44.42
51.41
58.71
65.55
71.06
74.89
77.48
79.96
83.96
91.00
102.07
117.22
135.35
154.32
171.36
183.79
189.77
188.69
181.13
168.59
153.06
136.83
122.15
110.85
103.54
99.04
94.53
86.47
72.21
51.13
24.82
-3.90
-32.58
-60.16
-86.97
-113.68
-140.11
-164.61
-184.55
-197.42
-201.87
-198.22
-188.01
-173.25
-155.64
-136.40
-116.48
-97.00
-79.51
-65.91
-57.90
-56.27
-60.55
-69.13
-79.77
-90.31
-99.25
-105.76
-109.54
-110.55
-108.90
-104.98
-99.37
-92.87
-86.29
-80.30
-75.34
-71.77
-69.89
-69.93
-72.01
-75.95
-81.13
-86.61
-91.19
-93.72
-93.27
-89.47
-82.59
-73.61
-64.03
-55.40
-48.96
-45.21
-43.95
-44.42
-45.71
-47.08
-48.19
-49.13
-50.41
-52.73
-56.82
-63.08
-71.35
-80.67
-89.35
-95.39
-97.06
-93.53
-85.14
-73.17
-59.30
-44.95
-30.95
-17.55
-4.69
7.70
19.52
30.44
39.93
47.38
52.17
53.93
52.68
48.96
43.74
38.09
32.87
28.54
25.20
22.81
21.37
20.85
21.02
21.39
21.36
20.49
18.82
16.88
15.49
15.48
17.47
21.87
28.91
38.65
50.78
64.43
78.20
90.45
99.88
105.99
109.13
110.08
109.29
106.43
100.55
90.76
77.14
61.13
45.10
31.31
21.04
14.34
10.66
9.68
11.91
18.34
29.52
44.48
60.48
73.66
80.42
78.78
69.01
53.37
35.19
17.84
3.80
-5.92
-12.12
-17.26
-24.89
-38.48
-59.93
-88.55
-120.77
-151.16
-174.17
-186.04
-185.74
-174.73
-155.98
-132.84
-108.45
-85.69
-67.14
-54.68
-48.86
-48.35
-50.23
-51.13
-48.69
-42.62
-34.68
-27.61
-23.75
-23.97
-27.61
-33.09
-38.89
-44.19
-48.80
-52.86
-56.28
-58.52
-58.58
-55.44
-48.39
-37.36
-23.03
-6.67
10.22
26.22
40.36
52.19
61.69
69.07
74.54
78.19
80.04
80.22
79.02
76.97
74.57
72.12
69.61
66.73
63.25
59.21
55.03
51.33
48.67
47.16
46.53
46.19
45.65
44.63
43.12
41.19
38.83
35.93
32.40
28.36
24.24
20.65
18.16
16.99
17.02
17.85
19.05
20.36
21.68
23.05
24.53
26.12
27.74
29.34
30.89
32.47
34.23
36.36
38.94
41.85
44.73
46.94
47.85
46.97
44.20
39.83
34.43
28.59
22.71
16.94
11.26
5.64
0.26
-4.51
-8.17
-10.35
-10.91
-9.94
-7.65
-4.14
0.67
6.95
14.65
23.25
31.76
38.98
44.03
46.73
47.69
47.94
48.24
48.69
48.67
47.29
44.00
38.99
33.02
26.88
20.90
14.88
8.54
2.06
-3.68
-7.67
-9.48
-9.90
-10.75
-13.96
-20.46
-29.58
-39.34
-47.28
-51.61
-51.67
-47.88
-41.12
-32.26
-22.00
-11.13
-0.78
7.75
13.35
15.67
15.38
13.96
13.18
14.40
18.23
24.59
33.05
43.30
55.37
69.48
85.77
104.05
123.60
143.27
161.60
176.98
187.95
193.63
194.06
190.29
184.17
177.97
173.83
173.34
177.20
184.85
194.35
202.44
205.35
200.19
186.31
165.78
142.60
120.77
102.30
86.33
70.01
50.50
26.89
0.71
-25.14
-48.27
-68.17
-86.15
-104.09
-122.91
-141.73
-158.47
-171.16
-179.29
-184.11
-187.87
-192.41
-198.13
-203.75
-207.22
-207.02
-203.18
-197.33
-191.86
-188.58
-187.73
-187.85
-186.63
-182.08
-173.26
-160.35
-143.99
-124.68
-102.56
-77.92
-51.80
-26.41
-4.64
10.96
19.25
20.97
18.33
13.81
9.04
4.16
-1.90
-10.55
-22.60
-37.65
-54.19
-70.01
-82.94
-91.28
-94.16
-91.58
-84.32
-73.84
-61.94
-50.42
-40.62
-33.17
-28.16
-25.51
-25.29
-27.76
-33.04
-40.69
-49.60
-58.35
-65.93
-72.16
-77.63
-83.00
-88.15
-91.86
-92.14
-87.29
-76.84
-62.00
-45.17
-28.82
-14.48
-2.43
7.98
17.46
26.10
33.15
37.44
38.01
34.67
28.17
19.86
11.26
3.68
-2.01
-5.41
-6.53
-5.79
-4.03
-2.28
-1.46
-2.03
-3.75
-5.84
-7.38
-7.70
-6.65
-4.55
-2.00
0.42
2.25
3.13
2.69
0.42
-4.46
-12.77
-24.96
-40.66
-58.27
-75.07
-87.91
-94.06
-92.20
-82.73
-67.54
-49.30
-30.84
-14.64
-2.66
4.00
5.35
2.72
-1.45
-4.49
-4.66
-2.08
1.32
2.71
-0.06
-7.35
-17.25
-26.25
-30.47
-26.87
-14.15
7.03
34.36
64.47
93.62
118.46
136.49
146.45
148.19
142.63
131.43
116.61
100.34
84.58
70.85
60.04
52.32
47.28
44.12
41.81
39.24
35.29
29.09
20.27
9.22
-3.07
-15.50
-27.48
-39.20
-51.26
-63.77
-75.63
-84.57
-88.17
-85.27
-76.85
-65.80
-55.46
-47.85
-42.65
-37.60
-30.03
-18.60
-4.14
10.79
23.31
31.71
36.08
38.06
39.70
42.36
46.21
50.31
53.37
54.49
53.60
51.32
48.45
45.45
42.24
38.35
33.33
27.16
20.30
13.51
7.42
2.20
-2.49
-7.19
-12.14
-17.03
-21.03
-23.15
-22.78
-19.98
-15.42
-10.04
-4.62
0.39
4.91
8.96
12.53
15.45
17.51
18.62
18.87
18.47
17.65
16.53
15.09
13.24
11.04
8.67
6.52
4.95
4.16
4.11
4.47
4.81
4.76
4.14
2.98
1.43
-0.40
-2.52
-5.07
-8.13
-11.64
-15.23
-18.26
-20.00
-19.93
-17.95
-14.43
-10.11
-5.75
-1.89
1.33
4.03
6.38
8.42
10.01
10.97
11.22
10.83
9.94
8.59
6.73
4.28
1.31
-1.83
-4.59
-6.40
-6.93
-6.18
-4.39
-1.98
0.69
3.24
5.36
6.70
6.94
5.97
3.95
1.41
-0.83
-1.79
-0.62
3.21
9.56
17.62
26.07
33.43
38.62
41.25
41.69
40.75
39.29
37.85
36.48
34.96
33.02
30.58
27.82
25.03
22.46
20.19
18.09
16.07
14.13
12.50
11.50
11.30
11.78
12.42
12.51
11.45
8.94
5.17
0.62
-4.03
-8.18
-11.26
-12.73
-12.11
-9.02
-3.38
4.43
13.66
23.30
32.40
40.30
46.74
51.87
56.07
59.73
63.06
66.00
68.21
69.26
68.83
66.87
63.71
59.90
56.04
52.59
49.69
47.28
45.17
43.21
41.37
39.71
38.26
36.93
35.49
33.56
30.85
27.14
22.44
16.89
10.77
4.37
-1.98
-7.97
-13.34
-17.92
-21.75
-25.02
-28.06
-31.15
-34.38
-37.64
-40.64
-43.06
-44.63
-45.22
-44.75
-43.16
-40.44
-36.68
-32.12
-27.16
-22.32
-18.02
-14.50
-11.76
-9.63
-7.85
-6.22
-4.61
-2.95
-1.23
0.51
2.11
3.28
3.57
2.49
-0.35
-5.09
-11.47
-18.88
-26.50
-33.45
-39.01
-42.69
-44.27
-43.73
-41.25
-37.16
-31.90
-25.99
-19.98
-14.37
-9.55
-5.72
-2.91
-0.95
0.51
1.85
3.46
5.52
7.98
10.53
12.70
14.04
14.28
13.36
11.39
8.51
4.76
0.10
-5.55
-12.12
-19.27
-26.43
-32.86
-37.86
-40.93
-41.97
-41.21
-39.22
-36.64
-34.02
-31.63
-29.49
-27.51
-25.67
-24.17
-23.39
-23.67
-25.07
-27.15
-29.04
-29.58
-27.67
-22.53
-13.92
-2.16
11.90
27.04
41.88
55.19
66.21
74.74
81.13
86.03
90.02
93.41
96.16
98.06
98.93
98.76
97.72
96.01
93.69
90.66
86.65
81.39
74.71
66.61
57.28
47.10
36.59
26.36
16.98
8.87
2.24
-2.95
-6.97
-10.22
-13.02
-15.51
-17.56
-18.84
-18.90
-17.40
-14.19
-9.33
-3.08
4.21
12.06
19.93
27.24
33.53
38.62
42.66
46.04
49.19
52.21
54.79
56.16
55.28
51.16
43.31
32.06
18.67
5.18
-6.13
-13.42
-15.89
-13.95
-9.02
-2.92
2.79
7.16
9.82
10.68
9.61
6.28
0.24
-8.81
-20.84
-35.37
-51.52
-68.07
-83.69
-97.12
-107.35
-113.82
-116.53
-115.98
-113.03
-108.60
-103.33
-97.43
-90.68
-82.68
-73.15
-62.17
-50.16
-37.71
-25.21
-12.67
0.42
14.80
31.11
49.38
68.81
87.79
104.37
116.85
124.48
127.77
128.36
128.28
129.13
131.42
134.51
137.17
138.48
138.46
138.26
139.56
143.64
150.53
158.61
164.94
166.23
159.88
144.84
121.90
93.33
62.13
31.30
3.19
-20.73
-39.86
-54.15
-63.96
-69.86
-72.58
-72.95
-71.77
-69.70
-67.29
-65.12
-64.02
-65.17
-69.83
-78.85
-92.20
-108.74
-126.55
-143.48
-157.87
-168.88
-176.38
-180.57
-181.50
-179.01
-172.87
-163.19
-150.65
-136.39
-121.62
-107.25
-93.58
-80.37
-67.14
-53.48
-39.20
-24.43
-9.44
5.40
19.68
32.90
44.51
53.99
60.88
64.89
65.81
63.52
58.02
49.52
38.66
26.52
14.56
4.34
-2.88
-6.39
-6.00
-1.88
5.71
16.46
29.82
44.87
60.46
75.62
90.04
104.16
118.67
133.61
147.56
157.63
160.32
152.96
135.01
108.45
77.23
45.97
18.68
-2.15
-15.69
-22.51
-24.16
-22.48
-19.04
-14.72
-9.53
-2.81
6.29
18.31
33.24
50.35
68.29
85.01
97.78
103.41
99.07
83.25
56.50
21.28
-18.94
-60.84
-102.20
-141.83
-178.95
-212.35
-240.01
-259.53
-269.12
-268.49
-259.05
-243.55
-225.04
-205.98
-187.79
-170.91
-155.28
-140.87
-128.00
-117.48
-110.41
-107.91
-110.81
-119.42
-133.50
-152.07
-173.46
-195.44
-215.36
-230.41
-237.95
-235.92
-223.48
-201.41
-172.12
-139.07
-105.66
-74.18
-45.32
-18.55
6.90
31.16
53.47
72.78
88.61
101.49
112.86
124.15
136.16
148.86
161.88
174.90
187.88
200.63
212.32
221.41
226.02
224.77
217.29
204.32
187.22
167.28
145.39
122.05
97.84
73.56
50.33
29.24
11.07
-3.77
-15.17
-23.15
-27.89
-29.98
-30.58
-31.38
-34.15
-40.18
-49.74
-62.06
-75.64
-88.83
-100.29
-109.22
-115.32
-118.52
-118.88
-116.48
-111.51
-104.29
-95.23
-84.79
-73.35
-61.22
-48.64
-35.82
-23.01
-10.52
1.29
12.04
21.40
29.20
35.44
40.38
44.37
47.73
50.53
52.49
53.14
51.97
48.81
43.99
38.30
32.73
28.24
25.37
24.21
24.45
25.66
27.54
30.11
33.79
39.17
46.80
56.90
69.17
82.91
97.19
111.23
124.68
137.73
151.00
165.15
180.61
197.34
214.91
232.71
250.27
267.36
284.02
300.39
316.59
332.54
347.72
360.91
370.09
372.57
365.65
347.47
317.75
277.95
230.76
179.18
125.60
71.46
17.40
-36.30
-89.28
-140.85
-189.92
-234.95
-273.85
-304.22
-323.84
-331.56
-327.98
-315.69
-298.54
-280.33
-263.61
-249.05
-236.11
-224.19
-213.81
-206.85
-205.55
-211.03
-222.10
-235.28
-246.15
-251.28
-249.58
-242.47
-232.89
-223.81
-217.26
-214.18
-214.94
-219.73
-228.26
-239.05
-248.83
-252.79
-245.96
-225.01
-189.62
-142.69
-89.18
-34.59
16.55
61.19
97.62
124.99
142.93
151.52
151.33
143.47
129.64
112.24
94.42
79.96
72.60
74.84
86.72
105.27
125.04
139.80
144.40
136.19
115.31
84.02
45.81
4.69
-35.20
-69.84
-95.78
-110.84
-114.76
-109.26
-97.53
-83.25
-69.45
-57.85
-48.79
-41.62
-35.40
-29.43
-23.55
-18.03
-13.41
-10.16
-8.54
-8.50
-9.72
-11.72
-13.94
-15.94
-17.44
-18.42
-19.05
-19.59
-20.18
-20.87
-21.56
-22.15
-22.60
-23.04
-23.69
-24.71
-26.12
-27.71
-29.23
-30.35
-30.81
-30.35
-28.73
-25.76
-21.38
-15.75
-9.32
-2.68
3.59
9.05
13.54
17.08
19.68
21.24
21.45
20.00
16.73
11.82
5.82
-0.41
-5.95
-10.06
-12.31
-12.77
-11.90
-10.43
-9.06
-8.31
-8.35
-9.12
-10.47
-12.36
-14.84
-17.97
-21.54
-24.93
-27.16
-27.22
-24.44
-18.82
-11.01
-1.99
7.27
16.20
24.59
32.44
39.75
46.35
52.01
56.50
59.75
61.84
62.87
62.84
61.64
59.14
55.35
50.51
45.13
39.83
35.22
31.77
29.71
29.00
29.35
30.19
30.80
30.44
28.56
25.01
20.13
14.65
9.45
5.28
2.56
1.37
1.58
2.97
5.25
8.13
11.15
13.79
15.62
16.52
16.75
16.90
17.57
19.13
21.53
24.37
27.15
29.44
30.99
31.77
31.89
31.54
30.98
30.50
30.36
30.66
31.23
31.63
31.25
29.53
26.15
21.25
15.39
9.53
4.72
1.85
1.34
3.02
6.21
10.02
13.71
17.00
20.02
23.10
26.36
29.53
31.99
33.08
32.52
30.53
27.76
24.96
22.62
20.82
19.36
17.96
16.51
15.05
13.70
12.46
11.16
9.57
7.58
5.29
2.99
0.98
-0.57
-1.62
-2.22
-2.31
-1.66
0.11
3.30
7.92
13.66
19.94
26.16
31.84
36.63
40.17
41.97
41.51
38.46
32.99
25.88
18.37
11.72
6.79
3.72
2.03
0.89
-0.61
-3.21
-7.44
-13.41
-20.77
-28.63
-35.73
-40.87
-43.41
-43.56
-42.25
-40.67
-39.59
-38.91
-37.78
-34.89
-29.18
-20.17
-8.12
6.13
21.53
37.06
51.89
65.37
76.97
86.26
92.87
96.61
97.53
95.92
92.27
87.14
81.09
74.57
67.98
61.66
55.86
50.70
46.13
41.99
38.11
34.41
30.95
27.86
25.15
22.62
19.82
16.29
11.74
6.37
0.85
-3.78
-6.55
-6.80
-4.48
-0.05
5.70
11.96
18.10
23.63
28.17
31.31
32.69
32.18
30.06
27.17
24.66
23.65
24.84
28.29
33.37
39.08
44.33
48.30
50.58
51.24
50.69
49.47
48.08
46.70
45.09
42.56
38.16
30.89
20.13
5.90
-10.96
-28.92
-46.14
-60.95
-72.33
-80.08
-84.77
-87.36
-88.84
-89.88
-90.76
-91.51
-92.02
-92.21
-92.05
-91.41
-90.06
-87.61
-83.72
-78.30
-71.59
-64.11
-56.45
-49.00
-41.81
-34.65
-27.29
-19.75
-12.34
-5.58
0.14
4.79
8.63
12.02
15.10
17.59
19.03
19.07
17.91
16.30
15.25
15.58
17.47
20.44
23.71
26.66
29.15
31.53
34.32
37.80
41.86
46.03
49.76
52.75
54.97
56.65
57.92
58.72
58.68
57.34
54.29
49.39
42.80
34.94
26.29
17.25
8.04
-1.30
-10.79
-20.43
-30.09
-39.48
-48.32
-56.32
-63.37
-69.43
-74.48
-78.25
-80.25
-79.75
-76.15
-69.22
-59.35
-47.45
-34.73
-22.30
-10.97
-1.15
6.93
12.98
16.52
17.02
14.14
7.98
-0.80
-11.10
-21.68
-31.39
-39.38
-45.08
-48.16
-48.49
-46.06
-41.11
-34.12
-25.87
-17.34
-9.49
-3.20
0.96
2.66
1.85
-1.29
-6.42
-13.03
-20.49
-28.04
-34.92
-40.45
-44.19
-45.97
-45.96
-44.59
-42.42
-39.95
-37.44
-34.92
-32.23
-29.15
-25.67
-21.99
-18.57
-15.91
-14.35
-13.89
-14.24
-14.96
-15.64
-16.08
-16.26
-16.27
-16.20
-16.13
-16.08
-16.14
-16.47
-17.31
-18.80
-20.92
-23.35
-25.54
-26.81
-26.52
-24.24
-19.84
-13.54
-5.79
2.80
11.57
19.91
27.31
33.39
37.94
41.00
42.84
43.82
44.35
44.64
44.72
44.48
43.86
43.07
42.63
43.31
45.74
50.04
55.72
61.79
67.27
71.66
75.35
79.45
85.35
94.32
107.25
124.62
146.40
171.50
197.33
219.77
234.24
237.56
229.70
214.32
197.57
185.55
181.85
186.48
196.48
207.67
216.34
219.99
216.97
205.91
185.62
155.83
118.11
76.12
34.74
-1.66
-30.92
-53.65
-72.42
-89.93
-107.26
-123.04
-134.01
-136.45
-127.84
-107.84
-78.47
-43.54
-7.85
23.57
46.13
56.53
53.51
38.31
14.44
-13.34
-40.45
-63.67
-81.73
-95.08
-105.14
-113.48
-121.23
-128.87
-136.27
-142.88
-147.88
-150.40
-149.82
-145.96
-139.29
-130.86
-122.02
-114.07
-108.05
-104.54
-103.74
-105.60
-109.86
-116.12
-123.78
-132.15
-140.38
-147.64
-153.03
-155.70
-154.93
-150.28
-141.95
-130.80
-118.30
-106.05
-95.28
-86.39
-78.93
-71.90
-64.28
-55.53
-45.67
-35.19
-24.66
-14.50
-4.80
4.59
13.80
22.76
31.10
38.28
43.80
47.44
49.40
50.24
50.54
50.65
50.53
49.87
48.43
46.28
43.75
40.99
37.43
31.46
20.82
3.42
-21.77
-54.33
-92.56
-134.12
-176.53
-217.10
-252.46
-278.39
-290.33
-284.88
-261.38
-222.61
-173.98
-121.72
-70.87
-24.36
16.61
51.31
78.52
96.69
105.03
104.69
98.96
92.41
89.08
91.02
97.80
106.98
115.18
119.14
116.71
107.46
92.94
76.17
60.68
49.10
42.14
38.43
35.45
31.02
24.54
17.23
11.24
8.42
9.31
13.14
18.40
23.75
28.58
32.93
37.08
41.04
44.33
46.14
45.51
41.90
35.36
26.66
17.03
7.81
0.10
-5.58
-9.27
-11.42
-12.59
-13.20
-13.46
-13.41
-13.17
-13.01
-13.37
-14.62
-16.96
-20.20
-23.99
-27.92
-31.73
-35.26
-38.32
-40.45
-40.87
-38.77
-33.67
-25.70
-15.71
-4.96
5.32
14.34
21.86
28.06
33.21
37.42
40.56
42.40
42.77
41.72
39.58
36.73
33.65
30.73
28.23
26.34
25.06
24.23
23.46
22.27
20.19
16.90
12.32
6.61
0.10
-6.82
-13.83
-20.70
-27.35
-33.79
-40.01
-45.91
-51.12
-55.00
-56.77
-55.69
-51.28
-43.60
-33.22
-21.15
-8.64
3.07
13.06
20.77
26.07
29.19
30.54
30.55
29.65
28.20
26.60
25.22
24.41
24.33
24.91
25.84
26.74
27.33
27.64
27.95
28.69
30.19
32.60
35.78
39.47
43.37
47.20
50.70
53.56
55.41
55.91
54.87
52.45
49.25
46.25
44.61
45.40
49.26
56.14
65.26
75.27
84.60
91.92
96.50
98.26
97.68
95.36
91.74
86.87
80.58
72.74
63.59
53.82
44.36
36.04
29.20
23.65
18.86
14.18
9.17
3.59
-2.65
-9.66
-17.65
-26.81
-37.18
-48.49
-60.16
-71.47
-81.78
-90.63
-97.73
-102.85
-105.68
-105.88
-103.18
-97.55
-89.31
-79.11
-67.82
-56.33
-45.27
-34.96
-25.33
-16.18
-7.38
0.80
7.81
12.91
15.61
15.93
14.51
12.28
10.17
8.72
8.03
7.78
7.40
6.13
3.19
-2.13
-10.01
-19.82
-29.95
-38.20
-42.55
-42.00
-37.08
-29.64
-22.09
-16.44
-13.70
-13.73
-15.62
-18.28
-20.83
-22.68
-23.44
-22.75
-20.20
-15.56
-8.95
-0.97
7.53
15.64
22.66
28.29
32.50
35.30
36.65
36.35
34.22
30.30
25.12
19.77
15.66
14.10
15.71
20.10
25.87
31.07
34.02
33.95
31.13
26.58
21.36
16.00
10.39
4.10
-3.18
-11.31
-19.97
-29.00
-38.69
-49.60
-61.95
-74.97
-86.82
-95.03
-97.52
-93.46
-83.63
-69.96
-54.73
-39.76
-25.99
-13.68
-2.73
6.91
15.15
21.84
26.92
30.51
32.88
34.43
35.51
36.37
37.12
37.70
38.04
38.09
37.75
36.74
34.41
29.80
21.98
10.54
-4.02
-20.20
-35.93
-49.40
-59.66
-66.93
-72.34
-77.36
-83.20
-90.32
-98.32
-105.92
-111.33
-112.70
-108.70
-99.07
-84.78
-67.83
-50.55
-34.93
-22.02
-11.89
-3.89
2.78
8.74
14.28
19.51
24.59
29.81
35.49
41.80
48.62
55.50
61.87
67.37
71.95
75.88
79.56
83.24
86.82
89.91
91.94
92.47
91.38
88.90
85.49
81.62
77.54
73.23
68.46
63.00
56.79
50.01
43.07
36.36
30.24
24.87
20.27
16.40
13.16
10.28
7.27
3.47
-1.74
-8.70
-17.19
-26.56
-35.88
-44.34
-51.49
-57.22
-61.61
-64.64
-66.15
-65.98
-64.24
-61.50
-58.76
-57.11
-57.38
-59.89
-64.38
-70.15
-76.29
-81.80
-85.80
-87.60
-86.79
-83.28
-77.41
-69.71
-60.83
-51.24
-41.12
-30.46
-19.15
-7.24
4.97
16.98
28.27
38.51
47.72
56.18
64.23
71.98
79.18
85.36
90.16
93.59
96.13
98.49
101.20
104.34
107.52
