1595854003.00
64.000000
-0.00
-0.00
-0.00
-0.00
-0.00
-0.00
-0.00
-0.00
-0.00
-0.00
0.00
0.01
0.01
-0.00
-0.03
-0.05
-0.05
0.00
0.13
0.36
0.66
1.01
1.37
1.72
2.06
2.40
2.79
3.24
3.80
4.42
5.06
5.66
6.20
6.68
7.15
7.68
8.31
9.14
10.09
11.04
11.88
12.56
13.14
13.76
14.65
15.96
17.91
20.32
22.90
25.38
27.58
29.57
31.68
34.32
37.81
42.54
48.15
54.11
59.83
64.97
69.58
74.14
79.35
85.73
93.81
103.05
112.65
121.68
129.59
136.42
142.82
150.16
157.16
166.07
177.45
191.35
206.50
219.98
227.47
224.36
207.36
175.64
131.58
78.98
22.07
-36.02
-93.79
-150.93
-207.46
-262.93
-316.39
-366.37
-412.07
-453.03
-488.87
-518.84
-541.44
-554.62
-556.25
-544.94
-520.46
-484.31
-439.13
-388.10
-334.09
-279.19
-224.49
-170.47
-117.54
-66.45
-18.71
23.81
59.45
87.37
107.90
122.49
133.14
141.67
149.12
155.43
159.67
160.54
156.87
148.16
135.08
119.75
105.65
96.86
96.66
106.03
122.77
141.86
157.12
163.45
158.77
144.72
125.88
107.90
95.39
90.39
91.95
96.77
100.86
101.10
96.38
87.94
78.18
69.68
64.16
62.07
62.60
64.15
64.88
63.18
58.23
50.27
40.89
32.50
27.32
26.33
28.69
32.15
34.11
32.79
27.82
20.03
10.72
0.98
-8.61
-17.85
-26.63
-34.69
-41.71
-47.41
-51.67
-54.56
-56.40
-57.62
-58.72
-60.09
-61.79
-63.43
-64.27
-63.65
-61.35
-57.86
-54.23
-51.59
-50.57
-51.14
-52.86
-55.28
-58.08
-60.87
-62.67
-61.41
-54.48
-39.62
-16.33
13.46
45.76
76.03
100.94
119.05
130.34
134.88
132.03
120.66
100.51
73.56
44.19
17.92
-0.83
-10.48
-12.58
-10.63
-8.06
-6.81
-6.99
-7.79
-8.62
-9.73
-11.88
-15.56
-20.25
-24.52
-26.82
-26.35
-23.75
-20.71
-18.97
-19.16
-20.39
-20.67
-18.17
-12.25
-3.93
4.73
11.71
15.96
17.77
18.28
18.79
20.07
22.23
24.83
27.34
29.34
30.57
30.81
29.83
27.42
23.46
18.20
11.90
5.10
-1.61
-7.71
-12.76
-16.34
-18.20
-18.36
-17.26
-15.46
-13.33
-10.82
-7.66
-3.79
0.22
3.20
4.03
2.42
-0.70
-3.63
-4.86
-4.07
-2.37
-1.68
-3.62
-8.66
-15.90
-23.66
-30.18
-34.24
-35.26
-33.21
-28.53
-22.05
-14.82
-7.97
-2.36
1.57
3.76
4.50
4.19
3.28
2.26
1.60
1.57
2.08
2.62
2.42
0.85
-2.24
-6.32
-10.39
-13.36
-14.46
-13.65
-11.50
-9.04
-7.20
-6.41
-6.36
-6.11
-4.52
-0.77
4.97
11.67
17.59
21.02
20.95
17.55
12.10
6.29
1.61
-1.25
-2.40
-2.44
-1.99
-1.34
-0.46
0.74
2.15
3.29
3.47
2.18
-0.65
-4.52
-8.51
-11.72
-13.61
-14.21
-13.95
-13.37
-12.81
-12.24
-11.34
-9.77
-7.45
-4.66
-2.03
-0.30
-0.04
-1.29
-3.52
-5.71
-6.74
-5.89
-3.14
0.77
4.66
7.44
8.56
8.12
6.68
4.87
3.00
1.04
-1.15
-3.52
-5.71
-7.12
-7.34
-6.41
-4.84
-3.39
-2.64
-2.71
-3.25
-3.67
-3.51
-2.67
-1.36
0.06
1.31
2.32
3.21
4.11
5.05
5.86
6.26
6.05
5.23
4.14
3.26
3.01
3.47
4.31
4.96
4.98
4.39
3.73
3.89
5.64
9.33
14.74
21.21
27.91
34.08
39.11
42.62
44.37
44.35
42.85
40.42
37.73
35.37
33.54
32.10
30.59
28.55
25.71
22.06
17.70
12.63
6.73
-0.24
-8.36
-17.48
-27.13
-36.73
-45.65
-53.30
-59.12
-62.63
-63.56
-62.02
-58.60
-54.17
-49.61
-45.38
-41.44
-37.39
-32.94
-28.27
-24.08
-21.25
-20.30
-21.05
-22.55
-23.45
-22.64
-19.70
-15.11
-10.08
-6.18
-4.86
-7.16
-13.57
-23.77
-36.56
-49.77
-60.54
-66.00
-64.18
-54.76
-39.34
-20.94
-3.10
11.08
19.75
22.34
19.48
12.56
3.38
-6.18
-14.48
-20.18
-22.32
-20.13
-12.99
-0.62
16.54
37.00
58.25
77.38
91.94
100.71
103.89
102.69
98.60
92.79
85.90
78.26
70.20
62.18
54.70
48.10
42.44
37.59
33.34
29.55
26.21
23.39
21.19
19.75
19.24
19.78
21.35
23.65
26.09
27.99
28.83
28.48
27.21
25.51
23.80
22.23
20.59
18.55
15.81
12.30
8.14
3.64
-0.85
-4.98
-8.45
-11.02
-12.58
-13.18
-13.01
-12.38
-11.55
-10.72
-9.95
-9.24
-8.61
-8.03
-7.48
-6.88
-6.19
-5.58
-5.49
-6.60
-9.60
-14.76
-21.68
-29.23
-35.89
-40.23
-41.46
-39.61
-35.50
-30.31
-25.20
-20.93
-17.83
-15.84
-14.67
-14.02
-13.61
-13.23
-12.76
-12.11
-11.26
-10.19
-8.99
-7.77
-6.70
-5.89
-5.40
-5.11
-4.85
-4.41
-3.69
-2.74
-1.75
-0.95
-0.55
-0.67
-1.27
-2.27
-3.50
-4.83
-6.09
-7.16
-7.94
-8.46
-8.84
-9.28
-9.98
-11.06
-12.46
-13.98
-15.30
-16.09
-16.10
-15.24
-13.55
-11.26
-8.68
-6.12
-3.83
-1.92
-0.38
0.85
1.80
2.42
2.66
2.52
2.10
1.56
1.07
0.65
0.26
-0.23
-0.89
-1.73
-2.69
-3.72
-4.79
-5.87
-6.92
-7.87
-8.71
-9.48
-10.32
-11.49
-13.16
-15.32
-17.74
-20.05
-22.03
-23.71
-25.26
-26.93
-28.90
-31.29
-34.11
-37.41
-41.21
-45.55
-50.35
-55.12
-59.23
-61.99
-62.98
-62.06
-59.37
-55.07
-49.36
-42.37
-33.68
-23.01
-10.55
2.90
16.17
28.26
38.76
47.61
54.95
61.93
69.35
77.15
84.20
89.01
90.43
88.72
84.71
79.56
76.04
76.21
80.56
87.59
94.81
99.89
102.37
102.57
101.46
102.53
108.96
122.40
141.90
164.30
185.12
200.52
206.42
187.44
135.54
55.03
-36.83
-119.89
-179.10
-214.65
-228.80
-224.66
-206.35
-175.12
-135.23
-92.44
-53.29
-23.04
-4.27
4.34
5.28
0.88
-5.61
-12.15
-17.22
-20.89
-24.18
-28.20
-32.43
-35.85
-37.16
-33.85
-23.89
-5.37
21.21
52.52
83.28
108.50
124.46
129.45
124.38
105.79
74.31
34.92
-5.02
-39.70
-66.49
-85.31
-97.43
-104.42
-107.83
-107.62
-103.21
-93.99
-79.85
-61.44
-40.49
-19.70
-2.06
10.29
17.60
21.39
23.28
24.44
24.61
23.38
20.65
16.84
12.83
10.06
9.39
10.57
12.42
13.57
13.24
11.58
9.47
7.97
8.17
10.41
14.06
17.83
20.36
20.77
18.78
15.43
11.70
8.61
6.80
6.38
6.92
7.63
7.68
6.46
3.71
-0.45
-5.38
-10.09
-13.51
-14.77
-13.48
-9.85
-4.60
1.24
6.63
10.94
14.07
16.39
18.32
19.97
20.91
20.37
17.73
12.96
7.02
1.73
-0.84
0.91
7.57
18.42
31.51
44.07
52.94
55.13
48.40
32.15
8.05
-19.96
-46.48
-66.32
-75.79
-73.80
-61.97
-44.00
-24.34
-7.06
4.84
9.59
6.37
-4.21
-19.95
-37.37
-52.51
-61.88
-63.52
-57.59
-46.46
-34.56
-25.78
-22.11
-23.57
-28.92
-36.18
-43.23
-48.18
-49.80
-49.16
-46.99
-43.21
-37.83
-31.75
-26.31
-22.35
-19.81
-17.76
-17.35
-17.92
-17.00
-12.61
-5.60
0.29
-0.27
-12.39
-39.13
-83.07
-139.92
-198.64
-246.09
-272.57
-274.41
-253.85
-217.27
-153.00
-67.57
18.05
84.80
128.16
154.15
170.63
183.09
193.75
201.89
201.08
186.02
155.16
110.84
58.87
8.37
-29.86
-47.11
-40.62
-17.29
12.84
41.22
62.91
76.29
82.01
81.54
75.95
66.04
50.71
31.68
13.41
0.63
-4.47
-3.24
0.55
2.98
1.18
-5.87
-16.03
-25.21
-29.55
-27.16
-18.85
-7.42
3.31
10.45
12.33
9.58
4.77
1.13
1.06
5.25
12.47
20.32
26.18
28.02
25.21
18.57
10.08
2.23
-2.96
-4.71
-3.75
-1.85
-1.08
-2.80
-7.18
-13.35
-19.75
-25.05
-28.71
-30.88
-31.44
-30.21
-27.03
-22.08
-15.96
-9.20
-2.48
3.37
7.58
9.79
10.00
8.47
5.65
2.24
-0.14
-0.01
3.10
8.40
14.37
19.28
21.87
21.78
19.81
18.63
20.94
28.00
39.17
52.67
66.43
78.64
88.26
89.53
80.17
63.46
45.79
31.25
19.82
9.50
-1.17
-12.04
-21.55
-27.05
-27.23
-23.25
-17.98
-14.04
-12.35
-12.04
-11.38
-9.30
-5.08
0.76
6.55
10.37
11.30
9.67
6.56
2.81
-1.39
-5.89
-10.88
-16.64
-23.33
-30.64
-38.03
-43.86
-47.03
-47.03
-43.64
-37.18
-28.56
-19.11
-10.14
-2.63
3.09
6.97
9.29
10.45
10.68
10.03
8.54
6.52
4.55
3.26
2.91
3.30
3.98
4.42
4.37
3.81
2.95
1.96
0.90
-0.38
-2.10
-4.34
-7.09
-10.17
-13.40
-16.63
-19.81
-22.95
-26.16
-29.49
-32.98
-36.59
-40.09
-43.18
-45.36
-46.07
-44.77
-41.19
-35.40
-27.81
-19.11
-9.92
-0.69
8.44
17.53
26.57
35.32
43.35
50.17
55.43
59.13
61.47
62.74
63.14
62.74
61.54
59.63
57.27
54.75
52.35
50.13
47.97
45.69
43.17
40.51
37.90
35.48
33.09
30.31
26.58
21.58
15.46
8.85
2.48
-3.26
-8.58
-14.15
-20.65
-28.19
-36.06
-42.97
-47.64
-49.30
-48.06
-44.67
-40.11
-35.14
-30.12
-25.09
-19.97
-14.78
-9.69
-5.01
-1.07
1.84
3.67
4.53
4.76
4.78
5.00
5.80
7.44
10.06
13.64
17.90
22.28
25.93
27.97
27.80
25.43
21.52
17.22
13.65
11.47
10.72
10.80
10.95
10.46
9.00
6.49
3.06
-1.15
-5.98
-11.18
-16.39
-21.18
-25.21
-28.39
-30.82
-32.68
-34.08
-34.96
-35.20
-34.75
-33.71
-32.39
-31.13
-30.12
-29.45
-29.14
-29.25
-29.93
-31.36
-33.62
-36.75
-40.54
-44.51
-48.05
-50.61
-51.80
-51.34
-48.94
-44.19
-36.84
-26.80
-14.42
-0.72
12.61
23.82
31.71
36.04
37.56
37.02
35.15
32.51
29.30
25.31
20.36
14.65
8.80
3.71
-0.69
-4.39
-6.93
-7.81
-7.38
-6.72
-7.19
-9.89
-14.97
-22.78
-32.05
-39.76
-42.68
-39.68
-32.38
-24.22
-19.10
-19.07
-25.39
-36.68
-49.59
-60.71
-68.91
-74.83
-79.11
-81.81
-69.26
-36.05
9.88
54.80
91.42
120.08
143.97
164.76
179.39
183.06
172.41
145.70
105.71
59.92
16.37
-19.80
-48.39
-75.03
-105.47
-144.22
-185.10
-220.00
-239.12
-235.36
-207.46
-148.89
-70.05
8.14
67.18
101.17
114.12
113.69
105.26
93.36
77.22
55.75
32.17
12.28
1.13
0.06
8.09
22.54
39.50
55.21
66.56
73.43
77.56
80.06
76.68
63.77
41.91
16.80
-4.78
-19.36
-27.37
-29.37
-26.38
-19.84
-9.53
3.98
19.44
34.47
45.94
51.65
51.11
45.15
35.79
26.23
19.48
17.22
19.07
21.84
22.86
20.58
13.91
2.59
-12.05
-27.23
-39.39
-45.33
-43.46
-34.30
-20.69
-7.45
0.40
-0.23
-9.15
-22.62
-34.51
-38.55
-31.61
-13.20
13.20
41.59
65.93
82.17
89.42
89.39
85.05
79.05
73.00
67.27
62.07
58.19
57.11
60.26
68.05
79.37
92.01
103.50
111.74
115.70
115.13
110.08
100.67
87.49
72.12
56.77
43.24
31.17
17.75
-1.19
-29.00
-66.07
-108.82
-150.69
-184.58
-205.41
-211.82
-205.27
-188.43
-164.20
-135.63
-106.10
-79.41
-59.27
-48.17
-47.28
-54.11
-62.78
-66.59
-61.18
-45.97
-23.94
-0.25
19.70
29.80
27.85
16.75
1.84
-12.44
-23.69
-31.31
-35.74
-37.97
-42.72
-52.29
-64.70
-76.11
-84.14
-88.05
-88.03
-85.09
-81.51
-85.61
-103.04
-132.94
-169.94
-208.06
-241.82
-266.21
-277.41
-244.26
-161.47
-55.72
39.36
108.37
151.97
176.33
187.73
191.14
190.14
182.44
168.29
152.88
142.73
140.39
143.56
146.76
143.59
130.47
102.20
60.98
17.27
-15.94
-30.37
-25.09
-5.28
20.89
45.80
62.21
67.09
61.94
50.45
34.68
15.50
-5.19
-22.99
-31.97
-28.74
-13.23
10.85
36.70
56.57
65.65
63.38
52.99
39.86
28.50
21.56
19.59
21.44
25.07
28.83
31.91
34.39
36.87
39.80
43.26
46.88
49.70
50.09
45.90
34.64
14.00
-16.73
-56.15
-100.37
-143.39
-178.40
-199.47
-203.03
-188.83
-159.79
-120.88
-77.76
-35.25
3.53
36.91
64.04
84.29
96.87
101.22
97.41
86.19
69.06
47.87
24.22
-0.68
-25.72
-49.49
-70.05
-85.07
-92.75
-91.71
-81.59
-63.79
-41.26
-17.70
3.50
20.14
31.65
38.25
41.89
45.23
49.93
56.11
63.04
70.02
77.05
84.71
92.37
99.89
106.78
110.65
107.60
94.01
68.32
32.01
-10.95
-56.84
-100.29
-135.49
-158.61
-168.06
-163.64
-146.34
-118.23
-73.80
-21.76
22.47
50.14
62.58
66.19
67.23
69.65
75.74
86.33
99.66
114.21
127.84
135.22
130.13
110.39
76.67
35.60
-3.40
-33.07
-49.30
-52.34
-48.36
-45.34
-49.22
-61.81
-79.90
-97.33
-108.13
-107.60
-86.67
-44.91
10.52
66.70
109.48
129.24
124.20
100.47
69.32
41.66
22.09
9.26
-1.35
-13.67
-28.30
-43.55
-56.87
-66.49
-72.41
-76.98
-82.11
-87.78
-92.15
-92.64
-88.89
-81.95
-73.10
-63.25
-53.48
-44.23
-35.25
-26.09
-16.44
-8.04
-2.26
1.05
2.95
3.47
1.80
-2.80
-10.33
-20.05
-33.05
-50.38
-71.75
-95.68
-120.80
-144.91
-164.05
-173.10
-153.58
-100.61
-29.63
35.98
82.39
107.48
116.05
115.06
110.67
107.09
105.00
105.72
110.12
119.85
133.76
146.93
152.54
144.78
115.97
69.51
16.02
-31.65
-64.03
-79.15
-81.57
-78.57
-78.11
-82.47
-92.10
-106.07
-121.21
-132.25
-134.17
-123.71
-100.37
-66.69
-27.05
13.41
48.60
72.85
83.89
82.70
72.83
59.21
46.87
39.85
39.82
45.26
52.36
56.68
54.44
43.94
26.60
6.59
-10.62
-20.68
-22.41
-18.03
-11.87
-8.48
-10.65
-18.40
-29.16
-39.19
-45.36
-46.47
-43.47
-38.76
-35.19
-34.83
-38.26
-44.57
-51.71
-57.43
-59.87
-57.49
-49.06
-33.71
-11.80
14.51
41.40
64.39
79.56
84.27
77.12
57.59
26.25
-14.49
-59.31
-100.01
-127.23
-133.33
-115.10
-74.81
-19.45
41.39
97.78
140.90
163.66
161.24
132.16
79.65
12.01
-58.86
-120.20
-161.83
-178.63
-171.08
-144.09
-104.30
-57.23
-5.85
49.01
106.52
163.23
211.72
241.74
244.02
214.66
158.15
86.97
18.09
-32.26
-53.21
-41.88
-2.95
53.59
115.38
170.32
208.42
222.94
211.25
175.15
120.75
57.57
-3.05
-50.30
-76.71
-80.41
-65.85
-42.42
-20.97
-9.31
-9.19
-15.99
-21.66
-19.33
-6.92
11.62
27.91
32.64
19.18
-13.78
-61.59
-114.84
-162.13
-193.60
-203.79
-192.84
-165.57
-128.83
-88.97
-50.52
-16.45
10.93
29.57
38.44
38.58
33.48
27.92
25.89
28.91
35.79
43.98
51.32
56.93
61.07
64.21
66.37
67.19
66.44
64.44
61.89
59.24
56.19
51.87
45.53
37.48
29.35
23.78
23.40
29.87
43.28
62.22
84.35
106.77
126.36
139.78
143.81
136.09
116.15
86.04
50.19
14.15
-17.26
-41.57
-59.29
-72.98
-85.45
-97.94
-109.48
-117.69
-120.42
-117.28
-110.00
-101.37
-93.65
-87.37
-81.43
-74.20
-64.88
-54.28
-44.42
-37.28
-33.75
-33.11
-33.54
-33.18
-30.81
-26.20
-19.70
-11.78
-2.70
7.52
18.75
30.52
41.95
52.01
59.80
64.82
67.09
67.08
65.40
62.61
59.01
54.66
49.56
43.74
37.40
30.77
24.03
17.26
10.59
4.34
-0.89
-4.35
-5.63
-4.97
-3.38
-2.28
-2.92
-5.84
-10.73
-16.78
-23.04
-28.85
-33.75
-37.43
-39.58
-40.12
-39.45
-38.54
-38.66
-40.81
-45.18
-51.04
-56.95
-61.28
-62.70
-60.41
-54.28
-44.82
-33.17
-21.04
-10.38
-2.96
0.15
-1.15
-5.94
-12.41
-18.34
-21.52
-20.48
-14.90
-6.04
3.59
11.06
14.17
12.33
6.68
-0.58
-7.23
-11.87
-14.09
-14.00
-11.84
-7.82
-2.47
3.06
7.11
8.24
5.99
1.31
-3.87
-7.75
-9.51
-9.58
-9.15
-9.28
-10.42
-12.43
-15.01
-18.05
-21.42
-24.66
-26.65
-26.03
-21.89
-14.54
-5.58
2.78
8.73
11.73
12.47
12.26
12.15
12.46
12.83
12.78
12.20
11.47
11.11
11.19
10.99
9.20
4.65
-2.92
-12.42
-21.64
-28.20
-30.51
-28.47
-23.35
-17.01
-10.97
-5.80
-1.15
3.65
8.77
13.51
16.53
16.49
12.87
6.39
-1.24
-7.93
-12.11
-13.22
-11.77
-8.83
-5.51
-2.49
0.00
2.03
3.68
4.92
5.64
5.83
5.64
5.36
5.26
5.40
5.46
4.84
2.92
-0.51
-5.02
-9.60
-13.06
-14.49
-13.60
-10.73
-6.58
-1.97
2.33
5.67
7.57
7.90
7.08
6.00
5.60
6.38
8.03
9.62
10.12
8.99
6.36
2.77
-1.30
-5.64
-10.17
-14.48
-17.64
-18.36
-15.72
-9.71
-1.49
7.09
14.21
18.96
21.51
22.83
24.01
25.61
27.41
28.68
28.67
27.10
24.29
20.87
17.45
14.35
11.55
8.98
6.63
4.69
3.42
3.04
3.59
4.91
6.72
8.62
10.26
11.32
11.65
11.31
10.51
9.53
8.61
7.85
7.17
6.41
5.35
3.85
1.83
-0.74
-3.91
-7.73
-12.12
-16.71
-20.72
-23.09
-22.90
-19.79
-14.29
-7.59
-1.03
4.44
8.59
11.72
14.27
16.46
18.17
19.20
19.45
19.01
18.11
16.96
15.67
14.30
12.90
11.54
10.23
8.99
7.87
7.09
6.89
7.41
8.38
9.18
9.14
7.94
5.82
3.48
1.60
0.40
-0.46
-1.50
-3.01
-4.70
-5.97
-6.28
-5.56
-4.29
-3.19
-2.86
-3.54
-5.17
-7.52
-10.33
-13.20
-15.52
-16.51
-15.52
-12.35
-7.46
-1.84
3.38
7.38
9.82
10.89
10.99
10.55
9.88
9.15
8.39
7.50
6.32
4.77
2.95
1.25
0.14
-0.02
0.65
1.67
2.43
2.59
2.29
2.01
2.13
2.64
3.04
2.64
1.06
-1.56
-4.54
-7.07
-8.59
-8.97
-8.43
-7.42
-6.40
-5.77
-5.87
-6.90
-8.86
-11.47
-14.17
-16.26
-17.02
-15.93
-12.78
-7.85
-1.86
4.16
9.17
12.46
13.97
14.22
13.98
13.85
13.93
13.85
13.14
11.58
9.45
7.37
5.92
5.29
5.22
5.22
4.92
4.34
3.79
3.63
3.93
4.42
4.60
4.12
2.99
1.54
0.31
-0.30
-0.15
0.65
1.85
3.17
4.29
4.88
4.63
3.29
0.81
-2.60
-6.57
-10.61
-14.25
-16.97
-18.34
-18.03
-16.05
-12.85
-9.23
-6.05
-3.84
-2.63
-2.02
-1.51
-0.87
-0.24
0.08
-0.03
-0.31
-0.29
0.35
1.44
2.41
2.67
2.05
0.98
0.19
0.27
1.33
2.99
4.70
6.12
7.17
7.90
8.33
8.28
7.56
6.21
4.54
2.97
1.71
0.66
-0.60
-2.50
-5.23
-8.57
-12.00
-14.94
-17.06
-18.23
-18.30
-17.09
-14.34
-9.97
-4.14
2.62
9.45
15.38
19.58
21.96
22.89
22.93
22.46
21.51
19.89
17.43
14.20
10.57
7.88
7.28
8.97
11.97
14.69
15.88
15.02
12.30
8.19
4.70
3.50
4.92
7.91
10.91
12.88
13.45
12.67
10.47
9.51
12.14
18.81
27.59
35.55
40.48
41.52
38.89
33.33
29.89
33.91
48.74
74.69
110.00
152.52
199.78
248.76
278.94
276.31
240.46
185.44
128.03
77.40
34.95
-2.33
-34.18
-66.11
-98.08
-128.76
-158.62
-190.57
-227.82
-270.34
-311.73
-342.49
-353.51
-335.76
-286.19
-209.86
-118.52
-26.27
55.56
119.23
160.59
178.43
176.42
160.32
136.57
111.49
85.82
63.92
48.90
39.09
28.69
13.13
-8.42
-32.92
-55.52
-72.11
-80.33
-81.27
-78.21
-74.14
-69.98
-65.29
-59.66
-53.61
-48.50
-44.97
-43.25
-42.95
-42.96
-41.96
-39.29
-35.38
-31.42
-28.73
-27.71
-28.15
-29.35
-30.26
-30.01
-28.33
-25.66
-22.97
-21.38
-21.65
-24.08
-28.12
-32.07
-33.36
-29.41
-18.85
-2.46
16.83
34.97
48.44
55.52
56.97
54.58
50.46
46.00
41.54
36.85
31.63
26.13
20.96
16.78
13.77
11.67
9.97
8.18
6.00
3.39
0.57
-2.05
-4.04
-5.15
-5.35
-4.74
-3.51
-2.14
-1.34
-1.67
-3.32
-6.04
-9.16
-11.82
-12.96
-11.83
-8.78
-5.23
-2.91
-3.06
-5.98
-10.92
-16.37
-20.26
-20.82
-18.01
-13.41
-9.15
-6.99
-7.86
-12.09
-19.44
-28.16
-34.88
-35.91
-28.18
-10.18
16.60
46.96
73.25
84.90
75.76
51.78
27.81
16.44
20.87
35.65
52.13
63.22
65.93
61.39
52.11
38.80
20.33
-3.81
-31.74
-58.58
-79.93
-95.45
-106.45
-114.87
-122.71
-131.10
-139.70
-147.61
-153.13
-157.17
-163.25
-174.40
-189.47
-203.15
-208.12
-198.18
-170.74
-124.70
-63.43
6.92
75.10
131.21
169.39
188.59
192.22
187.10
185.52
197.37
226.02
268.16
317.24
365.58
406.01
433.04
420.31
359.62
265.85
165.40
77.49
9.14
-40.87
-76.94
-104.19
-127.38
-146.32
-160.57
-170.75
-177.37
-178.54
-170.97
-152.44
-124.18
-91.07
-57.30
-28.09
-8.94
-3.60
-11.03
-27.86
-48.88
-69.35
-86.55
-98.35
-104.74
-107.14
-106.24
-100.25
-85.93
-61.08
-26.87
11.77
48.79
78.28
95.84
99.49
89.69
68.14
36.98
-1.65
-45.05
-89.04
-126.67
-151.20
-158.46
-148.31
-125.02
-95.75
-67.77
-45.74
-30.33
-18.97
-8.32
3.53
16.21
27.52
35.21
38.43
38.10
36.20
34.64
34.28
35.07
36.48
37.94
39.02
39.47
39.09
37.86
36.01
33.86
31.64
29.26
26.38
22.69
18.37
14.17
11.20
10.23
11.19
13.08
14.52
14.41
12.47
9.28
5.84
3.08
1.46
0.93
1.24
2.22
3.92
6.42
9.61
13.06
16.09
18.08
18.67
17.89
16.18
14.12
12.20
10.73
9.77
9.28
9.27
9.82
11.10
13.39
16.75
20.93
25.34
29.32
32.43
34.66
36.34
37.83
39.65
41.94
44.37
46.17
46.50
44.60
40.31
33.85
26.05
18.96
14.83
15.39
20.80
29.51
38.81
46.37
50.95
52.80
53.68
54.62
55.01
52.38
44.55
31.38
15.60
0.52
-16.49
-38.40
-67.58
-102.65
-137.99
-165.63
-182.05
-186.95
-183.30
-175.96
-168.26
-160.73
-148.60
-126.82
-91.21
-40.65
22.18
90.57
154.91
205.46
233.97
235.46
208.82
157.10
86.76
7.19
-70.41
-133.80
-171.35
-175.55
-146.52
-94.10
-36.03
7.23
19.90
-3.53
-56.47
-122.79
-183.07
-220.76
-226.59
-199.37
-144.46
-70.79
11.78
94.42
170.28
234.44
283.55
315.55
329.52
325.70
305.65
271.81
226.82
172.46
109.40
38.39
-37.83
-112.52
-174.80
-212.03
-214.49
-179.77
-115.58
-38.03
34.16
86.19
111.41
111.30
92.42
62.39
27.66
-7.75
-41.48
-71.38
-94.59
-107.99
-109.53
-99.20
-79.34
-52.95
-23.47
5.83
32.28
54.16
70.12
78.38
76.69
59.83
27.78
-12.10
-48.61
-73.53
-84.78
-85.12
-79.45
-72.25
-66.27
-61.45
-56.86
-51.68
-45.84
-39.62
-33.40
-28.00
-24.65
-25.05
-29.50
-36.67
-42.85
-42.50
-30.58
-5.30
29.93
69.68
106.75
135.54
152.84
157.68
150.47
132.05
103.79
68.47
31.16
-1.91
-24.37
-34.79
-36.14
-32.00
-23.75
-9.67
12.55
43.27
76.64
104.35
117.50
111.30
88.50
57.44
27.52
4.54
-9.65
-18.30
-25.84
-31.51
-35.58
-35.46
-28.71
-16.47
-5.65
1.81
4.10
1.63
-2.55
-4.74
-1.94
6.35
16.49
22.75
22.52
14.21
-2.07
-23.94
-49.30
-76.56
-105.85
-131.78
-151.72
-162.02
-162.41
-156.10
-147.31
-140.97
-140.14
-131.16
-106.66
-88.41
-87.19
-100.23
-126.52
-161.16
-196.11
-221.37
-227.93
-213.12
-162.83
-79.84
13.95
93.91
148.99
179.59
190.26
185.32
167.82
143.13
119.58
105.31
105.58
121.28
147.45
177.62
205.48
225.54
234.23
229.32
209.76
177.37
137.36
95.80
57.44
23.95
-6.62
-37.53
-67.66
-94.34
-112.27
-116.17
-105.18
-84.62
-64.33
-54.25
-59.41
-78.88
-107.03
-135.99
-158.78
-170.82
-169.31
-153.52
-124.11
-83.32
-36.60
8.45
44.87
67.81
74.30
63.22
33.85
-12.12
-67.94
-122.96
-164.86
-182.81
-171.56
-133.12
-75.26
-9.49
53.15
105.20
140.80
155.61
147.74
118.07
67.21
5.40
-53.61
-103.77
-136.56
-145.33
-127.75
-87.07
-31.93
25.83
75.34
103.96
106.97
92.84
74.33
60.28
52.90
49.79
47.18
42.84
38.33
35.40
37.88
48.16
66.23
91.07
121.48
156.45
186.79
205.73
207.42
189.78
153.95
104.73
50.43
0.42
-38.43
-64.09
-78.67
-87.94
-97.67
-109.83
-123.70
-135.99
-142.11
-138.08
-122.38
-92.77
-56.23
-21.62
4.19
18.40
22.61
20.96
17.62
14.85
13.37
12.12
10.65
9.34
8.82
9.61
11.76
15.12
19.59
26.21
35.35
47.43
61.88
76.08
85.78
86.29
74.75
51.64
19.90
-12.51
-38.37
-54.00
-59.94
-59.88
-58.44
-58.63
-60.75
-62.31
-59.18
-47.83
-27.20
-0.56
26.10
44.86
49.57
38.59
15.87
-10.72
-33.12
-46.12
-48.81
-43.73
-34.69
-24.30
-13.59
-2.79
7.39
15.03
17.75
13.99
4.26
-8.72
-20.04
-24.51
-18.16
0.19
28.22
60.75
91.21
113.80
121.94
112.66
87.03
49.87
8.50
-29.20
-56.77
-70.70
-71.23
-62.12
-48.90
-37.61
-33.00
-37.33
-49.89
-67.42
-85.28
-98.92
-105.23
-102.75
-92.00
-74.83
-53.71
-31.12
-9.19
10.41
26.60
39.05
48.47
56.33
64.28
73.27
83.04
92.03
98.18
100.04
97.68
92.90
88.39
86.49
87.99
91.92
95.91
97.23
93.73
84.38
69.34
49.54
26.36
1.35
-23.75
-47.07
-66.85
-81.84
-91.60
-96.55
-97.71
-96.33
-93.59
-90.33
-87.24
-84.94
-83.90
-84.21
-85.28
-86.02
-85.23
-82.22
-76.92
-69.79
-61.23
-51.33
-39.81
-26.35
-11.13
4.90
20.38
34.28
46.15
56.14
64.15
69.64
71.97
70.73
65.95
58.30
49.08
39.35
29.91
20.58
10.87
0.80
-9.24
-19.12
-29.01
-38.78
-48.26
-56.56
-63.42
-69.22
-74.84
-81.36
-89.86
-99.96
-108.75
-112.47
-104.44
-82.27
-51.24
-21.36
-0.11
10.96
15.28
20.62
29.97
43.48
59.28
76.07
95.19
120.83
153.33
186.38
214.19
232.53
240.22
236.35
218.99
186.43
139.67
83.53
26.59
-21.19
-53.17
-68.05
-70.01
-65.76
-60.66
-56.83
-53.82
-50.15
-44.67
-38.08
-31.98
-27.89
-26.14
-25.67
-24.80
-22.44
-18.64
-14.21
-10.41
-8.76
-9.88
-13.31
-17.54
-20.70
-21.42
-19.23
-14.66
-9.08
-4.09
-0.87
0.19
-0.43
-1.71
-2.71
-2.98
-2.64
-2.16
-2.03
-2.38
-3.00
-3.43
-3.29
-2.49
-1.33
-0.28
0.26
0.04
-0.41
-0.70
-0.51
0.21
1.30
2.45
3.27
3.43
2.72
1.08
-1.38
-4.37
-7.50
-10.40
-12.88
-14.98
-16.95
-19.12
-21.65
-24.51
-27.27
-29.22
-29.55
-27.65
-23.32
-16.93
-9.29
-1.43
5.66
11.40
15.60
18.41
20.04
20.61
20.10
18.41
15.61
11.97
8.01
4.35
1.55
-0.09
-0.48
0.26
1.92
4.20
6.82
9.47
11.80
13.47
14.22
13.87
12.40
9.90
6.58
2.75
-1.21
-4.95
-8.15
-10.67
-12.53
-13.90
-15.06
-16.34
-17.97
-20.12
-22.84
-26.04
-29.44
-32.53
-34.60
-34.86
-32.68
-27.87
-20.86
-12.60
-4.30
2.97
8.62
12.58
15.22
16.95
18.04
18.50
18.21
17.10
15.27
13.02
10.78
8.93
7.65
6.97
6.72
6.71
6.79
6.90
7.09
7.35
7.59
7.55
6.89
5.34
2.88
-0.23
-3.52
-6.54
-8.99
-10.82
-12.18
-13.28
-14.31
-15.43
-16.81
-18.58
-20.73
-23.02
-24.89
-25.61
-24.47
-21.10
-15.69
-8.92
-1.81
4.63
9.68
13.06
14.94
15.79
16.09
16.19
16.17
15.89
15.18
13.98
12.38
10.63
9.01
7.64
6.55
5.67
4.86
4.03
3.16
2.26
1.35
0.40
-0.68
-1.96
-3.55
-5.46
-7.55
-9.57
-11.20
-12.21
-12.52
-12.37
-12.11
-12.16
-12.81
-14.12
-15.94
-18.00
-19.98
-21.53
-22.27
-21.82
-19.83
-16.17
-10.96
-4.73
1.79
7.80
12.72
16.32
18.66
19.99
20.55
20.45
19.68
18.30
16.48
14.53
12.82
11.62
10.98
10.72
10.56
10.28
9.78
9.05
8.17
7.18
6.15
5.08
3.98
2.87
1.73
0.55
-0.70
-1.99
-3.22
-4.29
-5.17
-5.89
-6.56
-7.30
-8.13
-9.02
-9.93
-10.88
-11.98
-13.43
-15.41
-18.06
-21.35
-25.11
-28.99
-32.54
-35.17
-36.30
-35.41
-32.21
-26.73
-19.40
-10.95
-2.36
5.42
11.64
15.88
18.16
18.80
18.28
17.05
15.43
13.57
11.63
9.75
8.25
7.45
7.61
8.77
10.62
12.64
14.20
14.88
14.60
13.59
12.25
10.95
9.81
8.74
7.54
6.06
4.36
2.68
1.30
0.37
-0.15
-0.49
-0.91
-1.58
-2.52
-3.62
-4.75
-5.81
-6.86
-8.09
-9.66
-11.75
-14.34
-17.23
-20.01
-22.11
-22.93
-21.98
-19.11
-14.55
-8.91
-3.02
2.39
6.84
10.19
12.58
14.26
15.43
16.16
16.44
16.26
15.69
14.84
13.86
12.83
11.80
10.78
9.82
9.02
8.52
8.40
8.68
9.23
9.77
9.97
9.56
8.43
6.70
4.62
2.49
0.47
-1.38
-3.14
-4.84
-6.47
-7.89
-9.01
-9.79
-10.34
-10.83
-11.42
-12.26
-13.42
-15.03
-17.16
-19.74
-22.43
-24.57
-25.30
-23.90
-20.12
-14.29
-7.32
-0.30
5.84
10.61
13.90
15.91
16.86
16.92
16.23
14.96
13.38
11.85
10.69
10.06
9.97
10.26
10.69
11.05
11.21
11.11
10.82
10.46
10.16
9.99
9.84
9.47
8.55
6.83
4.34
1.43
-1.29
-3.17
-3.87
-3.48
-2.51
-1.65
-1.50
-2.31
-4.00
-6.27
-8.80
-11.37
-13.88
-16.28
-18.48
-20.42
-22.03
-23.35
-24.46
-25.38
-25.95
-25.84
-24.62
-21.91
-17.66
-12.12
-5.92
0.17
5.41
9.32
11.77
12.92
13.09
12.63
11.83
10.91
10.02
9.27
8.70
8.27
7.91
7.54
7.13
6.74
6.46
6.36
6.47
6.68
6.83
6.80
6.52
6.05
5.54
5.12
4.86
4.74
4.58
4.17
3.32
2.01
0.33
-1.45
-3.10
-4.45
-5.43
-6.10
-6.57
-6.98
-7.48
-8.30
-9.59
-11.36
-13.40
-15.20
-16.09
-15.44
-12.94
-8.68
-3.20
2.68
8.14
12.54
15.61
17.37
18.08
18.03
17.48
16.61
15.56
14.49
13.53
12.79
12.27
11.89
11.50
11.04
10.53
10.12
9.96
10.06
10.34
10.54
10.44
9.87
8.82
7.42
5.85
4.30
2.89
1.62
0.37
-0.98
-2.49
-4.12
-5.74
-7.22
-8.52
-9.75
-11.13
-12.85
-14.99
-17.50
-20.15
-22.61
-24.46
-25.25
-24.58
-22.19
-18.13
-12.81
-6.92
-1.23
3.61
7.26
9.72
11.17
11.92
12.21
12.21
12.04
11.78
11.50
11.25
11.05
10.92
10.85
10.87
10.96
11.10
11.24
11.36
11.44
11.47
11.44
11.29
10.91
10.19
9.08
7.66
6.14
4.79
3.77
3.01
2.27
1.22
-0.33
-2.31
-4.38
-6.08
-7.08
-7.30
-6.96
-6.51
-6.45
-7.17
-8.86
-11.46
-14.66
-17.91
-20.52
-21.84
-21.41
-19.05
-14.96
-9.63
-3.75
1.95
6.85
10.56
12.98
14.26
14.69
14.59
14.22
13.71
13.10
12.40
11.59
10.66
9.61
8.50
7.43
6.58
6.09
6.03
6.32
6.78
7.20
7.49
7.57
7.45
7.08
6.39
5.39
4.20
3.09
2.30
1.96
1.93
1.87
1.41
0.33
-1.35
-3.35
-5.27
-6.74
-7.55
-7.75
-7.58
-7.41
-7.62
-8.43
-9.82
-11.55
-13.29
-14.67
-15.41
-15.30
-14.17
-11.93
-8.63
-4.55
-0.19
3.87
7.15
9.44
10.83
11.56
11.85
11.84
11.51
10.84
9.88
8.72
7.53
6.45
5.61
5.03
4.67
4.41
4.15
3.82
3.46
3.21
3.18
3.38
3.61
3.56
2.96
1.83
0.42
-0.80
-1.51
-1.64
-1.41
-1.23
-1.48
-2.31
-3.64
-5.18
-6.57
-7.52
-7.94
-7.89
-7.63
-7.48
-7.69
-8.40
-9.60
-11.13
-12.80
-14.37
-15.50
-15.83
-14.94
-12.53
-8.62
-3.65
1.59
6.22
9.50
11.14
11.36
10.73
9.91
9.37
9.22
9.30
9.30
9.01
8.38
7.51
6.58
5.76
5.09
4.62
4.32
4.19
4.19
4.28
4.35
4.23
3.78
2.93
1.73
0.30
-1.15
-2.48
-3.56
-4.42
-5.14
-5.85
-6.61
-7.40
-8.14
-8.75
-9.24
-9.73
-10.41
-11.48
-13.02
-14.88
-16.69
-17.93
-18.05
-16.69
-13.80
-9.70
-4.94
-0.21
3.89
7.03
9.11
10.26
10.72
10.71
10.45
10.09
9.78
9.56
9.43
9.28
9.03
8.61
8.04
7.41
6.77
6.17
5.61
5.10
4.67
4.31
4.00
3.60
2.97
2.02
0.82
-0.47
-1.63
-2.57
-3.28
-3.90
-4.51
-5.15
-5.79
-6.38
-7.00
-7.81
-8.98
-10.58
-12.51
-14.43
-15.81
-16.08
-14.81
-11.90
-7.70
-2.92
1.56
5.03
7.21
8.30
8.73
8.97
9.24
9.51
9.59
9.38
8.90
8.32
7.77
7.28
6.84
6.36
5.85
5.36
4.95
4.66
4.46
4.28
4.06
3.76
3.37
2.87
2.23
1.45
0.54
-0.46
-1.49
-2.46
-3.28
-3.92
-4.35
-4.67
-5.05
-5.71
-6.88
-8.60
-10.72
-12.84
-14.39
-14.81
-13.74
-11.15
-7.36
-2.96
1.38
5.11
7.97
9.95
11.24
12.00
12.30
12.10
11.33
10.07
8.53
7.08
6.03
5.52
5.47
5.67
5.85
5.88
5.72
5.47
5.21
4.95
4.66
4.26
3.70
2.98
2.14
1.24
0.36
-0.47
-1.21
-1.91
-2.62
-3.40
-4.32
-5.35
-6.36
-7.20
-7.76
-8.06
-8.28
-8.73
-9.66
-11.13
-12.92
-14.54
-15.41
-15.06
-13.29
-10.22
-6.25
-1.90
2.25
5.72
8.17
9.41
9.53
8.80
7.63
6.41
5.41
4.64
3.97
3.20
2.25
1.22
0.31
-0.24
-0.35
-0.08
0.39
0.80
0.97
0.85
0.53
0.16
-0.06
-0.05
0.19
0.52
0.78
0.85
0.69
0.34
-0.15
-0.78
-1.54
-2.40
-3.27
-3.98
-4.38
-4.46
-4.37
-4.37
-4.76
-5.69
-7.12
-8.87
-10.67
-12.22
-13.21
-13.35
-12.40
-10.29
-7.16
-3.44
0.27
3.40
5.60
6.85
7.41
7.68
7.95
8.29
8.55
8.51
7.99
7.05
5.96
5.02
4.52
4.52
4.93
5.49
5.95
6.08
5.82
5.20
4.34
3.44
2.63
2.03
1.65
1.38
1.09
0.66
0.04
-0.70
-1.46
-2.12
-2.66
-3.12
-3.60
-4.17
-4.82
-5.48
-6.10
-6.65
-7.20
-7.88
-8.82
-10.07
-11.51
-12.86
-13.70
-13.57
-12.14
-9.35
-5.51
-1.27
2.60
5.49
7.18
7.94
8.25
8.58
9.12
9.66
9.87
9.53
8.67
7.60
6.71
6.26
6.24
6.40
6.48
6.30
5.86
5.30
4.76
4.31
3.90
3.43
2.81
2.02
1.14
0.29
-0.41
-0.94
-1.39
-1.91
-2.62
-3.54
-4.53
-5.37
-5.88
-6.03
-5.95
-5.94
-6.25
-7.04
-8.27
-9.74
-11.19
-12.36
-12.96
-12.75
-11.50
-9.09
-5.66
-1.60
2.44
5.77
7.91
8.71
8.39
7.43
6.29
5.31
4.63
4.23
4.04
3.95
3.91
3.91
3.92
3.93
3.94
3.93
3.85
3.70
3.49
3.28
3.13
3.07
3.04
2.87
2.40
1.48
0.16
-1.34
-2.75
-3.81
-4.46
-4.80
-5.02
-5.35
-5.93
-6.79
-7.85
-8.98
-10.00
-10.68
-10.79
-10.08
-8.38
-5.74
-2.42
1.09
4.19
6.45
7.67
7.97
7.71
7.23
6.78
6.46
6.20
5.91
5.55
5.15
4.78
4.50
4.32
4.23
4.19
4.16
4.07
3.85
3.47
2.95
2.38
1.87
1.43
0.99
0.35
-0.66
-2.07
-3.70
-5.27
-6.44
-7.08
-7.25
-7.25
-7.41
-7.97
-8.97
-10.26
-11.54
-12.44
-12.61
-11.79
-9.91
-7.07
-3.62
-0.01
3.26
5.84
7.60
8.57
8.92
8.84
8.46
7.89
7.19
6.46
5.82
5.35
5.08
4.99
5.00
5.02
5.01
4.89
4.66
4.29
3.76
3.09
2.30
1.47
0.68
-0.02
-0.64
-1.24
-1.87
-2.59
-3.36
-4.15
-4.88
-5.50
-6.03
-6.52
-7.13
-7.97
-9.12
-10.46
-11.70
-12.45
-12.34
-11.15
-8.94
-5.96
-2.64
0.61
3.47
5.75
7.44
8.58
9.30
9.68
9.75
9.53
9.03
8.29
7.43
6.55
5.78
5.16
4.74
4.50
4.48
4.65
4.93
5.20
5.28
5.06
4.53
3.75
2.87
1.99
1.19
0.49
-0.11
-0.61
-1.05
-1.47
-1.94
-2.49
-3.11
-3.75
-4.36
-4.89
-5.36
-5.81
-6.34
-7.01
-7.88
-8.96
-10.22
-11.48
-12.47
-12.78
-12.03
-10.01
-6.83
-3.00
0.76
3.78
5.69
6.58
6.83
6.90
7.04
7.22
7.22
6.85
6.08
5.14
4.31
3.79
3.62
3.68
3.83
3.99
4.17
4.39
4.64
4.82
4.82
4.59
4.09
3.41
2.58
1.69
0.82
0.09
-0.36
-0.44
-0.20
0.15
0.29
-0.10
-1.10
-2.55
-4.08
-5.31
-6.02
-6.22
-6.09
-5.89
-5.82
-5.97
-6.40
-7.07
-7.87
-8.52
-8.61
-7.70
-5.53
-2.19
1.83
5.83
9.13
11.35
12.47
12.77
12.56
12.07
11.36
10.39
9.16
7.77
6.44
5.37
4.68
4.33
4.18
4.03
3.79
3.42
2.99
2.54
2.06
1.51
0.85
0.11
-0.63
-1.28
-1.79
-2.19
-2.56
-2.96
-3.36
-3.73
-4.05
-4.36
-4.74
-5.24
-5.82
-6.35
-6.71
-6.93
-7.18
-7.71
-8.70
-10.05
-11.37
-12.10
-11.73
-10.05
-7.22
-3.77
-0.36
2.46
4.39
5.47
5.90
5.96
5.78
5.37
4.66
3.68
2.56
1.55
0.88
0.64
0.76
1.07
1.36
1.52
1.58
1.63
1.74
1.90
1.99
1.88
1.43
0.63
-0.44
-1.60
-2.67
-3.48
-3.93
-4.04
-3.86
-3.56
-3.26
-3.09
-3.13
-3.35
-3.73
-4.20
-4.78
-5.48
-6.31
-7.21
-8.08
-8.84
-9.49
-10.12
-10.74
-11.22
-11.25
-10.48
-8.71
-6.10
-3.09
-0.21
2.16
3.93
5.29
6.42
7.38
8.04
8.21
7.86
7.11
6.22
5.42
4.84
4.47
4.24
4.11
4.07
4.14
4.27
4.43
4.56
4.66
4.72
4.71
4.56
4.17
3.53
2.69
1.80
1.03
0.46
0.04
-0.32
-0.73
-1.25
-1.87
-2.54
-3.25
-3.95
-4.65
-5.32
-5.93
-6.48
-6.97
-7.45
-7.92
-8.37
-8.81
-9.22
-9.53
-9.63
-9.25
-8.12
-6.04
-3.09
0.36
3.66
6.20
7.62
7.98
7.74
7.43
7.38
7.58
7.70
7.39
6.46
5.08
3.66
2.64
2.27
2.46
2.90
3.27
3.41
3.38
3.37
3.54
3.89
4.23
4.31
4.02
3.38
2.57
1.80
1.20
0.75
0.36
-0.06
-0.53
-0.97
-1.33
-1.59
-1.83
-2.12
-2.55
-3.15
-3.94
-4.96
-6.21
-7.63
-8.97
-9.85
-9.86
-8.78
-6.67
-3.89
-0.95
1.70
3.77
5.22
6.12
6.64
6.94
7.12
7.23
7.25
7.11
6.75
6.17
5.46
4.79
4.33
4.13
4.13
4.18
4.16
4.03
3.85
3.69
3.58
3.49
3.35
3.07
2.61
1.95
1.10
0.14
-0.78
-1.53
-2.06
-2.46
-2.91
-3.58
-4.47
-5.38
-6.01
-6.14
-5.78
-5.24
-4.90
-5.11
-5.97
-7.34
-8.90
-10.26
-11.04
-10.94
-9.80
-7.70
-4.97
-2.07
0.53
2.57
4.03
5.10
5.98
6.74
7.30
7.52
7.31
6.72
5.87
4.92
4.00
3.17
2.52
2.15
2.16
2.55
3.22
3.96
4.55
4.87
4.93
4.83
4.67
4.45
4.08
3.44
2.49
1.31
0.08
-0.95
-1.60
-1.84
-1.78
-1.63
-1.64
-1.99
-2.71
-3.74
-4.86
-5.85
-6.52
-6.81
-6.81
-6.72
-6.73
-7.07
-7.80
-8.88
-10.10
-11.13
-11.55
-11.02
-9.35
-6.60
-3.14
0.52
3.81
6.28
7.72
8.19
7.96
7.35
6.71
6.26
6.09
6.10
6.14
6.02
5.63
4.96
4.19
3.52
3.12
3.06
3.19
3.29
3.16
2.74
2.14
1.60
1.27
1.17
1.14
0.93
0.40
-0.38
-1.20
-1.79
-2.04
-2.05
-2.08
-2.38
-3.03
-3.83
-4.46
-4.66
-4.39
-3.91
-3.62
-3.90
-4.87
-6.35
-7.93
-9.10
-9.42
-8.64
-6.74
-3.94
-0.65
2.65
5.47
7.46
8.52
8.77
8.45
7.83
7.11
6.34
5.59
4.88
4.32
3.99
3.94
4.07
4.28
4.45
4.53
4.53
4.48
4.40
4.22
3.89
3.38
2.69
1.87
0.96
0.01
-0.88
-1.62
-2.15
-2.49
-2.79
-3.21
-3.81
-4.55
-5.25
-5.74
-5.94
-5.94
-5.89
-5.95
-6.21
-6.69
-7.39
-8.27
-9.25
-10.08
-10.37
-9.71
-7.87
-4.96
-1.50
1.79
4.30
5.73
6.23
6.24
6.24
6.48
6.87
7.14
6.98
6.34
5.41
4.54
4.03
3.93
4.09
4.21
4.09
3.70
3.18
2.76
2.60
2.73
3.02
3.25
3.19
2.70
1.84
0.78
-0.18
-0.81
-1.01
-0.86
-0.59
-0.47
-0.67
-1.21
-2.00
-2.90
-3.80
-4.62
-5.27
-5.73
-5.95
-5.98
-5.98
-6.14
-6.65
-7.59
-8.83
-10.05
-10.85
-10.85
-9.83
-7.86
-5.27
-2.53
-0.12
1.60
2.54
2.78
2.53
2.03
1.39
0.66
-0.19
-1.21
-2.43
-3.83
-5.41
-7.13
-8.95
-10.78
-12.44
-13.76
-14.56
-14.82
-14.60
-14.03
-13.20
-12.03
-10.36
-8.00
-4.90
-1.18
2.88
6.95
10.79
14.20
17.08
19.32
20.84
21.61
21.77
21.58
21.40
21.53
22.06
22.89
23.77
24.38
24.46
23.81
22.27
19.70
16.09
11.53
6.43
1.36
-3.01
-6.14
-7.84
-8.27
-7.88
-7.13
-6.39
-5.81
-5.42
-5.18
-5.11
-5.19
-5.41
-5.67
-5.84
-5.86
-5.68
-5.31
-4.74
-4.00
-3.12
-2.22
-1.50
-1.07
-0.96
-1.03
-1.07
-1.00
-0.87
-0.90
-1.23
-1.87
-2.63
-3.30
-3.71
-3.88
-3.93
-3.97
-4.01
-4.00
-3.94
-3.89
-3.99
-4.32
-4.88
-5.50
-5.99
-6.25
-6.29
-6.24
-6.32
-6.70
-7.45
-8.52
-9.64
-10.40
-10.37
-9.25
-7.01
-3.99
-0.77
2.06
4.13
5.37
5.99
6.21
6.25
6.13
5.85
5.40
4.85
4.31
3.84
3.47
3.17
2.92
2.76
2.78
3.07
3.61
4.31
4.97
5.43
5.59
5.44
5.00
4.29
3.30
2.03
0.54
-0.96
-2.20
-2.92
-3.01
-2.61
-2.08
-1.83
-2.20
-3.26
-4.78
-6.36
-7.57
-8.13
-8.03
-7.46
-6.80
-6.36
-6.27
-6.42
-6.44
-5.90
-4.43
-1.96
1.23
4.57
7.44
9.38
10.24
10.27
9.98
9.87
10.28
11.15
12.13
12.67
12.39
11.18
9.37
7.59
6.45
6.30
6.99
7.90
8.19
7.24
4.96
1.89
-0.79
-2.00
-1.01
2.08
6.30
10.11
11.93
10.61
5.99
-0.51
-6.30
-7.72
-1.45
13.91
36.65
61.99
83.35
95.00
94.62
83.56
66.71
49.94
37.73
31.89
31.98
36.24
41.22
44.22
42.15
33.89
20.54
5.11
-8.62
-17.50
-21.59
-23.97
-28.49
-39.07
-56.36
-77.70
-98.06
-112.84
-117.32
-111.00
-97.47
-79.19
-62.59
-53.15
-52.52
-57.50
-63.32
-66.95
-68.66
-70.50
-74.20
-82.75
-93.30
-101.75
-104.17
-98.25
-83.90
-63.04
-38.30
-11.83
15.02
43.07
71.47
98.45
121.10
135.88
139.60
130.98
111.47
84.78
56.48
31.57
13.41
2.89
-1.33
-1.75
-0.78
0.05
0.06
-0.43
-1.17
-1.91
-2.73
-3.97
-5.94
-8.73
-12.05
-15.39
-18.04
-19.52
-19.61
-18.45
-16.50
-14.24
-11.94
-9.54
-6.79
-3.52
0.08
3.57
6.40
8.18
8.87
8.74
8.18
7.45
6.62
5.63
4.48
3.22
1.92
0.51
-1.23
-3.47
-6.15
-8.82
-10.72
-11.08
-9.54
-6.29
-2.02
2.40
6.25
9.10
10.88
11.69
11.71
11.12
10.13
8.98
7.90
7.04
6.47
6.13
5.94
5.79
5.60
5.32
4.90
4.31
3.58
2.78
2.04
1.48
1.17
1.06
1.00
0.87
0.54
-0.04
-0.90
-2.08
-3.59
-5.40
-7.36
-9.26
-10.84
-11.88
-12.32
-12.28
-12.00
-11.76
-11.78
-12.06
-12.35
-12.18
-11.06
-8.69
-5.24
-1.27
2.37
4.92
6.04
5.91
5.13
4.35
3.95
3.89
3.82
3.31
2.15
0.50
-1.23
-2.59
-3.28
-3.29
-2.78
-1.90
-0.72
0.85
2.92
5.38
7.90
9.93
10.96
10.73
9.34
7.20
4.86
2.86
1.58
1.15
1.50
2.29
3.00
3.02
1.92
-0.35
-3.35
-6.18
-7.85
-7.67
-5.62
-2.43
0.65
2.32
1.80
-0.83
-4.58
-7.99
-9.60
-8.51
-4.62
1.47
8.66
15.69
21.40
24.85
25.51
23.38
19.14
14.21
10.36
9.17
11.46
16.92
24.20
31.45
37.01
40.01
40.72
40.38
40.47
41.98
44.72
47.34
47.83
44.51
36.75
25.39
12.35
-0.06
-10.06
-16.81
-20.32
-20.95
-19.04
-14.97
-9.54
-4.40
-2.03
-5.08
-15.26
-32.42
-54.27
-77.05
-96.86
-111.03
-118.92
-121.71
-121.50
-120.23
-118.89
-117.45
-115.22
-111.32
-104.90
-95.44
-82.98
-68.26
-52.80
-38.49
-26.92
-18.73
-13.41
-9.69
-6.50
-3.68
-1.88
-1.65
-2.39
-2.07
2.03
11.91
27.95
48.71
71.51
93.47
112.42
127.08
136.87
141.78
142.40
140.69
139.57
141.73
148.20
157.75
167.24
172.86
171.55
161.79
145.04
124.73
104.88
88.73
78.05
72.74
70.42
66.47
54.74
31.06
-4.99
-49.46
-94.65
-131.11
-150.62
-149.06
-126.95
-93.38
-60.67
-37.04
-23.52
-16.49
-11.72
-6.84
-1.59
5.17
11.94
19.46
29.50
42.63
57.63
72.07
83.86
92.01
96.99
96.71
91.91
83.77
72.33
56.60
35.43
8.50
-23.60
-59.63
-98.55
-138.15
-172.07
-193.32
-197.72
-186.18
-163.89
-137.30
-111.43
-89.35
-71.36
-56.36
-43.48
-32.42
-23.33
-16.19
-10.74
-6.41
-2.84
0.60
4.44
8.58
12.57
16.00
18.80
21.12
23.37
25.59
27.75
29.73
31.17
31.75
31.37
30.21
27.88
24.73
20.53
14.84
7.38
-1.85
-12.33
-23.15
-32.01
-38.81
-43.66
-47.36
-50.95
-55.22
-60.31
-65.57
-69.86
-72.20
-72.32
-70.56
-68.01
-65.90
-65.25
-66.75
-70.89
-77.61
-85.66
-92.30
-93.25
-84.49
-64.29
-34.68
-1.28
28.77
49.79
59.70
60.21
55.41
49.16
43.46
38.38
33.10
27.24
21.48
17.04
14.66
14.07
14.09
13.39
11.14
7.54
3.68
0.96
0.35
2.04
5.43
9.43
13.04
16.13
19.11
22.77
27.75
34.08
41.13
47.83
53.25
56.42
58.23
59.78
61.91
64.78
67.63
69.03
67.71
63.79
57.45
50.53
45.00
42.34
42.91
45.83
49.21
50.75
48.34
40.78
28.64
13.94
-0.23
-10.91
-16.58
-18.01
-17.96
-19.90
-26.18
-36.54
-48.25
-57.14
-59.34
-52.88
-38.55
-19.95
-2.71
7.08
5.15
-9.07
-31.27
-53.47
-67.03
-66.31
-51.44
-28.38
-6.18
7.33
8.94
0.97
-10.67
-19.90
-23.38
-21.39
-16.72
-12.35
-9.66
-8.00
-5.73
-1.67
3.83
8.91
11.30
9.49
3.67
-4.21
-11.27
-14.88
-13.66
-7.76
1.18
11.37
21.42
30.63
38.80
45.81
51.20
54.12
53.67
49.49
42.24
33.42
24.76
17.53
11.96
7.31
2.42
-3.60
-10.92
-18.96
-26.84
-33.87
-39.85
-45.03
-49.90
-54.84
-60.01
-65.27
-70.37
-75.10
-79.42
-83.43
-87.33
-91.35
-95.76
-101.04
-107.81
-116.78
-128.37
-142.19
-156.65
-169.00
-176.11
-175.63
-167.02
-151.80
-132.75
-112.62
-92.86
-73.19
-52.12
-28.26
-1.37
27.18
54.98
79.65
99.77
115.14
126.41
134.52
140.33
144.57
148.10
151.81
156.23
161.21
165.75
168.34
167.62
162.98
154.76
143.99
131.75
118.81
105.58
92.37
79.70
68.27
58.58
50.56
43.43
36.05
27.54
17.94
8.25
0.07
-5.14
-6.78
-5.28
-1.87
2.01
5.26
7.48
8.88
9.97
11.18
12.67
14.27
15.66
16.50
16.54
15.65
13.90
11.53
8.88
6.40
4.50
3.45
3.22
3.42
3.34
2.27
-0.28
-4.28
-9.25
-14.40
-18.99
-22.67
-25.63
-28.45
-31.56
-34.99
-38.32
-41.02
-42.76
-43.41
-42.95
-41.25
-37.77
-31.39
-20.67
-4.36
18.15
46.86
81.46
121.11
163.73
205.40
240.20
261.02
261.54
238.62
194.23
136.00
74.90
21.48
-17.49
-40.57
-50.98
-54.36
-56.28
-61.96
-73.43
-89.17
-105.55
-119.58
-130.27
-137.79
-142.20
-143.10
-140.07
-133.00
-122.69
-110.94
-99.95
-91.46
-86.07
-83.19
-81.49
-79.54
-76.33
-71.90
-67.17
-63.25
-60.41
-57.61
-52.95
-44.87
-33.09
-18.89
-4.69
6.95
14.35
17.36
17.22
15.81
14.80
15.10
16.81
19.31
21.52
22.33
21.10
17.82
13.20
8.50
5.27
5.03
8.91
17.15
28.82
42.14
54.62
63.96
68.95
70.18
69.95
70.84
73.92
77.41
77.04
67.97
47.52
17.09
-17.95
-50.38
-73.55
-84.07
-82.60
-72.21
-56.52
-38.49
-20.39
-4.43
6.99
11.83
9.21
0.35
-11.53
-22.45
-29.13
-29.97
-25.56
-18.07
-10.24
-4.51
-1.87
-2.08
-3.88
-5.79
-6.64
-5.90
-3.61
-0.19
3.70
7.31
9.97
11.21
10.97
9.60
7.76
6.14
5.21
5.00
5.14
5.01
4.11
2.35
0.11
-1.91
-3.00
-2.82
-1.50
0.46
2.51
4.25
5.51
6.34
6.93
7.49
8.21
9.22
10.58
12.26
14.13
15.81
16.97
17.40
17.06
16.11
14.72
13.08
11.13
9.48
8.11
6.76
5.04
2.73
0.06
-2.26
-3.13
-1.58
2.88
9.78
17.96
25.94
32.40
36.60
38.55
38.98
38.97
39.70
41.91
45.75
50.51
54.69
56.31
53.58
45.58
32.74
16.73
-0.18
-15.83
-28.78
-38.34
-44.28
-46.36
-44.21
-37.67
-27.36
-15.11
-3.59
4.52
7.65
6.11
2.03
-1.49
-1.47
3.78
14.31
28.55
43.76
56.38
62.55
58.86
43.56
17.64
-14.72
-46.95
-72.02
-84.87
-84.01
-71.62
-52.22
-30.46
-9.64
8.71
24.21
36.58
45.17
49.26
48.69
44.40
38.16
32.12
27.91
26.15
26.36
27.40
28.19
27.98
26.40
23.17
18.05
10.89
1.59
-9.79
-22.95
-37.29
-52.01
-66.17
-79.15
-90.40
-99.53
-106.60
-112.47
-118.56
-126.19
-135.89
-146.78
-157.34
-164.92
-166.53
-160.24
-145.99
-125.37
-100.69
-74.35
-48.50
-26.41
-10.36
-1.13
1.25
-3.06
-13.29
-27.59
-43.18
-57.05
-68.75
-77.43
-81.55
-80.35
-75.06
-68.01
-61.33
-56.39
-54.02
-57.53
-67.96
-82.90
-98.08
-109.43
-113.47
-107.47
-90.19
-46.35
20.89
91.51
145.62
177.11
190.59
193.66
192.30
189.56
186.18
179.28
168.16
155.21
143.25
132.88
122.82
111.65
99.04
85.78
70.94
54.60
38.15
23.38
11.55
3.88
1.56
4.81
12.08
18.76
20.69
16.02
5.23
-9.76
-26.16
-40.70
-50.18
-52.31
-47.10
-36.08
-21.89
-7.84
3.02
9.12
10.98
10.55
9.66
8.75
7.23
4.04
-1.32
-8.00
-13.74
-15.73
-12.09
-2.99
9.24
21.32
30.40
35.43
37.49
38.68
40.53
43.04
44.72
43.81
39.53
32.11
22.53
12.10
1.80
-7.69
-15.57
-20.41
-19.96
-11.86
4.52
27.43
53.00
76.42
93.55
102.46
103.86
100.58
95.68
89.73
80.50
64.40
38.74
2.90
-40.09
-85.07
-126.58
-155.97
-167.28
-160.79
-142.92
-121.11
-99.64
-79.13
-58.99
-39.33
-21.48
-8.13
-1.42
-1.71
-6.29
-10.99
-12.17
-8.32
-0.26
9.51
17.41
20.57
17.62
10.41
1.58
-5.67
-10.15
-12.60
-14.93
-19.68
-28.92
-44.24
-64.82
-88.32
-111.11
-128.76
-136.43
-130.19
-108.78
-70.58
-24.90
17.68
49.31
67.22
73.12
71.31
65.97
59.47
52.40
44.10
35.48
28.26
24.09
23.31
24.76
26.44
26.58
24.59
20.94
18.29
18.76
23.67
32.70
43.96
54.92
63.49
68.90
71.77
74.45
79.51
88.49
100.51
112.12
118.04
112.82
92.75
57.32
10.36
-40.51
-85.24
-114.40
-122.14
-108.39
-79.02
-43.93
-13.91
2.52
-0.95
-26.53
-71.47
-128.67
-187.98
-237.82
-267.47
-269.52
-242.26
-190.28
-122.78
-50.96
14.81
66.81
100.61
114.97
111.67
95.24
72.26
49.77
32.60
21.46
13.15
3.33
-10.03
-24.57
-34.21
-32.35
-15.55
14.36
50.77
85.28
111.11
125.35
128.97
125.18
117.53
108.87
101.20
96.29
95.84
100.96
111.02
122.94
131.74
132.53
122.93
104.50
82.15
61.80
47.57
40.22
37.54
36.45
35.08
33.63
33.39
34.72
35.72
32.47
21.13
0.39
-26.93
-54.73
-76.25
-87.25
-87.83
-81.98
-75.03
-71.03
-71.56
-76.31
-84.81
-97.39
-114.84
-136.94
-161.53
-185.05
-204.10
-217.00
-223.91
-225.65
-222.14
-211.96
-193.38
-166.01
-131.87
-94.69
-58.27
-24.78
5.41
32.70
56.88
76.51
89.75
95.92
96.76
96.37
99.60
109.55
125.78
144.19
158.79
164.52
159.56
145.91
128.04
110.72
97.23
88.99
86.18
88.60
95.79
106.46
117.95
126.55
128.75
122.97
110.50
95.09
81.28
72.69
70.76
74.71
82.26
90.65
97.50
101.31
101.70
99.35
95.68
92.06
89.35
87.49
85.72
82.78
77.27
67.77
52.91
31.72
4.02
-29.33
-66.50
-105.15
-143.09
-178.57
-210.26
-236.95
-257.39
-270.32
-274.98
-271.32
-260.11
-242.56
-220.02
-194.10
-166.88
-140.92
-118.59
-101.11
-87.69
-75.69
-61.92
-44.33
-23.20
-1.00
18.85
33.45
41.45
42.98
39.02
30.61
18.75
4.76
-9.26
-20.51
-26.29
-25.01
-16.74
-2.86
15.00
35.93
59.64
85.13
109.19
126.06
129.13
113.94
80.94
36.05
-11.23
-51.47
-78.31
-89.61
-86.72
-72.57
-50.48
-23.83
3.52
26.98
41.88
45.19
37.06
21.24
3.86
-8.85
-12.63
-6.24
8.50
27.60
46.83
63.26
76.00
86.00
94.45
101.98
108.33
112.50
112.84
108.54
100.32
90.14
80.56
72.29
64.98
58.09
51.36
43.90
35.51
27.02
20.04
17.04
17.70
20.71
24.91
29.05
30.12
25.85
16.14
3.22
-8.41
-18.45
-28.45
-40.19
-55.56
-78.26
-110.72
-152.58
-200.75
-249.09
-296.19
-341.97
-385.71
-406.96
-390.52
-336.71
-262.91
-205.85
-169.92
-154.13
-157.51
-172.20
-192.21
-212.43
-226.34
-226.58
-206.96
-163.38
-101.23
-30.08
40.51
102.27
147.81
172.69
176.51
163.36
142.20
120.32
104.24
99.02
106.08
122.27
142.09
160.28
173.88
183.47
189.27
191.84
191.85
189.25
183.06
172.41
157.51
139.94
122.60
107.32
94.93
85.31
77.33
69.49
60.67
50.66
40.11
30.23
21.55
13.99
7.12
0.42
-6.12
-12.00
-16.40
-18.55
-18.04
-14.92
-9.56
-2.52
5.69
14.64
23.88
32.84
40.77
46.80
49.98
49.35
43.98
33.18
17.01
-3.19
-24.57
-43.15
-55.02
-57.68
-51.10
-37.67
-21.09
-4.92
8.61
18.74
25.71
29.95
31.73
31.34
29.57
27.76
27.35
29.03
32.27
35.52
37.06
36.05
33.06
29.71
27.84
28.47
31.35
35.15
38.21
39.20
37.72
34.22
29.78
25.62
22.82
21.99
23.19
25.87
29.05
31.57
32.52
31.41
28.44
24.36
20.35
17.70
17.32
19.06
21.27
20.81
13.93
-2.31
-28.59
-62.69
-100.04
-135.17
-163.33
-181.66
-189.35
-187.20
-176.99
-161.03
-142.13
-123.27
-107.18
-95.55
-88.45
-84.30
-80.48
-74.37
-64.36
-50.37
-33.80
-16.94
-2.04
9.42
17.15
21.82
24.49
26.03
26.82
26.89
26.24
25.21
24.34
24.11
24.50
24.94
24.65
23.08
20.37
17.26
14.74
13.55
13.85
15.18
16.75
17.80
17.90
16.99
15.32
13.26
11.14
9.20
7.51
6.09
4.95
4.16
3.86
4.14
4.90
5.80
6.41
6.39
5.80
5.23
5.69
8.20
13.38
21.09
30.43
39.94
48.12
53.78
56.35
55.89
52.90
48.04
41.98
35.27
28.48
22.21
17.11
13.54
11.32
9.56
7.01
2.65
-3.63
-10.82
-17.27
-21.49
-23.02
-22.60
-21.65
-21.44
-22.38
-23.94
-25.17
-25.49
-25.17
-25.13
-26.28
-28.76
-31.69
-33.55
-32.94
-29.34
-23.28
-16.00
-8.76
-2.26
3.46
8.74
13.79
18.45
22.22
24.49
24.92
23.58
20.91
17.72
14.97
13.68
14.64
18.18
24.05
31.48
39.45
46.99
53.37
58.08
60.89
61.83
61.26
59.99
59.16
59.80
62.39
66.49
70.79
73.74
74.31
72.63
69.81
67.34
66.02
65.44
64.24
61.01
55.37
48.34
41.81
37.38
35.41
34.91
34.27
32.25
28.32
22.28
13.46
0.47
-18.18
-42.96
-72.49
-103.58
-132.33
-155.49
-171.35
-179.79
-181.64
-178.01
-169.90
-158.24
-144.06
-128.44
-112.41
-96.76
-82.07
-68.72
-57.00
-47.09
-39.02
-32.67
-27.83
-24.13
-21.08
-18.10
-14.57
-10.14
-4.87
0.74
6.00
10.46
14.06
17.08
19.77
22.20
24.24
25.91
27.52
29.59
32.45
35.80
38.83
40.59
40.65
39.32
37.26
34.96
32.22
28.28
22.41
14.61
5.85
-2.34
-8.49
-11.82
-12.27
-10.38
-6.93
-2.92
0.45
1.78
-0.11
-5.55
-13.53
-21.63
-26.91
-27.13
-21.91
-13.07
-3.82
2.67
4.70
2.70
-1.21
-4.54
-5.68
-4.54
-2.20
0.13
2.07
4.36
8.35
15.09
24.56
35.56
46.26
55.01
61.04
64.63
66.81
68.71
71.00
73.62
75.82
76.61
75.23
71.50
66.05
60.06
54.88
51.51
50.17
50.15
50.09
48.53
44.61
38.56
31.61
25.33
20.79
18.00
16.09
14.03
11.34
8.27
5.34
2.56
-0.93
-6.45
-14.85
-25.79
-37.62
-48.30
-56.51
-62.39
-67.30
-72.81
-79.65
-87.21
-94.09
-98.94
-101.32
-101.70
-100.94
-99.48
-96.95
-92.38
-84.90
-74.33
-61.49
-47.95
-35.34
-24.89
-17.09
-11.81
-8.57
-6.75
-5.74
-5.02
-4.12
-2.71
-0.51
2.60
6.60
11.30
16.25
20.76
23.99
25.23
24.11
20.79
15.95
10.56
5.58
1.78
-0.49
-1.25
-0.97
-0.46
-0.74
-2.66
-6.52
-11.76
-16.93
-20.15
-19.88
-15.62
-8.28
0.28
7.96
13.34
16.03
16.48
15.42
13.40
10.64
7.36
4.08
1.73
1.25
3.10
6.88
11.40
15.25
17.48
18.00
17.49
16.90
16.95
17.69
18.67
19.27
19.13
18.40
17.57
17.15
17.33
17.86
18.36
18.57
18.62
18.92
19.79
21.19
22.63
23.41
23.03
21.47
19.14
16.64
14.42
12.59
11.04
9.60
8.28
7.23
6.52
6.00
5.26
3.83
1.43
-1.82
-5.43
-8.77
-11.24
-12.47
-12.26
-10.50
-7.18
-2.54
2.82
7.85
11.39
12.60
11.38
8.43
4.91
1.87
-0.17
-1.36
-2.21
-3.18
-4.38
-5.62
-6.59
-7.16
-7.48
-7.82
-8.37
-9.03
-9.51
-9.49
-8.95
-8.19
-7.73
-8.00
-9.02
-10.43
-11.61
-12.11
-11.88
-11.32
-11.08
-11.70
-13.40
-15.97
-19.00
-22.02
-24.72
-26.92
-28.56
-29.63
-30.26
-30.69
-31.27
-32.38
-34.14
-36.37
-38.51
-39.88
-39.98
-38.64
-36.14
-33.00
-29.74
-26.70
-24.09
-22.08
-21.09
-21.65
-24.22
-28.79
-34.69
-40.62
-45.14
-47.14
-46.31
-43.10
-38.50
-33.61
-29.22
-25.69
-22.85
-20.11
-16.55
-11.15
-2.97
8.51
23.18
40.20
58.12
75.10
89.39
99.71
105.66
107.77
107.45
106.56
106.87
109.55
114.90
122.24
130.21
137.12
141.42
141.91
138.12
130.38
120.05
109.28
100.70
96.57
97.79
103.10
108.89
110.19
102.38
83.22
54.07
19.54
-14.18
-41.75
-60.41
-70.38
-73.98
-74.29
-73.99
-74.87
-77.92
-83.42
-91.05
-99.92
-108.67
-115.75
-119.88
-120.20
-116.23
-107.88
-95.55
-81.00
-67.60
-59.62
-60.56
-71.55
-90.43
-112.04
-130.21
-139.42
-137.03
-123.33
-100.29
-70.28
-35.67
1.11
37.51
70.63
98.29
118.10
128.16
128.10
119.77
106.93
95.02
90.27
97.07
116.61
143.94
169.14
181.58
174.50
147.23
105.19
57.22
6.73
-39.19
-74.32
-97.49
-112.86
-125.60
-138.71
-154.01
-168.13
-176.24
-173.51
-158.42
-133.50
-103.93
-73.31
-47.49
-31.30
-26.65
-31.58
-41.90
-54.65
-69.07
-85.30
-102.88
-120.99
-138.36
-153.75
-164.30
-166.90
-159.78
-142.95
-117.41
-84.51
-46.49
-6.14
33.80
74.07
116.40
161.63
208.90
256.84
305.12
354.61
407.27
446.12
457.11
435.37
386.66
319.37
238.79
148.96
56.20
-30.16
-100.75
-147.08
-166.80
-164.48
-149.24
-130.03
-112.34
-98.05
-87.21
-79.82
-74.18
-68.91
-63.40
-58.02
-53.17
-48.71
-44.44
-40.58
-37.90
-35.81
-33.43
-30.12
-25.92
-21.07
-15.94
-10.96
-6.88
-4.53
-3.88
-4.43
-5.44
-6.60
-7.56
-8.07
-8.14
-8.10
-8.47
-9.41
-10.80
-12.28
-13.33
-13.39
-11.94
-8.87
-4.48
0.50
5.05
8.22
9.48
8.88
7.14
5.32
4.27
4.35
5.25
6.29
6.89
6.91
6.76
7.19
8.71
11.14
13.71
15.51
16.13
15.79
15.13
14.58
13.98
13.13
11.26
7.85
3.09
-1.95
-6.06
-8.73
-10.53
-12.62
-16.04
-21.19
-27.45
-33.60
-38.12
-40.23
-40.46
-40.16
-40.56
-42.18
-44.90
-48.23
-51.76
-54.78
-56.92
-58.47
-59.91
-61.31
-62.28
-62.49
-61.96
-60.91
-58.58
-53.54
-44.42
-30.07
-9.93
15.19
42.37
67.00
80.15
76.77
61.35
44.11
34.20
35.66
47.19
63.56
78.44
86.76
86.82
79.59
66.78
50.27
31.95
13.98
-1.51
-12.63
-18.17
-17.76
-11.35
-0.91
10.11
18.07
20.59
17.19
9.41
-0.04
-7.65
-10.36
-7.08
1.86
13.21
22.78
27.17
25.43
19.04
11.54
6.57
5.95
9.21
14.15
18.65
21.87
24.88
29.08
35.42
43.78
52.61
59.77
63.33
62.65
58.45
52.76
46.72
40.52
33.91
27.63
23.31
21.85
21.92
17.63
5.97
-14.96
-46.13
-85.12
-128.69
-173.71
-218.64
-263.81
-310.03
-355.92
-397.20
-426.49
-435.53
-419.04
-377.22
-316.02
-244.78
-172.74
-106.16
-48.36
-0.41
37.68
65.89
84.47
94.52
98.33
99.06
100.07
103.51
110.12
119.57
130.45
141.00
149.51
154.72
156.31
154.95
151.61
146.94
140.95
133.01
122.62
110.08
96.85
85.17
77.16
73.73
74.18
76.48
78.04
76.78
71.73
63.23
52.59
41.48
31.38
23.16
16.98
12.47
8.99
6.02
3.18
0.32
-2.69
-5.96
-9.58
-13.50
-17.42
-20.91
-23.61
-25.49
-26.90
-28.33
-30.05
-31.75
-32.63
-31.71
-28.40
-22.87
-16.03
-9.17
-3.33
1.04
4.11
6.35
8.15
9.49
10.07
9.54
7.78
5.01
1.74
-1.45
-4.02
-5.64
-6.21
-5.89
-5.00
-3.97
-3.11
-2.54
-2.18
-1.96
-1.94
-2.35
-3.44
-5.28
-7.57
-9.85
-11.67
-12.91
-13.77
-14.52
-15.28
-15.84
-15.81
-14.89
-13.15
-11.10
-9.52
-9.29
-11.05
-15.05
-21.03
-28.09
-34.83
-39.67
-41.35
-39.38
-34.25
-27.20
-19.65
-12.72
-6.89
-2.01
2.35
6.64
11.06
15.58
19.98
23.96
27.30
29.86
31.64
32.80
33.52
33.97
34.22
34.31
34.23
34.05
33.85
33.68
33.50
33.16
32.49
31.40
29.92
28.12
26.15
24.11
22.11
20.26
18.69
17.46
16.57
15.84
15.04
13.92
12.27
10.01
7.16
3.89
0.53
-2.55
-4.92
-6.28
-6.54
-5.84
-4.40
-2.44
-0.07
2.56
5.22
7.53
9.10
9.70
9.46
8.77
8.19
8.04
8.30
8.66
8.79
8.53
8.02
7.54
7.31
7.40
7.64
7.84
7.92
7.96
8.13
8.58
9.39
10.54
11.91
13.36
14.64
15.47
15.58
14.85
13.38
11.51
9.60
7.85
6.20
4.37
2.13
-0.54
-3.42
-6.20
-8.66
-10.81
-12.76
-14.54
-15.93
-16.49
-15.79
-13.63
-10.26
-6.29
-2.50
0.49
2.36
3.17
3.23
2.87
2.30
1.54
0.55
-0.66
-1.87
-2.72
-2.86
-2.19
-0.98
0.25
0.94
0.80
-0.05
-1.18
-2.04
-2.36
-2.21
-2.02
-2.29
-3.30
-4.93
-6.71
-8.04
-8.55
-8.30
-7.75
-7.56
-8.21
-9.85
-12.17
-14.62
-16.61
-17.73
-17.82
-16.91
-15.13
-12.62
-9.59
-6.29
-3.07
-0.28
1.78
2.97
3.37
3.23
2.81
2.32
1.81
1.26
0.64
0.02
-0.44
-0.59
-0.39
0.10
0.74
1.46
2.34
3.56
5.25
7.34
9.52
11.28
12.20
12.13
11.26
10.04
8.96
8.28
7.94
7.63
6.96
5.66
3.72
1.31
-1.25
-3.69
-5.79
-7.40
-8.34
-8.39
-7.35
-5.17
-2.07
1.44
4.72
7.20
8.59
8.97
8.67
8.06
7.40
6.77
6.16
5.55
5.02
4.66
4.55
4.68
4.98
5.36
5.77
6.19
6.52
6.69
6.67
6.56
6.54
6.72
7.08
7.43
7.59
7.40
6.87
6.14
5.41
4.86
4.60
4.66
5.08
5.78
6.46
6.69
6.22
5.23
4.45
4.88
7.46
12.75
20.66
30.09
39.24
46.37
50.45
51.52
50.66
49.72
50.91
55.92
64.61
74.83
83.54
88.22
88.09
84.73
81.73
83.69
93.87
111.53
131.64
146.94
150.74
138.78
109.69
64.99
9.79
-47.66
-97.57
-130.51
-139.66
-123.60
-88.26
-46.41
-17.01
-14.92
-39.58
-76.33
-108.46
-126.97
-132.45
-130.95
-128.47
-127.29
-125.19
-118.44
-105.81
-89.85
-75.02
-65.12
-61.50
-63.08
-66.90
-69.19
-67.00
-59.87
-49.96
-40.53
-34.15
-31.83
-33.02
-36.00
-38.55
-39.02
-37.28
-34.52
-31.96
-29.78
-26.92
-21.93
-13.95
-3.40
8.13
18.40
25.51
28.87
29.33
28.48
27.64
27.38
27.56
27.83
27.91
27.81
27.64
27.52
27.33
26.84
25.85
24.29
22.39
20.55
19.12
18.39
18.44
19.19
20.32
21.42
21.89
21.15
18.87
15.08
10.36
5.47
1.22
-1.94
-4.00
-5.37
-6.64
-8.13
-9.88
-11.48
-12.45
-12.32
-11.07
-9.10
-7.23
-6.31
-6.82
-8.74
-11.42
-14.03
-15.71
-16.15
-15.66
-15.03
-15.04
-15.98
-17.56
-18.98
-19.45
-18.53
-16.39
-13.76
-11.59
-10.59
-10.85
-12.00
-13.46
-14.84
-16.03
-16.90
-17.25
-16.71
-14.80
-11.25
-6.50
-1.87
0.65
-0.54
-5.56
-12.75
-19.00
-20.91
-15.99
-3.76
14.19
34.03
50.76
61.36
65.61
65.21
62.19
57.88
52.71
46.75
40.44
35.13
32.61
34.01
38.78
44.67
48.47
47.26
39.54
25.72
8.06
-10.08
-25.36
-35.38
-39.27
-37.81
-33.22
-28.31
-25.50
-25.80
-28.45
-31.53
-33.11
-32.26
-29.59
-26.77
-25.47
-26.41
-28.49
-29.91
-29.04
-25.31
-19.44
-12.85
-7.00
-2.80
-0.37
0.75
1.12
1.05
0.38
-1.43
-4.88
-10.17
-16.82
-23.61
-28.90
-31.20
-29.92
-25.80
-21.04
-18.33
-20.14
-27.61
-39.88
-54.25
-66.98
-74.52
-74.65
-67.15
-53.54
-36.79
-20.20
-6.33
3.69
10.14
14.31
17.91
20.77
23.28
25.64
27.92
30.11
32.09
33.61
34.24
33.53
31.28
27.98
24.57
22.15
21.66
23.39
26.83
30.81
33.97
35.30
34.61
32.29
29.04
25.52
22.12
18.92
15.90
13.01
10.26
7.78
5.53
3.44
1.41
-0.46
-1.96
-2.82
-2.98
-2.66
-2.25
-2.15
-2.49
-3.04
-3.30
-2.82
-1.52
0.25
1.81
2.56
2.26
1.19
-0.05
-0.76
-0.59
0.35
1.49
2.09
1.53
-0.37
-3.31
-6.54
-9.11
-10.18
-9.23
-6.21
-1.56
3.96
9.44
14.13
17.56
19.63
20.55
20.65
20.25
19.55
18.64
17.51
16.19
14.70
13.09
11.35
9.44
7.28
4.88
2.39
0.01
-2.02
-3.61
-4.82
-5.84
-6.85
-7.89
-8.85
-9.48
-9.59
-9.11
-8.19
-7.10
-6.15
-5.50
-5.23
-5.32
-5.72
-6.40
-7.28
-8.31
-9.39
-10.47
-11.47
-12.38
-13.12
-13.47
-13.13
-11.71
-8.91
-4.71
0.62
6.46
12.03
16.59
19.61
20.89
20.69
19.59
18.35
17.70
18.21
20.29
24.12
29.55
36.16
43.23
49.92
55.45
59.37
61.87
63.81
66.14
69.31
72.84
75.45
75.54
71.73
63.32
50.67
35.12
18.38
1.85
-13.68
-27.92
-40.79
-52.23
-62.12
-69.93
-74.71
-75.53
-71.96
-64.09
-52.13
-36.16
-16.23
5.60
24.94
36.98
39.26
32.71
20.44
6.29
-6.17
-14.69
-18.48
-18.85
-16.83
-13.18
-8.51
-3.54
1.00
4.31
5.61
4.21
0.38
-4.56
-8.93
-11.30
-10.90
-7.54
-1.66
5.81
13.45
19.76
23.56
24.17
21.66
16.91
11.28
6.15
2.15
-1.11
-4.85
-10.37
-18.53
-29.19
-41.25
-53.05
-63.07
-70.44
-74.88
-76.49
-75.27
-71.07
-63.76
-53.68
-41.94
-30.37
-20.79
-14.26
-10.66
-8.84
-7.39
-5.31
-2.57
0.05
1.35
0.65
-1.68
-4.55
-6.68
-7.43
-6.97
-6.23
-6.37
-8.48
-12.75
-18.26
-23.63
-27.56
-29.44
-29.17
-26.95
-23.14
-18.46
-13.56
-8.73
-4.34
-0.66
2.11
4.40
7.32
13.74
24.26
36.48
46.92
52.63
52.34
45.57
32.88
15.97
-2.46
-19.31
-31.21
-34.78
-29.62
-15.37
5.97
30.77
54.59
73.12
82.91
80.00
65.58
43.77
19.61
-3.17
-22.17
-36.07
-44.33
-47.21
-45.46
-39.95
-33.17
-26.30
-20.86
-17.53
-15.83
-14.35
-11.51
-6.31
1.39
10.25
18.13
22.60
22.48
18.37
12.35
6.88
3.69
3.07
4.28
5.94
6.53
5.27
2.31
-1.68
-5.82
-9.23
-11.01
-10.24
-6.78
-2.02
1.30
0.27
-6.73
-18.72
-32.02
-41.50
-42.31
-32.64
-14.90
5.28
21.79
30.51
30.52
23.65
13.17
3.09
-3.85
-6.90
-6.80
-4.53
-0.75
4.04
9.28
14.48
20.60
29.08
40.83
55.81
73.25
91.61
108.60
121.49
121.44
103.69
71.91
36.08
5.38
-15.68
-27.05
-31.38
-32.34
-33.20
-34.84
-36.57
-37.57
-37.67
-37.13
-36.56
-36.55
-37.16
-37.70
-36.26
-31.40
-23.40
-14.21
-4.88
4.23
13.53
23.22
32.19
38.38
39.02
31.98
16.92
-2.26
-19.88
-31.37
-35.43
-34.17
-30.87
-28.14
-26.64
-25.24
-22.27
-17.27
-11.36
-6.59
-4.92
-6.79
-11.17
-16.01
-19.18
-19.51
-17.18
-13.78
-11.46
-12.56
-17.71
-26.92
-39.73
-55.25
-71.72
-86.10
-94.26
-90.97
-74.92
-48.17
-16.37
13.22
34.67
45.69
48.01
45.66
42.56
40.40
38.97
37.00
33.70
29.60
26.06
24.34
24.66
26.19
27.58
27.99
27.68
27.39
27.44
27.07
24.64
18.67
8.93
-2.88
-14.19
-22.24
-25.47
-23.85
-18.38
-10.29
-0.68
9.33
18.31
24.75
27.78
27.79
26.37
25.41
25.89
27.22
27.80
26.46
23.30
19.75
17.37
16.73
17.08
17.03
15.67
13.16
10.44
8.27
6.65
4.73
1.89
-1.47
-3.86
-3.69
-0.41
4.89
10.05
13.31
14.02
13.15
12.54
13.82
17.40
22.14
26.05
27.37
25.47
20.56
13.59
5.71
-2.20
-9.80
-17.77
-27.48
-40.42
-55.78
-72.42
-88.63
-101.85
-108.51
-104.49
-87.40
-57.44
-17.52
27.43
71.18
107.91
133.61
146.74
147.83
137.23
114.88
81.08
37.51
-12.84
-66.00
-117.74
-164.43
-196.78
-207.02
-194.56
-167.21
-135.81
-108.21
-87.11
-71.40
-58.72
-47.01
-36.06
-27.49
-22.76
-21.90
-23.80
-27.32
-32.04
-38.12
-44.79
-49.89
-50.21
-41.69
-21.46
9.67
46.50
82.24
110.17
127.04
133.74
133.36
129.79
126.18
124.10
123.92
125.73
129.46
131.73
132.39
129.35
120.01
103.23
80.06
53.84
29.86
10.13
-3.77
-11.22
-13.48
-12.49
-9.92
-7.05
-4.92
-4.33
-5.96
-9.64
-14.24
-18.66
-22.04
-23.55
-23.10
-21.81
-21.60
-23.15
-26.50
-30.73
-34.51
-36.76
-36.51
-33.63
-29.48
-26.08
-25.22
-27.39
-31.91
-37.36
-42.41
-45.26
-44.29
-39.16
-30.46
-19.37
-7.19
4.17
15.49
24.41
29.29
31.83
34.94
39.78
42.84
40.66
30.30
11.20
-14.47
-41.86
-61.64
-66.91
-55.09
-28.83
5.57
40.23
68.64
86.94
94.69
93.60
85.20
70.73
51.65
30.40
10.02
-6.39
-16.99
-21.40
-20.82
-18.17
-16.20
-16.04
-16.33
-14.31
-7.31
5.09
20.90
35.93
44.75
43.11
29.58
6.12
-23.07
-53.17
-80.61
-102.64
-117.52
-124.71
-124.40
-117.41
-105.16
-89.96
-74.72
-62.98
-56.45
-55.05
-57.93
-64.04
-72.54
-82.92
-94.67
-106.73
-117.75
-124.07
-121.24
-106.62
-80.49
-46.11
-8.65
26.29
59.74
86.26
101.14
105.53
104.57
103.19
103.49
105.34
107.53
108.79
107.27
102.30
93.78
81.31
65.67
49.20
35.60
28.08
27.36
30.28
32.56
30.85
23.30
11.75
-0.65
-10.90
-17.66
-21.42
-23.90
-25.81
-24.48
-19.79
-11.65
-1.10
9.95
19.40
25.85
29.08
30.12
30.90
32.46
35.19
38.50
41.35
42.71
42.07
39.51
35.10
30.03
24.71
19.35
13.60
7.06
-0.59
-9.16
-16.70
-23.10
-27.73
-30.54
-31.76
-32.08
-32.27
-32.77
-33.53
-33.93
-33.43
-31.44
-28.21
-24.63
-22.02
-21.41
-23.06
-26.14
-28.98
-30.03
-28.24
-24.07
-19.29
-16.27
-16.84
-21.36
-28.32
-34.90
-38.32
-37.21
-32.26
-26.19
-22.20
-22.66
-28.07
-37.16
-47.77
-57.77
-64.58
-65.33
-57.15
-39.18
-13.56
12.83
30.31
30.73
12.29
-18.36
-48.37
-64.61
-60.04
-36.82
-4.54
25.33
45.17
53.87
55.42
54.95
55.22
55.61
53.70
47.62
38.10
28.11
21.43
20.18
23.79
29.40
33.41
33.13
28.07
20.03
11.95
6.61
5.26
7.28
10.66
12.99
12.63
9.29
4.06
-1.29
-5.18
-6.90
-6.79
-5.95
-5.63
-6.68
-9.21
-12.71
-16.35
-19.38
-21.52
-22.93
-24.08
-25.43
-27.33
-29.82
-32.75
-35.86
-38.93
-41.90
-44.77
-47.62
-50.41
-53.08
-55.45
-57.26
-58.21
-57.95
-56.14
-52.47
-46.69
-38.57
-28.13
-15.60
-1.43
13.78
29.30
44.40
58.39
70.01
79.05
85.54
89.60
91.48
91.49
90.01
87.43
84.15
80.94
77.95
75.24
72.82
70.59
68.37
66.05
63.69
61.50
59.96
59.37
59.73
60.61
61.17
60.70
59.16
57.44
56.93
58.62
62.22
65.82
66.33
60.59
46.69
24.81
-2.59
-31.42
-57.10
-76.09
-86.54
-88.93
-85.71
-80.06
-75.03
-72.72
-73.88
-77.83
-82.24
-83.18
-75.87
-56.62
-24.93
14.47
52.35
78.21
84.78
71.42
44.48
14.08
-10.66
-25.24
-30.49
-30.35
-28.57
-26.64
-23.78
-18.70
-11.32
-3.33
2.79
5.10
3.60
0.19
-2.46
-2.09
2.00
8.70
15.76
20.85
22.64
21.34
18.43
15.91
15.33
17.11
20.37
23.30
24.13
21.80
16.33
8.75
0.61
-6.70
-12.54
-17.15
-20.99
-25.32
-30.82
-37.30
-43.83
-49.12
-52.12
-52.50
-50.90
-48.95
-47.94
-48.87
-51.83
-55.97
-59.90
-62.49
-63.18
-62.39
-61.15
-60.63
-61.76
-65.18
-71.26
-79.85
-89.64
-97.70
-99.85
-92.15
-72.90
-44.14
-11.37
18.41
39.55
49.90
51.11
47.03
41.43
36.31
31.74
26.95
21.58
16.23
12.06
9.93
9.75
10.61
11.47
11.54
10.89
10.22
10.29
11.55
13.84
16.50
18.73
20.04
20.37
20.11
19.71
19.39
19.06
18.45
17.42
16.26
15.72
16.71
19.91
25.27
31.97
38.63
44.10
47.84
50.17
52.12
54.84
59.23
65.74
74.38
84.49
93.86
98.45
93.19
74.47
42.63
3.33
-34.00
-60.01
-69.31
-62.58
-45.10
-23.86
-4.60
9.07
14.91
10.61
-6.36
-36.74
-78.26
-124.79
-168.77
-203.94
-227.01
-236.99
-233.81
-217.24
-186.73
-143.41
-90.47
-34.00
19.23
64.76
102.75
137.58
171.15
205.19
238.09
265.96
283.08
285.15
271.51
245.97
214.22
180.21
145.06
101.61
49.50
-3.38
-43.27
-59.26
-50.22
-26.85
-6.51
-3.63
-23.35
-59.33
-100.15
-135.68
-162.04
-179.47
-188.51
-188.08
-175.46
-149.29
-111.07
-67.07
-26.23
1.64
13.11
11.44
3.27
-4.84
-9.81
-10.10
-8.14
-5.83
-3.44
1.43
11.80
29.52
54.62
83.97
112.11
132.13
138.85
126.41
96.16
55.31
14.39
-15.87
-28.86
-24.09
-7.11
13.79
30.92
40.76
43.76
39.11
27.78
11.32
-9.05
-32.88
-58.74
-82.95
-101.55
-110.90
-109.47
-97.76
-77.87
-51.69
-21.01
12.65
46.85
77.72
100.38
110.76
108.11
95.35
78.00
61.91
51.42
48.09
51.01
57.80
65.88
73.36
78.66
80.15
75.87
64.10
44.13
17.31
-12.64
-40.07
-59.21
-66.79
-63.76
-55.24
-48.31
-48.72
-56.52
-67.81
-75.81
-74.17
-60.64
-38.51
-15.54
-0.64
-0.50
-17.35
-48.29
-86.49
-122.52
-146.95
-153.28
-140.44
-113.95
-84.64
-65.13
-65.31
-88.63
-131.21
-182.48
-229.13
-259.16
-265.80
-248.80
-213.28
-166.97
-117.02
-68.07
-21.99
20.98
60.86
96.64
126.16
146.97
157.93
159.98
155.85
148.59
139.76
128.83
113.74
93.11
68.08
42.69
22.62
12.30
12.79
21.37
33.28
44.32
52.63
58.92
65.12
73.15
83.47
95.09
106.36
116.04
123.75
129.55
133.28
134.17
131.68
125.24
114.53
99.83
82.56
65.18
50.23
39.01
30.67
23.40
14.05
-0.72
-22.74
-50.43
-78.54
-99.97
-108.40
-100.34
-73.93
-30.17
27.23
92.22
157.49
215.33
258.43
281.11
270.40
222.41
145.95
60.08
-15.95
-71.42
-105.67
-124.18
-133.86
-140.08
-143.72
-143.69
-139.08
-130.45
-119.82
-109.40
-101.07
-95.89
-94.07
-93.75
-93.02
-91.08
-88.11
-84.01
-77.45
-66.59
-50.85
-32.42
-15.36
-4.61
-3.70
-12.68
-27.42
-41.26
-48.03
-44.79
-32.71
-15.45
2.78
18.78
30.96
39.10
43.59
44.76
42.79
37.98
30.96
23.08
15.90
10.55
7.45
6.20
5.88
5.64
5.12
4.57
4.65
6.04
9.02
13.34
18.24
22.72
25.79
26.89
25.65
22.30
17.45
11.79
6.03
0.59
-4.32
-8.61
-12.25
-15.07
-16.79
-17.10
-15.93
-13.47
-10.27
-7.08
-4.58
-3.18
-2.95
-3.52
-4.41
-5.25
-5.94
-6.66
-7.71
-9.20
-10.94
-12.39
-12.96
-12.30
-10.50
-8.00
-5.38
-3.04
-1.10
0.62
2.34
4.10
5.73
6.92
7.51
7.52
7.23
6.96
6.87
6.95
6.95
6.57
5.69
4.50
3.46
3.21
4.36
7.35
12.34
19.01
26.64
34.28
40.98
46.01
49.04
50.11
49.21
46.73
43.24
39.30
35.34
31.67
28.44
25.69
23.36
21.28
19.34
17.44
15.57
13.74
11.98
10.27
8.55
6.73
4.72
2.46
-0.18
-3.31
-7.10
-11.47
-16.11
-20.43
-23.83
-25.98
-26.92
-27.04
-26.76
-26.14
-24.87
-22.37
-18.25
-12.61
-6.18
0.03
5.06
8.43
10.18
10.76
10.72
10.41
9.92
9.05
7.59
5.39
2.56
-0.53
-3.35
-5.43
-6.52
-6.71
-6.41
-6.18
-6.47
-7.45
-9.00
-10.82
-12.62
-14.29
-15.93
-17.78
-20.04
-22.87
-26.22
-29.93
-33.74
-37.30
-40.09
-41.36
-40.27
-36.09
-28.64
-18.49
-6.95
4.19
13.30
19.33
22.09
22.07
20.08
16.83
12.77
8.14
3.27
-1.35
-5.04
-7.11
-7.06
-4.68
-0.16
6.00
13.06
20.25
26.91
32.58
37.06
40.33
42.49
43.49
43.38
42.41
40.92
39.18
37.15
34.58
31.06
26.27
20.09
13.06
6.29
1.22
-0.95
0.26
4.47
10.60
17.23
22.75
26.16
27.19
25.81
21.74
14.51
4.06
-8.77
-22.10
-34.66
-44.82
-50.90
-51.99
-48.50
-41.81
-33.71
-26.13
-21.32
-23.82
-36.44
-58.58
-86.89
-117.17
-145.60
-169.28
-186.74
-198.01
-207.84
-219.31
-231.93
-243.08
-250.95
-255.15
-256.07
-254.22
-250.07
-248.60
-251.92
-257.66
-261.24
-259.57
-251.74
-237.84
-218.19
-164.75
-72.98
35.69
131.81
199.97
240.43
260.45
267.96
268.96
266.82
258.30
241.86
220.34
199.15
182.41
171.58
166.21
164.66
164.82
161.10
150.80
135.59
119.70
106.56
97.64
92.95
91.76
92.96
93.16
89.98
82.81
71.87
57.06
38.47
17.55
-2.63
-18.95
-30.08
-36.01
-37.87
-37.57
-37.23
-38.09
-39.84
-40.92
-39.58
-35.12
-27.90
-19.03
-10.10
-2.89
1.15
1.35
-2.19
-8.63
-16.62
-24.64
-31.33
-35.77
-37.53
-36.66
-33.65
-29.31
-24.17
-17.74
-8.26
6.78
29.54
60.99
100.56
143.92
184.39
215.16
231.73
233.32
222.34
202.63
177.75
150.12
120.92
89.61
55.13
16.88
-24.67
-68.45
-113.37
-158.31
-201.67
-234.71
-248.62
-240.18
-214.44
-180.69
-146.88
-117.14
-92.46
-72.05
-54.85
-41.18
-31.98
-27.88
-28.41
-32.08
-37.01
-41.47
-44.02
-44.00
-42.58
-41.48
-42.33
-46.18
-54.08
-66.76
-84.77
-106.57
-128.75
-146.83
-155.32
-150.54
-132.45
-105.45
-77.04
-54.48
-40.24
-33.26
-30.30
-26.77
-19.51
-7.91
6.37
21.16
35.94
54.93
83.05
117.62
157.04
199.70
244.09
289.09
333.96
378.06
421.84
460.66
486.17
491.83
476.79
446.77
411.62
381.35
341.17
286.89
221.09
150.26
80.83
16.84
-40.53
-90.62
-140.11
-191.79
-241.24
-283.78
-317.15
-342.29
-355.83
-349.73
-323.23
-282.47
-236.64
-191.50
-150.60
-115.27
-85.18
-58.96
-35.92
-17.06
-3.42
4.73
9.57
12.86
15.70
18.73
22.55
26.67
30.01
31.81
31.33
29.18
26.11
22.86
20.06
18.51
18.76
20.26
22.51
23.64
21.85
15.28
2.36
-18.37
-48.57
-85.11
-126.24
-160.78
-180.68
-184.34
-176.68
-164.44
-152.46
-143.01
-136.71
-133.75
-132.76
-131.84
-127.20
-114.08
-89.12
-52.89
-10.53
30.35
62.56
82.90
91.52
91.63
87.25
81.31
74.85
67.72
60.21
53.39
49.06
47.82
48.82
50.15
49.78
46.29
39.67
31.47
23.93
19.25
18.13
19.72
22.01
22.73
20.34
14.70
7.29
0.44
-3.53
-3.57
-0.17
4.88
9.47
12.25
13.09
13.23
14.58
18.75
26.52
37.75
51.44
65.93
78.45
85.18
81.95
65.92
37.49
1.30
-34.62
-61.80
-74.62
-72.34
-58.76
-39.89
-20.96
-4.70
8.44
18.93
26.48
29.81
27.61
19.83
8.26
-3.96
-13.51
-17.95
-16.27
-8.94
2.80
17.48
33.99
51.66
70.25
89.54
108.69
125.88
138.09
142.16
136.14
120.42
97.72
72.12
47.32
24.21
3.22
-16.76
-37.41
-59.77
-83.51
-106.89
-127.45
-143.00
-152.28
-155.19
-152.87
-146.98
-139.08
-130.36
-121.77
-114.16
-108.32
-104.68
-102.75
-101.43
-99.18
-94.70
-87.47
-77.85
-66.67
-54.82
-42.95
-31.47
-20.87
-11.50
-3.28
4.51
13.02
23.25
35.38
48.49
61.05
71.50
78.89
83.18
84.92
84.89
83.84
82.40
81.16
80.61
80.94
81.79
82.30
81.36
77.94
71.54
62.28
50.83
38.14
25.22
12.86
1.58
-8.41
-17.16
-24.84
-31.62
-37.63
-42.94
-47.55
-51.43
-54.37
-55.97
-55.64
-52.73
-46.86
-38.22
-27.71
-16.74
-6.92
0.53
5.11
7.12
7.50
7.46
8.07
10.05
13.51
18.03
22.78
26.78
29.19
29.58
28.04
25.03
21.19
17.05
12.92
8.87
5.02
1.58
-1.04
-2.38
-2.15
-0.41
2.39
5.49
8.05
9.34
8.92
6.74
3.09
-1.43
-6.13
-10.39
-13.85
-16.56
-18.94
-21.58
-24.92
-28.88
-32.74
-35.21
-34.92
-30.99
-23.38
-13.01
-1.42
9.82
19.50
26.85
31.48
33.17
31.93
28.19
22.99
17.91
14.62
14.31
17.24
22.77
29.71
36.83
43.22
48.34
51.75
52.94
51.34
46.63
39.10
29.79
20.31
12.28
6.71
3.59
1.85
-0.12
-3.77
-9.75
-17.58
-25.80
-32.60
-36.44
-36.64
-33.50
-28.14
-22.00
-16.28
-11.59
-7.78
-4.24
-0.27
4.32
9.15
13.35
16.03
16.77
15.76
13.60
10.88
7.84
4.38
0.37
-4.01
-8.11
-11.07
-12.25
-11.56
-9.55
-7.15
-5.26
-4.43
-4.64
-5.42
-6.02
-5.79
-4.51
-2.55
-0.72
0.14
-0.34
-1.74
-3.01
-2.98
-1.02
2.58
6.73
10.06
11.55
10.91
8.59
5.52
2.73
1.04
0.78
1.73
3.11
3.83
2.82
-0.45
-5.74
-11.95
-17.51
-20.89
-21.13
-18.20
-12.95
-6.84
-1.45
2.02
3.10
2.23
0.54
-0.59
-0.11
2.31
6.14
10.11
12.60
12.16
7.88
-0.21
-11.05
-22.69
-32.84
-39.49
-41.68
-39.67
-34.80
-28.83
-23.31
-19.13
-16.49
-15.08
-14.28
-13.28
-11.16
-7.09
-0.53
8.39
18.75
29.09
37.81
43.77
46.55
46.50
44.32
40.69
35.97
30.17
23.25
15.33
6.98
-0.90
-7.31
-11.55
-13.47
-13.53
-12.52
-11.20
-10.00
-8.79
-7.11
-4.43
-0.58
3.96
8.15
10.62
10.27
6.66
0.23
-7.85
-16.01
-22.71
-26.70
-27.19
-23.98
-17.50
-8.90
0.26
8.33
14.06
17.02
17.47
16.16
13.90
11.31
8.81
6.71
5.37
5.21
6.55
9.51
13.98
19.54
25.48
30.82
34.53
35.84
34.64
31.58
27.80
24.39
21.75
19.40
16.32
11.63
5.15
-2.46
-10.10
-16.85
-22.32
-26.67
-30.15
-32.75
-34.09
-33.77
-31.74
-28.49
-24.98
-22.02
-19.88
-18.03
-15.49
-11.40
-5.47
1.74
9.06
15.22
19.26
20.75
19.73
16.60
11.85
6.06
-0.17
-6.27
-11.87
-16.95
-21.76
-26.68
-31.85
-36.97
-41.33
-44.13
-44.79
-43.20
-39.59
-34.32
-27.69
-19.94
-11.38
-2.62
5.47
12.01
16.47
18.96
20.14
20.94
22.11
23.88
25.86
27.31
27.37
25.39
21.09
14.61
6.43
-2.72
-11.99
-20.57
-27.75
-33.00
-35.98
-36.55
-34.81
-31.04
-25.75
-19.55
-13.09
-6.85
-1.17
3.77
7.90
11.13
13.42
14.89
15.93
17.16
19.27
22.69
27.24
32.20
36.46
39.03
39.45
38.06
35.77
33.58
32.04
30.96
29.53
26.84
22.40
16.47
9.87
3.57
-1.83
-6.36
-10.55
-15.11
-20.54
-26.96
-34.04
-41.11
-47.33
-51.81
-53.72
-52.47
-47.86
-40.16
-30.07
-18.53
-6.56
4.90
15.03
23.18
28.87
31.82
32.04
29.78
25.58
20.10
14.20
8.74
4.59
2.41
2.49
4.64
8.10
11.79
14.59
15.73
15.00
12.74
9.67
6.54
3.94
2.12
1.03
0.49
0.20
-0.07
-0.55
-1.41
-2.75
-4.50
-6.51
-8.51
-10.29
-11.77
-13.05
-14.29
-15.50
-16.42
-16.62
-15.63
-13.30
-9.89
-6.01
-2.23
1.17
4.33
7.58
11.12
14.75
17.89
19.90
20.42
19.63
18.04
16.16
14.20
11.96
9.08
5.37
1.05
-3.29
-6.97
-9.58
-11.10
-11.80
-11.94
-11.57
-10.47
-8.48
-5.70
-2.68
-0.16
1.27
1.36
0.30
-1.60
-4.10
-7.11
-10.51
-13.86
-16.36
-17.03
-15.18
-10.72
-4.25
3.28
10.81
17.56
22.96
26.48
27.58
25.79
20.91
13.35
4.21
-4.93
-12.30
-16.49
-16.80
-13.37
-7.13
0.56
8.31
15.06
20.31
24.03
26.45
27.75
27.93
26.87
24.48
20.98
16.86
12.74
9.07
5.86
2.66
-1.17
-6.19
-12.53
-19.85
-27.39
-34.21
-39.36
-42.13
-42.17
-39.55
-34.83
-28.80
-22.31
-15.96
-10.02
-4.48
0.65
5.16
8.63
10.52
10.57
8.95
6.34
3.60
1.51
0.45
0.39
1.00
1.90
2.86
3.89
5.13
6.69
8.53
10.39
11.96
12.94
13.10
12.26
10.08
6.05
-0.32
-9.12
-19.74
-30.78
-40.47
-47.15
-49.91
-48.69
-44.06
-36.78
-27.47
-16.59
-4.64
7.64
19.29
29.45
37.58
43.65
47.88
50.41
51.07
49.44
45.25
38.62
30.22
20.92
11.48
2.25
-6.76
-15.48
-23.44
-29.70
-33.09
-32.77
-28.72
-21.81
-13.57
-5.65
0.74
5.01
7.22
7.78
7.22
6.12
5.05
4.61
5.29
7.34
10.52
14.02
16.67
17.29
15.18
10.38
3.78
-3.16
-8.94
-12.45
-13.30
-11.83
-8.94
-5.66
-2.96
-1.46
-1.40
-2.63
-4.66
-6.71
-7.87
-7.39
-4.92
-0.71
4.36
9.02
11.93
12.00
8.76
2.41
-6.16
-15.58
-24.27
-30.81
-34.25
-34.26
-31.07
-25.25
-17.41
-8.11
2.10
12.50
22.12
29.82
34.65
36.22
34.88
31.52
27.16
22.60
18.14
13.79
9.51
5.51
2.19
0.00
-0.83
-0.45
0.74
2.30
3.93
5.55
7.18
8.82
10.45
11.97
13.20
13.89
13.67
12.04
8.53
2.85
-4.91
-14.13
-23.72
-32.31
-38.51
-41.21
-39.80
-34.34
-25.63
-15.10
-4.58
4.22
10.02
12.39
11.71
9.02
5.54
2.32
-0.06
-1.57
-2.57
-3.53
-4.84
-6.66
-8.84
-11.06
-12.81
-13.57
-12.88
-10.54
-6.69
-1.84
3.17
7.51
10.53
11.97
11.98
10.93
9.31
7.53
5.92
4.61
3.58
2.61
1.39
-0.29
-2.35
-4.29
-5.37
-4.87
-2.55
1.20
5.44
9.15
11.64
12.80
12.93
12.48
11.67
10.42
8.54
6.02
3.25
0.94
-0.20
0.20
1.96
4.48
6.99
8.92
10.10
10.67
10.84
10.68
10.12
8.95
7.10
4.64
1.76
-1.36
-4.68
-8.21
-11.92
-15.58
-18.81
-21.25
-22.71
-23.26
-23.12
-22.38
-20.88
-18.22
-13.98
-8.11
-1.04
6.29
12.77
17.52
20.18
20.97
20.52
19.52
18.40
17.27
15.98
14.35
12.31
9.95
7.40
4.79
2.12
-0.57
-3.24
-5.76
-8.04
-10.06
-11.87
-13.55
-15.01
-16.04
-16.39
-15.80
-14.21
-11.65
-8.29
-4.34
-0.11
3.92
7.14
8.91
8.84
7.00
3.91
0.45
-2.54
-4.53
-5.46
-5.59
-5.36
-5.06
-4.77
-4.40
-3.80
-2.87
-1.60
-0.01
1.85
3.87
5.85
7.45
8.33
8.31
7.50
6.30
5.19
4.51
4.25
4.10
3.72
2.93
1.80
0.61
-0.42
-1.22
-1.87
-2.47
-2.95
-3.07
-2.60
-1.58
-0.35
0.48
0.32
-1.09
-3.52
-6.32
-8.66
-9.78
-9.20
-6.81
-2.86
2.11
7.29
11.83
15.01
16.48
16.46
15.63
14.84
14.74
15.45
16.58
17.48
17.66
17.03
15.98
15.08
14.71
14.83
14.95
14.33
12.29
8.47
2.92
-3.97
-11.52
-19.00
-25.71
-31.10
-34.84
-36.90
-37.51
-37.09
-36.25
-35.61
-35.75
-37.03
-39.42
-42.36
-44.78
-45.29
-42.70
-36.48
-27.10
-15.97
-5.04
3.85
9.51
11.76
11.30
9.39
7.40
6.45
7.10
9.39
12.82
16.63
19.92
21.92
22.13
20.51
17.51
14.01
11.18
10.15
11.60
15.59
21.43
27.80
33.21
36.31
36.32
33.19
27.58
20.58
13.43
7.13
2.21
-1.35
-4.09
-6.80
-10.13
-14.36
-19.16
-23.60
-26.46
-26.59
-23.35
-16.95
-8.43
0.56
8.31
13.66
16.29
16.71
15.89
14.79
13.91
13.25
12.52
11.52
10.43
9.76
10.08
11.57
13.84
16.04
17.23
16.86
14.98
12.14
9.02
6.07
3.36
0.69
-2.14
-5.13
-8.09
-10.71
-12.81
-14.37
-15.48
-16.30
-16.96
-17.50
-17.90
-18.05
-17.68
-16.40
-13.75
-9.44
-3.61
3.08
9.57
14.71
17.69
18.29
16.83
13.93
10.21
6.14
2.08
-1.56
-4.20
-5.23
-4.25
-1.31
2.97
7.64
11.74
14.61
16.08
16.33
15.76
14.74
13.49
12.12
10.59
8.79
6.52
3.55
-0.24
-4.73
-9.49
-13.86
-17.21
-19.18
-19.93
-19.99
-20.07
-20.69
-22.02
-23.87
-25.84
-27.53
-28.57
-28.61
-27.33
-24.48
-20.10
-14.55
-8.54
-2.83
2.00
5.82
8.78
11.12
12.87
13.88
13.97
13.23
12.02
10.81
9.83
8.86
7.25
4.27
-0.40
-6.36
-12.38
-16.74
-17.76
-14.44
-6.78
4.12
16.45
28.12
37.30
42.72
43.71
40.19
32.45
21.12
7.19
-8.06
-23.21
-36.95
-48.32
-56.89
-62.63
-65.80
-66.64
-65.27
-61.60
-55.46
-46.75
-35.65
-22.83
-9.35
3.46
14.44
22.97
29.10
33.46
36.97
40.36
43.92
47.45
50.42
52.24
52.48
51.00
47.96
43.77
39.07
34.60
31.07
28.98
28.48
29.30
30.86
32.48
33.52
33.49
31.99
28.71
23.33
15.65
5.70
-6.06
-18.76
-31.25
-42.37
-51.18
-57.07
-59.84
-59.62
-56.81
-52.04
-46.11
-39.82
-33.80
-28.35
-23.48
-18.98
-14.73
-10.81
-7.41
-4.71
-2.57
-0.52
2.02
5.48
9.77
14.32
18.31
21.11
22.56
23.01
23.11
23.36
23.93
24.48
24.40
23.04
20.08
15.55
9.88
3.65
-2.49
-7.95
-12.22
-14.92
-15.84
-15.03
-12.92
-10.19
-7.71
-6.23
-6.15
-7.33
-9.10
-10.52
-10.71
-9.28
-6.46
-3.07
-0.25
1.05
0.34
-2.20
-5.78
-9.37
-11.92
-12.68
-11.28
-7.84
-2.82
2.92
8.35
12.34
13.98
12.85
9.18
3.87
-1.85
-6.75
-10.15
-12.00
-12.81
-13.20
-13.57
-13.89
-13.86
-13.22
-12.01
-10.56
-9.27
-8.38
-7.83
-7.41
-7.08
-7.03
-7.64
-9.10
-11.15
-13.04
-13.91
-13.21
-11.02
-8.00
-5.00
-2.60
-0.95
0.13
0.89
1.41
1.62
1.54
1.38
1.60
2.57
4.42
6.88
9.48
11.79
13.61
14.97
15.97
16.55
16.66
16.21
15.27
14.04
12.74
11.46
10.03
8.14
5.54
2.39
-0.77
-3.32
-4.89
-5.70
-6.51
-8.24
-11.45
-15.98
-20.59
-23.55
-23.36
-19.46
-12.59
-4.56
2.34
6.13
5.88
2.56
-1.62
-4.28
-4.17
-1.74
1.23
2.59
0.78
-4.62
-12.03
-19.64
-26.59
-33.43
-41.07
-49.24
-56.20
-60.10
-61.02
-60.07
-59.97
-63.30
-70.87
-80.47
-87.13
-85.58
-72.86
-49.61
-16.84
24.37
73.42
129.58
191.33
256.22
320.89
381.53
420.43
423.52
387.77
326.22
260.69
208.25
173.26
148.55
122.38
85.49
37.76
-13.82
-59.33
-91.69
-109.12
-114.57
-113.61
-112.28
-115.42
-123.35
-132.50
-137.60
-134.62
-123.11
-106.61
-91.25
-83.06
-85.18
-95.20
-106.66
-112.95
-110.64
-101.15
-88.98
-78.78
-72.90
-70.97
-71.17
-71.23
-71.30
-73.34
-79.07
-87.62
-94.94
-94.91
-81.88
-55.87
-21.61
12.71
39.22
53.59
56.46
52.31
46.91
44.47
46.16
51.15
56.71
60.33
60.26
55.72
46.89
34.83
21.32
8.29
-2.03
-7.93
-8.56
-4.47
2.33
8.79
11.83
9.57
2.16
-7.94
-17.13
-22.13
-21.44
-15.82
-7.67
0.06
5.02
6.19
3.90
-0.76
-6.39
-11.62
-15.26
-16.27
-14.07
-8.75
-1.24
6.99
14.32
19.53
22.14
22.26
20.48
17.51
13.83
9.50
4.39
-1.52
-7.85
-13.73
-18.05
-19.84
-18.61
-14.61
-8.71
-2.11
4.10
9.22
13.15
16.15
18.60
20.70
22.35
23.27
23.26
22.42
21.19
20.23
20.17
21.38
23.87
27.41
31.55
35.85
39.90
43.40
46.27
48.61
50.72
52.85
55.00
56.75
57.40
56.22
52.75
46.92
38.85
28.66
16.46
2.52
-12.39
-26.90
-39.39
-48.70
-54.75
-58.59
-61.74
-65.24
-68.99
-71.89
-72.58
-70.40
-65.90
-60.47
-55.61
-52.07
-49.66
-47.69
-45.56
-43.24
-41.11
-39.61
-38.77
-38.20
-37.29
-35.62
-33.10
-29.90
-26.35
-22.71
-19.20
-16.03
-13.35
-11.20
-9.42
-7.72
-5.89
-3.95
-2.17
-0.90
-0.22
0.12
0.58
1.47
2.71
3.87
4.44
4.21
3.30
1.99
0.41
-1.62
-4.40
-7.93
-11.74
-14.96
-16.83
-17.18
-16.56
-15.96
-16.19
-17.44
-19.25
-20.88
-21.76
-21.73
-20.93
-19.40
-16.97
-13.31
-8.31
-2.36
3.72
8.96
12.75
15.04
16.23
16.82
17.13
17.22
17.08
16.85
16.82
17.28
18.31
19.70
21.06
22.17
23.09
24.13
25.48
26.98
28.03
27.95
26.39
23.57
20.20
16.99
14.24
11.68
8.76
5.06
0.65
-4.02
-8.36
-12.05
-15.12
-17.73
-19.88
-21.25
-21.36
-19.85
-16.86
-12.91
-8.73
-4.88
-1.55
1.29
3.71
5.67
7.04
7.72
7.85
7.72
7.64
7.72
7.77
7.44
6.52
5.13
3.65
2.51
1.92
1.75
1.65
1.31
0.66
-0.09
-0.63
-0.80
-0.72
-0.69
-0.99
-1.73
-2.83
-4.07
-5.30
-6.46
-7.55
-8.55
-9.36
-9.86
-10.03
-10.05
-10.16
-10.62
-11.46
-12.39
-12.94
-12.61
-11.13
-8.54
-5.16
-1.35
2.59
6.51
10.32
13.84
16.77
18.74
19.51
19.09
17.79
16.06
14.27
12.63
11.10
9.60
8.06
6.52
5.02
3.54
2.03
0.52
-0.82
-1.76
-2.13
-2.09
-2.18
-3.09
-5.34
-8.92
-13.32
-17.68
-21.23
-23.59
-24.71
-24.82
-24.14
-22.85
-21.14
-19.29
-17.64
-16.41
-15.55
-14.76
-13.78
-12.62
-11.62
-11.28
-11.81
-12.90
-13.75
-13.48
-11.61
-8.32
-4.30
-0.31
3.22
6.29
9.16
11.98
14.64
16.77
18.09
18.55
18.39
17.87
17.14
16.09
14.58
12.63
10.52
8.66
7.36
6.60
6.13
5.67
5.08
4.51
4.20
4.25
4.61
5.04
5.44
5.93
6.81
8.33
10.44
12.70
14.48
15.27
14.90
13.59
11.73
9.68
7.59
5.49
3.39
1.41
-0.21
-1.28
-1.70
-1.53
-0.88
0.22
1.83
3.99
6.61
9.42
11.99
14.00
15.30
15.98
16.25
16.26
16.05
15.55
14.75
13.75
12.76
11.93
11.28
10.66
9.91
8.98
8.01
7.24
6.78
6.56
6.25
5.55
4.33
2.71
1.01
-0.54
-1.96
-3.48
-5.35
-7.63
-10.09
-12.36
-14.14
-15.42
-16.41
-17.35
-18.33
-19.20
-19.75
-19.92
-19.87
-19.92
-20.32
-21.02
-21.68
-21.83
-21.12
-19.46
-16.99
-13.93
-10.40
-6.49
-2.29
1.94
5.77
8.79
10.80
11.91
12.49
12.97
13.58
14.27
14.79
14.94
14.73
14.37
14.11
14.01
13.95
13.71
13.18
12.48
11.79
11.17
10.39
9.06
6.89
4.02
0.97
-1.57
-3.12
-3.69
-3.70
-3.69
-3.98
-4.59
-5.33
-6.01
-6.59
-7.22
-8.01
-8.98
-10.01
-10.96
-11.77
-12.50
-13.19
-13.76
-13.93
-13.30
-11.55
-8.59
-4.64
-0.16
4.34
8.44
11.85
14.46
16.24
17.20
17.39
16.94
16.01
14.81
13.52
12.26
11.07
9.99
9.06
8.31
7.74
7.26
6.76
6.15
5.45
4.77
4.17
3.64
3.05
2.24
1.13
-0.16
-1.45
-2.57
-3.48
-4.30
-5.18
-6.16
-7.10
-7.79
-8.11
-8.08
-7.95
-8.03
-8.53
-9.50
-10.82
-12.22
-13.36
-13.84
-13.31
-11.51
-8.42
-4.35
0.11
4.24
7.45
9.48
10.45
10.72
10.70
10.62
10.47
10.13
9.49
8.59
7.60
6.70
6.02
5.60
5.42
5.49
5.86
6.55
7.46
8.33
8.88
8.96
8.63
8.14
7.81
7.76
7.88
7.93
7.66
7.05
6.22
5.36
4.51
3.58
2.38
0.81
-1.04
-2.93
-4.63
-6.08
-7.45
-9.02
-10.95
-13.18
-15.42
-17.24
-18.28
-18.38
-17.60
-16.07
-13.97
-11.46
-8.75
-6.09
-3.75
-1.96
-0.77
-0.09
0.28
0.52
0.72
0.84
0.85
0.83
0.91
1.34
2.24
3.60
5.26
7.03
8.71
10.17
11.32
12.02
12.18
11.75
10.83
9.64
8.35
7.09
5.81
4.46
3.07
1.77
0.77
0.18
-0.12
-0.45
-1.11
-2.24
-3.71
-5.22
-6.49
-7.46
-8.24
-9.02
-9.91
-10.87
-11.79
-12.61
-13.32
-13.93
-14.29
-14.07
-12.89
-10.50
-6.97
-2.78
1.43
5.02
7.61
9.15
9.83
9.93
9.64
9.05
8.13
6.87
5.34
3.68
2.09
0.78
-0.09
-0.46
-0.39
-0.06
0.32
0.58
0.66
0.62
0.62
0.82
1.31
2.06
2.94
3.78
4.42
4.77
4.86
4.67
4.20
3.38
2.19
0.70
-0.89
-2.31
-3.42
-4.22
-4.97
-5.94
-7.32
-8.99
-10.58
-11.57
-11.51
-10.19
-7.64
-4.15
-0.10
4.03
7.77
10.67
12.42
12.94
12.43
11.30
10.02
8.94
8.19
7.72
7.36
6.98
6.56
6.11
5.66
5.18
4.60
3.89
3.11
2.34
1.69
1.14
0.53
-0.33
-1.55
-3.02
-4.48
-5.64
-6.42
-6.95
-7.52
-8.34
-9.44
-10.59
-11.52
-12.09
-12.41
-12.71
-13.21
-13.95
-14.77
-15.46
-15.91
-16.09
-16.03
-15.61
-14.59
-12.69
-9.85
-6.31
-2.57
0.84
3.58
5.58
7.03
8.12
8.91
9.30
9.15
8.45
7.35
6.12
4.99
4.04
3.25
2.56
1.98
1.63
1.63
1.95
2.43
2.76
2.76
2.44
2.01
1.71
1.65
1.72
1.65
1.27
0.56
-0.27
-1.01
-1.55
-1.92
-2.25
-2.62
-2.97
-3.23
-3.41
-3.68
-4.31
-5.45
-6.97
-8.42
-9.19
-8.80
-7.11
-4.39
-1.13
2.20
5.28
7.99
10.32
12.25
13.70
14.61
15.02
15.08
14.99
14.88
14.73
14.41
13.80
12.90
11.84
10.82
9.95
9.22
8.50
7.72
6.91
6.22
5.74
5.44
5.09
4.41
3.24
1.66
-0.04
-1.53
-2.66
-3.52
-4.34
-5.42
-6.87
-8.66
-10.59
-12.53
-14.42
-16.26
-17.95
-19.22
-19.70
-19.08
-17.23
-14.37
-10.92
-7.36
-4.03
-1.09
1.42
3.45
4.89
5.68
5.79
5.40
4.77
4.15
3.60
3.07
2.43
1.64
0.83
0.24
0.05
0.28
0.74
1.15
1.32
1.19
0.88
0.49
0.01
-0.68
-1.69
-3.03
-4.50
-5.85
-6.88
-7.59
-8.14
-8.67
-9.21
-9.65
-9.82
-9.67
-9.30
-8.95
-8.87
-9.15
-9.75
-10.49
-11.14
-11.50
-11.32
-10.39
-8.51
-5.66
-2.04
1.93
5.72
8.85
11.10
12.48
13.13
13.23
12.83
11.91
10.48
8.69
6.82
5.24
4.23
3.83
3.92
4.27
4.69
5.15
5.69
6.33
6.98
7.44
7.52
7.14
6.43
5.57
4.70
3.83
2.88
1.75
0.49
-0.76
-1.83
-2.65
-3.25
-3.77
-4.30
-4.88
-5.43
-5.90
-6.35
-6.89
-7.65
-8.67
-9.84
-11.01
-12.02
-12.76
-13.15
-13.10
-12.49
-11.30
-9.60
-7.67
-5.85
-4.50
-3.80
-3.77
-4.17
-4.70
-5.05
-4.94
-4.27
-3.03
-1.42
0.29
1.77
2.74
3.08
2.85
2.30
1.72
1.37
1.41
1.78
2.33
2.87
3.28
3.60
3.94
4.48
5.29
6.32
7.41
8.35
8.95
9.11
8.79
8.00
6.74
4.95
2.61
-0.25
-3.44
-6.62
-9.30
-11.10
-11.86
-11.78
-11.39
-11.22
-11.56
-12.18
-12.43
-11.55
-9.09
-5.19
-0.56
3.85
7.23
9.34
10.42
11.06
11.78
12.78
13.93
14.86
15.22
14.81
13.71
12.19
10.65
9.49
9.03
9.31
10.09
10.82
10.84
9.61
6.88
2.84
-1.94
-6.66
-10.38
-12.15
-11.22
-7.20
-0.20
9.10
19.61
29.97
38.82
44.99
47.54
45.87
39.74
29.50
16.24
1.75
-11.83
-22.54
-29.25
-32.05
-32.11
-31.15
-30.71
-31.52
-33.22
-34.56
-33.90
-30.03
-22.94
-14.33
-7.51
-6.35
-13.83
-30.43
-53.48
-77.68
-96.88
-106.41
-104.76
-93.99
-78.60
-63.57
-52.45
-46.34
-44.10
-43.56
-42.80
-40.99
-38.41
-35.75
-33.28
-30.30
-25.50
-17.74
-7.05
4.97
15.68
22.57
24.52
22.32
18.27
15.00
14.21
16.05
19.36
22.71
25.18
26.93
28.95
32.38
37.86
45.25
53.78
62.47
70.38
76.74
80.91
82.49
81.61
79.08
76.38
75.12
76.32
79.74
83.76
85.96
84.08
77.09
65.67
52.04
38.99
28.76
22.22
18.74
16.85
15.15
13.05
10.94
9.82
10.59
13.46
17.93
23.08
28.04
32.28
35.56
37.66
38.21
36.74
32.87
26.63
18.65
9.99
1.91
-4.57
-8.99
-11.55
-13.01
-14.37
-16.56
-20.18
-25.34
-31.73
-38.65
-45.19
-50.31
-53.14
-53.13
-50.31
-45.30
-39.12
-32.92
-27.52
-23.31
-20.12
-17.50
-14.95
-12.10
-8.81
-5.16
-1.38
2.24
5.45
8.07
9.97
11.04
11.11
9.89
7.02
2.18
-4.76
-13.59
-23.71
-34.19
-44.08
-52.65
-59.73
-65.76
-71.63
-78.20
-85.92
-94.50
-103.10
-110.72
-116.66
-120.77
-123.33
-124.86
-125.81
-126.70
-128.20
-130.99
-135.19
-139.57
-141.33
-136.73
-122.74
-98.89
-68.12
-35.82
-7.36
14.64
31.75
48.91
71.79
103.82
144.38
189.19
232.21
267.97
292.98
305.95
306.97
297.00
277.91
253.03
227.31
206.29
194.16
191.60
195.01
197.61
192.21
174.40
144.53
107.56
70.70
40.42
20.07
9.43
5.84
6.24
8.53
12.05
16.82
22.57
28.11
31.55
31.19
26.39
18.01
7.93
-1.90
-10.55
-18.53
-27.47
-39.21
-54.67
-73.02
-91.82
-107.77
-117.99
-121.16
-117.85
-110.19
-100.87
-92.12
-85.03
-79.51
-74.78
-70.02
-64.91
-59.92
-56.08
-54.64
-56.51
-61.85
-69.97
-79.36
-88.18
-94.64
-97.47
-96.21
-91.20
-83.49
-74.46
-65.47
-57.48
-50.86
-45.38
-40.48
-35.54
-30.14
-24.16
-17.77
-11.21
-4.75
1.34
6.85
11.50
15.09
17.55
19.04
19.96
20.85
22.13
23.91
25.88
27.43
27.91
27.01
24.80
21.78
18.61
15.82
13.63
12.00
10.65
9.23
7.48
5.24
2.58
-0.26
-2.89
-5.05
-6.66
-7.97
-9.39
-11.30
-13.76
-16.56
-19.24
-21.34
-22.50
-22.48
-21.16
-18.53
-14.80
-10.50
-6.40
-3.19
-1.25
-0.42
-0.15
0.17
0.85
1.79
2.65
3.14
3.22
3.02
2.74
2.35
1.67
0.44
-1.46
-3.91
-6.64
-9.33
-11.77
-13.83
-15.39
-16.32
-16.54
-16.05
-15.05
-13.84
-12.68
-11.75
-11.05
-10.56
-10.28
-10.29
-10.69
-11.41
-12.24
-12.78
-12.70
-11.85
-10.27
-8.16
-5.69
-2.93
0.19
3.75
7.74
11.94
15.92
19.18
21.35
22.25
22.00
20.89
19.28
17.45
15.56
13.67
11.78
9.91
8.09
6.35
4.75
3.35
2.23
1.41
0.82
0.29
-0.43
-1.47
-2.87
-4.47
-6.11
-7.73
-9.34
-11.02
-12.70
-14.15
-15.06
-15.21
-14.67
-13.79
-12.99
-12.48
-12.05
-11.19
-9.32
-6.12
-1.75
3.21
8.01
11.97
14.78
16.41
17.10
17.12
16.65
15.78
14.55
13.03
11.35
9.68
8.17
6.89
5.86
5.02
4.31
3.64
2.92
2.14
1.36
0.68
0.16
-0.27
-0.85
-1.88
-3.55
-5.73
-8.02
-9.90
-10.98
-11.28
-11.11
-10.95
-11.12
-11.64
-12.33
-12.95
-13.44
-13.82
-14.15
-14.30
-13.98
-12.86
-10.76
-7.85
-4.56
-1.40
1.25
3.31
4.91
6.21
7.29
8.04
8.30
7.98
7.19
6.18
5.20
4.45
3.91
3.51
3.26
3.22
3.55
4.30
5.34
6.42
7.32
7.97
8.49
9.05
9.64
10.02
9.81
8.70
6.71
4.17
1.58
-0.73
-2.69
-4.51
-6.41
-8.44
-10.48
-12.33
-13.91
-15.35
-16.74
-18.01
-18.72
-18.26
-16.08
-12.13
-6.93
-1.39
3.52
7.20
9.57
10.94
11.72
12.20
12.43
12.34
11.85
11.00
9.92
8.77
7.64
6.57
5.56
4.67
3.99
3.57
3.37
3.29
3.24
3.16
3.03
2.84
2.50
1.82
0.67
-0.94
-2.74
-4.30
-5.26
-5.52
-5.35
-5.23
-5.68
-6.91
-8.75
-10.66
-11.95
-12.03
-10.59
-7.69
-3.72
0.80
5.32
9.42
12.77
15.24
16.80
17.51
17.54
17.07
16.30
15.37
14.36
13.31
12.27
11.33
10.56
10.05
9.78
9.68
9.59
9.42
9.13
8.72
8.23
7.64
6.92
6.01
4.90
3.69
2.50
1.42
0.47
-0.50
-1.70
-3.32
-5.49
-8.16
-11.18
-14.31
-17.21
-19.51
-20.73
-20.46
-18.46
-14.87
-10.21
-5.23
-0.74
2.76
5.14
6.58
7.41
7.84
7.91
7.53
6.63
5.30
3.76
2.30
1.17
0.49
0.29
0.51
1.02
1.64
2.10
2.20
1.88
1.25
0.55
0.02
-0.30
-0.56
-1.03
-1.88
-3.04
-4.24
-5.18
-5.73
-5.99
-6.25
-6.78
-7.67
-8.81
-10.01
-11.17
-12.27
-13.33
-14.21
-14.53
-13.85
-11.88
-8.65
-4.65
-0.54
3.05
5.82
7.84
9.36
10.62
11.68
12.43
12.74
12.56
12.01
11.26
10.48
9.74
9.04
8.34
7.64
6.99
6.47
6.10
5.85
5.62
5.28
4.76
4.02
3.09
2.01
0.81
-0.45
-1.74
-2.94
-3.98
-4.82
-5.52
-6.20
-7.02
-8.09
-9.37
-10.76
-12.11
-13.36
-14.55
-15.79
-17.06
-18.14
-18.62
-18.02
-16.07
-12.87
-8.87
-4.71
-0.92
2.24
4.78
6.83
8.48
9.68
10.28
10.16
9.39
8.17
6.85
5.72
5.00
4.76
4.94
5.41
5.93
6.29
6.40
6.35
6.37
6.74
7.57
8.75
9.94
10.73
10.85
10.28
9.24
8.01
6.79
5.66
4.54
3.37
2.16
1.00
0.02
-0.74
-1.32
-1.86
-2.54
-3.51
-4.81
-6.35
-7.91
-9.19
-9.83
-9.58
-8.34
-6.27
-3.70
-1.02
1.44
3.53
5.17
6.37
7.12
7.37
7.11
6.37
5.25
3.94
2.68
1.72
1.27
1.45
2.25
3.49
4.91
6.16
6.96
7.16
6.76
5.86
4.68
3.37
2.06
0.81
-0.40
-1.61
-2.78
-3.86
-4.79
-5.51
-6.07
-6.55
-7.04
-7.60
-8.29
-9.11
-10.17
-11.48
-13.04
-14.59
-15.74
-15.99
-14.94
-12.48
-8.82
-4.43
0.17
4.52
8.30
11.29
13.34
14.36
14.34
13.47
12.09
10.59
9.30
8.31
7.52
6.77
5.96
5.18
4.57
4.29
4.33
4.56
4.81
4.99
5.09
5.15
5.14
4.95
4.43
3.51
2.24
0.80
-0.60
-1.85
-2.94
-3.94
-4.97
-6.05
-7.24
-8.51
-9.87
-11.20
-12.32
-12.95
-12.81
-11.72
-9.68
-6.89
-3.68
-0.43
2.54
5.02
6.91
8.19
8.91
9.16
9.09
8.85
8.56
8.27
7.96
7.59
7.12
6.57
6.04
5.67
5.54
5.62
5.75
5.75
5.45
4.86
4.11
3.37
2.70
2.01
1.09
-0.24
-2.02
-4.05
-6.04
-7.67
-8.84
-9.53
-9.85
-9.89
-9.69
-9.34
-9.00
-8.86
-9.04
-9.46
-9.81
-9.67
-8.70
-6.80
-4.15
-1.19
1.63
3.93
5.53
6.42
6.73
6.59
6.11
5.41
4.60
3.90
3.54
3.76
4.62
5.97
7.50
8.78
9.44
9.30
8.35
6.72
4.66
2.43
0.32
-1.48
-2.88
-3.93
-4.76
-5.51
-6.22
-6.81
-7.19
-7.31
-7.27
-7.20
-7.26
-7.46
-7.73
-7.99
-8.17
-8.31
-8.47
-8.63
-8.69
-8.40
-7.50
-5.79
-3.23
0.02
3.61
7.08
9.95
11.90
12.83
12.91
12.43
11.70
10.96
10.25
9.59
9.01
8.56
8.31
8.28
8.33
8.24
7.75
6.68
5.05
3.03
0.87
-1.18
-2.99
-4.54
-5.89
-7.13
-8.31
-9.41
-10.45
-11.44
-12.42
-13.46
-14.50
-15.41
-15.98
-16.08
-15.73
-15.16
-14.69
-14.56
-14.84
-15.33
-15.64
-15.40
-14.32
-12.34
-9.65
-6.63
-3.73
-1.39
0.08
0.63
0.44
-0.20
-1.02
-1.97
-3.15
-4.75
-6.82
-9.18
-11.43
-13.21
-14.38
-15.12
-15.84
-16.90
-18.36
-19.91
-21.00
-21.12
-20.01
-17.72
-14.48
-10.53
-6.04
-1.11
4.12
9.41
14.41
18.77
22.22
24.57
25.78
25.83
24.81
22.89
20.39
17.69
15.20
13.25
12.02
11.54
11.78
12.66
14.02
15.62
17.14
18.22
18.59
18.21
17.21
15.92
14.63
13.52
12.55
11.54
10.25
8.49
6.27
3.72
1.13
-1.16
-2.82
-3.68
-3.75
-3.22
-2.40
-1.53
-0.77
-0.15
0.35
0.73
0.93
0.85
0.45
-0.22
-1.04
-1.89
-2.70
-3.46
-4.21
-4.99
-5.79
-6.61
-7.39
-8.07
-8.59
-8.81
-8.61
-7.87
-6.54
-4.64
-2.34
0.09
2.32
4.06
5.11
5.48
5.28
4.69
3.88
3.00
2.15
1.47
1.08
1.11
1.54
2.23
2.99
3.64
4.12
4.44
4.62
4.59
4.16
3.16
1.57
-0.43
-2.52
-4.37
-5.77
-6.71
-7.27
-7.56
-7.65
-7.57
-7.35
-7.12
-7.07
-7.37
-8.06
-9.00
-9.88
-10.30
-9.94
-8.64
-6.47
-3.69
-0.69
2.18
4.64
6.50
7.67
8.14
7.91
7.08
5.82
4.35
2.89
1.60
0.58
-0.12
-0.52
-0.63
-0.52
-0.30
-0.08
-0.00
-0.10
-0.35
-0.71
-1.14
-1.66
-2.33
-3.13
-3.92
-4.48
-4.59
-4.20
-3.47
-2.65
-2.04
-1.79
-1.96
-2.53
-3.48
-4.82
-6.48
-8.18
-9.51
-9.96
-9.22
-7.28
-4.50
-1.37
1.60
4.15
6.22
7.88
9.16
9.99
10.28
9.94
9.05
7.81
6.49
5.32
4.42
3.79
3.41
3.24
3.29
3.54
3.91
4.26
4.38
4.15
3.56
2.74
1.85
1.01
0.27
-0.39
-0.95
-1.39
-1.64
-1.66
-1.52
-1.35
-1.32
-1.52
-1.99
-2.70
-3.63
-4.80
-6.16
-7.58
-8.80
-9.47
-9.30
-8.20
-6.28
-3.81
-1.06
1.77
4.55
7.16
9.42
11.08
11.94
11.94
11.27
10.24
9.21
8.37
7.76
7.27
6.83
6.42
6.14
6.07
6.20
6.38
6.45
6.26
5.79
5.06
4.15
3.12
2.06
1.05
0.21
-0.37
-0.72
-0.96
-1.26
-1.75
-2.47
-3.32
-4.20
-5.09
-6.11
-7.40
-8.99
-10.66
-11.93
-12.26
-11.25
-8.86
-5.41
-1.52
2.22
5.42
7.94
9.85
11.25
12.15
12.49
12.20
11.37
10.23
9.07
8.13
7.48
7.03
6.67
6.31
5.98
5.69
5.39
4.98
4.36
3.53
2.63
1.87
1.39
1.14
0.90
0.41
-0.45
-1.58
-2.74
-3.64
-4.18
-4.45
-4.74
-5.30
-6.27
-7.63
-9.20
-10.71
-11.87
-12.39
-12.03
-10.61
-8.12
-4.76
-0.92
2.90
6.27
8.99
11.07
12.67
13.96
14.97
15.63
15.83
15.54
14.83
13.87
12.79
11.62
10.36
8.92
7.34
5.70
4.14
2.77
1.68
0.90
0.41
0.20
0.17
0.20
0.15
-0.10
-0.55
-1.14
-1.75
-2.33
-2.92
-3.67
-4.70
-6.08
-7.70
-9.35
-10.86
-12.15
-13.25
-14.20
-14.87
-14.95
-14.08
-12.01
-8.82
-4.95
-1.07
2.20
4.50
5.78
6.26
6.22
5.91
5.48
4.96
4.38
3.80
3.27
2.80
2.38
2.00
1.63
1.32
1.08
0.90
0.67
0.27
-0.40
-1.36
-2.50
-3.65
-4.71
-5.64
-6.41
-7.02
-7.37
-7.34
-6.93
-6.28
-5.71
-5.54
-5.94
-6.83
-7.90
-8.84
-9.46
-9.80
-10.09
-10.56
-11.29
-12.23
-13.19
-13.97
-14.38
-14.26
-13.46
-11.83
-9.29
-5.90
-1.94
2.16
5.84
8.61
10.20
10.65
10.25
9.43
8.61
8.08
7.97
8.25
8.77
9.30
9.58
9.34
8.39
6.77
4.72
2.70
1.18
0.41
0.34
0.64
0.91
0.92
0.67
0.31
-0.02
-0.39
-0.99
-2.02
-3.52
-5.26
-6.88
-8.07
-8.72
-8.96
-9.08
-9.32
-9.79
-10.43
-11.07
-11.49
-11.48
-10.83
-9.35
-6.96
-3.73
0.08
4.03
7.66
10.63
12.72
13.90
14.27
13.95
13.09
11.88
10.53
9.28
8.38
7.97
8.07
8.57
9.30
10.03
10.56
10.78
10.66
10.28
9.78
9.23
8.68
8.06
7.32
6.47
5.60
4.83
4.23
3.77
3.33
2.78
2.06
1.19
0.23
-0.80
-1.97
-3.37
-5.08
-7.11
-9.39
-11.92
-14.67
-17.60
-20.50
-22.96
-24.45
-24.49
-22.84
-19.69
-15.53
-11.04
-6.77
-3.05
0.05
2.55
4.51
5.84
6.43
6.21
5.30
4.00
2.71
1.78
1.40
1.52
1.92
2.38
2.75
2.99
3.14
3.28
3.43
3.59
3.73
3.75
3.58
3.12
2.33
1.24
-0.01
-1.24
-2.28
-3.05
-3.62
-4.13
-4.71
-5.39
-6.11
-6.78
-7.37
-7.97
-8.77
-9.90
-11.38
-13.05
-14.66
-15.95
-16.72
-16.89
-16.37
-15.04
-12.80
-9.62
-5.69
-1.46
2.49
5.70
7.94
9.34
10.21
10.86
11.41
11.77
11.76
11.27
10.40
9.41
8.60
8.14
7.97
7.94
7.82
7.55
7.18
6.83
6.61
6.49
6.40
6.17
5.74
5.12
4.44
3.85
3.45
3.28
3.27
3.25
2.99
2.33
1.18
-0.32
-1.94
-3.40
-4.53
-5.28
-5.78
-6.20
-6.68
-7.26
-7.84
-8.20
-8.10
-7.28
-5.63
-3.17
-0.14
3.08
6.10
8.60
10.43
11.59
12.18
12.27
11.92
11.18
10.13
8.89
7.58
6.29
5.05
3.87
2.78
1.80
0.96
0.27
-0.34
-0.94
-1.63
-2.47
-3.44
-4.51
-5.56
-6.49
-7.25
-7.83
-8.30
-8.81
-9.52
-10.46
-11.52
-12.46
-13.03
-13.11
-12.83
-12.50
-12.45
-12.92
-13.88
-15.14
-16.37
-17.25
-17.50
-16.93
-15.42
-12.92
-9.54
-5.54
-1.33
2.57
5.72
7.83
8.86
9.05
8.77
8.35
8.01
7.78
7.56
7.24
6.77
6.23
5.71
5.29
4.99
4.76
4.56
4.39
4.27
4.13
3.81
3.13
1.93
0.28
-1.65
-3.55
-5.19
-6.49
-7.47
-8.23
-8.85
-9.38
-9.88
-10.44
-11.16
-12.06
-13.00
-13.73
-14.05
-13.88
-13.41
-12.89
-12.47
-12.06
-11.28
-9.71
-7.11
-3.58
0.49
4.57
8.26
11.38
13.91
15.88
17.26
17.97
17.98
17.39
16.42
15.41
14.58
14.05
13.80
13.72
13.73
13.75
13.69
13.39
12.64
11.26
9.20
6.69
4.07
1.72
-0.17
-1.66
-2.97
-4.33
-5.79
-7.26
-8.55
-9.54
-10.22
-10.68
-11.01
-11.21
-11.23
-11.04
-10.72
-10.43
-10.36
-10.58
-10.99
-11.31
-11.16
-10.22
-8.33
-5.56
-2.21
1.26
4.39
6.79
8.33
9.07
9.22
9.01
8.60
8.05
7.34
6.51
5.67
5.03
4.76
4.92
5.43
6.03
6.50
6.72
6.73
6.68
6.65
6.59
6.36
5.82
4.93
3.82
2.64
1.51
0.41
-0.75
-2.00
-3.26
-4.32
-5.06
-5.52
-5.92
-6.58
-7.68
-9.13
-10.54
-11.43
-11.35
-10.08
-7.67
-4.38
-0.59
3.29
6.86
9.78
11.80
12.81
12.86
12.10
10.76
9.05
7.16
5.27
3.57
2.29
1.59
1.52
1.96
2.65
3.29
3.68
3.78
3.69
3.56
3.49
3.46
3.37
3.08
2.49
1.56
0.35
-1.03
-2.44
-3.73
-4.81
-5.65
-6.32
-6.97
-7.77
-8.83
-10.16
-11.61
-12.90
-13.70
-13.70
-12.71
-10.68
-7.74
-4.20
-0.47
3.00
5.86
7.92
9.15
9.66
9.63
9.26
8.71
8.13
7.61
7.25
7.05
6.98
6.99
7.05
7.16
7.37
7.68
8.04
8.31
8.35
8.06
7.43
6.58
5.66
4.75
3.86
2.89
1.74
0.35
-1.17
-2.64
-3.84
-4.68
-5.20
-5.58
-6.00
-6.54
-7.19
-7.90
-8.66
-9.50
-10.42
-11.24
-11.59
-11.06
-9.37
-6.58
-3.06
0.61
3.94
6.65
8.70
10.14
11.02
11.31
10.95
10.02
8.75
7.54
6.71
6.46
6.74
7.35
8.10
8.87
9.69
10.59
11.51
12.29
12.68
12.52
11.78
10.62
9.22
7.72
6.09
4.22
2.05
-0.35
-2.80
-5.10
-7.10
-8.80
-10.22
-11.36
-12.15
-12.49
-12.35
-11.85
-11.25
-10.84
-10.75
-10.87
-10.89
-10.44
-9.29
-7.38
-4.91
-2.17
0.51
2.88
4.77
6.13
7.02
7.56
7.89
8.15
8.34
8.41
8.25
7.84
7.25
6.63
6.18
5.94
5.86
5.84
5.80
5.74
5.71
5.72
5.68
5.42
4.81
3.88
2.76
1.65
0.68
-0.21
-1.18
-2.40
-3.84
-5.31
-6.50
-7.19
-7.39
-7.32
-7.33
-7.68
-8.50
-9.68
-11.08
-12.49
-13.71
-14.48
-14.49
-13.44
-11.19
-7.94
-4.24
-0.82
1.68
2.95
3.11
2.58
1.87
1.34
1.16
1.31
1.71
2.26
2.87
3.45
3.85
4.01
3.92
3.71
3.58
3.68
4.03
4.53
4.96
5.11
4.86
4.20
3.23
2.09
0.92
-0.17
-1.13
-1.93
-2.59
-3.17
-3.72
-4.35
-5.12
-6.09
-7.29
-8.75
-10.43
-12.15
-13.57
-14.26
-13.86
-12.26
-9.62
-6.41
-3.16
-0.27
2.05
3.82
5.12
6.01
6.47
6.44
5.92
5.04
4.03
3.10
2.43
2.06
1.95
2.02
2.18
2.35
2.46
2.43
2.21
1.76
1.09
0.30
-0.51
-1.24
-1.91
-2.61
-3.47
-4.59
-5.87
-7.12
-8.11
-8.73
-9.07
-9.35
-9.84
-10.65
-11.65
-12.47
-12.67
-11.96
-10.32
-8.01
-5.36
-2.68
-0.11
2.34
4.64
6.66
8.16
8.88
8.75
7.89
6.66
5.44
4.47
3.85
3.49
3.27
3.16
3.14
3.21
3.30
3.29
3.03
2.48
1.71
0.88
0.13
-0.46
-0.88
-1.19
-1.46
-1.72
-2.02
-2.41
-2.88
-3.43
-3.99
-4.50
-4.96
-5.48
-6.20
-7.20
-8.42
-9.57
-10.23
-10.04
-8.83
-6.73
-4.05
-1.22
1.46
3.83
5.84
7.50
8.75
9.50
9.66
9.24
8.44
7.48
6.57
5.85
5.27
4.77
4.28
3.77
3.27
2.85
2.54
2.40
2.41
2.56
2.74
2.81
2.58
1.95
0.93
-0.31
-1.54
-2.55
-3.26
-3.77
-4.18
-4.65
-5.19
-5.78
-6.37
-7.00
-7.76
-8.69
-9.77
-10.75
-11.27
-10.98
-9.67
-7.37
-4.35
-1.00
2.26
5.07
7.23
8.62
9.21
9.03
8.25
7.10
5.82
4.62
3.61
2.84
2.29
1.95
1.85
2.00
2.40
2.92
3.40
3.68
3.66
3.41
3.10
2.93
3.04
3.38
3.80
4.08
4.07
3.74
3.17
2.51
1.87
1.33
0.88
0.50
0.14
-0.31
-0.95
-1.90
-3.23
-4.90
-6.83
-8.86
-10.83
-12.60
-13.99
-14.81
-14.88
-14.10
-12.50
-10.28
-7.71
-5.04
-2.42
0.08
2.46
4.67
6.61
8.15
9.20
9.71
9.75
9.39
8.74
7.96
7.18
6.53
6.10
5.85
5.67
5.42
5.03
4.53
4.07
3.77
3.67
3.72
3.76
3.64
3.36
2.96
2.54
2.13
1.69
1.14
0.41
-0.45
-1.36
-2.25
-3.10
-3.98
-4.97
-6.12
-7.39
-8.67
-9.85
-10.89
-11.78
-12.50
-12.96
-12.97
-12.30
-10.86
-8.73
-6.16
-3.48
-0.97
1.24
3.14
4.75
6.05
6.96
7.39
7.41
7.18
6.93
6.86
6.99
7.27
7.60
7.94
8.35
8.89
9.54
10.15
10.51
10.42
9.86
8.90
7.70
6.39
5.03
3.65
2.32
1.12
0.16
-0.54
-1.06
-1.55
-2.13
-2.82
-3.56
-4.21
-4.73
-5.19
-5.69
-6.39
-7.35
-8.59
-10.06
-11.78
-13.69
-15.65
-17.37
-18.44
-18.49
-17.34
-15.10
-12.12
-8.83
-5.58
-2.57
0.11
2.40
4.16
5.20
5.44
4.97
4.07
3.08
2.33
1.96
2.07
2.65
3.72
5.23
6.95
8.53
9.58
9.89
9.54
8.92
8.49
8.58
9.24
10.22
11.21
11.94
12.23
12.00
11.17
9.64
7.34
4.34
0.87
-2.71
-6.06
-8.94
-11.32
-13.30
-15.10
-16.90
-18.83
-20.97
-23.32
-25.82
-28.34
-30.73
-32.79
-34.34
-35.26
-35.51
-35.19
-34.41
-33.26
-31.74
-29.75
-27.14
-23.79
-19.64
-14.68
-9.03
-2.84
3.65
10.16
16.35
21.90
26.60
30.38
33.31
35.54
37.19
38.25
38.67
38.38
37.42
35.87
33.92
31.71
29.34
26.84
24.21
21.49
18.75
16.11
13.63
11.33
9.24
7.41
5.95
4.89
4.21
3.74
3.27
2.68
1.95
1.18
0.47
-0.15
-0.71
-1.22
-1.59
-1.58
-0.99
0.22
1.79
3.27
4.22
4.45
4.10
3.51
3.00
2.65
2.38
1.98
1.40
0.79
0.41
0.45
0.89
1.54
2.09
2.38
2.38
2.16
1.81
1.35
0.79
0.15
-0.44
-0.86
-1.07
-1.17
-1.38
-1.89
-2.77
-3.93
-5.20
-6.46
-7.70
-9.00
-10.40
-11.86
-13.23
-14.27
-14.74
-14.42
-13.16
-10.91
-7.81
-4.13
-0.33
3.13
5.89
7.81
8.93
9.41
9.39
8.94
8.07
6.86
5.47
4.20
3.30
2.92
2.97
3.22
3.42
3.40
3.21
2.99
2.88
2.91
2.95
2.86
2.58
2.15
1.73
1.45
1.36
1.38
1.38
1.30
1.12
0.90
0.61
0.21
-0.43
-1.40
-2.65
-4.00
-5.15
-5.78
-5.66
-4.75
-3.16
-1.10
1.19
3.51
5.76
7.83
9.68
11.27
12.55
13.54
14.22
14.58
14.57
14.15
13.35
12.29
11.19
10.24
9.55
9.08
8.74
8.38
7.97
7.57
7.23
6.93
6.55
5.92
4.93
3.58
2.00
0.34
-1.27
-2.77
-4.13
-5.31
-6.24
-6.91
-7.37
-7.78
-8.36
-9.19
-10.20
-11.14
-11.63
-11.39
-10.34
-8.61
-6.49
-4.29
-2.22
-0.39
1.17
2.41
3.26
3.62
3.46
2.85
1.97
1.01
0.13
-0.60
-1.17
-1.58
-1.82
-1.87
-1.76
-1.61
-1.55
-1.71
-2.11
-2.71
-3.39
-4.06
-4.68
-5.29
-5.95
-6.67
-7.44
-8.20
-8.90
-9.53
-10.11
-10.66
-11.19
-11.72
-12.25
-12.80
-13.38
-14.00
-14.57
-14.93
-14.85
-14.11
-12.59
-10.33
-7.56
-4.59
-1.76
0.67
2.55
3.84
4.57
4.81
4.64
4.18
3.57
2.97
2.53
2.32
2.33
2.51
2.78
3.10
3.45
3.80
4.11
4.32
4.39
4.31
4.11
3.78
3.28
2.55
1.61
0.58
-0.32
-0.88
-1.04
-0.95
-0.93
-1.28
-2.13
-3.38
-4.79
-6.10
-7.18
-7.98
-8.48
-8.58
-8.07
-6.77
-4.64
-1.92
1.02
3.70
5.83
7.32
8.27
8.86
9.21
9.32
9.16
8.75
8.17
7.63
7.30
7.29
7.56
7.91
8.16
8.16
7.88
7.41
6.89
6.43
6.10
5.85
5.55
5.05
4.26
3.18
1.92
0.71
-0.25
-0.85
-1.07
-1.12
-1.30
-1.99
-3.50
-6.03
-9.58
-13.90
-18.50
-22.69
-25.77
-27.19
-26.73
-24.56
-21.20
-17.29
-13.42
-9.94
-6.93
-4.29
-1.82
0.58
2.92
5.09
6.91
8.27
9.09
9.45
9.52
9.41
9.14
8.55
7.40
5.55
3.11
0.43
-1.99
-3.72
-4.66
-5.05
-5.37
-6.04
-7.25
-8.82
-10.33
-11.33
-11.48
-10.71
-9.16
-7.11
-4.91
-2.90
-1.37
-0.53
-0.49
-1.20
-2.39
-3.71
-4.73
-5.14
-4.78
-3.72
-2.14
-0.27
1.71
3.68
5.59
7.38
8.96
10.30
11.38
12.32
13.24
14.22
15.15
15.69
15.38
13.84
10.93
6.91
2.33
-2.17
-6.06
-9.10
-11.31
-12.81
-13.67
-13.81
-13.05
-11.24
-8.43
-4.92
-1.21
2.12
4.57
5.76
5.53
3.89
1.02
-2.73
-6.93
-11.05
-14.63
-17.30
-18.80
-18.97
-17.69
-14.87
-10.53
-4.91
1.44
7.72
13.02
16.58
18.02
17.39
15.19
12.09
8.70
5.43
2.46
-0.15
-2.37
-4.01
-4.84
-4.59
-3.19
-0.80
2.21
5.36
8.26
10.67
12.57
13.94
14.71
14.66
13.51
11.09
7.53
3.23
-1.20
-5.17
-8.34
-10.62
-12.13
-13.03
-13.38
-13.16
-12.32
-10.89
-9.03
-6.98
-4.97
-3.18
-1.69
-0.51
0.34
0.93
1.37
1.82
2.38
3.07
3.77
4.26
4.42
4.31
4.26
4.68
5.87
7.82
10.14
12.24
13.58
13.91
13.27
11.98
10.37
8.61
6.70
4.55
2.20
-0.18
-2.16
-3.32
-3.36
-2.25
-0.34
1.84
3.66
4.62
4.48
3.34
1.49
-0.67
-2.83
-4.85
-6.82
-8.90
-11.15
-13.52
-15.71
-17.39
-18.25
-18.13
-17.03
-15.04
-12.29
-8.90
-5.06
-1.05
2.72
5.85
8.06
9.34
9.92
10.16
10.40
10.74
11.03
10.85
9.78
7.52
4.16
0.13
-3.88
-7.17
-9.31
-10.25
-10.31
-9.94
-9.46
-8.89
-8.02
-6.54
-4.39
-1.83
0.64
2.48
3.37
3.32
2.62
1.71
0.93
0.46
0.29
0.27
0.23
0.05
-0.29
-0.78
-1.39
-2.16
-3.16
-4.44
-5.93
-7.36
-8.34
-8.45
-7.50
-5.60
-3.16
-0.70
1.34
2.75
3.58
4.05
4.41
4.86
5.49
6.27
7.16
8.07
8.97
9.84
10.69
11.53
12.30
12.93
13.33
13.43
13.23
12.74
11.98
10.94
9.61
8.01
6.23
4.44
2.79
1.36
0.11
-1.08
-2.26
-3.34
-4.09
-4.26
-3.75
-2.76
-1.72
-1.14
-1.37
-2.44
-4.04
-5.69
-6.94
-7.48
-7.24
-6.26
-4.64
-2.52
-0.05
2.49
4.70
6.15
6.49
5.63
3.76
1.29
-1.31
-3.68
-5.62
-7.08
-8.01
-8.35
-7.98
-6.85
-4.99
-2.63
-0.02
2.57
4.95
6.96
8.45
9.22
9.08
7.92
5.79
2.92
-0.34
-3.60
-6.56
-9.05
-11.03
-12.60
-13.86
-14.94
-15.85
-16.50
-16.73
-16.34
-15.24
-13.50
-11.29
-8.89
-6.53
-4.31
-2.28
-0.39
1.38
3.00
4.39
5.47
6.21
6.59
6.67
6.55
6.37
6.31
6.57
7.30
8.52
10.04
11.55
12.67
13.17
13.02
12.34
11.35
10.17
8.82
7.21
5.36
3.35
1.42
-0.21
-1.41
-2.20
-2.67
-2.87
-2.79
-2.42
-1.84
-1.25
-0.99
-1.32
-2.33
-3.88
-5.66
-7.36
-8.78
-9.76
-10.18
-9.84
-8.57
-6.30
-3.17
0.43
4.00
7.12
9.55
11.32
12.52
13.26
13.49
13.12
12.08
10.48
8.60
6.83
5.47
4.64
4.27
4.16
4.15
4.21
4.40
4.77
5.25
5.66
5.76
5.40
4.59
3.52
2.42
1.46
0.68
-0.00
-0.70
-1.49
-2.41
-3.46
-4.64
-5.98
-7.46
-8.98
-10.37
-11.33
-11.59
-10.94
-9.35
-6.98
-4.14
-1.19
1.49
3.66
5.16
5.99
6.26
6.08
5.58
4.81
3.78
2.52
1.15
-0.07
-0.89
-1.11
-0.80
-0.20
0.30
0.37
-0.07
-0.91
-1.88
-2.79
-3.58
-4.34
-5.17
-6.04
-6.80
-7.26
-7.28
-6.95
-6.50
-6.24
-6.37
-6.94
-7.88
-9.03
-10.19
-11.18
-11.78
-11.75
-10.89
-9.18
-6.77
-4.03
-1.35
0.98
2.91
4.52
5.97
7.32
8.44
9.11
9.14
8.53
7.48
6.32
5.34
4.68
4.28
3.99
3.71
3.41
3.15
3.01
3.01
3.07
3.07
2.92
2.60
2.13
1.53
0.79
-0.12
-1.19
-2.29
-3.27
-3.94
-4.25
-4.31
-4.35
-4.60
-5.23
-6.18
-7.24
-8.08
-8.38
-7.95
-6.74
-4.87
-2.56
-0.06
2.36
4.53
6.28
7.53
8.22
8.34
7.91
7.00
5.75
4.35
3.03
2.02
1.54
1.67
2.35
3.34
4.35
5.14
5.57
5.68
5.56
5.29
4.82
4.03
2.82
1.21
-0.65
-2.56
-4.35
-5.98
-7.50
-8.95
-10.34
-11.57
-12.56
-13.25
-13.68
-13.90
-13.91
-13.61
-12.85
-11.51
-9.57
-7.17
-4.53
-1.91
0.49
2.56
4.23
5.50
6.37
6.88
7.06
6.95
6.58
6.06
5.50
5.02
4.70
4.55
4.49
4.34
3.99
3.37
2.58
1.81
1.31
1.20
1.44
1.83
2.08
1.96
1.37
0.41
-0.72
-1.82
-2.83
-3.75
-4.70
-5.74
-6.85
-8.00
-9.14
-10.25
-11.33
-12.26
-12.82
-12.69
-11.59
-9.42
-6.37
-2.83
0.68
3.74
6.13
7.85
9.02
9.79
10.24
10.38
10.21
9.77
9.21
8.66
8.22
7.84
7.44
6.93
6.30
5.65
5.13
4.82
4.66
4.49
4.08
3.35
2.32
1.15
0.06
-0.84
-1.50
-2.01
-2.45
-2.92
-3.45
-4.02
-4.61
-5.12
-5.54
-5.91
-6.33
-6.93
-7.81
-8.94
-10.16
-11.15
-11.55
-11.09
-9.66
-7.38
-4.54
-1.53
1.29
3.67
5.47
6.67
7.35
7.57
7.39
6.90
6.19
5.43
4.83
4.55
4.69
5.20
5.94
6.73
7.40
7.85
8.03
7.94
7.60
7.04
6.30
5.43
4.45
3.38
2.24
1.07
-0.08
-1.14
-2.05
-2.79
-3.39
-3.95
-4.52
-5.15
-5.85
-6.57
-7.27
-7.95
-8.62
-9.31
-9.94
-10.36
-10.33
-9.60
-8.07
-5.82
-3.10
-0.29
2.31
4.50
6.20
7.38
8.02
8.14
7.77
7.07
6.26
5.56
5.06
4.75
4.53
4.35
4.20
4.14
4.21
4.33
4.36
4.21
3.89
3.52
3.26
3.18
3.18
3.10
2.77
2.17
1.38
0.56
-0.17
-0.73
-1.15
-1.45
-1.66
-1.85
-2.10
-2.55
-3.29
-4.31
-5.51
-6.67
-7.51
-7.81
-7.43
-6.37
-4.75
-2.78
-0.71
1.24
2.93
4.29
5.30
5.93
6.14
5.92
5.34
4.56
3.80
3.22
2.89
2.77
2.75
2.73
2.71
2.71
2.77
2.87
2.94
2.91
2.75
2.49
2.16
1.74
1.18
0.42
-0.48
-1.38
-2.08
-2.43
-2.43
-2.25
-2.15
-2.33
-2.86
-3.66
-4.55
-5.30
-5.76
-5.77
-5.26
-4.19
-2.63
-0.71
1.36
3.34
5.03
6.31
7.10
7.35
7.07
6.34
5.33
4.30
3.51
3.14
3.23
3.65
4.20
4.68
4.99
5.14
5.20
5.26
5.31
5.28
5.03
4.46
3.56
2.42
1.21
0.06
-0.96
-1.88
-2.76
-3.64
-4.51
-5.31
-6.00
-6.57
-7.06
-7.40
-7.50
-7.15
-6.20
-4.63
-2.60
-0.41
1.62
3.32
4.68
5.76
6.63
7.22
7.42
7.10
6.28
5.11
3.85
2.74
1.88
1.30
0.91
0.70
0.69
0.90
1.24
1.54
1.54
1.01
-0.09
-1.62
-3.31
-4.87
-6.15
-7.11
-7.83
-8.39
-8.85
-9.29
-9.82
-10.55
-11.59
-12.89
-14.24
-15.29
-15.68
-15.20
-13.85
-11.87
-9.57
-7.25
-5.10
-3.18
-1.53
-0.17
0.81
1.40
1.61
1.57
1.48
1.47
1.63
1.89
2.16
2.35
2.46
2.53
2.63
2.70
2.65
2.37
1.81
1.07
0.31
-0.35
-0.91
-1.48
-2.22
-3.15
-4.16
-5.05
-5.63
-5.88
-5.97
-6.10
-6.45
-7.01
-7.64
-8.13
-8.35
-8.24
-7.79
-7.00
-5.80
-4.11
-1.94
0.58
3.16
5.46
7.22
8.33
8.84
8.94
8.80
8.58
8.33
8.09
7.87
7.74
7.70
7.74
7.74
7.58
7.18
6.57
5.84
5.12
4.48
3.90
3.29
2.52
1.60
0.60
-0.35
-1.12
-1.69
-2.15
-2.64
-3.32
-4.25
-5.39
-6.61
-7.74
-8.64
-9.20
-9.32
-8.90
-7.90
-6.33
-4.29
-1.97
0.43
2.74
4.80
6.53
7.82
8.59
8.83
8.61
8.10
7.47
6.91
6.46
6.12
5.81
5.47
5.11
4.75
4.39
4.02
3.62
3.19
2.76
2.41
2.17
2.00
1.79
1.38
0.68
-0.28
-1.36
-2.38
-3.22
-3.88
-4.50
-5.26
-6.28
-7.57
-8.99
-10.38
-11.53
-12.29
-12.53
-12.11
-10.97
-9.10
-6.61
-3.74
-0.78
1.98
4.37
6.28
7.70
8.63
9.10
9.14
8.83
8.30
7.66
6.99
6.32
5.61
4.85
4.07
3.37
2.88
2.63
2.60
2.66
2.62
2.36
1.79
0.96
-0.03
-1.02
-1.93
-2.69
-3.38
-4.11
-4.98
-6.04
-7.26
-8.52
-9.69
-10.72
-11.58
-12.31
-12.95
-13.55
-14.14
-14.75
-15.38
-15.91
-16.11
-15.67
-14.32
-11.96
-8.75
-5.05
-1.32
2.03
4.79
6.90
8.43
9.41
9.89
9.88
9.49
8.86
8.21
7.70
7.38
7.20
7.03
6.81
6.53
6.28
6.17
6.26
6.48
6.72
6.81
6.67
6.24
5.59
4.82
4.08
3.43
2.89
2.42
1.88
1.14
0.11
-1.19
-2.63
-4.01
-5.14
-5.93
-6.44
-6.83
-7.30
-7.98
-8.86
-9.77
-10.41
-10.43
-9.53
-7.59
-4.73
-1.31
2.20
5.32
7.72
9.28
10.11
10.45
10.55
10.60
10.67
10.74
10.76
10.66
10.43
10.09
9.71
9.39
9.21
9.18
9.27
9.38
9.40
9.26
8.96
8.53
7.99
7.34
6.58
5.71
4.74
3.71
2.59
1.29
-0.31
-2.32
-4.73
-7.37
-10.04
-12.57
-14.89
-17.06
-19.15
-21.16
-22.94
-24.21
-24.64
-23.94
-21.96
-18.71
-14.41
-9.45
-4.34
0.36
4.19
6.93
8.58
9.38
9.63
9.57
9.30
8.81
8.07
7.12
6.15
5.42
5.18
5.50
6.26
7.21
8.06
8.66
8.96
8.97
8.67
8.00
6.87
5.32
3.52
1.72
0.16
-1.07
-2.04
-2.89
-3.67
-4.28
-4.60
-4.52
-4.11
-3.57
-3.20
-3.23
-3.75
-4.72
-6.00
-7.47
-9.00
-10.45
-11.68
-12.49
-12.69
-12.14
-10.79
-8.66
-5.93
-2.78
0.51
3.67
6.48
8.74
10.37
11.35
11.77
11.77
11.50
11.10
10.67
10.29
9.95
9.68
9.46
9.30
9.17
9.05
8.91
8.71
8.42
8.00
7.43
6.68
5.76
4.76
3.80
2.95
2.24
1.61
0.89
-0.03
-1.20
-2.48
-3.68
-4.60
-5.21
-5.63
-6.07
-6.77
-7.83
-9.23
-10.80
-12.35
-13.68
-14.59
-14.90
-14.49
-13.33
-11.52
-9.26
-6.83
-4.49
-2.38
-0.54
1.01
2.27
3.18
3.69
3.76
3.46
3.00
2.62
2.48
2.65
3.04
3.45
3.73
3.77
3.61
3.36
3.13
2.95
2.77
2.52
2.14
1.69
1.25
0.92
0.68
0.46
0.11
-0.43
-1.11
-1.81
-2.36
-2.71
-2.91
-3.11
-3.43
-3.93
-4.54
-5.13
-5.59
-5.84
-5.79
-5.42
-4.65
-3.41
-1.69
0.38
2.63
4.79
6.65
8.07
8.99
9.44
9.42
8.94
8.03
6.73
5.13
3.39
1.63
-0.01
-1.39
-2.43
-3.05
-3.19
-2.87
-2.17
-1.24
-0.25
0.67
1.40
1.88
2.09
2.01
1.60
0.88
-0.15
-1.42
-2.79
-4.15
-5.40
-6.53
-7.60
-8.70
-9.83
-10.90
-11.70
-11.96
-11.46
-10.11
-7.98
-5.24
-2.17
0.92
3.73
5.99
7.49
8.18
8.10
7.47
6.53
5.52
4.60
3.80
3.12
2.51
2.01
1.69
1.60
1.76
2.08
2.40
2.57
2.50
2.14
1.54
0.74
-0.21
-1.31
-2.53
-3.80
-5.00
-5.99
-6.68
-7.02
-7.08
-6.97
-6.85
-6.86
-7.10
-7.61
-8.27
-8.87
-9.10
-8.67
-7.44
-5.45
-2.94
-0.27
2.29
4.51
6.30
7.64
8.53
8.93
8.87
8.41
7.72
6.98
6.35
5.92
5.68
5.57
5.54
5.55
5.56
5.55
5.49
5.33
5.06
4.69
4.27
3.85
3.45
3.03
2.56
1.99
1.33
0.64
-0.01
-0.57
-1.08
-1.63
-2.31
-3.20
-4.25
-5.28
-6.04
-6.29
-5.88
-4.81
-3.21
-1.28
0.77
2.78
4.63
6.24
7.49
8.33
8.70
8.65
8.29
7.74
7.09
6.41
5.68
4.91
4.16
3.51
3.04
2.74
2.51
2.24
1.84
1.30
0.71
0.15
-0.31
-0.70
-1.07
-1.52
-2.07
-2.76
-3.56
-4.45
-5.40
-6.34
-7.23
-8.05
-8.84
-9.68
-10.62
-11.61
-12.41
-12.74
-12.30
-10.98
-8.86
-6.27
-3.59
-1.14
0.94
2.65
4.09
5.31
6.30
6.97
7.22
7.03
6.48
5.73
4.99
4.36
3.90
3.61
3.42
3.30
3.15
2.92
2.56
2.06
1.45
0.80
0.21
-0.34
-0.91
-1.62
-2.53
-3.63
-4.74
-5.68
-6.33
-6.68
-6.88
-7.15
-7.71
-8.65
-9.94
-11.44
-12.99
-14.39
-15.49
-16.11
-16.07
-15.22
-13.49
-10.98
-7.91
-4.66
-1.62
0.91
2.82
4.16
5.13
5.89
6.53
7.03
7.31
7.31
7.06
6.67
6.29
6.01
5.85
5.81
5.84
5.96
6.15
6.38
6.53
6.46
6.07
5.33
4.37
3.36
2.42
1.62
0.91
0.21
-0.55
-1.33
-2.09
-2.74
-3.26
-3.70
-4.12
-4.63
-5.33
-6.24
-7.33
-8.48
-9.43
-9.92
-9.71
-8.66
-6.86
-4.52
-1.96
0.57
2.89
4.94
6.68
8.07
9.08
9.61
9.62
9.13
8.25
7.13
5.94
4.81
3.86
3.22
3.03
3.40
4.36
5.76
7.31
8.63
9.40
9.46
8.83
7.66
6.14
4.38
2.42
0.29
-1.89
-3.89
-5.43
-6.33
-6.60
-6.47
-6.25
-6.26
-6.65
-7.39
-8.27
-9.05
-9.49
-9.42
-8.76
-7.53
-5.83
-3.84
-1.74
0.31
2.24
4.03
5.70
7.26
8.66
9.83
10.63
10.96
10.81
10.20
9.23
8.02
6.70
5.36
4.05
2.80
1.62
0.52
-0.41
-1.07
-1.36
-1.20
-0.63
0.22
1.13
1.84
2.08
1.70
0.69
-0.84
-2.68
-4.62
-6.47
-8.14
-9.58
-10.80
-11.79
-12.50
-12.89
-12.97
-12.76
-12.30
-11.57
-10.53
-9.08
-7.18
-4.89
-2.44
-0.17
1.63
2.80
3.45
3.80
4.13
4.61
5.26
5.96
6.61
7.17
7.64
8.02
8.31
8.43
8.31
7.91
7.22
6.29
5.13
3.76
2.22
0.65
-0.73
-1.72
-2.17
-2.11
-1.66
-1.04
-0.43
0.03
0.24
0.12
-0.40
-1.35
-2.72
-4.36
-6.10
-7.76
-9.23
-10.46
-11.42
-12.05
-12.22
-11.79
-10.65
-8.83
-6.51
-3.94
-1.37
1.01
3.12
4.92
6.36
7.36
7.90
7.98
7.76
7.47
7.33
7.49
7.95
8.59
9.24
9.73
9.96
9.91
9.64
9.21
8.68
8.10
7.46
6.77
6.07
5.38
4.75
4.17
3.60
2.95
2.16
1.13
-0.20
-1.91
-4.08
-6.74
-9.85
-13.23
-16.60
-19.61
-21.94
-23.35
-23.72
-23.01
-21.21
-18.32
-14.34
-9.38
-3.72
2.24
7.91
12.73
16.24
18.23
18.69
17.87
16.07
13.68
11.01
8.33
5.84
3.67
1.93
0.66
-0.15
-0.53
-0.54
-0.24
0.38
1.31
2.57
4.05
5.53
6.68
7.15
6.71
5.35
3.31
0.97
-1.31
-3.28
-4.90
-6.23
-7.36
-8.31
-9.00
-9.30
-9.15
-8.60
-7.83
-7.08
-6.54
-6.22
-5.99
-5.60
-4.84
-3.59
-1.91
0.02
1.97
3.76
5.36
6.84
8.33
9.89
11.49
12.93
13.94
14.30
13.96
13.01
11.70
10.23
8.69
7.10
5.42
3.77
2.38
1.58
1.63
2.57
4.16
5.97
7.45
8.20
7.95
6.73
4.71
2.23
-0.38
-2.86
-5.06
-6.95
-8.61
-10.07
-11.39
-12.52
-13.40
-13.99
-14.22
-14.04
-13.40
-12.25
-10.58
-8.49
-6.17
-3.91
-1.99
-0.61
0.18
0.51
0.63
0.79
1.16
1.75
2.39
2.90
3.11
3.10
3.08
3.43
4.46
6.23
8.47
10.60
11.94
12.01
10.67
8.19
5.07
1.81
-1.25
-3.96
-6.33
-8.31
-9.76
-10.43
-10.08
-8.65
-6.36
-3.62
-0.93
1.23
2.54
2.86
2.25
0.86
-1.14
-3.58
-6.27
-8.97
-11.30
-12.83
-13.14
-12.00
-9.43
-5.73
-1.34
3.21
7.47
11.08
13.81
15.51
16.14
15.84
14.80
13.30
11.55
9.68
7.72
5.73
3.81
2.18
1.10
0.72
1.10
2.12
3.58
5.18
6.68
7.84
8.48
8.49
7.79
6.39
4.37
1.92
-0.73
-3.33
-5.65
-7.53
-8.89
-9.77
-10.24
-10.42
-10.41
-10.27
-10.00
-9.54
-8.80
-7.71
-6.26
-4.55
-2.80
-1.28
-0.23
0.25
0.22
-0.12
-0.54
-0.87
-0.97
-0.81
-0.30
0.56
1.74
3.07
4.29
5.04
5.11
4.44
3.18
1.56
-0.21
-2.03
-3.87
-5.66
-7.27
-8.44
-8.92
-8.58
-7.49
-5.91
-4.22
-2.77
-1.76
-1.23
-1.13
-1.40
-2.05
-3.10
-4.57
-6.39
-8.33
-10.09
-11.36
-11.86
-11.46
-10.10
-7.91
-5.08
-1.94
1.15
3.85
5.94
7.34
8.09
8.28
8.01
7.34
6.37
5.24
4.22
3.58
3.49
3.94
4.71
5.51
6.06
6.25
6.13
5.83
5.45
5.00
4.41
3.63
2.69
1.68
0.78
0.05
-0.51
-0.99
-1.52
-2.13
-2.82
-3.52
-4.18
-4.79
-5.35
-5.95
-6.61
-7.35
-8.05
-8.51
-8.43
-7.56
-5.80
-3.29
-0.35
2.60
5.21
7.28
8.80
9.86
10.54
10.91
10.98
10.72
10.17
9.42
8.62
7.89
7.32
6.92
6.60
6.26
5.81
5.21
4.49
3.72
3.01
2.41
1.93
1.51
1.06
0.47
-0.34
-1.39
-2.63
-3.94
-5.12
-6.00
-6.50
-6.65
-6.62
-6.65
-6.97
-7.71
-8.79
-9.95
-10.84
-11.13
-10.60
-9.29
-7.40
-5.24
-3.12
-1.22
0.39
1.74
2.91
3.92
4.78
5.43
5.78
5.79
5.44
4.78
3.91
2.95
2.02
1.18
0.47
-0.17
-0.77
-1.37
-1.93
-2.38
-2.65
-2.70
-2.58
-2.37
-2.19
-2.13
-2.25
-2.55
-3.04
-3.68
-4.45
-5.34
-6.32
-7.38
-8.48
-9.57
-10.62
-11.59
-12.47
-13.21
-13.68
-13.67
-12.97
-11.43
-9.09
-6.21
-3.18
-0.35
2.02
3.88
5.26
6.20
6.70
6.73
6.34
5.66
4.95
4.44
4.23
4.32
4.52
4.67
4.67
4.51
4.29
4.09
3.95
3.84
3.66
3.29
2.72
1.95
1.10
0.33
-0.22
-0.45
-0.34
-0.02
0.34
0.50
0.29
-0.32
-1.25
-2.35
-3.51
-4.72
-6.02
-7.41
-8.73
-9.70
-9.92
-9.12
-7.28
-4.65
-1.64
1.31
3.89
6.01
7.66
8.90
9.73
10.09
9.92
9.22
8.07
6.69
5.36
4.35
3.83
3.84
4.25
4.86
5.45
5.93
6.26
6.51
6.66
6.69
6.48
5.89
4.89
3.50
1.87
0.21
-1.29
-2.49
-3.30
-3.69
-3.76
-3.67
-3.65
-3.88
-4.50
-5.49
-6.75
-8.05
-9.13
-9.76
-9.78
-9.11
-7.81
-6.07
-4.13
-2.20
-0.40
1.27
2.90
4.56
6.20
7.65
8.65
9.00
8.66
7.79
6.72
5.71
4.96
4.47
4.15
3.91
3.71
3.62
3.68
3.89
4.15
4.30
4.23
3.92
3.46
2.96
2.52
2.09
1.61
0.96
0.12
-0.91
-2.10
-3.43
-4.91
-6.52
-8.16
-9.64
-10.76
-11.37
-11.50
-11.26
-10.80
-10.16
-9.25
-7.91
-6.05
-3.73
-1.21
1.22
3.30
4.96
6.25
7.26
8.02
8.50
8.57
8.17
7.34
6.22
4.97
3.75
2.62
1.59
0.64
-0.24
-1.00
-1.62
-2.05
-2.29
-2.32
-2.12
-1.66
-0.92
0.04
1.06
1.93
2.45
2.48
1.99
1.00
-0.44
-2.23
-4.23
-6.19
-7.89
-9.15
-9.99
-10.56
-11.11
-11.80
-12.58
-13.19
-13.30
-12.69
-11.36
-9.48
-7.30
-5.03
-2.78
-0.57
1.56
3.52
5.17
6.36
7.04
7.30
7.34
7.35
7.47
7.68
7.89
7.98
7.85
7.54
7.11
6.69
6.36
6.17
6.12
6.15
6.16
6.03
5.65
4.99
4.10
3.10
2.15
1.31
0.56
-0.18
-0.96
-1.74
-2.43
-2.96
-3.37
-3.78
-4.37
-5.27
-6.46
-7.83
-9.15
-10.18
-10.72
-10.64
-9.87
-8.45
-6.54
-4.35
-2.13
-0.12
1.57
2.87
3.82
4.46
4.85
5.00
4.97
4.77
4.49
4.24
4.12
4.20
4.42
4.65
4.70
4.45
3.89
3.16
2.46
1.92
1.61
1.45
1.35
1.21
0.99
0.69
0.27
-0.28
-0.97
-1.77
-2.61
-3.44
-4.28
-5.20
-6.27
-7.49
-8.77
-9.94
-10.85
-11.41
-11.60
-11.39
-10.66
-9.25
-7.08
-4.20
-0.84
2.60
5.74
8.33
10.32
11.76
12.74
13.31
13.44
13.13
12.41
11.42
10.33
9.26
8.28
7.40
6.63
6.02
5.67
5.65
5.95
6.44
6.94
7.25
7.24
6.85
6.08
4.92
3.39
1.63
-0.18
-1.80
-3.03
-3.82
-4.26
-4.46
-4.54
-4.52
-4.39
-4.13
-3.78
-3.44
-3.13
-2.80
-2.32
-1.52
-0.34
1.14
2.72
4.14
5.21
5.79
5.86
5.48
4.75
3.82
2.83
1.93
1.24
0.84
0.72
0.86
1.17
1.57
1.99
2.36
2.61
2.67
2.49
2.04
1.35
0.51
-0.35
-1.12
-1.74
-2.22
-2.63
-3.05
-3.51
-4.02
-4.52
-5.01
-5.51
-6.06
-6.73
-7.51
-8.32
-9.02
-9.40
-9.26
-8.48
-7.01
-4.94
-2.46
0.16
2.62
4.70
6.24
7.24
7.75
7.87
7.72
7.39
6.91
6.34
5.70
5.06
4.50
4.06
3.78
3.60
3.44
3.20
2.79
2.21
1.48
0.66
-0.17
-0.99
-1.77
-2.52
-3.19
-3.77
-4.22
-4.56
-4.83
-5.07
-5.32
-5.55
-5.78
-6.02
-6.37
-6.88
-7.57
-8.27
-8.69
-8.51
-7.46
-5.55
-2.98
-0.18
2.41
4.47
5.86
6.61
6.84
6.73
6.40
5.98
5.55
5.21
4.95
4.76
4.58
4.34
4.05
3.70
3.32
2.89
2.36
1.69
0.89
0.07
-0.64
-1.15
-1.46
-1.68
-1.98
-2.43
-3.07
-3.86
-4.80
-5.88
-7.11
-8.43
-9.71
-10.81
-11.64
-12.16
-12.41
-12.34
-11.82
-10.64
-8.69
-6.03
-2.96
0.07
2.69
4.71
6.13
7.08
7.68
7.93
7.82
7.35
6.64
5.87
5.25
4.91
4.85
4.99
5.23
5.49
5.70
5.85
5.86
5.66
5.14
4.27
3.13
1.88
0.72
-0.20
-0.86
-1.35
-1.78
-2.24
-2.75
-3.31
-3.95
-4.68
-5.56
-6.54
-7.48
-8.20
-8.45
-8.11
-7.14
-5.68
-3.92
-2.08
-0.33
1.18
2.36
3.17
3.64
3.83
3.87
3.89
3.97
4.19
4.54
4.97
5.34
5.53
5.42
4.97
4.24
3.34
2.43
1.60
0.88
0.27
-0.23
-0.60
-0.77
-0.70
-0.42
-0.00
0.36
0.52
0.34
-0.22
-1.14
-2.33
-3.65
-4.96
-6.09
-6.88
-7.17
-6.88
-5.95
-4.42
-2.42
-0.15
2.16
4.32
6.23
7.86
9.20
10.20
10.75
10.75
10.17
9.09
7.74
6.40
5.28
4.46
3.87
3.36
2.77
2.07
1.28
0.55
-0.03
-0.40
-0.57
-0.63
-0.70
-0.87
-1.19
-1.68
-2.29
-3.02
-3.84
-4.77
-5.80
-6.93
-8.15
-9.37
-10.47
-11.22
-11.33
-10.57
-8.85
-6.30
-3.31
-0.35
2.14
3.90
4.90
5.27
5.18
4.78
4.14
3.34
2.49
1.73
1.20
0.96
0.98
1.16
1.36
1.48
1.47
1.32
1.05
0.64
0.08
-0.67
-1.62
-2.71
-3.82
-4.82
-5.60
-6.10
-6.34
-6.38
-6.30
-6.22
-6.25
-6.56
-7.27
-8.43
-9.94
-11.53
-12.84
-13.52
-13.32
-12.23
-10.39
-8.07
-5.55
-3.04
-0.72
1.30
2.97
4.25
5.15
5.75
6.10
6.29
6.32
6.18
5.90
5.50
5.08
4.73
4.55
4.53
4.63
4.74
4.75
4.60
4.24
3.71
3.03
2.27
1.47
0.69
-0.03
-0.67
-1.19
-1.62
-2.02
-2.47
-3.08
-3.90
-4.89
-6.00
-7.09
-8.04
-8.74
-9.13
-9.15
-8.73
-7.84
-6.45
-4.64
-2.51
-0.25
1.94
3.93
5.63
7.01
8.07
8.76
9.04
8.84
8.21
7.31
6.39
5.74
5.51
5.65
5.95
6.16
6.10
5.75
5.25
4.78
4.46
4.31
4.26
4.16
3.89
3.37
2.58
1.60
0.53
-0.47
-1.29
-1.89
-2.35
-2.80
-3.41
-4.27
-5.37
-6.62
-7.88
-9.02
-9.95
-10.57
-10.77
-10.37
-9.23
-7.28
-4.66
-1.64
1.33
3.88
5.75
6.92
7.56
7.90
8.14
8.36
8.50
8.47
8.14
7.49
6.51
5.25
3.79
2.18
0.50
-1.15
-2.65
-3.90
-4.83
-5.38
-5.51
-5.14
-4.21
-2.63
-0.40
2.43
5.68
9.08
12.23
14.75
16.28
16.66
15.92
14.33
12.26
10.10
8.10
6.35
4.82
3.40
2.01
0.54
-1.07
-2.90
-4.91
-6.94
-8.67
-9.73
-9.84
-8.95
-7.26
-5.15
-3.06
-1.33
-0.13
0.52
0.67
0.44
-0.06
-0.69
-1.29
-1.74
-1.94
-1.88
-1.65
-1.36
-1.11
-0.91
-0.69
-0.31
0.32
1.26
2.45
3.75
4.99
6.01
6.67
6.89
6.69
6.13
5.32
4.38
3.34
2.14
0.64
-1.26
-3.58
-6.19
-8.80
-11.16
-13.10
-14.60
-15.79
-16.85
-17.93
-19.04
-20.10
-20.93
-21.35
-21.21
-20.40
-18.89
-16.76
-14.17
-11.38
-8.66
-6.27
-4.33
-2.83
-1.55
-0.19
1.50
3.67
6.21
8.91
11.47
13.68
15.43
16.79
17.82
18.58
19.07
19.26
19.11
18.67
18.03
17.25
16.35
15.26
13.87
12.14
10.14
8.00
5.92
4.00
2.28
0.72
-0.73
-2.08
-3.28
-4.31
-5.21
-6.15
-7.34
-8.92
-10.89
-12.98
-14.80
-15.94
-16.15
-15.37
-13.79
-11.71
-9.45
-7.28
-5.38
-3.80
-2.53
-1.49
-0.54
0.45
1.57
2.82
4.17
5.56
6.95
8.31
9.59
10.67
11.38
11.60
11.29
10.54
9.50
8.31
7.07
5.83
4.62
3.48
2.45
1.52
0.64
-0.30
-1.36
-2.51
-3.61
-4.50
-5.07
-5.30
-5.30
-5.25
-5.31
-5.62
-6.18
-6.93
-7.70
-8.30
-8.54
-8.28
-7.44
-6.06
-4.22
-2.07
0.20
2.40
4.35
5.92
7.03
7.70
7.96
7.92
7.65
7.24
6.79
6.36
6.00
5.70
5.41
5.11
4.82
4.64
4.65
4.93
5.36
5.76
5.86
5.49
4.62
3.38
2.02
0.75
-0.24
-0.89
-1.24
-1.42
-1.60
-1.95
-2.63
-3.64
-4.90
-6.24
-7.42
-8.20
-8.41
-7.94
-6.78
-5.02
-2.83
-0.45
1.85
3.83
5.32
6.27
6.68
6.68
6.42
6.07
5.78
5.61
5.52
5.43
5.22
4.88
4.43
4.01
3.71
3.56
3.49
3.37
3.06
2.48
1.65
0.61
-0.53
-1.68
-2.76
-3.70
-4.43
-4.94
-5.29
-5.62
-6.08
-6.72
-7.49
-8.20
-8.59
-8.45
-7.68
-6.32
-4.49
-2.31
0.11
2.63
5.10
7.27
8.86
9.65
9.56
8.69
7.27
5.57
3.76
1.94
0.14
-1.62
-3.22
-4.50
-5.31
-5.57
-5.34
-4.79
-4.10
-3.47
-2.99
-2.72
-2.70
-2.94
-3.43
-4.16
-5.07
-6.11
-7.18
-8.26
-9.31
-10.32
-11.22
-11.89
-12.14
-11.77
-10.64
-8.70
-6.06
-2.95
0.31
3.34
5.80
7.47
8.32
8.46
8.14
7.54
6.76
5.78
4.56
3.14
1.71
0.57
-0.06
-0.11
0.23
0.68
0.94
0.90
0.59
0.14
-0.31
-0.75
-1.24
-1.85
-2.57
-3.35
-4.04
-4.52
-4.73
-4.69
-4.52
-4.38
-4.42
-4.69
-5.08
-5.36
-5.24
-4.48
-2.98
-0.84
1.66
4.13
6.21
7.62
8.25
8.19
7.62
6.77
5.80
4.83
3.89
3.02
2.31
1.88
1.80
2.08
2.59
3.11
3.46
3.53
3.34
2.91
2.33
1.62
0.82
0.01
-0.72
-1.27
-1.63
-1.90
-2.24
-2.80
-3.67
-4.79
-6.00
-7.16
-8.21
-9.13
-9.93
-10.52
-10.71
-10.28
-9.08
-7.16
-4.74
-2.14
0.32
2.41
4.03
5.17
5.88
6.23
6.31
6.26
6.16
6.03
5.82
5.47
4.97
4.41
3.97
3.80
3.91
4.16
4.30
4.19
3.79
3.21
2.60
2.03
1.45
0.77
-0.06
-0.98
-1.83
-2.50
-2.93
-3.26
-3.70
-4.42
-5.50
-6.88
-8.42
-9.93
-11.26
-12.25
-12.75
-12.59
-11.65
-9.90
-7.47
-4.65
-1.83
0.62
2.47
3.70
4.44
4.91
5.26
5.56
5.74
5.74
5.53
5.19
4.86
4.66
4.61
4.63
4.60
4.45
4.17
3.84
3.57
3.43
3.46
3.64
3.89
4.10
4.15
3.97
3.49
2.77
1.93
1.16
0.60
0.25
0.01
-0.32
-0.87
-1.62
-2.42
-3.07
-3.45
-3.55
-3.49
-3.35
-3.08
-2.49
-1.35
0.45
2.79
5.34
7.70
9.60
10.95
11.90
12.62
13.29
13.97
14.64
15.18
15.44
15.22
14.30
12.45
9.48
5.34
0.20
-5.52
-11.23
-16.30
-20.23
-22.77
-23.90
-23.80
-22.70
-20.75
-18.06
-14.73
-10.93
-6.99
-3.35
-0.41
1.60
2.66
2.99
2.94
2.77
2.69
2.66
2.57
2.23
1.57
0.61
-0.44
-1.32
-1.79
-1.73
-1.22
-0.48
0.26
0.92
1.55
2.43
3.83
5.91
8.51
11.25
13.56
14.98
15.26
14.46
12.79
10.54
7.83
4.70
1.10
-2.87
-6.94
-10.64
-13.42
-14.85
-14.71
-13.10
-10.29
-6.74
-2.92
0.70
3.70
5.78
6.71
6.43
4.99
2.59
-0.48
-3.81
-6.97
-9.59
-11.49
-12.66
-13.33
-13.79
-14.28
-14.84
-15.30
-15.35
-14.68
-13.13
-10.69
-7.53
-3.95
-0.29
3.08
5.78
7.53
8.24
8.03
7.19
6.14
5.19
4.52
4.18
4.11
4.24
4.54
4.98
5.52
6.04
6.41
6.53
6.40
6.06
5.61
5.14
4.68
4.25
3.86
3.46
3.04
2.55
1.94
1.20
0.36
-0.57
-1.54
-2.56
-3.64
-4.80
-6.03
-7.25
-8.32
-9.08
-9.34
-8.96
-7.80
-5.86
-3.24
-0.20
2.88
5.67
7.89
9.42
10.24
10.38
9.90
8.85
7.35
5.59
3.83
2.30
1.20
0.65
0.64
1.10
1.85
2.71
3.43
3.87
3.95
3.71
3.26
2.67
1.92
0.94
-0.35
-1.92
-3.60
-5.11
-6.21
-6.71
-6.62
-6.07
-5.25
-4.39
-3.65
-3.16
-2.96
-3.01
-3.16
-3.17
-2.80
-1.88
-0.41
1.41
3.29
4.97
6.29
7.23
7.84
8.13
8.03
7.45
6.37
4.93
3.35
1.92
0.79
-0.04
-0.71
-1.37
-2.09
-2.80
-3.32
-3.51
-3.29
-2.82
-2.32
-2.03
-2.14
-2.69
-3.62
-4.78
-6.01
-7.15
-8.08
-8.71
-9.04
-9.17
-9.24
-9.41
-9.82
-10.45
-11.16
-11.70
-11.75
-11.08
-9.61
-7.45
-4.88
-2.24
0.21
2.36
4.23
5.91
7.45
8.77
9.73
10.19
10.14
9.71
9.15
8.72
8.56
8.67
8.88
9.00
8.92
8.62
8.20
7.83
7.60
7.54
7.57
7.59
7.48
7.19
6.72
6.07
5.19
3.98
2.32
0.23
-2.17
-4.55
-6.61
-8.14
-9.14
-9.82
-10.45
-11.14
-11.78
-12.06
-11.67
-10.40
-8.26
-5.47
-2.37
0.69
3.38
5.44
6.67
6.99
6.50
5.42
4.05
2.70
1.59
0.78
0.26
-0.00
-0.04
0.18
0.65
1.37
2.30
3.33
4.40
5.40
6.22
6.70
6.64
5.89
4.39
2.32
0.02
-2.06
-3.57
-4.34
-4.46
-4.19
-3.85
-3.66
-3.75
-4.17
-4.93
-6.00
-7.29
-8.59
-9.57
-9.86
-9.25
-7.75
-5.64
-3.31
-1.16
0.57
1.82
2.62
3.04
3.15
2.99
2.63
2.16
1.68
1.28
1.00
0.83
0.72
0.61
0.45
0.21
-0.13
-0.51
-0.89
-1.20
-1.41
-1.55
-1.73
-2.00
-2.42
-2.96
-3.57
-4.18
-4.75
-5.27
-5.80
-6.34
-6.90
-7.45
-7.94
-8.37
-8.68
-8.81
-8.67
-8.12
-7.07
-5.48
-3.40
-0.98
1.60
4.19
6.66
8.92
10.79
12.10
12.69
12.54
11.78
10.72
9.82
9.45
9.72
10.39
11.06
11.40
11.26
10.78
10.30
10.29
11.07
12.55
14.22
15.41
15.69
15.03
13.81
12.69
12.56
13.96
16.75
20.04
22.60
23.50
22.36
19.42
15.39
11.70
9.93
11.23
15.79
22.74
30.12
35.06
34.31
24.51
5.01
-20.60
-45.56
-63.84
-72.95
-74.01
-70.03
-64.05
-58.19
-52.50
-46.09
-38.69
-31.11
-24.83
-20.88
-19.17
-18.85
-20.37
-23.59
-29.13
-37.96
-49.83
-61.56
-67.47
-61.70
-39.23
-4.22
34.37
68.00
91.36
103.09
104.48
96.92
80.93
57.26
29.83
5.02
-7.87
-3.02
16.95
41.41
56.87
54.01
31.53
-4.25
-43.59
-76.88
-99.60
-112.57
-117.73
-114.89
-101.23
-74.35
-31.48
20.24
71.60
117.39
153.77
178.63
187.85
179.34
152.89
110.93
55.45
-2.40
-48.84
-75.95
-85.01
-83.09
-76.86
-69.63
-61.39
-51.50
-39.14
-26.02
-15.93
-11.89
-14.27
-20.36
-26.04
-27.86
-24.54
-16.41
-6.33
1.50
3.83
0.05
-7.35
-14.42
-17.59
-15.32
-7.99
1.44
9.12
12.25
9.98
3.41
-5.46
-14.55
-21.86
-24.34
-19.03
-3.71
20.95
50.11
75.24
87.23
80.27
54.80
17.65
-21.78
-55.26
-79.53
-96.21
-108.65
-118.13
-122.08
-115.53
-92.78
-56.78
-15.40
21.11
44.71
53.15
50.24
42.97
37.67
36.90
38.90
40.47
39.19
34.96
29.81
26.40
26.33
29.35
33.69
36.71
37.07
34.90
31.66
29.31
29.27
31.76
35.72
39.45
41.38
41.13
39.46
37.67
37.05
38.36
41.85
47.20
53.42
58.62
60.30
56.11
44.93
27.96
8.57
-9.21
-22.76
-32.19
-39.94
-49.19
-60.84
-73.26
-82.89
-86.26
-82.00
-71.59
-58.43
-45.99
-36.31
-29.52
-24.74
-20.95
-17.85
-15.82
-15.59
-17.65
-21.86
-27.75
-34.86
-43.50
-53.97
-65.70
-76.12
-80.74
-74.48
-54.01
-19.72
24.20
70.91
113.37
145.95
164.98
168.54
156.29
129.96
93.65
54.14
18.97
-5.50
-16.61
-16.38
-10.25
-4.50
-3.35
-8.54
-18.63
-31.05
-42.90
-51.99
-57.44
-59.71
-60.08
-59.81
-60.99
-65.22
-74.23
-88.18
-105.13
-121.01
-130.37
-128.25
-111.67
-82.40
-40.90
7.65
57.82
106.49
153.80
201.80
249.35
296.98
337.51
362.95
366.73
347.17
307.59
254.60
195.39
135.71
79.44
26.66
-21.59
-63.56
-97.25
-122.70
-142.82
-162.84
-188.43
-222.94
-268.45
-320.65
-370.10
-405.33
-417.80
-405.53
-374.17
-334.77
-284.99
-229.11
-172.30
-117.72
-65.23
-14.57
31.98
70.01
96.23
111.28
117.45
119.78
122.82
128.26
134.14
137.03
134.33
126.09
115.31
104.54
96.65
93.19
93.22
92.94
88.04
75.55
55.11
28.82
-0.92
-30.78
-57.10
-74.26
-79.76
-72.98
-55.55
-31.21
-4.77
18.70
36.32
47.75
54.60
58.71
61.38
62.23
59.00
48.73
29.44
2.48
-26.88
-50.83
-62.62
-59.11
-42.93
-21.05
-1.08
12.17
18.74
22.49
27.86
36.20
44.36
45.98
35.39
11.48
-20.48
-50.50
-68.08
-67.29
-49.61
-23.26
1.09
15.49
17.99
12.55
5.83
3.13
5.70
11.02
15.13
15.25
11.13
4.90
-0.76
-3.61
-2.92
0.29
4.45
8.52
12.86
19.15
28.85
41.46
53.76
60.77
58.02
44.31
22.63
-0.86
-19.16
-28.03
-27.58
-21.37
-13.96
-9.03
-8.09
-11.32
-18.78
-30.91
-48.60
-72.24
-100.02
-127.23
-147.12
-152.97
-140.38
-111.57
-74.16
-36.79
-7.12
11.37
20.25
24.44
29.09
36.95
47.44
58.03
66.10
70.35
71.47
71.40
72.13
74.67
78.63
82.32
83.97
82.60
78.69
74.39
72.53
74.56
79.32
83.30
82.63
75.65
63.57
49.57
36.57
25.46
15.36
5.79
-1.36
-2.02
7.35
25.67
45.80
56.72
48.80
19.11
-26.75
-77.07
-119.83
-147.92
-161.57
-166.51
-170.70
-180.73
-200.00
-228.07
-261.42
-294.80
-319.63
-329.07
-319.59
-292.23
-252.38
-207.57
-164.34
-126.05
-92.34
-60.17
-26.22
11.70
53.75
97.70
139.06
171.98
190.93
192.82
178.82
154.35
127.43
105.80
94.36
93.70
101.15
112.77
125.33
137.38
149.21
161.70
175.23
189.02
200.98
208.56
209.68
203.46
190.72
173.92
156.66
142.94
135.66
135.68
141.54
149.48
153.98
149.51
132.48
103.20
66.22
28.59
-3.11
-25.37
-38.47
-45.82
-54.22
-68.68
-89.77
-113.93
-137.04
-158.34
-179.84
-202.50
-223.95
-236.33
-230.99
-202.96
-154.31
-93.86
-34.47
10.17
31.14
28.11
14.28
3.28
5.91
26.02
62.67
109.46
156.31
192.39
204.75
187.27
142.35
80.87
17.95
-32.38
-60.79
-63.69
-43.28
-7.59
31.52
61.71
72.80
59.54
24.24
-23.47
-69.42
-99.77
-106.37
-88.43
-53.30
-13.44
17.53
28.62
15.58
-18.03
-63.71
-112.79
-158.33
-196.00
-222.49
-234.43
-228.32
-202.72
-160.35
-106.08
-51.00
-6.83
19.84
30.30
31.25
31.70
36.78
47.85
63.97
83.19
104.54
126.41
147.11
163.91
173.55
173.47
163.37
145.33
122.73
99.64
79.55
64.62
55.28
50.78
49.74
50.90
53.05
54.71
54.81
52.90
49.36
45.03
40.90
37.74
35.76
34.30
31.64
25.60
14.29
-3.04
-25.66
-51.27
-76.59
-98.23
-113.73
-122.22
-124.31
-121.52
-115.49
-107.58
-98.61
-89.10
-79.45
-70.05
-61.22
-53.13
-45.70
-38.72
-31.99
-25.41
-19.07
-13.16
-8.00
-3.95
-1.35
-0.35
-0.85
-2.42
-4.53
-6.76
-9.05
-11.75
-15.42
-20.49
-26.90
-34.03
-40.88
-46.45
-50.07
-51.55
-51.07
-48.96
-45.43
-40.57
-34.45
-27.39
-20.07
-13.44
-8.45
-5.68
-5.14
-6.28
-8.17
-9.78
-10.30
-9.32
-6.84
-3.24
0.90
4.94
8.42
11.09
12.96
14.15
14.82
15.08
14.99
14.68
14.34
14.19
14.35
14.82
15.39
15.76
15.75
15.29
14.51
13.56
12.46
11.13
9.39
7.14
4.39
1.34
-1.82
-4.93
-7.93
-10.81
-13.52
-15.98
-18.12
-19.86
-21.21
-22.14
-22.51
-22.08
-20.55
-17.76
-13.84
-9.21
-4.44
-0.09
3.46
6.12
7.93
9.08
9.73
10.01
9.98
9.65
9.00
8.05
6.85
5.55
4.32
3.30
2.55
2.02
1.56
1.03
0.36
-0.44
-1.31
-2.14
-2.90
-3.62
-4.34
-5.12
-6.01
-7.11
-8.55
-10.52
-13.10
-16.19
-19.40
-22.03
-23.30
-22.59
-19.71
-14.93
-9.01
-2.80
2.93
7.76
11.62
14.71
17.26
19.45
21.28
22.65
23.47
23.71
23.42
22.70
21.66
20.36
18.89
17.34
15.82
14.44
13.23
12.15
11.03
9.70
8.06
6.09
3.89
1.63
-0.52
-2.44
-4.12
-5.62
-7.08
-8.73
-10.73
-13.13
-15.75
-18.18
-19.86
-20.27
-19.07
-16.30
-12.27
-7.54
-2.70
1.74
5.46
8.32
10.38
11.74
12.58
13.03
13.18
13.08
12.69
12.01
11.04
9.82
8.45
6.99
5.52
4.11
2.77
1.53
0.40
-0.60
-1.47
-2.17
-2.72
-3.10
-3.34
-3.46
-3.49
-3.50
-3.57
-3.83
-4.47
-5.65
-7.42
-9.65
-11.97
-13.86
-14.73
-14.15
-11.88
-7.99
-2.89
2.85
8.60
13.72
17.81
20.65
22.24
22.72
22.32
21.22
19.63
17.73
15.75
13.90
12.35
11.13
10.18
9.31
8.35
7.22
5.97
4.71
3.58
2.59
1.62
0.47
-0.98
-2.70
-4.51
-6.12
-7.32
-8.06
-8.48
-8.80
-9.27
-10.06
-11.19
-12.54
-13.82
-14.64
-14.55
-13.19
-10.47
-6.58
-2.03
2.55
6.60
9.77
12.00
13.35
13.97
13.97
13.44
12.51
11.36
10.21
9.27
8.66
8.39
8.34
8.36
8.34
8.22
8.01
7.77
7.53
7.31
7.04
6.59
5.87
4.78
3.38
1.82
0.36
-0.79
-1.51
-1.84
-1.97
-2.19
-2.73
-3.72
-5.07
-6.53
-7.72
-8.21
-7.71
-6.06
-3.39
-0.00
3.63
7.04
9.83
11.73
12.65
12.61
11.77
10.38
8.67
6.89
5.23
3.78
2.58
1.65
0.95
0.47
0.19
0.09
0.12
0.19
0.25
0.21
0.04
-0.27
-0.73
-1.33
-2.06
-2.90
-3.78
-4.63
-5.37
-6.03
-6.72
-7.61
-8.84
