1592925729.00
64.000000
-0.00
-0.00
-0.00
-0.00
-0.00
-0.00
-0.00
-0.00
-0.00
-0.00
0.00
0.01
0.01
-0.00
-0.03
-0.05
-0.05
0.00
0.13
0.36
0.66
1.01
1.37
1.72
2.06
2.40
2.79
3.24
3.80
4.42
5.06
5.66
6.20
6.68
7.15
7.68
8.31
9.14
10.09
11.04
11.88
12.56
13.14
13.76
14.65
15.96
17.91
20.32
22.90
25.38
27.58
29.57
31.68
34.32
37.81
42.54
48.15
54.10
59.83
64.97
69.58
74.14
79.34
85.71
93.76
103.00
112.62
121.73
129.77
136.75
143.30
150.75
157.77
166.64
177.95
191.79
206.97
220.57
228.25
225.36
208.53
176.87
132.76
80.05
23.07
-34.94
-92.44
-149.16
-205.23
-260.37
-313.74
-363.87
-409.83
-450.91
-486.50
-515.74
-537.23
-549.22
-549.96
-538.37
-514.21
-478.67
-433.88
-382.45
-327.02
-269.84
-212.63
-156.66
-102.95
-52.37
-5.90
35.58
71.43
101.35
125.50
144.38
158.69
169.15
176.37
180.75
182.57
182.07
179.51
175.23
169.65
163.18
156.15
148.81
141.30
133.69
126.02
118.33
110.69
103.16
95.80
88.68
81.83
75.25
68.95
62.95
57.25
51.86
46.78
42.03
37.59
33.45
29.61
26.07
22.81
19.83
17.11
14.67
12.48
10.54
8.83
7.35
6.07
4.97
4.05
3.27
2.62
2.09
1.65
1.30
1.01
0.79
0.61
0.47
0.37
0.29
0.23
0.19
0.17
0.15
0.15
0.16
0.18
0.20
0.23
0.27
0.31
0.35
0.39
0.44
0.49
0.53
0.58
0.63
0.69
0.75
0.81
0.88
0.96
1.04
1.13
1.23
1.35
1.49
1.66
1.84
2.02
2.18
2.33
2.46
2.60
2.78
3.03
3.36
3.76
4.20
4.66
5.10
5.53
5.98
6.49
7.09
7.79
8.58
9.40
10.19
10.90
11.54
12.19
12.94
13.90
15.07
16.40
17.70
18.79
19.49
19.77
19.68
19.35
18.87
18.18
17.06
15.13
12.06
7.65
2.03
-4.30
-10.67
-16.43
-21.23
-25.10
-28.43
-31.72
-35.32
-39.20
-42.90
-45.79
-47.36
-47.46
-46.42
-44.93
-43.82
-43.78
-45.38
-48.79
-53.61
-58.61
-61.68
-60.35
-52.77
-38.61
-19.60
0.98
19.42
32.96
40.60
43.11
42.19
39.53
36.24
32.72
29.09
25.56
22.44
20.11
18.71
18.08
17.83
17.52
16.76
15.38
13.39
11.00
8.61
6.63
5.36
4.85
4.82
4.70
3.95
2.27
-0.21
-2.97
-5.36
-6.91
-7.60
-7.86
-8.38
-9.68
-11.87
-14.71
-17.68
-20.30
-22.34
-24.01
-25.70
-27.73
-29.99
-31.86
-32.41
-30.75
-26.46
-19.80
-11.65
-3.18
4.58
11.06
16.19
20.28
23.71
26.69
29.19
30.89
31.57
31.25
30.23
29.08
28.30
28.10
28.25
28.25
27.54
25.92
23.58
21.05
18.88
17.29
16.05
14.62
12.50
9.50
5.86
2.10
-1.29
-4.19
-6.85
-9.78
-13.42
-17.84
-22.67
-27.35
-31.41
-34.82
-38.05
-41.84
-46.83
-53.11
-60.05
-66.52
-71.32
-73.79
-74.00
-72.77
-71.16
-70.06
-69.85
-70.47
-71.68
-73.43
-76.03
-80.06
-86.05
-94.08
-103.71
-114.02
-123.96
-132.71
-139.93
-145.77
-150.46
-153.95
-155.59
-154.30
-148.98
-139.17
-125.38
-109.03
-91.91
-75.55
-60.83
-48.01
-37.20
-28.73
-23.40
-22.02
-24.89
-31.27
-39.38
-46.89
-51.55
-51.81
-46.90
-36.82
-22.00
-3.07
19.12
43.50
68.67
93.06
115.14
133.74
148.26
158.73
165.74
170.12
172.77
174.43
175.47
175.86
175.13
172.46
166.97
157.98
145.35
129.63
111.88
93.39
75.31
58.44
43.36
30.69
21.12
15.39
13.91
16.38
21.83
28.79
35.79
41.72
45.99
48.44
49.20
48.62
47.08
44.95
42.54
40.02
37.50
35.17
33.22
31.91
31.46
32.01
33.80
37.17
42.50
50.02
59.48
70.10
80.80
90.70
99.41
107.12
114.10
120.30
125.03
127.22
126.01
121.25
113.66
104.42
94.61
84.74
74.70
64.14
52.94
41.59
31.09
22.58
16.76
13.61
12.26
11.49
10.15
7.66
4.05
-0.16
-4.36
-8.03
-10.90
-12.74
-13.23
-11.96
-8.58
-3.09
3.91
11.35
17.99
22.81
25.34
25.65
24.11
21.15
16.99
11.78
5.70
-0.81
-7.09
-12.49
-16.66
-19.82
-22.70
-26.27
-31.35
-38.22
-46.59
-55.69
-64.71
-73.13
-81.04
-88.91
-97.48
-107.17
-117.92
-129.07
-139.59
-148.48
-155.10
-159.29
-161.25
-161.21
-159.20
-154.99
-148.34
-139.26
-128.31
-116.47
-104.88
-94.34
-85.14
-77.12
-69.98
-63.67
-58.42
-54.58
-52.21
-50.80
-49.36
-46.69
-41.91
-34.80
-25.90
-16.24
-6.93
1.30
8.26
14.26
19.88
25.55
31.37
37.04
42.04
45.95
48.57
50.02
50.58
50.39
49.41
47.37
44.05
39.52
34.21
28.81
24.07
20.37
17.68
15.55
13.40
10.86
7.94
5.04
2.63
1.06
0.27
-0.14
-0.68
-1.64
-2.94
-4.15
-4.67
-4.15
-2.66
-0.73
0.91
1.64
1.26
0.00
-1.55
-2.87
-3.70
-4.14
-4.49
-4.91
-5.24
-4.96
-3.41
-0.15
4.78
10.78
17.01
22.71
27.50
31.44
34.89
38.17
41.30
44.02
45.91
46.77
46.68
46.07
45.46
45.19
45.30
45.47
45.30
44.50
43.10
41.36
39.66
38.25
37.03
35.70
33.92
31.69
29.45
27.97
27.99
29.76
32.90
36.47
39.42
41.03
41.06
39.79
37.61
34.84
31.66
28.22
24.82
21.90
19.89
18.97
18.90
19.14
19.07
18.30
16.84
15.13
13.80
13.48
14.49
16.76
19.86
23.20
26.30
28.97
31.38
33.87
36.79
40.24
44.05
47.97
51.87
55.87
60.21
65.02
70.03
74.49
77.52
78.55
77.82
76.50
76.26
78.67
84.46
93.18
103.47
113.70
122.69
130.23
136.94
143.81
151.58
160.14
168.46
174.89
177.86
176.73
172.15
165.78
159.42
153.87
148.45
141.26
130.07
113.23
90.12
61.12
27.37
-9.03
-44.60
-74.29
-92.26
-93.88
-78.06
-48.39
-12.12
22.85
51.34
72.74
90.26
108.24
129.03
151.51
171.66
184.74
187.52
179.46
162.26
138.61
110.93
80.91
49.70
18.44
-11.61
-39.31
-64.23
-86.95
-108.99
-132.24
-158.19
-187.45
-219.53
-253.33
-287.68
-322.04
-357.09
-394.83
-438.09
-489.14
-547.84
-610.12
-667.86
-710.73
-729.55
-719.71
-682.87
-626.10
-558.87
-489.46
-422.60
-359.37
-298.55
-238.60
-178.80
-119.40
-61.21
-5.29
46.96
93.61
132.42
161.50
180.05
188.60
188.98
183.58
174.88
165.10
156.13
149.43
145.71
144.59
144.56
143.38
138.94
130.17
117.43
102.41
87.39
74.58
65.40
60.29
58.86
60.09
62.74
65.58
67.69
68.53
67.90
65.82
62.52
58.38
53.94
49.85
46.67
44.57
43.15
41.62
39.02
34.73
28.73
21.53
13.98
6.85
0.63
-4.49
-8.46
-11.39
-13.49
-15.22
-17.27
-20.30
-24.68
-30.26
-36.40
-42.27
-47.16
-50.76
-53.02
-53.96
-53.48
-51.29
-47.21
-41.39
-34.36
-26.90
-19.71
-13.11
-7.05
-1.23
4.61
10.55
16.61
22.81
29.27
36.06
43.07
49.74
55.16
58.29
58.43
55.55
50.34
43.90
37.23
30.89
24.93
19.24
14.08
10.28
9.01
11.08
16.26
23.00
28.89
31.51
29.39
22.44
11.75
-0.88
-13.57
-24.60
-32.66
-37.06
-37.95
-36.44
-34.40
-33.80
-35.92
-40.74
-47.06
-53.05
-57.20
-58.93
-58.51
-56.47
-53.02
-47.76
-40.02
-29.47
-16.64
-2.96
9.76
20.03
27.25
31.84
34.82
37.21
39.48
41.38
42.20
41.30
38.56
34.62
30.68
28.02
27.41
28.73
31.02
32.83
32.89
30.60
26.26
20.78
15.29
10.59
6.94
4.07
1.53
-1.02
-3.61
-6.01
-7.97
-9.38
-10.38
-11.31
-12.48
-14.02
-15.71
-17.11
-17.69
-17.10
-15.23
-12.24
-8.44
-4.18
0.29
4.86
9.59
14.65
20.21
26.31
32.73
39.00
44.54
48.84
51.68
53.09
53.35
52.70
51.33
49.35
46.93
44.30
41.75
39.43
37.24
34.83
31.74
27.70
22.79
17.38
12.06
7.38
3.71
1.09
-0.72
-2.15
-3.65
-5.54
-7.96
-10.89
-14.14
-17.56
-21.01
-24.41
-27.63
-30.41
-32.27
-32.65
-31.09
-27.47
-22.06
-15.51
-8.57
-1.78
4.72
11.18
18.10
25.93
34.77
44.35
54.03
63.02
70.57
76.22
79.95
82.22
83.91
86.17
90.13
96.53
105.35
115.66
125.80
133.88
138.64
140.09
139.63
139.56
142.09
148.43
158.37
170.40
182.40
192.18
197.77
197.46
189.86
174.09
150.18
119.30
83.45
44.63
4.13
-37.47
-79.50
-120.12
-155.85
-182.47
-196.74
-197.99
-188.52
-172.40
-153.61
-134.69
-116.81
-100.82
-88.41
-82.13
-84.25
-95.12
-112.30
-131.06
-146.08
-153.46
-151.77
-142.00
-126.58
-108.23
-89.32
-71.76
-57.40
-48.15
-45.84
-51.42
-64.24
-81.61
-99.36
-113.32
-120.89
-121.97
-118.49
-112.98
-107.15
-101.30
-94.76
-86.91
-77.72
-67.57
-56.65
-44.81
-32.11
-19.87
-11.10
-9.74
-18.52
-37.04
-61.15
-84.38
-100.53
-106.06
-100.94
-87.87
-70.63
-52.61
-36.22
-22.89
-13.35
-7.53
-4.50
-2.52
0.46
5.84
13.80
23.12
31.77
37.87
40.62
40.60
39.42
38.99
40.66
44.71
50.34
56.19
60.96
64.04
65.59
66.14
66.02
64.97
62.33
57.60
50.98
43.57
36.82
31.71
28.26
25.39
21.53
15.42
6.72
-3.79
-14.57
-23.77
-29.89
-32.02
-30.02
-24.56
-16.99
-9.14
-2.96
0.01
-0.83
-4.94
-10.77
-16.27
-19.73
-20.44
-19.03
-17.08
-16.31
-17.73
-21.10
-24.97
-27.34
-26.40
-21.17
-11.68
1.22
16.17
31.70
46.40
59.12
69.05
75.69
78.89
78.81
75.89
70.85
64.62
58.13
52.13
46.93
42.41
38.15
33.66
28.73
23.43
18.02
12.76
7.79
3.19
-0.84
-3.96
-5.66
-5.52
-3.43
0.34
5.23
10.53
15.56
19.82
22.96
24.78
25.20
24.23
22.11
19.24
16.14
13.23
10.75
8.74
7.06
5.59
4.27
3.20
2.51
2.32
2.65
3.41
4.38
5.32
5.98
6.22
6.01
5.47
4.81
4.22
3.84
3.67
3.67
3.79
4.04
4.34
4.50
4.07
2.50
-0.62
-5.28
-10.80
-16.06
-19.79
-21.08
-19.74
-16.35
-11.99
-7.83
-4.63
-2.48
-0.98
0.54
2.58
5.20
8.02
10.47
12.07
12.60
12.16
10.96
9.19
6.90
4.05
0.76
-2.58
-5.26
-6.55
-5.98
-3.66
-0.29
3.02
5.16
5.51
4.12
1.71
-0.68
-2.13
-2.26
-1.32
0.01
1.03
1.39
1.16
0.78
0.69
1.06
1.60
1.73
0.85
-1.25
-4.25
-7.33
-9.48
-9.94
-8.41
-5.20
-1.01
3.33
7.16
10.12
12.13
13.30
13.74
13.60
13.02
12.19
11.27
10.40
9.63
8.88
8.07
7.16
6.21
5.36
4.83
4.82
5.38
6.38
7.50
8.33
8.47
7.69
5.96
3.43
0.41
-2.73
-5.55
-7.66
-8.77
-8.80
-8.01
-6.91
-6.19
-6.47
-8.08
-10.99
-14.71
-18.41
-21.12
-21.95
-20.44
-16.78
-11.82
-6.74
-2.55
0.34
2.20
3.73
5.51
7.58
9.46
10.49
10.31
9.13
7.61
6.43
5.94
5.92
5.78
4.90
3.01
0.34
-2.41
-4.43
-5.14
-4.48
-2.90
-1.21
-0.16
-0.15
-1.04
-2.27
-3.25
-3.64
-3.53
-3.37
-3.62
-4.46
-5.73
-7.02
-7.93
-8.38
-8.70
-9.47
-11.15
-13.85
-17.13
-20.24
-22.39
-23.01
-21.83
-18.86
-14.24
-8.31
-1.70
4.61
9.46
11.87
11.60
9.38
6.65
5.03
5.52
8.09
11.71
14.86
16.36
15.80
13.67
11.11
9.30
8.95
10.02
11.87
13.56
14.38
14.12
13.08
11.87
11.01
10.65
10.55
10.23
9.28
7.69
5.79
4.06
2.87
2.21
1.74
0.95
-0.47
-2.45
-4.54
-6.14
-6.81
-6.57
-5.89
-5.43
-5.69
-6.76
-8.25
-9.52
-9.99
-9.41
-7.89
-5.82
-3.61
-1.54
0.31
1.95
3.43
4.70
5.67
6.25
6.39
6.13
5.58
4.97
4.51
4.41
4.74
5.41
6.21
6.86
7.20
7.21
7.02
6.79
6.55
6.21
5.60
4.63
3.35
1.98
0.77
-0.13
-0.76
-1.36
-2.22
-3.63
-5.64
-7.99
-10.19
-11.71
-12.20
-11.67
-10.42
-8.93
-7.56
-6.35
-5.09
-3.49
-1.38
1.17
3.87
6.41
8.62
10.47
12.00
13.18
13.83
13.74
12.79
11.12
9.19
7.59
6.81
6.97
7.78
8.66
9.15
9.05
8.52
7.91
7.40
6.89
5.97
4.25
1.62
-1.55
-4.53
-6.52
-7.01
-6.09
-4.40
-2.88
-2.36
-3.23
-5.26
-7.73
-9.82
-10.97
-11.09
-10.56
-9.93
-9.57
-9.39
-8.98
-7.74
-5.35
-1.87
2.22
6.30
9.86
12.65
14.68
15.99
16.53
16.20
14.92
12.80
10.15
7.43
5.09
3.38
2.37
1.96
1.97
2.28
2.69
3.00
2.97
2.38
1.06
-0.98
-3.58
-6.44
-9.14
-11.23
-12.39
-12.53
-11.89
-10.96
-10.32
-10.37
-11.20
-12.57
-14.02
-15.13
-15.76
-16.09
-16.51
-17.36
-18.66
-20.06
-20.95
-20.80
-19.40
-16.91
-13.75
-10.36
-7.05
-3.93
-1.02
1.66
4.01
5.84
7.02
7.53
7.52
7.22
6.92
6.81
6.98
7.35
7.73
7.95
7.93
7.83
7.90
8.38
9.23
10.11
10.50
9.98
8.46
6.32
4.16
2.59
1.89
1.93
2.28
2.43
2.06
1.11
-0.23
-1.70
-3.08
-4.28
-5.28
-6.13
-6.85
-7.45
-7.86
-7.99
-7.67
-6.72
-4.95
-2.26
1.21
5.10
8.86
11.85
13.55
13.72
12.49
10.34
7.94
5.89
4.54
3.85
3.46
2.85
1.68
-0.04
-1.94
-3.48
-4.17
-3.94
-3.12
-2.28
-1.95
-2.36
-3.33
-4.39
-5.07
-5.19
-4.89
-4.60
-4.67
-5.25
-6.19
-7.11
-7.72
-7.94
-7.99
-8.25
-9.07
-10.52
-12.33
-13.97
-14.77
-14.15
-11.84
-7.96
-3.04
2.09
6.53
9.59
10.96
10.82
9.74
8.46
7.52
7.12
7.05
6.89
6.27
5.08
3.54
2.00
0.83
0.17
-0.05
-0.01
0.12
0.29
0.49
0.72
0.88
0.81
0.37
-0.43
-1.46
-2.52
-3.52
-4.50
-5.53
-6.66
-7.71
-8.38
-8.40
-7.78
-6.89
-6.37
-6.88
-8.67
-11.48
-14.48
-16.64
-17.13
-15.65
-12.47
-8.34
-4.08
-0.29
2.83
5.38
7.53
9.30
10.47
10.74
9.96
8.29
6.25
4.43
3.32
3.09
3.60
4.54
5.58
6.54
7.35
8.07
8.78
9.54
10.39
11.29
12.09
12.62
12.73
12.41
11.83
11.11
10.31
9.27
7.78
5.69
3.04
0.04
-3.08
-6.26
-9.66
-13.43
-17.54
-21.52
-24.55
-25.80
-24.75
-21.58
-17.05
-12.25
-8.20
-5.51
-4.20
-3.81
-3.54
-2.68
-0.77
2.17
5.66
8.96
11.23
11.86
10.64
7.94
4.54
1.45
-0.50
-0.95
-0.09
1.43
2.88
3.77
3.99
3.82
3.64
3.68
3.87
3.96
3.68
2.97
2.06
1.34
1.09
1.36
1.94
2.40
2.35
1.55
0.05
-1.92
-4.10
-6.24
-8.13
-9.58
-10.40
-10.41
-9.58
-8.05
-6.12
-4.05
-1.95
0.28
2.76
5.49
8.17
10.29
11.29
10.89
9.17
6.64
3.93
1.63
0.04
-0.76
-0.93
-0.63
-0.06
0.66
1.41
2.11
2.68
3.08
3.36
3.56
3.69
3.67
3.35
2.61
1.48
0.13
-1.15
-2.14
-2.81
-3.33
-3.98
-4.96
-6.26
-7.63
-8.78
-9.50
-9.80
-9.88
-9.97
-10.22
-10.55
-10.64
-10.08
-8.55
-6.02
-2.81
0.43
3.06
4.68
5.29
5.27
5.12
5.13
5.24
5.11
4.40
3.01
1.23
-0.43
-1.49
-1.73
-1.32
-0.63
-0.06
0.18
0.10
-0.05
-0.01
0.35
0.92
1.43
1.55
1.06
0.04
-1.21
-2.34
-3.09
-3.50
-3.84
-4.38
-5.17
-5.92
-6.15
-5.50
-4.10
-2.56
-1.78
-2.38
-4.30
-6.72
-8.38
-8.23
-5.90
-2.00
2.25
5.49
6.94
6.58
5.08
3.43
2.36
2.13
2.51
3.09
3.58
3.97
4.50
5.38
6.61
7.90
8.84
9.09
8.66
7.84
7.06
6.62
6.48
6.33
5.69
4.26
1.98
-0.84
-3.63
-5.77
-6.78
-6.53
-5.28
-3.59
-2.10
-1.34
-1.48
-2.43
-3.84
-5.38
-6.74
-7.71
-8.00
-7.28
-5.27
-1.91
2.44
7.07
11.06
13.70
14.74
14.45
13.49
12.65
12.53
13.34
14.98
17.07
19.19
21.05
22.51
23.60
24.38
24.93
25.21
25.17
24.78
24.05
23.02
21.63
19.67
16.66
12.04
5.43
-2.95
-12.33
-21.47
-29.19
-34.79
-38.14
-39.65
-39.93
-39.52
-38.79
-37.95
-37.14
-36.49
-36.05
-35.73
-35.28
-34.34
-32.59
-29.81
-26.03
-21.47
-16.50
-11.71
-7.58
-4.45
-2.22
-0.52
1.14
3.08
5.27
7.44
9.26
10.61
11.61
12.52
13.51
14.46
15.03
14.85
13.77
12.00
10.06
8.49
7.58
7.24
7.08
6.69
5.87
4.69
3.39
2.14
0.87
-0.72
-2.90
-5.69
-8.76
-11.57
-13.64
-14.73
-14.89
-14.37
-13.32
-11.76
-9.63
-6.99
-4.16
-1.72
-0.29
-0.33
-1.86
-4.41
-7.15
-9.12
-9.65
-8.70
-7.06
-6.04
-6.92
-10.24
-15.42
-20.93
-24.92
-26.00
-23.78
-18.94
-12.74
-6.40
-0.60
4.50
8.90
12.48
14.83
15.44
14.01
10.84
6.80
3.14
1.06
1.24
3.62
7.40
11.36
14.32
15.48
14.54
11.64
7.12
1.35
-5.30
-12.46
-19.58
-25.98
-30.86
-33.49
-33.44
-30.67
-25.62
-19.06
-11.90
-4.94
1.29
6.51
10.68
13.83
15.95
17.00
17.07
16.35
15.26
14.31
13.96
14.45
15.80
17.77
20.04
22.32
24.41
26.25
27.83
29.14
30.04
30.29
29.60
27.76
24.69
20.53
15.64
10.42
5.30
0.63
-3.35
-6.45
-8.57
-9.67
-9.85
-9.29
-8.33
-7.40
-6.96
-7.37
-8.80
-11.14
-13.96
-16.58
-18.13
-17.79
-14.97
-9.57
-2.15
6.04
13.38
18.38
20.17
18.82
15.27
10.97
7.35
5.33
5.13
6.37
8.29
10.05
10.99
10.75
9.34
7.09
4.46
1.85
-0.55
-2.75
-4.87
-6.95
-8.87
-10.39
-11.34
-11.79
-12.05
-12.56
-13.57
-14.94
-16.19
-16.70
-16.04
-14.27
-11.89
-9.60
-7.95
-7.02
-6.40
-5.45
-3.65
-0.88
2.52
5.96
8.90
11.08
12.51
13.39
13.98
14.45
14.86
15.23
15.50
15.59
15.30
14.45
12.90
10.64
7.91
5.13
2.81
1.41
1.21
2.24
4.20
6.55
8.71
10.21
10.93
11.03
10.82
10.53
10.17
9.56
8.48
6.91
5.07
3.34
2.06
1.35
1.03
0.66
-0.24
-2.00
-4.59
-7.68
-10.66
-12.85
-13.68
-12.92
-10.68
-7.44
-3.76
-0.08
3.38
6.64
9.83
13.20
16.80
20.45
23.81
26.50
28.31
29.16
29.14
28.56
27.98
28.06
29.24
31.59
34.81
38.41
41.61
43.62
43.94
42.83
41.01
39.33
38.47
38.89
40.80
43.83
47.14
49.85
52.05
54.57
58.48
64.36
71.78
79.11
83.26
80.54
67.91
45.08
14.27
-20.82
-56.38
-89.40
-114.89
-127.06
-123.04
-105.98
-81.73
-55.51
-30.39
-7.89
11.17
26.42
37.40
43.72
44.01
39.14
30.55
19.46
6.31
-9.00
-26.78
-47.72
-66.92
-82.96
-95.01
-102.79
-106.30
-106.17
-103.21
-98.23
-92.07
-85.53
-79.99
-75.70
-72.40
-69.43
-66.59
-63.88
-61.24
-58.77
-56.57
-55.33
-55.14
-55.77
-56.64
-57.59
-58.52
-59.12
-59.08
-58.05
-56.12
-53.04
-50.12
-45.83
-39.51
-31.01
-20.27
-7.50
6.86
21.99
37.13
51.60
65.00
77.44
87.91
96.13
102.15
106.22
108.52
109.29
108.75
106.94
103.74
98.96
92.84
85.65
77.65
69.08
60.20
51.27
42.06
32.47
22.61
13.05
4.27
-3.36
-9.68
-14.70
-18.49
-22.15
-26.32
-31.22
-36.45
-41.57
-46.17
-49.96
-52.73
-54.24
-55.50
-56.73
-57.61
-57.06
-54.32
-48.92
-40.87
-30.90
-11.73
17.83
55.82
97.82
139.24
176.06
206.14
228.85
244.56
254.16
257.47
255.65
249.27
239.47
226.87
212.20
196.03
178.77
160.62
140.47
117.35
89.77
62.16
37.20
16.99
3.01
-3.94
-3.73
2.67
14.14
29.59
48.27
68.65
89.42
109.29
127.13
141.99
152.89
159.38
161.48
159.88
155.01
147.58
138.36
128.04
117.19
106.06
94.79
83.53
72.60
62.15
52.52
44.18
37.55
32.77
29.74
28.12
27.47
27.49
27.86
28.44
29.16
29.79
29.84
28.53
24.97
18.43
8.72
-3.86
-18.55
-34.43
-50.82
-67.50
-84.75
-103.21
-123.81
-147.76
-176.34
-210.44
-249.81
-292.34
-334.14
-370.36
-396.85
-411.78
-416.39
-414.44
-410.63
-408.81
-410.83
-416.51
-424.52
-433.41
-442.18
-450.24
-457.08
-461.93
-463.88
-462.48
-458.09
-451.92
-445.47
-439.59
-433.75
-426.05
-413.81
-394.92
-369.00
-337.66
-303.95
-271.14
-241.60
-216.32
-194.97
-176.54
-159.92
-144.41
-129.62
-115.45
-101.96
-89.38
-78.15
-68.84
-61.78
-57.04
-54.61
-54.37
-56.33
-60.56
-67.22
-76.37
-87.83
-100.19
-111.54
-119.94
-123.99
-123.08
-117.11
-106.40
-91.23
-71.75
-46.51
-13.96
26.42
73.73
126.61
184.66
248.69
319.56
396.20
476.23
553.69
619.95
666.44
688.30
686.23
665.03
630.37
586.70
539.81
495.78
460.69
439.46
434.41
444.14
462.88
481.51
475.77
429.73
344.53
238.57
134.58
46.37
-23.10
-77.10
-120.52
-157.03
-185.95
-205.82
-216.91
-221.95
-225.46
-231.04
-239.96
-251.83
-265.08
-275.71
-280.16
-278.13
-269.94
-257.75
-243.79
-228.69
-212.46
-194.72
-173.88
-148.97
-120.56
-89.81
-59.42
-32.43
-10.47
5.16
14.06
17.24
16.39
13.38
12.36
17.27
24.42
33.04
42.96
54.72
69.50
88.44
111.84
142.34
180.38
223.74
269.04
312.05
349.70
380.76
405.61
425.58
446.54
472.45
503.70
537.78
570.04
595.98
612.42
617.45
583.54
497.97
365.45
206.77
47.38
-94.55
-210.92
-301.04
-367.95
-415.71
-444.18
-454.20
-448.82
-433.89
-415.00
-395.52
-376.88
-359.35
-342.54
-323.11
-299.05
-270.64
-240.30
-211.22
-184.70
-160.45
-139.43
-121.75
-105.31
-88.46
-70.50
-51.81
-33.22
-13.82
7.92
33.69
65.11
104.27
152.64
210.91
278.67
343.76
393.86
419.06
416.20
389.57
348.10
300.79
254.21
212.00
175.63
147.05
127.46
116.37
110.33
102.87
86.60
56.44
12.43
-39.95
-90.67
-130.07
-152.76
-159.19
-154.25
-144.06
-133.02
-122.74
-113.09
-103.10
-92.76
-82.97
-74.76
-68.31
-62.73
-56.65
-48.86
-39.43
-29.32
-20.43
-14.53
-12.84
-15.31
-20.85
-27.99
-35.55
-43.36
-51.95
-62.33
-75.02
-89.79
-105.00
-118.57
-128.76
-134.80
-137.28
-137.83
-138.47
-140.59
-144.44
-148.31
-150.22
-148.50
-142.57
-133.10
-121.65
-110.16
-100.66
-95.19
-94.18
-97.04
-101.36
-102.82
-96.18
-77.10
-44.21
-0.02
50.16
102.29
151.55
193.99
227.84
253.27
271.38
282.98
288.38
278.82
251.11
208.20
158.05
108.98
65.90
29.99
-0.15
-26.40
-49.95
-69.68
-84.42
-93.88
-98.94
-101.45
-103.18
-105.79
-110.16
-116.30
-122.42
-126.77
-128.19
-126.47
-122.32
-115.72
-106.74
-95.35
-81.34
-63.80
-42.23
-16.86
11.18
38.56
63.21
83.63
98.90
108.73
113.73
114.90
113.38
110.01
105.71
101.33
97.12
92.92
88.39
83.44
78.33
73.63
69.77
67.40
66.96
67.94
69.34
70.00
69.14
66.77
64.98
63.95
64.33
66.37
69.13
71.03
70.69
67.47
62.07
56.22
51.79
50.73
54.34
62.89
75.90
91.82
107.70
119.29
122.09
112.86
91.89
63.26
33.23
8.22
-7.66
-13.95
-13.23
-9.20
-4.52
0.72
8.36
19.84
35.06
51.59
65.47
73.01
72.23
63.20
47.38
29.59
12.47
-3.21
-18.37
-34.29
-51.40
-68.48
-83.13
-92.78
-95.99
-93.67
-88.07
-81.93
-77.06
-73.49
-69.57
-62.98
-52.15
-37.21
-20.56
-5.46
5.36
10.84
11.98
11.08
10.44
11.23
13.10
14.51
14.18
11.96
9.09
7.53
8.86
13.40
19.89
26.05
29.46
28.66
23.62
15.66
6.72
-1.26
-6.97
-9.99
-10.78
-10.54
-10.74
-12.80
-17.70
-25.63
-35.91
-47.15
-57.64
-65.76
-70.38
-71.01
-67.94
-62.25
-55.54
-49.67
-46.37
-46.73
-50.73
-57.15
-63.89
-68.70
-70.00
-67.49
-62.32
-56.77
-53.14
-52.94
-56.40
-62.63
-70.36
-78.70
-87.51
-96.83
-105.80
-111.72
-110.41
-97.86
-72.46
-36.73
2.98
38.50
63.08
73.77
72.09
62.69
50.90
40.96
35.46
36.08
44.41
61.74
87.83
119.57
150.88
174.60
185.47
182.48
169.38
152.40
137.01
125.05
114.19
99.62
76.94
44.63
4.80
-37.68
-77.31
-109.89
-133.49
-148.36
-155.82
-156.97
-151.69
-138.80
-117.16
-87.28
-52.36
-18.15
8.63
22.72
22.26
9.27
-11.46
-34.33
-54.93
-71.19
-83.33
-92.99
-102.17
-112.61
-125.28
-140.47
-157.66
-175.57
-192.10
-204.10
-207.51
-197.63
-170.31
-124.06
-62.17
6.45
68.77
111.59
126.49
113.20
79.70
38.68
2.46
-21.50
-32.22
-33.67
-31.59
-30.79
-33.96
-41.97
-54.58
-70.95
-89.59
-108.34
-124.64
-136.32
-142.19
-142.50
-138.85
-133.59
-129.03
-126.41
-125.32
-123.61
-118.09
-105.89
-85.78
-58.89
-28.39
1.60
27.42
46.86
59.71
67.38
72.27
76.93
83.20
91.60
101.20
109.93
115.43
116.04
111.34
102.30
91.01
80.06
72.04
69.12
72.59
82.30
96.38
111.21
122.34
126.14
121.29
109.54
94.99
82.20
74.06
70.67
69.76
68.38
64.60
58.08
49.37
38.44
23.66
2.24
-28.14
-67.48
-112.60
-157.88
-197.20
-225.86
-241.86
-245.64
-239.13
-224.68
-204.49
-180.49
-154.66
-129.25
-106.34
-87.38
-72.73
-61.43
-51.81
-42.11
-31.07
-18.01
-2.63
15.18
35.11
56.13
76.24
92.87
104.01
109.29
110.44
110.56
112.58
117.78
125.34
133.18
139.40
143.39
145.90
148.02
150.08
151.17
149.69
144.49
135.87
125.52
115.85
108.86
105.32
104.68
105.43
105.23
101.13
89.90
69.01
37.93
-0.75
-41.29
-76.42
-99.78
-108.24
-103.01
-88.58
-70.60
-53.80
-40.91
-32.86
-29.74
-31.56
-38.40
-50.02
-64.96
-80.21
-91.85
-96.48
-92.69
-81.58
-66.28
-50.07
-35.03
-20.75
-4.82
15.53
41.32
70.54
98.55
119.32
127.23
117.59
88.76
43.20
-12.67
-70.11
-120.50
-157.33
-177.45
-181.22
-173.45
-159.85
-144.56
-129.22
-113.89
-98.34
-82.33
-65.33
-46.48
-27.88
-11.74
1.12
11.71
21.45
30.65
38.59
43.97
45.27
37.18
15.39
-20.67
-67.09
-118.00
-168.72
-216.21
-258.76
-271.91
-239.95
-165.40
-69.19
25.59
106.14
169.20
216.70
251.97
278.07
293.52
296.89
289.41
275.60
260.51
246.38
233.48
221.02
207.86
190.03
164.24
129.64
88.12
48.18
14.77
-9.92
-25.81
-33.89
-37.53
-40.03
-43.34
-47.40
-50.88
-53.18
-53.50
-51.14
-45.77
-38.80
-32.28
-28.20
-27.46
-29.52
-33.40
-37.17
-38.72
-36.87
-32.16
-26.50
-22.19
-20.82
-22.70
-27.59
-34.88
-43.55
-51.62
-55.61
-50.88
-34.33
-6.84
25.32
51.88
62.96
53.97
27.94
-6.10
-37.42
-59.20
-70.55
-75.21
-77.88
-81.05
-83.82
-83.51
-79.52
-70.95
-59.48
-47.02
-34.39
-20.52
-3.70
17.64
44.12
72.81
100.28
122.80
137.97
145.10
145.37
140.48
132.18
121.60
108.96
94.61
78.87
62.68
47.53
34.97
25.66
19.57
15.81
12.85
9.90
6.73
3.98
2.43
2.53
3.41
3.55
1.08
-5.91
-18.54
-37.35
-62.03
-90.75
-117.94
-138.66
-147.93
-142.82
-124.62
-98.52
-71.92
-51.27
-39.62
-36.32
-38.44
-42.83
-47.81
-53.62
-60.54
-67.84
-73.29
-74.05
-68.53
-57.04
-42.31
-26.31
-10.78
4.49
21.18
41.56
67.49
99.29
136.18
176.14
215.77
248.61
268.95
271.96
255.87
225.20
185.41
144.35
109.11
83.57
67.40
57.76
51.21
45.65
40.68
36.37
32.70
28.73
23.04
14.44
2.91
-10.78
-25.63
-40.88
-56.85
-74.15
-93.11
-113.01
-132.21
-148.39
-159.48
-164.13
-161.83
-153.06
-138.61
-119.27
-95.04
-66.33
-34.31
-1.67
27.96
50.87
64.66
66.18
52.55
22.14
-25.36
-88.08
-160.85
-235.03
-299.78
-345.59
-367.35
-364.96
-341.29
-300.22
-244.67
-176.44
-97.21
-10.47
77.02
155.88
213.41
242.02
244.51
232.25
216.48
201.61
185.42
163.36
137.87
113.84
99.49
101.38
120.12
148.77
176.36
193.12
193.90
169.98
122.08
58.26
-10.88
-76.62
-135.35
-186.87
-231.30
-268.03
-294.50
-307.92
-307.45
-297.89
-282.55
-265.06
-247.94
-231.28
-213.74
-191.21
-159.82
-118.13
-67.43
-9.79
52.94
117.52
182.72
248.29
317.01
390.37
466.56
540.41
605.55
655.36
684.87
691.82
657.21
574.43
450.40
303.03
152.98
16.37
-98.82
-190.77
-260.68
-311.20
-342.44
-355.59
-353.77
-343.76
-330.12
-316.34
-304.46
-295.13
-288.10
-280.49
-270.20
-256.88
-241.82
-226.65
-212.93
-201.27
-192.00
-184.89
-178.16
-170.66
-162.43
-154.63
-148.65
-145.97
-147.50
-153.62
-164.21
-178.15
-194.38
-212.19
-231.18
-250.85
-270.65
-289.72
-307.08
-321.67
-332.33
-338.34
-339.51
-336.11
-328.68
-317.85
-304.18
-288.09
-269.66
-248.73
-224.91
-197.63
-166.32
-130.57
-90.22
-45.38
3.42
55.15
108.35
161.11
211.21
256.37
294.47
323.75
343.06
352.05
351.16
341.60
325.11
303.76
279.66
254.72
230.50
208.11
188.19
170.98
156.37
144.07
133.69
124.81
117.02
109.94
103.26
96.72
90.25
83.87
77.63
71.48
65.31
58.84
51.68
43.41
33.79
22.85
10.92
-1.45
-13.68
-25.37
-36.40
-47.00
-57.56
-68.28
-79.02
-89.18
-97.86
-104.28
-108.18
-110.13
-111.51
-113.97
-118.77
-126.11
-134.91
-143.24
-149.11
-151.60
-151.42
-150.81
-152.54
-158.49
-168.42
-179.60
-187.70
-188.58
-180.19
-163.76
-143.38
-123.99
-109.03
-98.48
-88.58
-73.39
-47.27
-7.17
46.42
109.76
176.80
240.26
292.78
328.42
344.67
344.09
334.68
327.53
332.02
350.95
377.72
398.32
397.38
365.63
305.41
230.37
159.49
108.43
82.51
74.94
71.49
57.76
26.46
-18.97
-66.61
-101.91
-114.53
-102.29
-70.71
-28.76
15.38
57.42
96.84
134.59
170.42
201.47
223.41
232.75
230.33
221.46
213.99
215.49
229.78
255.83
288.58
321.14
347.68
367.98
384.92
402.53
423.38
447.11
471.08
492.16
508.52
520.34
534.40
556.27
587.26
622.87
654.71
674.91
680.15
672.56
657.84
650.73
662.67
698.81
757.05
830.14
909.19
986.49
1055.44
1109.91
1155.56
1198.12
1241.94
1288.06
1334.12
1376.22
1411.45
1438.30
1386.47
1211.43
899.97
482.08
19.83
-421.21
-796.36
-1087.62
-1297.32
-1438.08
-1513.98
-1529.93
-1493.19
-1416.07
-1314.21
-1206.30
-1107.23
-1026.37
-967.66
-922.13
-879.70
-832.58
-778.70
-722.14
-670.66
-631.64
-610.38
-609.58
-620.48
-633.29
-639.42
-634.47
-619.19
-598.29
-577.65
-562.86
-557.96
-562.09
-572.47
-584.27
-591.27
-586.85
-565.19
-522.71
-460.01
-382.85
-300.06
-222.07
-157.35
-109.84
-78.16
-56.88
-38.96
-19.00
4.56
28.90
47.86
54.95
46.58
24.22
-5.52
-33.09
-49.52
-49.57
-32.89
-3.09
34.43
74.71
114.11
149.92
179.53
200.21
210.11
209.74
202.57
193.65
188.15
189.03
195.71
204.13
208.02
201.32
180.42
145.78
100.74
51.56
5.46
-31.82
-58.02
-75.15
-87.97
-100.84
-114.78
-128.65
-138.89
-142.16
-138.02
-129.80
-123.56
-124.94
-136.01
-154.33
-177.54
-204.02
-234.44
-270.83
-314.98
-366.51
-422.26
-476.79
-507.02
-495.31
-435.29
-336.55
-219.49
-104.31
-3.06
80.90
149.64
206.61
251.79
283.83
301.73
306.83
303.01
295.66
289.62
288.34
292.99
300.85
307.92
310.54
307.80
299.92
288.48
275.34
262.02
248.96
234.87
218.24
198.11
174.93
150.53
127.58
108.79
96.37
90.91
91.32
95.45
100.55
103.98
103.75
98.82
88.65
77.40
66.90
57.60
48.69
38.23
24.06
4.75
-19.42
-46.46
-73.30
-97.63
-117.90
-133.97
-147.18
-159.33
-172.38
-188.01
-207.65
-231.78
-259.36
-285.74
-302.77
-301.09
-273.95
-221.50
-152.60
-82.74
-28.74
-2.81
-8.21
-39.40
-86.02
-137.69
-187.14
-230.57
-265.59
-289.33
-298.55
-290.96
-266.93
-230.17
-186.28
-140.05
-93.46
-45.42
6.27
62.10
118.65
168.57
202.69
213.91
200.80
169.18
130.84
99.39
85.22
91.10
111.44
135.01
149.82
148.15
128.45
94.19
50.28
-0.17
-56.72
-119.53
-186.05
-249.02
-297.38
-320.17
-311.32
-272.86
-214.27
-148.63
-87.14
-35.33
7.83
47.68
90.35
139.66
195.61
254.45
309.54
352.71
376.19
375.06
349.90
307.98
262.37
228.06
216.42
230.68
264.61
305.30
338.58
354.37
349.44
326.76
292.52
252.68
211.23
170.49
132.41
99.35
73.74
56.56
46.02
37.43
24.51
2.29
-30.64
-71.43
-114.33
-153.27
-184.50
-208.25
-228.83
-253.13
-287.00
-331.87
-382.82
-429.72
-460.41
-464.96
-438.94
-384.70
-311.95
-234.27
-165.51
-116.66
-93.50
-95.69
-117.23
-148.76
-181.26
-211.51
-240.94
-272.29
-305.66
-336.16
-355.34
-355.36
-333.12
-292.11
-242.98
-196.52
-158.68
-129.61
-107.13
-90.97
-84.60
-92.89
-100.02
-91.15
-56.20
3.95
79.11
156.60
225.74
279.46
314.68
332.21
334.26
322.65
300.02
270.52
238.56
207.17
176.89
145.99
110.48
64.20
1.76
-78.58
-172.96
-272.13
-363.51
-434.65
-476.79
-487.51
-472.26
-440.90
-403.19
-365.35
-329.42
-294.63
-259.69
-224.42
-189.90
-158.27
-131.02
-107.97
-87.68
-68.50
-49.64
-31.48
-15.32
-2.32
6.95
12.89
16.82
20.42
25.16
31.56
39.19
47.09
54.36
60.53
65.70
70.37
75.09
80.03
84.78
88.50
90.29
89.52
86.09
80.47
73.57
66.42
59.83
54.26
49.77
46.10
42.77
39.22
35.05
29.93
23.63
16.12
7.54
-1.68
-11.04
-19.89
-27.60
-33.56
-37.41
-39.03
-38.51
-36.14
-32.35
-27.63
-22.42
-17.13
-12.04
-7.37
-3.15
0.64
4.10
7.46
11.05
15.18
20.12
26.13
33.36
41.82
51.36
61.62
72.14
82.36
91.63
99.35
105.02
108.33
109.17
107.71
104.35
99.63
94.17
88.65
83.69
79.75
77.14
75.95
76.13
77.29
78.88
80.24
80.74
79.83
77.11
72.49
66.28
59.10
51.87
45.66
41.64
40.81
43.87
51.01
61.80
75.15
89.40
102.53
112.35
116.77
114.11
103.33
84.18
57.08
23.07
-16.36
-59.43
-104.31
-149.47
-193.55
-235.50
-274.57
-310.21
-341.85
-368.81
-390.19
-404.86
-411.59
-409.12
-396.39
-372.76
-338.17
-293.16
-239.06
-177.74
-111.52
-42.93
25.49
91.20
152.00
205.99
251.70
288.05
314.51
331.11
338.43
337.59
330.07
317.60
301.93
284.61
266.97
250.00
234.36
220.50
208.64
198.74
190.50
183.24
176.09
168.03
158.23
146.29
132.54
118.03
104.38
93.34
86.35
84.29
87.21
94.65
105.83
120.15
137.42
158.11
183.24
213.81
250.00
290.34
331.34
368.02
395.26
409.30
408.75
394.92
370.73
339.95
306.19
272.33
240.57
212.39
188.51
169.00
153.77
142.97
137.48
138.49
146.50
160.00
174.92
185.53
186.10
173.17
146.78
110.30
69.19
29.16
-5.47
-32.49
-51.68
-64.14
-71.39
-74.70
-74.63
-70.81
-62.59
-49.60
-32.65
-13.85
3.98
18.14
27.31
31.85
33.57
34.68
36.88
40.86
46.36
52.64
58.78
63.41
64.23
58.26
42.79
17.12
-16.11
-51.13
-80.95
-100.19
-107.58
-106.53
-103.50
-104.75
-113.29
-127.44
-141.50
-148.31
-142.14
-120.93
-86.87
-45.36
-3.16
33.51
60.56
76.35
81.21
76.72
64.82
47.88
28.70
10.52
-3.50
-11.17
-12.04
-7.74
-1.36
3.95
6.18
4.99
1.50
-2.77
-6.82
-10.54
-14.49
-19.19
-24.51
-29.68
-33.58
-35.44
-35.27
-33.85
-32.30
-31.35
-30.82
-29.74
-26.76
-21.02
-12.57
-2.57
7.10
14.57
18.50
18.43
14.56
7.52
-2.00
-13.08
-24.63
-34.89
-41.71
-43.12
-37.46
-24.87
-7.63
10.44
25.52
35.22
39.41
39.72
38.40
37.45
37.06
35.42
29.81
18.59
2.42
-15.56
-30.69
-38.56
-35.23
-19.80
5.20
34.82
63.81
88.31
106.55
118.67
125.89
133.48
145.19
161.51
179.42
194.47
203.32
204.89
200.32
192.35
192.21
208.83
244.80
294.99
350.47
402.65
445.43
475.25
490.73
505.05
530.28
572.14
627.92
690.94
754.80
814.28
864.52
901.21
937.65
985.56
1048.55
1118.75
1183.18
1229.95
1251.51
1245.16
1114.93
817.84
379.71
-110.03
-554.55
-897.44
-1130.49
-1273.02
-1351.85
-1389.40
-1385.33
-1338.34
-1254.46
-1149.84
-1040.47
-936.03
-839.37
-751.72
-676.05
-606.39
-541.70
-486.77
-457.84
-458.82
-479.51
-512.60
-554.77
-605.30
-657.32
-706.29
-743.43
-767.96
-781.94
-789.04
-774.84
-730.36
-655.91
-557.92
-447.57
-334.87
-228.13
-131.75
-47.97
21.98
76.14
114.22
139.08
156.19
169.85
181.17
189.86
194.53
193.18
182.86
161.14
129.96
93.53
56.38
21.81
-7.65
-30.47
-46.17
-55.77
-60.24
-60.79
-59.09
-57.40
-58.50
-64.77
-77.45
-95.31
-117.23
-135.26
-140.83
-127.72
-94.25
-44.14
14.32
70.76
115.32
141.75
147.76
137.71
120.03
103.51
94.42
95.14
104.64
119.51
136.48
153.78
170.80
187.05
200.93
210.52
214.38
212.47
205.50
195.30
183.96
172.86
161.95
150.29
137.21
123.00
109.24
97.39
89.41
86.79
89.69
96.67
104.91
110.90
110.75
107.59
101.89
94.17
84.94
74.56
63.33
51.46
39.54
28.58
20.03
14.59
13.10
16.24
24.19
36.58
52.53
70.83
90.11
109.01
125.30
137.05
142.60
140.59
130.16
111.12
84.04
50.45
12.62
-27.07
-65.68
-100.21
-127.93
-146.62
-154.86
-152.33
-139.76
-119.15
-93.62
-66.82
-42.40
-23.40
-11.82
-8.34
-12.53
-23.15
-38.64
-57.76
-79.51
-103.14
-127.78
-152.11
-174.31
-192.50
-205.13
-211.73
-213.28
-212.01
-210.89
-212.51
-218.29
-228.14
-240.69
-254.07
-266.99
-279.35
-292.38
-308.46
-330.37
-360.38
-398.83
-443.06
-486.73
-520.94
-536.66
-528.10
-495.19
-443.49
-381.83
-318.61
-258.77
-202.72
-148.10
-92.71
-37.23
14.13
55.33
80.69
87.27
76.09
52.30
24.22
1.61
-7.23
2.45
30.31
70.54
113.42
148.66
169.51
174.83
169.10
157.81
145.64
134.73
124.32
111.84
94.84
73.18
48.67
25.16
3.47
-15.97
-32.28
-44.02
-50.72
-53.82
-54.55
-53.79
-49.01
-40.44
-27.29
-8.57
15.10
38.78
54.02
54.68
37.81
7.62
-34.50
-86.49
-145.75
-208.84
-273.08
-336.85
-395.97
-447.38
-441.98
-350.46
-179.88
27.00
222.90
381.10
486.37
558.51
612.61
656.86
686.59
695.03
678.67
640.73
588.78
530.14
471.75
414.96
359.75
299.84
229.98
149.64
64.49
-17.04
-87.93
-142.95
-182.34
-207.93
-225.56
-240.04
-252.95
-261.94
-263.19
-254.48
-235.39
-209.24
-180.39
-155.36
-140.66
-141.47
-159.47
-192.37
-234.16
-275.71
-307.80
-322.86
-318.49
-297.85
-268.11
-235.70
-204.07
-173.26
-141.38
-106.73
-68.40
-27.57
12.49
46.81
72.98
90.70
101.05
105.19
104.56
101.73
99.42
98.68
97.88
97.61
99.41
105.09
115.03
129.36
149.99
179.91
220.35
268.38
322.29
378.55
431.45
472.87
486.44
463.39
412.50
366.78
339.29
332.87
340.61
355.41
368.23
372.11
364.78
347.48
319.47
273.34
211.85
145.24
85.77
39.41
8.22
-16.23
-34.58
-47.96
-61.27
-78.53
-104.62
-132.36
-159.54
-184.60
-204.51
-214.71
-212.77
-199.28
-174.61
-139.88
-96.60
-48.66
-1.92
39.49
74.67
103.64
126.07
142.26
152.47
157.24
156.00
144.12
119.57
85.07
46.82
11.38
-16.74
-35.87
-46.79
-53.01
-66.95
-98.40
-150.11
-217.44
-292.51
-368.64
-441.59
-509.18
-571.12
-638.86
-720.95
-817.88
-921.63
-1021.39
-1109.58
-1183.74
-1245.35
-1227.18
-1095.73
-864.44
-588.46
-326.81
-113.47
44.04
154.03
231.27
291.90
338.86
373.51
398.56
418.45
435.89
450.00
458.94
462.75
463.88
456.90
437.56
405.89
367.07
328.34
295.49
271.80
258.06
252.95
248.24
236.88
216.13
188.68
159.84
134.29
114.76
102.00
95.01
89.19
80.41
66.86
49.60
31.15
13.89
-0.76
-12.38
-21.50
-30.05
-39.66
-50.83
-62.57
-73.06
-80.37
-83.74
-81.79
-74.23
-61.66
-45.19
-26.48
-7.17
11.17
27.26
40.15
49.41
54.78
56.48
55.12
51.50
46.54
40.94
35.34
30.02
25.04
20.02
14.64
8.75
2.29
-4.58
-11.47
-17.83
-23.13
-26.98
-29.29
-30.17
-30.05
-29.48
-29.10
-29.49
-30.96
-33.61
-37.41
-42.20
-47.76
-53.85
-60.33
-67.12
-74.36
-82.04
-90.24
-99.05
-108.47
-118.37
-128.38
-137.87
-145.77
-152.80
-158.71
-162.90
-164.80
-164.00
-160.29
-153.73
-144.66
-133.71
-121.73
-109.33
-97.22
-86.08
-76.43
-68.56
-62.51
-58.12
-55.01
-52.74
-50.62
-48.11
-44.87
-40.83
-36.04
-30.81
-25.56
-20.79
-16.99
-14.50
-13.47
-13.97
-15.92
-19.08
-23.09
-27.53
-31.98
-36.03
-39.36
-41.73
-43.01
-43.23
-42.53
-41.08
-39.11
-36.86
-34.55
-32.33
-30.30
-28.49
-26.89
-25.43
-24.03
-22.59
-21.02
-19.24
-17.23
-14.99
-12.57
-10.01
-7.40
-4.85
-2.45
-0.29
1.59
3.14
4.38
5.35
6.13
6.78
7.35
7.89
8.44
9.01
9.57
10.12
10.64
11.09
11.43
11.58
11.52
11.23
10.72
10.06
9.28
8.46
7.64
6.84
6.04
5.25
4.46
3.73
3.12
2.75
2.70
3.04
3.76
4.77
5.97
7.26
8.66
10.28
12.27
14.82
18.02
21.80
25.94
30.17
34.30
38.30
42.42
47.05
52.62
59.34
67.17
75.76
84.56
93.13
101.30
109.30
117.63
126.88
137.39
149.13
161.73
174.63
187.43
200.06
212.84
226.39
241.51
259.10
279.93
304.25
331.19
358.45
382.46
399.12
405.35
399.94
384.04
360.57
333.14
304.84
277.70
252.68
230.20
210.73
194.61
181.79
171.66
162.98
154.39
144.81
133.84
121.82
109.96
99.60
91.70
86.70
84.44
84.40
85.92
88.45
91.56
96.26
103.53
113.84
126.94
141.73
156.69
170.34
181.72
190.60
200.19
213.74
233.52
259.94
291.39
324.92
357.54
387.31
413.68
441.62
475.96
519.77
572.89
631.95
691.40
745.49
790.18
823.77
852.68
884.13
923.43
971.59
1024.43
1074.00
1112.05
1133.35
1100.77
992.73
801.78
538.32
228.64
-93.58
-397.83
-663.56
-881.28
-1050.22
-1169.25
-1240.82
-1270.31
-1265.57
-1236.25
-1192.21
-1141.84
-1090.96
-1043.20
-996.16
-947.23
-894.79
-838.78
-780.74
-723.11
-668.32
-618.26
-574.38
-534.89
-497.87
-461.58
-424.87
-387.54
-350.26
-314.17
-280.57
-250.64
-224.01
-200.11
-178.33
-158.23
-139.69
-122.93
-108.30
-96.08
-86.15
-77.41
-68.41
-57.93
-45.55
-32.15
-19.59
-9.84
-4.02
-1.88
-2.01
-2.69
-2.76
-2.04
-1.19
-1.02
-1.72
-2.75
-2.93
-1.06
3.30
9.81
17.53
25.35
32.59
39.27
45.72
52.16
58.44
63.35
65.47
63.64
57.47
47.55
35.24
22.06
9.41
-1.72
-10.77
-17.43
-21.68
-23.84
-24.60
-24.80
-25.34
-26.71
-28.82
-31.08
-32.56
-32.43
-30.38
-26.73
-22.25
-18.03
-14.86
-13.08
-12.41
-12.17
-11.61
-10.36
-8.58
-6.84
-5.86
-5.99
-6.90
-7.83
-7.81
-6.19
-2.94
1.36
5.88
9.90
13.19
15.94
18.82
22.45
27.09
32.57
38.31
43.43
47.21
49.64
51.59
54.79
60.97
70.87
83.65
97.06
108.49
116.05
119.31
118.88
115.86
110.72
102.92
91.42
75.68
56.69
36.96
19.61
7.00
-0.39
-3.99
-6.27
-9.30
-14.08
-20.11
-26.03
-30.56
-33.12
-34.20
-35.04
-37.09
-41.22
-47.51
-55.10
-62.66
-68.96
-73.21
-75.34
-75.76
-75.16
-74.16
-73.15
-72.29
-71.57
-71.06
-70.92
-71.42
-72.76
-75.03
-78.23
-82.22
-86.87
-91.82
-96.57
-100.16
-101.29
-98.55
-91.07
-79.14
-64.41
-49.70
-37.94
-31.24
-30.06
-33.09
-37.98
-42.34
-44.59
-44.38
-42.46
-39.77
-37.05
-34.36
-31.12
-26.65
-20.56
-13.15
-5.48
0.98
5.00
5.98
4.31
1.28
-1.53
-2.73
-1.64
1.60
6.26
11.48
16.50
20.88
24.50
27.35
29.51
30.96
31.60
31.28
29.82
27.02
22.78
17.11
10.21
2.63
-4.72
-10.59
-13.53
-12.42
-7.02
1.75
11.80
20.51
25.65
26.16
22.50
16.29
9.53
3.82
0.00
-1.91
-2.28
-1.49
0.20
2.67
5.76
9.17
12.60
15.95
19.23
22.60
26.04
29.17
31.28
31.59
29.60
25.49
20.13
14.67
10.26
7.40
5.97
5.38
4.86
3.96
2.75
1.62
0.98
1.01
1.35
1.23
-0.23
-3.63
-8.91
-15.33
-21.66
-26.49
-28.60
-27.34
-22.74
-15.36
-6.29
3.08
11.27
16.91
19.06
17.47
12.68
5.96
-0.94
-6.42
-9.39
-9.72
-8.01
-5.37
-2.78
-0.73
1.02
3.16
6.26
10.41
14.85
18.28
19.40
17.59
13.24
7.64
2.37
-1.35
-3.18
-3.66
-3.82
-4.54
-6.10
-8.06
-9.65
-10.24
-9.70
-8.54
-7.67
-7.93
-9.63
-12.45
-15.50
-17.81
-18.57
-17.38
-14.15
-8.91
-1.74
7.19
17.35
27.80
37.14
43.90
46.99
46.14
42.07
36.06
29.61
23.87
19.38
16.09
13.61
11.55
9.66
7.99
6.64
5.68
4.99
4.32
3.31
1.84
0.07
-1.69
-3.06
-3.80
-3.96
-3.85
-3.87
-4.30
-5.05
-5.63
-5.42
-3.83
-0.57
4.13
9.61
14.93
19.16
21.64
22.08
20.54
17.49
13.53
9.30
5.52
2.87
1.93
3.06
6.19
10.64
15.34
18.97
20.40
19.37
16.45
12.90
10.16
9.23
10.24
12.62
15.52
18.37
21.28
24.99
30.38
38.02
47.65
58.12
67.87
75.53
80.61
83.64
85.81
88.47
92.38
97.41
102.70
107.24
110.45
112.37
113.57
114.57
115.72
117.11
118.80
120.96
123.89
127.67
131.89
135.65
137.84
137.78
135.60
132.06
127.90
123.15
116.70
106.59
90.81
68.02
38.21
2.59
-36.60
-76.76
-115.37
-150.23
-179.79
-203.31
-221.20
-234.80
-245.86
-255.49
-263.40
-267.85
-266.43
-257.19
-239.54
-214.57
-184.47
-151.77
-118.78
-87.51
-59.97
-38.13
-23.27
-15.16
-11.65
-9.02
-3.31
8.16
25.72
47.16
68.60
85.42
93.41
89.44
71.84
40.75
-2.05
-53.30
-109.17
-165.77
-219.68
-267.68
-306.59
-333.20
-344.88
-340.46
-320.66
-287.94
-245.66
-197.16
-145.23
-92.38
-41.36
4.55
42.21
69.94
88.49
101.17
112.59
126.89
146.07
169.45
194.31
216.94
233.93
242.98
242.96
233.97
217.13
194.32
167.97
140.49
113.40
86.92
59.91
30.52
-2.65
-39.58
-78.61
-117.02
-151.99
-181.72
-205.58
-223.73
-236.34
-242.95
-242.39
-233.26
-214.52
-185.93
-148.20
-102.72
-51.29
3.90
60.60
116.64
170.43
221.11
268.59
312.51
351.45
382.18
399.98
400.18
380.04
340.27
285.13
221.26
155.27
91.88
32.96
-21.94
-73.68
-121.84
-163.75
-195.01
-211.07
-209.23
-189.86
-156.60
-115.61
-73.97
-38.35
-13.92
-3.70
-8.27
-25.66
-51.88
-81.70
-110.26
-134.34
-153.20
-168.50
-183.05
-199.19
-217.71
-237.57
-256.36
-271.36
-280.06
-280.31
-270.25
-248.17
-213.13
-165.98
-110.53
-53.69
-4.29
29.56
43.33
37.99
19.82
-1.89
-18.28
-24.13
-19.25
-7.73
4.67
13.27
16.39
15.47
13.72
14.20
18.31
25.58
34.31
42.93
50.84
58.47
66.50
75.13
83.50
90.02
93.29
92.91
89.92
86.38
84.33
84.71
86.84
88.91
88.82
85.55
79.53
72.51
66.58
63.00
61.70
61.34
60.49
58.75
57.31
58.44
64.32
75.50
90.07
104.23
113.37
114.14
105.61
89.70
70.05
50.78
34.83
23.30
15.74
10.70
6.89
3.64
1.06
-0.39
-0.37
0.97
3.00
5.12
6.99
8.81
11.18
14.54
18.86
23.56
27.83
31.33
34.56
38.64
44.76
53.26
63.06
71.87
76.97
76.33
69.43
57.61
43.50
30.17
20.07
14.10
11.56
10.48
8.75
5.17
0.36
-3.18
-2.14
5.96
21.32
41.76
63.19
81.24
92.34
94.47
87.14
71.27
49.04
23.95
0.76
-15.48
-20.80
-14.42
0.97
20.04
37.31
49.43
56.39
61.15
67.19
76.48
87.05
94.77
95.95
89.73
78.56
66.81
59.09
57.51
61.64
66.91
68.50
64.30
55.67
45.80
37.34
31.96
28.35
24.24
13.86
-7.75
-41.71
-85.07
-132.91
-180.75
-224.35
-262.15
-292.81
-319.43
-345.65
-372.69
-399.17
-423.57
-446.28
-467.98
-491.16
-488.06
-438.74
-344.09
-226.25
-111.72
-16.66
46.55
87.38
112.71
126.95
132.78
129.07
118.02
105.78
99.82
105.34
125.20
156.61
194.61
232.86
263.32
280.82
284.59
276.86
260.25
237.62
209.02
168.31
116.41
57.64
-2.04
-57.47
-105.43
-144.13
-170.88
-182.59
-175.58
-148.22
-104.65
-53.64
-5.78
30.29
50.71
57.32
55.07
49.07
42.47
34.81
24.86
13.13
2.49
-3.68
-3.93
-0.22
3.44
4.04
0.60
-4.90
-9.00
-8.98
-4.55
2.06
7.69
10.00
8.77
4.97
-0.27
-6.55
-13.99
-22.99
-33.23
-43.47
-51.77
-56.56
-56.20
-50.27
-39.50
-25.21
-8.99
7.95
24.82
41.19
56.68
70.98
83.62
94.21
102.14
106.37
105.35
97.31
80.95
55.97
23.76
-12.91
-50.22
-84.53
-113.01
-133.78
-145.82
-148.98
-144.21
-133.87
-121.44
-110.21
-102.78
-100.39
-102.75
-108.29
-114.64
-118.65
-116.87
-106.19
-84.28
-51.52
-11.43
30.25
67.42
95.74
114.08
124.63
127.48
125.42
121.43
117.81
116.25
118.19
125.13
138.18
156.78
177.56
194.59
199.92
186.39
150.89
95.98
28.87
-41.76
-109.37
-171.17
-226.38
-273.65
-308.62
-324.02
-312.80
-272.50
-207.84
-130.01
-52.52
13.86
64.13
99.30
124.13
143.96
162.61
181.95
202.48
223.93
244.98
262.39
270.78
263.94
237.15
189.68
125.89
54.13
-16.12
-77.40
-126.28
-163.25
-190.77
-211.00
-224.51
-230.47
-228.07
-218.19
-204.04
-190.29
-181.30
-179.14
-182.28
-186.18
-184.93
-173.48
-149.52
-113.88
-69.71
-21.04
28.45
75.94
118.94
155.04
181.77
197.14
200.67
193.90
180.14
163.65
148.30
136.50
129.00
125.13
123.57
123.13
123.01
122.81
122.21
120.80
117.92
112.98
105.61
95.82
84.16
71.37
58.10
44.79
31.68
18.90
6.75
-4.20
-13.26
-19.83
-23.71
-25.22
-25.16
-24.63
-24.72
-26.20
-29.47
-34.48
-40.78
-47.47
-53.17
-56.23
-55.19
-49.32
-39.16
-26.52
-13.96
-3.83
2.60
5.59
6.63
7.58
9.85
13.78
18.80
23.77
27.80
30.46
31.86
32.41
32.49
32.24
31.42
29.71
26.88
23.01
18.57
14.14
10.20
6.99
4.35
1.94
-0.43
-2.63
-4.24
-4.70
-3.66
-1.14
2.44
6.35
9.86
12.46
14.00
14.68
15.04
15.81
17.87
22.03
28.96
38.89
51.29
64.81
77.37
86.71
90.93
89.15
81.80
70.37
57.12
44.17
33.03
24.21
17.22
11.02
4.53
-2.77
-10.75
-18.90
-26.86
-34.97
-44.40
-56.64
-72.74
-92.78
-115.40
-138.07
-157.84
-172.10
-178.89
-176.88
-164.90
-141.77
-107.00
-61.11
-6.54
52.33
109.51
158.49
193.68
211.64
211.90
196.59
170.34
139.45
110.82
90.43
81.87
85.53
98.42
114.92
127.37
129.48
118.39
95.60
66.16
36.36
11.87
-3.64
-9.02
-7.64
-4.13
-2.42
-4.28
-9.48
-16.72
-24.18
-30.12
-33.59
-38.65
-50.59
-73.37
-107.46
-150.26
-197.46
-244.63
-287.99
-325.26
-360.49
-398.66
-442.58
-490.68
-539.16
-584.41
-624.65
-659.68
-661.25
-610.04
-503.60
-360.49
-207.83
-66.76
53.54
152.59
233.67
300.81
352.93
388.62
408.42
417.89
422.50
425.67
428.05
428.40
424.46
410.40
381.42
332.75
269.52
200.39
133.93
76.57
32.03
1.48
-18.37
-31.72
-42.18
-50.76
-57.51
-62.10
-64.46
-64.89
-63.58
-61.12
-57.29
-51.10
-41.62
-30.22
-20.30
-15.54
-18.08
-27.03
-39.27
-51.02
-59.70
-64.73
-67.59
-70.29
-73.57
-77.10
-79.69
-80.35
-79.20
-77.18
-75.55
-75.75
-79.57
-87.85
-100.24
-114.30
-125.15
-127.53
-118.13
-97.54
-69.97
-42.57
-18.93
-0.62
12.85
22.74
29.76
34.08
36.27
39.49
47.81
65.18
92.73
127.46
163.38
194.25
215.99
226.66
226.49
216.42
196.85
167.27
126.60
74.97
14.86
-47.19
-102.89
-144.62
-167.61
-173.05
-164.09
-146.09
-124.52
-103.20
-84.36
-69.44
-59.10
-52.36
-47.55
-40.50
-26.39
-2.19
32.30
73.49
115.07
150.31
174.98
185.86
182.40
165.46
136.31
96.60
48.61
-4.28
-57.28
-104.74
-141.53
-165.87
-178.12
-180.62
-175.49
-163.07
-141.86
-110.15
-69.38
-25.63
11.98
35.33
41.54
35.22
26.71
26.57
40.19
64.25
88.05
98.91
88.57
56.43
8.87
-43.75
-91.69
-128.53
-152.24
-163.65
-164.33
-155.12
-136.49
-110.24
-80.00
-51.06
-28.50
-16.43
-16.29
-26.49
-43.17
-61.85
-78.90
-92.31
-104.58
-117.60
-132.82
-150.49
-169.44
-187.35
-201.89
-211.35
-215.01
-213.42
-207.51
-198.35
-186.87
-173.70
-159.17
-143.60
-127.49
-111.49
-96.49
-82.99
-71.34
-61.59
-53.51
-46.70
-40.70
-35.15
-29.81
-24.64
-19.41
-14.12
-8.94
-4.10
0.16
3.71
6.47
8.58
10.25
11.84
13.61
15.62
17.85
20.30
22.91
25.77
29.03
32.97
37.95
44.22
51.93
61.08
71.85
84.28
98.35
113.74
130.09
147.05
164.83
184.31
206.75
232.95
261.70
289.67
312.30
325.70
328.51
322.27
310.16
295.20
279.38
264.01
250.93
243.10
243.57
253.38
270.00
288.14
301.98
308.20
307.28
302.44
297.37
293.87
291.74
289.91
287.73
285.56
284.06
282.64
279.00
269.43
250.03
218.82
176.54
126.26
72.45
19.20
-31.22
-78.81
-124.72
-169.85
-213.30
-252.26
-282.95
-302.53
-310.24
-307.68
-298.34
-286.18
-275.30
-269.33
-270.85
-280.34
-295.01
-308.63
-313.02
-300.73
-268.06
-216.93
-154.57
-91.56
-38.61
-3.30
12.15
11.21
2.05
-5.23
-1.95
16.32
48.65
89.28
130.52
166.15
193.35
212.59
226.11
235.72
241.56
242.70
237.98
227.15
211.28
191.94
170.34
146.51
119.41
87.66
50.65
9.40
-33.38
-73.82
-108.56
-136.28
-158.60
-179.27
-201.94
-227.57
-253.07
-272.26
-278.63
-268.85
-244.71
-212.64
-180.89
-156.13
-141.25
-135.38
-135.77
-140.03
-147.50
-158.87
-174.49
-192.99
-210.59
-222.45
-224.46
-214.91
-195.03
-168.04
-137.23
-104.65
-70.71
-34.93
2.53
40.22
75.62
106.10
130.32
148.93
164.29
179.28
195.93
214.26
231.99
245.27
250.37
245.36
231.05
210.78
188.93
169.26
153.60
141.83
132.78
125.53
120.10
117.28
117.57
120.37
123.74
124.79
120.93
110.85
95.07
75.81
56.19
39.09
26.49
19.19
17.04
19.57
26.38
37.14
51.34
67.68
84.09
98.04
107.34
110.95
109.21
103.54
95.45
85.90
74.88
61.78
45.85
26.88
5.43
-17.16
-38.95
-57.96
-72.48
-81.82
-86.52
-88.27
-89.23
-90.93
-93.44
-95.47
-95.17
-91.39
-84.62
-76.78
-70.25
-66.60
-65.72
-66.15
-65.98
-63.89
-59.54
-53.44
-46.31
-38.65
-30.89
-23.44
-17.06
-12.54
-10.48
-10.85
-12.93
-15.72
-18.25
-19.86
-20.17
-19.17
-16.99
-13.98
-10.71
-7.81
-5.97
-5.69
-7.10
-10.07
-14.28
-19.21
-24.28
-28.82
-32.19
-33.94
-34.00
-32.82
-31.15
-29.86
-29.49
-30.05
-31.20
-32.26
-32.65
-32.07
-30.69
-28.95
-27.46
-26.65
-26.63
-27.25
-27.92
-27.90
-26.56
-23.48
-18.67
-12.63
-6.24
-0.74
2.58
2.78
-0.40
-6.40
-13.70
-20.39
-24.61
-25.29
-22.39
-16.99
-10.84
-5.72
-2.80
-2.16
-3.00
-4.02
-4.07
-2.61
0.13
3.49
6.73
9.40
11.46
12.84
13.19
11.83
7.97
1.26
-7.69
-17.26
-25.29
-29.76
-29.75
-25.80
-19.74
-14.08
-10.99
-11.52
-15.14
-20.19
-24.47
-26.31
-24.98
-20.75
-14.73
-8.01
-1.39
4.77
10.26
14.63
17.11
17.00
14.18
9.22
3.62
-0.93
-3.08
-2.48
0.16
3.52
6.30
7.82
8.13
7.87
7.67
7.94
8.74
9.86
10.92
11.33
10.15
6.22
-1.48
-13.44
-28.93
-45.83
-61.27
-72.45
-77.80
-77.61
-74.06
-70.37
-69.73
-73.85
-82.30
-92.63
-101.28
-105.09
-102.59
-94.64
-83.97
-73.72
-65.75
-59.95
-54.36
-46.80
-36.42
-24.55
-14.22
-8.70
-9.76
-16.79
-27.31
-37.86
-45.41
-47.71
-43.60
-33.18
-18.26
-3.09
5.91
1.40
-22.23
-65.89
-124.00
-185.23
-235.70
-263.47
-262.55
-234.45
-186.90
-130.56
-75.39
-28.06
8.69
34.95
52.38
63.04
69.15
73.43
79.39
90.81
110.50
139.02
173.78
209.76
240.76
261.76
270.62
268.56
259.45
247.82
237.11
228.80
222.48
216.70
210.27
202.69
194.13
184.96
175.23
164.46
152.05
137.50
120.78
102.77
85.21
70.19
59.54
54.01
52.82
53.92
54.80
53.53
49.53
43.52
36.81
30.45
24.59
18.43
10.95
1.71
-8.69
-18.67
-26.59
-31.61
-34.18
-35.78
-37.97
-41.21
-44.60
-46.18
-44.09
-37.73
-28.24
-18.00
-9.60
-4.66
-3.40
-5.05
-8.51
-12.91
-17.69
-22.46
-26.59
-29.20
-29.39
-26.51
-20.56
-12.17
-2.39
7.50
16.30
23.12
27.52
29.58
29.84
29.07
27.96
26.91
25.97
25.02
24.11
23.43
23.24
23.59
24.01
23.55
21.13
16.03
8.30
-1.21
-11.27
-20.80
-29.19
-36.48
-43.08
-49.23
-54.92
-59.78
-63.39
-65.49
-66.22
-66.00
-65.38
-64.71
-64.04
-63.11
-61.53
-58.94
-55.31
-50.97
-46.50
-42.45
-39.15
-36.57
-34.42
-32.30
-29.87
-27.05
-23.89
-20.31
-16.17
-11.25
-5.51
0.66
6.45
10.92
13.28
13.32
11.49
8.66
5.90
3.92
3.05
3.01
3.38
3.73
3.81
3.58
3.06
2.27
1.18
-0.25
-2.00
-3.91
-5.62
-6.70
-6.88
-6.18
-4.93
-3.74
-3.24
-3.70
-4.97
-6.54
-7.73
-8.10
-7.66
-6.80
-6.05
-5.78
-5.84
-5.88
-5.44
-4.41
-3.01
-1.87
-1.59
-2.45
-4.35
-6.71
-8.80
-10.07
-10.30
-9.60
-8.28
-6.59
-4.69
-2.64
-0.48
1.68
3.59
4.87
5.25
4.71
3.54
2.25
1.36
1.24
1.91
3.09
4.25
4.92
4.87
4.14
3.03
1.91
0.96
0.19
-0.53
-1.35
-2.28
-3.16
-3.77
-3.95
-3.78
-3.61
-3.90
-4.87
-6.38
-7.87
-8.67
-8.41
-7.12
-5.34
-3.82
-3.09
-3.15
-3.59
-3.80
-3.34
-2.29
-1.05
-0.21
-0.11
-0.65
-1.38
-1.70
-1.22
0.06
1.72
3.11
3.80
3.67
3.03
2.31
1.90
1.91
2.12
2.08
1.48
0.26
-1.34
-2.84
-4.00
-4.79
-5.45
-6.38
-7.70
-9.26
-10.67
-11.47
-11.46
-10.79
-9.96
-9.60
-10.17
-11.71
-13.96
-16.32
-18.17
-19.03
-18.74
-17.45
-15.54
-13.35
-11.04
-8.72
-6.39
-4.19
-2.32
-1.00
-0.32
-0.13
-0.11
0.11
0.65
1.37
1.94
2.05
1.72
1.34
1.45
2.55
4.71
7.58
10.43
12.53
13.38
13.01
11.84
10.47
9.41
8.85
8.61
8.33
7.72
6.65
5.28
3.86
2.60
1.52
0.46
-0.78
-2.31
-3.93
-5.29
-5.97
-5.83
-5.05
-4.01
-3.21
-2.86
-2.89
-2.88
-2.38
-1.06
1.03
3.44
5.60
7.03
7.48
7.13
6.40
5.76
5.43
5.29
4.93
3.97
2.27
0.10
-1.98
-3.43
-4.01
-3.90
-3.57
-3.50
-3.89
-4.61
-5.32
-5.80
-6.21
-7.07
-8.93
-12.14
-16.62
-21.79
-26.95
-31.58
-35.73
-40.14
-46.05
-54.52
-66.04
-80.16
-95.52
-110.48
-123.60
-134.15
-142.10
-147.82
-151.43
-152.60
-150.85
-145.71
-137.10
-125.17
-110.11
-91.88
-70.43
-46.09
-20.09
5.38
27.69
44.66
55.45
60.88
63.05
64.55
67.79
74.30
84.75
98.98
116.12
134.81
153.24
169.41
181.38
187.59
187.17
180.14
167.52
151.16
133.52
117.06
103.63
93.92
87.19
81.69
75.39
66.91
56.01
43.67
31.60
21.42
14.18
10.15
8.96
10.07
12.99
17.32
22.73
28.83
35.24
41.66
48.14
54.89
62.26
70.32
78.70
86.62
93.05
97.17
98.54
97.25
93.79
88.83
82.94
76.38
69.15
61.05
52.00
42.19
32.23
22.97
15.22
9.33
4.91
1.01
-3.67
-10.18
-19.11
-30.37
-43.45
-57.64
-72.25
-87.01
-101.76
-116.52
-131.15
-145.30
-158.09
-168.32
-174.66
-176.00
-171.97
-162.91
-149.73
-133.46
-114.79
-94.06
-71.51
-47.70
-23.68
-0.85
19.60
37.12
51.80
64.20
74.78
83.46
89.89
93.71
95.01
94.51
93.29
92.21
91.71
91.69
91.66
91.22
90.20
88.78
87.30
86.02
84.92
83.90
82.96
82.37
82.60
83.94
86.27
88.88
90.57
89.67
85.03
76.49
64.99
52.30
40.34
30.37
23.13
18.08
13.54
7.90
0.36
-8.75
-18.05
-25.71
-30.38
-31.05
-28.24
-24.15
-21.06
-20.38
-22.44
-26.68
-32.39
-39.91
-50.31
-66.69
-93.73
-134.87
-190.69
-258.48
-332.74
-406.82
-475.03
-532.88
-568.00
-569.52
-530.24
-450.41
-338.91
-209.54
-75.74
46.54
155.00
249.32
327.59
388.07
430.34
455.88
464.89
458.49
437.60
403.55
356.47
295.54
220.78
133.34
36.06
-65.70
-163.31
-246.23
-303.60
-329.10
-323.40
-293.74
-251.36
-207.32
-168.53
-136.28
-108.56
-82.81
-59.49
-41.75
-32.82
-33.24
-39.90
-47.14
-49.56
-44.91
-34.75
-24.03
-18.27
-21.15
-33.45
-53.53
-78.27
-104.60
-130.05
-152.72
-170.99
-182.98
-186.56
-179.92
-162.39
-135.04
-100.66
-63.37
-27.74
2.21
23.85
36.41
41.08
40.52
38.01
36.27
36.72
39.22
42.26
43.85
42.37
37.21
28.82
18.51
7.95
-1.16
-7.28
-9.39
-7.11
-0.92
7.92
17.50
25.98
31.98
34.95
35.14
33.25
30.00
25.90
21.27
16.34
11.52
7.41
4.70
3.81
4.77
7.06
9.74
11.80
12.44
11.48
9.19
6.32
3.69
1.93
1.33
1.64
2.41
3.02
3.02
2.10
0.16
-2.70
-6.41
-10.79
-15.59
-20.43
-24.75
-27.90
-29.47
-29.56
-28.97
-28.82
-29.91
-31.89
-32.79
-29.40
-18.28
2.78
33.59
71.06
109.74
143.17
165.65
174.01
168.53
152.74
132.18
112.53
97.63
88.37
83.09
78.76
72.61
63.43
51.60
38.73
26.65
16.83
10.08
6.78
7.02
10.48
16.22
22.72
28.00
30.23
28.26
21.84
11.74
-0.68
-13.94
-26.75
-38.07
-47.06
-53.08
-55.58
-54.55
-50.76
-45.79
-41.64
-40.00
-41.73
-46.51
-53.18
-60.20
-66.28
-70.61
-72.86
-72.96
-70.81
-66.39
-59.90
-51.83
-42.93
-34.04
-25.70
-18.01
-10.77
-3.50
3.96
11.40
18.11
23.26
26.13
26.62
25.35
23.36
21.90
21.60
22.37
23.29
23.23
21.44
17.79
12.90
7.64
2.75
-1.55
-5.38
-8.89
-11.90
-13.88
-14.16
-12.37
-8.72
-4.01
0.49
3.62
4.60
3.18
-0.33
-5.27
-10.73
-15.92
-20.28
-23.47
-25.29
-25.53
-23.85
-19.92
-13.77
-5.92
2.38
9.50
13.95
14.97
12.76
8.54
3.98
0.62
-0.55
0.72
4.17
9.26
15.62
22.97
31.14
39.80
48.11
55.00
59.32
60.48
58.82
55.68
53.02
52.70
55.79
62.08
70.32
78.72
85.79
90.46
92.03
90.19
85.35
79.36
75.77
79.21
93.38
118.83
151.59
183.82
206.22
211.73
198.06
168.08
128.08
84.58
41.75
0.68
-39.87
-81.62
-125.03
-168.63
-208.95
-241.68
-263.06
-271.37
-267.54
-254.62
-236.72
-217.26
-197.78
-177.69
-155.39
-129.49
-100.29
-70.08
-42.59
-22.12
-12.25
-15.19
-31.25
-58.34
-91.85
-125.17
-151.13
-163.98
-161.02
-142.97
-113.38
-77.13
-39.21
-4.10
24.64
44.47
54.58
56.27
53.03
49.42
49.37
54.87
65.23
77.81
89.38
97.52
100.89
99.29
93.34
84.03
73.09
62.52
54.41
50.15
49.93
52.75
56.97
61.28
65.36
70.06
76.85
86.95
100.38
115.62
129.88
139.99
143.58
140.04
130.87
119.10
107.92
99.25
93.08
87.71
80.89
71.25
58.97
45.86
34.58
27.35
25.16
27.51
32.61
37.93
41.00
39.77
33.11
21.19
5.41
-12.05
-28.83
-43.27
-54.73
-63.47
-70.35
-76.36
-82.03
-87.47
-92.58
-96.99
-100.28
-102.23
-102.89
-102.86
-103.16
-104.68
-107.43
-110.20
-110.67
-107.18
-100.27
-93.53
-92.31
-100.75
-119.14
-142.72
-163.36
-172.89
-166.88
-146.11
-115.75
-82.37
-51.15
-24.60
-2.82
15.06
30.10
43.07
55.28
68.75
85.29
104.82
124.12
136.94
135.81
115.35
75.09
20.81
-36.59
-84.38
-111.84
-113.15
-88.30
-42.28
17.18
81.73
143.67
196.73
235.95
258.13
262.23
250.01
225.54
194.24
161.04
128.58
96.98
64.74
30.88
-3.60
-35.38
-60.35
-75.50
-80.29
-76.69
-67.68
-55.90
-42.76
-28.73
-14.15
-0.03
12.21
21.21
26.51
28.74
29.06
28.44
27.21
24.86
20.54
13.69
4.32
-6.81
-18.46
-29.20
-37.76
-43.17
-45.16
-44.17
-41.26
-37.88
-35.15
-33.39
-31.79
-28.81
-22.89
-13.51
-1.55
10.95
21.62
28.85
32.50
33.73
34.45
36.33
40.12
45.40
50.79
54.66
55.76
53.76
49.22
43.27
37.07
31.47
26.67
22.56
18.95
15.89
13.76
12.87
13.28
14.38
15.24
14.84
12.60
8.50
3.12
-2.73
-8.37
-13.28
-17.27
-20.29
-22.20
-22.81
-22.04
-20.27
-18.42
-17.77
-19.50
-24.01
-30.44
-36.80
-40.66
-40.18
-35.03
-26.47
-16.88
-8.52
-2.56
1.34
4.65
8.87
14.66
21.27
26.91
29.54
28.11
22.88
15.56
8.54
3.78
2.22
3.47
6.15
8.57
9.54
8.70
6.63
4.46
3.36
4.08
6.68
10.62
14.81
18.03
19.23
17.78
13.63
7.37
0.08
-6.92
-12.43
-15.74
-16.86
-16.63
-16.34
-17.21
-19.87
-24.02
-28.63
-32.42
-34.45
-34.35
-32.48
-29.46
-25.80
-21.73
-17.17
-12.11
-6.84
-1.84
2.24
4.99
6.40
6.77
6.54
6.13
5.70
5.36
5.16
5.19
5.62
6.60
8.05
9.56
10.69
10.94
10.22
8.67
6.67
4.63
2.87
1.51
0.43
-0.50
-1.44
-2.31
-2.91
-2.94
-2.18
-0.57
1.65
3.91
5.57
5.87
4.52
1.65
-2.23
-6.29
-9.94
-12.89
-15.23
-17.28
-19.25
-20.95
-21.81
-21.27
-18.99
-15.26
-10.90
-6.91
-3.94
-1.95
-0.28
1.98
5.42
9.91
14.54
18.16
19.93
19.81
18.48
17.02
16.41
16.92
18.33
19.92
21.17
21.94
22.35
22.68
22.94
22.94
22.27
20.69
18.22
15.31
12.49
10.05
7.83
5.28
1.71
-3.28
-9.44
-15.97
-21.64
-25.35
-26.75
-26.32
-25.28
-25.08
-26.64
-29.78
-33.39
-35.68
-35.06
-30.87
-23.47
-14.16
-4.50
4.28
11.61
17.48
22.18
25.95
28.72
30.41
30.96
30.53
29.51
28.22
26.65
24.46
21.12
16.18
9.93
3.28
-2.49
-6.17
-7.32
-6.38
-4.35
-2.25
-0.67
0.46
1.49
2.62
3.60
3.65
2.08
-1.32
-5.95
-10.74
-14.60
-17.14
-18.66
-19.97
-21.96
-25.10
-29.19
-33.51
-37.22
-39.69
-40.78
-40.71
-39.79
-38.20
-35.80
-32.22
-27.06
-20.26
-12.22
-3.84
3.77
9.60
13.19
14.77
15.26
15.98
18.15
22.49
28.75
35.86
42.23
46.44
47.84
46.66
43.72
39.92
35.72
30.94
25.21
18.31
10.57
2.92
-3.62
-8.32
-11.13
-12.47
-12.93
-12.90
-12.40
-11.30
-9.57
-7.53
-5.87
-5.36
-6.40
-8.80
-11.87
-14.70
-16.66
-17.62
-17.99
-18.36
-19.10
-20.08
-20.78
-20.59
-19.13
-16.47
-13.03
-9.38
-5.88
-2.61
0.42
3.10
5.27
6.67
7.30
7.60
8.27
9.91
12.75
16.27
19.55
21.67
22.09
20.97
18.94
16.77
14.92
13.40
11.85
9.82
7.05
3.59
-0.25
-4.09
-7.62
-10.71
-13.55
-16.54
-20.32
-25.45
-32.25
-40.51
-49.29
-57.29
-63.08
-65.70
-64.86
-60.94
-54.51
-46.24
-36.54
-25.84
-14.85
-4.59
3.68
8.91
10.75
9.66
6.74
3.36
0.61
-0.88
-1.07
-0.38
0.71
1.78
2.55
2.92
2.94
2.63
1.97
0.99
-0.21
-1.47
-2.60
-3.52
-4.50
-6.09
-8.92
-13.44
-19.56
-26.72
-34.20
-41.55
-48.95
-57.22
-67.52
-80.62
-96.37
-113.49
-130.10
-144.26
-154.86
-161.75
-165.62
-167.64
-168.90
-170.09
-171.26
-171.70
-169.71
-162.94
-149.05
-126.70
-96.55
-61.58
-26.46
3.69
24.95
35.41
35.60
27.92
16.07
4.40
-2.70
-1.46
10.61
34.17
67.94
109.16
154.27
199.77
242.48
280.22
312.09
338.58
361.00
380.50
396.96
408.52
412.55
406.94
391.58
368.62
341.35
312.55
283.47
254.10
224.28
195.01
168.56
147.25
132.07
121.93
114.17
106.00
95.85
83.68
70.44
56.99
43.40
29.12
13.58
-3.26
-20.59
-37.25
-52.44
-66.08
-78.89
-91.91
-105.85
-121.00
-137.09
-153.80
-170.96
-188.76
-207.38
-226.55
-245.40
-262.26
-275.17
-282.32
-282.41
-275.00
-260.47
-239.66
-213.68
-183.76
-151.12
-117.20
-83.46
-51.47
-22.79
0.97
18.36
28.22
30.11
24.85
14.56
2.55
-7.52
-12.73
-11.70
-4.90
5.90
18.53
31.30
43.27
54.04
63.40
70.74
75.26
76.17
72.98
65.83
55.38
42.59
28.56
14.42
1.05
-10.76
-20.61
-28.45
-34.55
-39.32
-42.95
-45.36
-46.26
-45.46
-43.03
-39.55
-35.83
-32.69
-30.40
-28.60
-26.34
-22.60
-16.80
-9.21
-0.93
6.50
11.72
14.07
13.82
11.84
9.18
6.52
3.94
1.07
-2.47
-6.59
-10.66
-13.63
-14.71
-13.77
-11.42
-8.77
-6.79
-5.80
-5.44
-5.01
-4.03
-2.68
-1.71
-2.01
-4.11
-7.78
-12.09
-15.87
-18.12
-18.24
-16.28
-12.59
-7.63
-1.90
4.32
10.55
16.23
20.56
22.82
22.51
19.88
15.71
11.21
7.62
5.63
5.23
5.73
6.18
5.90
4.85
3.46
2.35
1.88
1.93
1.85
0.96
-1.08
-4.06
-7.10
-9.16
-9.58
-8.29
-5.87
-3.31
-1.39
-0.46
-0.28
-0.33
-0.05
0.68
1.62
2.21
2.05
1.13
-0.23
-1.43
-2.13
-2.18
-1.84
-1.53
-1.63
-2.25
-3.22
-4.22
-5.00
-5.46
-5.68
-5.89
-6.19
-6.49
-6.61
-6.35
-5.74
-5.14
-5.15
-6.31
-8.79
-12.26
-15.93
-18.95
-20.76
-21.25
-20.84
-20.19
-19.85
-20.03
-20.52
-20.79
-20.36
-19.01
-16.80
-14.13
-11.34
-8.59
-5.83
-2.88
0.35
3.60
6.30
7.79
7.65
5.96
3.38
0.81
-0.90
-1.33
-0.62
0.75
2.33
3.76
5.04
6.27
7.45
8.40
8.75
8.15
6.61
4.58
2.68
1.50
1.29
1.70
2.20
2.18
1.43
0.25
-0.81
-1.26
-1.01
-0.46
-0.44
-1.62
-4.23
-7.89
-11.74
-14.83
-16.46
-16.45
-15.08
-12.92
-10.39
-7.66
-4.66
-1.28
2.46
6.22
9.45
11.54
12.12
11.32
9.62
7.71
6.15
5.23
4.84
4.72
4.63
4.58
4.73
5.38
6.61
8.23
9.77
10.84
11.22
11.12
10.98
11.14
11.67
12.21
12.07
10.71
8.03
4.38
0.52
-2.89
-5.56
-7.68
-9.74
-12.25
-15.27
-18.47
-21.18
-22.71
-22.70
-21.30
-18.97
-16.25
-13.56
-10.91
-8.14
-5.02
-1.53
2.03
4.98
6.78
7.16
6.30
4.90
3.69
3.20
3.52
4.27
4.87
4.93
4.36
3.48
2.72
2.32
2.32
2.46
2.47
2.24
1.84
1.48
1.30
1.27
1.13
0.55
-0.60
-2.18
-3.75
-4.87
-5.36
-5.38
-5.41
-6.02
-7.47
-9.46
-11.38
-12.44
-12.11
-10.33
-7.50
-4.25
-1.15
1.59
4.03
6.38
8.70
10.84
12.46
13.23
12.97
11.93
10.64
9.72
9.63
10.39
11.66
12.85
13.45
13.19
12.16
10.69
9.09
7.53
5.86
3.87
1.31
-1.66
-4.68
-7.18
-8.79
-9.47
-9.56
-9.66
-10.14
-11.13
-12.23
-12.93
-12.84
-12.03
-11.00
-10.46
-10.92
-12.48
-14.77
-17.04
-18.61
-19.06
-18.36
-16.78
-14.55
-11.69
-8.12
-3.77
1.14
5.94
9.79
11.97
12.34
11.41
10.24
9.86
10.89
13.14
15.77
17.85
18.80
18.69
18.25
18.29
19.37
21.43
23.80
25.61
26.31
25.80
24.49
22.96
21.66
20.69
19.84
18.67
16.91
14.42
11.13
6.99
1.91
-4.30
-11.67
-20.00
-28.80
-37.27
-44.49
-49.74
-52.73
-53.70
-53.64
-53.84
-55.51
-59.40
-65.43
-72.66
-79.58
-84.52
-86.19
-83.98
-77.85
-68.26
-55.91
-41.56
-26.11
-10.58
3.92
16.26
25.71
32.15
36.10
38.44
40.25
42.12
44.09
45.76
46.62
46.47
45.59
44.61
44.03
44.03
44.16
43.52
41.45
37.73
32.85
27.67
23.01
19.16
15.88
12.66
9.12
5.45
2.23
0.24
-0.09
1.11
3.09
4.94
6.03
6.24
6.06
6.07
6.60
7.50
8.20
8.02
6.70
4.54
2.27
0.83
0.72
1.88
3.78
5.66
6.92
7.47
7.67
7.97
8.73
9.84
10.78
10.96
9.95
7.86
5.22
2.74
0.84
-0.47
-1.68
-3.40
-5.95
-9.14
-12.39
-15.03
-16.73
-17.68
-18.40
-19.38
-20.66
-21.70
-21.66
-19.96
-16.57
-12.18
-7.81
-4.30
-2.03
-0.85
-0.24
0.23
0.68
1.09
1.38
1.67
2.37
3.94
6.68
10.56
14.95
18.99
21.66
22.30
20.79
17.60
13.66
9.92
7.07
5.19
3.93
2.74
1.29
-0.34
-1.69
-2.32
-2.03
-1.10
-0.19
0.04
-0.75
-2.48
-4.73
-6.86
-8.51
-9.51
-9.94
-9.87
-9.20
-7.64
-4.99
-1.23
3.24
7.67
11.26
13.37
13.92
13.21
11.84
10.29
8.80
7.30
5.58
3.71
2.01
1.15
1.76
4.08
7.74
11.83
15.24
17.04
16.94
15.19
12.34
9.06
5.65
2.13
-1.60
-5.46
-9.16
-12.15
-14.02
-14.82
-15.05
-15.66
-17.51
-20.91
-25.45
-30.19
-34.21
-37.10
-39.34
-42.10
-46.86
-54.65
-65.48
-78.23
-90.85
-101.15
-107.44
-109.11
-106.53
-100.74
-92.96
-84.04
-74.51
-64.58
-54.35
-43.85
-33.06
-21.57
-8.80
5.88
22.90
42.01
62.39
82.77
101.68
117.71
129.81
137.24
139.59
136.75
128.85
116.49
100.92
84.09
68.33
55.77
47.59
43.58
42.35
41.89
40.71
38.39
35.40
32.56
30.19
27.88
24.81
20.53
15.33
10.47
7.45
7.27
9.95
14.50
19.37
23.07
24.67
24.05
21.84
19.09
16.84
15.72
15.65
15.78
14.91
12.08
7.02
0.45
-6.35
-12.14
-16.20
-18.72
-20.42
-22.03
-23.79
-25.35
-26.01
-25.41
-23.76
-21.83
-20.56
-20.54
-21.70
-23.35
-24.61
-24.88
-24.09
-22.70
-21.42
-20.84
-21.18
-22.24
-23.46
-24.36
-24.64
-24.27
-23.44
-22.30
-20.87
-18.96
-16.39
-13.11
-9.42
-5.78
-2.67
-0.26
1.65
3.48
5.66
8.24
10.90
13.05
14.24
14.42
13.97
13.57
13.74
14.62
15.73
16.29
15.60
13.44
10.19
6.59
3.42
1.07
-0.48
-1.72
-3.16
-5.04
-7.17
-9.08
-10.35
-10.85
-10.89
-11.05
-11.88
-13.52
-15.67
-17.70
-18.93
-19.01
-18.05
-16.39
-14.53
-12.75
-10.97
-8.99
-6.66
-4.03
-1.48
0.50
1.64
1.94
1.76
1.60
1.74
2.01
2.00
1.12
-0.87
-3.76
-6.91
-9.52
-10.98
-11.13
-10.31
-9.04
-7.84
-6.77
-5.63
-4.09
-1.93
0.66
3.07
4.60
4.79
3.48
1.08
-1.80
-4.69
-7.31
-9.67
-11.97
-14.28
-16.42
-18.03
-18.72
-18.25
-16.78
-14.73
-12.55
-10.59
-8.87
-7.20
-5.22
-2.79
0.01
2.75
4.90
6.11
6.31
5.88
5.41
5.37
5.92
6.84
7.63
7.92
7.60
6.93
6.40
6.32
6.70
7.24
7.57
7.43
6.86
6.21
5.75
5.61
5.52
4.96
3.45
0.90
-2.38
-5.71
-8.34
-9.84
-10.31
-10.27
-10.45
-11.35
-12.93
-14.76
-16.20
-16.71
-16.15
-14.78
-13.03
-11.22
-9.50
-7.81
-5.99
-3.99
-1.86
0.20
2.00
3.46
4.70
5.94
7.36
8.99
10.66
11.97
12.54
12.21
11.19
9.90
8.82
8.23
8.06
7.97
7.62
6.81
5.66
4.58
3.97
3.93
4.31
4.66
4.52
3.76
2.60
1.55
1.12
1.43
2.13
2.64
2.32
0.91
-1.35
-3.88
-5.94
-7.11
-7.36
-7.01
-6.38
-5.71
-4.91
-3.72
-1.99
0.27
2.67
4.68
5.88
6.23
5.94
5.43
5.07
4.90
4.83
4.58
4.01
3.22
2.51
2.24
2.68
3.77
5.08
6.08
6.23
5.32
3.52
1.31
-0.77
-2.32
-3.37
-4.21
-5.17
-6.38
-7.65
-8.52
-8.61
-7.87
-6.66
-5.67
-5.53
-6.44
-8.17
-10.13
-11.66
-12.41
-12.41
-12.01
-11.55
-11.12
-10.46
-9.16
-6.87
-3.63
0.00
3.25
5.44
6.35
6.27
5.86
5.68
5.94
6.40
6.46
5.73
4.33
2.80
1.85
1.92
2.91
4.21
5.03
4.85
3.77
2.45
1.65
1.92
3.16
4.80
6.10
6.56
6.05
4.99
3.95
3.28
3.13
3.20
3.05
2.37
1.12
-0.51
-2.17
-3.59
-4.75
-5.75
-6.75
-7.77
-8.51
-8.48
-7.20
-4.61
-1.11
2.46
5.36
7.13
7.95
8.31
8.85
9.90
11.34
12.62
13.18
12.88
11.89
10.86
10.37
10.70
11.68
12.78
13.38
13.16
12.30
11.23
10.52
10.52
11.18
12.16
12.98
13.37
13.34
13.24
13.41
14.22
15.61
17.24
18.69
19.70
20.42
21.25
22.70
25.08
28.44
32.48
36.82
41.36
46.30
52.12
59.24
67.77
77.48
87.87
98.60
109.57
121.10
133.49
146.83
160.84
174.76
187.80
199.32
209.21
217.79
225.73
233.52
241.41
248.87
254.41
255.76
250.43
236.73
214.64
185.96
153.63
120.66
88.99
59.24
31.34
5.27
-18.53
-39.38
-57.45
-74.34
-92.96
-116.03
-144.78
-178.22
-213.45
-246.74
-274.47
-293.79
-302.98
-301.62
-290.19
-270.33
-244.85
-217.40
-191.50
-169.90
-154.17
-144.63
-140.65
-141.02
-144.37
-149.57
-156.14
-164.45
-175.56
-190.28
-207.81
-224.76
-235.67
-234.83
-218.90
-188.73
-149.48
-108.61
-72.97
-46.28
-28.31
-16.09
-6.26
3.18
12.40
20.08
24.76
25.94
24.25
20.98
17.45
14.37
11.51
8.13
3.41
-2.94
-10.18
-17.26
-23.34
-28.31
-32.79
-37.60
-43.26
-49.51
-55.41
-59.54
-60.60
-58.07
-52.17
-43.62
-33.34
-22.27
-11.33
-1.41
6.89
13.48
18.75
23.59
28.82
34.85
41.24
46.76
49.70
48.73
43.52
35.08
25.63
17.52
12.37
10.21
9.73
8.84
5.96
0.80
-5.53
-10.89
-13.36
-12.00
-7.24
-0.48
6.46
12.16
15.89
17.51
17.27
15.51
12.39
8.11
2.96
-2.43
-7.03
-9.65
-9.47
-6.39
-1.22
4.61
9.76
13.57
16.24
18.68
21.86
26.00
30.46
33.92
34.95
32.95
28.24
22.16
16.48
12.82
11.93
13.65
17.07
21.06
24.69
27.43
29.14
29.84
29.58
28.28
25.98
22.99
19.92
17.45
15.93
15.32
15.15
14.89
14.30
13.47
12.58
11.67
10.55
8.83
6.19
2.56
-1.85
-6.51
-10.83
-14.30
-16.51
-17.09
-15.72
-12.35
-7.34
-1.42
4.45
9.41
12.96
15.11
16.24
16.78
17.06
17.05
16.65
15.97
15.26
14.98
15.41
16.40
17.37
17.71
17.07
15.69
14.29
13.61
13.99
15.07
16.15
16.52
16.05
15.13
14.51
14.67
15.57
16.66
17.30
17.38
17.46
18.49
21.15
25.31
29.89
33.24
34.22
32.82
30.37
28.84
29.99
34.54
42.09
51.35
60.55
68.24
73.66
76.80
78.10
78.21
77.76
77.21
76.90
75.98
73.33
67.95
59.81
49.98
40.25
32.33
27.20
25.04
23.64
20.21
12.48
0.04
-15.63
-31.99
-46.99
-60.11
-72.61
-89.23
-115.88
-157.51
-215.88
-289.00
-371.79
-457.98
-541.66
-604.63
-630.26
-608.30
-540.00
-438.14
-320.62
-202.95
-94.78
-0.45
79.16
143.19
190.91
222.76
241.45
252.09
260.68
272.33
289.65
312.49
338.97
363.27
378.91
381.40
369.64
345.07
310.34
268.08
217.20
160.09
99.01
35.35
-29.70
-94.32
-155.94
-210.82
-253.70
-278.18
-282.54
-264.26
-225.85
-174.77
-120.78
-72.66
-35.25
-8.38
11.82
29.92
48.61
66.78
81.39
90.12
92.76
91.50
89.69
90.15
94.68
104.01
116.79
129.27
137.05
135.15
118.77
84.68
32.93
-32.47
-100.51
-156.88
-189.49
-193.68
-172.85
-134.98
-88.38
-38.61
11.40
60.00
104.38
140.88
166.05
178.14
179.97
173.70
161.83
146.13
127.15
104.06
75.71
40.97
0.30
-43.74
-87.24
-124.97
-152.55
-167.55
-169.94
-157.75
-132.19
-95.72
-51.32
-2.27
49.06
100.16
147.92
188.61
218.45
233.29
230.27
208.05
163.20
97.64
18.11
-65.09
-140.91
-199.34
-233.29
-239.68
-221.60
-188.79
-153.67
-127.82
-117.65
-125.63
-145.49
-168.67
-186.96
-194.89
-190.03
-171.94
-142.67
-106.73
-66.24
-29.01
-1.65
14.73
23.74
31.14
41.79
57.14
75.36
93.81
110.33
124.79
138.56
152.39
165.96
178.73
190.49
201.46
212.61
225.85
240.04
252.51
259.01
255.36
238.84
209.38
169.23
122.63
73.62
25.04
-19.29
-58.33
-92.66
-123.24
-149.69
-170.69
-183.87
-188.29
-184.58
-174.80
-162.71
-151.93
-145.28
-143.46
-146.40
-152.83
-161.59
-170.85
-177.64
-179.16
-173.89
-163.08
-149.45
-138.92
-132.83
-130.37
-127.79
-119.86
-102.90
-75.49
-44.74
-15.70
5.77
18.52
25.78
32.95
43.84
58.68
74.20
85.73
91.25
91.76
91.20
93.61
101.04
112.42
124.83
134.87
139.86
139.33
135.65
131.59
130.17
133.48
140.68
147.86
148.93
137.72
110.11
68.56
19.24
-30.66
-75.21
-112.95
-144.47
-171.11
-193.39
-209.63
-217.17
-214.02
-199.74
-175.79
-144.91
-110.12
-73.80
-38.44
-5.02
25.88
53.32
76.09
92.97
103.12
106.55
104.41
98.42
90.86
83.59
77.68
73.27
69.80
66.55
62.79
58.42
53.73
49.39
45.99
44.12
44.03
45.65
48.74
52.99
58.09
63.49
69.52
74.58
77.72
78.10
75.26
69.11
60.14
49.28
37.46
25.70
14.65
4.88
-3.37
-10.06
-15.20
-18.90
-21.38
-22.84
-23.92
-25.31
-27.67
-31.21
-35.65
-40.13
-43.51
-44.79
-43.31
-39.41
-34.21
-29.26
-25.89
-24.53
-24.63
-24.82
-23.58
-20.09
-14.73
-9.22
-5.58
-5.48
-9.48
-16.52
-24.40
-30.48
-32.35
-28.63
-19.52
-7.25
3.65
7.22
-1.94
-26.11
-63.27
-106.76
-147.75
-178.42
-194.83
-198.11
-193.35
-187.11
-184.58
-187.84
-195.62
-203.86
-208.14
-204.98
-193.53
-176.17
-157.27
-140.98
-129.20
-120.58
-111.79
-99.33
-81.05
-57.17
-29.82
-1.22
27.73
57.34
88.68
121.75
155.03
185.92
211.97
231.68
246.13
258.96
275.21
299.60
334.96
381.96
439.48
504.67
571.35
631.63
676.90
699.91
696.46
666.66
615.25
550.51
481.23
411.80
343.97
278.43
216.70
160.94
112.82
72.75
39.80
11.47
-19.28
-58.01
-105.54
-157.83
-209.02
-255.18
-295.48
-331.61
-366.74
-409.48
-466.08
-536.69
-614.77
-691.20
-758.67
-813.09
-853.22
-845.43
-770.10
-633.76
-467.61
-305.18
-165.46
-52.85
35.92
106.07
162.35
202.98
226.14
233.58
231.35
226.99
225.67
229.80
239.95
256.03
273.65
289.21
302.22
315.75
333.40
357.01
386.37
417.92
447.14
466.71
470.58
456.02
424.53
379.82
326.28
268.12
208.79
151.18
96.00
43.27
-6.69
-52.73
-93.55
-128.52
-157.83
-182.55
-204.24
-225.25
-247.83
-273.57
-303.12
-336.59
-373.37
-411.78
-448.53
-478.38
-495.57
-495.58
-476.87
-441.65
-395.48
-345.10
-296.35
-252.73
-214.96
-182.35
-154.28
-130.93
-112.83
-100.24
-92.12
-86.15
-79.57
-70.43
-58.21
-43.99
-29.57
-16.38
-4.95
5.15
14.57
23.49
31.21
36.54
38.73
37.91
35.26
32.65
31.82
33.78
38.55
45.37
53.03
60.42
66.68
71.29
74.16
75.41
75.44
74.81
74.21
74.04
74.38
74.93
74.99
74.03
72.10
69.86
68.29
68.29
70.34
74.41
79.84
85.46
90.14
93.29
95.09
96.17
97.31
99.14
101.90
105.26
107.84
108.23
105.92
101.48
96.25
91.53
88.10
86.06
84.72
81.13
73.11
60.93
47.17
35.02
26.33
21.10
17.65
13.33
1.38
-23.42
-61.45
-108.00
-155.81
-197.50
-226.79
-239.13
-232.63
-215.17
-196.03
-180.84
-170.20
-162.82
-158.13
-156.36
-157.28
-160.39
-173.96
-204.95
-254.30
-316.58
-384.75
-453.65
-519.76
-579.39
-581.81
-497.79
-339.08
-151.82
21.10
161.83
271.48
357.33
424.47
480.61
519.68
535.53
528.94
507.78
481.28
454.84
426.26
394.12
357.60
309.70
245.54
165.65
76.30
-13.80
-96.40
-164.59
-213.57
-242.52
-258.42
-268.15
-273.88
-271.48
-253.82
-214.93
-153.12
-72.29
18.36
105.60
178.19
229.26
256.62
259.84
238.01
196.61
146.15
95.77
50.38
12.22
-17.38
-37.46
-47.92
-50.01
-45.70
-38.06
-30.49
-25.12
-22.66
-22.48
-23.17
-23.21
-21.73
-18.45
-14.43
-11.43
-10.53
-12.31
-16.57
-22.69
-30.18
-38.66
-47.84
-57.85
-71.01
-84.82
-96.59
-103.42
-102.38
-91.94
-72.05
-44.25
-11.83
21.26
51.20
74.07
86.81
88.66
80.65
65.72
49.98
37.34
29.88
27.36
26.93
24.64
18.48
7.67
-7.30
-25.31
-45.75
-68.37
-92.89
-118.71
-146.98
-173.70
-194.87
-207.42
-209.04
-198.83
-176.82
-143.89
-98.75
-46.48
9.46
66.26
121.53
173.53
220.56
260.95
295.21
321.75
338.16
344.15
339.69
325.08
300.88
267.80
227.24
179.05
129.08
81.49
39.10
1.80
-32.35
-65.06
-96.14
-122.51
-139.33
-142.63
-132.47
-112.20
-87.91
-65.82
-49.69
-40.21
-35.70
-33.52
-31.88
-30.91
-31.16
-32.96
-35.88
-38.59
-39.78
-38.67
-35.58
-31.68
-28.74
-27.87
-29.29
-32.24
-35.36
-37.46
-38.05
-37.36
-36.27
-35.99
-37.40
-40.90
-46.35
-53.24
-61.07
-69.92
-79.48
-89.52
-99.67
-108.99
-116.19
-120.12
-119.09
-112.14
-99.12
-80.64
-58.08
-33.39
-8.51
14.73
34.83
50.83
62.21
68.96
71.54
70.62
67.06
61.84
55.75
49.49
43.49
38.02
33.20
29.10
25.61
22.64
20.14
17.93
15.88
13.89
11.80
9.49
6.78
3.54
-0.30
-4.75
-9.83
-15.54
-21.74
-28.27
-34.92
-41.59
-48.13
-54.50
-60.68
-66.69
-72.51
-78.19
-83.63
-88.72
-93.49
-97.96
-102.27
-106.59
-111.12
-115.98
-121.35
-127.00
-132.67
-138.11
-142.98
-146.91
-149.40
-149.79
-147.20
-143.01
-137.67
-131.48
-124.65
-117.34
-109.69
-101.84
-93.93
-86.10
-78.57
-71.23
-64.06
-57.18
-50.74
-44.93
-39.95
-36.03
-33.40
-32.34
-32.78
-34.68
-37.97
-42.55
-48.25
-54.76
-61.76
-68.90
-75.84
-82.00
-86.84
-89.81
-90.50
-88.52
-83.65
-76.02
-65.93
-54.03
-41.09
-27.99
-15.61
-4.61
4.51
11.54
16.48
19.61
21.29
22.00
22.35
23.03
24.77
28.16
33.64
41.28
50.81
61.60
72.85
84.00
94.66
105.00
115.52
126.74
138.82
151.44
163.58
173.96
181.55
185.75
186.94
186.27
185.27
185.22
186.73
189.61
193.20
196.76
199.99
203.30
207.56
213.88
223.27
236.56
253.93
274.48
295.77
313.79
323.95
322.64
309.00
285.64
257.84
231.50
210.79
196.74
187.37
179.25
169.23
155.77
139.06
120.25
100.63
81.02
61.77
43.17
25.67
10.01
-3.10
-13.31
-20.89
-26.85
-32.66
-39.66
-48.60
-59.11
-69.79
-78.75
-84.37
-86.09
-84.72
-82.26
-80.98
-82.67
-87.90
-95.93
-104.93
-112.54
-116.22
-113.63
-102.99
-83.66
-56.50
-24.08
9.89
41.50
67.75
87.21
99.96
107.03
109.47
108.16
103.86
97.44
89.98
82.56
75.78
69.55
63.40
57.12
51.29
47.27
46.52
49.73
56.07
63.51
69.40
71.79
70.18
65.70
60.45
56.46
54.93
55.41
55.89
53.15
43.71
24.95
-3.81
-40.79
-82.28
-123.83
-162.09
-195.81
-226.02
-254.92
-284.27
-313.72
-339.88
-356.57
-356.44
-333.41
-285.24
-214.95
-130.64
-43.60
34.64
95.32
134.15
151.64
151.65
139.52
120.62
99.36
79.06
62.02
49.47
41.81
38.59
38.82
40.91
43.00
43.14
39.83
32.50
21.92
9.96
-1.16
-9.84
-15.82
-20.21
-24.85
-31.15
-38.92
-46.28
-50.46
-49.12
-41.57
-29.14
-14.68
-1.50
7.96
12.97
14.50
14.66
15.74
19.42
26.31
35.76
46.32
56.34
64.53
70.12
72.75
72.31
68.73
62.21
53.40
43.51
34.15
26.97
22.81
21.51
21.99
22.79
22.64
21.05
18.24
14.81
11.33
7.87
4.14
-0.34
-5.77
-12.01
-18.53
-24.82
-30.70
-36.44
-42.52
-49.07
-55.70
-61.48
-65.42
-66.87
-65.95
-63.53
-60.74
-58.43
-56.55
-54.41
-51.09
-46.16
-39.94
-33.58
-28.55
-25.80
-25.42
-26.63
-28.25
-29.38
-29.66
-29.25
-28.51
-27.53
-26.03
-23.45
-19.44
-14.15
-8.25
-2.83
1.08
2.82
2.38
0.22
-2.93
-6.33
-9.42
-11.97
-13.96
-15.41
-16.29
-16.46
-15.75
-14.18
-11.89
-9.25
-6.78
-4.79
-3.23
-1.54
1.08
5.33
11.50
19.40
28.28
37.35
46.05
54.19
62.47
71.52
81.64
92.54
103.43
113.13
120.73
125.95
129.34
133.17
139.89
151.52
168.85
191.53
218.07
246.57
275.33
302.79
328.43
350.72
367.10
374.80
372.60
361.49
344.81
326.65
309.67
295.03
280.13
260.46
232.04
193.84
147.84
98.29
49.83
-3.64
-65.09
-135.19
-210.32
-283.11
-344.01
-385.52
-403.56
-397.83
-370.74
-325.33
-267.08
-200.60
-131.80
-65.75
-7.52
38.37
67.93
79.54
74.90
57.72
33.86
4.85
-23.80
-48.73
-69.08
-89.23
-112.48
-139.73
-171.32
-206.70
-247.11
-295.19
-354.26
-424.51
-501.38
-574.45
-624.46
-635.13
-597.63
-514.99
-400.37
-271.89
-145.21
-35.15
57.56
134.46
194.98
237.78
261.82
268.24
258.19
234.44
198.98
153.75
98.52
32.28
-44.76
-130.17
-218.95
-304.43
-373.14
-412.61
-414.50
-379.42
-316.25
-238.05
-157.06
-81.39
-14.24
44.51
95.70
140.48
179.15
211.55
237.64
257.75
272.57
285.42
296.74
304.56
306.02
298.31
279.86
251.17
214.92
175.20
136.12
100.37
68.22
37.98
6.61
-27.38
-64.02
-102.68
-142.41
-181.10
-215.14
-238.88
-246.05
-232.48
-198.96
-151.78
-100.91
-56.53
-24.97
-7.78
-2.00
-3.00
-6.97
-12.59
-19.97
-29.60
-41.20
-53.32
-64.90
-75.81
-87.08
-100.24
-116.44
-135.41
-155.36
-174.68
-189.87
-198.26
-198.71
-191.70
-178.89
-162.41
-143.96
-124.74
-105.40
-86.12
-67.34
-49.88
-34.79
-23.24
-15.99
-12.96
-13.54
-16.77
-21.48
-26.83
-32.44
-38.21
-44.36
-51.13
-58.27
-65.40
-72.20
-78.26
-83.25
-86.87
-88.50
-87.04
-83.81
-78.45
-70.07
-57.56
-39.91
-16.55
12.28
45.50
81.05
115.97
147.25
171.44
185.25
186.01
172.17
143.56
101.56
48.98
-10.14
-70.69
-127.60
-176.31
-213.42
-236.76
-245.66
-240.54
-222.70
-194.08
-156.71
-113.10
-66.01
-18.32
27.10
67.78
102.12
129.59
150.67
166.81
179.65
190.62
200.61
209.98
218.80
227.35
236.08
245.74
257.27
271.62
289.72
312.25
339.12
368.75
397.67
420.73
432.47
429.04
409.95
378.19
339.47
299.98
264.38
234.80
211.10
192.11
176.61
163.89
153.25
143.79
134.03
122.36
107.80
90.33
71.11
52.08
35.13
21.45
11.20
3.43
-3.28
-10.25
-18.31
-27.66
-37.91
-48.61
-59.39
-70.10
-80.53
-90.48
-99.45
-107.14
-113.61
-119.27
-124.74
-130.36
-135.81
-139.99
-141.50
-139.00
-131.99
-120.87
-106.85
-91.63
-76.69
-63.06
-51.09
-40.64
-31.21
-22.38
-13.90
-5.72
1.87
8.55
13.91
17.63
19.40
19.08
16.79
12.94
8.44
4.33
1.71
1.27
3.09
6.56
10.57
14.08
16.55
18.39
20.86
25.54
33.69
45.75
60.96
77.65
93.98
108.58
121.11
132.06
141.81
150.45
157.44
162.06
163.67
162.38
158.76
153.50
147.05
138.31
125.24
105.30
76.01
35.21
-18.30
-84.22
-160.16
-240.93
-320.17
-389.17
-436.54
-451.48
-428.11
-368.40
-281.74
-184.43
-86.89
3.87
82.90
146.42
191.75
215.97
218.73
203.76
178.08
150.75
128.97
116.55
113.53
116.71
121.34
121.93
114.41
96.32
67.25
27.62
-21.19
-76.72
-135.67
-194.53
-251.75
-306.92
-360.91
-414.73
-469.32
-524.69
-579.66
-632.42
-669.66
-679.80
-654.93
-594.08
-503.69
-395.26
-280.94
-170.21
-69.22
18.80
91.13
146.26
184.00
205.86
214.83
214.80
209.76
203.01
196.82
191.19
185.25
177.93
168.61
157.49
145.32
133.26
122.33
113.30
105.83
99.29
92.88
86.03
78.41
69.78
60.48
51.03
42.29
34.76
29.09
25.48
23.90
23.97
24.77
25.92
27.46
30.02
34.17
40.32
48.01
56.18
63.81
68.69
69.66
66.07
58.10
46.56
33.25
21.30
14.90
17.86
31.70
54.51
79.98
100.65
110.39
106.67
91.39
69.46
46.10
24.52
5.86
-10.34
-24.37
-35.16
-41.26
-41.73
-36.97
-29.11
-21.42
-16.57
-16.00
-19.37
-24.72
-30.13
-34.61
-38.72
-44.75
-55.68
-73.66
-98.72
-128.69
-158.82
-183.79
-198.79
-200.46
-187.36
-160.22
-122.35
-78.83
-38.02
-7.24
9.24
12.00
5.94
-2.05
-6.23
-4.82
0.12
4.82
6.59
5.13
2.56
1.28
2.53
5.79
9.11
11.03
11.76
13.05
16.75
24.57
37.44
56.15
82.09
115.36
154.53
195.42
231.27
254.22
258.12
240.35
201.10
147.34
86.51
25.42
-30.64
-77.67
-113.85
-137.90
-149.92
-151.34
-144.12
-130.86
-113.27
-92.50
-69.17
-44.65
-21.06
-1.27
12.54
19.93
22.04
21.73
22.18
25.70
33.09
44.16
57.93
73.05
87.26
97.00
98.16
88.16
68.49
45.43
28.19
24.37
35.13
54.13
70.74
76.28
69.28
56.48
48.72
53.86
71.50
92.48
104.04
96.55
68.79
27.68
-15.64
-51.87
-77.27
-93.50
-104.53
-112.91
-117.86
-115.98
-104.21
-81.84
-51.92
-20.09
7.80
27.89
39.43
44.13
46.17
48.05
50.75
53.78
55.71
54.97
50.54
42.19
30.39
15.98
-0.70
-19.68
-41.27
-65.90
-94.11
-125.94
-160.61
-196.50
-231.50
-263.99
-292.84
-316.99
-335.21
-345.36
-344.06
-327.14
-290.84
-233.89
-158.90
-71.90
18.92
104.68
177.45
231.73
265.05
278.35
274.75
258.19
233.15
204.33
175.66
149.76
127.33
106.81
84.60
55.83
15.65
-37.55
-96.78
-147.32
-172.92
-166.03
-132.23
-84.95
-37.78
-0.13
25.18
40.17
48.52
52.85
54.18
52.74
50.01
48.89
51.73
60.79
76.41
96.89
118.75
138.50
152.32
157.96
155.58
145.68
130.50
112.38
93.31
74.42
56.08
37.80
19.17
0.76
-18.52
-37.40
-53.69
-64.73
-68.63
-65.24
-57.71
-50.99
-44.39
-41.97
-43.41
-44.96
-40.24
-22.17
13.22
62.68
119.02
174.06
214.41
233.26
229.24
205.20
163.70
108.28
41.75
-35.13
-129.50
-258.69
-422.48
-610.89
-805.88
-982.47
-1117.87
-1200.38
-1224.81
-1143.78
-947.63
-669.70
-372.45
-108.64
98.64
274.73
436.86
592.04
743.30
869.46
960.08
1014.60
1006.51
930.56
803.63
652.38
502.09
366.31
243.02
130.88
31.25
-51.19
-107.05
-132.35
-134.72
-126.07
-118.69
-124.85
-148.42
-186.86
-233.55
-276.48
-306.96
-325.74
-335.05
-338.46
-339.95
-339.65
-335.71
-326.04
-306.72
-277.01
-240.79
-203.61
-171.25
-148.24
-134.70
-128.78
-127.21
-125.21
-119.01
-106.82
-87.64
-60.54
-32.01
-5.02
17.76
34.43
44.22
47.32
44.48
37.49
28.20
18.42
11.07
7.24
6.81
8.35
10.24
10.82
9.56
6.39
2.23
0.15
2.32
10.29
24.81
46.59
76.38
114.88
162.07
217.03
279.57
346.79
413.82
475.31
527.50
569.09
601.08
625.65
645.84
667.42
693.71
724.97
758.46
789.33
810.90
815.39
795.52
747.03
673.55
580.74
474.59
360.19
242.38
125.43
13.42
-89.34
-197.99
-308.46
-405.20
-472.33
-505.22
-510.42
-499.53
-482.99
-467.31
-455.46
-444.70
-433.37
-421.72
-410.82
-399.95
-387.27
-369.82
-344.68
-310.36
-264.48
-208.43
-146.85
-85.80
-29.14
19.83
59.08
87.69
105.28
113.32
112.30
101.81
79.32
48.72
13.84
-21.47
-53.72
-80.38
-99.27
-110.11
-114.05
-112.89
-108.01
-101.40
-94.42
-87.65
-81.43
-75.52
-69.90
-64.88
-60.56
-56.83
-54.52
-54.32
-56.53
-61.34
-68.55
-77.74
-88.12
-100.15
-111.38
-120.34
-125.74
-126.41
-121.52
-110.55
-93.71
-71.76
-45.85
-17.11
12.52
41.20
67.30
89.45
106.72
118.01
122.50
119.64
109.62
92.81
70.42
44.30
16.91
-9.21
-32.49
-51.85
-67.59
-80.32
-91.10
-100.56
-108.97
-115.98
-121.16
-125.11
-128.74
-134.06
-142.64
-155.85
-174.43
-198.40
-227.74
-257.15
-284.21
-307.08
-326.04
-341.39
-354.23
-366.33
-379.52
-394.70
-409.96
-421.16
-419.71
-400.07
-357.18
-291.90
-211.47
-127.29
-50.76
10.46
52.71
80.22
92.59
95.99
94.99
91.99
87.97
84.43
83.92
87.84
102.56
122.04
149.87
186.49
227.83
266.08
294.04
307.73
304.74
294.09
271.86
250.95
241.27
245.67
260.54
282.06
310.15
304.80
324.26
365.25
442.10
561.49
717.21
891.05
1061.88
1212.54
1328.16
1410.66
1370.25
1168.96
831.38
431.19
40.73
-299.03
-557.32
-759.84
-919.11
-1049.91
-1143.90
-1195.54
-1203.90
-1177.56
-1127.80
-1062.69
-989.50
-904.64
-812.27
-705.12
-580.82
-445.24
-311.58
-193.32
-98.68
-31.72
13.46
40.49
60.22
80.84
105.12
130.20
151.34
165.64
172.89
176.89
179.18
183.51
192.58
207.10
225.26
243.98
261.13
278.70
298.84
321.12
344.41
368.03
392.14
416.63
440.41
462.74
488.94
521.52
558.48
594.90
627.11
654.86
680.25
705.46
732.42
768.55
812.84
854.48
877.48
869.42
827.50
758.05
672.54
531.65
331.65
102.19
-110.27
-272.97
-377.64
-431.64
-443.56
-431.01
-406.15
-369.32
-322.54
-271.86
-225.68
-191.93
-172.12
-164.25
-165.92
-173.89
-179.51
-178.21
-170.54
-160.88
-152.79
-146.28
-139.71
-131.99
-122.13
-106.33
-83.53
-55.94
-29.33
-8.24
6.36
15.21
18.71
16.74
9.99
-2.25
-21.91
-54.93
-104.31
-168.14
-241.79
-320.50
-400.18
-477.26
-549.17
-614.12
-676.61
-738.12
-794.75
-840.19
-869.01
-877.80
-865.45
-832.00
-778.54
-714.74
-647.49
-578.19
-506.40
-433.38
-362.95
-300.96
-252.87
-175.44
-55.16
91.90
233.98
346.80
423.83
471.06
497.50
511.58
519.87
518.91
500.51
471.98
442.52
418.73
404.19
399.44
403.66
415.20
424.89
425.82
415.61
402.07
386.94
369.45
346.99
317.83
281.93
236.73
183.46
128.18
77.62
36.54
7.64
-8.91
-14.39
-11.28
-5.16
0.19
4.42
8.76
14.79
24.30
38.10
56.77
79.97
103.42
123.40
138.30
147.69
151.46
150.34
142.88
128.20
106.28
72.62
24.51
-36.67
-106.49
-179.66
-249.65
-315.35
-375.93
-429.69
-482.25
-537.71
-593.85
-643.32
-678.71
-691.66
-683.74
-658.80
-620.59
-582.70
-557.35
-548.17
-551.14
-560.54
-568.29
-577.79
-594.18
-554.12
-425.71
-222.46
7.67
216.89
346.36
414.01
439.78
437.06
412.08
373.25
318.69
250.84
177.07
105.30
45.77
-2.86
-43.70
-78.53
-115.67
-163.44
-221.12
-279.49
-326.09
-346.25
-336.15
-297.41
-235.03
-160.88
-89.00
-26.41
26.50
71.88
112.98
146.23
166.76
172.25
174.36
181.20
198.40
224.81
252.85
274.36
281.80
272.91
251.14
222.07
188.71
152.87
114.80
74.30
32.67
-8.13
-48.51
-84.85
-113.02
-131.64
-139.88
-137.04
-122.29
-94.81
-54.53
0.22
63.86
129.05
188.15
235.51
268.15
285.84
290.54
285.15
273.01
256.92
239.32
221.43
203.80
186.65
170.21
154.84
140.46
127.23
115.00
103.75
93.41
83.85
75.00
66.90
59.76
53.49
48.55
45.07
43.20
43.12
44.77
47.77
51.35
56.41
60.43
61.99
60.04
54.01
43.83
30.01
13.32
-5.19
-24.34
-43.29
-60.94
-76.53
-89.69
-100.32
-108.37
-114.07
-117.76
-119.95
-121.33
-122.23
-122.94
-123.78
-125.04
-126.48
-127.98
-129.43
-130.83
-132.46
-134.40
-136.83
-140.00
-144.12
-148.58
-152.91
-156.66
-159.38
-160.76
-160.32
-157.38
-150.60
-142.91
-134.69
-125.82
-115.94
-104.71
-92.10
-78.42
-64.17
-49.95
-36.21
-22.25
-7.31
9.38
28.21
49.02
70.93
92.73
113.31
132.03
149.67
167.52
187.02
209.17
234.04
260.78
288.01
314.36
338.97
362.20
384.99
408.81
435.50
466.89
504.06
546.10
589.08
625.85
647.69
646.89
619.75
568.35
499.89
424.12
349.96
283.07
225.26
175.79
133.19
96.67
66.40
42.73
25.50
13.54
4.91
-2.66
-11.19
-22.06
-35.77
-51.88
-69.05
-85.39
-99.25
-109.64
-116.36
-120.17
-122.26
-124.17
-127.67
-134.57
-146.05
-161.62
-178.26
-190.63
-193.07
-182.15
-158.88
-128.91
-100.55
-81.48
-75.90
-83.66
-101.41
-124.99
-151.24
-178.63
-206.56
-234.23
-259.79
-280.63
-294.29
-299.44
-296.55
-287.75
-276.65
-267.09
-261.85
-261.70
-265.09
-268.84
-269.55
-265.08
-255.30
-241.79
-226.85
-212.23
-198.60
-185.82
-173.68
-162.61
-153.72
-148.21
-146.19
-146.38
-146.30
-143.36
-136.03
-124.40
-109.89
-94.35
-78.85
-63.20
-46.35
-27.34
-6.44
14.81
34.21
50.12
62.49
72.74
82.74
93.35
103.51
110.60
111.93
106.53
96.03
84.13
74.92
70.62
70.58
71.59
69.74
62.64
51.05
38.61
30.18
29.47
37.01
49.89
62.91
70.71
69.75
59.36
41.34
18.94
-4.33
-25.55
-42.50
-53.65
-57.90
-54.81
-44.86
-29.58
-11.57
6.21
20.92
30.75
35.12
34.71
31.00
25.60
19.70
13.64
7.16
-0.34
-8.98
-18.23
-26.70
-32.58
-34.15
-30.49
-22.14
-10.79
1.19
11.63
19.33
24.16
26.61
27.26
26.37
23.92
20.13
15.86
12.59
12.17
15.68
22.84
31.92
40.58
46.99
50.64
52.43
53.86
56.13
59.20
61.57
61.32
57.55
51.13
44.43
40.27
40.15
43.93
49.74
54.33
55.06
51.17
43.94
35.49
27.83
21.41
16.20
12.24
8.72
5.39
3.08
3.38
7.32
15.20
25.14
35.34
44.86
51.46
53.75
52.08
48.40
44.36
41.12
36.77
29.73
19.07
1.73
-24.73
-60.35
-103.02
-150.20
-198.61
-247.81
-296.03
-322.94
-311.17
-257.15
-174.56
-83.37
-6.29
59.35
115.73
162.67
196.89
209.58
193.52
149.07
83.43
7.35
-66.61
-130.12
-168.49
-169.68
-134.85
-77.71
-13.38
48.42
101.72
152.56
203.89
255.62
304.27
344.68
367.58
370.25
354.32
322.90
271.25
201.90
125.49
53.31
-9.14
-61.07
-102.04
-131.42
-149.24
-155.54
-151.41
-139.52
-124.45
-111.17
-102.85
-99.21
-98.16
-97.85
-96.27
-91.93
-84.98
-77.29
-71.34
-68.69
-69.19
-71.61
-75.26
-79.59
-83.90
-88.38
-94.02
-101.80
-111.77
-125.18
-138.55
-149.60
-156.68
-158.77
-156.01
-149.56
-140.48
-129.79
-117.96
-104.58
-89.71
-73.57
-56.69
-40.27
-26.00
-14.82
-7.85
-5.79
-8.37
-14.59
-22.06
-27.07
-25.58
-14.35
8.92
43.41
85.91
132.17
178.09
221.03
260.08
295.92
321.48
332.63
326.35
301.49
259.17
202.68
137.15
68.39
1.67
-58.65
-108.38
-144.73
-165.99
-171.51
-161.58
-137.54
-102.11
-59.50
-14.91
26.71
60.68
83.67
94.20
92.82
81.71
63.60
41.09
16.21
-9.40
-34.95
-60.73
-88.25
-120.14
-158.94
-205.38
-256.81
-307.01
-347.84
-372.50
-378.11
-367.18
-346.12
-322.35
-301.59
-286.29
-275.72
-267.79
-260.93
-254.20
-246.85
-237.06
-222.00
-198.85
-165.95
-123.35
-73.49
-20.89
29.19
72.24
105.70
129.37
144.42
152.19
154.48
151.86
143.54
128.35
106.33
79.33
51.78
28.54
13.38
10.19
19.41
37.32
57.79
75.71
88.39
98.01
107.84
120.16
139.79
167.46
198.07
223.43
237.96
240.63
238.87
241.66
256.32
295.43
366.00
464.54
577.83
688.95
779.94
841.89
870.33
866.90
851.54
846.18
862.38
896.65
935.59
960.36
962.77
940.63
831.70
618.48
339.01
64.29
-151.13
-270.76
-325.31
-339.20
-327.17
-297.80
-257.33
-210.78
-170.53
-153.30
-170.64
-235.97
-335.52
-444.28
-538.75
-598.50
-617.05
-602.94
-573.27
-543.13
-522.22
-508.21
-497.70
-489.00
-477.55
-461.06
-441.95
-426.17
-422.68
-431.03
-444.16
-456.10
-463.32
-461.50
-447.78
-422.24
-387.62
-345.84
-298.90
-248.08
-197.05
-150.36
-109.81
-73.84
-38.02
4.42
59.49
129.50
211.92
299.82
384.80
460.39
523.55
573.69
594.56
574.70
511.95
415.19
299.42
178.89
63.68
-40.78
-132.20
-210.42
-276.76
-332.53
-376.77
-407.74
-423.55
-422.57
-404.49
-370.02
-321.21
-251.61
-164.90
-70.22
21.21
99.88
160.38
201.10
223.59
230.49
226.18
213.88
197.06
178.65
160.67
144.42
130.09
117.80
106.76
96.74
86.67
76.47
66.54
57.46
49.83
43.69
39.43
37.03
36.54
37.05
37.87
38.77
39.14
40.58
40.71
38.46
33.44
25.86
16.11
4.86
-5.81
-14.31
-19.28
-20.36
-17.24
-10.29
-0.75
9.26
16.96
20.92
19.94
13.71
2.54
-11.74
-26.64
-39.74
-49.39
-55.62
-57.78
-56.13
-51.16
-43.38
-32.72
-18.48
0.62
27.16
53.75
77.38
96.54
109.76
114.12
104.98
78.97
36.93
-14.11
-64.09
-101.27
-118.44
-115.05
-95.99
-68.20
-37.50
-7.39
22.37
48.94
69.67
82.11
85.82
83.51
80.17
80.87
83.72
88.41
89.85
82.98
65.42
39.06
9.22
-18.28
-39.34
-52.63
-58.65
-60.06
-58.89
-56.80
-55.37
-56.31
-61.44
-71.76
-86.83
-104.38
-122.10
-138.30
-150.98
-158.86
-161.34
-158.25
-149.21
-133.57
-110.53
-80.22
-42.52
-0.38
43.14
84.13
117.26
136.89
138.77
122.22
91.39
54.74
21.80
0.36
-6.47
-0.54
13.81
32.45
53.00
74.87
98.42
121.31
139.78
149.43
147.07
132.23
107.21
75.97
41.93
9.25
-20.71
-47.93
-72.93
-95.96
-116.75
-134.75
-149.29
-159.11
-162.27
-156.62
-140.19
-112.97
-77.99
-41.06
-8.82
13.78
25.54
28.67
26.91
23.75
20.87
18.10
14.73
10.73
7.09
5.35
6.37
9.62
13.58
16.49
17.08
15.28
12.13
9.10
7.51
7.82
9.58
11.71
13.12
13.06
11.66
9.57
7.69
6.70
6.75
7.44
8.08
8.13
7.36
6.18
5.13
4.69
4.96
5.56
5.77
4.89
2.49
-1.46
-6.48
-12.16
-18.37
-25.35
-33.53
-43.17
-53.79
-64.09
-72.26
-76.10
-74.10
-66.05
-53.15
-37.64
-21.93
-7.92
3.53
12.57
19.92
26.40
32.84
40.12
48.79
58.46
66.98
70.66
65.15
48.70
23.30
-5.22
-29.31
-42.90
-43.92
-34.85
-20.76
-6.63
4.80
13.36
20.25
26.38
31.77
35.75
37.97
39.38
42.13
48.47
60.22
77.56
98.98
121.77
143.01
159.69
169.87
172.69
168.16
156.78
139.18
116.05
87.95
56.75
24.22
-7.50
-36.26
-60.21
-78.07
-89.47
-95.29
-96.40
-94.40
-91.21
-88.30
-86.58
-86.19
-86.58
-86.89
-86.36
-84.45
-81.53
-78.71
-77.24
-78.06
-81.29
-86.07
-91.03
-94.87
-96.79
-97.00
-96.52
-96.39
-97.76
-101.46
-108.08
-117.71
-129.35
-140.49
-147.38
-146.44
-136.01
-118.29
-98.90
-84.79
-81.13
-89.17
-105.08
-122.13
-133.56
-134.85
-124.64
-103.85
-74.39
-38.17
3.21
46.72
88.97
126.26
155.40
174.30
182.90
182.96
177.13
169.05
160.57
152.74
145.49
138.17
130.03
120.88
111.20
101.58
92.90
85.58
79.70
74.84
70.35
65.57
60.25
54.46
48.56
43.12
38.46
34.85
32.21
30.23
28.45
26.42
23.94
21.04
18.11
15.62
14.10
13.76
14.41
15.50
16.35
16.45
15.73
14.66
13.97
14.43
16.27
19.21
22.50
25.21
26.92
27.74
28.33
29.51
31.77
35.06
39.27
44.75
52.07
61.27
70.77
77.14
76.07
64.49
42.55
14.67
-12.90
-34.06
-45.84
-49.22
-47.69
-44.53
-40.81
-35.61
-27.79
-18.41
-10.85
-9.46
-16.60
-30.78
-47.04
-59.50
-64.71
-63.60
-60.74
-61.17
-67.24
-77.30
-86.93
-91.23
-87.84
-78.04
-65.44
-53.67
-44.15
-35.40
-24.43
-8.75
12.05
35.90
58.96
77.20
87.71
89.10
81.98
68.34
51.28
34.27
20.87
13.97
15.31
25.08
41.05
59.46
75.62
85.08
84.73
73.93
54.78
31.59
9.51
-7.30
-16.34
-17.43
-12.33
-3.88
4.95
11.87
15.34
17.28
18.55
20.02
22.28
25.50
29.66
34.63
40.04
45.21
49.44
52.06
53.64
55.85
60.48
68.27
78.04
86.84
91.36
89.48
80.92
67.55
52.14
37.08
23.64
12.41
3.83
-1.35
-2.31
0.91
7.15
14.21
19.60
21.59
19.89
15.60
10.50
6.01
2.61
-0.22
-3.61
-8.57
-15.53
-24.14
-33.66
-43.17
-52.04
-59.98
-66.72
-72.13
-75.99
-78.13
-78.64
-77.80
-75.99
-73.65
-71.26
-69.14
-67.42
-66.09
-65.01
-64.06
-63.25
-62.61
-62.37
-62.73
-63.81
-65.62
-67.99
-70.90
-74.53
-79.28
-85.40
-92.90
-101.22
-109.50
-116.78
-122.34
-125.91
-127.59
-127.66
-126.28
-123.49
-119.34
-113.96
-107.84
-101.60
-95.80
-90.56
-85.59
-80.13
-73.37
-64.76
-54.16
-42.03
-29.17
-16.56
-4.83
5.63
14.81
22.75
29.33
34.33
37.37
38.29
37.24
34.76
31.57
28.48
26.01
24.36
23.46
23.00
22.78
22.75
22.87
23.24
23.83
24.43
24.67
24.31
23.25
21.66
20.01
18.58
17.43
16.34
14.87
12.61
9.59
6.22
3.24
1.47
1.50
3.49
7.06
11.56
16.23
20.45
23.89
26.43
28.13
28.93
28.84
27.73
25.68
23.09
20.56
18.84
18.45
19.52
21.52
23.65
25.14
25.55
25.15
24.58
24.48
25.16
26.33
27.23
27.11
25.60
22.92
19.81
16.96
14.77
13.05
11.24
8.78
5.42
1.40
-2.68
-6.11
-8.54
-9.84
-10.26
-10.00
-9.20
-7.90
-6.19
-4.45
-3.16
-2.86
-3.61
-5.02
-6.18
-6.09
-4.15
-0.45
4.17
8.58
11.63
12.90
12.50
11.03
9.20
7.46
5.86
4.18
2.11
-0.55
-3.58
-6.52
-8.88
-10.31
-10.90
-11.03
-11.20
-11.71
-12.39
-12.70
-11.95
-9.72
-6.12
-1.99
1.70
4.02
4.63
3.80
2.11
0.13
-1.79
-3.68
-5.76
-7.96
-9.99
-11.25
-11.26
-9.97
-7.90
-5.97
-5.03
-5.52
-7.03
-8.64
-9.12
-7.61
-3.91
1.34
7.01
11.94
15.41
17.41
18.47
19.36
20.63
22.32
23.99
24.98
24.62
22.91
20.37
17.94
16.62
16.95
18.77
21.36
23.63
24.42
23.18
20.15
16.33
13.09
11.41
11.37
12.41
13.31
12.77
9.99
5.07
-1.18
-7.48
-12.58
-15.28
-14.35
-8.74
1.29
13.33
22.58
23.16
10.92
-14.44
-48.13
-81.41
-104.88
-112.66
-104.08
-82.54
-52.68
-17.85
19.94
58.44
93.50
118.48
125.10
107.29
65.51
8.60
-48.37
-89.26
-101.86
-81.30
-31.17
36.51
105.47
161.00
194.22
203.14
190.90
163.37
126.94
86.56
43.94
-1.70
-50.70
-101.80
-153.20
-204.86
-258.78
-317.37
-364.77
-381.62
-357.33
-296.77
-214.34
-123.41
-32.84
52.09
128.22
193.89
251.06
297.76
331.37
351.13
358.39
355.18
343.42
324.79
289.25
235.98
169.17
97.40
29.93
-26.35
-68.31
-95.84
-110.46
-114.71
-110.33
-101.30
-91.38
-82.81
-76.22
-71.41
-67.82
-64.68
-61.54
-57.14
-52.53
-49.21
-48.32
-50.18
-54.60
-60.67
-66.94
-74.53
-79.73
-80.83
-77.34
-69.42
-57.66
-43.49
-28.40
-13.54
0.30
13.24
24.71
34.26
41.60
46.90
49.46
49.20
46.95
44.35
43.29
44.51
47.96
52.79
57.80
59.51
54.77
41.32
22.41
0.47
-22.79
-46.34
-69.66
-92.52
-117.47
-146.47
-180.12
-216.68
-253.76
-289.01
-320.49
-346.46
-349.12
-317.82
-252.82
-166.19
-72.94
15.40
93.50
160.18
216.06
261.95
295.84
318.61
330.23
332.41
327.11
316.95
304.55
292.29
282.04
272.83
263.38
251.71
235.94
214.15
185.40
149.41
106.49
57.44
1.71
-54.75
-103.77
-137.21
-155.26
-162.83
-165.95
-168.67
-172.51
-178.51
-186.24
-203.95
-228.09
-256.39
-285.45
-311.47
-330.38
-339.19
-337.48
-325.73
-306.10
-267.69
-209.02
-132.10
-42.01
54.16
148.25
231.14
296.14
339.69
362.61
365.03
349.00
313.44
261.83
202.72
144.42
93.50
52.52
21.05
-5.54
-31.82
-60.28
-94.84
-131.00
-163.74
-188.09
-201.25
-203.02
-197.15
-188.58
-181.48
-177.93
-171.98
-162.47
-150.20
-137.12
-125.23
-116.26
-110.51
-106.97
-103.80
-99.16
-94.32
-90.97
-89.87
-89.77
-87.57
-79.96
-65.60
-46.21
-26.95
-15.98
-19.99
-40.97
-75.76
-117.99
-161.52
-202.76
-239.30
-269.80
-293.05
-306.22
-305.04
-286.01
-248.65
-196.72
-136.79
-72.27
-5.00
63.67
132.39
199.38
262.72
320.00
368.13
403.85
429.95
448.89
460.77
463.36
455.34
438.88
419.42
403.77
397.82
412.60
454.65
522.92
608.65
699.89
786.06
859.42
915.09
906.31
808.27
629.27
408.08
187.77
-5.31
-163.37
-289.64
-391.03
-474.15
-537.00
-577.40
-596.64
-603.59
-605.51
-605.39
-602.68
-595.00
-579.39
-548.08
-495.65
-421.81
-329.03
-228.92
-133.62
-52.23
10.27
52.73
80.35
99.29
113.76
124.59
130.94
132.26
128.72
120.59
108.72
95.97
85.15
77.79
74.00
73.77
77.45
84.74
92.78
97.06
93.03
77.75
53.94
22.91
-10.44
-39.84
-60.14
-70.03
-72.08
-71.62
-74.45
-84.90
-104.98
-133.28
-166.25
-198.99
-227.13
-247.46
-258.18
-258.84
-249.76
-232.72
-210.22
-185.62
-162.06
-142.28
-127.66
-118.07
-111.97
-106.57
-99.19
-86.89
-72.86
-58.70
-45.96
-35.82
-28.80
-25.01
-24.23
-26.57
-32.38
-42.51
-57.20
-76.83
-101.41
-130.26
-161.93
-194.38
-225.47
-253.04
-275.37
-290.51
-297.37
-295.42
-284.80
-266.17
-240.87
-210.70
-177.78
-144.31
-111.84
-81.74
-54.77
-31.24
-10.84
6.91
22.81
37.50
51.54
65.45
79.51
93.74
107.91
121.75
134.78
146.43
156.06
163.05
167.15
168.47
167.52
165.26
162.93
161.70
162.36
165.22
170.14
176.63
184.07
192.01
200.10
208.41
217.28
226.75
236.24
244.17
248.29
246.44
237.23
220.78
198.26
170.89
139.70
105.61
70.27
36.36
7.13
-15.14
-30.38
-40.93
-49.86
-59.02
-68.19
-76.14
-82.47
-88.59
-97.32
-110.71
-127.95
-145.35
-157.81
-161.59
-156.42
-145.21
-131.80
-119.09
-107.48
-95.63
-81.86
-65.12
-46.20
-26.79
-8.45
8.03
22.94
37.45
53.05
70.44
89.26
107.86
124.32
137.39
146.53
151.94
154.20
153.92
151.44
147.56
143.76
141.77
142.82
146.08
148.54
146.07
135.16
114.83
87.19
56.28
26.12
-0.83
-23.40
-40.81
-51.27
-53.01
-45.27
-30.06
-12.50
1.05
5.87
1.48
-8.51
-18.33
-23.42
-21.92
-14.84
-4.45
7.78
22.15
39.85
61.76
87.90
116.93
147.41
178.31
208.64
237.42
262.85
282.54
294.25
296.86
290.89
278.24
261.93
245.12
231.25
223.08
222.44
229.43
241.91
255.95
266.84
271.16
268.04
258.97
246.48
233.18
220.86
210.70
203.23
198.32
195.16
192.36
188.11
180.27
166.90
146.85
119.85
86.56
48.35
7.14
-33.85
-71.24
-102.72
-127.68
-147.29
-163.46
-177.87
-191.60
-205.01
-215.91
-222.94
-226.99
-231.12
-239.02
-252.69
-270.73
-288.86
-300.99
-296.28
-267.26
-213.50
-142.33
-65.67
4.70
60.41
97.32
115.28
125.12
137.56
158.76
188.27
221.57
254.49
285.11
313.93
343.28
386.89
456.37
555.54
678.04
811.21
942.65
1063.83
1170.36
1195.11
1097.55
877.67
580.12
266.07
-19.16
-255.15
-439.18
-576.84
-676.41
-736.28
-756.83
-744.61
-712.97
-677.67
-649.76
-633.58
-628.19
-630.40
-629.26
-617.10
-592.18
-559.14
-525.54
-496.25
-471.93
-450.46
-428.72
-399.06
-355.78
-297.95
-229.56
-161.48
-105.50
-70.52
-59.95
-70.41
-90.68
-107.53
-111.27
-98.84
-73.95
-43.31
-13.16
12.61
33.14
49.68
64.39
77.68
88.80
96.37
99.33
97.37
90.65
79.84
65.35
48.41
30.67
13.98
-0.42
-12.49
-23.52
-35.74
-51.35
-72.11
-97.27
-123.59
-146.04
-159.77
-162.72
-157.31
-150.40
-147.04
-154.42
-176.59
-212.01
-253.24
-288.48
-305.69
-296.62
-259.30
-199.78
-131.59
-71.30
-33.74
-27.31
-49.98
-90.54
-132.94
-161.44
-167.02
-150.28
-119.02
-82.95
-49.65
-20.01
8.89
39.36
71.82
102.06
122.17
125.05
108.60
76.56
40.38
13.16
4.53
20.64
61.59
121.84
192.86
266.59
335.65
397.56
451.04
476.68
459.28
394.97
294.01
175.50
70.76
-13.77
-78.05
-124.86
-158.86
-185.12
-205.50
-220.81
-231.31
-236.82
-238.67
-235.57
-226.66
-212.60
-192.85
-166.65
-133.94
-95.30
-51.62
-5.28
43.39
93.71
143.56
190.72
232.68
266.21
288.36
297.20
291.65
273.77
246.83
214.37
180.18
147.56
118.27
92.58
69.99
49.59
31.82
17.77
8.09
2.42
-1.12
-5.23
-11.84
-20.85
-30.23
-36.93
-38.80
-35.69
-29.22
-21.35
-12.98
-3.84
6.57
17.61
27.10
32.15
30.55
21.84
7.28
-10.70
-29.58
-47.38
-62.90
-75.41
-84.51
-90.27
-92.90
-92.80
-90.42
-86.18
-80.62
-74.61
-69.17
-64.97
-62.24
-60.39
-58.62
-56.48
-54.25
-52.77
-53.06
-55.71
-60.41
-66.59
-73.48
-80.51
-87.28
-93.53
-99.21
-104.27
-108.51
-111.34
-112.30
-111.22
-108.77
-106.35
-104.99
-104.49
-102.66
-96.00
-81.18
-56.99
-24.91
11.26
46.75
78.15
104.12
125.32
143.41
159.78
174.86
188.29
198.96
205.30
206.08
200.72
189.83
174.93
157.77
139.43
120.16
99.87
78.71
58.01
39.62
25.24
15.59
9.96
6.47
3.17
-1.20
-6.96
-13.50
-19.99
-25.67
-29.90
-32.25
-32.57
-30.99
-28.18
-25.04
-22.07
-19.05
-15.09
-9.19
-1.08
8.03
15.98
20.47
20.30
16.17
10.23
4.81
1.28
-0.46
-1.28
-1.47
-0.19
4.29
13.33
26.45
41.08
53.65
60.97
61.69
56.63
47.90
37.89
28.41
20.14
12.86
5.84
-1.78
-10.74
-21.55
-34.46
-49.34
-65.61
-82.66
-99.81
-116.56
-132.57
-147.72
-162.11
-176.14
-190.22
-204.45
-218.37
-230.45
-238.25
-238.71
-229.13
-207.83
-174.90
-131.81
-80.67
-23.58
37.45
99.63
158.68
209.00
245.16
264.28
267.42
259.53
247.43
236.79
229.85
225.45
220.92
214.16
204.85
194.04
183.05
172.68
162.86
152.97
143.23
135.33
132.01
135.75
147.45
165.56
186.61
205.69
217.92
220.30
212.98
198.78
181.56
164.29
147.97
132.37
115.85
96.19
71.13
38.51
-3.78
-57.41
-122.88
-200.49
-282.23
-354.05
-401.82
-418.30
-405.88
-373.58
-331.44
-287.11
-244.83
-205.72
-170.40
-140.17
-116.44
-99.77
-89.39
-83.20
-78.60
-73.46
-66.13
-56.60
-46.34
-37.26
-30.74
-26.99
-25.12
-23.82
-21.78
-18.06
-12.75
-6.71
-1.09
3.44
7.08
10.72
15.53
22.58
32.44
44.65
57.95
70.56
80.70
87.43
90.13
88.90
84.35
77.06
67.44
55.75
42.38
27.74
12.56
-2.22
-15.51
-26.49
-34.99
-41.20
-45.17
-46.71
-45.75
-42.31
-37.02
-30.99
-25.51
-21.92
-20.28
-19.09
-16.00
-9.77
-0.01
12.66
27.60
45.07
64.95
87.38
112.13
137.63
159.38
173.34
178.07
175.49
170.55
165.28
158.98
148.92
131.86
103.02
61.41
11.43
-38.27
-77.17
-102.19
-115.55
-122.31
-128.48
-142.37
-168.85
-207.43
-253.02
-296.69
-335.47
-368.77
-395.84
-390.48
-337.44
-241.33
-124.06
-25.67
53.91
119.19
171.39
214.64
249.17
272.05
282.08
281.54
275.37
271.31
270.56
268.71
261.57
247.44
225.55
197.73
168.16
142.23
126.11
119.46
113.26
97.77
66.72
17.56
-48.49
-128.17
-216.57
-306.47
-392.08
-473.43
-549.17
-614.84
-665.79
-701.79
-728.58
-754.72
-785.99
-775.46
-692.42
-539.78
-351.80
-166.71
-7.07
121.19
222.08
303.78
372.85
431.17
474.52
499.86
508.69
504.83
492.09
473.65
452.12
416.66
361.85
289.33
208.14
130.23
64.54
15.34
-16.83
-33.79
-38.51
-36.20
-32.90
-32.18
-34.04
-37.11
-39.72
-40.90
-40.60
-39.10
-37.46
-37.52
-40.20
-44.74
-50.22
-55.78
-61.21
-67.33
-74.83
-83.80
-93.94
-106.28
-116.94
-123.03
-122.54
-114.95
-101.64
-84.59
-65.95
-48.40
-34.87
-27.51
-27.49
-33.40
-39.19
-40.60
-34.15
-19.67
-1.07
15.34
24.19
23.32
14.37
2.19
-8.84
-15.99
-18.92
-18.77
-16.50
-12.09
-4.86
5.38
17.74
30.00
39.79
44.96
44.49
38.64
28.76
16.65
3.55
-9.87
-23.64
-37.70
-51.66
-64.47
-74.46
-80.94
-82.96
-80.64
-75.15
-68.63
-63.48
-61.78
-64.81
-72.82
-85.04
-99.73
-114.85
-128.32
-138.41
-143.74
-143.46
-137.24
-125.58
-109.44
-90.25
-69.77
-49.76
-31.84
-17.22
-6.51
0.34
3.74
4.58
3.84
2.53
1.53
1.55
2.94
5.86
10.16
15.41
20.90
25.76
28.99
29.56
26.57
19.23
7.02
-10.19
-32.11
-58.08
-87.07
-117.72
-148.40
-177.55
-203.65
-225.59
-242.60
-254.37
-261.00
-262.87
-260.46
-254.30
-244.77
-232.13
-216.53
-198.17
-177.32
-154.28
-129.39
-102.88
-74.90
-45.51
-14.88
16.51
47.69
77.19
103.27
124.30
139.22
147.83
150.93
150.06
146.89
142.73
138.23
133.41
128.17
122.89
118.67
117.57
121.85
133.17
151.84
176.45
204.27
232.14
257.60
279.64
298.86
317.26
337.34
361.27
389.80
421.40
451.98
475.44
485.05
475.66
445.76
398.72
342.12
285.58
237.60
203.11
182.35
171.52
165.00
157.99
148.47
137.45
127.92
122.73
123.02
127.42
132.80
136.25
136.99
137.06
140.03
148.68
162.58
177.28
185.52
180.03
156.50
115.02
59.66
-2.90
-65.51
-121.80
-166.94
-197.54
-211.74
-209.46
-192.94
-166.64
-136.11
-106.63
-81.84
-63.15
-49.85
-40.30
-32.79
-26.48
-21.63
-19.14
-20.15
-25.43
-35.34
-49.46
-66.85
-86.01
-104.94
-121.48
-133.58
-139.93
-140.23
-135.27
-126.54
-115.61
-103.78
-91.82
-80.16
-68.79
-57.33
-44.93
-30.43
-12.90
7.77
30.11
51.55
69.05
80.61
85.95
86.36
83.81
79.57
73.79
65.68
54.78
41.59
27.75
15.44
6.36
1.01
-1.53
-2.92
-4.86
-8.06
-12.21
-16.17
-18.70
-19.40
-18.95
-18.95
-21.00
-25.86
-32.83
-40.07
-45.55
-47.83
-46.67
-42.67
-36.70
-29.42
-21.34
-12.71
-4.14
3.24
8.31
10.12
8.42
3.56
-3.84
-12.97
-22.66
-31.51
-38.39
-42.53
-43.71
-42.00
-37.75
-31.33
-23.02
-12.42
0.95
17.23
36.08
56.39
76.27
93.06
103.72
105.71
99.67
88.22
75.08
63.68
55.89
52.13
51.61
52.80
54.06
56.57
61.22
67.59
73.61
76.48
74.48
68.06
58.77
47.90
40.21
38.59
42.81
49.71
55.19
57.37
57.76
60.12
68.75
93.54
143.01
221.63
327.94
455.47
595.43
738.38
875.28
958.50
952.23
843.58
651.32
414.62
172.37
-50.29
-243.30
-406.10
-541.88
-648.29
-722.82
-765.10
-780.15
-777.29
-764.81
-748.37
-730.81
-712.84
-689.46
-656.22
-611.38
-557.62
-500.48
-445.30
-395.21
-351.40
-313.60
-277.75
-239.94
-198.07
-153.02
-107.49
-64.26
-25.03
9.98
41.65
72.83
106.32
143.56
183.34
222.06
254.75
276.49
284.15
277.34
259.05
234.27
208.17
184.33
164.16
147.40
132.90
119.76
107.51
96.08
85.41
75.18
64.89
54.27
43.41
32.70
22.79
14.17
7.06
1.32
-3.47
-7.85
-12.15
-16.44
-20.63
-24.28
-26.92
-28.18
-27.95
-26.53
-24.51
-22.60
-21.39
-21.14
-21.64
-22.42
-22.88
-22.69
-21.93
-21.06
-20.71
-21.36
-22.98
-25.06
-26.79
-27.49
-26.93
-25.43
-23.67
-22.28
-21.54
-21.29
-21.01
-20.16
-18.52
-16.17
-13.49
-10.76
-8.07
-5.18
-1.91
1.70
5.26
8.11
9.61
9.49
8.11
6.26
5.00
4.97
6.38
8.79
11.50
13.95
16.01
17.94
20.28
23.47
27.54
32.13
36.50
39.77
41.25
40.37
36.91
31.14
23.74
15.70
8.16
2.13
-1.67
-2.93
-1.98
0.30
2.70
3.95
3.15
0.13
-4.46
-9.24
-12.55
-13.21
-10.83
-5.99
0.01
5.71
10.06
12.68
13.85
14.36
14.85
15.62
16.51
17.09
17.05
16.48
15.65
14.85
14.09
12.98
11.11
8.49
5.88
4.88
7.38
14.67
26.84
42.61
59.68
75.88
89.60
100.06
107.09
110.51
109.72
103.67
91.26
71.44
43.62
7.44
-37.17
-89.58
-148.29
-210.76
-273.52
-332.76
-385.16
-428.41
-461.50
-484.41
-497.45
-500.71
-493.65
-474.71
-441.54
-391.85
-324.37
-240.27
-144.11
-43.75
50.68
129.00
183.62
211.37
214.04
197.43
169.31
137.28
107.54
84.55
71.40
70.02
80.73
101.70
128.76
155.92
176.95
187.16
184.64
170.59
148.35
121.98
95.08
70.13
48.35
30.11
15.29
3.65
-4.92
-10.52
-13.53
-14.77
-15.37
-16.39
-18.59
-22.22
-27.13
-33.17
-40.41
-49.29
-60.29
-73.58
-88.71
-104.63
-119.85
-132.61
-141.29
-144.44
-141.02
-130.13
-111.15
-83.57
-47.37
-3.37
46.35
98.20
147.63
190.24
223.16
245.85
260.26
269.76
277.53
285.17
292.34
297.31
298.21
294.10
285.27
272.77
257.76
240.88
222.28
202.17
181.23
160.90
142.80
128.10
116.90
108.09
100.04
91.28
81.16
69.89
58.35
47.26
36.85
26.68
15.98
4.30
-8.23
-20.72
-31.85
-40.36
-45.48
-47.20
-46.22
-43.36
-39.29
-34.37
-28.73
-22.53
-15.92
-9.45
-3.66
0.65
2.92
3.22
2.11
0.49
-0.75
-0.71
0.26
1.40
0.65
-3.81
-12.83
-25.74
-40.17
-52.96
-60.36
-61.29
-56.38
-49.64
-45.80
-49.05
-61.33
-81.60
-106.58
-131.02
-153.38
-174.81
-201.77
-242.10
-302.41
-385.02
-486.10
-596.74
-703.79
-798.13
-854.74
-853.48
-783.82
-651.63
-478.63
-292.22
-128.60
8.49
124.03
225.01
315.02
395.95
467.72
526.04
565.59
581.75
575.19
548.63
509.52
466.17
425.75
391.22
359.42
325.22
284.24
236.73
183.62
127.15
68.18
6.48
-58.37
-127.24
-197.86
-265.60
-323.98
-369.59
-402.27
-425.68
-445.62
-454.28
-445.52
-415.72
-366.74
-304.36
-235.78
-166.39
-99.61
-37.75
17.54
63.31
97.80
120.99
134.78
142.16
145.90
147.98
149.56
151.16
151.67
150.43
147.81
145.24
144.99
148.89
157.73
171.29
188.26
205.63
219.99
229.70
232.55
227.68
215.54
197.23
174.72
150.91
128.76
110.85
99.62
96.29
101.31
114.02
131.87
151.46
169.31
182.36
188.75
188.10
181.24
170.61
159.57
151.11
148.01
152.11
164.19
183.97
209.83
238.41
265.60
290.93
311.44
323.92
325.75
315.43
293.29
261.23
220.40
173.02
121.94
68.66
13.88
-42.50
-100.75
-160.24
-219.29
-278.36
-335.41
-387.05
-431.03
-466.78
-495.89
-520.94
-544.82
-570.51
-604.83
-650.74
-707.29
-771.54
-839.92
-909.02
-974.78
-1032.63
-1076.89
-1105.68
-1111.25
-1081.87
-1007.26
-884.45
-721.25
-533.28
-340.22
-126.11
96.28
299.79
458.78
563.50
619.47
637.11
627.46
599.35
559.47
507.96
448.12
385.83
327.10
274.82
224.62
175.02
126.46
81.60
40.93
9.46
-5.61
1.63
38.50
98.30
170.34
242.34
302.88
340.01
347.68
327.28
286.87
238.27
192.45
159.01
142.03
139.79
144.91
149.73
149.50
143.43
135.52
127.72
122.63
120.03
115.99
102.68
72.47
22.36
-42.36
-109.17
-163.09
-190.88
-186.93
-153.67
-100.06
-37.30
24.33
77.74
117.81
140.70
144.67
131.18
106.39
79.29
59.29
50.23
54.92
72.20
98.09
127.88
152.60
166.77
168.56
158.92
138.87
110.35
74.72
33.21
-13.50
-64.98
-119.90
-176.45
-234.07
-292.18
-346.77
-392.54
-424.43
-438.84
-434.24
-410.74
-370.43
-308.77
-232.01
-149.29
-70.10
-1.36
52.81
91.37
115.54
127.36
129.02
122.37
111.18
98.68
87.79
79.67
74.49
71.37
72.23
72.97
69.63
61.35
48.33
31.67
12.66
-7.52
-27.90
-47.88
-67.67
-87.77
-107.05
-124.59
-139.39
-150.56
-157.40
-158.81
-153.67
-140.15
-122.71
-102.17
-79.07
-53.95
-27.75
-2.07
21.37
40.24
52.29
55.58
50.12
36.73
17.24
-5.38
-27.35
-44.32
-52.10
-47.14
-26.73
11.19
66.97
139.14
224.75
319.47
417.75
513.10
598.52
667.38
714.24
735.12
728.13
694.04
636.57
562.28
479.63
397.49
323.53
263.01
217.99
187.55
168.69
157.33
149.19
140.43
127.93
109.84
86.00
58.11
29.06
2.07
-20.37
-37.42
-49.81
-59.23
-67.43
-75.40
-83.16
-90.32
-96.54
-101.89
-106.94
-112.16
-117.72
-123.04
-127.32
-129.74
-129.94
-128.07
-124.45
-119.32
-112.57
-104.10
-93.92
-82.62
-71.25
-60.98
-52.61
-46.23
-41.31
-36.92
-32.29
-27.19
-22.08
-17.82
-15.18
-14.30
-14.55
-14.89
-14.22
-12.14
-9.13
-6.61
-6.30
-9.37
-16.09
-25.42
-35.85
-46.21
-56.20
-66.61
-78.81
-93.99
-112.55
-134.02
-157.11
-180.29
-201.15
-216.14
-221.09
-212.63
-190.18
-156.67
-118.14
-81.47
-52.41
-33.48
-23.46
-18.79
-15.62
-11.66
-6.15
0.57
8.12
15.32
21.20
25.43
28.02
29.19
28.99
27.38
24.74
21.51
15.40
4.51
-10.88
-28.25
-44.35
-57.06
-65.97
-71.62
-75.03
-82.76
-99.98
-126.85
-158.38
-187.99
-211.43
-227.58
-236.98
-240.62
-248.24
-267.69
-299.70
-337.27
-371.43
-396.95
-413.37
-422.82
-428.39
-445.45
-488.05
-561.52
-660.25
-773.93
-893.77
-1013.88
-1129.35
-1159.23
-1050.58
-807.86
-494.53
-185.04
76.27
278.35
428.12
538.02
619.71
670.62
687.10
673.37
643.43
613.81
595.88
593.65
605.85
628.43
649.79
656.63
643.44
614.07
575.95
534.30
490.67
444.77
392.93
333.78
266.64
194.82
125.69
66.66
21.55
-9.89
-30.06
-41.69
-49.22
-56.83
-65.92
-75.02
-82.13
-86.48
-88.64
-89.60
-90.34
-92.36
-97.34
-104.79
-111.43
-112.11
-102.09
-79.33
-46.00
-8.12
26.83
52.27
65.47
68.05
64.23
58.28
52.67
47.72
42.73
37.48
32.51
29.05
27.97
29.05
30.98
32.16
31.26
28.11
23.58
19.04
15.72
14.19
14.18
14.72
14.71
13.22
10.19
6.07
1.42
-3.31
-8.23
-13.94
-21.33
-31.14
-43.62
-58.25
-73.84
-88.80
-101.29
-109.88
-113.14
-110.11
-100.46
-84.42
-62.96
-37.83
-11.39
13.80
35.32
51.48
61.60
66.13
66.30
63.73
59.85
55.75
52.08
49.34
47.97
48.60
51.67
57.18
64.39
71.61
76.59
77.21
72.40
62.33
48.67
33.62
19.32
7.61
-0.18
-2.88
0.09
8.04
18.21
25.89
25.69
14.03
-8.70
-37.85
-65.78
-85.14
-92.01
-87.10
-74.65
-59.69
-45.52
-32.70
-19.69
-5.00
11.19
26.81
39.34
47.47
51.43
52.13
49.69
42.14
25.18
-5.79
-52.89
-114.13
-180.82
-240.68
-282.53
-300.64
-296.25
-276.14
-248.10
-216.85
-182.19
-140.79
-90.17
-32.03
27.25
79.07
116.26
136.15
141.08
136.22
126.91
116.25
104.73
91.40
75.84
59.22
44.59
35.87
36.32
47.92
70.75
103.29
142.66
184.90
225.26
259.01
282.39
293.66
294.03
287.32
278.81
273.51
274.36
281.45
292.47
303.90
312.46
316.18
314.47
307.74
296.71
281.88
263.52
241.93
217.67
191.61
164.60
136.90
108.24
78.05
46.21
13.36
-19.01
-49.24
-75.93
-98.43
-116.77
-131.55
-143.55
-153.52
-162.23
-170.38
-178.54
-186.97
-195.54
-203.81
-211.53
-218.91
-226.77
-236.47
-249.51
-267.03
-289.09
-314.19
-339.20
-359.77
-371.40
-370.53
-355.43
-326.73
-287.16
-240.74
-191.89
-144.56
-101.71
-65.22
-35.88
-13.67
2.02
12.02
17.17
18.07
15.32
9.69
2.42
-5.00
-11.09
-14.82
-16.01
-15.28
-13.68
-11.82
-9.68
-6.63
-2.20
3.37
9.01
13.24
15.00
14.22
11.93
9.38
7.38
5.70
3.34
-0.73
-6.88
-14.35
-21.73
-27.66
-31.61
-33.85
-35.16
-36.22
-37.17
-37.52
-36.41
-33.10
-27.23
-19.15
-9.39
1.42
12.87
24.88
37.65
51.21
65.32
79.29
91.78
101.29
106.36
106.31
101.69
94.13
85.75
78.44
73.12
69.45
66.14
61.77
55.52
47.64
39.12
31.09
24.26
18.59
13.58
8.85
4.45
0.88
-1.21
-1.52
-0.20
2.24
5.28
8.64
12.66
17.85
24.68
33.28
43.22
53.54
63.11
70.93
76.32
79.33
80.45
80.63
80.92
82.33
85.34
90.04
95.93
101.77
105.73
105.49
98.89
84.52
62.32
33.95
2.75
-27.04
-51.48
-68.14
-76.96
-80.27
-81.91
-85.55
-93.16
-104.27
-116.13
-125.21
-128.70
-126.14
-119.67
-113.24
-110.81
-114.57
-124.24
-137.16
-149.55
-157.71
-158.93
-151.68
-135.40
-110.43
-78.20
-41.49
-4.16
29.66
56.81
76.06
88.20
95.24
99.06
100.33
98.62
93.05
83.21
69.87
54.86
40.37
28.54
20.69
17.07
17.00
19.42
23.34
28.19
34.01
40.95
49.19
58.87
69.96
82.49
96.61
112.06
127.74
141.82
151.91
156.07
153.64
145.51
134.01
121.87
111.32
103.33
97.77
93.74
90.42
87.56
85.50
84.79
85.34
86.09
84.93
79.36
67.13
47.07
19.45
-14.48
-52.74
-93.34
-134.12
-172.56
-205.50
-229.56
-241.72
-240.60
-227.52
-206.32
-182.68
-162.39
-149.82
-146.82
-152.84
-165.46
-181.34
-197.13
-209.74
-216.80
-216.63
-208.31
-191.50
-166.20
-132.77
-92.31
-47.24
-1.32
40.36
72.93
93.31
101.24
99.31
91.57
81.26
69.43
54.99
35.90
11.60
-15.89
-42.24
-62.65
-74.21
-77.27
-75.37
-73.11
-74.43
-80.96
-91.97
-105.34
-118.53
-129.42
-136.33
-137.55
-131.08
-114.89
-87.42
-48.32
0.63
55.91
112.40
164.58
207.91
239.66
258.95
266.29
262.50
247.76
221.99
185.64
140.99
92.43
45.72
6.21
-22.97
-41.54
-51.96
-57.64
-61.52
-65.16
-68.81
-72.37
-75.89
-79.86
-84.84
-91.05
-98.33
-106.50
-115.72
-126.22
-138.21
-150.92
-162.64
-171.10
-174.39
-171.77
-163.95
-152.75
-140.14
-127.88
-116.96
-107.78
-100.01
-92.64
-83.83
-71.00
-51.56
-23.98
11.04
50.44
89.37
122.72
146.70
159.72
162.53
157.36
146.90
133.67
119.65
106.03
93.27
81.32
69.73
58.33
47.56
38.78
33.85
34.48
41.10
52.37
65.53
77.16
84.71
87.57
87.53
88.22
93.91
107.77
130.77
161.04
194.17
224.59
247.03
257.83
255.85
242.18
219.51
191.06
159.33
125.53
89.61
50.79
8.61
-35.91
-80.27
-120.92
-154.55
-178.92
-193.38
-198.31
-194.58
-183.02
-164.41
-140.25
-113.03
-85.73
-60.84
-39.20
-19.44
1.27
25.73
54.97
87.16
118.15
143.02
158.09
162.18
156.72
144.30
127.22
106.59
82.66
55.95
28.34
2.76
-17.84
-31.94
-40.33
-45.44
-49.70
-54.30
-58.76
-61.82
-62.77
-62.16
-61.48
-62.08
-64.13
-66.39
-67.07
-64.87
-59.76
-53.08
-46.68
-41.97
-39.11
-37.25
-35.29
-32.78
-30.13
-28.29
-28.00
-29.09
-30.41
-30.73
-29.50
-27.40
-26.06
-27.01
-30.78
-36.40
-41.52
-43.52
-40.65
-32.66
-20.98
-8.03
3.69
12.45
17.84
20.60
22.09
23.65
26.21
29.89
34.12
37.74
39.63
39.00
35.79
30.76
25.25
20.78
18.24
17.72
18.61
19.81
20.20
19.06
16.04
11.15
4.70
-2.72
-10.22
-16.69
-21.18
-23.25
-22.96
-20.82
-17.48
-13.34
-8.22
-1.75
6.41
16.04
26.14
35.20
41.59
44.31
43.36
39.86
35.45
31.74
29.59
28.96
29.08
28.98
28.06
26.27
24.16
22.36
21.28
20.90
20.66
20.06
18.99
17.88
17.55
18.76
21.57
25.17
28.09
28.76
26.50
21.63
15.49
9.72
5.59
3.49
2.89
2.92
2.80
2.28
1.54
0.82
0.21
-0.58
-2.04
-4.38
-7.33
-10.29
-12.55
-13.82
-14.47
-15.46
-17.76
-21.71
-26.69
-31.13
-33.57
-33.33
-31.04
-28.65
-28.52
-32.19
-39.53
-48.90
-57.65
-63.63
-65.71
-64.24
-60.47
-55.77
-51.00
-46.19
-40.78
-34.21
-26.41
-17.86
-9.56
-2.35
3.55
8.47
13.14
18.19
23.77
29.36
34.12
37.57
39.80
41.57
43.72
46.62
49.93
52.81
54.38
54.40
53.55
53.09
54.39
58.02
63.54
69.45
74.10
76.41
76.44
75.29
74.50
75.28
77.88
81.58
85.14
87.78
89.57
91.37
94.35
99.28
106.07
113.81
121.21
127.10
130.85
132.50
132.47
131.33
129.44
126.66
122.32
115.64
105.77
92.16
74.62
53.04
27.33
-2.95
-38.37
-79.15
-124.71
-173.27
-222.03
-267.87
-308.24
-342.06
-369.81
-392.76
-411.82
-426.44
-434.67
-434.07
-423.42
-403.96
-379.27
-353.47
-329.48
-307.65
-286.14
-262.69
-236.16
-207.47
-178.86
-152.22
-127.74
-103.92
-78.90
-51.91
-24.18
1.79
23.86
41.78
57.55
74.70
96.55
124.66
158.11
193.60
226.67
253.04
269.47
274.31
267.41
249.96
224.51
194.96
165.94
142.17
127.10
121.69
124.18
130.44
135.77
136.62
131.91
123.03
112.67
103.27
95.61
88.73
80.61
69.59
55.44
39.62
24.62
12.77
5.19
1.42
-0.02
-0.77
-1.76
-2.89
-3.48
-2.88
-1.17
0.83
2.02
1.68
0.01
-2.03
-3.16
-2.57
-0.19
3.11
6.11
7.68
7.39
5.68
3.57
2.12
1.83
2.49
3.24
3.09
1.46
-1.47
-4.81
-7.42
-8.44
-7.68
-5.75
-3.73
-2.52
-2.54
-3.62
-5.15
-6.58
-7.70
-8.63
-9.63
-10.74
-11.55
-11.33
-9.59
-6.24
-1.95
2.11
4.79
5.50
4.36
2.20
0.07
-1.35
-1.87
-1.93
-2.13
-2.86
-4.07
-5.28
-5.86
-5.41
-4.09
-2.47
-1.38
-1.37
-2.43
-4.12
-5.71
-6.63
-6.73
-6.36
-5.92
-5.65
-5.34
-4.39
-2.25
1.20
5.51
9.67
12.65
13.96
13.76
12.78
11.94
11.75
12.26
12.94
13.21
12.81
11.94
11.14
10.99
11.64
12.78
13.80
14.07
13.51
12.46
11.63
11.62
12.64
14.27
15.69
16.14
15.27
13.51
11.68
10.72
11.17
13.00
15.48
17.68
19.00
19.46
19.67
20.46
22.35
25.44
29.37
33.49
37.35
41.00
45.04
50.28
57.24
65.74
75.03
84.13
91.83
97.18
99.67
99.44
97.23
93.92
90.32
87.11
84.77
82.88
80.43
76.26
69.80
61.57
52.86
44.88
38.06
31.24
20.73
1.18
-32.58
-83.55
-151.30
-232.13
-320.39
-409.90
-487.34
-538.25
-551.37
-523.51
-461.48
-378.09
-286.46
-196.38
-113.88
-41.88
17.64
62.99
93.81
111.42
118.73
119.68
118.07
116.62
117.01
119.44
122.57
125.79
129.39
134.61
143.33
157.13
176.25
199.54
225.82
250.28
268.93
278.34
276.47
262.93
238.59
204.86
161.81
113.38
62.07
11.02
-37.63
-82.43
-122.37
-156.85
-186.35
-211.82
-234.24
-258.83
-284.82
-310.67
-333.77
-350.40
-356.23
-347.70
-322.56
-275.71
-212.48
-138.33
-59.43
18.62
91.37
156.04
211.43
255.75
286.93
301.79
299.43
279.67
243.55
191.51
129.14
63.19
1.44
-47.66
-77.88
-85.49
-72.62
-46.79
-17.81
5.84
19.58
23.77
22.23
18.46
14.40
9.06
-0.22
-15.09
-35.26
-58.96
-83.93
-108.04
-129.93
-148.79
-162.32
-168.68
-167.39
-160.15
-150.20
-140.56
-130.94
-120.00
-103.85
-78.96
-44.89
-4.85
35.43
70.97
99.56
121.97
140.92
159.38
178.48
197.20
214.35
226.96
233.11
231.51
221.17
200.68
169.28
127.73
78.67
29.57
-11.58
-38.39
-48.88
-46.24
-37.35
-29.41
-26.99
-30.72
-38.24
-46.62
-53.84
-59.76
-65.31
-71.52
-78.53
-85.83
-92.86
-99.79
-107.76
-117.32
-128.46
-139.95
-149.95
-155.69
-154.86
-146.39
-130.64
-109.35
-84.84
-59.52
-35.27
-13.25
6.09
22.64
36.34
46.99
54.36
58.32
59.04
57.12
53.37
48.80
44.13
39.85
35.99
32.46
28.91
25.11
21.06
16.82
12.52
8.34
4.37
0.57
-3.13
-6.88
-10.73
-14.75
-18.97
-23.47
-28.12
-32.87
-37.64
-42.40
-47.09
-51.68
-56.20
-60.82
-65.75
-70.93
-76.33
-81.84
-87.26
-92.24
-96.51
-99.92
-102.62
-104.92
-106.89
-108.63
-109.95
-110.42
-109.28
-105.68
-98.80
-87.89
-74.94
-61.12
-47.22
-33.54
-19.83
-5.49
10.16
27.48
46.26
65.75
85.33
104.42
122.85
140.87
159.16
178.59
200.06
224.21
250.85
278.83
305.32
326.23
337.27
335.51
320.60
295.01
263.29
230.32
200.02
174.24
153.03
135.49
120.82
108.66
99.07
92.11
87.42
84.31
81.84
79.26
76.25
73.15
70.73
69.87
71.10
74.41
79.17
84.47
89.45
93.79
97.71
101.80
106.47
111.63
116.33
119.01
117.96
111.74
99.56
81.01
55.94
24.04
-14.96
-61.04
-113.46
-170.25
-228.28
-283.63
-332.51
-371.89
-400.14
-417.14
-424.13
-423.30
-417.55
-410.08
-403.89
-400.75
-400.02
-398.10
-389.09
-366.66
-326.83
-270.05
-201.71
-130.46
-65.29
-12.67
24.84
48.21
60.41
64.57
63.43
59.31
54.96
53.66
58.66
71.83
92.68
117.90
142.25
160.55
169.61
169.40
162.85
154.39
147.89
145.09
145.13
145.28
142.42
134.51
121.29
104.33
86.08
69.00
54.87
44.59
38.29
35.67
36.08
38.63
42.16
45.22
46.33
44.26
38.42
28.98
16.94
3.84
-8.55
-18.65
-25.48
-28.97
-29.98
-29.92
-30.18
-31.39
-33.16
-34.34
-33.74
-30.86
-26.26
-21.39
-17.84
-16.46
-17.01
-18.30
-18.93
-18.05
-15.78
-13.15
-11.50
-11.74
-13.95
-17.34
-20.66
-22.94
-23.90
-24.09
-24.61
-26.39
-29.81
-34.53
-39.82
-44.95
-49.38
-52.58
-53.72
-51.40
-44.07
-30.77
-11.76
11.08
34.81
56.34
73.52
85.71
93.47
97.86
99.60
98.64
94.22
85.35
71.33
52.23
29.11
3.74
-21.63
-44.99
-64.81
-80.26
-90.93
-96.64
-97.16
-92.34
-82.41
-68.28
-51.80
-35.32
-20.95
-9.79
-1.77
3.98
8.30
11.38
12.78
12.02
9.35
6.31
5.26
8.34
16.43
28.46
41.81
53.42
61.02
63.83
62.61
59.08
55.09
52.05
50.68
51.01
52.82
55.91
60.05
65.01
70.25
75.02
78.42
79.68
78.63
75.88
72.82
71.02
71.63
74.74
79.35
83.64
85.65
83.89
77.81
67.80
54.90
40.37
25.11
9.59
-6.17
-22.18
-38.16
-53.40
-66.92
-77.90
-85.90
-91.16
-94.10
-95.07
-94.15
-91.27
-86.56
-80.63
-74.54
-69.35
-65.77
-63.83
-62.93
-62.38
-61.64
-60.60
-59.44
-58.51
-57.98
-57.78
-57.68
-57.36
-56.53
-54.83
-52.07
-48.05
-42.77
-36.35
-28.98
-20.90
-12.39
-3.70
4.90
13.11
20.79
27.95
34.73
41.26
47.49
53.09
57.64
60.84
62.68
63.58
64.25
65.23
66.70
68.34
69.73
70.73
71.91
74.39
79.49
88.08
99.89
113.62
127.16
138.50
146.51
151.12
153.04
153.20
151.92
148.60
142.04
131.04
115.40
96.39
76.65
59.34
46.96
40.13
37.19
34.90
29.65
19.09
3.24
-15.64
-34.06
-49.02
-59.14
-65.10
-69.00
-73.51
-81.18
-93.91
-112.79
-137.27
-164.39
-188.43
-202.28
-200.35
-182.03
-153.41
-125.79
-111.31
-117.58
-144.41
-184.22
-225.95
-259.87
-280.92
-288.71
-285.54
-273.84
-254.80
-229.02
-197.82
-164.33
-132.91
-107.93
-91.92
-84.60
-82.62
-80.53
-72.46
-53.93
-23.23
18.29
66.87
117.89
167.13
211.57
249.13
278.12
296.66
303.03
296.45
277.75
249.79
216.63
182.36
149.98
120.82
94.88
71.52
50.15
30.41
12.30
-4.15
-18.88
-31.53
-41.56
-48.04
-50.21
-47.88
-42.00
-34.44
-27.59
-23.32
-22.09
-22.90
-23.69
-22.49
-18.60
-13.02
-7.78
-5.01
-5.56
-8.55
-11.97
-13.67
-12.54
-8.92
-4.16
0.13
2.67
2.56
-0.83
-8.09
-19.32
-33.64
-48.97
-62.37
-70.94
-72.96
-68.32
-58.20
-44.34
-28.26
-11.03
6.40
22.76
36.48
45.94
50.33
49.95
46.23
41.26
36.82
33.86
32.30
31.27
29.73
27.06
23.19
18.57
13.91
9.93
7.08
5.39
4.54
3.82
2.40
-0.61
-5.87
-13.83
-24.55
-37.49
-51.38
-64.12
-73.10
-75.84
-71.05
-59.26
-42.76
-24.83
-8.39
4.93
14.97
22.43
28.11
32.05
33.60
32.00
26.79
18.24
7.20
-5.13
-17.52
-28.66
-37.15
-41.58
-40.67
-33.91
-21.86
-6.27
10.31
25.01
35.38
39.90
38.30
31.55
21.60
10.78
1.36
-4.99
-7.56
-6.62
-3.22
1.21
5.30
7.98
8.74
7.55
4.65
0.55
-4.10
-8.67
-12.61
-15.63
-17.79
-19.41
-20.96
-22.80
-24.97
-27.11
-28.67
-29.21
-28.52
-26.81
-24.44
-21.62
-18.34
-14.39
-9.60
-4.20
0.94
4.67
5.76
3.71
-1.09
-7.31
-13.14
-17.02
-18.13
-16.64
-13.35
-9.25
-4.94
-0.73
3.38
7.42
11.18
14.30
16.44
17.57
18.04
18.51
19.60
21.63
24.47
27.57
30.17
31.80
32.32
31.99
31.27
30.54
29.88
29.25
28.40
27.17
25.55
23.54
21.23
18.68
16.05
13.58
11.68
10.74
10.97
12.26
14.05
15.58
16.15
15.27
12.89
9.45
5.83
3.19
2.73
5.22
10.60
17.69
24.40
28.73
29.97
29.56
30.77
37.07
50.05
68.05
86.31
98.78
100.68
90.26
68.86
39.75
6.17
-29.75
-66.93
-104.54
-141.22
-174.76
-202.76
-223.35
-235.37
-238.50
-232.85
-218.65
-196.38
-166.89
-131.73
-93.40
-55.16
-20.47
7.76
27.96
40.43
47.26
51.72
56.98
64.86
75.23
86.22
95.24
100.27
100.81
97.90
93.41
88.98
85.27
81.91
78.06
72.91
66.16
58.03
48.63
37.94
25.77
12.39
-1.18
-13.15
-21.60
-25.15
-23.59
-17.97
-10.14
-1.94
5.49
11.83
17.54
23.23
29.25
35.36
40.88
44.89
46.59
45.61
41.87
35.63
27.25
17.19
5.99
-5.64
-16.84
-26.76
-34.82
-40.88
-45.28
-48.53
-51.16
-53.32
-54.87
-55.54
-55.13
-53.76
-51.82
-49.89
-48.47
-47.85
-48.00
-48.66
-49.52
-50.30
-50.86
-51.11
-50.95
-50.23
-48.83
-46.65
-43.86
-40.72
-37.32
-33.34
-27.90
-19.67
-7.56
8.64
28.02
48.52
67.63
83.13
93.71
99.35
101.10
100.43
98.80
97.27
96.36
96.19
96.64
97.42
98.16
98.44
97.67
95.27
90.86
84.26
75.78
66.14
56.12
46.53
37.89
30.45
24.25
19.23
15.28
12.33
10.34
9.12
8.30
7.38
5.82
3.17
-0.71
-5.51
-10.51
-14.78
-17.56
-18.57
-18.10
-16.91
-15.84
-15.49
-16.01
-17.08
-18.19
-18.95
-19.18
-18.93
-18.42
-17.71
-16.71
-15.19
-13.08
-10.60
-8.23
-6.64
-6.36
-7.62
-10.21
-13.55
-17.01
-19.99
-22.09
-23.09
-23.00
-22.06
-20.78
-19.72
-19.24
-19.40
-19.84
-20.07
-19.70
-18.69
-17.43
-16.58
-16.84
-18.81
-22.90
-29.19
-37.35
-46.59
-55.60
-62.91
-67.23
-67.86
-64.88
-59.12
-51.53
-42.99
-34.03
-24.78
-15.35
-6.02
2.65
9.94
15.27
18.69
20.86
22.93
26.06
30.75
36.45
41.71
44.77
44.33
40.20
33.21
24.87
16.59
9.23
2.63
-4.31
-13.64
-27.96
-49.76
-80.42
-118.97
-161.40
-201.05
-230.07
-241.93
-233.60
-206.51
-165.90
-118.79
-71.91
-29.95
4.66
31.41
50.75
63.66
71.52
76.29
80.30
85.67
93.59
103.72
114.30
122.81
127.08
126.18
120.73
112.55
103.86
96.46
91.16
87.82
85.54
83.20
79.95
75.40
69.96
64.43
59.95
57.36
56.72
57.17
56.88
53.51
44.79
29.11
5.87
-24.34
-59.80
-98.01
-136.09
-171.25
-201.25
-224.83
-241.63
-252.03
-256.83
-256.74
-252.32
-243.69
-230.57
-212.45
-188.94
-160.17
-127.11
-91.82
-57.13
-26.31
-2.31
12.45
16.42
9.15
-8.24
-32.65
-58.93
-80.22
-89.64
-82.00
-55.61
-12.79
40.67
97.21
149.39
191.35
219.73
233.60
233.94
222.86
202.99
177.25
148.57
119.94
94.06
73.02
57.56
46.74
38.04
28.43
15.97
1.08
-13.07
-21.83
-21.03
-8.97
12.61
39.11
64.77
84.92
97.36
102.68
103.03
100.70
96.99
91.87
84.82
75.69
65.44
55.87
48.86
45.31
44.56
44.75
43.59
39.54
32.41
23.24
13.64
5.02
-1.96
-7.41
-11.81
-15.45
-18.14
-19.36
-18.65
-16.16
-12.76
-9.85
-8.74
-10.08
-13.54
-18.02
-22.16
-25.02
-26.28
-26.38
-25.94
-25.40
-24.85
-23.85
-21.98
-19.07
-15.59
-12.63
-11.52
-13.31
-18.17
-25.30
-32.94
-39.16
-42.55
-42.81
-40.90
-38.43
-36.86
-36.85
-37.89
-38.58
-37.41
-33.53
-27.22
-19.79
-13.06
-8.47
-6.64
-6.93
-7.88
-7.96
-6.25
-3.02
0.27
1.68
0.05
-4.34
-9.74
-12.97
-10.35
1.82
26.41
65.34
118.55
183.01
252.22
316.79
367.28
397.39
406.23
398.27
381.01
361.03
341.07
319.45
292.15
256.14
211.57
162.05
112.79
68.12
29.73
-3.31
-33.19
-61.65
-89.11
-115.02
-138.82
-160.67
-182.24
-205.98
-233.91
-266.29
-301.38
-335.78
-365.56
-387.53
-399.34
-399.76
-388.46
-365.70
-332.42
-290.27
-241.36
-188.00
-132.58
-77.77
-26.67
17.36
51.58
74.75
87.96
94.35
97.85
101.64
106.93
113.09
118.47
121.66
122.03
119.54
114.24
106.03
94.62
79.78
61.81
41.58
20.69
1.17
-14.77
-25.03
-28.30
-24.40
-14.78
-2.20
9.80
18.02
20.42
16.62
7.87
-3.79
-16.24
-27.99
-38.29
-47.06
-54.40
-60.29
-64.46
-66.37
-65.77
-62.77
-58.21
-53.43
-50.08
-49.40
-51.69
-56.14
-60.82
-63.60
-62.80
-57.82
-49.29
-38.62
-27.32
-16.61
-7.23
0.32
5.48
7.60
6.09
0.85
-7.29
-16.76
-25.60
-32.13
-35.59
-36.16
-34.71
-32.16
-28.97
-24.77
-18.86
-10.78
-1.18
8.05
14.34
15.55
11.23
2.78
-6.81
-14.46
-18.18
-17.86
-14.90
-11.04
-7.32
-3.60
0.85
6.55
12.88
18.23
20.70
19.08
13.81
6.73
0.39
-3.02
-2.47
1.54
7.46
13.57
18.64
22.36
25.08
27.50
30.06
32.70
34.89
36.11
36.17
35.52
35.02
35.30
36.51
37.97
38.42
36.68
32.19
25.38
17.45
9.96
4.09
0.33
-1.53
-2.12
-2.09
-1.71
-0.96
0.32
2.24
4.62
7.01
8.88
9.85
9.91
9.39
8.85
8.91
10.14
12.82
17.08
22.79
29.69
37.55
46.21
55.58
65.49
75.74
85.84
95.22
103.34
109.76
114.19
116.27
115.35
110.72
102.27
91.16
80.25
73.33
73.31
80.40
91.06
98.89
96.97
80.71
49.56
6.95
-41.64
-91.34
-139.38
-185.01
-228.13
-267.71
-301.01
-324.39
-334.65
-330.17
-311.25
-279.48
-236.95
-185.97
-129.23
-70.10
-12.72
38.67
80.88
112.79
135.61
152.15
165.48
177.59
188.67
197.07
200.19
195.54
181.93
160.07
132.44
102.11
71.55
41.31
9.94
-24.78
-63.95
-106.05
-146.43
-178.68
-197.01
-198.32
-183.10
-154.80
-118.00
-76.63
-33.20
10.86
53.93
93.24
124.84
144.73
150.51
142.60
