1592925628.00
64.000000
-0.00
-0.00
-0.00
-0.00
-0.00
-0.00
-0.00
-0.00
-0.00
-0.00
0.00
0.01
0.01
-0.00
-0.03
-0.05
-0.05
0.00
0.13
0.36
0.66
1.01
1.37
1.72
2.06
2.40
2.79
3.24
3.80
4.42
5.06
5.66
6.20
6.68
7.15
7.68
8.31
9.14
10.09
11.04
11.88
12.56
13.14
13.76
14.65
15.96
17.91
20.32
22.90
25.38
27.58
29.57
31.68
34.32
37.81
42.54
48.15
54.10
59.83
64.97
69.58
74.14
79.34
85.71
93.76
103.00
112.62
121.73
129.77
136.75
143.30
150.75
157.77
166.64
177.95
191.79
206.97
220.57
228.25
225.36
208.53
176.87
132.76
80.05
23.07
-34.94
-92.44
-149.16
-205.23
-260.37
-313.74
-363.87
-409.83
-450.91
-486.50
-515.74
-537.23
-549.22
-549.96
-538.37
-514.21
-478.67
-433.88
-382.45
-327.02
-269.84
-212.63
-156.66
-102.95
-52.37
-5.90
35.58
71.43
101.35
125.50
144.38
158.69
169.15
176.37
180.75
182.58
182.07
179.50
175.22
169.65
163.19
156.19
148.86
141.35
133.69
125.93
118.13
110.36
102.72
95.28
88.09
81.17
74.52
68.18
62.17
56.51
51.22
46.28
41.65
37.27
33.12
29.17
25.44
21.97
18.82
16.03
13.60
11.51
9.61
7.80
5.97
4.11
2.31
0.72
-0.52
-1.34
-1.87
-2.33
-2.96
-3.89
-5.10
-6.34
-7.30
-7.77
-7.77
-7.57
-7.67
-8.41
-9.87
-11.78
-13.56
-14.60
-14.62
-13.89
-13.07
-13.11
-14.48
-16.87
-19.61
-21.85
-23.22
-24.17
-25.55
-27.74
-29.94
-30.07
-25.78
-15.75
-0.28
19.09
40.53
62.53
83.24
99.65
107.31
101.36
79.11
42.52
-1.36
-43.01
-73.03
-87.46
-88.54
-82.52
-76.05
-73.45
-75.57
-81.10
-87.44
-91.30
-89.49
-79.09
-58.58
-29.29
4.37
36.41
61.38
76.52
82.42
81.69
77.36
71.49
64.88
57.94
51.48
46.74
44.85
45.85
48.35
50.21
49.73
46.25
40.76
35.25
31.68
31.05
32.95
35.77
37.61
37.27
34.78
31.49
29.18
29.07
31.11
34.10
36.30
36.70
35.95
35.55
36.80
39.44
41.34
39.72
32.96
21.97
9.98
0.23
-6.34
-11.57
-18.67
-29.14
-41.13
-49.82
-50.59
-42.54
-29.77
-19.42
-17.37
-24.52
-36.29
-45.19
-45.52
-36.89
-24.51
-15.88
-16.29
-25.16
-36.74
-43.30
-39.64
-26.64
-10.79
-0.48
-1.05
-11.47
-25.13
-33.57
-31.27
-19.25
-4.66
3.61
0.01
-13.91
-30.69
-40.87
-38.35
-24.27
-6.42
5.22
4.24
-8.32
-24.95
-35.86
-34.67
-22.49
-7.49
0.07
-6.14
-24.22
-45.30
-58.37
-56.68
-42.10
-24.06
-14.37
-20.43
-40.86
-66.30
-84.42
-86.98
-74.37
-55.30
-41.16
-39.78
-50.74
-65.92
-74.35
-66.01
-36.83
9.70
64.29
115.68
154.31
174.45
175.36
160.83
137.93
114.32
95.94
85.36
82.10
83.77
88.45
95.75
105.68
116.79
124.83
123.99
109.98
83.19
49.53
17.77
-5.32
-18.88
-27.75
-39.22
-58.07
-83.36
-108.73
-126.07
-130.42
-123.01
-110.62
-101.83
-102.54
-113.14
-128.48
-141.01
-145.02
-139.32
-127.01
-112.89
-99.82
-87.27
-71.99
-50.81
-23.70
5.12
28.85
41.84
42.78
35.62
27.84
26.69
35.45
52.21
71.26
86.62
95.28
98.30
99.69
103.50
110.93
119.47
124.25
121.08
108.93
90.71
71.95
57.91
50.77
48.85
47.87
43.69
34.79
22.86
11.66
4.43
1.76
1.07
-1.84
-10.00
-23.32
-38.26
-49.51
-52.78
-47.27
-36.05
-24.56
-17.67
-17.23
-21.32
-25.43
-25.09
-18.50
-7.43
3.84
11.11
12.54
9.58
5.93
5.21
8.75
14.98
20.67
23.13
21.90
18.95
17.44
19.57
25.16
31.56
35.07
33.15
25.90
16.15
8.26
5.80
9.63
17.43
24.76
27.43
23.66
14.76
4.47
-3.26
-6.60
-6.61
-6.43
-9.04
-15.30
-23.32
-29.56
-31.15
-28.02
-23.27
-21.56
-26.28
-37.41
-51.21
-62.00
-65.27
-60.20
-50.02
-40.13
-34.85
-35.16
-38.37
-39.79
-35.84
-26.21
-14.08
-4.26
-0.23
-2.14
-6.76
-9.33
-6.41
1.98
12.36
19.77
20.76
15.27
6.72
0.13
-0.93
3.63
10.40
14.48
12.49
4.56
-5.79
-13.58
-15.32
-11.09
-4.33
0.07
-1.17
-8.02
-17.08
-23.46
-23.68
-17.73
-9.01
-2.44
-1.39
-5.84
-12.29
-15.71
-12.74
-3.74
7.19
14.49
14.46
7.25
-3.10
-10.95
-12.41
-7.49
0.05
5.02
4.08
-2.48
-10.93
-16.32
-15.58
-9.29
-1.28
3.60
2.50
-3.94
-11.83
-16.34
-14.60
-7.36
1.43
7.01
6.78
1.68
-4.26
-6.33
-2.14
6.92
16.37
21.25
19.05
10.98
1.41
-4.75
-4.87
-0.08
5.61
7.77
4.31
-3.36
-11.15
-14.70
-12.03
-4.67
3.27
7.56
6.34
1.03
-4.44
-6.06
-2.12
5.77
13.68
17.70
16.25
10.90
5.53
4.03
7.95
15.57
22.78
25.58
22.34
14.78
7.10
3.52
5.80
12.27
18.80
21.20
17.77
10.26
2.87
-0.08
3.18
11.01
19.28
23.76
22.44
16.58
10.05
6.87
8.98
15.09
21.68
25.34
24.64
20.79
17.11
17.09
21.93
30.17
38.11
42.50
42.62
40.31
38.66
40.55
47.01
56.25
65.27
71.14
73.47
74.85
78.85
87.05
98.42
109.95
117.06
117.41
111.03
101.52
94.18
92.10
93.14
91.91
82.75
61.04
26.93
-16.68
-64.21
-105.56
-128.82
-129.35
-113.00
-90.31
-77.05
-74.01
-78.90
-89.30
-104.70
-122.62
-145.36
-175.31
-202.00
-216.88
-215.47
-200.60
-177.40
-149.73
-121.03
-95.56
-76.60
-65.19
-61.51
-62.74
-65.30
-65.34
-60.49
-51.90
-43.85
-39.89
-40.20
-42.98
-44.25
-41.52
-36.48
-29.58
-22.77
-16.66
-8.84
4.08
22.36
42.18
56.72
60.66
54.20
43.47
37.74
43.78
61.21
81.60
93.75
90.27
71.85
47.26
27.87
21.61
29.81
46.29
59.72
60.56
46.54
24.45
6.39
2.08
13.25
32.20
46.31
45.60
28.57
3.64
-15.79
-19.33
-5.95
15.34
30.82
30.24
12.57
-13.08
-32.13
-33.30
-15.11
12.93
36.16
43.69
34.41
18.02
8.76
17.63
45.60
82.36
112.24
123.48
114.86
96.22
82.18
82.40
97.19
117.18
128.41
120.00
89.47
43.78
-5.45
-48.97
-85.41
-118.11
-150.62
-181.55
-203.89
-208.24
-188.41
-146.64
-88.10
-31.31
3.31
7.58
-9.26
-29.58
-39.96
-36.55
-23.83
-9.72
-1.20
-0.24
-5.77
-16.31
-30.34
-47.13
-64.87
-79.53
-85.87
-80.17
-56.89
-20.42
20.00
54.53
76.88
86.50
87.42
85.00
82.42
80.49
78.00
74.40
70.25
66.88
65.59
67.00
70.99
76.90
84.00
90.74
95.09
93.70
82.84
60.31
27.45
-10.45
-45.95
-72.21
-87.11
-90.58
-85.27
-74.70
-61.96
-48.64
-35.22
-21.94
-9.30
2.41
12.21
18.80
22.86
24.59
24.10
21.52
17.47
13.02
8.68
5.81
4.50
4.67
5.76
7.16
8.37
8.76
7.64
4.15
1.26
3.75
18.77
51.79
103.21
166.49
229.27
277.38
299.05
292.00
257.54
204.84
145.75
89.35
39.02
-7.08
-45.05
-84.73
-121.14
-148.39
-161.90
-163.06
-159.26
-159.95
-170.70
-188.89
-205.76
-208.80
-192.60
-161.82
-129.58
-110.17
-110.24
-124.40
-138.42
-138.68
-118.39
-84.11
-50.64
-32.68
-35.79
-52.64
-67.65
-66.31
-44.63
-10.60
19.45
31.42
21.93
1.12
-13.42
-7.41
21.06
59.50
88.87
93.95
72.59
36.79
5.81
-4.91
7.44
31.56
49.60
48.30
27.02
-1.71
-21.44
-21.13
-2.17
22.27
34.80
23.89
-9.04
-50.08
-81.41
-93.19
-87.83
-77.53
-76.23
-91.06
-117.64
-142.23
-149.88
-134.15
-104.22
-78.63
-74.81
-99.26
-144.48
-192.93
-225.98
-232.61
-200.87
-136.11
-57.80
11.44
59.72
89.46
109.78
127.81
144.73
157.43
160.43
151.66
134.46
115.90
102.47
97.13
98.58
103.00
106.13
103.64
94.29
80.52
66.96
57.60
53.78
54.24
56.32
57.44
55.20
49.08
40.64
32.56
26.96
24.42
24.10
24.57
24.59
23.07
19.85
15.71
11.87
9.30
8.21
8.20
8.56
8.70
8.10
6.69
4.84
3.21
2.36
2.53
3.49
4.72
5.59
5.61
4.75
3.43
2.36
2.31
3.63
6.10
8.88
10.87
11.25
9.88
7.48
5.31
4.68
6.26
9.71
13.76
16.87
17.76
16.14
12.71
8.74
5.76
5.20
8.18
15.14
25.28
35.79
41.99
38.50
21.50
-8.96
-48.16
-87.89
-119.41
-136.64
-138.18
-126.89
-107.23
-84.22
-60.97
-38.70
-17.90
0.54
15.18
24.71
28.87
28.84
26.60
24.46
23.87
25.03
27.02
28.46
28.23
26.05
22.49
18.63
15.65
14.20
14.22
15.01
15.65
15.41
14.09
11.97
9.58
7.51
6.09
5.32
4.92
4.60
4.12
3.43
2.57
1.54
0.33
-1.11
-2.77
-4.51
-6.01
-6.97
-7.22
-6.96
-6.73
-7.20
-8.85
-11.70
-15.20
-18.41
-20.42
-20.81
-19.96
-18.88
-18.88
-20.84
-24.84
-29.97
-34.74
-37.85
-38.66
-37.55
-35.73
-34.63
-35.43
-38.86
-45.23
-54.08
-63.75
-70.92
-71.21
-60.73
-38.13
-6.01
29.53
61.23
83.57
94.97
97.70
95.99
93.35
91.07
88.31
83.78
77.39
70.75
66.36
66.02
69.66
75.28
80.00
81.44
78.87
73.50
67.78
64.14
64.13
68.04
75.15
84.11
92.83
98.45
97.56
87.26
66.55
37.66
5.69
-23.07
-43.56
-53.95
-55.74
-52.40
-47.19
-41.81
-36.18
-29.64
-22.20
-15.03
-9.84
-7.79
-8.79
-11.51
-14.44
-16.22
-16.74
-17.00
-18.53
-22.58
-29.47
-38.32
-46.95
-53.89
-58.01
-59.27
-58.72
-57.91
-58.17
-60.02
-63.18
-66.17
-67.77
-67.30
-65.16
-62.68
-61.47
-62.71
-66.58
-72.06
-77.43
-81.41
-83.27
-83.44
-83.14
-83.78
-86.45
-91.80
-100.00
-110.57
-122.03
-131.30
-134.09
-126.33
-106.14
-75.17
-38.53
-2.88
26.69
47.95
61.98
71.81
80.34
88.86
97.03
103.43
108.04
111.75
115.66
120.06
123.98
125.69
123.66
117.70
109.05
99.78
92.28
88.10
87.11
87.88
88.62
87.92
85.52
82.41
80.25
79.99
83.27
90.56
101.18
113.02
122.33
124.37
115.18
93.70
62.78
28.67
-1.38
-22.45
-33.22
-36.09
-35.58
-35.37
-37.04
-40.21
-43.68
-47.02
-50.84
-56.18
-63.01
-70.99
-78.56
-83.95
-86.06
-85.03
-82.19
-79.35
-78.11
-78.60
-80.19
-81.52
-81.27
-78.92
-74.89
-70.39
-66.70
-64.90
-64.43
-64.35
-63.26
-60.26
-55.42
-49.77
-44.93
-42.31
-42.58
-45.09
-48.52
-51.31
-52.24
-51.06
-48.25
-44.57
-40.79
-37.65
-35.82
-35.61
-36.18
-34.53
-27.20
-10.59
16.50
51.11
87.10
116.58
133.20
134.70
123.45
104.62
83.69
63.63
46.11
30.70
16.57
3.88
-6.25
-12.37
-13.65
-10.03
-2.11
8.65
21.04
34.06
47.37
61.00
75.26
90.26
104.90
118.98
132.07
144.53
156.59
167.60
175.10
174.97
162.93
137.02
100.30
57.49
16.09
-17.78
-41.55
-56.73
-67.23
-76.86
-87.39
-97.30
-105.55
-110.83
-113.53
-115.22
-117.50
-120.94
-124.77
-127.36
-126.78
-123.54
-117.38
-109.71
-102.38
-96.66
-92.90
-90.79
-90.07
-90.72
-93.36
-97.22
-99.98
-97.53
-85.59
-62.19
-29.25
7.62
41.30
65.47
77.79
79.61
75.07
68.85
64.10
62.10
63.29
68.46
78.27
92.68
109.31
123.09
127.66
117.68
91.52
51.14
5.65
-35.18
-65.06
-83.21
-93.92
-102.40
-112.81
-127.34
-146.16
-168.77
-194.55
-223.95
-257.66
-295.06
-332.64
-364.19
-382.34
-381.16
-359.41
-319.07
-266.71
-211.00
-159.52
-115.87
-79.04
-48.25
-21.82
0.49
22.35
46.41
73.74
103.85
135.57
167.64
198.72
228.46
255.55
285.18
321.78
367.07
419.47
475.53
531.77
585.25
634.91
649.08
609.96
517.64
391.68
258.71
138.71
40.13
-37.68
-88.29
-120.72
-136.61
-136.66
-123.13
-99.97
-71.00
-37.66
-8.00
15.52
33.14
51.51
75.65
107.28
145.20
186.84
229.78
272.47
296.58
291.38
260.76
216.29
167.82
117.73
63.01
1.33
-65.11
-129.01
-180.50
-211.40
-220.86
-215.58
-203.51
-191.54
-183.98
-183.12
-189.77
-203.39
-220.75
-240.62
-261.70
-280.32
-290.22
-284.25
-258.38
-214.27
-158.76
-102.39
-55.90
-25.51
-10.84
-6.50
-5.64
-3.62
0.52
5.52
9.24
10.05
8.16
5.31
3.75
5.17
9.90
16.58
23.16
27.38
27.51
23.55
17.12
10.84
7.21
7.51
11.31
17.20
23.69
29.43
33.18
33.12
27.20
14.35
-3.81
-22.26
-33.57
-30.85
-11.60
20.10
54.34
79.34
86.67
75.39
52.31
28.76
15.30
17.31
33.62
58.89
87.30
115.30
141.80
166.12
185.23
192.98
182.61
150.93
101.86
46.34
-1.88
-32.10
-40.76
-32.37
-15.97
-0.25
10.39
16.89
23.74
35.15
52.19
71.69
87.44
92.15
81.72
54.30
11.84
-39.45
-89.71
-127.10
-140.90
-125.36
-82.49
-22.31
39.86
89.16
116.62
121.73
111.31
94.99
80.20
69.51
61.21
51.83
39.35
24.25
8.23
-7.80
-25.31
-48.25
-81.03
-126.32
-183.93
-251.03
-323.12
-395.31
-462.67
-520.14
-562.42
-584.50
-583.08
-557.92
-512.22
-451.66
-382.50
-310.06
-238.51
-170.95
-109.70
-56.61
-12.44
23.98
55.41
85.67
118.30
154.86
194.61
234.58
270.10
296.15
308.13
303.23
281.87
248.20
208.44
168.89
133.59
103.04
74.65
44.60
10.14
-28.60
-63.61
-85.73
-88.44
-71.86
-42.55
-9.24
21.67
47.94
70.72
91.97
111.86
129.00
141.31
147.66
148.69
146.70
144.49
144.48
147.62
153.16
158.44
160.33
156.46
146.00
129.52
108.44
84.33
58.49
32.86
8.39
-14.48
-35.34
-53.49
-68.11
-78.59
-84.76
-86.89
-85.72
-82.63
-78.92
-75.43
-72.61
-70.53
-69.13
-68.29
-67.81
-67.31
-66.85
-66.46
-66.11
-65.90
-66.09
-67.08
-69.17
-72.44
-76.46
-80.93
-85.45
-89.62
-93.34
-96.87
-100.62
-104.69
-110.40
-116.16
-120.69
-122.74
-121.73
-117.58
-110.82
-102.51
-93.83
-86.11
-79.79
-74.53
-68.68
-59.55
-44.22
-20.71
10.88
48.01
85.80
118.63
141.57
151.92
149.78
137.55
118.66
96.43
73.69
52.43
34.66
22.51
18.32
24.08
40.59
66.68
96.96
126.77
152.11
170.69
182.19
187.82
189.58
189.28
188.10
186.87
186.31
185.96
183.59
175.21
156.45
124.95
82.36
34.36
-10.86
-45.78
-66.80
-74.93
-74.37
-69.86
-64.48
-59.09
-53.46
-47.42
-41.54
-36.94
-34.33
-33.29
-32.50
-30.45
-26.13
-19.85
-12.71
-6.21
-1.58
0.64
0.68
-1.42
-5.67
-12.48
-22.39
-35.51
-51.31
-68.32
-84.53
-97.96
-107.47
-112.76
-114.46
-113.98
-113.30
-114.63
-119.48
-127.70
-137.03
-143.12
-141.19
-128.49
-106.15
-79.14
-54.48
-37.97
-31.92
-34.71
-41.82
-48.43
-51.68
-51.20
-48.02
-43.30
-36.89
-28.09
-16.57
-2.72
11.75
24.20
32.01
33.76
29.41
20.64
9.45
-2.60
-14.15
-25.01
-36.07
-48.41
-62.04
-78.53
-95.83
-110.74
-120.21
-120.65
-110.54
-90.81
-64.27
-34.00
-1.91
32.26
69.36
110.11
156.56
208.31
261.77
311.16
350.78
377.32
390.78
393.16
387.68
381.15
379.45
385.71
399.53
417.35
433.49
441.36
434.53
391.17
305.04
188.65
67.99
-32.47
-101.75
-142.13
-162.49
-172.01
-176.19
-173.76
-162.71
-143.56
-120.28
-98.95
-84.01
-76.96
-76.77
-81.42
-86.08
-86.98
-83.07
-76.02
-69.97
-68.15
-71.97
-81.60
-96.00
-112.40
-129.19
-146.69
-166.12
-189.65
-217.99
-245.10
-266.49
-280.49
-288.40
-294.18
-302.05
-303.65
-291.72
-261.25
-213.26
-155.71
-99.01
-50.95
-14.34
12.60
34.30
53.06
69.22
81.63
88.29
88.13
81.41
70.52
57.23
44.01
32.67
25.46
24.46
29.99
40.11
49.81
53.25
46.03
27.84
1.44
-28.43
-57.40
-83.34
-106.14
-126.07
-142.46
-153.59
-157.44
-153.33
-142.67
-128.61
-115.16
-105.62
-100.69
-98.99
-97.97
-94.79
-86.78
-72.99
-54.03
-30.86
-8.39
11.76
30.15
48.24
67.65
90.37
116.09
141.94
163.64
177.71
183.46
182.99
179.90
178.41
185.06
204.71
239.62
288.56
347.42
409.50
466.25
508.24
527.85
525.39
504.79
471.71
430.33
383.30
331.83
277.14
220.85
146.21
54.26
-39.79
-115.90
-164.39
-184.79
-189.66
-188.48
-185.80
-184.39
-183.35
-183.30
-186.45
-198.08
-222.83
-260.39
-305.66
-351.56
-395.35
-432.61
-467.58
-496.23
-513.60
-516.03
-503.29
-478.74
-436.35
-379.70
-313.22
-241.42
-165.42
-84.88
1.42
94.01
192.13
296.18
399.72
492.81
562.63
599.72
599.40
562.90
495.95
382.80
229.54
57.17
-107.78
-247.30
-351.45
-415.81
-441.43
-435.82
-412.10
-381.38
-357.54
-344.51
-342.25
-345.72
-346.82
-340.35
-326.16
-307.61
-285.08
-258.55
-226.27
-189.93
-150.42
-104.92
-53.17
0.83
50.77
93.93
130.30
162.34
192.53
223.81
264.44
317.97
380.45
442.79
497.66
542.07
576.84
604.05
626.34
654.03
693.24
742.02
791.83
833.77
861.43
870.45
857.42
769.63
589.87
347.03
99.83
-103.87
-247.26
-336.93
-387.87
-414.03
-424.41
-415.88
-387.47
-345.57
-303.66
-274.40
-264.14
-272.75
-295.68
-325.66
-348.25
-351.24
-329.83
-290.00
-243.85
-203.48
-176.78
-165.89
-167.51
-171.49
-169.99
-161.77
-151.93
-146.77
-149.42
-158.47
-170.07
-180.10
-184.17
-181.15
-173.05
-164.07
-157.43
-153.95
-151.80
-148.73
-143.20
-134.40
-123.19
-111.86
-103.18
-98.97
-99.40
-102.45
-105.79
-107.41
-106.14
-101.65
-94.07
-83.37
-68.31
-52.29
-35.69
-18.29
0.20
19.63
39.31
58.13
74.82
88.39
98.47
106.24
113.16
120.71
129.86
140.82
153.12
165.81
177.90
188.77
198.97
209.47
221.60
236.97
257.02
282.38
311.92
342.23
367.77
382.75
382.57
365.53
333.59
291.53
245.12
199.40
157.63
121.27
90.77
65.95
46.15
30.27
16.77
4.15
-8.53
-21.14
-32.77
-42.25
-48.65
-51.58
-51.05
-47.14
-40.06
-30.28
-18.86
-7.34
2.65
10.04
14.78
17.77
20.25
23.05
26.10
28.43
28.74
26.18
20.92
14.19
7.75
3.23
1.40
1.98
3.75
5.18
5.16
3.43
0.55
-2.63
-5.56
-8.50
-12.45
-18.58
-27.55
-38.83
-50.92
-61.82
-70.06
-75.39
-78.96
-82.78
-88.70
-97.65
-109.15
-121.77
-133.69
-143.58
-150.88
-155.73
-158.42
-158.88
-156.57
-150.72
-140.95
-127.72
-112.45
-97.11
-83.47
-72.52
-64.22
-57.87
-52.77
-48.89
-46.91
-47.88
-52.37
-59.75
-68.24
-75.37
-79.08
-78.55
-74.57
-68.93
-63.39
-58.85
-54.90
-50.28
-43.69
-34.62
-23.68
-12.23
-1.53
7.83
16.22
24.58
33.64
43.43
53.02
60.89
65.79
67.18
65.49
61.74
56.90
51.39
45.04
37.44
28.57
19.19
10.72
4.74
2.35
3.68
7.98
14.05
20.78
27.44
33.67
39.06
42.81
43.82
41.03
34.09
23.91
12.38
1.75
-6.49
-12.22
-16.60
-21.20
-26.86
-32.80
-36.75
-35.89
-28.25
-13.93
4.80
23.93
38.73
44.87
39.70
23.35
-0.64
-26.03
-45.62
-53.83
-48.67
-32.27
-9.69
13.59
33.67
49.07
60.22
68.26
74.24
79.06
83.87
90.11
98.78
109.40
119.45
125.08
122.64
110.40
89.29
62.73
35.21
10.58
-9.06
-23.59
-34.09
-41.97
-48.15
-53.00
-56.54
-59.06
-61.26
-64.03
-67.86
-72.57
-77.51
-82.04
-86.17
-90.83
-97.56
-107.67
-121.37
-137.51
-154.06
-168.87
-180.40
-188.08
-191.85
-191.80
-187.72
-179.10
-165.31
-145.78
-120.25
-89.01
-53.31
-15.43
21.60
54.63
81.35
101.05
114.65
123.92
130.48
135.08
137.87
139.08
139.65
141.16
144.89
150.87
157.35
161.50
160.82
154.45
143.51
130.45
117.71
106.39
95.90
84.47
70.58
53.92
35.76
18.33
3.73
-7.03
-14.31
-19.42
-23.62
-27.36
-30.09
-30.81
-28.75
-24.19
-18.33
-12.86
-8.96
-6.76
-5.28
-3.06
0.98
6.84
13.51
19.54
24.10
27.54
31.23
36.73
44.79
54.69
64.41
71.43
74.02
72.03
66.98
61.13
56.35
53.33
51.39
49.26
45.89
41.11
35.63
30.36
25.32
19.36
10.63
-2.33
-19.50
-39.18
-58.46
-74.50
-85.83
-93.39
-99.80
-107.64
-117.93
-129.51
-139.77
-145.94
-146.58
-142.22
-136.25
-132.76
-134.49
-141.31
-150.79
-159.94
-166.67
-170.30
-170.92
-170.05
-168.36
-165.28
-159.13
-148.75
-134.80
-119.03
-102.64
-84.92
-65.77
-45.56
-26.06
-10.50
-3.64
-10.59
-34.58
-75.16
-113.70
-131.09
-116.22
-73.44
-17.09
39.25
88.25
128.67
162.57
192.93
219.36
239.58
251.40
254.86
