1593437366.00
64.000000
-0.00
-0.00
-0.00
-0.00
-0.00
-0.00
-0.00
-0.00
-0.00
-0.00
0.00
0.01
0.01
-0.00
-0.03
-0.05
-0.05
0.00
0.13
0.36
0.66
1.01
1.37
1.72
2.06
2.40
2.79
3.24
3.80
4.42
5.06
5.66
6.20
6.68
7.15
7.68
8.31
9.14
10.09
11.04
11.88
12.56
13.14
13.76
14.65
15.96
17.91
20.32
22.90
25.38
27.58
29.57
31.68
34.32
37.81
42.54
48.15
54.10
59.83
64.97
69.58
74.14
79.34
85.71
93.76
103.00
112.62
121.73
129.77
136.75
143.30
150.75
157.77
166.64
177.95
191.79
206.97
220.57
228.25
225.36
208.53
176.87
132.76
80.05
23.07
-34.94
-92.44
-149.16
-205.23
-260.37
-313.74
-363.87
-409.83
-450.91
-486.50
-515.74
-537.23
-549.22
-549.96
-538.37
-514.21
-478.67
-433.88
-382.45
-327.02
-269.84
-212.63
-156.66
-102.95
-52.37
-5.90
35.58
71.43
101.35
125.50
144.38
158.69
169.15
176.37
180.75
182.57
182.07
179.51
175.23
169.65
163.18
156.15
148.81
141.30
133.69
126.02
118.33
110.69
103.16
95.80
88.68
81.83
75.25
68.95
62.95
57.25
51.86
46.78
42.03
37.59
33.45
29.61
26.07
22.81
19.83
17.11
14.67
12.48
10.54
8.83
7.35
6.07
4.97
4.05
3.27
2.62
2.09
1.65
1.30
1.01
0.79
0.61
0.47
0.37
0.29
0.23
0.19
0.16
0.15
0.15
0.15
0.17
0.19
0.22
0.26
0.30
0.34
0.38
0.43
0.48
0.53
0.58
0.63
0.69
0.75
0.81
0.88
0.96
1.04
1.13
1.23
1.34
1.47
1.61
1.77
1.95
2.14
2.36
2.61
2.89
3.20
3.55
3.91
4.27
4.63
5.01
5.41
5.86
6.39
7.00
7.68
8.39
9.13
9.88
10.63
11.42
12.28
13.23
14.31
15.46
16.66
17.84
18.95
20.00
20.97
21.89
22.72
23.37
23.63
23.27
22.05
19.83
16.62
12.59
7.98
3.10
-1.82
-6.70
-11.59
-16.55
-21.56
-26.40
-30.72
-34.10
-36.26
-37.18
-37.17
-36.81
-36.67
-37.15
-38.25
-39.62
-40.76
-41.24
-40.91
-40.03
-39.08
-38.62
-39.17
-41.09
-44.55
-49.26
-54.25
-57.78
-57.80
-52.79
-42.53
-28.59
-13.86
-1.49
6.34
9.21
8.43
6.05
3.66
1.85
0.10
-2.51
-6.62
-12.24
-18.75
-24.97
-29.78
-32.32
-32.11
-29.08
-23.59
-16.39
-8.44
-0.73
6.46
13.18
19.90
27.22
35.59
45.16
55.76
67.28
77.28
84.39
87.77
87.27
83.59
78.15
72.63
68.44
66.07
64.92
63.94
61.90
58.11
52.80
47.04
42.03
38.28
35.10
30.63
22.84
10.30
-6.97
-27.36
-48.21
-66.82
-81.42
-91.62
-98.20
-102.33
-105.08
-107.01
-108.08
-108.00
-106.40
-103.01
-97.66
-90.31
-80.97
-69.85
-57.38
-44.13
-30.75
-17.87
-5.97
4.54
13.42
20.61
26.23
30.46
33.58
35.88
37.53
38.67
39.36
39.61
39.40
38.71
37.56
36.10
34.57
33.19
32.07
31.06
29.80
27.85
24.89
20.95
16.33
11.52
6.92
2.71
-1.15
-4.81
-8.41
-12.03
-15.76
-19.74
-24.19
-29.22
-34.67
-40.12
-44.89
-48.24
-49.51
-48.31
-44.56
-38.53
-30.72
-21.82
-12.53
-3.43
5.08
12.81
19.70
25.67
30.59
34.31
36.77
38.08
38.54
38.54
38.37
38.10
37.61
36.62
34.95
32.62
29.98
27.48
25.50
24.10
22.94
21.53
19.40
16.44
12.85
9.04
5.34
1.81
-1.71
-5.38
-9.25
-13.17
-16.98
-20.70
-24.56
-28.80
-33.36
-37.71
-41.04
-42.53
-41.75
-38.79
-34.15
-28.36
-21.82
-14.70
-7.10
0.74
8.37
15.27
21.04
25.51
28.80
31.18
32.97
34.40
35.61
36.57
37.17
37.27
36.69
35.39
33.49
31.27
29.16
27.50
26.43
25.84
25.34
24.46
22.82
20.28
16.98
13.26
9.44
5.74
2.12
-1.52
-5.34
-9.35
-13.42
-17.42
-21.28
-25.10
-28.99
-33.07
-37.16
-40.79
-43.13
-43.32
-40.72
-35.18
-27.22
-17.77
-7.99
1.16
9.11
15.79
21.44
26.38
30.78
34.57
37.54
39.46
40.27
40.13
39.33
38.20
36.91
35.50
33.89
32.02
30.01
28.12
26.65
25.79
25.46
25.33
24.92
23.80
21.76
18.92
15.66
12.44
9.66
7.52
5.99
4.84
3.79
2.54
0.86
-1.32
-3.90
-6.55
-8.72
-9.69
-8.72
-5.28
0.84
9.47
20.13
32.31
45.59
59.72
74.49
89.57
104.41
118.26
130.39
140.40
148.38
155.07
161.70
169.71
180.12
192.90
206.41
217.31
221.39
214.85
196.04
166.36
130.15
93.31
61.24
37.21
21.77
13.33
9.41
7.85
7.22
6.78
5.95
4.18
1.04
-3.36
-8.17
-11.96
-13.18
-10.83
-4.81
3.97
13.92
23.23
30.37
34.36
34.88
32.16
26.76
19.40
10.71
1.23
-8.57
-18.27
-27.49
-35.95
-43.50
-50.27
-56.48
-62.36
-68.01
-73.25
-77.74
-81.09
-83.06
-83.62
-83.02
-81.50
-79.30
-76.54
-73.31
-69.93
-66.91
-64.97
-64.74
-66.48
-69.80
-73.63
-76.57
-77.23
-74.78
-69.07
-60.70
-50.68
-40.24
-30.58
-22.83
-17.95
-16.62
-19.08
-24.94
-33.07
-41.85
-49.51
-54.57
-56.11
-53.93
-48.38
-40.22
-30.49
-20.45
-11.58
-5.53
-3.93
-8.15
-18.93
-36.30
-59.40
-86.63
-115.72
-144.02
-168.79
-187.50
-198.31
-200.36
-193.93
-180.26
-161.28
-139.19
-116.08
-93.74
-73.55
-56.38
-42.52
-31.74
-23.31
-16.35
-10.07
-4.10
1.53
6.43
10.14
12.29
12.69
11.25
7.86
2.38
-5.32
-15.22
-26.79
-39.00
-50.33
-59.20
-64.44
-65.73
-63.67
-59.61
-55.15
-51.69
-50.24
-51.37
-55.30
-61.83
-70.22
-79.15
-86.85
-91.75
-93.06
-91.16
-87.41
-83.41
-80.19
-77.75
-75.24
-71.64
-66.47
-59.92
-52.57
-44.74
-36.26
-26.63
-15.60
-3.70
7.77
17.19
23.36
26.00
25.85
24.28
22.68
22.04
22.70
24.48
26.83
28.98
30.09
29.50
26.98
22.94
18.44
14.91
13.72
15.64
20.69
28.08
36.74
45.70
54.60
63.65
73.37
84.14
95.79
107.47
117.89
125.74
130.10
130.69
127.88
122.56
115.92
109.19
103.53
99.84
98.49
99.30
101.62
104.67
108.04
112.04
117.57
125.44
135.44
145.87
153.96
157.01
153.81
145.34
134.36
123.90
115.75
109.59
103.48
95.21
83.72
69.68
55.09
42.07
31.75
23.94
17.60
11.80
6.37
1.95
-0.48
-0.41
1.80
4.93
7.46
8.21
6.81
3.66
-0.34
-4.34
-7.77
-10.48
-12.57
-14.25
-15.71
-17.18
-18.91
-21.17
-24.18
-28.02
-32.55
-37.49
-42.44
-47.10
-51.29
-54.99
-58.24
-61.06
-63.34
-64.91
-65.67
-65.66
-65.12
-64.43
-64.01
-64.10
-64.73
-65.70
-66.75
-67.76
-68.78
-70.06
-71.77
-73.87
-75.98
-77.41
-77.45
-75.55
-71.53
-65.61
-58.32
-50.27
-41.99
-33.75
-25.49
-16.89
-7.59
2.53
13.08
23.07
31.31
36.88
39.77
40.98
42.22
45.21
51.03
59.81
70.83
83.04
95.49
107.71
119.62
131.36
143.00
154.27
164.34
171.68
174.19
169.43
155.39
131.24
97.98
58.51
17.05
-21.97
-55.28
-81.70
-102.57
-121.03
-140.72
-164.22
-191.98
-222.12
-251.16
-275.25
-291.35
-297.90
-294.91
-283.16
-263.36
-235.83
-200.86
-159.15
-112.57
-64.20
-18.32
20.13
46.68
58.49
55.24
39.21
14.66
-13.56
-41.45
-66.90
-90.25
-113.15
-137.39
-163.91
-192.77
-223.28
-254.13
-283.31
-308.16
-326.71
-336.94
-337.07
-326.04
-304.23
-273.46
-236.28
-195.39
-153.33
-114.62
-82.69
-58.38
-39.47
-22.28
-3.25
20.59
51.53
91.01
135.58
180.71
221.80
254.71
274.92
278.18
262.69
230.76
188.15
137.28
80.82
21.99
-34.54
-84.65
-126.02
-157.84
-180.33
-165.83
-102.06
-0.10
110.26
203.74
271.11
315.20
342.80
359.83
369.72
369.16
355.01
326.93
289.39
248.36
208.25
170.79
135.37
99.70
57.13
13.28
-27.76
-61.22
-83.91
-95.16
-96.53
-90.85
-81.23
-72.72
-68.90
-72.34
-82.25
-95.56
-107.63
-113.02
-106.46
-85.08
-51.12
-10.80
26.87
54.85
70.19
74.32
71.49
66.29
61.43
56.85
51.29
43.36
33.63
24.28
17.58
14.53
14.33
14.87
13.72
9.53
2.27
-6.34
-13.52
-16.63
-14.40
-7.37
2.26
11.68
18.52
22.21
23.83
25.62
29.85
37.72
48.82
61.27
72.61
80.47
83.08
79.38
69.47
54.78
38.41
24.87
18.89
23.48
38.00
57.53
74.13
80.27
72.08
51.19
23.90
-1.67
-19.08
-25.63
-22.31
-13.03
-1.61
9.97
21.55
33.40
44.94
54.42
59.98
60.77
57.73
53.34
50.48
50.99
54.84
60.24
64.52
65.72
63.24
57.99
51.89
46.78
43.28
40.59
36.49
28.61
15.86
-1.28
-20.91
-40.64
-58.40
-73.30
-85.78
-95.69
-104.89
-114.68
-125.84
-138.33
-150.73
-159.89
-161.36
-151.14
-127.64
-93.43
-54.52
-18.54
8.38
23.79
29.37
29.20
27.31
25.84
24.63
22.85
20.08
17.07
15.14
15.31
17.47
20.42
22.58
22.55
20.19
16.15
12.02
9.11
8.03
8.50
9.52
9.93
8.84
6.14
2.39
-1.49
-4.68
-6.81
-8.04
-8.96
-10.23
-12.36
-15.44
-19.16
-23.07
-26.75
-30.03
-32.98
-35.87
-39.04
-42.69
-46.86
-51.37
-56.00
-60.50
-64.69
-68.41
-71.46
-73.63
-74.64
-74.13
-71.74
-67.21
-60.43
-51.50
-40.88
-28.88
-16.02
-2.86
9.99
22.02
32.77
41.85
49.02
54.13
57.22
58.46
58.18
56.87
55.02
53.08
51.25
49.52
47.70
45.61
43.14
40.39
37.71
35.52
34.15
33.63
33.70
33.85
33.59
32.69
31.33
30.07
29.60
30.45
32.65
35.75
39.00
41.74
43.69
45.13
46.83
49.81
55.14
63.80
76.47
93.21
113.00
133.52
151.40
163.18
166.68
161.94
151.26
138.25
126.21
116.81
109.80
103.53
96.26
86.99
75.79
63.22
49.69
35.04
18.80
1.01
-17.72
-36.20
-53.05
-67.25
-78.53
-87.47
-95.16
-102.71
-110.77
-119.25
-127.41
-134.12
-138.38
-139.65
-137.99
-133.82
-127.70
-119.96
-110.76
-100.15
-88.26
-75.49
-62.39
-49.54
-37.33
-25.91
-15.31
-5.60
3.01
10.23
15.76
19.49
21.41
21.67
20.43
17.91
14.45
10.46
6.42
2.57
-1.20
-5.38
-10.59
-17.22
-25.13
-33.56
-41.33
-47.21
-50.30
-50.22
-47.19
-41.86
-35.06
-27.61
-20.14
-13.10
-6.77
-1.35
2.95
6.00
7.80
8.58
8.89
9.47
11.11
14.35
19.28
25.54
32.42
39.27
45.80
52.19
58.93
66.43
74.57
82.56
89.09
92.76
92.55
87.95
78.98
65.96
49.41
30.16
9.48
-10.93
-29.31
-44.44
-56.15
-65.34
-73.36
-81.19
-88.77
-95.08
-98.83
-99.39
-97.35
-94.23
-91.74
-90.71
-90.88
-91.13
-90.33
-88.07
-84.87
-81.75
-79.48
-78.12
-76.97
-74.94
-71.21
-65.54
-58.42
-50.74
-43.49
-37.36
-32.63
-29.05
-26.02
-22.72
-18.45
-12.87
-6.16
0.97
7.54
12.67
15.90
17.37
17.79
18.08
19.07
21.14
24.10
27.27
29.79
30.94
30.42
28.40
25.34
21.74
17.90
13.88
9.63
5.22
1.00
-2.50
-4.82
-5.81
-5.76
-5.27
-4.95
-5.18
-5.93
-6.82
-7.24
-6.59
-4.48
-0.81
4.16
9.95
15.93
21.52
26.42
30.55
34.14
37.50
41.00
44.90
49.27
53.83
57.90
60.37
59.97
55.79
47.68
36.60
24.31
12.91
4.05
-1.51
-3.99
-4.31
-3.59
-2.78
-2.53
-3.17
-4.87
-7.65
-11.41
-15.85
-20.49
-24.70
-27.81
-29.24
-28.69
-26.25
-22.36
-17.75
-13.23
-9.39
-6.53
-4.62
-3.36
-2.38
-1.37
-0.05
1.77
4.25
7.51
11.62
16.54
22.16
28.27
34.57
40.74
46.44
51.37
55.30
58.10
59.72
60.21
59.69
58.33
56.35
53.89
50.98
47.47
43.02
37.19
29.66
20.36
9.52
-2.30
-14.43
-26.22
-37.26
-47.30
-56.23
-63.98
-70.47
-75.58
-79.20
-81.26
-81.75
-80.70
-78.16
-74.17
-68.87
-62.49
-55.50
-48.51
-42.16
-36.94
-32.90
-29.63
-26.34
-22.16
-16.47
-9.24
-1.06
7.09
14.18
19.54
23.11
25.40
27.24
29.38
32.19
35.50
38.74
41.19
42.28
41.82
39.96
37.13
33.85
30.63
27.80
25.51
23.71
22.11
20.32
17.86
14.47
10.18
5.44
0.96
-2.41
-3.99
-3.42
-0.81
3.35
8.28
13.08
16.93
19.17
19.49
17.91
14.74
10.52
5.85
1.29
-2.77
-6.04
-8.32
-9.39
-9.13
-7.51
-4.74
-1.19
2.63
6.34
9.69
12.67
15.38
17.89
20.14
21.97
23.12
23.38
22.53
20.40
16.83
11.79
5.54
-1.34
-7.91
-13.29
-16.85
-18.47
-18.54
-17.68
-16.34
-14.68
-12.57
-9.81
-6.47
-2.94
0.20
2.41
3.44
3.44
2.85
2.13
1.55
0.99
0.09
-1.67
-4.50
-8.24
-12.27
-15.72
-17.86
-18.36
-17.48
-15.93
-14.55
-14.05
-14.72
-16.48
-18.97
-21.76
-24.44
-26.71
-28.34
-29.25
-29.39
-28.82
-27.67
-26.03
-23.90
-21.18
-17.62
-13.02
-7.33
-0.80
6.12
12.85
18.87
23.88
27.73
30.41
31.92
32.18
31.04
28.23
23.44
16.35
6.73
-5.26
-18.95
-33.03
-45.59
-54.63
-58.47
-56.45
-49.18
-38.45
-26.65
-16.00
-7.77
-2.01
2.30
6.59
12.01
19.03
27.36
36.32
45.14
53.16
59.72
64.10
65.47
63.16
56.93
47.19
35.01
21.85
9.19
-1.70
-10.04
-15.56
-18.59
-19.94
-20.64
-21.51
-22.86
-24.38
-25.34
-24.98
-22.95
-19.46
-15.14
-10.83
-7.19
-4.53
-2.76
-1.51
-0.27
1.42
3.79
6.74
9.94
12.87
15.08
16.33
16.67
16.31
15.55
14.62
13.69
12.92
12.49
12.61
13.45
15.03
17.14
19.35
21.11
21.89
21.38
19.70
17.33
15.02
13.43
12.86
13.07
13.40
13.15
11.94
9.94
7.82
6.36
6.09
7.01
8.64
10.34
11.61
12.29
12.47
12.30
11.69
10.36
8.05
4.76
0.91
-2.73
-5.35
-6.43
-5.94
-4.33
-2.31
-0.67
-0.04
-0.79
-3.05
-6.57
-10.72
-14.58
-17.22
-18.07
-17.20
-15.36
-13.63
-12.81
-13.04
-13.63
-13.46
-11.45
-7.13
-0.86
6.30
12.91
17.35
18.25
14.70
6.60
-5.20
-19.01
-32.77
-44.74
-53.95
-60.40
-64.51
-66.63
-66.57
-63.60
-56.94
-46.39
-32.71
-17.47
-2.61
10.22
20.05
26.64
30.28
31.47
30.72
28.51
25.40
22.05
19.11
17.03
15.86
15.24
14.61
13.53
11.93
10.10
8.53
7.65
7.67
8.53
10.06
12.05
14.25
16.42
18.28
19.60
20.24
20.25
19.75
18.83
17.49
15.67
13.39
10.94
8.82
7.60
7.64
8.88
10.92
13.13
14.96
16.12
16.62
16.62
16.37
16.07
15.82
15.67
15.54
15.27
14.62
13.30
11.15
8.22
4.83
1.49
-1.32
-3.37
-4.82
-6.18
-7.99
-10.57
-13.73
-16.84
-19.07
-19.76
-18.72
-16.22
-12.81
-9.07
-5.32
-1.68
1.85
5.27
8.46
11.28
13.62
15.47
16.88
17.97
18.82
19.43
19.74
19.66
19.18
18.35
17.31
16.15
14.91
13.47
11.68
9.50
7.07
4.75
2.95
1.95
1.74
2.04
2.41
2.46
2.01
1.13
0.04
-1.04
-2.03
-3.03
-4.28
-5.96
-8.07
-10.33
-12.29
-13.49
-13.65
-12.76
-11.02
-8.74
-6.15
-3.43
-0.68
1.97
4.33
6.25
7.66
8.66
9.41
10.05
10.56
10.80
10.57
9.75
8.44
6.90
5.49
4.52
4.15
4.38
5.03
5.86
6.61
7.10
7.20
6.85
6.07
4.94
3.58
2.13
0.72
-0.57
-1.71
-2.70
-3.59
-4.39
-5.16
-5.98
-6.96
-8.16
-9.59
-11.16
-12.69
-14.04
-15.12
-15.91
-16.40
-16.51
-16.06
-14.88
-12.92
-10.36
-7.55
-4.94
-2.80
-1.16
0.16
1.41
2.73
4.02
5.04
5.55
5.45
4.90
4.15
3.52
3.21
3.26
3.59
4.03
4.40
4.57
4.45
4.10
3.60
3.14
2.82
2.67
2.60
2.43
2.05
1.43
0.66
-0.13
-0.88
-1.62
-2.44
-3.46
-4.70
-6.13
-7.67
-9.22
-10.75
-12.25
-13.70
-15.05
-16.12
-16.71
-16.62
-15.71
-14.06
-11.82
-9.24
-6.49
-3.66
-0.72
2.38
5.62
8.86
11.90
14.51
16.58
18.13
19.25
20.09
20.82
21.51
22.25
23.04
23.83
24.55
25.08
25.38
25.45
25.41
25.47
25.88
26.84
28.32
29.99
31.17
30.99
28.66
23.83
16.82
8.66
0.86
-5.19
-8.61
-9.50
-8.89
-8.50
-10.11
-14.97
-23.29
-34.15
-45.82
-56.30
-63.99
-68.10
-68.74
-66.71
-63.09
-58.86
-54.60
-50.41
-46.07
-41.18
-35.48
-29.03
-22.10
-15.12
-8.36
-1.76
5.15
12.91
21.82
31.56
41.23
49.63
55.81
59.40
60.71
60.36
58.88
56.37
52.58
47.27
40.52
32.92
25.37
18.64
13.13
8.70
4.98
1.66
-1.29
-3.64
-5.12
-5.66
-5.45
-4.85
-4.19
-3.60
-3.06
-2.51
-1.94
-1.47
-1.21
-1.22
-1.32
-1.25
-0.71
0.43
2.10
4.01
5.74
6.81
6.69
4.89
1.09
-4.75
-12.23
-20.56
-28.74
-35.89
-41.48
-45.44
-48.02
-49.60
-50.50
-50.88
-50.73
-50.02
-48.75
-47.08
-45.24
-43.54
-42.29
-41.72
-41.90
-42.75
-44.04
-45.44
-46.54
-46.97
-46.51
-45.09
-42.93
-40.43
-38.05
-36.17
-34.90
-33.99
-32.92
-31.00
-27.58
-22.29
-15.16
-6.65
2.47
11.31
19.11
25.42
30.16
33.58
36.05
37.84
39.13
39.99
40.60
41.33
42.70
45.22
49.12
54.16
59.66
64.71
68.43
70.29
70.24
68.61
65.89
62.58
59.01
55.34
51.60
47.83
44.06
40.39
36.91
33.71
30.84
28.31
26.09
24.10
22.22
20.27
18.06
15.40
12.21
8.58
4.81
1.40
-1.05
-2.00
-1.14
1.47
5.38
9.87
14.20
17.87
20.80
23.24
25.51
27.72
29.60
30.61
30.22
28.28
25.11
21.38
17.73
14.43
11.29
7.80
3.55
-1.41
-6.37
-10.20
-11.75
-10.37
-6.12
0.16
7.16
13.40
17.60
18.98
17.51
13.96
9.82
6.99
7.25
11.69
20.15
31.08
41.72
48.71
49.02
40.72
23.55
-0.90
-29.59
-58.79
-84.96
-105.45
-118.87
-124.99
-124.48
-118.56
-108.79
-96.97
-84.93
-74.28
-66.09
-60.77
-58.14
-57.71
-59.04
-61.99
-66.50
-72.21
-78.07
-82.25
-82.47
-76.54
-63.21
-42.70
-16.99
10.54
36.05
56.32
69.67
76.24
77.40
74.78
69.31
60.68
47.76
29.58
6.67
-18.21
-40.23
-53.87
-54.88
-42.16
-18.54
10.08
36.70
55.62
63.96
61.85
51.40
35.20
15.48
-5.99
-27.20
-45.31
-56.78
-58.10
-46.97
-23.28
10.60
50.33
90.41
125.50
151.39
166.12
170.46
167.89
163.58
162.57
167.72
178.21
189.40
194.07
184.92
157.34
111.47
52.84
-8.87
-62.33
-97.98
-110.51
-99.92
-70.83
-30.23
15.18
60.76
104.76
147.64
190.91
235.94
282.84
329.84
373.37
408.62
430.86
437.09
427.06
403.39
370.41
332.47
292.69
252.69
213.26
175.37
140.60
110.80
87.22
69.95
57.87
49.25
42.49
36.61
31.23
26.35
21.93
17.55
12.44
5.64
-3.60
-15.49
-29.48
-44.36
-58.67
-71.21
-81.49
-89.87
-97.36
-105.18
-114.34
-125.38
-138.55
-154.04
-172.01
-192.34
-213.97
-234.53
-250.58
-258.56
-256.13
-243.17
-221.89
-195.99
-169.30
-144.73
-123.84
-107.19
-94.94
-87.23
-84.17
-85.60
-90.90
-99.11
-109.26
-120.61
-132.74
-145.27
-157.62
-168.72
-177.10
-181.20
-179.95
-173.22
-161.98
-148.10
-133.88
-121.21
-111.13
-103.52
-97.51
-92.04
-86.44
-80.73
-75.45
-71.20
-68.15
-65.84
-63.30
-59.49
-53.74
-46.12
-37.34
-28.51
-20.66
-14.46
-10.18
-7.92
-7.89
-10.54
-16.24
-24.91
-35.58
-46.52
-55.75
-61.93
-64.97
-65.95
-66.51
-67.86
-70.02
-71.85
-71.67
-68.30
-61.75
-53.29
-44.85
-38.15
-33.98
-32.09
-31.60
-31.62
-31.71
-31.99
-32.70
-33.84
-34.83
-34.66
-32.20
-26.78
-18.45
-7.94
3.61
15.09
25.80
35.39
43.87
51.26
57.46
62.16
65.07
66.10
65.52
63.95
62.12
60.52
59.23
57.99
56.42
54.24
51.39
47.86
43.53
38.17
31.61
23.99
15.91
8.28
1.99
-2.46
-5.10
-6.30
-6.47
-5.80
-4.28
-1.90
1.16
4.40
7.06
8.30
7.40
3.98
-1.95
-9.84
-18.63
-26.98
-33.55
-37.45
-38.44
-36.98
-33.89
-29.99
-25.80
-21.42
-16.66
-11.28
-5.08
1.96
9.82
18.50
28.03
38.42
49.53
60.97
72.26
82.95
92.87
102.10
110.88
119.38
127.45
134.64
140.29
143.92
145.41
145.07
143.38
140.63
136.59
130.37
120.77
106.63
87.45
63.58
36.18
6.75
-23.24
-52.60
-80.29
-105.36
-126.98
-144.87
-159.85
-173.90
-189.45
-207.96
-228.76
-248.77
-263.70
-270.08
-266.98
-256.44
-242.11
-227.33
-213.54
-200.23
-186.14
-170.70
-154.76
-139.92
-127.40
-116.97
-107.03
-95.60
-81.52
-65.18
-48.13
-32.25
-18.78
-7.97
0.72
7.98
14.18
19.25
22.91
25.00
25.74
25.76
25.88
26.93
29.53
33.86
39.68
46.37
53.06
58.83
62.87
64.68
64.10
61.32
56.88
51.61
46.44
42.22
39.43
37.92
36.92
35.28
31.96
26.48
19.17
11.12
3.70
-1.95
-5.31
-6.67
-6.88
-7.04
-8.05
-10.26
-13.42
-16.78
-19.46
-20.79
-20.61
-19.37
-17.95
-17.22
-17.75
-19.48
-21.82
-23.89
-24.82
-24.01
-21.25
-16.83
-11.65
-7.39
-6.22
-10.15
-19.94
-34.06
-48.59
-58.31
-58.80
-48.56
-30.03
-8.77
8.80
18.02
17.54
9.26
-3.18
-16.20
-27.48
-36.06
-41.70
-44.20
-43.27
-38.78
-31.34
-22.45
-14.06
-7.82
-4.37
-3.06
-2.42
-0.89
2.36
6.99
11.69
14.78
14.88
11.57
5.43
-2.04
-8.99
-13.65
-14.86
-12.48
-7.44
-1.61
2.86
4.28
2.13
-2.70
-8.36
-12.83
-14.93
-14.63
-12.92
-10.89
-9.00
-6.73
-2.98
3.12
11.40
20.46
28.26
33.07
34.38
33.00
30.63
28.73
27.89
27.57
26.64
24.18
20.10
15.16
10.56
7.33
5.81
5.75
6.50
7.46
8.26
8.84
9.20
9.11
8.04
5.29
0.32
-6.78
-15.14
-23.21
-29.33
-32.41
-32.51
-30.79
-28.98
-28.47
-29.61
-31.52
-32.65
-31.70
-28.28
-23.08
-17.35
-12.12
-7.73
-3.77
0.39
5.14
10.24
15.03
18.82
21.39
23.01
24.28
25.68
27.30
28.81
29.74
29.82
29.12
28.06
27.09
26.46
26.06
25.50
24.36
22.41
19.80
16.96
14.39
12.43
11.07
10.02
8.83
7.18
4.98
2.37
-0.51
-3.65
-7.39
-12.14
-18.13
-25.09
-32.11
-37.92
-41.40
-42.00
-40.04
-36.51
-32.60
-29.26
-26.83
-25.18
-23.86
-22.50
-20.88
-18.96
-16.82
-14.61
-12.61
-11.27
-11.24
-13.15
-17.53
-24.56
-34.05
-45.47
-58.03
-70.72
-82.33
-91.56
-97.17
-98.29
-94.73
-87.09
-76.59
-64.70
-52.70
-41.28
-30.62
-20.42
-10.23
0.29
11.27
22.54
33.69
44.24
53.75
62.01
69.14
75.84
83.36
93.28
107.06
125.39
147.52
171.13
192.66
208.33
215.31
212.44
200.35
180.85
156.11
128.23
99.29
71.58
47.65
29.89
19.72
17.01
20.03
26.15
32.72
37.81
40.47
40.50
38.15
34.05
29.30
25.45
24.12
26.39
32.21
40.28
48.48
54.74
57.73
57.17
53.52
47.44
39.21
28.58
15.01
-1.73
-20.99
-41.08
-59.53
-73.72
-81.71
-82.79
-77.50
-67.33
-54.06
-39.22
-23.84
-8.54
6.01
18.94
29.11
35.46
37.34
34.78
28.52
19.81
10.14
0.99
-6.31
-10.74
-11.66
-8.92
-2.92
5.44
14.96
24.41
32.76
39.32
43.71
45.81
45.69
43.56
39.87
35.18
30.17
25.43
21.32
17.98
15.27
13.01
11.07
9.34
7.78
6.35
4.95
3.52
2.06
0.67
-0.47
-1.18
-1.33
-0.94
-0.13
0.90
1.98
3.04
4.22
5.72
7.77
10.39
13.35
16.15
18.24
19.28
19.25
18.48
17.43
16.51
15.86
15.47
15.19
14.88
14.50
14.00
13.26
12.14
10.50
8.37
6.01
3.89
2.52
2.35
3.65
6.51
10.92
16.81
24.05
32.35
41.20
49.85
57.49
63.56
68.02
71.58
75.45
81.08
89.48
100.80
114.23
128.26
141.36
152.56
161.89
170.15
178.45
187.51
197.32
207.17
216.08
223.36
228.85
232.74
235.16
235.69
233.25
226.54
214.65
197.70
176.97
154.59
132.72
112.79
95.09
78.85
62.65
45.02
24.81
1.35
-25.45
-54.99
-85.86
-115.75
-141.94
-162.20
-175.78
-184.17
-190.81
-199.72
-213.65
-232.56
-253.33
-270.99
-280.75
-279.77
-267.93
-247.29
-220.94
-192.01
-163.22
-136.96
-115.24
-99.36
-89.36
-83.76
-79.98
-75.34
-68.14
-58.11
-46.02
-32.71
-18.24
-1.88
17.26
39.21
62.44
84.19
101.40
111.81
114.91
111.99
105.42
97.59
90.01
83.10
76.49
69.54
61.46
51.29
37.75
19.41
-4.57
-33.56
-65.08
-95.60
-122.11
-144.06
-163.27
-182.58
-203.77
-226.02
-246.00
-259.47
-263.38
-257.12
-243.27
-225.12
-204.74
-182.32
-157.09
-129.14
-100.70
-75.83
-58.58
-53.18
-60.42
-76.95
-96.31
-111.52
-117.81
-114.16
-102.94
-87.54
-74.38
-67.94
-69.52
-77.24
-87.76
-98.29
-107.97
-117.88
-129.71
-150.83
-188.45
-246.66
-324.06
-413.55
-504.53
-586.49
-652.53
-677.94
-651.37
-574.40
-461.09
-330.92
-199.99
-76.91
35.23
127.12
201.59
258.05
296.53
319.79
333.62
345.15
360.48
383.64
415.20
455.01
496.90
532.92
554.90
556.44
534.73
491.69
433.84
370.64
312.78
265.28
228.96
201.87
181.46
166.14
155.27
148.08
142.68
136.80
126.48
109.18
85.14
57.43
30.61
8.74
-6.17
-14.58
-18.41
-20.78
-24.22
-29.74
-36.83
-44.04
-49.85
-53.35
-54.45
-53.59
-51.51
-48.69
-45.26
-41.09
-36.07
-30.39
-24.58
-19.39
-15.75
-14.26
-15.01
-17.55
-21.17
-25.13
-29.05
-32.84
-36.72
-41.34
-47.14
-54.01
-61.07
-66.95
-70.43
-71.31
-70.90
-71.75
-77.21
-89.55
-108.66
-131.82
-154.43
-171.64
-179.81
-177.10
-160.61
-129.76
-86.44
-35.02
18.58
68.53
110.45
141.89
162.23
172.23
173.19
167.06
156.20
142.96
129.42
117.03
106.51
98.06
91.55
86.55
82.69
79.78
77.83
76.85
76.82
77.48
78.51
79.54
80.19
80.27
79.85
79.15
78.55
78.37
78.74
79.65
80.76
81.62
81.57
80.00
76.31
70.17
61.42
50.09
36.75
21.15
3.39
-16.35
-37.65
-59.88
-82.10
-103.08
-121.49
-136.03
-146.14
-151.76
-153.33
-151.60
-147.23
-140.36
-130.50
-116.64
-97.62
-73.37
-44.66
-13.30
18.16
47.06
71.36
90.57
103.88
111.26
112.67
107.62
95.27
74.90
46.28
9.78
-33.65
-82.45
-130.66
-173.32
-204.58
-218.78
-212.71
-187.77
-150.31
-109.60
-74.10
-48.70
-33.83
-26.00
-20.60
-14.50
-6.99
0.97
7.39
13.11
19.18
25.73
31.93
35.87
35.37
29.24
17.14
0.44
-17.94
-35.21
-49.46
-59.76
-66.21
-69.56
-70.72
-70.22
-68.87
-65.57
-59.77
-51.59
-41.75
-31.49
-22.05
-14.47
-9.38
-6.79
-6.09
-6.93
-9.09
-12.54
-17.44
-23.76
-31.42
-40.17
-49.56
-58.92
-67.84
-76.10
-83.61
-90.45
-96.50
-101.72
-106.12
-109.65
-112.19
-113.67
-113.95
-112.69
-111.17
-109.96
-109.43
-109.73
-110.85
-112.52
-114.36
-115.91
-116.63
-116.01
-113.39
-108.28
-100.47
-90.02
-77.27
-62.87
-47.63
-32.52
-18.50
-6.23
3.89
11.62
16.79
19.28
19.00
15.90
10.06
1.72
-8.64
-20.22
-32.19
-43.86
-54.82
-64.91
-74.17
-82.71
-90.49
-97.29
-102.23
-104.37
-103.02
-97.98
-89.58
-78.52
-65.53
-51.06
-35.22
-16.46
6.77
35.31
68.74
105.38
142.74
178.40
210.72
238.81
265.61
294.34
327.18
364.34
403.94
442.96
478.51
508.90
533.03
555.79
582.50
617.49
663.02
718.75
781.75
846.68
906.25
950.71
977.72
987.73
984.18
972.45
958.18
945.73
937.41
933.67
902.76
825.33
693.44
514.71
309.84
103.50
-85.21
-246.67
-368.07
-458.95
-524.64
-568.57
-593.94
-605.87
-611.86
-619.88
-635.85
-659.82
-689.27
-713.91
-725.23
-719.71
-699.33
-669.36
-635.14
-599.87
-564.63
-531.60
-499.79
-469.26
-440.65
-414.12
-389.12
-364.95
-341.82
-321.16
-305.74
-294.67
-284.68
-270.91
-249.16
-218.20
-180.80
-142.68
-109.97
-87.16
-74.33
-68.39
-64.89
-59.96
-51.32
-38.11
-20.27
2.03
27.96
56.05
83.86
108.44
127.24
138.94
143.79
142.98
137.84
129.21
117.67
104.17
90.60
79.41
72.61
70.59
71.65
72.75
71.13
65.70
57.52
49.07
42.67
39.27
38.04
37.07
34.41
29.13
21.58
13.08
5.29
-0.51
-3.88
-5.35
-6.31
-8.47
-13.30
-21.50
-32.65
-45.42
-57.97
-68.40
-75.11
-77.06
-73.94
-66.42
-56.29
-46.20
-38.95
-36.41
-38.52
-42.98
-46.01
-43.79
-34.09
-17.10
4.70
27.58
47.88
63.04
71.90
74.63
72.31
66.58
59.34
52.48
47.59
45.64
46.83
50.71
56.38
62.87
69.31
74.98
79.36
82.06
82.82
81.48
77.88
71.88
63.41
52.65
40.10
26.72
13.65
2.07
-7.05
-13.05
-15.65
-14.99
-11.85
-7.62
-4.06
-2.77
-4.41
-8.41
-13.18
-16.99
-18.91
-19.28
-19.32
-20.26
-22.51
-25.40
-27.67
-28.30
-27.09
-24.71
-22.16
-20.26
-19.42
-19.79
-21.45
-24.56
-29.04
-34.41
-39.69
-43.72
-45.70
-45.50
-43.70
-41.15
-38.62
-36.46
-34.58
-32.71
-30.65
-28.35
-25.97
-23.65
-21.48
-19.50
-17.77
-16.47
-15.82
-16.15
-17.65
-20.28
-23.62
-26.73
-28.51
-28.09
-25.36
-21.26
-17.55
-16.08
-17.88
-22.65
-28.68
-33.66
-35.60
-33.61
-28.06
-20.10
-11.05
-1.83
7.09
15.44
22.94
29.10
33.44
35.69
36.02
35.00
33.36
31.54
29.56
27.11
23.97
20.41
17.20
15.28
15.23
16.90
19.38
21.63
23.05
23.80
24.67
26.57
29.97
34.85
40.76
47.04
52.78
56.50
56.00
48.94
33.96
11.99
-13.38
-36.85
-53.49
-60.81
-59.63
-53.34
-45.93
-40.05
-36.20
-33.26
-29.86
-25.48
-20.73
-16.81
-14.60
-14.16
-14.75
-15.33
-15.09
-13.74
-11.53
-8.90
-6.38
-4.18
-2.11
0.26
3.49
7.76
12.76
17.71
21.76
24.34
25.33
25.01
23.70
21.54
18.52
14.54
9.59
3.81
-2.52
-9.10
-15.64
-21.93
-27.60
-32.07
-34.56
-34.28
-30.79
-24.28
-15.66
-6.17
2.98
11.19
18.53
25.53
32.63
39.81
46.45
51.70
54.99
56.45
56.83
57.14
58.04
59.44
60.45
59.73
56.16
49.41
40.10
29.65
19.60
11.06
4.34
-0.95
-5.49
-9.76
-13.75
-17.02
-19.05
-19.57
-18.79
-17.37
-16.17
-15.96
-17.18
-19.95
-24.15
-29.55
-36.00
-43.23
-50.81
-58.03
-63.95
-67.78
-69.28
-69.06
-68.47
-69.07
-71.89
-76.93
-83.02
-88.15
-90.17
-87.53
-79.76
-67.68
-53.39
-39.75
-29.77
-25.47
-27.02
-32.24
-37.06
-36.84
-28.11
-10.11
14.87
42.25
66.97
85.15
95.24
97.86
94.98
88.74
80.68
71.72
62.37
53.29
45.23
38.90
34.38
30.88
26.95
21.00
12.19
0.93
-11.07
-21.45
-28.18
-30.46
-29.13
-26.33
-24.62
-25.93
-30.91
-38.82
-48.05
-56.99
-64.67
-70.88
-75.93
-80.11
-83.27
-84.77
-83.52
-78.26
-67.90
-51.77
-29.93
-3.39
25.71
54.26
78.74
95.99
104.28
103.52
95.25
82.17
67.30
53.02
40.35
28.73
16.57
2.75
-12.73
-28.29
-41.19
-48.94
-51.01
-49.63
-49.02
-53.36
-63.78
-78.22
-92.04
-99.78
-97.14
-81.84
-53.46
-12.66
39.12
100.11
165.79
228.56
279.21
309.84
317.03
303.37
276.67
240.53
200.57
161.24
125.07
92.94
65.00
41.43
22.41
7.68
-3.88
-12.87
-20.24
-26.63
-32.20
-36.58
-39.34
-40.38
-40.18
-39.64
-39.00
-38.47
-38.04
-37.43
-36.18
-33.94
-30.68
-26.77
-22.85
-19.06
-15.43
-11.89
-8.19
-4.09
0.47
5.30
10.05
14.38
18.43
22.57
27.14
32.39
38.30
44.33
49.62
53.32
54.89
54.34
52.06
48.63
43.83
37.07
27.37
13.76
-4.18
-25.85
-49.61
-72.41
-92.31
-107.95
-119.14
-126.65
-131.69
-135.54
-139.33
-143.98
-149.93
-156.47
-161.01
-159.39
-147.53
-123.50
-89.26
-50.49
-14.65
12.11
27.12
31.91
30.53
27.05
23.74
20.56
16.81
12.13
7.17
3.19
1.20
1.10
1.68
1.38
-1.14
-6.08
-12.61
-19.34
-25.01
-28.96
-31.49
-33.55
-36.33
-40.65
-46.57
-53.39
-60.06
-65.52
-69.06
-70.48
-69.97
-67.87
-64.39
-59.71
-53.41
-45.16
-34.90
-22.90
-9.85
3.33
15.73
26.58
35.47
42.26
47.08
50.12
51.65
51.90
51.08
49.39
47.01
44.09
40.82
37.30
33.63
29.85
26.01
22.09
18.12
14.09
10.00
5.84
1.64
-2.59
-6.87
-11.19
-15.59
-20.06
-24.66
-29.42
-34.37
-39.42
-44.53
-49.65
-54.76
-59.89
-65.07
-70.32
-75.75
-81.42
-87.17
-92.90
-98.51
-103.98
-109.28
-114.43
-119.49
-124.54
-129.65
-134.53
-138.93
-142.63
-145.29
-146.59
-146.18
-143.65
-138.41
-131.90
-124.63
-116.88
-108.78
-100.35
-91.71
-83.03
-74.66
-66.93
-60.15
-54.11
-48.57
-43.24
-37.72
-31.81
-25.63
-19.49
-13.74
-8.59
-3.67
1.57
7.74
15.82
26.23
38.76
52.65
66.94
80.93
94.60
108.52
123.42
141.02
162.24
186.99
214.29
242.70
271.01
298.79
326.32
354.42
385.98
423.44
467.97
518.65
572.11
622.84
664.59
692.15
702.92
700.17
689.68
677.50
667.72
660.99
654.81
645.26
629.00
589.33
517.68
412.74
281.21
135.97
-8.38
-139.83
-251.25
-340.33
-408.27
-455.74
-484.52
-497.06
-496.05
-484.56
-465.67
-442.16
-416.40
-390.39
-364.16
-337.88
-313.55
-293.96
-281.32
-275.59
-273.50
-269.40
-257.71
-234.48
-200.87
-163.22
-129.74
-106.76
-96.13
-95.21
-99.05
-103.06
-104.18
-101.77
-96.74
-90.15
-82.76
-75.18
-68.19
-62.72
-59.48
-58.38
-58.25
-57.07
-52.44
-43.17
-29.80
-15.38
-4.73
-2.58
-11.24
-29.11
-50.89
-69.37
-78.32
-74.80
-59.97
-38.02
-14.09
7.68
25.07
37.40
44.78
47.26
44.78
37.56
26.59
13.70
1.31
-8.30
-13.74
-14.79
-12.41
-8.40
-4.77
-3.25
-4.80
-9.54
-16.86
-25.74
-35.21
-44.62
-53.61
-61.84
-68.85
-73.93
-76.27
-75.36
-71.25
-64.63
-56.58
-48.26
-40.44
-33.45
-27.14
-21.10
-14.97
-8.62
-2.21
3.87
9.23
13.64
17.16
20.05
22.59
25.00
27.28
29.34
31.05
32.37
33.39
34.27
35.16
36.08
36.91
37.40
37.33
36.56
35.17
33.41
31.62
30.10
29.05
28.43
28.04
27.68
27.14
26.34
25.26
23.97
22.54
21.00
19.32
17.48
15.47
13.34
11.18
9.11
7.23
5.58
4.13
2.76
1.34
-0.15
-1.63
-2.97
-4.05
-4.85
-5.45
-5.95
-6.41
-6.72
-6.67
-6.08
-4.85
-3.13
-1.25
0.46
1.81
2.80
3.56
4.24
4.85
5.31
5.52
5.42
5.11
4.75
4.49
4.38
4.37
4.39
4.38
4.33
4.28
4.20
4.03
3.70
3.14
2.37
1.45
0.48
-0.49
-1.42
-2.31
-3.16
-3.99
-4.79
-5.58
-6.36
-7.16
-7.95
-8.68
-9.26
-9.61
-9.78
-9.84
-9.94
-10.16
-10.47
-10.71
-10.64
-10.04
-8.80
-6.98
-4.75
-2.37
-0.04
2.05
3.76
5.03
5.84
6.24
6.37
6.41
6.50
6.68
6.89
6.97
6.79
6.33
5.73
5.18
4.89
4.90
5.06
5.19
5.02
4.46
3.52
2.37
1.17
0.06
-0.90
-1.74
-2.54
-3.38
-4.30
-5.33
-6.49
-7.79
-9.23
-10.76
-12.26
-13.59
-14.59
-15.10
-15.03
-14.34
-13.08
-11.30
-9.10
-6.66
-4.15
-1.75
0.40
2.24
3.79
5.12
6.24
7.16
7.81
8.16
8.21
8.09
7.92
7.85
7.90
8.02
8.08
7.99
7.75
7.42
7.16
7.05
7.09
7.14
7.03
6.61
5.81
4.74
3.51
2.28
1.20
0.33
-0.29
-0.67
-0.88
-1.11
-1.53
-2.33
-3.54
-5.01
-6.50
-7.72
-8.50
-8.83
-8.76
-8.41
-7.83
-7.01
-5.94
-4.63
-3.13
-1.51
0.19
1.98
3.84
5.71
7.44
8.89
9.94
10.62
11.04
11.38
11.78
12.25
12.71
13.03
13.14
13.01
12.72
12.42
12.26
12.41
12.96
13.98
15.42
17.21
19.18
21.20
23.13
24.98
26.82
28.79
31.01
33.57
36.39
39.37
42.36
45.26
48.02
50.63
53.03
55.14
56.79
57.89
58.43
58.50
58.23
57.65
56.73
55.26
52.99
49.65
45.03
39.02
31.64
23.02
13.46
3.42
-6.55
-15.81
-23.80
-30.05
-34.22
-36.14
-35.81
-33.36
-29.06
-23.36
-16.90
-10.59
-5.43
-2.44
-2.27
-5.04
-10.18
-16.59
-23.01
-28.37
-32.03
-33.79
-33.84
-32.46
-29.95
-26.62
-22.87
-19.18
-16.10
-14.06
-13.31
-13.70
-14.82
-15.98
-16.33
-15.07
-11.59
-5.59
2.82
13.12
24.52
36.12
47.04
56.56
64.13
69.46
72.48
73.39
72.55
70.40
67.31
63.42
58.62
52.57
44.84
34.99
22.84
8.56
-7.26
-23.62
-39.25
-52.89
-63.53
-70.66
-74.30
-74.94
-73.34
-70.34
-66.71
-63.00
-59.55
-56.44
-53.53
-50.61
-47.54
-44.36
-41.23
-38.39
-35.97
-34.01
-32.40
-30.99
-29.63
-28.19
-26.55
-24.57
-22.16
-19.37
-16.50
-13.98
-12.26
-11.59
-11.89
-12.81
-13.96
-15.08
-16.18
-17.44
-19.03
-20.94
-22.85
-24.33
-25.04
-25.02
-24.63
-24.47
-25.04
-26.49
-28.52
-30.47
-31.62
-31.52
-30.14
-27.88
-25.32
-23.01
-21.25
-20.10
-19.37
-18.86
-18.42
-17.98
-17.56
-17.14
-16.68
-16.12
-15.50
-14.87
-14.32
-13.88
-13.47
-12.97
-12.18
-10.94
-9.20
-7.02
-4.52
-1.87
0.74
3.17
5.23
6.80
7.82
8.36
8.53
8.55
8.57
8.70
8.96
9.22
9.36
9.26
8.90
8.31
7.62
6.89
6.20
5.58
5.03
4.51
3.97
3.35
2.63
1.87
1.21
0.76
0.62
0.71
0.86
0.89
0.73
0.54
0.53
0.84
1.39
1.93
2.13
1.84
1.28
0.90
1.22
2.55
4.83
7.74
10.88
14.01
17.09
20.15
23.11
25.61
27.12
27.10
25.29
21.80
16.95
11.16
4.66
-2.42
-9.90
-17.40
-24.40
-30.49
-35.68
-40.53
-45.95
-52.78
-61.24
-70.77
-80.09
-87.67
-92.21
-93.11
-90.56
-85.38
-78.72
-71.76
-65.49
-60.61
-57.51
-56.30
-56.76
-58.30
-59.94
-60.48
-58.85
-54.46
-47.36
-38.23
-27.99
-17.33
-6.48
4.76
16.73
29.37
42.06
53.59
62.55
67.85
69.13
66.80
61.82
55.27
48.00
40.45
32.76
24.92
16.97
9.00
1.21
-6.26
-13.23
-19.57
-25.11
-29.62
-32.92
-34.92
-35.72
-35.54
-34.75
-33.69
-32.63
-31.70
-30.91
-30.25
-29.51
-28.33
-26.30
-23.08
-18.70
-13.57
-8.29
-3.38
1.04
5.29
9.82
14.91
20.37
25.67
30.22
33.79
36.57
39.06
41.70
44.63
47.63
50.35
52.51
54.07
55.18
56.19
57.47
59.30
61.81
64.84
68.07
71.09
73.56
75.39
76.75
77.97
79.44
81.54
84.51
88.38
92.78
96.84
99.30
98.79
94.47
86.44
75.85
64.59
54.50
46.74
41.44
37.91
35.17
32.46
29.55
26.64
24.19
22.57
22.01
22.52
23.97
26.07
28.45
30.71
32.51
33.57
33.76
33.02
31.29
28.53
24.75
20.11
14.97
9.88
5.36
1.75
-1.00
-3.24
-5.60
-8.57
-12.35
-16.77
-21.33
-25.54
-29.13
-32.22
-35.13
-38.26
-41.81
-45.69
-49.57
-53.00
-55.59
-57.12
-57.54
-56.95
-55.48
-53.19
-50.04
-45.88
-40.49
-33.69
-25.45
-15.96
-5.72
4.55
14.00
21.70
26.94
29.34
29.04
26.71
23.29
19.67
16.35
13.28
9.97
5.77
0.28
-6.43
-13.81
-21.08
-27.56
-33.00
-37.62
-41.81
-45.78
-49.19
-51.08
-50.18
-45.50
-36.83
-24.95
-11.44
1.94
13.81
23.55
31.22
37.28
42.16
46.14
49.28
51.65
53.44
54.92
56.34
57.65
58.50
58.26
56.37
52.53
46.96
40.34
33.54
27.34
22.07
17.49
12.96
7.70
1.18
-6.66
-15.43
-24.57
-33.61
-42.51
-51.77
-62.22
-74.63
-89.31
-105.81
-122.88
-138.81
-151.86
-160.66
-164.51
-163.42
-157.89
-148.76
-136.95
-123.40
-109.08
-94.87
-81.39
-69.01
-57.78
-47.46
-37.75
-28.34
-19.20
-10.76
-3.74
1.00
2.82
1.60
-2.08
-7.15
-12.48
-17.40
-22.10
-27.12
-32.85
-38.92
-44.26
-47.51
-47.85
-45.50
-41.69
-38.27
-36.57
-37.06
-39.22
-41.89
-43.68
-43.11
-38.75
-28.36
-10.87
13.25
41.52
69.85
93.66
109.34
115.56
113.77
109.48
108.38
115.16
132.07
157.99
188.53
217.52
239.21
250.29
248.24
234.08
211.01
182.57
151.43
119.21
86.98
55.95
27.48
2.71
-17.71
-34.01
-47.19
-58.56
-69.09
-78.93
-87.32
-93.07
-95.24
-93.61
-88.98
-82.90
-76.98
-72.24
-68.78
-66.01
-63.17
-59.89
-56.31
-53.09
-51.04
-50.66
-51.92
-54.29
-57.05
-59.71
-62.18
-64.75
-67.78
-71.23
-74.35
-75.78
-73.90
-67.48
-56.18
-40.70
-22.52
-3.50
14.60
30.42
43.09
52.22
57.88
60.48
60.70
59.34
57.21
54.89
52.64
50.47
48.10
45.26
41.70
37.31
32.17
26.50
20.60
14.81
9.53
5.12
1.80
-0.35
-1.44
-1.67
-1.24
-0.29
1.10
2.87
4.85
6.81
8.43
9.43
9.65
9.11
8.02
6.77
5.78
5.42
5.87
7.05
8.63
10.15
11.24
11.76
11.85
11.84
12.05
12.58
13.32
13.94
14.12
13.66
12.52
10.73
8.32
5.31
1.74
-2.21
-6.23
-9.93
-13.09
-15.71
-17.97
-20.03
-21.83
-23.07
-23.32
-22.31
-20.05
-16.82
-13.05
-9.06
-4.99
-0.87
3.24
7.17
10.58
13.20
14.85
15.57
15.59
15.20
14.64
14.02
13.36
12.61
11.77
10.88
10.07
9.47
9.10
8.95
8.88
8.72
8.33
7.66
6.71
5.53
4.22
2.79
1.26
-0.38
-2.09
-3.77
-5.21
-6.31
-7.08
-7.78
-8.80
-10.40
-12.53
-14.76
-16.46
-17.13
-16.72
-15.62
-14.48
-13.78
-13.51
-13.21
-12.20
-10.04
-6.78
-3.04
0.27
2.32
2.81
2.09
1.07
0.81
2.10
4.97
8.58
11.46
12.05
9.49
4.17
-2.22
-7.35
-9.26
-7.33
-2.76
1.87
3.55
0.07
-8.90
-21.79
-35.83
-47.98
-56.06
-59.40
-59.12
-58.05
-60.46
-71.10
-93.47
-127.71
-168.81
-206.65
-228.39
-223.17
-186.90
-124.57
-48.81
25.06
84.99
125.98
150.32
164.57
175.60
187.71
202.20
218.53
235.78
253.23
269.97
284.12
292.94
293.61
284.35
265.33
238.63
207.64
176.14
147.51
123.97
106.16
93.14
82.90
73.27
62.73
50.87
38.36
26.32
15.75
7.04
-0.12
-6.38
-12.35
-18.37
-24.25
-29.54
-33.73
-36.59
-38.33
-39.56
-41.11
-43.71
-47.74
-53.08
-59.16
-65.21
-70.43
-74.31
-76.60
-77.42
-77.12
-76.25
-75.40
-75.10
-75.66
-77.10
-79.19
-81.55
-83.90
-86.26
-88.98
-92.57
-97.49
-103.83
-111.26
-119.01
-126.16
-131.86
-135.53
-136.97
-136.27
-133.76
-129.92
-125.24
-120.18
-115.02
-109.83
-104.40
-98.45
-91.66
-83.85
-74.98
-65.14
-54.48
-43.24
-31.79
-20.60
-10.24
-1.22
6.15
11.94
16.51
20.46
24.34
28.52
33.17
38.24
43.59
49.06
54.55
59.98
65.35
70.66
75.96
81.26
86.53
91.65
96.43
100.61
103.93
106.23
107.54
108.07
108.21
108.34
108.69
109.30
109.94
110.34
110.28
109.71
108.74
107.65
106.71
106.17
106.21
106.88
108.03
109.32
110.19
110.02
108.42
105.28
100.74
95.02
88.01
79.19
67.63
52.38
33.00
9.91
-15.52
-41.31
-65.37
-86.12
-102.72
-115.10
-123.64
-128.84
-131.14
-130.89
-128.50
-124.45
-119.42
-114.03
-108.66
-103.43
-98.20
-92.72
-86.93
-80.93
-74.99
-69.44
-64.43
-59.83
-55.26
-50.20
-44.24
-37.22
-29.40
-21.32
-13.62
-6.83
-1.12
3.65
7.84
11.81
15.79
19.81
23.82
27.72
31.44
34.93
38.07
40.63
42.41
43.32
43.49
43.28
43.03
42.90
42.77
42.27
40.93
38.51
35.00
30.66
25.85
20.86
15.83
10.84
5.97
1.29
-3.06
-6.98
-10.36
-13.22
-15.61
-17.68
-19.56
-21.32
-22.93
-24.21
-25.00
-25.20
-24.87
-24.12
-23.09
-21.79
-20.14
-18.08
-15.65
-13.15
-10.91
-9.22
-8.11
-7.40
-6.82
-6.16
-5.42
-4.81
-4.57
-4.88
-5.78
-7.27
-9.32
-11.90
-14.97
-18.39
-22.03
-25.70
-29.33
-32.93
-36.66
-40.73
-45.26
-50.23
-55.40
-60.54
-65.30
-69.27
-72.05
-73.24
-72.42
-69.15
-63.05
-53.87
-42.21
-29.18
-16.38
-5.62
1.38
3.57
0.73
-6.43
-16.59
-28.91
-42.78
-57.90
-74.27
-91.81
-110.06
-128.11
-144.79
-159.08
-171.42
-182.61
-193.52
-204.82
-216.74
-229.43
-243.42
-259.75
-273.30
-279.43
-273.08
-249.99
-208.63
-151.21
-83.23
-11.69
56.97
118.23
168.75
206.89
232.15
245.03
247.49
242.90
235.25
228.35
224.74
224.42
225.65
226.07
222.15
210.71
189.86
159.95
124.22
88.62
59.88
43.73
42.29
52.07
65.58
74.69
74.19
63.51
46.04
26.45
8.39
-6.85
-19.82
-31.24
-40.89
-47.67
-50.34
-48.80
-43.57
-35.67
-26.32
-16.14
-4.72
9.10
26.39
47.14
69.42
89.51
102.74
105.28
95.86
76.59
52.26
28.48
9.59
-2.74
-9.37
-12.61
-14.59
-16.14
-16.77
-15.41
-11.40
-4.99
2.80
10.72
17.80
23.75
29.13
34.73
40.99
47.77
54.48
60.41
64.99
68.03
69.71
70.55
70.83
70.43
69.08
66.89
64.41
62.09
59.91
57.06
52.57
45.37
35.07
22.38
9.22
-2.18
-10.75
-17.07
-23.22
-31.14
-42.22
-56.57
-72.92
-88.76
-99.39
-100.77
-90.56
-72.62
-50.97
-29.81
-11.84
-0.22
2.93
-2.44
-13.67
-25.33
-30.55
-22.72
1.15
38.49
81.96
122.59
152.78
168.30
168.49
154.61
128.45
90.72
41.29
-18.43
-83.50
-145.37
-193.89
-220.42
-220.86
-197.28
-157.74
-114.83
-81.60
-67.80
-77.58
-109.12
-156.08
-210.33
-264.48
-307.83
-331.84
-330.85
-303.18
-251.82
-183.28
-105.84
-27.75
43.82
103.71
148.51
177.24
191.16
193.33
186.59
173.11
154.64
132.15
106.72
79.29
51.34
26.79
9.35
1.83
5.41
19.69
42.02
68.80
95.96
119.89
138.24
149.66
153.88
150.82
140.96
123.79
98.81
65.50
23.54
-27.22
-86.76
-153.03
-225.60
-300.96
-373.21
-433.92
-474.87
-491.14
-476.17
-431.79
-364.87
-283.88
-191.37
-92.93
5.01
95.74
173.17
233.39
274.20
296.57
303.70
300.11
289.06
273.20
254.50
234.39
214.47
195.60
178.71
164.29
152.37
141.76
131.32
120.41
109.18
98.61
89.60
82.90
78.64
76.17
73.94
70.69
65.88
59.96
54.09
49.41
46.91
47.20
50.41
55.70
61.08
63.31
58.73
44.70
21.30
-7.99
-37.18
-59.98
-72.46
-74.30
-68.42
-59.05
-49.70
-41.90
-35.26
-29.03
-22.91
-17.62
-14.46
-14.59
-18.32
-24.85
-32.49
-39.22
-43.55
-44.87
-43.66
-41.04
-38.15
-35.59
-33.16
-30.17
-25.91
-20.07
-12.92
-5.34
1.65
7.22
11.01
13.28
14.65
16.19
18.91
23.50
29.92
37.36
44.65
50.65
54.98
57.81
60.28
63.93
69.97
78.77
89.72
101.58
112.83
122.23
128.52
131.23
130.87
129.21
129.13
133.86
145.54
163.59
186.50
208.12
220.44
216.74
194.26
155.12
105.01
50.87
-1.67
-49.31
-91.10
-126.75
-155.85
-178.10
-194.06
-205.66
-215.61
-226.02
-236.99
-246.26
-249.40
-241.78
-220.27
-184.84
-138.58
-86.80
-35.80
8.47
41.23
60.01
65.28
60.44
50.83
41.77
36.66
35.90
37.34
37.96
35.94
31.54
26.53
22.75
20.70
19.50
17.71
14.57
10.44
6.44
3.38
1.13
-1.44
-5.69
-12.36
-21.40
-31.80
-42.11
-50.79
-56.43
-57.95
-54.93
-47.85
-38.14
-27.97
-19.59
-14.48
-12.94
-13.98
-15.80
-16.56
-15.14
-11.34
-5.81
0.46
6.53
11.88
16.25
19.72
22.57
25.54
29.87
37.12
48.39
63.31
79.44
92.41
97.32
90.64
71.68
42.99
9.20
-24.98
-56.51
-84.65
-110.33
-134.56
-157.15
-176.33
-189.58
-195.14
-193.16
-185.88
-176.70
-168.68
-163.33
-160.25
-157.82
-154.34
-148.95
-141.92
-134.17
-126.56
-119.31
-112.04
-104.12
-95.32
-85.95
-76.83
-68.80
-62.30
-57.18
-52.81
-48.45
-43.54
-37.97
-32.01
-26.11
-20.70
-16.06
-12.32
-9.54
-7.76
-6.98
-7.12
-7.94
-9.01
-9.93
-10.38
-10.29
-9.79
-9.09
-8.38
-7.63
-6.73
-5.40
-3.50
-1.00
1.87
4.66
6.87
8.08
8.04
6.86
4.93
2.80
1.09
0.24
0.46
1.71
3.85
6.66
10.00
13.77
17.84
22.08
26.37
30.53
34.49
38.21
41.72
45.03
48.22
51.23
54.10
56.93
59.93
63.51
68.13
74.14
81.57
90.15
99.29
108.42
117.16
125.51
133.75
142.17
150.70
158.83
165.70
170.38
172.25
171.02
166.59
158.81
147.52
132.68
114.81
95.12
75.26
56.80
40.58
26.56
14.08
2.63
-7.69
-16.07
-21.38
-22.92
-20.77
-15.88
-9.80
-4.10
-0.08
1.49
0.53
-2.24
-5.60
-8.14
-9.15
-9.25
-10.69
-16.74
-30.44
-53.25
-84.09
-119.44
-154.25
-183.31
-202.58
-209.97
-205.64
-191.69
-171.64
-149.66
-129.68
-114.58
-105.68
-102.68
-104.16
-108.37
-113.98
-120.42
-127.78
-136.30
-145.79
-155.41
-163.90
-170.27
-174.58
-178.33
-184.11
-194.36
-210.11
-229.99
-250.28
-265.90
-271.92
-264.52
-241.86
-204.09
-153.45
-94.36
-33.07
23.36
68.94
100.56
119.30
129.39
136.41
144.81
156.51
170.96
186.33
201.02
214.05
225.53
235.20
242.41
246.27
246.48
243.87
240.54
239.33
242.09
250.62
263.99
279.46
293.47
302.84
305.71
302.08
293.47
280.66
266.46
250.97
233.03
211.01
183.86
151.52
116.03
81.27
49.34
25.03
8.22
-3.85
-15.09
-28.88
-47.74
-71.49
-97.43
-124.69
-147.82
-166.30
-181.28
-194.45
-207.17
-221.60
-238.19
-238.60
-241.47
-242.55
-242.03
-240.09
-235.54
-225.95
-211.51
-193.69
-175.21
-161.92
-153.74
-151.77
-154.55
-158.79
-147.19
-112.21
-59.29
-2.40
45.43
83.76
114.92
141.63
164.72
183.49
195.01
198.53
196.24
190.76
186.92
186.12
188.04
191.35
194.93
195.13
189.50
177.56
159.87
138.65
114.87
89.12
62.93
37.77
13.65
-9.08
-29.48
-46.39
-58.54
-65.84
-68.65
-67.98
-65.17
-61.82
-58.90
-56.70
-54.94
-53.23
-51.32
-48.89
-46.13
-43.68
-41.99
-41.22
-41.16
-41.17
-40.47
-39.95
-37.50
-32.32
-24.83
-15.40
-4.96
5.47
15.06
23.36
30.15
35.85
40.42
43.08
43.51
41.26
36.19
28.57
19.26
9.36
0.08
-5.18
-8.36
-11.64
-16.97
-25.40
-36.61
-48.97
-60.02
-67.46
-70.32
-69.62
-66.97
-64.55
-64.24
-67.14
-73.62
-82.75
-92.31
-98.81
-98.30
-86.81
-63.01
-29.73
6.64
38.30
59.24
67.60
66.25
60.96
57.63
58.59
61.15
59.38
47.41
22.84
-10.57
-44.45
-69.14
-77.25
-66.99
-42.97
-13.71
11.59
26.13
26.57
12.97
-11.48
-41.15
-68.25
-86.13
-90.21
-80.95
-60.57
-34.34
-8.85
10.57
21.07
23.24
20.02
15.36
12.46
13.22
16.79
20.20
20.02
14.40
4.97
-2.25
0.28
17.30
47.53
81.53
104.94
105.02
77.10
28.26
-24.37
-60.95
-67.71
-43.08
1.53
47.07
75.45
76.53
50.52
5.94
-44.95
-90.83
-123.88
-139.70
-136.30
-111.68
-67.16
-9.34
50.05
97.47
122.25
121.22
100.31
72.12
50.39
44.35
54.80
74.46
92.34
100.01
96.14
86.67
80.42
83.18
95.44
111.76
125.20
131.80
132.78
133.32
138.00
146.18
145.99
126.32
81.68
17.10
-54.41
-119.16
-169.00
-203.17
-226.12
-244.85
-259.94
-267.08
-259.82
-232.76
-183.87
-115.63
-34.33
49.89
122.29
170.66
189.60
183.15
162.34
139.57
123.27
115.23
111.71
108.08
102.69
96.97
93.95
95.62
101.07
106.60
108.92
102.08
82.83
52.12
14.62
-22.43
-51.41
-67.21
-67.82
-55.89
-39.00
-21.90
-6.32
8.15
22.11
34.92
44.52
49.11
49.92
51.47
60.99
83.61
119.35
162.84
206.03
242.79
270.09
287.19
294.29
292.45
282.34
264.53
239.97
209.97
175.63
136.90
94.85
49.60
1.29
-50.06
-103.95
-158.99
-213.10
-263.90
-309.52
-349.03
-382.91
-412.53
-440.08
-467.96
-497.94
-530.43
-563.57
-593.32
-614.02
-620.34
-608.60
-578.18
-531.69
-473.93
-410.45
-345.86
-283.06
-223.37
-167.27
-114.54
-65.02
-18.55
24.94
64.87
100.87
132.45
158.88
179.04
192.36
198.42
197.10
188.54
172.14
148.54
119.02
85.57
49.99
14.85
-18.17
-48.25
-75.49
-102.36
-129.85
-157.83
-184.11
-206.03
-219.17
-220.18
-206.63
-177.46
-135.02
-80.31
-13.79
61.59
136.27
198.86
239.25
254.50
262.63
269.10
275.40
282.68
296.94
313.72
334.08
358.28
386.82
419.55
454.04
489.80
505.85
489.57
438.07
361.62
274.70
191.09
118.38
57.12
5.49
-39.18
-76.48
-106.61
-122.22
-128.45
-130.44
-132.43
-137.70
-148.12
-164.30
-183.88
-204.68
-224.15
-241.51
-253.89
-263.13
-267.28
-264.02
-251.39
-228.31
-196.72
-160.59
-126.11
-97.84
-78.43
-67.85
-64.73
-64.39
-60.65
-48.50
-25.86
4.70
38.04
67.87
90.70
106.75
123.48
149.72
190.22
242.17
295.62
338.68
361.87
362.54
344.06
317.26
292.45
275.91
269.20
271.37
282.46
303.78
338.19
361.03
353.62
308.38
233.77
146.81
61.69
-14.20
-79.19
-133.17
-176.68
-207.06
-223.51
-228.19
-225.63
-221.52
-215.41
-211.77
-212.50
-216.83
-221.13
-223.78
-226.01
-230.38
-239.60
-254.62
-275.09
-298.41
-318.53
-329.03
-326.87
-316.17
-300.54
-282.68
-263.26
-242.09
-217.86
-184.26
-136.66
-75.42
-5.64
67.13
139.05
208.97
276.66
342.01
410.90
486.22
565.13
640.16
705.07
757.72
800.36
837.11
827.02
749.95
616.20
460.53
315.07
192.75
90.24
-1.22
-87.64
-169.03
-233.90
-272.19
-282.22
-271.93
-253.04
-234.54
-219.93
-208.23
-196.92
-179.74
-155.28
-128.13
-106.69
-98.01
-103.95
-122.11
-147.51
-174.01
-192.34
-194.67
-177.72
-145.08
-106.72
-74.44
-57.57
-60.40
-78.00
-99.70
-114.71
-117.02
-107.39
-92.15
-77.42
-66.31
-58.62
-52.60
-47.13
-43.46
-44.95
-48.89
-56.23
-65.58
-73.48
-75.88
-70.68
-58.94
-44.33
-31.58
-24.39
-24.79
-31.03
-39.09
-44.57
-45.16
-41.18
-35.01
-29.74
-27.65
-30.01
-36.09
-44.17
-52.05
-57.54
-58.01
-51.13
-36.26
-16.24
2.51
13.07
10.10
-4.49
-24.90
-43.43
-53.98
-54.81
-48.72
-40.63
-34.18
-29.69
-24.78
-16.93
-5.06
9.42
22.99
31.24
30.89
21.70
7.48
-4.89
-8.67
0.48
22.58
53.32
85.38
111.25
125.63
126.37
114.30
91.56
61.69
29.65
3.58
-9.13
-5.15
13.95
42.81
75.21
105.61
131.22
151.09
166.20
175.25
174.81
162.32
137.92
105.04
68.41
33.19
3.23
-19.98
-37.45
-52.95
-70.59
-93.88
-120.83
-150.76
-183.37
-217.95
-252.33
-273.12
-269.03
-235.97
-180.78
-117.66
-61.19
-19.94
5.08
18.24
25.48
29.66
31.04
28.73
22.91
15.27
8.73
5.79
7.34
12.45
17.80
19.95
17.14
10.06
1.02
-7.25
-12.79
-15.01
-14.66
-14.08
-15.56
-20.39
-28.33
-37.94
-47.54
-55.81
-62.12
-66.39
-69.28
-71.41
-72.85
-73.62
-72.38
-68.14
-60.49
-49.79
-36.88
-23.17
-10.07
1.22
10.04
16.20
19.69
20.60
19.10
15.58
10.37
3.82
-3.71
-11.94
-20.54
-29.39
-38.46
-47.77
-57.10
-66.31
-75.33
-84.07
-92.54
-100.68
-108.56
-116.28
-123.99
-131.40
-138.30
-144.50
-149.77
-153.81
-156.17
-156.24
-153.07
-148.46
-142.98
-136.95
-130.56
-123.92
-117.15
-110.31
-103.50
-96.85
-90.56
-84.41
-78.14
-71.58
-64.70
-57.63
-50.54
-43.71
-37.35
-31.71
-26.57
-21.65
-16.66
-11.47
-6.06
-0.55
4.87
10.01
14.74
19.24
24.08
29.78
36.58
44.43
52.96
61.68
70.14
78.05
85.52
93.86
104.25
117.34
132.99
150.41
168.56
186.56
203.93
220.68
239.37
262.14
289.97
322.30
357.31
392.75
426.73
458.05
486.24
514.86
546.99
584.36
626.97
673.32
720.93
766.85
807.62
839.37
862.88
878.44
885.55
882.61
867.61
839.38
798.66
748.32
663.70
533.57
359.32
156.46
-50.92
-240.10
-396.96
-517.16
-603.33
-661.58
-694.31
-704.27
-695.27
-672.13
-640.43
-605.50
-571.53
-541.24
-515.96
-492.45
-467.30
-438.54
-405.26
-368.14
-328.91
-289.87
-253.69
-222.61
-196.67
-175.69
-160.19
-150.02
-145.39
-146.93
-155.52
-172.12
-197.14
-228.98
-265.35
-304.65
-343.83
-378.86
-404.63
-415.01
-403.93
-367.37
-305.04
-216.19
-114.13
-14.77
69.26
131.96
173.65
198.34
210.65
214.06
210.90
202.22
191.17
181.20
174.50
171.12
169.35
166.91
162.25
155.32
146.50
138.62
134.82
137.21
145.76
157.59
167.23
168.26
157.52
131.77
94.13
51.81
12.90
-17.00
-36.53
-48.34
-56.61
-64.51
-73.78
-82.77
-89.29
-92.35
-92.90
-92.97
-94.36
-97.22
-100.34
-102.81
-103.34
-102.03
-100.33
-100.25
-103.18
-108.71
-113.78
-109.64
-93.44
-65.38
-29.18
9.03
40.63
60.67
66.97
61.57
49.84
37.27
28.56
25.13
25.26
25.11
20.15
7.22
-11.30
-31.87
-50.84
-64.08
-67.62
-58.34
-31.10
9.87
48.78
65.17
46.78
-1.84
-60.77
-104.77
-114.72
-86.01
-30.08
32.48
81.65
104.72
98.69
68.83
25.38
-18.82
-51.37
-64.30
-55.88
-31.01
0.20
25.58
34.50
22.97
-6.96
-48.76
-94.17
-135.11
-164.92
-179.30
-176.50
-153.27
-114.90
-68.20
-20.00
23.32
56.88
78.74
89.94
93.77
94.37
94.21
94.59
94.78
92.96
87.85
79.71
70.42
62.73
59.50
61.85
69.76
81.27
93.47
103.30
108.36
107.47
100.75
89.37
74.65
58.32
41.75
25.67
10.16
-5.12
-19.47
-33.38
-47.05
-60.58
-73.25
-84.31
-93.16
-99.63
-103.86
-106.20
-107.06
-106.74
-105.91
-105.48
-106.79
-110.68
-116.26
-120.38
-118.41
-106.37
-83.36
-52.73
-20.71
6.51
25.46
35.59
39.49
39.04
34.35
24.60
10.28
-5.23
-15.77
-14.24
2.05
30.83
65.07
97.30
120.94
132.24
130.30
115.77
89.60
53.22
10.19
-33.27
-69.16
-90.11
-92.12
-77.00
-52.00
-27.26
-11.32
-7.20
-12.61
-21.64
-28.52
-30.45
-28.52
-25.71
-25.04
-27.73
-31.47
-32.93
-28.88
-17.43
2.02
28.29
58.84
89.52
114.95
129.62
129.40
113.74
86.60
55.69
30.15
17.08
18.64
31.64
48.59
61.11
63.87
55.94
39.95
20.17
0.36
-17.63
-33.35
-46.65
-57.31
-64.31
-66.99
-65.90
-62.88
-60.46
-60.75
-64.42
-70.01
-74.84
-75.99
-71.66
-61.88
-48.45
-34.28
-22.49
-15.28
-13.52
-16.88
-24.14
-33.83
-44.78
-56.06
-66.85
-76.43
-83.62
-87.08
-85.62
-78.45
-65.61
-48.17
-27.86
-6.76
13.04
29.94
42.84
51.21
55.22
55.47
52.74
48.01
42.31
36.55
31.58
28.06
26.41
26.77
28.98
32.50
36.60
40.39
42.91
43.41
41.50
37.19
30.87
23.41
15.64
8.42
2.28
-2.71
-6.87
-10.51
-13.90
-17.03
-19.28
-19.91
-18.25
-14.11
-8.02
-1.22
4.95
9.20
10.63
9.40
6.33
2.41
-1.57
-5.39
-9.27
-13.16
-16.65
-18.79
-17.66
-11.41
0.94
18.98
40.88
61.98
78.74
89.18
93.34
93.89
94.81
100.34
114.52
140.18
177.68
224.31
273.42
310.35
321.08
296.96
239.29
160.33
78.73
11.63
-30.68
-46.76
-42.59
-26.58
-5.78
13.41
26.74
32.52
31.85
28.76
28.80
36.07
52.15
74.23
95.08
104.03
91.23
50.69
-17.01
-104.04
-197.63
-279.72
-332.29
-343.87
-313.07
-248.73
-165.42
-81.71
-6.29
57.29
107.94
144.20
164.01
165.40
147.54
111.69
61.05
-0.66
-68.99
-139.44
-208.03
-277.13
-346.30
-411.83
-467.64
-501.85
-508.16
-486.40
-441.15
-379.09
-306.31
-226.47
-142.88
-59.55
19.49
84.30
125.34
139.38
132.09
115.11
100.97
94.45
93.97
94.53
91.27
83.40
74.25
70.06
76.54
96.20
126.80
162.90
197.76
224.41
238.32
237.54
222.44
195.18
159.62
120.56
83.56
53.99
35.42
29.68
36.07
51.29
69.57
83.34
85.15
68.79
34.15
-11.56
-55.64
-85.98
-96.71
-90.15
-73.79
-55.92
-41.78
-32.35
-26.11
-21.12
-16.69
-13.28
-11.57
-11.81
-13.62
-16.06
-17.95
-18.42
-17.22
-14.91
-12.39
-10.48
-9.74
-10.40
-12.17
-14.35
-16.05
-16.42
-15.02
-11.94
-7.49
-2.17
3.61
9.95
17.04
24.61
31.72
36.14
36.08
31.63
25.56
22.01
24.57
33.60
44.95
51.88
48.53
33.03
8.82
-16.91
-39.06
-56.00
-70.27
-85.61
-103.06
-118.70
-125.42
-117.45
-94.16
-61.21
-26.72
3.19
27.85
51.08
77.08
106.19
131.67
145.58
142.07
121.30
89.42
55.33
26.46
6.16
-6.33
-13.96
-19.04
-23.09
-26.25
-28.32
-29.49
-30.47
-32.39
-36.12
-42.37
-50.73
-60.38
-70.40
-79.00
-84.13
-83.83
-76.72
-62.50
-42.29
-18.13
6.97
29.22
45.35
53.02
51.50
42.30
29.02
16.32
8.81
8.95
16.39
28.32
40.60
48.87
50.10
43.40
30.34
14.81
1.69
-4.58
-1.55
9.52
23.83
35.50
39.99
36.09
26.00
13.65
2.60
-5.24
-10.03
-12.91
-14.79
-15.91
-16.02
-15.03
-13.33
-11.72
-10.91
-11.65
-14.30
-18.84
-25.00
-32.10
-39.36
-45.84
-51.02
-54.17
-54.74
-51.96
-44.48
-31.06
-11.85
10.50
31.07
44.37
47.41
41.46
31.40
22.96
19.39
19.94
20.98
18.97
13.02
5.46
-0.02
-1.08
1.92
6.36
9.34
9.47
7.55
5.60
5.37
7.46
11.09
14.90
17.48
18.20
17.41
16.06
15.30
16.08
18.77
23.17
28.81
35.15
41.85
48.89
56.41
64.45
72.83
80.96
87.70
91.74
91.65
86.35
75.27
58.64
37.51
13.83
-10.05
-32.04
-50.66
-65.43
-76.79
-85.75
-93.36
-100.53
-106.76
-111.28
-113.53
-113.28
-111.16
-108.38
-106.28
-105.99
-108.27
-113.41
-121.35
-130.78
-138.66
-140.77
-132.94
-113.25
-83.62
-49.58
-18.41
3.69
14.20
14.80
9.68
3.09
-2.41
-6.53
-9.75
-11.88
-11.80
-7.62
2.14
17.33
36.10
55.53
72.37
84.38
90.94
92.45
89.99
84.54
76.46
65.49
51.31
33.99
14.56
-4.54
-20.46
-30.36
-32.44
-26.45
-13.88
2.74
20.71
37.78
53.06
66.26
77.71
87.96
97.67
107.87
119.40
131.80
140.84
142.28
131.03
104.26
63.84
16.89
-26.25
-56.25
-68.47
-64.12
-48.46
-28.61
-10.27
3.68
11.86
13.51
8.56
-1.55
-13.13
-20.50
-19.19
-8.07
9.25
25.65
33.75
29.92
14.78
-6.43
-25.63
-35.49
-31.98
-16.74
3.76
21.02
27.73
20.16
-0.81
-30.05
-60.13
-83.36
-93.35
-85.86
-59.65
-17.83
31.47
75.55
101.12
99.07
68.40
16.85
-41.96
-94.00
-130.03
-144.92
-141.45
-126.75
-107.72
-88.32
-69.59
-51.06
-32.36
-14.22
2.32
15.98
26.57
34.89
42.30
49.55
56.43
62.53
66.24
66.17
61.01
50.36
34.33
12.94
-13.83
-45.06
-77.71
-106.54
-123.72
-124.43
-109.20
-84.32
-59.81
-44.83
-43.90
-55.03
-71.86
-87.02
-95.65
-95.66
-86.31
-67.63
-40.07
-6.03
29.26
58.02
73.28
72.06
57.71
39.24
26.28
25.28
37.34
59.50
87.45
117.72
148.11
173.17
187.72
185.80
163.32
120.46
63.84
5.47
-40.86
-63.90
-58.04
-24.75
25.55
76.70
111.24
118.13
97.14
56.88
9.27
-35.01
-68.22
-91.24
-106.19
-114.22
-114.21
-104.04
-82.42
-49.81
-7.46
42.40
96.84
153.53
210.03
263.14
308.15
339.07
343.99
317.18
263.26
195.83
131.92
83.79
55.44
44.04
43.82
49.72
59.59
72.84
87.58
101.20
111.02
115.75
115.92
113.04
109.12
105.48
101.63
93.79
77.81
51.04
13.82
-30.70
-77.94
-123.44
-164.27
-199.76
-233.95
-271.32
-314.49
-362.74
-412.17
-457.55
-493.77
-517.27
-526.34
-524.38
-515.40
-502.54
-487.89
-473.18
-460.18
-449.90
-441.64
-414.70
-357.03
-268.75
-163.78
-62.71
17.20
68.02
91.46
92.94
83.11
67.49
49.32
31.50
17.94
13.47
22.63
50.00
96.68
157.86
222.11
277.59
316.41
336.61
341.24
335.71
325.24
312.99
300.24
285.26
266.40
243.47
218.09
193.21
171.87
156.10
146.04
140.32
135.81
129.66
120.55
108.84
96.34
85.30
77.41
73.17
72.29
73.81
76.58
79.02
78.49
71.56
55.18
28.52
-5.85
-42.29
-74.15
-96.46
-107.64
-109.51
-105.49
-98.67
-90.42
-80.82
-69.48
-56.90
-44.67
-34.40
-27.13
-22.77
-20.61
-19.48
-17.85
-14.82
-10.27
-5.50
-3.02
-5.54
-14.34
-27.94
-41.96
-50.79
-50.14
-38.70
-18.72
5.40
29.26
50.07
67.31
81.04
91.03
96.11
94.95
86.67
71.77
51.82
29.90
9.02
-8.77
-22.46
-32.32
-39.12
-43.79
-46.98
-48.75
-48.97
-47.51
-44.66
-40.95
-37.19
-34.00
-31.77
-30.47
-29.51
-28.64
-27.20
-25.22
-23.02
-21.15
-19.96
-19.53
-19.58
-19.54
-18.94
-17.62
-15.95
-14.53
-14.07
-14.86
-16.58
-18.51
-19.82
-19.93
-18.88
-17.59
-17.40
-19.60
-24.77
-32.17
-40.15
-46.61
-49.82
-49.27
-45.98
-41.13
-36.31
-32.68
-30.70
-30.14
-30.46
-31.08
-30.91
-29.05
-24.76
-18.67
-13.13
-11.70
-16.87
-28.32
-41.87
-51.16
-50.58
-38.23
-17.74
3.66
18.60
23.24
18.30
7.99
-2.64
-9.68
-10.77
-5.30
7.08
23.80
41.35
55.32
61.83
58.79
46.46
27.52
5.91
-14.59
-30.60
-39.81
-41.50
-35.34
-22.84
-7.60
6.04
14.06
14.51
8.11
-2.01
-11.52
-16.03
-12.29
1.14
23.24
49.91
74.42
89.79
91.78
80.97
62.54
43.86
31.18
27.16
29.86
34.50
36.80
35.08
30.59
25.75
22.22
20.14
18.77
17.13
14.94
12.56
10.22
7.73
3.57
-4.40
-17.60
-36.27
-59.10
-83.46
-105.70
-121.74
-127.51
-120.25
-99.52
-67.92
-30.80
5.44
35.42
56.31
68.15
73.15
74.09
73.33
72.94
74.84
80.66
90.94
103.40
112.65
112.32
97.62
67.63
26.34
-19.07
-60.41
-90.81
-106.10
-104.83
-88.18
-60.09
-26.95
1.69
16.90
13.73
-7.60
-42.22
-82.87
-122.63
-157.43
-185.55
-205.42
-215.16
-213.09
-198.42
-171.87
-135.55
-92.07
-44.54
2.24
44.61
80.58
109.34
130.72
144.82
151.73
151.98
146.52
136.69
124.50
111.99
100.73
91.49
84.38
78.68
73.77
69.14
64.49
60.20
56.87
54.88
54.30
56.92
60.62
63.87
65.31
63.80
59.06
51.31
41.21
29.91
18.69
8.38
-0.14
-6.66
-11.55
-14.88
-16.82
-17.28
-15.75
-11.51
-4.31
5.97
18.70
32.68
47.27
61.85
76.44
91.69
108.89
129.64
156.27
191.37
232.27
276.62
320.07
356.67
380.11
385.85
372.63
343.12
302.67
257.28
212.49
171.49
135.54
104.88
79.61
59.77
45.19
34.97
27.49
21.36
15.38
9.05
2.49
-3.64
-8.63
-12.18
-14.41
-15.88
-17.08
-18.52
-20.44
-22.67
-24.70
-25.93
-26.13
-25.53
-24.90
-25.08
-26.69
-29.85
-34.17
-38.91
-43.38
-47.17
-50.17
-52.40
-53.86
-54.55
-54.58
-54.38
-54.59
-55.97
-59.03
-63.77
-69.61
-75.60
-80.77
-84.48
-86.60
-87.33
-87.03
-85.95
-84.06
-81.21
-77.23
-72.21
-66.55
-61.04
-56.58
-53.99
-53.69
-55.48
-58.58
-61.86
-64.42
-65.70
-65.83
-65.45
-65.28
-65.95
-67.87
-71.22
-75.73
-80.22
-82.42
-79.40
-68.70
-49.77
-24.88
1.39
23.79
38.58
44.85
44.45
40.51
35.73
31.22
26.63
21.33
15.24
9.28
4.80
2.61
2.46
3.18
3.43
2.15
-0.69
-4.33
-7.76
-10.84
-13.99
-17.89
-23.19
-30.26
-39.06
-48.99
-59.00
-68.04
-75.98
-83.22
-90.34
-97.81
-105.89
-114.59
-123.55
-132.14
-139.82
-147.71
-156.92
-167.67
-179.03
-189.59
-198.14
-203.84
-206.29
-205.61
-206.05
-210.94
-220.65
-232.55
-243.32
-250.86
-254.52
-254.39
-250.96
-252.69
-265.92
-291.12
-322.56
-352.83
-376.53
-390.74
-394.32
-387.76
-385.58
-400.05
-434.60
-482.69
-534.46
-582.69
-623.31
-654.19
-674.33
-699.63
-742.64
-804.89
-876.91
-947.47
-1011.02
-1067.04
-1116.81
-1059.22
-840.55
-479.91
-60.41
332.75
654.62
895.84
1063.83
1170.78
1229.68
1238.39
1199.53
1126.55
1040.33
960.84
896.30
848.35
815.81
797.02
777.55
744.74
694.18
629.61
558.50
487.25
420.50
360.34
305.62
248.40
180.98
110.14
47.17
1.03
-26.40
-37.77
-37.37
-29.09
-19.59
-13.92
-13.23
-15.68
-18.20
-18.19
-14.23
-7.07
0.99
5.67
3.58
-5.67
-20.10
-35.30
-45.05
-42.92
-25.73
4.68
40.76
71.67
88.06
84.71
66.03
41.42
21.14
10.91
10.29
13.28
12.69
4.97
-5.01
-12.02
-10.52
7.58
44.25
94.38
145.90
184.72
199.67
186.54
148.95
97.85
47.35
8.25
-14.85
-25.17
-29.43
-33.95
-41.26
-50.87
-58.46
-57.95
-45.47
-14.83
32.01
87.71
141.91
183.79
201.99
189.86
147.54
81.63
3.14
-76.68
-148.71
-206.17
-245.58
-270.25
-285.38
-294.90
-300.00
-299.53
-291.33
-274.71
-248.68
-198.31
-122.88
-36.83
36.55
77.80
79.85
48.42
-4.94
-70.66
-136.32
-194.09
-238.43
-265.90
-274.74
-265.82
-225.73
-156.43
-67.60
27.76
114.58
182.34
225.68
249.00
257.09
253.44
237.16
207.91
167.87
119.11
67.84
20.99
-15.34
-38.11
-47.07
-46.76
-42.59
-38.81
-39.23
-45.67
-59.95
-82.40
-111.56
-143.39
-173.76
-198.06
-211.49
-210.36
-186.73
-138.97
-73.25
-1.96
64.58
123.95
176.41
223.32
260.04
283.49
290.67
280.34
253.64
214.45
167.94
119.40
74.15
36.73
10.94
-2.41
-4.42
3.18
18.79
40.92
67.55
96.47
125.34
152.63
176.55
195.86
209.82
217.92
219.02
211.33
193.63
166.25
131.76
93.45
54.57
17.33
-17.26
-49.10
-78.31
-104.62
-127.35
-145.96
-160.91
-173.55
-185.52
-197.60
-209.90
-222.60
-235.54
-248.41
-261.55
-276.03
-293.36
-315.11
-342.02
-373.75
-409.32
-446.02
-479.51
-505.13
-519.31
-520.57
-509.92
-489.52
-462.43
-433.10
-404.35
-376.75
-349.99
-323.49
-296.62
-268.82
-236.91
-197.77
-153.54
-105.99
-55.33
-2.68
50.24
101.60
149.57
197.61
249.47
298.69
340.97
377.15
408.19
435.24
459.58
482.16
510.92
553.50
599.63
641.22
677.38
706.71
727.97
740.65
745.59
755.21
784.44
825.53
871.42
920.75
967.64
1004.32
1025.16
966.51
796.90
623.68
497.53
399.86
322.07
256.57
199.28
150.06
110.26
59.15
-11.18
-116.25
-253.17
-401.32
-541.84
-662.74
-758.88
-830.47
-873.70
-883.72
-873.78
-855.51
-834.04
-810.89
-786.99
-762.26
-735.38
-700.07
-648.53
-586.15
-521.14
-456.31
-392.89
-331.94
-272.23
-214.00
-154.41
-89.49
-22.47
38.73
90.71
133.10
165.06
187.00
201.90
214.11
228.47
246.51
264.30
282.73
307.39
342.34
368.24
368.79
335.77
274.06
224.07
193.18
180.29
188.46
206.28
229.55
257.76
290.70
328.17
369.35
408.65
420.40
392.82
326.69
236.97
144.38
64.30
3.24
-39.79
-73.13
-102.58
-127.19
-145.73
-157.08
-161.32
-160.17
-155.88
-150.44
-147.48
-148.02
-147.93
-143.55
-132.96
-116.83
-97.84
-79.25
-63.70
-51.15
-43.39
-38.29
-33.57
-28.76
-24.92
-23.34
-23.73
-23.97
-21.58
-15.47
-8.99
-4.62
-6.50
-16.85
-34.37
-54.27
-71.28
-82.00
-86.79
-86.27
-79.32
-64.12
-39.62
-8.56
21.74
41.23
41.81
21.50
-14.09
-53.41
-85.46
-104.25
-110.97
-112.17
-115.97
-128.35
-145.83
-164.54
-177.41
-177.49
-161.23
-130.35
-91.21
-52.13
-20.17
1.73
14.19
20.89
25.30
28.51
29.55
27.02
20.92
13.35
7.75
6.31
9.59
15.79
21.78
24.54
22.85
17.58
11.11
6.22
4.38
5.75
9.03
12.15
13.29
11.72
7.99
3.48
-0.23
-2.31
-2.65
-1.90
-1.13
-1.23
-2.58
-4.94
-7.71
-10.21
-12.06
-13.26
-14.14
-15.28
-17.20
-20.18
-24.11
-28.69
-33.39
-37.72
-41.35
-44.11
-45.92
-46.67
-46.30
-44.30
-40.13
-33.33
-23.76
-11.68
2.12
16.50
30.25
42.37
52.32
60.02
65.82
70.10
73.13
74.84
74.92
73.16
69.68
65.16
60.59
57.14
55.77
57.02
60.98
67.05
73.81
78.97
79.84
74.23
61.57
43.47
23.26
4.67
-9.92
-20.03
-26.53
-30.36
-31.53
-29.46
-24.09
-17.35
-13.19
-16.20
-29.33
-52.45
-82.50
-114.79
-144.31
-166.32
-176.45
-170.68
-146.68
-105.85
-54.48
-3.18
36.35
55.65
52.52
30.69
-3.10
-42.80
-84.89
-127.09
-165.67
-194.51
-206.15
-194.63
-158.58
-102.57
-36.00
29.59
83.61
118.32
129.62
117.61
86.86
46.33
7.94
-16.32
-18.32
3.17
41.90
86.74
126.35
153.05
164.70
163.66
154.09
139.58
122.21
103.11
83.66
66.33
54.38
50.26
54.12
63.50
74.34
82.89
87.25
87.77
86.17
84.21
82.49
80.24
75.97
68.43
57.52
44.57
31.86
21.67
15.22
11.76
8.65
2.06
-11.87
-36.02
-71.90
-119.25
-175.82
-236.78
-294.51
-339.46
-362.09
-355.75
-319.06
-257.21
-180.92
-103.68
-38.29
6.24
26.41
24.48
7.35
-15.12
-32.63
-36.75
-22.97
8.17
51.54
99.14
142.53
174.89
192.42
194.31
182.06
158.43
126.66
90.29
53.37
20.42
-4.42
-18.43
-21.44
-15.95
-6.19
3.44
10.10
13.10
13.45
12.79
12.25
11.85
10.83
8.47
4.72
0.43
-3.09
-4.88
-4.80
-3.65
-2.70
-3.09
-5.30
-9.09
-13.64
-17.96
-21.16
-22.69
-22.33
-20.19
-16.58
-11.90
-6.66
-1.33
3.60
7.75
10.94
13.13
14.51
15.38
16.06
16.70
17.35
17.82
17.84
17.17
15.71
13.50
10.73
7.72
4.73
1.99
-0.37
-2.20
-3.37
-3.74
-3.24
-2.06
-0.55
0.73
1.29
0.81
-0.71
-2.98
-5.62
-8.21
-10.53
-12.47
-14.01
-15.12
-15.80
-16.07
-15.94
-15.46
-14.72
-13.81
-12.80
-11.77
-10.74
-9.66
-8.44
-6.95
-5.04
-2.62
0.26
3.49
6.80
9.82
12.14
13.46
13.68
13.01
12.04
11.44
11.83
13.48
16.21
19.48
22.53
24.62
25.20
24.11
21.53
18.04
14.44
11.59
10.18
10.51
12.42
15.36
18.66
21.65
23.91
25.21
25.54
25.19
24.68
24.72
26.19
29.83
36.06
44.78
55.31
66.57
77.39
86.87
94.64
101.05
106.98
113.58
121.71
131.55
142.41
153.09
162.57
170.66
178.20
186.36
195.73
205.27
211.99
211.89
201.45
178.83
144.38
100.14
49.06
-5.00
-56.97
-100.40
-128.40
-135.92
-122.57
-93.90
-60.39
-34.08
-23.84
-32.62
-57.72
-93.27
-132.91
-171.28
-204.00
-227.28
-238.50
-236.82
-224.92
-209.54
-199.56
-202.16
-219.32
-246.59
-275.11
-295.75
-301.39
-289.68
-263.85
-231.84
-203.72
-188.90
-193.27
-217.19
-255.44
-296.23
-324.68
-327.90
-299.43
-240.89
-160.76
-70.99
22.68
108.91
176.53
219.00
236.24
232.69
214.39
187.46
157.78
130.63
108.83
94.11
86.65
85.31
88.12
93.28
99.89
107.94
118.45
132.43
151.78
178.52
210.96
244.33
271.74
286.24
282.85
260.98
224.05
178.65
132.13
88.95
50.96
19.22
-4.56
-18.65
-21.57
-14.01
0.62
16.94
27.10
24.09
4.34
-31.88
-82.47
-143.88
-211.97
-282.27
-348.16
-403.81
-443.60
-462.40
-450.46
-406.12
-338.66
-266.09
-212.21
-179.95
-160.42
-140.24
-105.40
-49.04
26.06
110.25
191.20
257.94
305.86
333.10
340.03
329.86
307.57
278.97
251.90
235.09
235.47
257.46
297.47
338.23
360.20
348.18
298.35
220.81
141.56
77.00
37.10
24.45
35.34
61.69
93.21
118.39
127.46
114.88
81.35
34.46
-15.97
-61.86
-98.50
-124.66
-142.22
-150.49
-154.44
-152.63
-141.48
-119.10
-87.94
-54.61
-26.96
-12.26
-13.50
-28.90
-52.33
-77.52
-102.59
-129.90
-161.90
-195.26
-221.90
-231.10
-215.16
-172.42
-110.34
-44.68
5.83
26.41
12.92
-30.27
-92.34
-160.60
-222.87
-263.73
-272.30
-246.66
-209.85
-176.41
-152.57
-133.47
-115.57
-94.80
-67.60
-32.50
9.84
59.34
112.10
158.84
190.15
201.45
195.68
179.47
158.07
133.74
107.00
79.98
55.27
35.82
23.21
17.50
16.61
16.63
13.50
5.16
-7.05
-20.15
-30.42
-35.37
-33.53
-25.24
-12.45
2.24
16.99
31.21
45.04
59.12
73.71
88.65
103.31
117.20
130.40
143.83
158.00
172.13
183.97
190.16
187.74
175.62
155.55
129.45
101.94
77.39
58.47
45.66
37.15
29.49
18.45
0.09
-28.31
-67.07
-114.36
-166.38
-215.53
-252.99
-271.69
-269.24
-248.50
-215.59
-176.58
-136.10
-97.19
-61.81
-31.88
-9.03
5.83
13.13
14.84
14.08
13.77
15.83
20.69
27.14
33.19
37.10
38.26
37.63
37.36
39.37
44.58
52.52
60.71
65.83
64.64
54.80
35.26
6.68
-28.18
-63.84
-92.86
-108.46
-107.02
-90.04
-63.94
-37.48
-17.99
-8.17
-5.63
-5.17
-2.41
4.01
12.22
19.18
22.77
23.49
24.25
28.41
37.44
50.08
63.64
74.93
82.02
83.85
79.70
68.74
50.31
24.68
-6.19
-38.33
-67.39
-90.15
-106.60
-119.16
-130.37
-140.57
-147.00
-144.97
-129.10
-97.77
-53.93
-4.62
39.33
68.02
77.26
70.19
54.32
36.74
20.91
8.82
-1.39
-10.45
-16.60
-16.98
-9.63
5.31
25.85
47.52
67.15
83.07
95.61
106.45
117.25
128.57
139.41
147.64
150.74
147.12
136.01
118.25
96.02
72.22
49.67
30.20
14.17
0.65
-11.72
-24.23
-37.12
-49.59
-60.34
-68.26
-73.08
-75.34
-76.07
-76.11
-75.85
-75.02
-72.91
-68.72
-61.93
-52.52
-41.14
-28.91
-17.15
-6.99
0.88
6.38
9.83
11.70
12.33
11.81
10.06
7.04
2.83
-2.28
-7.91
-13.63
-18.99
-23.47
-26.50
-27.62
-26.70
-24.09
-20.43
-16.41
-12.34
-8.07
-3.11
2.87
9.65
16.42
22.04
25.64
26.98
26.58
25.40
24.26
23.50
22.94
22.13
20.78
19.03
17.27
15.89
15.05
14.62
14.42
14.54
15.41
17.58
21.29
25.97
30.35
32.75
31.78
26.91
18.65
8.23
-2.96
-13.84
-23.88
-32.88
-40.60
-46.53
-49.84
-49.78
-46.11
-39.45
-31.17
-23.07
-16.74
-13.10
-12.20
-13.32
-15.42
-17.46
-18.67
-18.62
-17.15
-14.27
-10.10
-4.95
0.66
5.81
9.45
10.70
9.37
6.22
2.86
0.94
1.36
3.67
6.23
7.16
5.38
1.36
-3.14
-6.00
-5.89
-2.95
1.42
5.30
7.18
6.47
3.52
-0.83
-5.70
-10.47
-14.71
-18.05
-19.92
-19.66
-16.69
-10.82
-2.54
7.02
16.32
23.90
28.75
30.57
29.58
26.39
21.77
16.64
11.98
8.76
7.67
8.79
11.44
14.24
15.58
14.17
9.56
2.39
-5.90
-13.50
-18.93
-21.38
-21.01
-18.67
-15.37
-11.75
-7.69
-2.55
4.32
12.87
21.97
29.36
32.61
30.26
22.73
12.50
3.32
-1.12
1.65
12.14
28.63
47.74
65.30
77.31
80.68
74.20
59.30
40.06
22.08
10.10
6.08
8.67
14.50
20.56
26.19
33.53
45.84
64.39
85.83
102.43
105.23
88.07
50.51
-2.31
-62.04
-119.21
-164.04
-189.61
-194.25
-181.57
-157.66
-127.42
-93.32
-56.70
-19.24
16.26
46.20
67.65
80.15
85.88
89.26
95.14
106.67
124.14
144.79
164.05
176.91
180.17
173.24
158.77
141.17
124.81
112.35
104.34
99.65
96.33
92.64
86.61
77.06
63.79
48.17
33.07
23.30
23.35
34.49
56.97
82.76
99.86
97.68
71.86
25.09
-33.05
-90.66
-138.54
-173.26
-197.56
-216.31
-233.38
-250.44
-269.49
-291.06
-314.44
-337.97
-359.76
-378.63
-393.31
-402.35
-405.30
-406.30
-410.02
-419.53
-434.38
-450.36
-460.82
-458.34
-437.56
-379.83
-284.01
-165.64
-49.53
44.01
107.39
143.92
161.35
166.68
164.04
152.71
132.84
107.16
80.54
57.45
40.24
28.15
19.57
12.82
4.74
-5.88
-17.73
-27.90
-33.61
-33.40
-27.77
-18.24
-6.53
4.90
15.34
26.33
41.33
61.34
86.93
117.14
149.76
181.89
210.04
231.73
246.10
253.91
257.29
258.78
260.45
264.02
270.77
280.99
293.82
307.05
317.48
322.86
322.55
318.15
313.52
313.25
320.55
335.52
354.72
372.23
382.47
380.39
362.38
326.97
275.09
210.00
136.86
61.77
-15.73
-91.22
-158.46
-211.62
-247.40
-265.90
-269.97
-263.83
-251.79
-237.35
-221.61
-205.17
-188.36
-171.57
-155.23
-139.93
-126.24
-114.54
-104.85
-95.88
-86.75
-76.77
-65.63
-53.21
-39.72
-25.70
-11.91
0.77
12.24
22.02
30.12
36.32
40.51
42.44
41.67
37.56
29.45
17.40
1.50
-17.11
-36.70
-55.30
-71.42
-84.28
-93.92
-100.83
-105.33
-108.00
-108.50
-106.21
-101.11
-94.16
-87.53
-84.20
-87.23
-94.34
-106.46
-124.08
-146.40
-170.66
-191.79
-203.25
-199.01
-176.41
-137.81
-91.24
-46.52
-12.02
8.12
14.64
11.42
2.96
-7.78
-19.56
-32.61
-46.30
-58.83
-68.43
-73.02
-72.13
-66.90
-59.39
-51.63
-45.16
-40.21
-36.29
-32.91
-29.76
-27.45
-27.16
-30.05
-36.67
-46.85
-59.38
-72.62
-85.21
-96.04
-104.99
-112.56
-119.33
-125.52
-130.79
-134.09
-133.74
-130.70
-125.16
-117.62
-108.69
-99.02
-89.02
-78.91
-68.51
-57.76
-46.97
-36.48
-26.97
-18.98
-12.65
-7.55
-2.89
3.12
11.81
23.62
38.18
54.42
71.25
88.17
105.36
123.42
144.68
170.50
200.43
232.26
262.70
288.86
309.55
325.46
338.61
354.23
376.27
405.83
440.74
476.55
508.65
534.10
552.28
564.59
577.80
598.54
630.82
673.70
720.90
762.36
787.31
787.69
736.61
623.13
453.83
252.70
51.68
-122.46
-256.03
-347.94
-404.85
-436.51
-449.14
-448.52
-439.99
-428.36
-417.09
-407.76
-400.41
-394.52
-389.66
-382.50
-370.02
-350.35
-323.91
-293.67
-263.94
-238.70
-220.25
-208.76
-200.46
-190.93
-176.91
-157.72
-135.26
-112.91
-93.97
-80.56
-73.11
-69.57
-67.08
-63.03
-56.07
-46.35
-35.19
-24.28
-14.86
-7.39
-1.10
5.21
12.56
21.13
30.36
38.47
43.58
44.37
40.48
32.76
22.88
12.76
3.72
-3.74
-9.85
-14.82
-18.44
-20.08
-19.05
-15.30
-9.54
-3.09
2.68
6.81
8.96
9.37
8.60
7.51
7.08
8.51
12.73
19.87
28.90
37.85
44.58
47.77
47.55
45.04
42.02
40.16
40.35
42.64
46.46
51.13
56.01
60.74
64.74
67.80
69.95
71.46
72.66
73.72
74.43
73.86
73.44
73.04
72.35
71.23
69.81
68.42
67.27
66.31
65.26
63.74
61.09
57.09
51.94
46.10
40.22
35.04
31.28
29.62
30.51
33.51
37.70
41.77
44.35
44.60
42.56
39.10
35.62
33.45
33.11
34.43
36.76
39.28
41.44
43.03
44.16
45.04
45.94
47.04
48.58
50.58
52.52
53.24
51.23
45.16
34.60
20.30
3.87
-12.77
-28.11
-41.32
-52.17
-60.72
-67.18
-71.95
-75.82
-79.89
-85.25
-92.29
-100.48
-108.49
-114.77
-118.30
-118.77
-116.60
-112.57
-107.56
-102.31
-97.39
-93.16
-89.49
-85.80
-81.18
-75.01
-67.47
-59.79
-53.66
-50.35
-49.80
-50.51
-50.48
-48.51
-45.15
-42.67
-43.76
-50.00
-60.72
-73.24
-84.06
-90.75
-92.90
-92.03
-90.87
-91.43
-94.03
-97.27
-99.63
-100.41
-100.38
-101.31
-104.90
-111.79
-120.49
-127.84
-130.21
-125.80
-115.36
-101.92
-89.31
-80.41
-76.55
-76.34
-76.73
-74.36
-68.43
-60.56
-53.65
-50.13
-50.71
-55.91
-63.84
-71.31
-74.36
-73.15
-70.09
-68.18
-68.81
-71.52
-78.37
-89.28
-102.28
-112.45
-120.38
-128.46
-139.20
-152.77
-167.67
-187.72
-213.71
-243.01
-267.57
-288.01
-308.58
-334.78
-369.45
-412.47
-468.13
-533.34
-596.95
-638.73
-650.52
-632.78
-593.47
-543.25
-444.71
-294.17
-118.57
7.37
81.09
115.15
131.96
141.28
149.95
162.93
175.86
186.67
197.11
216.18
242.40
270.65
294.79
312.04
321.92
319.55
304.04
279.42
256.81
240.04
229.98
225.77
227.51
235.30
245.02
253.81
261.28
271.33
283.62
296.60
308.51
319.22
329.58
338.55
345.30
349.12
350.18
346.10
334.61
315.21
290.49
265.10
243.30
228.30
221.45
222.51
228.89
237.44
245.47
251.52
255.08
256.20
255.27
252.88
249.69
246.35
243.27
240.30
236.68
231.16
222.43
209.38
191.37
167.98
139.00
104.45
64.76
21.09
-24.94
-71.46
-116.63
-158.57
-195.13
-223.64
-241.32
-246.32
-238.72
-221.16
-198.34
-175.58
-157.30
-146.22
-143.38
-148.61
-160.86
-178.03
-196.53
-211.39
-217.35
-210.68
-190.73
-160.42
-125.28
-91.66
-64.82
-47.43
-39.21
-37.46
-38.15
-37.14
-31.35
-19.53
-2.54
17.05
35.93
51.25
61.36
66.14
66.98
66.33
67.07
71.72
81.29
94.62
108.32
117.80
118.85
108.99
88.24
58.84
24.57
-10.23
-40.96
-63.12
-72.76
-67.60
-48.42
-19.73
10.98
35.57
47.50
44.13
27.32
2.44
-24.16
-47.47
-64.94
-76.21
-81.49
-81.50
-76.98
-69.23
-60.23
-52.52
-48.04
-46.41
-44.43
-36.85
-20.45
4.02
32.27
59.15
81.18
97.76
110.64
121.61
130.88
135.02
129.14
110.24
79.88
43.12
5.65
-28.32
-62.22
-94.85
-122.96
-143.61
-159.38
-171.75
-179.73
-181.28
-174.12
-156.97
-129.98
-96.98
-64.29
-38.19
-21.82
-14.86
-14.81
-18.65
-24.76
-32.91
-44.33
-59.44
-75.80
-87.72
-89.02
-76.33
-50.65
-16.87
18.98
52.27
81.90
110.47
142.30
180.03
222.53
265.47
303.76
334.39
357.27
374.16
386.68
394.77
396.99
392.54
383.36
374.46
371.64
377.63
389.38
398.31
393.90
368.44
320.53
255.48
182.58
111.10
47.42
-5.88
-48.73
-81.84
-105.50
-119.59
-124.40
-121.29
-112.88
-102.52
-93.35
-87.58
-86.06
-88.66
-94.77
-103.88
-115.79
-130.52
-147.98
-167.69
-188.82
-210.67
-233.15
-256.98
-283.28
-312.53
-343.48
-372.77
-395.44
-406.69
-403.63
-386.44
-358.18
-323.25
-285.85
-248.93
-214.31
-183.27
-157.16
-137.23
-123.92
-116.32
-112.34
-109.98
-108.60
-109.15
-112.96
-119.85
-126.63
-127.81
-117.91
-94.21
-58.41
-15.98
26.44
64.12
95.50
121.28
141.74
154.64
155.18
138.33
102.47
51.77
-4.56
-55.93
-95.03
-120.90
-139.03
-157.84
-183.91
-218.09
-254.67
-283.88
-296.34
-286.73
-255.45
-207.84
-151.86
-95.88
-46.15
-6.01
24.23
46.15
62.25
75.08
86.58
97.78
108.02
116.63
123.64
129.86
135.69
140.23
141.51
137.55
127.37
110.39
89.13
69.58
59.40
64.14
84.57
116.44
152.82
185.95
207.35
212.65
202.93
183.04
157.46
127.77
93.20
53.30
8.52
-42.35
-98.50
-156.66
-212.69
-264.86
-314.62
-364.56
-415.10
-437.68
-410.47
-332.59
-226.04
-117.26
-22.79
51.27
101.33
134.26
153.65
157.61
145.79
122.55
96.85
78.19
74.34
88.84
120.66
160.58
190.94
196.64
174.19
132.01
82.90
36.63
-2.45
-33.51
-58.19
-79.25
-97.74
-112.59
-121.93
-125.03
-123.30
-119.36
-115.19
-112.03
-110.19
-108.07
-102.62
-93.42
-80.54
-65.40
-50.15
-36.34
-24.65
-14.70
-5.06
5.95
19.08
34.71
51.66
67.86
81.48
91.84
99.72
106.85
115.00
124.96
138.00
153.60
169.81
184.60
197.21
208.51
220.35
234.81
253.54
279.84
314.31
354.09
393.73
427.21
449.55
457.83
451.74
433.38
409.25
383.67
356.83
325.98
288.34
242.98
191.20
135.99
63.50
-24.86
-115.28
-190.41
-240.49
-265.60
-271.50
-264.99
-251.90
-236.45
-218.41
-198.65
-180.81
-169.35
-166.99
-173.84
-187.68
-204.31
-218.12
-221.46
-207.87
-177.09
-134.28
-87.33
-44.39
-12.04
5.96
8.96
-0.33
-19.66
-48.27
-85.15
-124.98
-156.75
-170.37
-163.50
-141.48
-111.37
-79.27
-49.39
-23.50
-1.70
16.17
29.98
39.66
46.02
51.31
57.79
66.67
77.88
90.83
102.61
109.66
108.95
99.33
81.87
58.89
32.73
5.34
-20.78
-44.81
-66.87
-87.36
-106.45
-124.00
-139.65
-152.39
-159.70
-157.96
-144.07
-117.15
-80.03
-38.95
-1.53
26.11
41.58
46.75
45.84
42.78
39.70
36.78
33.41
29.51
26.03
24.33
25.17
28.01
31.16
32.98
32.47
30.07
27.19
25.51
26.01
28.54
31.91
34.45
35.03
33.60
31.26
29.67
30.13
32.91
37.03
40.90
42.98
42.54
40.02
36.72
34.29
34.13
37.09
43.04
50.57
56.70
57.24
48.17
27.43
-3.55
-39.80
-74.51
-101.70
-118.59
-126.25
-128.70
-130.20
-133.17
-137.20
-139.95
-138.79
-132.32
-121.34
-106.83
-90.07
-71.87
-52.51
-32.12
-11.34
8.56
26.02
39.79
49.67
56.44
61.68
66.99
73.15
79.55
84.19
84.47
77.94
63.59
42.17
16.54
-9.07
-30.10
-43.00
-46.06
-39.69
-26.27
-9.38
6.94
19.31
26.08
27.60
26.05
24.55
25.83
31.01
39.35
48.61
56.39
61.49
64.21
65.81
67.34
68.59
67.72
62.21
49.87
30.20
5.00
-22.32
-48.01
-69.12
-84.30
-93.99
-99.68
-103.36
-106.32
-108.22
-107.31
-101.18
-87.96
-67.33
-40.44
-7.66
29.33
68.42
108.12
147.29
184.50
217.62
243.92
260.80
266.73
261.43
244.77
217.31
180.17
135.23
85.12
33.01
-17.90
-64.76
-105.72
-141.71
-174.53
-206.04
-237.06
-267.23
-295.19
-319.42
-338.49
-341.75
-321.90
-277.26
-213.47
-140.59
-68.29
-2.34
54.59
102.05
140.79
170.57
191.66
205.28
213.68
219.13
224.42
230.78
238.17
246.99
254.36
257.05
252.63
240.28
219.55
192.06
159.20
122.32
84.20
48.36
17.36
-7.20
-23.76
-36.79
-45.55
-49.74
-49.82
-46.96
-42.20
-37.49
-35.46
-30.02
-22.61
-14.75
-8.07
-3.08
-5.20
-11.40
-18.15
-23.65
-26.72
-28.80
-31.09
-35.98
-46.23
-64.34
-91.79
-122.96
-155.88
-189.36
-224.00
-259.87
-297.56
-337.80
-381.43
-428.24
-477.36
-526.68
-570.50
-601.50
-611.94
-597.49
-559.17
-503.27
-438.49
-373.47
-314.57
-263.78
-220.42
-182.78
-150.04
-122.13
-99.26
-80.58
-64.35
-48.60
-31.26
-11.34
10.79
33.26
54.85
74.59
92.46
109.21
126.05
144.51
165.46
188.39
211.21
233.57
255.41
277.26
299.63
322.19
343.47
360.96
372.06
375.60
375.92
378.02
383.75
389.33
386.96
370.09
338.84
302.08
274.31
273.83
311.10
384.33
481.12
584.92
682.27
765.48
831.52
848.63
794.14
662.54
471.97
255.82
46.82
-133.17
-276.16
-383.64
-462.23
-515.07
-544.24
-552.70
-543.52
-519.96
-486.11
-447.80
-410.11
-376.88
-346.48
-315.13
-278.43
-233.52
-179.64
-118.97
-55.97
6.90
69.08
133.06
194.84
246.49
277.72
281.35
270.04
250.93
228.14
203.08
171.09
130.49
82.70
33.03
-9.74
-36.62
-45.02
-39.65
-32.79
-39.02
-68.31
-121.60
-190.43
-260.63
-318.52
-352.76
-356.74
-331.61
-285.29
-227.56
-166.05
-104.54
-44.86
10.83
58.09
92.64
111.99
117.46
114.59
110.15
109.88
116.44
128.71
142.29
153.21
155.98
147.88
129.95
104.71
75.26
43.79
11.04
-23.16
-58.41
-95.25
-134.22
-174.32
-213.62
-247.86
-271.01
-277.07
-262.69
-229.22
-182.96
-135.47
-92.81
-59.99
-39.82
-32.80
-37.35
-49.70
-64.47
-74.06
-72.64
-57.04
-29.09
5.88
41.28
71.92
95.45
111.84
122.09
127.09
127.79
124.55
118.37
111.02
104.48
100.55
99.97
102.16
105.64
109.04
110.83
110.53
108.66
106.38
104.78
104.61
104.31
101.58
94.03
79.83
58.26
29.79
-4.37
-42.11
-80.17
-114.27
-139.05
-149.54
-143.40
-122.44
-92.60
-61.82
-37.00
-21.61
-15.09
-14.09
-14.98
-15.72
-16.19
-17.19
-19.08
-20.98
-21.52
-19.78
-15.92
-11.20
-7.23
-5.45
-6.10
-8.35
-10.79
-12.09
-11.62
-9.66
-7.42
-5.95
-6.09
-7.97
-11.06
-14.42
-17.20
-19.02
-20.01
-20.74
-21.87
-23.95
-27.01
-30.80
-34.88
-38.84
-42.50
-45.98
-49.59
-53.69
-58.61
-64.33
-70.66
-77.28
-83.70
-89.36
-93.68
-96.07
-95.92
-93.08
-87.00
-77.46
-64.60
-48.88
-31.06
-12.14
6.74
24.51
40.13
52.87
62.19
67.89
70.09
69.21
65.84
60.79
54.84
48.77
43.22
38.61
35.10
32.63
30.92
29.48
27.84
25.52
22.20
17.71
12.17
5.82
-0.91
-7.55
-13.72
-19.16
-23.82
-27.84
-31.59
-35.34
-39.43
-44.11
-49.52
-55.56
-62.05
-68.71
-75.35
-81.83
-87.98
-93.90
-99.80
-106.05
-112.96
-120.71
-129.35
-138.75
-148.55
-158.02
-166.39
-172.96
-177.10
-178.33
-176.34
-170.94
-161.96
-151.26
-140.11
-129.55
-120.31
-112.68
-106.47
-101.15
-95.99
-90.25
-83.49
-75.38
-66.03
-55.95
-45.74
-35.95
-26.90
-18.76
-11.57
-5.42
-0.26
3.88
6.99
9.36
11.69
14.92
20.03
27.49
37.06
47.78
58.14
66.62
72.41
75.89
78.59
82.70
90.24
102.18
118.26
137.00
156.12
173.49
187.93
199.49
209.62
220.85
236.20
258.49
288.29
322.51
354.51
376.12
381.10
368.79
345.56
323.22
315.60
332.03
373.22
430.53
488.92
532.03
547.16
528.60
478.53
407.43
330.10
262.69
219.43
209.29
233.42
284.49
348.27
407.36
448.30
463.43
452.53
421.54
379.26
333.95
291.38
254.42
212.10
157.47
87.26
3.32
-87.88
-177.97
-259.24
-326.07
-375.29
-405.71
-415.88
-406.20
-379.34
-340.07
-294.51
-248.89
-208.04
-173.66
-146.97
-127.39
-113.74
-105.07
-100.78
-100.44
-103.47
-108.77
-115.13
-121.24
-126.37
-130.48
-134.61
-140.59
-150.77
-167.90
-192.16
-224.19
-264.18
-312.85
-370.02
-434.17
-502.14
-569.46
-631.10
-682.08
-718.76
-726.52
-695.67
-623.01
-513.75
-380.01
-236.71
-97.63
27.82
134.58
221.57
288.63
337.43
370.96
393.30
408.93
421.23
433.65
446.71
459.33
467.88
468.73
459.22
438.53
407.75
368.77
324.27
276.63
228.15
179.45
130.60
81.18
30.21
-19.00
-64.66
-105.74
-142.32
-174.92
-204.91
-233.27
-260.00
-283.97
-303.00
-315.19
-318.70
-312.66
-297.09
-273.95
-245.78
-214.87
-182.53
-149.03
-114.43
-78.64
-41.95
-5.20
28.58
56.16
75.10
84.67
85.76
79.67
67.57
50.17
27.68
-2.18
-40.94
-87.81
-138.87
-187.57
-227.55
-254.39
-266.70
-266.13
-259.69
-255.28
-259.58
-276.66
-307.61
-351.56
-405.58
-464.22
-500.80
-493.85
-434.12
-331.30
-209.49
-94.50
-3.96
56.20
89.39
103.61
103.86
93.03
73.08
44.43
13.11
-13.20
-27.71
-26.30
-7.64
25.03
67.17
115.11
167.32
221.01
272.70
318.88
356.61
384.13
399.70
402.98
395.07
378.39
356.18
331.30
305.96
281.50
258.99
238.63
220.33
203.88
189.36
177.35
168.31
161.61
154.66
143.22
122.75
90.67
48.55
1.95
-41.58
-75.50
-97.05
-107.50
-110.47
-109.21
-105.40
-98.71
-88.49
-75.26
-60.85
-48.00
-39.21
-35.93
-37.34
-42.07
-47.18
-49.42
-46.39
-38.09
-27.59
-20.34
-22.62
-37.02
-62.07
-91.85
-119.94
-140.70
-151.24
-151.59
-143.29
-127.96
-106.20
-78.48
-46.43
-12.75
19.13
45.82
64.85
75.72
79.80
79.95
78.96
78.95
80.79
84.14
87.90
90.75
93.10
93.63
92.10
88.15
81.42
71.45
57.82
40.52
20.18
-1.68
-23.26
-42.26
-57.01
-66.38
-70.28
-69.46
-65.28
-59.33
-53.11
-48.11
-45.15
-44.88
-47.26
-51.91
-58.24
-65.29
-71.91
-77.09
-80.14
-80.76
-79.34
-76.27
-72.38
-68.59
-65.35
-62.64
-60.19
-57.62
-54.71
-51.74
-48.69
-45.88
-43.49
-41.06
-37.32
-30.43
-18.24
1.49
25.49
52.07
79.59
106.74
133.00
158.63
184.47
211.71
241.57
275.01
312.90
354.18
395.36
430.55
453.07
457.85
443.37
412.27
370.12
323.92
279.12
238.48
202.15
169.13
138.77
111.25
87.13
66.43
48.73
32.91
17.93
2.81
-12.42
-26.65
-38.27
-46.15
-50.41
-52.03
-52.62
-53.49
-56.83
-63.43
-72.10
-80.25
-85.61
-87.47
-86.73
-85.11
-84.13
-87.94
-98.86
-115.94
-135.45
-153.30
-167.37
-177.60
-184.92
-190.31
-199.98
-218.54
-245.99
-277.32
-305.87
-326.91
-339.01
-343.94
-345.93
-357.49
-388.95
-442.87
-512.90
-588.71
-661.46
-726.12
-780.95
-780.89
-699.78
-544.20
-351.89
-164.00
-4.23
121.40
216.04
285.74
336.58
366.93
375.89
367.14
349.26
331.27
318.95
314.14
316.30
324.07
330.53
330.18
321.75
308.94
295.63
283.72
272.77
261.19
247.45
227.28
198.12
160.81
120.21
81.56
48.52
22.59
3.85
-8.36
-16.77
-23.54
-29.74
-35.17
-39.11
-41.11
-41.34
-40.34
-38.63
-37.29
-36.90
-37.67
-39.65
-42.45
-45.60
-48.68
-51.32
-52.94
-54.38
-53.77
-50.07
-43.30
-33.72
-22.06
-9.40
2.85
13.29
20.52
23.81
24.14
20.21
11.86
-0.50
-15.80
-32.69
-49.62
-65.19
-79.41
-89.82
-95.22
-94.81
-88.63
-77.14
-61.02
-41.21
-19.29
3.55
26.14
46.53
62.97
73.52
76.89
72.94
62.73
47.89
31.09
15.18
2.02
-7.19
-12.30
-13.17
-9.15
3.87
25.76
55.37
90.50
126.65
160.09
185.88
199.82
200.02
187.54
164.95
135.94
103.01
66.82
28.65
-11.44
-52.86
-93.76
-131.00
-162.03
-184.26
-195.51
-194.18
-179.77
-154.66
-124.71
-99.06
-87.07
-94.15
-117.46
-145.78
-164.15
-160.79
-133.13
-88.90
-44.83
-13.14
-0.78
-6.83
-23.81
-41.89
-53.25
-54.37
-45.79
-28.26
-5.87
18.55
44.39
71.97
100.54
127.18
147.90
159.62
162.21
158.92
155.10
155.35
161.68
173.09
183.73
187.35
179.27
157.71
123.74
80.72
33.59
-11.69
-48.06
-70.67
-77.48
-70.46
-55.13
-38.56
-26.44
-21.10
-21.19
-23.52
-25.58
-26.46
-27.04
-28.69
-31.90
-35.64
-38.03
-37.57
-34.18
-29.47
-25.40
-23.65
-24.69
-27.76
-31.36
-33.91
-34.54
-33.42
-31.64
-30.51
-30.94
-33.17
-36.71
-40.64
-44.10
-46.59
-48.28
-49.85
-52.40
-56.35
-61.75
-68.31
-75.39
-82.21
-88.07
-92.35
-94.62
-94.46
-91.77
-86.02
-76.87
-64.36
-48.85
-31.10
-12.18
6.67
24.28
39.69
52.20
61.47
67.44
70.37
70.67
68.89
65.60
61.31
56.51
51.51
46.51
41.63
36.91
32.34
27.91
23.57
19.30
15.09
10.90
6.81
2.80
-1.18
-5.14
-9.12
-13.20
-17.42
-21.88
-26.64
-31.62
-36.77
-42.10
-47.56
-53.17
-58.92
-64.87
-71.08
-77.63
-84.38
-91.22
-98.10
-104.97
-111.76
-118.45
-125.02
-131.49
-137.90
-144.00
-149.56
-154.46
-158.47
-161.37
-162.77
-162.17
-158.77
-153.88
-147.94
-141.17
-133.74
-125.77
-117.43
-108.90
-100.39
-92.18
-84.57
-77.55
-71.14
-65.36
-60.24
-55.74
-51.83
-48.43
-45.49
-42.98
-40.66
-38.32
-35.88
-33.28
-30.52
-27.66
-24.78
-22.01
-19.53
-17.32
-15.41
-13.81
-12.50
-11.47
-10.70
-10.18
-9.91
-9.91
-10.08
-10.34
-10.59
-10.76
-10.80
-10.72
-10.58
-10.48
-10.52
-10.76
-11.17
-11.69
-12.22
-12.70
-13.11
-13.51
-13.98
-14.58
-15.25
-15.81
-15.91
-15.22
-13.53
-10.88
-7.55
-4.03
-0.79
1.86
3.99
5.98
8.36
11.52
15.43
19.65
23.45
26.12
27.36
27.52
27.47
28.26
30.64
34.58
39.33
43.65
46.51
47.49
47.07
46.49
47.11
50.08
56.11
65.59
78.42
93.74
109.63
123.44
132.85
137.09
137.96
139.39
145.86
160.23
182.35
209.19
236.52
260.92
281.26
298.74
315.65
333.76
353.09
371.77
386.72
394.85
394.35
385.33
369.86
350.69
330.14
309.09
286.70
261.16
230.77
194.53
152.18
103.91
50.60
-5.12
-57.75
-98.90
-119.15
-111.40
-74.24
-13.64
58.18
126.02
176.03
199.15
192.59
159.32
106.39
42.97
-21.55
-79.29
-125.31
-158.59
-181.82
-200.09
-218.59
-240.13
-263.12
-281.41
-286.06
-268.70
-225.15
-157.63
-74.43
12.92
93.28
159.14
207.40
237.94
251.17
246.62
223.33
181.97
126.99
67.03
13.01
-25.25
-42.13
-37.81
-17.61
10.36
38.13
60.26
74.70
82.33
85.59
87.00
87.82
87.86
85.79
80.26
71.06
59.31
47.17
36.47
27.73
19.97
11.42
0.84
-11.61
-24.10
-34.20
-39.93
-40.96
-38.67
-35.39
-33.20
-33.01
-34.38
-36.00
-36.70
-36.01
-34.44
-33.03
-32.72
-33.87
-36.15
-38.70
-40.33
-40.20
-38.03
-34.29
-30.03
-26.43
-24.36
-23.99
-24.79
-25.60
-25.30
-23.25
-19.40
-14.25
-8.42
-2.56
2.97
8.06
13.13
18.76
25.58
34.03
44.12
55.43
67.07
77.95
87.14
94.62
100.52
105.01
108.20
110.16
111.13
111.55
111.91
112.67
115.53
121.79
132.31
147.44
166.79
189.60
214.82
241.32
268.15
296.90
328.73
363.80
400.98
437.82
471.70
500.63
523.47
539.47
550.60
557.16
557.57
548.94
528.35
495.02
451.25
401.89
333.67
240.66
122.04
-16.20
-161.92
-300.67
-419.65
-510.55
-570.28
-600.37
-602.90
-583.06
-548.42
-505.66
-463.41
-428.27
-403.53
-389.51
-384.72
-384.94
-386.70
-388.28
-389.46
-391.81
-397.30
-407.49
-421.11
-434.62
-440.79
-432.28
-405.26
-362.22
-313.44
-273.70
-257.05
-271.35
-314.87
-375.89
-437.54
-483.60
-503.44
-494.46
-460.94
-411.06
-353.74
-296.06
-241.82
-191.95
-145.74
-102.26
-61.43
-24.01
9.19
37.67
61.38
80.55
95.25
105.27
110.41
111.03
108.61
105.79
105.27
108.77
115.97
124.43
130.49
130.62
122.94
107.87
87.70
65.18
42.08
18.19
-8.16
-38.40
-71.77
-104.15
-128.78
-138.53
-129.04
-100.78
-59.19
-12.37
32.40
71.21
103.81
131.82
156.50
177.43
193.34
204.07
212.29
223.36
243.23
275.44
319.05
368.60
416.22
454.49
478.74
487.83
483.25
467.60
443.29
412.22
375.93
336.12
294.64
253.05
211.99
170.90
128.05
81.19
28.49
-30.73
-95.60
-163.92
-232.65
-298.53
-357.86
-405.67
-436.85
-448.00
-438.99
-412.85
-374.46
-328.71
-279.27
-228.38
-177.62
-128.28
-81.50
-38.31
1.02
36.96
70.58
102.85
135.06
166.02
192.54
210.22
214.81
203.75
177.15
138.12
92.22
46.21
5.98
-24.31
-43.10
-51.80
-54.18
-55.17
-59.06
-67.73
-77.04
-81.57
-75.70
-55.44
-20.36
25.64
75.03
118.39
146.99
154.94
140.17
104.20
52.35
-7.71
-67.95
-121.53
-164.10
-193.77
-210.50
-215.39
-211.49
-202.25
-190.87
-179.70
-169.94
-161.88
-155.40
-150.77
-148.92
-153.79
-169.67
-199.71
-244.19
-300.21
-362.76
-425.78
-483.70
-516.79
-510.21
-457.76
-365.56
-249.28
-126.77
-11.99
88.03
171.74
241.34
298.16
343.48
378.63
405.84
427.18
443.40
456.50
465.80
469.54
463.99
445.94
412.79
364.58
302.37
228.14
145.98
61.85
-17.15
-84.98
-136.33
-169.39
-184.42
-178.48
-154.54
-118.44
-76.96
-37.15
-6.47
9.33
3.42
-28.51
-90.27
-183.73
-306.49
-450.42
-603.76
-753.99
-888.48
-1000.59
-1060.60
-1044.16
-942.47
-767.70
-546.78
-311.39
-99.53
82.42
231.92
348.79
434.49
493.77
526.54
538.03
535.96
528.20
523.74
526.98
526.98
514.99
486.50
443.03
391.52
339.06
290.23
248.77
214.05
184.71
159.93
138.27
118.25
99.31
81.33
64.30
49.87
38.26
29.79
25.82
26.84
32.45
41.33
54.34
67.05
76.27
79.05
73.72
60.88
42.01
19.22
-5.52
-30.50
-54.62
-75.77
-91.85
-100.58
-99.41
-88.73
-68.76
-41.55
-10.17
22.09
51.95
75.37
87.66
84.76
65.30
32.62
-6.05
-41.89
-67.36
-79.15
-78.94
-71.61
-62.53
-54.86
-48.47
-41.75
-33.01
-21.94
-9.30
4.16
18.07
32.68
47.71
62.68
75.73
84.27
85.61
77.83
61.04
37.51
10.67
-15.61
-37.52
-52.67
-60.45
-61.86
-58.87
-53.71
-48.08
-41.26
-35.55
-32.09
-31.26
-32.97
-36.79
-41.99
-47.56
-52.50
-55.88
-57.27
-56.53
-54.10
-50.77
-47.44
-44.69
-42.56
-40.89
-39.29
-37.45
-35.22
-32.90
-31.05
-30.24
-30.71
-32.11
-33.53
-34.32
-34.05
-32.84
-31.47
-31.05
-32.69
-36.81
-42.90
-49.46
-55.21
-59.02
-60.44
-59.74
-57.50
-54.54
-51.65
-49.60
-48.94
-49.46
-49.46
-45.91
-35.80
-16.83
9.89
39.96
67.09
85.71
93.21
90.82
82.36
71.97
62.69
55.15
48.63
42.37
36.51
31.91
29.48
29.27
30.12
30.76
29.77
26.65
21.92
16.85
12.75
10.47
9.93
10.29
10.46
9.39
6.72
2.78
-1.55
-5.32
-7.94
-9.43
-10.27
-11.17
-12.75
-15.34
-18.84
-22.78
-26.66
-30.18
-33.48
-37.14
-41.94
-48.58
-57.44
-68.33
-80.32
-92.05
-101.98
-108.89
-112.06
-111.69
-107.99
-101.47
-92.39
-80.66
-66.06
-48.57
-28.81
-7.99
12.31
30.67
46.15
59.09
70.98
83.65
98.31
114.34
129.39
139.69
141.56
132.18
111.40
81.97
48.55
17.01
-7.13
-18.99
-15.54
3.28
32.62
63.09
84.19
88.52
77.14
57.26
40.42
36.86
50.78
77.83
108.00
130.30
137.14
126.14
98.84
59.42
11.73
-37.04
-79.51
-109.09
-121.48
-116.33
-96.87
-69.18
-39.35
-11.96
10.50
26.90
37.07
41.71
41.85
39.01
34.11
28.03
19.84
8.28
-7.77
-28.20
-51.22
-73.62
-91.25
-100.84
-100.76
-91.43
-74.92
-54.38
-32.88
-12.38
6.53
24.49
42.31
59.80
75.69
88.13
93.68
89.24
73.31
46.77
12.64
-24.92
-61.63
-93.68
-118.34
-134.51
-142.41
-143.67
-141.05
-137.93
-136.92
-138.56
-140.63
-139.38
-131.61
-116.42
-95.89
-74.00
-54.51
-38.65
-24.81
-10.12
8.08
30.04
53.51
74.96
91.58
102.47
108.74
112.02
113.38
112.94
110.11
104.40
96.03
86.00
76.07
67.91
62.25
58.84
56.67
54.37
50.99
46.41
41.36
37.30
35.60
36.79
40.55
45.72
50.63
53.76
55.14
53.74
49.67
43.45
35.43
25.85
14.93
3.19
-8.23
-17.55
-22.70
-21.56
-12.91
3.02
24.41
48.25
71.19
90.29
103.51
110.01
110.13
104.94
96.17
85.74
75.45
66.27
57.76
48.07
34.83
17.07
-3.71
-23.47
-37.40
-41.97
-36.73
-24.22
-8.53
6.64
19.32
29.55
38.61
47.93
58.51
70.82
85.16
101.55
119.15
136.17
150.59
160.55
164.98
163.74
157.31
146.17
130.30
110.24
86.64
60.65
33.75
7.32
-17.61
-39.94
-58.44
-71.77
-80.95
-87.13
-91.22
-94.33
-98.32
-105.59
-118.42
-138.37
-166.15
-205.04
-256.01
-316.59
-381.44
-444.01
-497.62
-536.42
-556.15
-554.87
-537.71
-510.14
-476.01
-437.72
-397.85
-360.20
-329.37
-309.36
-274.33
-213.46
-130.06
-36.54
55.68
139.16
208.64
260.34
293.42
310.84
313.65
305.22
289.84
271.40
252.48
234.85
220.52
211.62
209.31
209.39
207.65
201.22
189.47
173.69
156.26
140.37
129.04
124.55
125.16
127.62
127.10
118.08
95.60
57.27
5.37
-52.61
-105.39
-143.77
-159.87
-150.68
-118.94
-72.41
-21.88
21.65
49.06
55.56
41.57
12.78
-22.02
-53.86
-76.40
-86.96
-85.65
-75.30
-59.58
-42.14
-26.57
-15.74
-11.18
-11.92
-14.31
-11.95
-1.40
15.52
35.01
52.75
66.83
79.40
96.06
122.63
161.44
207.65
250.47
276.59
274.60
239.48
174.86
92.13
4.97
-68.74
-115.46
-130.41
-118.54
-92.07
-65.17
-48.86
-48.22
-62.47
-87.06
-117.05
-147.88
-175.17
-194.48
-201.52
-193.01
-168.01
-128.65
-79.58
-27.63
20.38
59.31
86.76
102.89
109.36
108.01
100.09
86.51
67.92
45.81
22.71
1.86
-13.58
-21.48
-21.19
-13.45
0.04
16.78
33.92
48.72
59.04
63.83
63.32
58.83
52.25
45.54
40.10
36.63
35.02
34.71
34.84
34.42
32.69
29.09
23.51
16.27
8.00
-0.38
-7.78
-13.17
-15.99
-16.15
-14.28
-11.37
-8.41
-6.10
-4.67
-3.83
-3.13
-2.33
-1.41
-0.58
0.19
1.42
3.77
7.82
13.74
21.24
29.59
38.09
46.38
54.59
63.10
71.39
78.34
82.92
84.87
84.69
82.93
79.48
73.18
62.05
42.65
12.25
-29.43
-79.37
-131.99
-180.85
-219.90
-243.97
-249.07
-235.09
-204.57
-161.70
-111.20
-58.37
-8.99
31.52
59.45
73.47
71.42
51.42
12.89
-42.51
-111.53
-189.86
-272.62
-354.19
-411.67
-424.23
-383.92
-302.07
-200.93
-100.01
-9.31
69.05
136.77
196.18
246.02
283.56
308.89
324.34
332.80
336.52
336.32
331.64
321.12
301.30
268.94
220.40
160.72
98.28
40.87
-6.29
-41.18
-64.21
-78.26
-86.89
-92.18
-95.24
-96.88
-98.35
-100.75
-104.98
-111.36
-119.29
-131.18
-142.58
-149.24
-148.31
-139.06
-122.28
-99.77
-74.03
-47.12
-20.80
3.96
25.50
41.35
48.72
45.14
32.50
11.17
-17.56
-51.71
-87.42
-119.62
-142.01
-148.32
-135.07
-103.64
-61.16
-17.38
18.35
40.87
49.94
49.07
43.07
35.21
26.38
15.37
1.33
-15.30
-32.74
-48.93
-62.31
-72.26
-78.73
-82.98
-84.41
-81.91
-74.44
-61.33
-42.94
-20.63
3.13
25.33
42.99
53.91
56.95
52.32
41.58
27.11
11.76
-2.13
-12.93
-20.11
-23.95
-25.50
-25.68
-25.13
-24.28
-23.36
-22.88
-23.10
-23.25
-20.92
-12.63
5.06
33.48
68.08
101.75
127.85
144.43
156.56
174.08
206.51
257.88
323.90
393.10
451.75
488.86
498.64
479.50
430.41
349.79
238.62
104.19
-38.80
-170.97
-274.89
-341.40
-368.74
-363.39
-337.51
-301.64
-260.00
-211.26
-153.74
-90.52
-30.17
17.87
48.97
63.90
69.36
74.86
88.77
115.01
151.27
184.66
203.41
199.02
169.43
120.82
64.20
10.14
-35.37
-71.81
-101.82
-127.36
-149.50
-170.58
-191.47
-212.80
-233.72
-250.38
-256.49
-245.83
-215.25
-168.27
-114.55
-63.69
-26.41
-6.62
0.67
5.09
14.56
32.32
56.20
82.12
107.16
131.73
155.61
176.61
189.72
188.31
167.45
126.35
69.94
6.46
-50.13
-87.97
-102.37
-97.48
-83.97
-73.54
-73.99
-86.32
-106.11
-127.03
-144.90
-158.96
-170.81
-182.50
-194.45
-206.33
-215.02
-217.71
-213.21
-202.57
-188.35
-172.92
-158.00
-144.25
-131.49
-119.11
-107.03
-95.79
-86.65
-80.97
-79.11
-80.66
-84.39
-88.74
-92.07
-93.28
-91.68
-86.83
-80.83
-74.60
-68.53
-62.64
-56.80
-50.68
-44.05
-36.75
-28.69
-19.94
-10.36
-0.03
10.75
21.62
32.49
43.56
55.29
68.27
82.88
99.32
117.17
135.62
153.73
170.94
187.17
202.79
218.44
234.89
253.18
274.18
298.06
323.65
348.11
367.18
376.40
372.87
356.32
329.55
297.14
263.73
232.51
204.68
179.98
157.70
137.55
119.62
104.06
90.57
78.21
65.88
52.83
39.10
25.42
12.94
2.53
-5.49
-11.54
-16.56
-21.49
-26.99
-33.12
-39.37
-44.94
-49.14
-51.69
-52.79
-53.01
-52.90
-52.82
-52.81
-52.66
-52.03
-50.77
-48.86
-46.51
-43.99
-41.52
-39.27
-37.30
-35.58
-34.06
-32.70
-31.48
-30.38
-29.35
-28.32
-27.24
-26.11
-24.96
-23.89
-23.04
-22.44
-22.04
-21.69
-21.18
-20.39
-19.36
-18.23
-17.23
-16.53
-16.12
-15.88
-15.66
-15.34
-14.91
-14.45
-14.11
-13.95
-13.99
-14.12
-14.24
-14.25
-14.11
-13.80
-13.28
-12.60
-11.92
-11.48
-11.52
-12.21
-13.46
-14.91
-16.02
-16.23
-15.26
-13.21
-10.53
-7.81
-5.56
-4.03
-3.15
-2.62
-2.15
-1.55
-0.85
-0.21
0.17
0.17
-0.18
-0.75
-1.37
-1.95
-2.44
-2.84
-3.10
-3.19
-3.11
-2.82
-2.36
-1.85
-1.42
-1.16
-1.12
-1.25
-1.46
-1.69
-1.87
-2.01
-2.17
-2.47
-2.98
-3.66
-4.37
-4.91
-5.19
-5.19
-5.12
-5.22
-5.66
-6.44
-7.38
-8.16
-8.53
-8.40
-7.78
-6.87
-5.84
-4.78
-3.70
-2.64
-1.59
-0.61
0.23
0.84
1.16
1.15
0.88
0.38
-0.28
-1.00
-1.67
-2.30
-2.94
-3.68
-4.56
-5.55
-6.57
-7.48
-8.25
-8.89
-9.54
-10.36
-11.49
-12.92
-14.57
-16.29
-17.83
-18.94
-19.38
-18.93
-17.48
-15.02
-11.75
-8.03
-4.25
-0.77
2.12
4.30
5.82
6.76
7.22
7.22
6.79
5.93
4.68
3.11
1.36
-0.38
-2.02
-3.41
-4.51
-5.27
-5.65
-5.65
-5.28
-4.64
-3.85
-3.11
-2.46
-1.90
-1.32
-0.57
0.37
1.34
2.10
2.33
1.84
0.69
-0.97
-2.85
-4.75
-6.56
-8.27
-9.92
-11.44
-12.75
-13.74
-14.32
-14.46
-14.11
-13.19
-11.59
-9.27
-6.36
-3.13
-0.04
2.51
4.26
5.21
5.56
5.62
5.66
5.80
6.05
6.32
6.53
6.60
6.49
6.18
5.73
5.21
4.64
4.07
3.49
2.93
2.42
2.00
1.68
1.42
1.16
0.80
0.36
-0.16
-0.72
-1.31
-1.98
-2.76
-3.65
-4.55
-5.34
-5.88
-6.13
-6.15
-6.07
-6.03
-6.14
-6.50
-7.05
-7.78
-8.52
-9.12
-9.38
-9.07
-8.08
-6.47
-4.40
-2.14
0.02
1.87
3.28
4.24
4.80
5.05
5.08
4.93
4.58
4.01
3.22
2.28
1.33
0.57
0.13
0.08
0.35
0.82
1.37
1.94
2.48
2.91
3.16
3.14
2.80
2.16
1.36
0.52
-0.23
-0.89
-1.56
-2.35
-3.30
-4.34
-5.31
-6.00
-6.30
-6.28
-6.08
-5.98
-6.15
-6.68
-7.44
-8.16
-8.51
-8.24
-7.21
-5.48
-3.31
-1.00
1.12
2.82
4.03
4.69
4.81
4.49
3.91
3.21
2.64
2.28
2.12
2.11
2.10
2.01
1.81
1.58
1.35
1.21
1.15
1.13
1.12
1.03
0.83
0.50
0.01
-0.55
-1.07
-1.47
-1.71
-1.76
-1.77
-1.85
-2.11
-2.52
-3.00
-3.33
-3.44
-3.35
-3.17
-3.14
-3.49
-4.30
-5.54
-7.08
-8.61
-9.76
-10.14
-9.53
-8.01
-5.98
-4.15
-3.23
-3.65
-5.26
-7.38
-9.02
-9.29
-7.83
-4.90
-1.30
1.92
3.93
4.31
3.11
0.77
-1.98
-4.39
-5.78
-5.73
-4.24
-1.66
1.34
4.11
6.26
7.89
9.50
11.60
14.40
17.56
20.38
22.02
21.96
20.23
17.30
13.82
10.25
6.86
3.60
0.43
-2.56
-5.24
-7.39
-8.91
-9.84
-10.30
-10.39
-10.15
-9.54
-8.48
-6.96
-5.08
-3.01
-1.03
0.63
1.74
2.22
2.17
1.81
1.43
1.34
1.69
2.41
3.26
3.88
4.04
3.67
2.95
2.14
1.56
1.40
1.65
2.21
2.87
3.42
3.74
3.78
3.52
3.01
2.29
1.35
0.25
-0.97
-2.29
-3.59
-4.82
-5.87
-6.70
-7.25
-7.47
-7.31
-6.78
-6.03
-5.29
-4.87
-4.95
-5.52
-6.28
-6.78
-6.61
-5.54
-3.66
-1.34
0.91
2.68
3.75
4.12
3.99
3.61
3.21
2.94
2.82
2.81
2.81
2.83
2.85
2.93
3.03
3.07
2.90
2.47
1.78
0.88
-0.02
-0.82
-1.40
-1.78
-2.00
-2.15
-2.23
-2.21
-2.05
-1.67
-1.06
-0.27
0.54
1.23
1.60
1.53
0.92
-0.19
-1.69
-3.42
-5.22
-6.92
-8.38
-9.48
-10.14
-10.33
-10.01
-9.18
-7.90
-6.28
-4.42
-2.50
-0.60
1.17
2.71
3.93
4.74
5.02
4.76
4.03
2.97
1.86
0.94
0.35
0.12
0.22
0.53
1.01
1.58
2.13
2.56
2.74
2.57
2.05
1.35
0.66
0.28
0.33
0.77
1.42
2.04
2.39
2.34
1.88
1.00
-0.18
-1.55
-2.97
-4.25
-5.21
-5.74
-5.86
-5.72
-5.61
-5.69
-6.08
-6.67
-7.21
-7.50
-7.34
-6.72
-5.68
-4.34
-2.80
-1.14
0.46
1.89
2.98
3.68
4.05
4.21
4.32
4.47
4.70
4.92
5.09
5.09
4.86
4.38
3.66
2.79
1.92
1.21
0.74
0.46
0.23
-0.10
-0.64
-1.39
-2.26
-3.15
-4.00
-4.73
-5.25
-5.43
-5.20
-4.57
-3.67
-2.67
-1.78
-1.05
-0.49
-0.04
0.32
0.51
0.43
-0.00
-0.76
-1.71
-2.57
-3.07
-2.99
-2.29
-1.01
0.59
2.20
3.48
4.22
4.39
4.09
3.53
2.94
2.59
2.54
2.71
2.78
2.39
1.32
-0.36
-2.21
-3.57
-3.85
-2.82
-0.81
1.31
2.38
1.24
-2.89
-10.24
-20.30
-31.93
-43.60
-53.82
-61.76
-67.61
-72.42
-77.52
-83.66
-90.32
-95.58
-96.50
-90.18
-74.85
-50.66
-19.88
13.53
44.82
69.70
85.44
91.56
89.69
82.90
74.51
67.20
62.35
60.10
59.69
59.90
59.40
56.95
51.59
42.85
30.92
16.73
1.83
-11.94
-22.85
-29.69
-32.02
-30.21
-25.41
-19.04
-12.40
-6.28
-0.96
3.36
6.33
7.13
4.84
-1.06
-10.20
-21.28
-32.46
-42.08
-49.35
-54.37
-57.91
-60.69
-62.76
-63.36
-61.17
-54.85
-43.67
-28.04
-9.45
9.70
26.85
40.02
48.27
51.85
51.96
50.12
47.64
45.37
43.43
41.47
39.09
36.00
32.36
28.66
25.51
23.32
22.27
22.12
22.44
22.86
23.14
23.24
23.14
22.80
21.96
20.44
18.13
15.13
11.86
8.80
6.42
4.97
4.54
4.93
5.78
6.68
7.25
7.28
6.72
5.72
4.50
3.22
2.01
0.87
-0.22
-1.23
-2.09
-2.76
-3.27
-3.76
-4.39
-5.32
-6.51
-7.75
-8.75
-9.13
-8.71
-7.44
-5.50
-3.23
-1.01
0.81
2.06
2.63
2.60
2.12
1.33
0.42
-0.46
-1.15
-1.52
-1.52
-1.22
-0.77
-0.33
0.01
0.24
0.39
0.50
0.61
0.69
0.74
0.74
0.67
0.52
0.27
-0.13
-0.70
-1.45
-2.36
-3.36
-4.39
-5.34
-6.15
-6.72
-7.02
-7.01
-6.73
-6.34
-5.99
-5.85
-5.97
-6.26
-6.48
-6.40
-5.84
-4.81
-3.49
-2.15
-1.06
-0.41
-0.20
-0.34
-0.64
-0.91
-0.98
-0.76
-0.22
0.56
1.52
2.58
3.58
4.36
4.76
4.71
4.27
3.63
2.99
2.56
2.37
2.24
1.98
1.43
0.64
-0.20
-0.83
-1.08
-0.97
-0.72
-0.64
-0.89
-1.49
-2.28
-3.04
-3.63
-4.04
-4.40
-4.89
-5.65
-6.64
-7.76
-8.85
-9.70
-10.18
-10.14
-9.44
-7.99
-5.80
-2.99
0.10
3.04
5.47
7.10
7.90
8.01
7.63
6.98
6.17
5.25
4.29
3.38
2.64
2.21
2.18
2.50
3.09
3.76
4.28
4.53
4.42
4.05
3.59
3.25
3.10
3.16
3.27
3.28
3.09
2.73
2.34
2.02
1.86
1.79
1.73
1.59
1.27
0.72
-0.12
-1.28
-2.76
-4.49
-6.31
-7.96
-9.15
-9.68
-9.43
-8.47
-7.01
-5.32
-3.64
-2.11
-0.79
0.38
1.48
2.53
3.57
4.54
5.41
6.17
6.73
6.97
6.77
6.06
4.88
3.41
1.98
0.90
0.36
0.31
0.60
0.99
1.32
1.58
1.79
2.03
2.29
2.50
2.52
2.28
1.76
1.05
0.25
-0.49
-1.13
-1.61
-1.90
-2.04
-2.09
-2.12
-2.23
-2.54
-3.11
-3.98
-5.05
-6.08
-6.76
-6.89
-6.34
-5.18
-3.69
-2.17
-0.86
0.11
0.78
1.30
1.80
2.33
2.83
3.15
3.15
2.78
2.04
1.04
-0.13
-1.29
-2.31
-3.04
-3.40
-3.36
-2.97
-2.33
-1.51
-0.54
0.65
2.08
3.68
5.24
6.44
6.95
6.50
5.08
2.82
0.08
-2.65
-4.84
-6.04
-6.02
-4.89
-3.07
-1.17
0.20
0.67
0.15
-1.07
-2.52
-3.67
-4.15
-3.80
-2.74
-1.21
0.44
1.88
2.92
3.48
3.65
3.68
3.83
4.31
5.15
6.22
7.26
7.97
8.11
7.59
6.51
5.18
4.01
3.35
3.42
4.16
5.31
6.45
7.17
7.23
6.66
5.71
4.63
3.65
2.76
1.93
1.12
0.36
-0.24
-0.51
-0.34
0.15
0.73
1.03
0.79
-0.05
-1.33
-2.76
-3.99
-4.76
-5.00
-4.76
-4.20
-3.40
-2.44
-1.29
-0.00
1.36
2.68
3.88
4.92
5.80
6.52
7.03
7.18
6.80
5.83
4.35
2.66
1.17
0.24
0.03
0.48
1.25
2.00
2.46
2.59
2.53
2.50
2.64
2.91
3.21
3.38
3.30
2.96
2.46
1.91
1.41
0.99
0.60
0.16
-0.44
-1.31
-2.50
-3.93
-5.41
-6.64
-7.38
-7.41
-6.66
-5.25
-3.45
-1.63
-0.16
0.81
1.28
1.47
1.67
2.17
3.05
4.22
5.38
6.20
6.39
5.89
4.86
3.65
2.62
2.03
1.92
2.09
2.25
2.08
1.47
0.58
-0.28
-0.81
-0.82
-0.35
0.39
1.17
1.76
2.08
2.14
1.98
1.59
0.94
-0.02
-1.24
-2.59
-3.85
-4.84
-5.44
-5.69
-5.77
-5.88
-6.12
-6.49
-6.80
-6.77
-6.21
-5.05
-3.42
-1.56
0.21
1.64
2.58
2.99
3.06
2.98
2.91
2.88
2.84
2.60
2.07
1.25
0.29
-0.49
-0.88
-0.78
-0.22
0.62
1.52
2.29
2.87
3.19
3.32
3.29
3.10
2.82
2.49
2.13
1.76
1.40
0.98
0.45
-0.20
-0.95
-1.71
-2.41
-2.98
-3.37
-3.54
-3.61
-3.61
-3.62
-3.68
-3.72
-3.67
-3.37
-2.68
-1.58
-0.19
1.30
2.64
3.62
4.18
4.29
4.02
3.53
2.98
2.48
2.17
2.04
2.02
2.08
2.15
2.18
2.22
2.32
2.52
2.77
2.95
2.93
2.69
2.24
1.66
1.06
0.56
0.20
0.04
0.09
0.36
0.83
1.45
2.09
2.61
2.87
2.78
2.39
1.75
0.94
0.08
-0.80
-1.68
-2.52
-3.33
-4.07
-4.64
-4.95
-4.90
-4.43
-3.57
-2.35
-0.91
0.61
2.00
3.07
3.64
3.66
3.16
2.27
1.17
0.01
-1.10
-2.06
-2.77
-3.11
-3.00
-2.41
-1.52
-0.57
0.16
0.53
0.50
0.19
-0.27
-0.74
-1.08
-1.31
-1.42
-1.53
-1.79
-2.34
-3.23
-4.26
-5.08
-5.26
-4.67
-3.47
-2.23
-1.62
-2.02
-3.50
-5.72
-8.17
-10.27
-11.64
-11.87
-10.74
-8.16
-4.35
0.02
4.04
6.69
7.37
6.01
3.16
-0.18
-2.93
-4.12
-3.26
-0.32
4.02
8.67
12.28
13.77
12.65
9.23
4.46
-0.39
-4.11
-5.94
-5.69
-3.64
-0.47
2.96
5.82
7.47
7.61
6.33
4.02
1.33
-1.06
-2.59
-2.82
-1.76
0.30
2.68
4.58
5.30
4.56
2.49
-0.40
-3.43
-6.01
-7.71
-8.33
-7.81
-6.31
-4.04
-1.45
0.89
2.44
2.88
2.22
0.83
-0.59
-1.43
-1.25
0.05
2.21
4.76
7.15
8.94
9.78
9.59
8.40
6.46
4.21
2.20
0.97
0.89
2.04
4.14
6.63
8.81
10.08
10.06
8.65
6.15
3.12
0.35
-1.26
-0.97
1.53
5.92
11.27
16.15
19.23
19.62
17.13
12.36
6.42
0.69
-3.52
-5.15
-3.66
0.99
8.17
16.79
25.42
32.78
37.86
40.24
40.11
38.27
36.08
35.11
36.71
41.70
50.14
61.08
72.81
83.30
90.89
95.04
96.25
95.93
96.07
98.65
104.98
115.26
128.45
142.71
156.40
168.11
177.19
183.98
189.69
195.74
203.05
211.40
219.10
223.51
220.83
207.08
179.24
136.61
81.04
16.97
-49.85
-116.87
-178.81
-229.91
-265.76
-284.96
-288.92
-280.52
-262.53
-237.54
-208.48
-178.92
-153.92
-138.34
-134.44
-140.07
-149.40
-155.30
-152.82
-140.89
-121.76
-99.84
-79.23
-62.23
-49.08
-39.65
-34.11
-33.20
-37.44
-45.96
-56.70
-66.26
-71.02
-67.83
-55.62
-35.56
-10.86
14.41
36.50
52.73
62.34
65.31
62.35
54.17
41.46
24.88
5.83
-13.23
-28.97
-37.64
-36.75
-25.77
-7.05
14.87
34.59
47.25
49.94
41.67
22.98
-4.62
-38.12
-73.59
-105.57
-128.18
-137.38
-132.76
-118.28
-100.33
-86.22
-77.30
-71.63
-65.50
-56.47
-45.66
-37.29
-35.79
-41.23
-50.17
-55.23
-49.93
-32.36
-6.12
21.69
44.10
57.91
64.34
67.46
71.93
80.14
91.50
103.87
114.94
123.30
128.64
132.07
133.42
131.85
125.39
111.31
87.38
52.99
9.85
-37.82
-83.95
-122.27
-147.83
-158.25
-154.23
-138.99
-117.37
-94.94
-76.89
-67.96
-71.72
-89.35
-118.72
-154.28
-188.17
-212.87
-224.07
-221.14
-207.11
-186.60
-163.02
-136.98
-107.07
-71.28
-28.44
17.94
63.03
102.38
133.29
155.41
169.94
178.16
180.88
178.59
171.50
160.68
147.66
133.90
120.84
109.41
99.79
91.63
84.44
77.73
71.42
65.75
60.37
55.21
50.52
46.71
44.54
44.84
47.94
53.40
61.69
68.94
71.63
67.93
57.39
41.35
22.06
2.03
-16.50
-31.06
-40.39
-43.70
-40.55
-32.75
-23.76
-16.99
-13.21
-9.21
1.75
24.48
59.25
101.51
142.23
171.73
183.73
177.78
152.83
118.36
85.64
55.86
29.43
7.33
-8.00
-13.37
-6.00
14.62
46.19
82.06
113.63
134.59
141.95
136.83
121.32
100.59
79.91
62.99
49.87
38.28
26.63
14.50
2.82
-6.97
-13.68
-17.48
-19.37
-21.21
-24.41
-28.74
-33.03
-35.97
-36.95
-36.03
-34.19
-32.63
-32.51
-34.34
-37.49
-40.81
-43.23
-44.17
-43.62
-42.04
-40.11
-38.30
-36.62
-34.54
-31.46
-26.91
-20.87
-13.83
-6.66
-0.52
3.36
4.05
1.49
-2.97
-6.54
-5.74
2.13
17.48
37.82
58.43
74.32
82.38
82.55
77.59
71.35
66.93
65.32
65.53
65.43
62.94
56.70
46.09
30.82
10.83
-13.79
-42.41
-73.96
-106.93
-139.94
-172.38
-204.57
-237.01
-268.86
-296.89
-315.35
-317.71
-299.54
-261.06
-207.88
-149.47
-95.73
-53.66
-25.62
-9.84
-2.53
-0.21
-0.98
-4.25
-9.91
-17.24
-24.92
-31.55
-36.41
-39.70
-42.53
-46.14
-51.12
-57.15
-63.00
-67.16
-68.64
-67.46
-64.68
-61.97
-60.71
-61.30
-63.07
-64.49
-63.99
-60.59
-54.37
-46.27
-37.69
-29.95
-23.76
-19.15
-15.65
-12.56
-9.42
-6.03
-2.61
0.43
2.55
3.24
2.17
-0.76
-5.27
-10.69
-15.99
-20.08
-21.98
-21.13
-17.39
-11.09
-2.77
6.92
17.23
27.43
36.76
44.46
49.93
52.82
53.09
51.04
47.19
42.19
36.70
31.26
26.21
21.76
18.00
14.99
12.80
11.41
10.72
10.45
10.20
9.51
8.02
5.52
2.05
-2.06
-6.30
-10.04
-12.64
-13.76
-13.45
-12.11
-10.36
-8.82
-7.85
-7.40
-7.15
-6.62
-5.43
-3.36
-0.38
3.34
7.49
11.71
15.59
18.78
21.02
22.20
22.45
22.02
21.28
20.59
20.20
20.17
20.30
20.22
19.49
17.82
15.16
11.82
8.42
5.71
4.24
4.20
5.28
6.78
7.82
7.69
6.05
2.99
-1.05
-5.52
-9.84
-13.55
-16.29
-17.87
-18.21
-17.39
-15.71
-13.53
-11.28
-9.30
-7.74
-6.68
-6.12
-6.18
-7.19
-9.72
-14.48
-22.21
-33.46
-48.38
-66.66
-87.26
-108.51
-128.22
-143.88
-153.09
-153.94
-145.35
-127.33
-100.96
-68.22
-31.73
5.70
41.40
73.20
99.60
119.87
134.06
142.70
146.74
147.17
144.89
140.69
135.21
129.11
122.98
117.37
112.51
108.34
104.49
100.59
96.44
92.04
87.42
82.21
75.55
66.33
53.78
38.03
20.32
2.56
-13.53
-27.26
-39.14
-50.37
-61.83
-73.53
-84.88
-95.54
-106.19
-118.38
-133.37
-150.75
-167.54
-178.86
-179.89
-167.99
-143.93
-111.55
-76.01
-41.75
-11.27
14.81
36.90
55.24
69.61
79.45
84.51
85.26
82.97
79.21
75.30
71.85
68.64
65.04
60.39
54.40
47.39
40.20
33.80
29.01
26.12
24.82
24.42
24.12
23.26
21.62
19.24
16.44
13.58
10.99
8.86
7.34
6.45
6.19
6.50
7.23
8.21
9.27
10.28
11.15
11.86
12.38
12.67
12.71
12.42
11.79
10.83
9.69
8.61
7.75
7.18
6.79
6.42
5.88
5.20
4.53
4.08
4.04
4.34
4.75
4.97
4.84
4.35
3.74
3.18
2.80
2.59
2.44
2.20
1.80
1.26
0.61
-0.06
-0.73
-1.45
-2.21
-3.01
-3.88
-4.74
-5.54
-6.09
-6.14
-5.46
-3.93
-1.56
1.39
4.54
7.49
9.84
11.34
11.95
11.77
10.99
9.84
8.47
6.85
4.91
2.59
-0.09
-2.85
-5.35
-7.20
-8.18
-8.24
-7.53
-6.30
-4.73
-3.07
-1.44
-0.07
0.92
1.45
1.53
1.31
0.99
0.74
0.52
0.16
-0.57
-1.81
-3.43
-5.08
-6.33
-6.88
-6.68
-6.03
-5.34
-5.00
-5.19
-5.81
-6.54
-6.94
-6.60
-5.21
-2.76
0.60
4.41
8.12
11.19
13.31
14.45
14.73
14.43
13.76
12.88
11.78
10.43
8.77
6.79
4.58
2.24
-0.02
-1.99
-3.38
-4.01
-3.79
-2.79
-1.15
0.83
2.79
4.33
5.08
4.88
3.80
2.19
0.60
-0.49
-0.83
-0.53
0.06
0.55
0.66
0.34
-0.29
-1.03
-1.82
-2.66
-3.63
-4.77
-5.98
-7.07
-7.84
-8.06
-7.62
-6.57
-5.01
-3.13
-1.09
0.94
2.77
4.21
5.06
5.19
4.65
3.67
2.56
1.63
1.02
0.80
0.89
1.19
1.61
2.09
2.52
2.83
2.89
2.65
2.15
1.48
0.73
-0.08
-0.87
-1.62
-2.24
-2.65
-2.84
-2.90
-2.98
-3.23
-3.68
-4.17
-4.49
-4.42
-3.91
-3.07
-2.11
-1.25
-0.61
-0.21
-0.04
-0.09
-0.32
-0.63
-0.83
-0.60
0.39
2.31
5.00
7.99
10.62
12.32
12.80
12.10
10.58
8.71
6.90
5.32
3.99
2.82
1.73
0.69
-0.24
-0.94
-1.27
-1.18
-0.65
0.22
1.28
2.38
3.32
3.98
4.33
4.41
4.30
4.15
4.11
4.22
4.46
4.68
4.67
4.28
3.46
2.30
1.04
-0.07
-0.91
-1.51
-2.04
-2.76
-3.97
-5.78
-8.09
-10.59
-12.70
-13.74
-13.11
-10.53
-6.15
-0.68
4.86
9.29
11.64
11.37
8.51
3.69
-2.05
-7.43
-11.22
-12.47
-10.76
-6.22
0.41
8.00
15.30
21.12
24.66
25.55
23.91
20.12
14.79
8.60
2.26
-3.47
-7.89
-10.43
-10.98
-9.80
-7.68
-5.49
-3.98
-3.49
-3.91
-4.83
-5.79
-6.51
-6.97
-7.30
-7.66
-8.14
-8.74
-9.37
-9.97
-10.40
-10.51
-10.15
-9.14
-7.35
-4.74
-1.37
2.51
6.43
9.89
12.36
13.50
13.32
12.13
10.48
8.98
7.98
7.43
7.09
6.52
5.50
4.08
2.64
1.61
1.24
1.40
1.63
1.39
0.29
-1.68
-4.15
-6.54
-8.31
-9.11
-8.79
-7.41
-5.06
-1.97
1.58
5.21
8.43
10.73
11.67
10.96
8.52
4.59
-0.27
-5.21
-9.26
-11.61
-11.83
-10.05
-6.94
-3.45
-0.49
1.34
1.86
1.28
0.01
-1.47
-2.71
-3.36
-3.19
-2.14
-0.35
1.77
3.81
5.39
6.38
6.93
7.39
8.10
9.21
10.58
11.85
12.59
12.49
11.42
9.50
7.04
4.34
1.68
-0.81
-3.05
-5.07
-6.87
-8.46
-9.72
-10.54
-10.80
-10.56
-10.00
-9.41
-9.11
-9.17
-9.52
-9.83
-9.74
-9.01
-7.55
-5.47
-2.92
-0.09
2.91
5.88
8.62
10.87
12.42
13.15
13.09
12.35
11.13
9.65
8.10
6.65
5.51
4.77
4.44
4.40
4.47
4.41
4.16
3.71
3.19
2.80
2.69
2.96
3.64
4.65
5.91
7.32
8.76
10.16
11.47
12.60
13.50
14.16
14.58
14.89
15.27
15.91
16.89
18.22
19.63
20.84
21.68
22.27
22.90
24.02
26.06
29.35
33.99
39.65
45.63
51.16
55.65
58.97
61.56
64.25
67.97
73.22
79.47
85.40
89.56
91.15
90.39
88.51
87.28
88.37
92.48
98.10
102.40
102.49
96.88
86.02
71.99
57.66
45.67
37.12
29.05
16.60
-4.47
-35.54
-75.06
-120.04
-167.09
-212.37
-250.79
-278.56
-291.11
-283.85
-254.38
-206.23
-149.93
-99.33
-65.24
-51.35
-58.06
-82.77
-121.98
-172.47
-232.24
-300.06
-373.45
-447.23
-492.67
-486.09
-423.23
-324.32
-218.14
-123.74
-46.61
15.87
68.66
115.24
152.17
175.68
183.35
177.50
164.89
153.66
151.46
164.45
195.79
242.44
289.41
320.36
323.71
297.72
249.78
191.71
134.94
86.57
46.96
12.77
-18.78
-47.66
-71.89
-89.90
-102.11
-108.48
-109.16
-105.30
-98.35
-88.79
-75.30
-55.93
-29.63
2.57
37.33
69.10
92.70
106.66
111.11
112.39
117.92
130.94
148.24
162.40
165.61
156.27
141.27
133.00
142.78
173.47
217.74
262.11
293.87
304.32
291.77
259.83
214.35
160.54
101.24
38.33
-25.07
-83.94
-135.29
-178.29
-214.70
-248.00
-282.25
-321.09
-366.13
-415.89
-450.82
-453.43
-417.12
-351.28
-272.97
-196.41
-129.44
-74.15
-29.34
7.58
36.83
58.19
71.82
80.00
86.23
93.62
104.29
119.16
138.13
158.23
176.75
190.42
197.86
198.99
194.23
183.87
168.17
147.58
120.69
89.23
55.17
21.39
-9.08
-33.98
-52.19
-63.73
-69.42
-70.93
-70.08
-68.65
-67.39
-66.35
-65.31
-64.06
-62.51
-60.58
-58.43
-56.28
-54.60
-53.67
-53.59
-54.58
-57.00
-61.30
-67.66
-76.10
-86.26
-99.07
-112.59
-124.72
-133.36
-136.55
-132.70
-120.76
-100.50
-72.59
-36.88
2.63
42.47
79.65
111.83
137.43
155.81
167.57
173.70
175.28
173.48
169.85
165.57
161.25
156.80
151.63
144.85
135.44
122.23
104.23
81.53
54.97
26.17
-2.76
-29.25
-50.61
-64.41
-69.56
-65.81
-53.53
-33.78
-8.15
21.26
52.11
82.16
109.46
131.14
144.88
149.07
142.98
126.67
100.37
64.26
17.85
-34.75
-91.12
-148.22
-202.24
-248.64
-282.71
-300.55
-299.81
-279.89
-242.18
-192.00
-135.79
-80.30
-31.47
5.99
28.53
33.76
20.51
-1.59
-25.11
-44.71
-59.04
-69.25
-76.35
-80.15
-79.79
-74.75
-65.36
-54.58
-45.59
-40.56
-39.92
-42.28
-45.17
-46.20
-43.74
-37.43
-29.15
-21.25
-15.70
-13.75
-15.91
-22.05
-30.81
-39.00
-41.77
-34.91
-16.25
12.52
45.91
76.51
97.92
107.31
106.14
98.70
89.15
79.90
71.15
62.16
52.52
42.93
34.86
29.44
26.70
25.27
23.37
19.32
12.78
4.49
-4.11
-11.54
-17.08
-20.97
-24.30
-28.46
-34.62
-43.10
-53.37
-64.42
-74.94
-83.91
-90.64
-95.20
-97.20
-96.77
-93.24
-86.06
-74.96
-60.06
-42.06
-22.20
-2.04
16.96
33.47
46.78
56.59
63.04
66.56
67.69
66.91
64.67
61.36
57.19
52.42
47.11
41.36
35.30
28.96
22.43
15.81
9.23
2.78
-3.45
-9.41
-15.10
-20.58
-25.94
-31.28
-36.72
-42.32
-48.20
-54.42
-60.93
-67.71
-74.79
-82.21
-90.02
-98.28
-107.05
-116.42
-126.51
-137.15
-148.30
-159.96
-172.24
-185.26
-199.06
-213.73
-229.21
-245.37
-261.61
-277.22
-291.46
-303.45
-312.15
-316.25
-314.08
-303.51
-284.49
-256.24
-218.28
-170.82
-114.99
-52.92
12.23
76.42
135.09
183.61
218.29
236.64
237.94
223.41
196.28
161.30
124.07
90.34
65.30
53.08
55.89
73.75
104.41
143.66
185.96
225.27
256.01
273.91
276.80
264.65
239.40
204.47
163.89
121.66
81.26
45.29
15.28
-8.23
-25.65
-38.12
-47.17
-54.41
-61.29
-68.75
-77.22
-86.63
-96.54
-106.24
-115.09
-122.56
-128.30
-132.15
-134.06
-134.03
-132.11
-128.42
-123.10
-116.43
-108.80
-100.64
-92.36
-84.23
-76.35
-68.57
-60.64
-52.28
-43.37
-34.02
-24.63
-15.69
-7.66
-0.75
5.23
10.76
16.45
22.77
29.89
37.62
45.59
53.49
61.38
69.77
79.44
91.17
105.25
121.34
138.52
155.62
171.74
186.54
200.38
214.02
228.41
244.44
262.87
284.17
308.05
332.98
355.94
372.92
380.02
374.98
358.07
332.07
301.09
269.03
238.44
210.29
184.66
161.64
141.93
126.50
115.89
109.56
105.72
101.94
96.09
87.16
75.56
62.86
50.89
40.85
32.77
25.52
17.56
7.76
-3.86
-16.08
-27.01
-35.00
-39.23
-39.89
-37.93
-34.34
-29.62
-23.80
-16.62
-8.14
0.93
9.10
14.31
14.31
7.27
-7.60
-29.58
-56.24
-83.81
-107.95
-124.46
-130.52
-125.11
-108.91
-83.82
-52.49
-17.99
16.12
45.90
68.28
80.94
83.08
75.98
62.93
48.55
37.58
33.82
39.44
56.80
86.91
129.31
181.70
239.50
296.07
344.08
377.61
394.20
398.77
399.58
405.50
422.78
453.12
493.62
538.65
582.07
618.87
649.64
676.14
700.15
722.38
742.10
757.61
767.43
771.17
745.29
674.86
552.89
383.73
182.73
-28.85
-230.96
-409.59
-557.81
-674.35
-757.63
-808.56
-830.11
-827.29
-806.71
-775.53
-740.15
-705.29
-673.73
-643.64
-612.64
-578.59
-540.65
-499.60
-457.50
-416.87
-379.92
-347.89
-319.22
-291.81
-263.54
-233.08
-200.48
-167.22
-135.64
-108.99
-90.17
-80.23
-78.86
-84.46
-94.71
-107.38
-120.42
-132.73
-144.23
-155.32
-166.33
-177.64
-189.50
-201.52
-211.95
-217.19
-212.65
-194.50
-161.88
-118.38
-71.46
-29.80
0.12
16.40
21.88
21.71
20.26
19.16
17.16
12.11
2.91
-9.35
-21.78
-31.24
-35.60
-34.37
-27.38
-15.01
1.92
21.36
39.70
52.46
55.93
49.31
35.78
21.14
10.99
8.29
12.34
19.92
27.56
33.34
37.30
40.42
43.22
45.03
44.57
41.08
35.18
28.59
23.31
20.93
21.58
24.17
26.83
27.93
26.73
23.72
20.19
17.64
17.12
18.63
21.32
23.87
25.19
24.96
23.76
22.63
22.65
24.37
27.60
31.55
35.30
38.26
40.49
42.56
45.09
48.17
51.09
52.18
49.44
41.32
27.36
8.40
-13.66
-36.80
-59.26
-79.89
-98.55
-115.65
-131.73
-147.31
-162.93
-178.80
-194.12
-206.47
-212.67
-208.71
-192.82
-166.73
-135.55
-105.89
-83.20
-68.87
-60.56
-53.84
-44.49
-30.53
-12.41
7.98
28.82
48.85
67.87
85.79
101.78
114.41
122.18
124.21
120.96
114.02
106.11
98.99
93.73
90.28
87.71
84.72
80.38
74.61
68.09
61.93
57.20
54.28
52.88
52.02
50.66
48.13
44.53
40.79
38.07
37.29
38.62
41.44
44.51
46.55
46.71
44.94
42.48
40.06
38.41
37.56
36.75
34.91
31.31
25.90
19.66
14.30
11.35
12.01
16.91
25.62
37.95
52.25
65.11
71.83
68.31
52.80
27.76
-0.60
-24.82
-39.08
-41.51
-34.28
-21.98
-8.80
2.64
11.80
18.87
23.52
24.64
20.89
11.70
-1.95
-17.64
-32.85
-45.36
-54.33
-60.16
-63.93
-66.77
-69.33
-71.86
-73.34
-73.23
-71.29
-68.01
-64.54
-62.18
-61.82
-63.71
-67.24
-71.04
-74.21
-75.46
-74.08
-70.02
-63.45
-54.51
-43.41
-30.12
-14.73
2.00
18.84
34.07
45.80
52.73
54.42
51.32
44.90
36.85
28.37
19.93
11.22
1.43
-10.04
-22.29
-35.07
-47.23
-57.60
-65.69
-71.80
-76.86
-82.05
-88.21
-95.90
-105.74
-117.62
-130.29
-141.00
-145.66
-140.36
-123.62
-97.60
-68.01
-42.16
-25.57
-19.89
-22.65
-28.89
-33.57
-33.77
-28.92
-19.85
-7.51
7.90
26.47
47.37
69.06
89.16
105.23
115.50
119.68
118.84
114.97
110.47
106.25
102.69
99.37
95.41
90.32
84.05
77.16
70.64
65.38
61.67
59.51
58.34
57.44
56.34
54.71
52.51
49.91
47.42
44.60
41.21
36.87
31.44
24.98
17.90
10.78
4.35
-0.86
-4.61
-6.85
-7.89
-8.18
-8.20
-8.36
-8.87
-9.67
-10.80
-12.23
-13.86
-15.69
-17.73
-19.84
-21.66
-22.61
-22.09
-19.81
-15.74
-10.31
-4.26
1.53
6.44
10.28
13.41
16.42
19.84
23.89
28.14
31.86
34.27
34.90
33.80
31.65
29.62
28.95
30.89
36.07
44.29
54.02
62.31
65.33
59.67
43.86
19.10
-10.70
-40.42
-65.13
-81.56
-88.70
-87.41
-79.38
-66.21
-49.09
-27.89
-3.88
21.11
45.23
66.88
84.94
98.61
107.37
110.80
108.75
101.15
88.67
72.89
55.93
40.00
26.92
18.05
14.17
15.72
22.08
32.03
43.86
55.60
65.39
72.00
75.10
75.25
73.44
69.36
62.28
51.77
38.25
22.99
7.65
-6.10
-17.02
-24.48
-30.66
-37.96
-47.33
-57.91
-68.01
-76.47
-82.98
-87.48
-89.58
-91.75
-96.03
-102.95
-111.59
-120.88
-130.64
-141.04
-151.76
-162.15
-176.24
-198.75
-232.69
-277.61
-330.34
-386.55
-441.57
-490.96
-505.66
-467.46
-378.55
-261.76
-144.24
-42.75
37.86
99.71
147.07
183.77
208.31
219.07
217.02
206.68
194.04
183.63
177.87
177.41
181.85
186.95
188.78
185.65
178.76
170.58
162.87
156.31
150.79
145.70
138.21
125.66
106.79
82.29
55.13
27.82
2.68
-18.26
-33.49
-43.65
-50.29
-55.21
-59.67
-63.88
-67.76
-71.02
-73.74
-76.31
-79.13
-81.17
-79.33
-69.65
-49.25
-18.79
17.36
52.47
80.69
99.55
110.19
115.36
116.23
110.99
95.73
67.98
29.28
-14.12
-53.59
-82.71
-98.16
-101.07
-95.04
-83.87
-69.39
-51.64
-30.35
-6.47
17.27
37.30
50.70
56.37
54.94
48.25
38.20
25.80
11.15
-5.61
-25.12
-47.66
-72.53
-97.30
-117.58
-127.85
-123.47
-102.88
-69.32
-30.14
5.83
31.65
44.75
47.22
43.84
39.17
35.56
32.81
29.49
24.68
18.89
13.72
10.70
10.28
11.62
13.12
13.01
10.37
5.36
-0.95
-7.10
-11.82
-14.46
-14.96
-13.85
-11.93
-9.87
-7.93
-5.91
-3.09
1.37
8.01
16.75
26.64
35.96
42.77
45.58
43.96
38.87
32.54
27.60
26.15
29.21
36.56
46.96
58.56
69.13
76.15
77.08
70.08
55.03
34.16
11.72
-7.62
-20.90
-28.08
-31.80
-35.34
-40.57
-46.74
-51.22
-51.49
-46.82
-39.23
-32.65
-31.35
-37.65
-50.72
-66.40
-78.61
-81.64
-72.39
-52.07
-25.53
-1.38
12.76
13.45
2.47
-14.58
-31.32
-43.21
-48.95
-49.43
-46.05
-39.36
-28.93
-14.20
4.73
26.65
49.72
72.03
92.61
111.42
129.01
145.28
158.58
165.91
163.96
151.40
130.01
104.14
78.60
56.65
38.83
23.57
8.91
-6.30
-21.25
-34.02
-42.82
-47.58
-50.20
-53.70
-61.08
-74.65
-96.08
-125.18
-159.15
-192.76
-219.40
-232.98
-230.09
-211.39
-179.09
-140.54
-104.68
-78.10
-62.77
-56.90
-57.11
-60.67
-64.93
-66.55
-61.69
-46.34
-17.62
24.65
77.13
132.91
183.01
218.89
235.04
230.60
210.25
182.53
156.26
137.26
126.26
120.54
116.46
111.96
107.03
102.67
98.81
92.70
79.59
53.94
13.16
-40.58
-100.21
-155.57
-196.30
-215.02
-209.65
-183.66
-145.51
-104.35
-67.01
-35.80
-8.58
19.27
51.82
87.48
125.61
159.22
181.01
185.63
171.28
140.05
97.16
49.52
4.02
-33.50
-60.36
-76.10
-82.19
-80.86
-73.83
-61.84
-45.14
-24.66
-2.62
16.68
29.18
32.69
28.28
19.76
11.67
6.90
5.41
4.98
2.66
-2.74
-10.00
-16.18
-18.37
-15.25
-7.83
1.13
8.34
11.17
8.77
2.24
-5.88
-12.56
-15.32
-13.13
-6.62
2.20
10.76
17.01
20.16
20.74
20.13
19.73
20.26
21.62
23.25
24.69
25.93
27.39
29.46
32.15
34.93
36.96
37.59
36.73
34.87
32.62
30.33
27.84
24.84
21.47
18.54
17.15
17.74
19.14
18.30
11.22
-5.20
-31.74
-66.42
-105.38
-144.13
-178.55
-204.96
-220.00
-220.75
-205.47
-174.77
-132.18
-83.44
-34.72
9.58
48.39
83.72
119.02
156.73
196.34
233.91
263.28
278.45
275.79
255.36
220.62
176.61
127.78
77.19
26.96
-20.16
-59.93
-87.19
-98.16
-92.88
-75.95
-55.00
-37.47
-27.81
-26.26
-30.21
-36.57
-43.77
-52.39
-64.46
-82.12
-106.41
-136.42
-169.04
-199.18
-220.81
-228.74
-220.74
-198.71
-168.48
-137.60
-112.31
-95.30
-85.16
-77.52
-67.10
-49.74
-23.63
10.13
47.73
83.90
113.43
132.92
141.39
140.00
130.57
114.94
95.06
73.92
56.21
47.42
51.58
68.75
94.04
119.09
135.41
137.86
126.37
105.28
80.89
59.01
43.19
34.47
31.97
33.56
36.55
38.12
35.64
27.17
11.99
-8.96
-33.15
-57.20
-78.06
-93.89
-104.41
-110.13
-111.40
-107.81
-98.41
-82.68
-61.46
-37.14
-13.11
7.18
21.12
27.60
27.17
22.23
16.73
15.26
21.44
36.21
56.77
77.34
91.36
94.13
84.64
65.71
42.43
20.11
2.37
-9.64
-17.27
-23.74
-33.41
-50.94
-79.80
-120.50
-169.23
-218.06
-256.76
-276.37
-272.49
-246.91
-206.75
-161.52
-119.43
-84.88
-58.03
-36.00
-14.77
9.44
39.17
75.03
114.97
154.25
186.50
205.80
209.31
198.31
177.75
154.16
132.99
116.86
106.16
100.48
99.71
104.01
112.09
120.65
124.99
120.51
104.16
76.27
40.24
1.33
-34.91
-65.10
-87.91
-103.57
-113.98
-123.28
-136.26
-156.33
-183.55
-213.09
-237.54
-249.11
-243.01
-215.22
-169.87
-117.63
-70.92
-41.24
-27.17
-20.99
-14.12
0.74
26.78
63.02
105.66
149.07
186.53
211.64
218.58
204.78
172.66
129.28
83.67
43.78
13.98
-5.77
-18.49
-29.02
-41.18
-54.98
-67.81
-75.73
-75.77
-67.46
-52.65
-33.55
-11.61
12.73
39.31
66.59
91.60
109.90
116.89
109.62
87.81
52.94
7.88
-43.25
-94.22
-136.09
-161.05
-165.75
-152.74
-129.16
-103.75
-83.08
-69.25
-61.19
-54.80
-47.43
-38.45
-27.82
-14.20
5.35
34.01
72.88
119.07
165.57
203.09
221.36
212.66
177.92
126.67
73.46
31.59
8.31
3.27
10.57
22.94
34.39
41.19
40.52
30.08
8.64
-22.86
-60.66
-98.30
-126.88
-139.47
-134.81
-118.54
-100.13
-87.74
-84.35
-87.36
-91.15
-91.53
-86.86
-77.92
-66.42
-53.28
-37.98
-18.75
6.60
39.93
81.94
129.93
178.52
220.12
246.71
252.39
235.50
199.64
152.46
103.06
58.91
24.16
-0.56
-17.12
-28.70
-39.19
-52.72
-72.88
-101.24
-136.05
-171.69
-200.46
-215.60
-214.31
-198.99
-175.99
-152.41
-132.80
-117.63
-103.61
-86.08
-61.50
-28.87
10.24
52.76
95.26
134.31
166.23
187.48
195.46
189.94
174.36
155.28
140.23
134.51
138.84
148.87
157.57
158.43
148.23
127.66
100.02
69.13
37.94
8.55
-17.48
-39.05
-56.63
-73.09
-93.26
-121.59
-159.17
-201.60
-239.77
-263.55
-266.18
-247.24
-212.10
-168.76
-124.51
-84.26
-50.96
-26.74
-13.24
-10.21
-13.98
-17.39
-12.65
4.31
31.01
59.26
79.83
87.97
86.55
84.29
90.72
110.31
139.47
168.60
186.85
187.32
169.62
139.03
102.17
63.61
24.27
-17.17
-60.73
-102.79
-136.23
-153.41
-150.37
-130.27
-102.15
-77.05
-62.57
-59.07
-59.64
-54.03
-35.85
-3.07
36.83
71.94
90.95
87.79
63.76
26.69
-11.91
-40.38
-50.10
-37.99
-6.48
37.07
82.55
119.93
141.99
145.90
133.36
109.11
78.55
46.53
16.61
-8.55
-26.82
-36.82
-38.42
-33.16
-23.92
-14.26
-7.01
-3.48
-3.51
-5.88
-9.11
-11.97
-13.67
-13.83
-12.66
-10.72
-8.54
-6.12
-2.44
4.59
17.36
36.87
61.27
85.44
102.68
107.57
98.89
80.52
59.78
44.11
37.50
39.11
44.19
46.78
42.59
30.21
10.26
-16.46
-50.07
-90.95
-137.79
-185.70
-226.46
-250.88
-252.40
-229.88
-188.05
-135.34
-80.02
-27.34
21.16
65.98
107.56
144.67
174.61
194.72
203.81
202.95
194.59
180.85
161.95
136.77
104.28
65.40
23.99
-14.34
-43.73
-60.05
-62.33
-53.53
-39.03
-25.01
-16.67
-16.81
-26.22
-43.31
-64.89
-87.78
-111.20
-136.43
-165.43
-198.32
-231.35
-257.89
-270.39
-263.90
-235.18
-189.57
-138.93
-96.41
-72.29
-64.63
-65.57
-66.65
-61.38
-46.88
-23.25
8.50
47.01
89.80
132.66
169.04
192.68
200.26
193.19
176.50
157.06
140.54
129.11
121.21
112.39
98.53
78.23
53.53
28.51
7.70
-5.63
-10.41
-7.54
0.42
10.63
20.94
29.92
36.23
38.61
35.92
27.91
15.71
1.68
-11.04
-19.65
-22.83
-21.22
-17.00
-12.87
-10.81
-11.26
-13.17
-14.61
-13.79
-10.00
-3.93
2.67
7.73
9.74
8.33
4.31
-0.69
-4.94
-7.36
-7.83
-7.11
-6.38
-6.59
-8.00
-10.17
-12.21
-13.34
-13.32
-12.56
-11.81
-11.67
-12.23
-13.01
-13.23
-12.23
-9.83
-6.49
-2.98
-0.17
1.49
2.10
2.20
2.46
3.30
4.62
5.79
5.95
4.37
0.84
-4.14
-9.50
-14.00
-16.57
-16.71
-14.60
-10.93
-6.66
-2.73
0.20
1.81
2.17
1.63
0.76
0.16
0.36
1.58
3.70
6.17
8.17
9.03
8.53
7.13
5.91
6.08
8.31
12.29
16.67
19.50
19.16
15.13
8.30
0.72
-5.29
-8.14
-7.57
-4.80
-1.95
-1.22
-4.05
-10.59
-19.66
-29.22
-37.04
-41.52
-42.18
-39.77
-35.98
-32.91
-32.20
-34.61
-39.69
-46.02
-51.71
-55.08
-55.19
-52.12
-46.78
-40.40
-34.04
-28.25
-23.12
-18.56
-14.66
-11.74
-9.95
-8.70
-6.16
0.90
16.52
44.24
85.13
135.98
189.06
233.44
258.02
255.02
222.46
165.07
93.45
21.89
-34.77
-64.69
-62.54
-31.70
16.11
64.08
95.58
99.84
75.75
32.04
-16.42
-54.36
-71.77
-66.52
-44.26
-15.53
8.58
20.78
20.13
12.13
5.74
8.94
25.11
51.53
81.37
107.45
125.95
137.65
146.43
155.98
166.70
174.95
174.86
161.73
134.73
97.12
54.59
13.08
-22.77
-50.47
-68.79
-77.31
-76.45
-68.04
-56.06
-46.35
-44.94
-55.76
-79.75
-112.84
-146.18
-168.19
-168.26
-141.09
-89.91
-26.17
33.94
73.25
80.35
53.04
-1.61
-70.24
-137.95
-192.61
-227.61
-242.62
-245.19
-246.52
-257.63
-285.35
-330.39
-387.97
-450.47
-510.19
-547.57
-547.53
-502.61
-416.77
-303.81
-181.21
-63.89
38.43
121.55
185.42
230.51
258.73
272.81
276.21
272.84
266.24
258.93
252.70
248.86
246.63
244.69
241.58
236.19
228.23
218.66
207.47
194.79
180.56
163.62
142.41
115.51
82.47
43.98
2.39
-40.20
-81.94
-120.58
-152.96
-174.60
-180.82
-169.02
-140.61
-101.66
-61.36
-28.22
-7.15
1.68
1.67
-2.81
-8.71
-15.00
-21.99
-30.13
-38.84
-46.90
-53.25
-57.78
-61.47
-65.65
-71.16
-77.45
-83.18
-85.35
-81.21
-69.12
-49.03
-22.51
7.71
38.59
67.43
92.09
111.22
123.80
129.10
126.69
116.52
99.23
76.19
49.62
22.12
-3.75
-26.05
-43.71
-56.46
-64.71
-69.14
-70.46
-69.09
-65.32
-59.54
-52.25
-44.15
-35.95
-28.15
-20.91
-14.05
-7.09
0.15
7.26
13.27
17.04
17.82
15.84
12.58
8.27
4.63
3.31
5.11
9.87
16.93
25.64
35.99
48.65
64.59
84.81
109.58
138.51
170.88
205.73
241.44
275.23
302.77
318.79
318.58
299.40
261.92
210.34
151.13
90.78
34.18
-15.69
-56.45
-84.50
-94.93
-83.37
-49.22
1.56
56.40
99.81
119.33
110.65
79.22
36.99
-3.45
-33.65
-50.60
-54.62
-45.99
-23.63
13.34
62.51
116.18
162.30
188.70
188.03
160.64
113.90
58.42
3.56
-45.52
-88.46
-128.24
-168.47
-211.21
-255.76
-298.62
-334.54
-358.11
-365.06
-353.34
-324.05
-281.31
-232.03
-184.86
-148.42
-129.25
-130.02
-148.80
-176.20
-200.34
-209.81
-198.18
-166.33
-120.89
-70.15
-20.63
23.94
61.94
92.25
113.98
126.74
131.35
129.94
125.47
120.73
117.43
115.81
114.46
111.31
104.46
93.13
77.99
60.94
44.35
30.26
19.86
13.26
9.76
8.42
8.46
9.55
11.70
15.07
19.53
24.63
29.61
33.66
36.14
36.84
36.08
34.43
32.65
31.23
30.40
30.17
30.35
30.69
31.08
31.55
32.23
33.46
35.47
38.36
42.17
46.54
50.99
54.93
57.82
58.61
56.58
51.07
41.64
28.25
11.15
-8.88
-30.60
-52.35
-72.52
-89.11
-100.39
-105.08
-102.56
-93.02
-77.17
-56.23
-30.93
-4.22
21.77
45.29
64.82
79.76
89.41
93.53
92.19
85.68
74.43
59.28
41.17
21.07
0.63
-19.26
-37.74
-54.15
-68.05
-79.49
-88.59
-95.75
-101.42
-105.93
-109.66
-112.63
-115.98
-118.27
-118.48
-115.62
-108.83
-97.56
-81.40
-60.53
-35.44
-6.02
25.40
56.64
85.82
111.49
132.50
148.22
158.42
163.43
163.14
157.30
145.62
128.00
104.92
77.25
46.65
15.72
-13.10
-38.23
-59.16
-76.28
-90.72
-103.35
-115.00
-125.65
-134.70
-141.38
-145.26
-146.53
-145.71
-144.72
-142.82
-140.04
-136.62
-132.73
-127.95
-120.64
-108.18
-88.16
-59.99
-26.28
6.64
31.46
41.73
35.89
17.35
-7.41
-31.82
-51.33
-63.68
-68.49
-65.82
-55.44
-36.99
-10.97
20.72
54.35
86.20
113.42
134.51
149.42
159.11
164.98
167.91
169.54
168.02
161.83
149.91
131.89
108.14
79.84
48.78
17.03
-13.32
-40.50
-62.60
-78.06
-85.84
-85.55
-77.47
-62.47
-41.92
-18.48
5.85
29.29
50.19
67.10
78.98
85.55
87.33
85.59
82.20
79.05
77.46
77.66
78.85
79.66
79.05
76.74
73.33
70.18
68.53
69.02
71.63
75.99
81.46
87.15
91.29
91.14
83.85
67.76
43.90
16.16
-9.86
-29.21
-39.16
-39.99
-34.25
-24.91
-14.48
-4.60
3.21
7.04
4.33
-6.97
-27.11
-53.27
-79.52
-98.93
-105.31
-95.98
-72.59
-40.93
-9.08
15.12
26.34
23.17
7.43
-16.24
-42.44
-66.29
-84.40
