1593175365.00
64.000000
-0.00
-0.00
-0.00
-0.00
-0.00
-0.00
-0.00
-0.00
-0.00
-0.00
0.00
0.01
0.01
-0.00
-0.03
-0.05
-0.05
0.00
0.13
0.36
0.66
1.01
1.37
1.72
2.06
2.40
2.79
3.24
3.80
4.42
5.06
5.66
6.20
6.68
7.15
7.68
8.31
9.14
10.09
11.04
11.88
12.56
13.14
13.76
14.65
15.96
17.91
20.32
22.90
25.38
27.58
29.57
31.68
34.32
37.81
42.54
48.15
54.10
59.83
64.97
69.58
74.14
79.34
85.71
93.76
103.00
112.62
121.73
129.77
136.75
143.30
150.75
157.77
166.64
177.95
191.79
206.97
220.57
228.25
225.36
208.53
176.87
132.76
80.05
23.07
-34.94
-92.44
-149.16
-205.23
-260.37
-313.74
-363.87
-409.83
-450.91
-486.50
-515.74
-537.23
-549.22
-549.96
-538.37
-514.21
-478.67
-433.88
-382.45
-327.02
-269.84
-212.63
-156.66
-102.95
-52.37
-5.90
35.58
71.43
101.35
125.50
144.38
158.69
169.15
176.37
180.75
182.57
182.07
179.51
175.23
169.65
163.18
156.15
148.81
141.30
133.69
126.02
118.33
110.69
103.16
95.80
88.68
81.83
75.25
68.95
62.95
57.25
51.86
46.78
42.03
37.59
33.45
29.61
26.07
22.81
19.83
17.11
14.67
12.48
10.54
8.83
7.35
6.07
4.97
4.05
3.27
2.62
2.09
1.65
1.30
1.01
0.79
0.61
0.48
0.37
0.29
0.23
0.17
0.13
0.10
0.09
0.09
0.10
0.11
0.11
0.07
0.01
-0.05
-0.09
-0.11
-0.10
-0.09
-0.10
-0.14
-0.21
-0.29
-0.34
-0.33
-0.28
-0.19
-0.10
-0.06
-0.10
-0.22
-0.38
-0.55
-0.66
-0.67
-0.60
-0.50
-0.43
-0.49
-0.68
-0.95
-1.21
-1.33
-1.27
-1.06
-0.84
-0.80
-1.09
-1.69
-2.42
-3.02
-3.27
-3.12
-2.69
-2.28
-2.22
-2.70
-3.61
-4.62
-5.35
-5.57
-5.27
-4.86
-4.72
-4.94
-5.37
-5.65
-5.47
-5.27
-6.12
-8.86
-12.96
-16.34
-16.44
-11.85
-3.44
6.04
13.55
17.75
19.65
21.79
26.24
32.92
39.52
42.67
40.59
33.63
24.19
14.94
7.74
3.07
0.62
0.26
2.79
9.48
21.01
36.53
52.78
64.55
66.85
57.17
37.17
12.50
-9.37
-22.29
-24.00
-16.87
-5.71
4.98
13.01
18.68
23.37
28.05
32.31
34.84
34.42
30.96
25.49
19.42
14.15
10.09
6.76
3.25
-1.22
-6.89
-12.97
-18.10
-20.95
-20.74
-17.61
-12.54
-6.95
-2.13
0.96
2.25
2.06
0.77
-1.49
-4.93
-9.92
-16.68
-24.03
-31.67
-38.57
-43.73
-46.73
-47.98
-48.46
-49.33
-51.27
-54.10
-56.99
-58.55
-57.86
-54.96
-51.03
-47.82
-46.94
-49.04
-53.28
-57.90
-60.74
-60.71
-58.12
-55.21
-53.94
-56.06
-62.12
-71.50
-83.02
-94.86
-104.32
-107.33
-99.21
-77.18
-41.83
0.75
40.67
68.22
78.54
73.89
62.20
52.70
51.44
58.49
69.31
78.69
83.99
86.13
87.82
91.18
95.81
99.59
100.26
96.78
90.30
83.23
78.24
76.65
78.03
80.49
81.54
79.21
72.78
63.05
51.74
40.76
31.20
23.11
15.69
7.87
-1.14
-11.38
-22.15
-32.28
-40.59
-46.36
-49.50
-50.52
-50.14
-48.94
-47.20
-44.84
-41.55
-37.03
-31.16
-24.29
-16.99
-10.00
-4.01
0.51
3.18
4.02
3.36
1.64
-0.82
-3.97
-8.00
-13.11
-19.31
-26.66
-34.63
-41.99
-47.32
-49.75
-49.08
-45.83
-40.83
-34.86
-28.99
-23.24
-16.60
-7.64
3.93
17.26
30.36
41.01
47.63
48.57
44.29
37.10
30.27
25.61
23.56
22.63
20.12
12.80
-4.28
-34.60
-79.28
-133.58
-191.04
-243.32
-282.81
-304.83
-299.18
-267.84
-223.47
-182.22
-154.11
-140.42
-135.83
-135.05
-135.57
-137.60
-143.76
-154.09
-165.85
-174.74
-179.02
-175.86
-165.76
-151.84
-137.95
-128.13
-123.17
-121.44
-120.15
-117.34
-109.00
-94.01
-73.60
-49.48
-27.31
-7.99
10.48
31.43
57.55
95.30
146.84
209.39
277.03
344.05
408.05
469.01
528.04
585.94
649.13
719.22
791.44
856.49
905.44
932.59
935.27
913.25
826.49
664.70
448.59
217.80
6.96
-165.62
-296.30
-389.20
-450.97
-488.61
-501.75
-492.51
-467.15
-435.19
-401.76
-368.31
-333.77
-296.47
-255.64
-206.77
-148.65
-84.28
-25.34
21.01
52.30
70.27
79.03
83.13
89.35
100.31
112.41
117.14
106.59
76.35
28.50
-28.94
-85.33
-129.49
-156.06
-167.62
-171.85
-175.87
-184.65
-199.47
-219.43
-242.45
-264.07
-278.99
-282.90
-273.28
-249.62
-215.34
-175.92
-137.86
-106.33
-81.91
-62.07
-44.18
-26.58
-8.07
11.34
32.74
57.89
89.46
125.21
163.31
199.83
229.89
250.16
258.45
254.89
241.34
205.70
145.75
69.54
-9.82
-81.44
-132.07
-164.67
-185.15
-197.33
-201.86
-199.50
-190.48
-176.27
-160.13
-143.44
-127.95
-117.61
-114.37
-116.65
-120.99
-124.14
-122.50
-114.49
-97.13
-69.15
-34.83
2.90
44.84
92.18
145.31
206.16
255.71
277.25
295.98
325.01
355.07
383.37
408.62
429.90
450.27
470.83
493.22
516.95
535.30
543.90
543.52
535.36
494.19
410.88
293.16
164.01
46.64
-49.23
-122.11
-173.25
-206.81
-227.72
-236.48
-234.51
-223.07
-204.27
-182.84
-161.29
-138.65
-113.36
-84.20
-48.67
-8.96
29.37
58.38
70.31
62.79
40.16
10.68
-16.87
-34.83
-42.03
-41.31
-37.37
-34.19
-33.12
-33.96
-37.22
-41.59
-47.47
-58.55
-77.26
-104.00
-136.72
-171.85
-206.50
-239.49
-271.24
-303.37
-340.13
-382.44
-428.40
-473.34
-511.23
-537.33
-549.72
-549.13
-518.93
-452.29
-351.49
-231.02
-109.71
-1.14
88.38
157.90
208.82
241.71
253.56
248.47
231.25
207.07
181.73
159.05
139.74
122.01
100.61
67.05
20.53
-39.11
-110.69
-188.89
-265.45
-330.55
-363.34
-350.09
-312.61
-266.19
-213.35
-158.40
-102.34
-43.65
20.26
91.19
167.26
244.12
316.49
376.18
416.37
436.81
440.58
429.47
401.72
353.29
282.89
198.25
111.15
32.95
-28.48
-71.19
-97.44
-110.10
-111.08
-101.52
-81.69
-55.11
-28.30
-7.99
1.21
-1.26
-15.27
-34.88
-54.03
-68.83
-77.40
-80.54
-78.46
-70.71
-56.71
-36.27
-9.55
22.26
57.72
88.83
111.62
125.09
130.36
129.57
125.01
118.77
111.91
104.47
95.87
86.44
76.60
66.80
57.78
50.14
44.55
41.09
39.03
37.34
35.98
35.03
34.10
31.90
28.30
20.40
7.14
-10.08
-27.77
-41.50
-48.42
-48.78
-45.48
-43.52
-45.23
-50.61
-57.62
-63.91
-67.87
-69.56
-70.09
-70.44
-70.62
-69.40
-66.24
-61.21
-55.06
-49.03
-44.26
-41.41
-41.20
-42.56
-43.72
-43.77
-41.69
-38.19
-33.93
-29.39
-24.72
-19.70
-13.88
-6.40
2.75
13.21
24.33
35.83
47.71
59.93
72.47
81.29
86.52
88.78
89.10
88.47
88.05
88.09
87.72
85.28
79.54
71.24
62.12
54.80
51.24
52.33
57.22
64.01
70.78
76.29
80.11
81.03
78.50
69.55
53.20
30.68
5.63
-17.70
-35.62
-46.33
-50.93
-52.68
-55.39
-60.91
-68.47
-74.98
-77.08
-72.82
-63.12
-51.75
-43.38
-41.38
-45.76
-53.77
-59.64
-60.16
-54.96
-46.61
-38.36
-32.10
-27.65
-23.18
-17.18
-9.36
-1.15
5.80
9.95
11.02
10.19
9.07
9.39
11.64
15.48
18.97
21.42
21.93
20.65
18.40
16.25
15.36
15.26
15.44
15.20
14.71
13.87
13.40
14.21
17.04
22.67
29.14
34.83
38.55
43.68
49.63
56.05
63.02
69.01
75.30
79.18
78.52
72.29
61.71
48.02
32.72
16.76
0.35
-17.27
-43.21
-77.34
-119.57
-167.39
-218.03
-268.82
-317.68
-363.40
-381.00
-359.94
-308.15
-246.06
-190.27
-148.18
-120.21
-103.80
-94.78
-87.41
-78.86
-65.18
-42.85
-10.44
28.70
67.50
98.82
118.95
128.85
129.48
123.50
113.72
102.58
91.39
80.80
71.78
65.61
63.22
62.51
60.96
56.84
49.87
40.95
31.54
23.27
17.48
14.87
14.23
13.95
12.80
10.41
7.13
3.78
1.53
1.11
2.85
6.18
10.16
13.89
16.70
18.28
18.75
18.44
17.79
17.20
16.94
17.06
17.40
17.60
17.13
15.87
13.80
11.22
8.62
6.57
5.67
6.16
7.64
9.23
10.44
10.79
10.57
10.33
10.95
13.35
17.98
24.23
30.77
37.01
42.43
47.45
52.76
59.44
69.17
84.18
106.80
135.00
167.90
202.42
233.25
252.61
253.04
230.52
186.31
125.89
57.48
-9.70
-71.36
-121.00
-154.42
-171.35
-174.56
-168.12
-157.35
-150.63
-151.52
-161.56
-179.41
-200.93
-219.41
-227.81
-217.36
-186.12
-138.49
-82.24
-25.95
24.25
67.24
106.90
148.72
195.07
241.91
280.68
302.36
300.87
274.17
226.25
166.50
105.73
51.42
5.18
-35.52
-74.61
-115.57
-162.64
-217.45
-276.84
-334.11
-381.86
-414.34
-427.91
-421.56
-382.93
-312.77
-226.19
-142.28
-72.50
-18.38
23.46
57.20
83.69
103.15
115.25
123.36
133.56
153.53
187.50
234.73
290.84
350.32
407.83
456.06
474.77
449.99
381.21
283.41
179.72
89.87
23.98
-17.55
-41.64
-56.42
-64.81
-65.92
-58.68
-44.08
-26.31
-10.31
-0.03
2.84
-0.63
-6.48
-9.58
-8.01
-2.78
2.55
4.64
1.25
-7.91
-21.38
-32.62
-38.12
-40.84
-41.40
-41.23
-41.17
-42.06
-43.67
-45.33
-45.89
-44.97
-45.08
-49.15
-61.05
-77.89
-99.02
-123.92
-152.24
-183.56
-205.35
-210.12
-196.76
-171.08
-140.68
-111.69
-86.56
-65.40
-47.34
-31.47
-18.91
-10.19
-5.04
-2.08
-0.17
1.68
4.01
6.84
10.23
12.56
12.90
11.27
8.73
6.17
4.25
3.12
2.47
2.22
1.20
-1.07
-4.28
-7.41
-9.55
-10.26
-9.54
-9.48
-9.56
-10.05
-10.99
-11.75
-11.20
-8.21
-1.91
7.85
20.28
34.27
47.80
59.06
66.76
70.45
70.30
67.01
61.57
54.85
47.72
40.43
33.00
25.53
18.62
13.42
11.45
14.00
21.31
32.57
45.73
58.27
68.25
74.86
78.14
78.56
77.49
75.26
71.83
67.24
62.26
58.36
57.20
59.66
65.26
72.18
77.80
79.96
77.54
70.57
59.55
44.71
25.55
1.12
-29.19
-64.88
-103.69
-141.86
-174.69
-197.31
-205.34
-195.83
-168.33
-125.88
-75.24
-25.49
14.61
39.73
49.83
50.02
47.85
49.45
56.82
67.28
75.64
77.23
70.15
55.18
34.77
11.35
-13.88
-40.60
-68.91
-98.73
-130.11
-163.81
-201.84
-245.63
-294.19
-342.89
-383.24
-405.97
-404.50
-377.87
-331.29
-274.34
-216.29
-163.01
-116.20
-74.07
-34.73
1.83
33.28
60.14
80.63
93.64
100.02
101.85
105.11
115.04
134.96
165.76
206.38
253.17
300.96
343.47
368.54
366.87
337.04
287.73
233.11
185.30
149.32
124.19
106.40
92.95
83.77
79.88
81.21
85.56
89.53
90.01
85.78
77.94
68.86
61.73
58.61
59.43
61.75
62.75
60.61
55.00
47.27
39.65
34.75
34.60
38.53
44.69
51.49
58.40
65.48
73.40
82.74
93.85
106.92
118.35
124.27
122.11
113.97
102.01
88.32
74.37
60.85
49.07
34.88
14.72
-12.13
-43.15
-75.01
-105.05
-132.04
-156.45
-177.79
-202.71
-237.02
-282.42
-336.17
-394.00
-452.55
-510.30
-568.04
-592.21
-564.50
-487.85
-384.26
-278.59
-185.52
-108.52
-44.63
-1.45
30.28
51.45
60.09
56.61
45.07
30.72
16.44
9.71
11.18
20.54
30.44
32.95
24.68
7.69
-12.43
-30.20
-41.74
-45.48
-40.44
-19.23
19.52
71.48
128.14
182.04
228.65
266.64
296.46
317.83
328.76
326.62
312.77
289.65
261.84
233.35
206.43
182.71
159.58
133.26
99.25
54.27
-3.54
-69.68
-140.47
-213.87
-275.07
-314.70
-328.95
-322.91
-306.71
-288.99
-273.03
-257.79
-250.83
-243.31
-230.40
-208.66
-178.08
-142.05
-104.39
-67.35
-26.14
20.29
77.09
138.53
196.70
250.02
295.84
331.14
353.72
361.44
351.65
324.82
274.41
205.63
133.28
72.17
29.59
3.93
-11.25
-22.67
-32.48
-41.18
-46.33
-46.67
-44.37
-42.73
-43.79
-47.43
-52.22
-55.87
-57.46
-56.19
-52.68
-49.39
-48.55
-50.95
-55.78
-61.46
-66.39
-69.81
-71.22
-71.12
-71.13
-72.72
-76.41
-81.67
-87.32
-92.28
-95.85
-97.39
-96.78
-94.35
-90.22
-84.02
-75.63
-63.54
-47.17
-26.73
-3.23
21.58
45.56
66.72
83.41
94.70
100.17
99.55
92.75
79.99
61.76
38.95
13.19
-13.64
-39.27
-61.89
-80.65
-95.81
-108.42
-119.87
-131.40
-143.09
-154.33
-163.18
-167.89
-167.89
-164.16
-158.94
-154.85
-153.72
-155.31
-157.72
-156.54
-147.73
-129.31
-101.90
-68.10
-30.32
6.90
42.36
76.88
114.79
159.76
213.49
275.43
343.21
413.10
479.56
535.63
573.41
590.12
587.63
573.07
556.37
546.24
546.30
553.17
558.32
534.26
465.39
351.64
208.86
59.42
-79.16
-199.08
-300.04
-384.27
-453.42
-504.51
-535.26
-546.36
-542.38
-530.56
-517.84
-508.79
-504.67
-505.26
-504.21
-496.05
-478.31
-452.21
-421.66
-391.12
-363.81
-340.89
-321.70
-302.12
-278.66
-249.65
-215.75
-179.32
-143.03
-108.39
-74.82
-45.13
-18.33
6.93
31.25
53.76
72.21
83.95
87.06
81.36
68.79
54.21
42.89
39.00
44.37
58.14
77.58
99.31
120.84
141.46
162.68
186.81
216.14
252.35
295.98
345.61
396.86
441.83
469.90
471.31
440.85
381.35
304.00
224.88
159.01
114.85
92.02
83.13
78.60
71.04
57.39
38.22
15.29
-10.52
-39.46
-71.81
-106.53
-140.81
-170.86
-193.68
-208.22
-215.60
-218.28
-218.65
-217.84
-215.46
-210.06
-200.18
-185.28
-166.06
-144.03
-120.78
-97.33
-73.77
-49.66
-24.50
1.99
29.75
58.53
87.66
115.87
141.29
162.00
176.94
186.76
193.69
200.48
208.77
218.15
226.53
231.91
234.29
236.25
241.60
252.54
267.39
279.98
281.60
264.43
224.84
164.98
91.97
15.51
-55.10
-113.30
-155.76
-181.72
-191.65
-186.34
-167.05
-136.31
-98.81
-61.17
-30.45
-11.66
-5.67
-8.79
-14.54
-16.59
-11.25
1.66
19.98
41.16
63.66
87.16
111.57
135.83
157.30
172.11
176.06
165.65
139.00
96.48
41.35
-20.00
-78.68
-125.07
-151.64
-155.69
-140.63
-115.05
-89.44
-72.18
-66.28
-68.57
-71.42
-66.46
-48.45
-17.70
20.02
55.75
80.91
90.44
84.52
68.28
49.92
38.11
39.38
56.33
87.03
125.77
164.83
196.74
216.33
221.66
213.99
196.54
173.16
147.27
121.51
97.88
78.06
63.23
53.62
48.14
44.35
39.16
30.14
16.50
-0.48
-18.13
-33.44
-44.37
-50.42
-52.59
-52.64
-52.36
-52.92
-54.67
-57.32
-60.28
-63.03
-65.29
-67.03
-68.29
-69.00
-68.80
-67.05
-62.92
-55.67
-44.99
-31.27
-15.66
0.06
14.04
24.88
32.11
36.30
38.68
40.40
41.83
42.36
40.77
36.04
28.04
17.73
6.79
-3.09
-10.70
-15.34
-16.56
-13.95
-7.19
3.56
17.23
31.89
45.35
56.10
64.02
70.28
76.69
84.70
94.74
106.18
117.83
128.68
138.32
147.12
155.43
163.09
169.22
172.46
171.55
165.92
155.77
141.85
125.35
107.11
87.57
66.95
45.53
23.90
2.93
-16.49
-33.63
-47.73
-58.42
-65.63
-69.33
-69.46
-65.83
-58.23
-46.67
-34.00
-22.47
-13.84
-8.86
-7.00
-6.78
-6.53
-4.93
-1.63
3.01
8.77
14.33
18.30
19.89
18.88
15.51
10.13
2.07
-9.76
-26.78
-48.15
-73.08
-100.52
-129.42
-158.80
-187.14
-213.31
-234.99
-248.88
-252.23
-244.61
-228.51
-208.71
-190.68
-177.96
-173.42
-177.22
-187.80
-203.29
-222.48
-244.60
-268.70
-293.63
-317.09
-339.41
-360.89
-381.46
-400.26
-415.67
-425.50
-427.22
-419.49
-387.12
-322.62
-226.43
-108.41
15.16
127.73
217.88
281.34
315.50
326.66
318.62
293.97
254.34
201.01
135.11
57.24
-24.51
-103.54
-173.85
-233.23
-279.83
-310.46
-320.65
-306.74
-268.79
-212.33
-148.42
-88.58
-42.60
-14.46
-2.06
0.16
-2.04
-4.82
-6.29
-6.53
-6.05
-4.36
-1.02
3.90
9.36
13.78
15.57
14.09
9.29
2.26
-5.79
-14.04
-21.96
-29.73
-37.91
-46.89
-56.43
-65.77
-73.41
-77.50
-78.69
-77.40
-74.42
-70.79
-67.44
-64.89
-63.23
-62.20
-61.31
-60.31
-58.79
-56.63
-53.82
-50.32
-45.96
-40.60
-34.12
-26.63
-18.53
-10.15
-1.88
5.97
13.29
20.11
26.44
32.22
37.22
41.12
43.83
45.55
46.82
48.49
51.45
56.35
63.38
72.08
81.66
91.42
101.02
110.80
121.61
134.48
150.13
168.50
188.74
209.47
229.31
247.43
263.88
279.71
296.78
317.45
343.86
376.85
414.99
454.08
487.79
509.40
514.01
500.24
470.62
430.50
385.93
341.68
299.96
260.41
221.07
179.78
135.75
90.68
49.00
16.90
0.34
2.39
21.15
49.39
76.30
90.45
83.27
51.64
-1.06
-65.64
-129.30
-178.86
-204.12
-200.71
-171.55
-126.13
-77.85
-39.91
-21.26
-24.12
-43.93
-71.30
-95.43
-107.60
-103.68
-85.19
-58.80
-34.57
-23.03
-31.86
-63.11
-111.92
-167.60
-216.73
-247.39
-252.66
-231.89
-189.26
-130.86
-62.16
12.72
89.90
164.15
228.33
274.86
298.48
298.57
279.58
248.98
213.97
178.84
144.05
107.45
66.69
21.33
-26.50
-72.84
-113.57
-145.73
-168.09
-180.75
-184.36
-179.35
-165.89
-144.34
-116.00
-83.49
-50.67
-21.80
-0.41
11.77
15.33
12.93
8.22
4.54
3.68
5.42
7.91
8.82
6.63
1.45
-5.04
-10.53
-13.40
-13.63
-12.85
-13.37
-16.97
-24.00
-33.41
-43.46
-52.68
-60.46
-66.77
-71.74
-75.24
-77.15
-77.89
-78.73
-81.37
-86.75
-94.31
-102.02
-107.58
-109.86
-109.81
-109.95
-112.90
-120.00
-130.63
-142.32
-151.42
-153.91
-146.29
-126.63
-95.64
-57.31
-18.41
13.41
32.09
35.11
23.89
2.54
-23.97
-51.41
-77.09
-99.99
-120.18
-138.40
-155.16
-170.19
-182.03
-188.15
-185.86
-173.54
-151.48
-121.76
-87.53
-51.96
-17.66
13.47
39.94
60.57
74.55
81.61
81.90
75.45
62.05
41.47
14.33
-16.98
-47.88
-72.07
-83.22
-76.99
-52.75
-14.05
32.34
78.46
117.53
145.35
160.87
165.47
161.84
153.03
141.85
130.66
121.27
114.74
111.17
109.85
109.30
107.77
103.64
95.93
84.65
70.93
56.87
45.11
37.92
36.50
40.69
49.29
60.73
73.69
87.08
99.49
108.71
111.68
105.16
87.21
58.23
20.89
-20.28
-60.48
-95.95
-123.89
-142.59
-150.98
-148.50
-135.40
-113.61
-85.81
-55.06
-24.18
5.72
34.63
62.99
91.05
118.38
143.30
165.11
184.04
200.72
216.61
232.39
247.44
260.25
269.12
271.99
269.04
261.94
246.31
219.47
180.06
128.79
68.97
11.41
-41.94
-93.37
-147.32
-208.33
-278.35
-354.13
-427.88
-489.01
-527.61
-539.21
-524.90
-491.57
-449.29
-406.43
-367.23
-331.42
-295.99
-258.28
-218.97
-180.65
-146.46
-118.32
-95.03
-72.94
-47.68
-15.88
23.81
70.19
121.61
176.23
231.74
285.03
331.44
365.46
382.18
379.11
356.79
318.64
268.85
210.39
144.64
72.77
-1.91
-72.63
-130.09
-165.56
-174.23
-157.07
-120.13
-71.91
-20.17
29.73
74.84
113.01
141.24
155.18
150.19
123.32
75.20
10.72
-61.45
-130.65
-186.37
-220.48
-229.55
-216.04
-188.46
-159.53
-142.28
-145.58
-170.58
-210.20
-251.93
-283.03
-295.21
-287.18
-263.48
-230.81
-194.48
-156.69
-117.37
-76.39
-35.21
3.52
37.20
65.16
89.61
115.09
146.62
187.44
237.30
291.97
345.06
389.66
420.89
437.43
441.22
435.73
423.72
405.93
381.55
350.80
315.48
279.16
245.97
218.83
198.59
184.43
175.10
169.83
169.60
174.74
184.05
194.79
203.64
208.28
208.42
205.54
193.66
169.22
130.30
78.53
19.25
-40.26
-93.28
-135.38
-164.88
-182.31
-188.38
-185.29
-175.78
-162.87
-149.61
-138.45
-130.76
-126.70
-125.55
-125.31
-125.55
-126.64
-129.58
-135.51
-144.98
-157.47
-171.44
-185.02
-196.08
-204.93
-212.87
-221.98
-234.64
-252.99
-278.86
-313.30
-356.18
-397.21
-427.70
-439.06
-425.38
-386.37
-328.19
-261.79
-198.81
-147.52
-110.38
-86.08
-70.60
-60.14
-53.36
-49.68
-48.81
-49.66
-50.34
-49.04
-46.03
-42.75
-41.15
-43.21
-49.71
-59.96
-71.88
-82.80
-90.26
-93.23
-93.20
-91.68
-90.11
-89.15
-88.68
-87.85
-85.57
-81.02
-74.38
-66.49
-58.34
-51.05
-45.31
-41.27
-38.51
-36.29
-33.83
-30.73
-26.97
-22.66
-18.15
-13.74
-9.52
-5.25
-0.43
5.60
13.32
22.88
34.08
46.35
58.96
71.33
83.28
95.10
107.42
120.85
135.64
151.55
167.90
183.82
198.62
212.16
224.78
237.22
250.40
265.35
283.13
304.44
329.04
355.10
379.02
396.15
402.23
395.04
375.43
346.96
314.45
282.08
252.02
224.36
198.10
172.45
147.69
125.06
105.92
90.93
79.60
70.71
62.98
55.75
49.27
44.46
42.23
42.95
46.14
50.70
55.39
59.35
62.25
63.93
63.98
61.46
55.17
44.42
29.86
13.82
-0.17
-8.72
-10.09
-4.96
3.79
12.46
18.25
20.42
20.30
20.06
21.18
23.25
23.91
19.90
8.64
-10.45
-35.52
-62.87
-88.13
-107.46
-118.33
-119.84
-112.56
-98.28
-79.64
-59.70
-41.48
-27.29
-18.32
-14.46
-14.53
-16.80
-19.60
-21.75
-22.75
-22.75
-22.35
-22.33
-23.28
-25.29
-27.80
-29.65
-29.56
-26.65
-20.94
-13.60
-6.51
-1.75
-0.80
-4.07
-10.73
-19.05
-26.92
-32.43
-34.34
-32.44
-27.51
-20.97
-14.35
-8.50
-3.34
2.23
9.77
20.49
34.50
50.44
65.56
76.31
79.38
72.52
55.25
29.08
-2.74
-36.00
-66.60
-91.60
-109.91
-121.99
-129.57
-134.72
-139.14
-143.57
-147.91
-151.64
-154.46
-156.91
-160.12
-166.04
-176.44
-191.66
-209.60
-225.86
-234.86
-231.86
-214.71
-183.91
-142.61
-94.55
-42.31
13.67
74.15
139.37
207.27
272.80
329.79
372.11
396.13
402.01
393.56
376.43
356.07
336.26
312.54
281.63
242.05
195.73
147.66
103.85
68.31
41.93
23.27
9.81
0.13
-6.51
-10.31
-11.73
-11.27
-10.63
-11.69
-15.65
-23.08
-33.50
-46.68
-62.43
-81.59
-105.43
-133.88
-166.71
-202.62
-239.72
-275.88
-310.01
-341.71
-372.81
-406.28
-447.07
-498.29
-558.69
-622.07
-678.51
-718.05
-733.57
-725.09
-685.78
-618.92
-534.07
-442.73
-353.82
-271.61
-202.93
-145.65
-98.57
-61.44
-34.93
-16.72
-1.47
16.71
42.20
75.99
116.09
157.28
194.29
222.79
242.51
256.99
271.97
292.99
323.42
364.04
411.23
457.97
494.04
509.02
495.32
451.24
382.64
301.74
223.84
161.03
118.37
92.31
73.96
54.27
28.97
0.45
-23.96
-35.99
-31.10
-10.49
19.35
49.50
72.01
82.67
81.70
72.87
61.39
51.32
44.08
38.10
29.95
16.29
-4.22
-29.97
-56.75
-79.47
-94.15
-99.11
-94.93
-83.36
-65.87
-42.82
-13.52
22.97
66.97
117.52
172.30
227.85
280.05
324.84
359.06
381.29
392.35
394.87
392.06
386.14
377.26
363.81
343.83
316.93
285.22
252.81
223.86
200.52
181.86
164.46
144.28
118.63
87.25
52.15
16.13
-18.71
-52.06
-85.37
-121.05
-161.42
-208.05
-261.77
-322.82
-390.66
-463.15
-535.68
-601.13
-651.32
-679.59
-683.27
-664.78
-630.59
-588.65
-545.49
-504.67
-466.83
-431.05
-396.15
-361.38
-326.15
-289.53
-250.23
-207.06
-159.71
-109.15
-57.27
-6.21
42.80
89.94
136.49
183.70
231.25
276.14
312.75
334.26
335.09
313.34
272.22
219.78
166.91
124.53
100.92
100.07
121.14
159.02
205.77
252.45
291.16
316.78
327.94
326.80
317.58
304.39
289.31
271.86
249.94
221.72
187.40
149.74
113.33
82.96
62.08
51.93
51.53
58.00
66.93
73.07
71.14
57.07
29.47
-9.52
-54.47
-98.18
-134.09
-158.23
-169.91
-171.00
-164.27
-151.85
-134.80
-113.72
-89.85
-65.77
-45.23
-31.98
-28.69
-36.47
-55.28
-84.69
-124.07
-171.90
-224.60
-275.96
-317.97
-343.23
-347.53
-331.54
-300.46
-261.90
-223.09
-188.74
-160.24
-136.44
-114.93
-93.28
-69.69
-42.63
-10.34
29.28
77.88
135.28
198.04
259.15
309.49
340.59
347.14
328.26
286.94
228.41
158.93
85.48
16.13
-39.83
-73.12
-76.75
-48.78
5.95
76.13
146.48
201.65
230.37
228.41
199.49
153.69
103.77
60.92
31.44
15.69
9.45
6.69
2.24
-7.19
-23.27
-46.72
-77.34
-113.24
-149.80
-179.86
-195.39
-190.27
-162.92
-117.28
-61.61
-5.89
40.94
72.71
86.33
81.32
59.25
23.88
-18.68
-60.23
-92.05
-107.22
-102.95
-81.50
-49.25
-14.20
16.76
39.65
53.65
59.88
59.96
55.05
45.93
33.57
19.83
7.35
-1.08
-3.71
-0.56
6.56
14.87
21.80
26.00
27.58
27.76
27.92
28.83
30.25
31.02
29.82
25.83
19.30
11.63
4.76
0.53
0.01
3.13
8.74
14.98
19.83
21.82
20.44
16.36
11.16
6.74
4.63
5.56
9.26
14.62
19.98
23.63
24.26
21.53
16.34
10.74
7.31
8.16
14.15
24.50
37.26
50.12
61.34
70.19
76.77
81.59
85.15
87.65
89.25
90.24
91.05
92.20
94.11
97.02
101.28
107.71
117.81
133.40
155.54
183.18
212.45
236.97
249.83
246.04
224.43
188.03
142.48
93.54
44.74
-3.25
-51.58
-101.16
-151.05
-198.29
-239.10
-270.67
-292.32
-305.49
-312.54
-315.43
-314.76
-310.16
-301.45
-289.55
-276.67
-264.97
-254.81
-243.69
-226.55
-198.04
-155.31
-100.46
-40.52
14.65
56.68
82.36
94.97
102.27
112.38
129.69
152.99
176.71
193.97
199.85
192.86
174.15
145.89
110.17
69.57
28.52
-5.81
-24.74
-21.35
5.67
50.01
98.75
136.27
149.71
133.31
90.13
30.36
-32.93
-88.24
-128.92
-153.89
-166.59
-172.60
-177.33
-184.49
-195.39
-208.87
-221.84
-229.84
-227.96
-212.09
-180.52
-135.42
-83.29
-33.70
4.02
24.32
27.68
20.43
11.64
8.58
13.04
20.33
21.31
7.19
-26.66
-78.40
-140.16
-200.80
-249.55
-279.04
-286.60
-273.86
-243.77
-199.83
-145.71
-85.99
-27.21
22.71
56.93
72.76
72.99
66.38
62.51
67.66
82.64
103.71
125.90
146.44
166.23
188.29
217.73
258.04
310.66
375.62
452.39
540.28
638.31
744.35
838.79
899.29
903.72
838.97
708.28
531.49
337.20
152.28
-5.82
-131.03
-223.67
-287.50
-325.93
-341.19
-336.23
-316.65
-290.94
-268.37
-256.09
-254.99
-260.95
-267.01
-266.59
-256.69
-238.82
-217.60
-198.34
-184.81
-177.04
-172.52
-167.54
-159.08
-146.22
-130.30
-114.15
-100.61
-91.47
-86.55
-84.50
-83.34
-80.95
-75.42
-65.42
-50.63
-32.31
-13.44
2.16
11.12
12.08
6.44
-2.29
-10.27
-15.09
-16.56
-16.21
-15.90
-16.47
-17.49
-17.86
-16.56
-13.52
-9.58
-5.91
-3.73
-4.05
-7.42
-13.50
-20.59
-25.12
-22.61
-9.50
15.03
48.15
84.48
117.95
143.73
158.76
161.73
152.40
131.57
101.60
66.76
32.85
6.35
-9.08
-13.50
-10.19
-3.87
1.57
4.17
3.58
0.64
-3.89
-9.68
-16.45
-23.67
-30.61
-36.68
-40.94
-43.92
-46.07
-47.88
-49.75
-51.72
-53.46
-54.48
-54.66
-53.64
-51.68
-49.14
-46.35
-43.60
-40.78
-37.46
-33.13
-27.62
-20.45
-11.75
-1.93
8.37
18.41
27.59
35.44
41.67
46.07
48.48
48.69
46.64
42.38
36.10
28.17
19.15
9.60
0.89
-6.92
-13.76
-19.56
-24.30
-28.06
-30.92
-32.92
-34.19
-34.80
-35.00
-35.07
-35.28
-35.82
-36.82
-38.19
-39.71
-41.06
-42.49
-43.79
-45.16
-46.97
-49.46
-52.68
-56.26
-59.36
-61.11
-60.74
-57.94
-52.98
-46.89
-39.88
-32.02
-22.91
-11.67
2.31
18.99
37.13
54.35
67.72
75.03
74.52
66.71
53.76
38.10
21.84
5.70
-11.05
-29.98
-52.56
-78.74
-108.37
-139.42
-168.28
-189.86
-198.75
-191.21
-167.04
-130.30
-87.99
-48.38
-15.19
10.90
32.50
53.41
76.30
101.69
127.06
148.84
162.19
162.90
148.79
121.84
88.69
58.68
40.18
36.31
44.28
55.82
62.83
60.72
50.17
35.62
21.39
9.28
-1.85
-13.93
-27.73
-41.27
-51.14
-54.30
-49.52
-38.50
-24.64
-11.60
-1.45
5.70
11.53
18.27
26.37
36.63
47.95
58.16
65.13
67.82
66.38
62.19
57.06
52.75
50.37
49.80
50.18
50.33
49.38
46.91
43.22
39.01
35.31
33.00
32.24
32.50
32.76
31.98
29.31
25.29
19.96
14.58
10.73
9.50
11.09
14.78
19.29
23.22
25.75
26.96
27.88
29.86
34.09
41.34
51.10
63.39
76.25
85.84
87.36
76.91
53.51
20.48
-15.33
-46.23
-66.85
-76.35
-78.15
-77.17
-77.11
-79.00
-81.20
-81.60
-79.31
-75.43
-72.51
-72.79
-77.12
-84.98
-95.27
-106.45
-116.94
-124.60
-126.50
-119.92
-103.53
-78.78
-49.44
-22.33
-2.56
7.78
9.98
7.30
2.91
-1.57
-5.89
-10.26
-14.42
-16.98
-16.40
-12.07
-4.86
3.24
10.07
14.28
15.89
16.15
17.08
20.18
25.76
32.75
39.24
43.36
44.26
42.20
38.56
35.31
34.02
35.33
38.75
43.06
47.18
50.66
53.54
56.31
59.70
64.29
70.69
79.76
92.18
105.92
118.89
126.15
121.94
102.50
68.72
26.71
-14.30
-45.72
-62.96
-66.50
-61.23
-53.28
-47.06
-44.53
-45.93
-51.17
-60.63
-73.28
-85.44
-90.91
-82.82
-57.51
-17.72
26.67
61.85
75.73
63.95
31.69
-9.12
-45.49
-68.80
-77.60
-76.33
-71.71
-69.69
-72.99
-82.18
-96.70
-114.99
-133.87
-148.40
-152.60
-139.81
-111.46
-73.71
-35.88
-6.68
9.77
14.89
13.46
11.55
13.75
21.41
33.14
44.62
49.72
42.10
17.37
-24.65
-78.72
-135.42
-184.08
-215.68
-226.20
-217.19
-194.02
-163.07
-128.86
-93.39
-59.34
-29.81
-6.92
8.40
17.11
22.03
27.14
37.68
57.66
88.48
128.60
173.92
217.68
251.43
266.59
256.91
222.85
169.98
107.19
44.23
-10.36
-51.05
-75.80
-85.49
-82.43
-66.04
-36.76
2.27
45.16
85.71
119.54
145.39
164.57
179.98
198.93
226.14
261.39
299.85
335.77
365.23
387.42
403.32
388.64
332.09
240.10
133.50
32.44
-52.33
-118.54
-167.10
-200.14
-220.29
-226.72
-220.63
-205.04
-187.23
-172.96
-164.39
-159.12
-152.61
-140.19
-115.87
-78.29
-32.90
8.93
35.26
33.02
-0.69
-58.27
-123.77
-176.17
-198.60
-184.17
-137.76
-71.85
-1.08
63.25
114.52
150.30
171.93
182.20
184.07
179.87
171.08
157.72
138.96
113.01
78.44
36.57
-7.88
-47.61
-75.34
-86.19
-79.17
-56.61
-23.38
13.83
47.92
72.33
81.87
73.43
46.85
5.60
-44.48
-91.93
-125.04
-137.88
-132.41
-115.94
-97.19
-83.50
-79.37
-85.52
-100.41
-117.43
-128.02
-123.56
-98.06
-50.87
12.24
80.54
141.82
186.66
206.86
199.37
167.53
119.15
62.73
4.33
-53.80
-112.05
-171.04
-229.16
-281.52
-320.79
-339.86
-335.12
-307.63
-262.13
-204.78
-140.97
-74.81
-9.54
51.04
102.04
138.43
157.05
158.25
145.76
124.64
98.42
67.71
30.40
-15.92
-70.85
-129.24
-181.59
-216.93
-226.65
-207.57
-162.97
-102.54
-40.61
7.50
29.74
21.12
-14.30
-64.08
-111.23
-139.11
-138.39
-110.72
-67.37
-23.90
6.69
18.51
13.54
-1.15
-16.02
-24.98
-26.72
-22.99
-15.50
-3.82
13.97
39.06
70.42
107.25
146.57
184.85
220.27
254.08
289.67
329.87
373.91
417.82
459.51
495.67
522.48
536.48
535.89
521.03
493.54
455.03
385.42
279.72
149.64
18.44
-93.22
-176.59
-233.80
-272.63
-303.23
-334.60
-366.61
-395.19
-414.81
-420.58
-409.27
-380.21
-331.81
-269.38
-202.39
-139.27
-88.70
-57.72
-49.36
-60.67
-82.98
-104.97
-117.46
-115.33
-96.62
-64.06
-23.37
19.02
57.70
88.90
110.44
121.16
122.30
118.73
116.57
121.00
134.07
153.88
175.12
190.59
192.68
175.65
137.55
80.87
12.94
-54.74
-108.88
-138.40
-138.79
-114.51
-77.46
-42.07
-19.54
-13.66
-20.60
-32.30
-41.05
-42.81
-37.64
-27.73
-15.11
-0.62
15.59
32.95
49.82
64.02
73.67
78.25
78.53
75.97
71.95
67.18
61.72
55.10
46.75
36.34
24.12
10.98
-1.57
-11.73
-17.95
-19.38
-16.16
-9.30
-0.34
9.07
17.57
24.42
29.58
33.58
37.21
41.09
45.31
49.32
52.33
53.92
54.60
55.89
59.58
66.51
75.53
83.11
83.96
72.58
45.26
1.90
-52.88
-110.24
-159.15
-189.51
-195.46
-177.32
-141.23
-96.60
-52.33
-13.75
18.29
46.06
71.95
95.88
114.48
122.17
113.56
85.63
39.24
-20.57
-85.29
-144.27
-186.72
-203.86
-191.07
-149.66
-86.92
-14.79
53.23
105.50
134.78
139.07
120.74
84.41
35.10
-22.66
-84.27
-144.22
-195.47
-230.36
-242.75
-230.64
-198.15
-155.11
-114.53
-88.30
-82.86
-96.94
-121.78
-144.51
-152.86
-139.56
-104.67
-55.09
-1.75
44.20
74.69
86.35
80.57
62.19
37.62
13.10
-6.90
-20.61
-28.86
-34.40
-40.47
-49.59
-62.84
-79.84
-99.21
-118.80
-135.86
-146.94
-148.20
-136.38
-110.19
-71.49
-25.10
22.48
65.15
99.00
122.89
137.78
145.36
146.88
142.77
133.18
118.84
101.64
84.49
70.57
62.34
60.73
64.87
72.35
79.97
84.59
83.92
77.03
64.55
48.51
31.95
18.26
10.43
10.18
17.61
31.00
47.46
63.72
77.07
86.03
90.50
91.52
90.75
89.89
90.13
91.65
93.37
92.90
87.06
72.90
48.84
15.62
-23.70
-64.65
-102.77
-134.86
-159.46
-176.55
-186.76
-190.69
-188.74
-181.39
-169.51
-154.31
-136.93
-117.88
-96.84
-73.10
-46.26
-16.94
13.00
41.00
64.61
82.36
94.02
100.45
102.95
102.70
100.42
96.35
90.58
83.25
74.70
65.43
55.90
46.45
37.31
28.66
20.80
14.13
9.05
5.74
4.05
3.50
3.38
2.97
1.80
-0.34
-3.36
-6.97
-10.70
-13.96
-16.17
-16.83
-15.74
-13.09
-9.43
-5.50
-2.03
0.41
1.50
1.14
-0.68
-3.86
-8.21
-13.29
-18.46
-22.88
-25.78
-26.59
-25.19
-21.80
-16.92
-11.04
-4.51
2.49
9.86
17.45
24.87
31.55
36.82
40.12
41.13
39.95
37.04
33.18
29.31
26.29
24.73
24.77
26.08
27.96
29.54
30.07
29.14
26.73
23.22
19.29
15.64
12.88
11.34
10.99
11.42
12.03
12.17
11.32
9.19
5.70
0.92
-4.89
-11.25
-17.47
-22.73
-26.34
-28.04
-28.19
-27.64
-27.43
-28.30
-30.41
-33.20
-35.73
-36.94
-36.07
-32.82
-27.38
-20.35
-12.64
-5.27
0.78
4.77
6.38
5.70
3.22
-0.35
-4.26
-7.91
-10.86
-12.94
-14.13
-14.64
-14.77
-14.88
-15.25
-15.95
-16.76
-17.22
-16.71
-14.81
-11.42
-6.94
-2.16
1.99
4.72
5.59
4.46
1.41
-3.35
-9.54
-16.67
-24.18
-31.56
-38.52
-45.05
-51.17
-56.57
-60.30
-60.89
-56.91
-47.72
-34.06
-18.06
-2.65
9.37
16.11
16.99
12.58
4.16
-6.79
-18.87
-30.87
-41.74
-50.44
-55.98
-57.44
-54.21
-46.10
-33.54
-17.57
0.22
17.97
33.81
46.21
54.27
57.81
57.35
53.79
48.22
41.63
34.90
28.78
23.96
21.05
20.36
21.87
25.15
29.47
34.12
38.56
42.64
46.47
50.29
54.25
58.26
62.10
65.49
68.31
70.65
72.74
74.80
76.83
78.50
79.23
78.31
75.14
69.29
60.60
49.05
34.77
17.97
-0.82
-20.68
-40.10
-57.18
-69.91
-76.60
-76.33
-69.13
-55.98
-38.52
-18.76
1.34
20.06
36.17
48.91
57.92
62.99
63.85
60.10
51.43
38.03
21.06
2.91
-13.17
-23.87
-26.92
-22.03
-11.22
1.46
10.87
12.01
1.16
-23.17
-59.62
-103.84
-149.06
-187.31
-211.28
-216.25
-201.48
-170.32
-129.16
-85.52
-45.98
-14.92
5.88
16.75
19.40
16.17
9.63
2.37
-3.22
-5.15
-2.07
6.38
19.46
35.18
50.58
62.30
67.55
65.12
55.88
42.68
29.39
19.60
15.47
17.29
23.76
32.77
42.28
50.68
56.86
60.15
60.19
56.98
51.02
43.20
34.61
26.21
18.47
11.39
4.56
-2.44
-9.92
-17.83
-25.71
-32.86
-38.24
-40.94
-40.36
-36.44
-29.61
-20.77
-10.93
-0.91
8.71
17.87
26.51
34.35
40.80
45.10
46.18
42.91
34.40
19.88
-0.41
-25.42
-53.14
-80.28
-102.38
-114.89
-114.00
-97.64
-66.78
-24.90
22.07
66.93
103.03
125.88
133.22
125.56
105.72
74.81
37.40
0.61
-28.70
-47.16
-55.71
-59.03
-65.07
-77.93
-98.60
-123.92
-147.80
-163.27
-165.00
-146.46
-107.46
-52.63
11.08
76.27
137.40
190.25
231.19
256.61
263.54
250.21
217.86
170.75
113.98
52.41
-10.08
-69.48
-120.33
-155.98
-171.36
-165.41
-142.43
-110.96
-79.77
-54.46
-36.56
-25.47
-21.74
-29.15
-52.55
-93.92
-148.83
-205.98
-250.87
-271.30
-261.62
-223.67
-164.83
-95.09
-24.85
35.70
77.26
93.10
81.53
47.99
4.61
-33.20
-52.10
-45.70
-16.44
26.11
69.59
103.51
122.11
124.61
113.79
94.00
69.83
45.65
25.38
12.35
8.95
15.91
31.93
53.88
77.39
97.97
111.97
117.52
114.94
106.69
96.49
88.10
84.07
85.00
89.52
95.20
99.71
101.97
102.57
103.02
104.69
107.73
110.90
112.24
110.32
105.37
99.49
96.02
97.28
102.89
109.41
111.54
104.00
83.05
47.34
-1.61
-58.86
-117.63
-170.16
-208.78
-226.89
-220.82
-191.91
-147.10
-97.06
-51.55
-17.21
4.70
17.84
28.84
43.28
62.20
81.32
93.85
95.85
86.71
69.61
49.14
29.35
14.00
6.57
7.33
4.55
-8.78
-33.99
-63.28
-87.32
-95.52
-78.83
-33.52
36.11
118.30
198.49
262.37
300.48
310.28
296.57
267.94
232.39
194.69
156.58
119.66
85.71
56.95
34.96
20.11
10.77
2.95
-8.12
-26.10
-51.41
-81.89
-114.13
-145.45
-174.50
-201.58
-228.39
-256.87
-288.16
-322.00
-357.31
-393.83
-432.32
-473.00
-513.90
-550.23
-575.26
-582.73
-569.29
-535.63
-487.06
-430.93
-373.56
-318.26
-265.82
-215.93
-168.46
-123.10
-77.62
-28.75
27.18
92.06
163.69
234.17
291.59
326.30
328.25
297.05
243.87
183.47
126.73
80.73
48.57
34.98
40.25
60.83
95.46
135.12
167.93
186.67
194.18
201.24
211.79
223.49
231.74
227.31
202.22
154.02
86.41
9.05
-66.95
-128.55
-166.33
-176.89
-163.36
-133.02
-90.47
-45.81
-8.69
16.46
31.13
38.30
42.64
44.55
44.80
46.35
53.09
69.97
97.27
133.25
173.11
210.59
239.55
256.15
259.02
248.49
227.31
200.21
172.54
148.62
131.54
122.07
118.62
117.21
112.07
98.00
72.03
33.03
-18.45
-78.93
-141.45
-195.90
-230.63
-235.84
-206.91
-146.48
-65.94
17.51
86.84
130.57
144.67
133.02
104.40
64.09
21.19
-14.95
-39.55
-53.87
-61.76
-66.94
-70.16
-70.31
-68.44
-64.79
-61.74
-62.54
-69.67
-84.24
-107.77
-139.95
-178.83
-216.45
-244.66
-256.93
-249.80
-223.82
-174.59
-110.54
-47.36
1.70
32.82
49.76
58.07
61.27
60.72
57.07
49.99
41.20
33.64
29.69
29.51
31.55
33.65
34.61
34.43
32.98
31.24
30.80
33.43
38.70
45.40
52.38
59.28
66.48
74.11
82.37
91.06
98.90
103.31
101.51
91.65
73.65
49.02
20.19
-10.06
-39.13
-65.30
-88.17
-108.44
-127.19
-143.82
-156.69
-162.91
-159.50
-144.13
-116.08
-76.91
-30.16
20.60
73.34
127.90
185.57
245.78
305.30
358.57
398.89
420.19
419.55
398.29
361.28
316.04
268.11
220.91
176.26
134.61
95.23
57.44
21.10
-13.40
-44.35
-72.21
-98.10
-122.62
-138.65
-138.99
-121.15
-89.84
-62.37
-43.14
-33.47
-34.21
-41.04
-51.75
-65.55
-82.31
-101.96
-124.11
-146.96
-170.95
-197.46
-227.27
-259.95
-292.99
-321.18
-337.65
-335.95
-311.72
-266.82
-207.62
-141.74
-75.85
-14.47
39.17
81.52
108.57
117.55
107.23
79.48
39.27
-7.80
-57.42
-107.23
-156.32
-202.19
-238.92
-259.49
-259.00
-236.03
-192.58
-132.34
-59.80
18.70
95.60
162.52
210.91
233.23
227.16
196.89
154.79
118.10
97.96
94.66
100.93
108.61
111.07
106.18
96.01
83.18
71.29
60.69
50.20
38.67
25.44
7.86
-16.84
-50.68
-95.02
-146.06
-201.30
-256.16
-303.20
-320.15
-294.00
-229.29
-146.33
-68.32
-10.14
23.86
38.06
40.84
40.10
38.13
34.25
27.53
18.68
9.46
1.45
-3.72
-5.82
-4.70
-2.25
-0.30
0.25
-0.30
-1.48
-2.58
-3.07
-2.05
2.10
10.68
25.55
49.08
83.24
122.28
158.35
180.80
179.93
151.49
99.63
36.70
-20.91
-58.98
-70.95
-57.20
-25.05
16.17
58.40
96.69
128.06
149.98
159.57
154.02
135.72
108.92
80.18
56.23
43.26
45.20
62.60
91.83
124.91
156.22
178.63
187.11
179.19
157.38
128.18
99.96
79.56
69.18
72.25
87.21
111.33
130.62
134.27
121.08
100.94
96.02
95.19
99.50
98.90
85.90
58.90
18.69
-31.01
-79.09
-114.75
-134.79
-139.72
-137.01
-132.73
-129.23
-124.28
-114.37
-97.39
-75.94
-56.73
-42.92
-36.73
-36.81
-40.05
-42.73
-43.15
-40.02
-35.10
-32.64
-34.56
-42.08
-54.16
-68.66
-79.82
-85.99
-86.70
-83.32
-78.65
-74.47
-72.16
-71.78
-72.47
-72.91
-72.20
-69.31
-64.38
-58.71
-53.69
-50.73
-50.42
-52.39
-55.45
-58.37
-59.81
-59.22
-57.11
-54.69
-53.24
-53.73
-56.77
-62.66
-71.42
-81.62
-90.09
-92.34
-84.03
-63.16
-31.67
4.68
38.40
63.15
76.37
79.64
76.94
72.26
67.73
63.44
58.53
52.70
46.72
42.08
39.87
39.93
40.88
40.93
38.62
33.75
27.39
21.33
17.18
15.71
16.40
17.79
18.16
16.30
12.13
6.71
1.76
-1.20
-1.54
0.16
2.40
3.41
2.03
-1.70
-6.52
-10.50
-11.88
-9.91
-5.11
0.91
6.42
10.26
12.49
14.31
17.48
23.56
33.50
47.44
64.56
82.70
98.14
106.02
101.69
82.77
50.96
12.29
-24.49
-50.94
-61.97
-57.29
-40.72
-18.08
5.33
26.06
42.47
53.73
58.94
56.99
47.40
31.22
11.42
-7.73
-21.99
-28.75
-27.97
-22.08
-14.78
-9.28
-6.89
-6.75
-6.65
-4.52
0.32
6.63
11.80
13.04
8.85
-0.26
-12.20
-24.06
-33.60
-40.05
-44.29
-48.68
-56.40
-70.50
-92.64
-121.97
-154.21
-181.67
-194.66
-184.59
-147.89
-88.56
-17.95
48.57
96.32
115.58
102.39
59.21
-5.70
-81.16
-155.28
-216.95
-257.21
-270.93
-258.13
-224.32
-178.62
-130.24
-86.60
-51.26
-23.67
-0.31
23.56
52.67
90.72
139.71
199.66
266.32
331.16
383.64
414.76
420.18
401.98
367.55
321.17
269.51
218.35
171.08
129.11
93.02
63.54
41.68
27.77
20.71
18.76
19.12
18.67
15.63
10.07
3.39
-2.74
-7.36
-10.74
-13.96
-18.92
-28.01
-42.32
-61.40
-83.62
-107.18
-130.85
-154.42
-178.41
-200.26
-220.01
-238.49
-256.96
-276.42
-296.49
-314.32
-324.07
-318.73
-293.32
-248.38
-190.15
-128.97
-75.54
-36.81
-13.86
-2.35
5.02
13.95
26.48
41.70
57.15
70.73
81.56
90.19
98.74
109.18
122.99
140.81
163.30
190.75
222.35
255.41
280.64
289.83
277.12
241.69
189.13
129.75
74.49
30.67
-0.29
-22.37
-41.11
-61.84
-86.22
-111.69
-132.73
-143.49
-140.37
-123.52
-97.02
-66.96
-39.81
-20.79
-12.79
-15.00
-24.36
-38.01
-54.39
-73.17
-93.55
-113.65
-130.56
-141.37
-144.44
-140.27
-131.37
-120.51
-109.85
-100.20
-91.11
-81.21
-68.93
-53.18
-33.99
-12.72
8.75
28.20
44.14
56.18
65.33
73.81
84.44
100.09
120.55
146.24
177.33
213.10
251.13
286.78
313.85
326.32
320.76
297.92
263.07
223.58
186.03
154.04
127.56
104.19
81.12
56.96
32.20
8.87
-11.25
-27.78
-42.11
-56.71
-73.83
-94.25
-116.57
-137.86
-154.85
-165.74
-170.86
-172.27
-172.44
-172.97
-174.14
-175.38
-176.25
-176.84
-177.73
-179.25
-180.96
-181.57
-179.46
-173.37
-162.85
-148.30
-130.82
-111.94
-93.24
-75.85
-60.03
-45.04
-29.40
-11.76
8.33
30.03
51.64
71.36
88.13
101.86
112.92
121.35
126.55
127.46
123.30
114.27
101.74
87.95
75.45
66.54
63.00
65.92
75.47
90.55
108.74
126.60
140.55
147.94
147.90
141.37
130.39
117.04
102.70
87.87
72.63
57.28
42.54
29.32
18.16
8.84
0.51
-7.78
-16.43
-25.01
-32.58
-38.28
-41.93
-44.19
-46.19
-48.97
-52.96
-57.79
-62.60
-66.41
-68.51
-68.63
-66.96
-63.90
-59.86
-55.06
-49.41
-42.50
-33.70
-22.40
-8.26
8.49
27.02
45.95
63.63
78.41
88.80
93.66
92.33
84.86
72.11
55.70
37.84
20.79
6.40
-4.33
-11.24
-14.91
-16.22
-16.02
-14.84
-12.89
-10.20
-6.74
-2.60
1.97
6.61
10.91
14.53
17.27
19.05
19.87
19.79
18.88
17.23
14.97
12.20
8.97
5.32
1.36
-2.61
-5.98
-7.96
-7.73
-4.71
1.25
9.79
20.13
31.08
41.13
48.49
51.44
48.87
40.92
29.27
16.80
6.82
1.91
3.09
9.68
19.58
30.14
38.94
44.53
46.59
45.47
41.40
33.75
20.73
-0.01
-29.86
-67.62
-108.41
-144.28
-166.34
-167.75
-145.80
-102.52
-43.59
23.40
90.21
148.63
191.00
211.45
207.79
183.08
145.59
106.34
74.78
54.95
44.38
36.68
26.23
11.98
-2.30
-11.06
-11.29
-5.10
1.20
0.85
-9.35
-27.22
-46.39
-60.18
-65.36
-63.84
-61.90
-67.83
-88.84
-128.67
-185.85
-253.21
-318.91
-369.15
-392.14
-381.95
-340.20
-274.96
-197.56
-118.59
-45.36
17.84
68.59
105.22
126.70
133.41
127.65
113.03
93.39
71.38
46.70
17.17
-18.78
-60.40
-103.98
-144.17
-177.10
-201.78
-219.96
-236.05
-254.20
-275.09
-295.02
-307.56
-306.79
-291.04
-262.74
-225.98
-185.57
-144.29
-101.50
-54.26
0.40
67.44
144.20
216.61
273.33
307.03
314.56
300.00
273.85
249.04
235.75
236.28
246.01
257.73
264.72
264.24
258.43
251.41
245.66
240.79
233.29
220.12
201.65
180.06
157.92
137.05
117.61
98.32
78.14
56.12
32.74
12.75
1.43
2.51
16.98
42.52
70.42
95.43
113.95
124.16
126.00
121.66
112.93
101.53
88.80
74.36
58.10
39.61
19.16
-2.09
-22.93
-42.77
-61.46
-79.29
-98.85
-122.10
-150.38
-183.51
-219.83
-257.15
-293.73
-328.30
-360.09
-391.33
-423.77
-458.16
-493.40
-526.87
-555.53
-577.02
-590.00
-577.26
-528.22
-440.60
-322.78
-190.44
-59.90
57.31
155.68
234.33
294.93
337.57
362.84
372.56
370.32
360.87
348.76
337.23
327.61
319.63
310.01
295.62
274.19
245.93
213.09
178.61
144.86
112.80
82.07
52.72
23.24
-7.01
-36.91
-64.00
-85.80
-100.74
-108.88
-111.69
-111.92
-112.63
-116.09
-123.49
-134.85
-148.57
-160.96
-166.67
-160.26
-138.82
-104.18
-62.61
-22.73
7.68
24.76
29.50
26.25
20.02
14.04
8.73
3.01
-3.92
-11.66
-18.42
-22.14
-21.34
-16.25
-8.07
1.21
9.95
18.33
27.71
40.04
56.40
75.95
95.98
113.28
125.40
131.74
133.01
129.58
120.88
105.61
83.27
55.63
27.13
3.36
-11.22
-14.79
-9.39
0.89
12.25
22.69
31.97
40.51
48.19
54.30
58.34
59.94
59.71
58.78
58.30
58.75
59.86
60.72
60.52
58.90
55.98
52.44
48.92
45.71
42.55
39.15
34.77
29.60
24.62
21.12
20.22
22.12
25.77
29.06
29.62
25.55
16.61
4.12
-10.00
-23.94
-37.05
-50.04
-64.51
-81.27
-101.67
-125.69
-151.59
-175.89
-193.61
-199.43
-189.72
-164.52
-128.35
-89.00
-54.45
-29.65
-15.23
-7.75
-2.12
5.88
18.09
33.46
48.39
57.87
57.55
44.75
20.36
-10.28
-38.66
-56.41
-58.82
-48.40
-32.83
-20.84
-17.90
-24.10
-35.39
-46.92
-56.15
-63.71
-71.71
-81.02
-90.24
-95.72
-93.96
-83.37
-64.72
-40.54
-14.21
11.76
36.38
59.88
82.94
105.70
127.15
145.31
157.80
162.48
158.19
145.07
124.37
97.98
68.20
37.19
6.38
-21.69
-45.09
-62.53
-73.44
-78.16
-77.29
-71.38
-60.87
-45.94
-26.60
-3.16
23.90
54.06
86.55
118.77
147.66
168.52
176.06
166.69
140.45
102.21
60.27
23.32
-2.84
-16.89
-21.60
-21.40
-19.73
-17.95
-15.74
-12.44
-8.37
-4.88
-3.32
-4.29
-7.05
-9.90
-10.97
-9.18
-4.77
1.00
6.21
9.45
10.22
9.22
7.90
7.89
10.22
14.89
20.90
26.65
30.78
32.61
32.50
31.55
31.22
32.57
35.68
39.56
42.46
42.60
38.74
30.78
19.44
6.19
-7.71
-21.52
-35.40
-50.07
-66.24
-84.27
-103.58
-124.18
-145.56
-166.17
-182.87
-191.33
-187.50
-169.65
-140.08
-105.29
-72.78
-49.01
-36.86
-35.02
-39.55
-46.23
-52.38
-57.38
-61.91
-66.45
-70.59
-73.17
-72.99
-69.42
-62.59
-52.86
-40.63
-26.09
-9.33
9.45
29.81
51.06
72.38
92.30
110.41
126.31
139.46
149.27
155.02
156.54
154.15
149.48
143.77
138.54
134.89
133.46
134.49
137.57
141.25
142.65
137.80
123.08
97.39
63.05
25.58
-8.34
-33.73
-49.02
-56.05
-58.32
-58.90
-58.93
-58.17
-56.40
-54.57
-54.96
-60.22
-72.19
-91.10
-115.42
-141.68
-165.16
-180.77
-183.94
-173.59
-152.35
-125.72
-100.06
-80.05
-66.12
-55.98
-46.00
-33.51
-18.15
-1.51
14.27
28.06
39.62
50.54
61.80
73.16
83.15
89.90
92.04
89.59
83.95
77.23
71.56
67.96
66.74
66.55
65.88
63.61
59.43
53.77
47.57
42.18
37.71
33.93
30.12
25.48
19.45
11.99
3.65
-4.58
-11.55
-16.53
-19.16
-19.79
-19.06
-17.77
-16.46
-15.19
-13.44
-10.43
-5.61
1.08
8.93
16.73
23.12
27.09
28.45
28.14
27.68
28.47
31.20
35.40
39.72
42.62
42.85
40.19
35.87
31.85
30.25
32.81
40.51
53.08
68.32
81.74
87.41
80.32
58.41
24.12
-15.96
-53.36
-81.12
-95.31
-97.03
-91.75
-84.66
-78.11
-71.08
-61.39
-47.88
-32.03
-17.48
-8.25
-7.24
-13.86
-25.83
-40.08
-53.58
-63.45
-66.90
-61.73
-45.45
-20.65
7.84
34.24
54.01
65.76
71.62
75.72
81.38
88.68
93.53
90.20
74.04
44.36
5.42
-35.13
-69.25
-91.85
-102.28
-104.18
-102.44
-101.17
-102.46
-105.95
-109.98
-112.18
-109.95
-100.92
-83.40
-56.86
-22.98
14.07
48.37
73.49
84.78
79.99
60.47
31.07
-0.81
-27.44
-42.98
-45.17
-35.83
-19.83
-3.33
8.40
12.54
8.64
-1.42
-14.76
-28.30
-39.61
-47.47
-52.35
-56.33
-61.79
-70.12
-80.36
-88.91
-90.74
-81.73
-60.83
-31.15
1.16
29.38
48.87
58.56
60.22
57.10
52.13
47.16
43.49
42.83
47.81
60.77
81.44
104.57
120.62
119.19
93.77
45.95
-14.01
-70.52
-108.05
-114.88
-88.35
-34.87
33.42
103.02
162.33
203.31
222.12
219.24
199.42
170.18
139.81
114.41
95.59
80.04
61.43
33.92
-5.06
-52.98
-102.87
-145.16
-170.36
-171.47
-146.15
-97.67
-34.32
33.04
94.52
144.63
184.16
219.18
257.38
303.52
356.12
407.31
446.08
463.21
455.05
424.65
379.51
327.59
274.30
221.78
170.58
121.87
78.42
43.58
19.26
4.66
-4.06
-11.88
-22.57
-37.15
-53.76
-68.87
-79.68
-85.43
-87.81
-90.05
-95.41
-105.66
-120.53
-138.21
-156.58
-174.61
-192.41
-210.65
-229.89
-250.34
-272.26
-296.27
-322.80
-350.89
-377.48
-396.83
-401.89
-386.90
-349.48
-291.22
-216.30
-129.90
-37.55
52.82
131.69
188.66
215.26
208.35
172.21
117.95
60.18
12.28
-20.45
-38.76
-47.38
-51.86
-56.68
-65.08
-78.90
-98.92
-125.16
-161.66
-211.11
-273.87
-347.31
-426.85
-507.38
-583.00
-646.07
-687.27
-703.51
-694.38
-663.08
-616.53
-564.90
-519.31
-487.81
-472.23
-432.27
-340.94
-193.20
-11.36
169.66
322.72
437.70
518.27
574.50
616.11
643.04
652.35
642.69
616.87
580.58
540.98
504.21
474.47
453.23
434.81
412.95
384.15
348.65
308.17
266.09
226.10
191.41
163.39
137.70
107.77
73.98
36.38
-6.55
-54.97
-107.45
-161.36
-214.22
-266.58
-320.47
-377.84
-418.86
-429.53
-406.33
-357.79
-297.58
-236.56
-181.21
-134.12
-95.49
-64.93
-44.70
-36.36
-39.42
-50.25
-62.33
-67.88
-59.93
-34.58
6.64
54.86
98.91
130.01
144.93
146.26
139.74
131.08
123.79
118.42
112.43
103.77
92.43
80.43
70.25
63.06
58.29
54.40
49.68
42.66
33.22
22.55
12.47
4.62
-0.35
-2.74
-3.30
-2.72
-1.43
0.61
3.82
8.22
13.99
20.58
26.91
31.82
34.39
34.13
30.82
24.41
15.02
2.95
-10.79
-24.66
-36.63
-44.70
-47.43
-44.72
-37.64
-28.13
-18.24
-9.39
-1.78
5.52
13.84
24.02
35.43
46.11
53.74
56.62
54.78
50.22
46.22
46.26
53.11
67.83
89.58
115.44
140.26
156.72
156.60
133.47
86.39
21.67
-48.42
-109.17
-148.71
-162.56
-154.75
-135.10
-114.25
-99.95
-94.45
-95.29
-98.55
-101.07
-101.37
-98.99
-93.41
-83.91
-68.71
-47.45
-22.69
2.14
24.52
43.54
61.09
81.98
110.25
150.09
201.44
257.11
306.11
337.44
343.70
324.23
285.22
231.56
171.90
121.11
82.69
51.05
20.33
-14.68
-57.62
-109.96
-170.50
-233.63
-291.29
-335.62
-359.62
-359.63
-337.06
-297.64
-248.89
-198.06
-150.22
-109.28
-79.17
-62.16
-58.21
-65.42
-80.24
-97.98
-113.99
-123.97
-124.97
-115.67
-95.33
-63.43
-20.78
29.51
82.04
128.53
159.04
163.90
136.65
77.57
-4.66
-94.71
-175.02
-229.68
-250.04
-236.47
-196.87
-142.82
-84.97
-29.98
19.56
63.47
103.77
141.32
175.66
205.69
231.09
253.01
273.92
296.41
322.43
355.81
399.78
456.19
523.97
598.08
669.98
730.09
770.55
772.08
725.06
631.02
502.89
360.07
220.74
96.62
-7.20
-90.31
-155.05
-202.84
-235.98
-257.78
-272.10
-281.91
-290.97
-301.60
-315.02
-332.30
-353.11
-377.57
-406.84
-439.97
-475.50
-510.10
-537.21
-548.66
-538.22
-503.95
-450.18
-386.59
-326.57
-276.92
-239.61
-212.38
-191.11
-172.39
-154.82
-138.15
-122.61
-107.90
-92.68
-75.22
-54.14
-28.97
0.14
29.17
55.86
79.19
99.26
117.29
135.24
154.55
175.72
198.40
219.71
237.97
252.36
262.99
271.40
280.67
293.62
311.87
335.83
361.73
386.04
405.50
417.52
412.22
384.65
334.78
267.89
205.85
159.08
132.61
127.50
137.34
155.16
173.66
185.26
179.13
150.88
101.43
39.55
-23.44
-78.65
-121.86
-152.56
-172.49
-183.31
-185.48
-181.60
-174.55
-168.41
-166.91
-171.76
-182.18
-195.89
-209.83
-221.34
-230.92
-240.98
-256.16
-280.84
-316.46
-359.57
-401.93
-431.91
-438.20
-414.89
-359.15
-277.27
-180.45
-79.96
17.00
104.72
180.07
242.04
290.63
326.83
351.58
365.84
369.24
359.26
331.97
285.20
221.39
148.21
76.95
17.89
-22.94
-45.57
-55.01
-57.91
-59.06
-60.46
-62.08
-63.09
-62.67
-59.33
-50.81
-35.09
-12.22
14.49
39.09
54.99
58.13
48.79
31.31
11.92
-4.26
-14.88
-20.15
-21.34
-19.52
-14.96
-7.79
1.18
10.31
17.55
21.30
21.26
18.57
15.37
13.57
14.01
16.07
17.91
17.18
12.05
2.00
-11.98
-27.72
-42.71
-54.32
-62.14
-67.02
-70.64
-74.78
-80.45
-87.52
-94.67
-100.06
-102.35
-101.21
-97.44
-92.66
-88.63
-86.59
-87.38
-91.35
-98.17
-106.38
-113.07
-113.99
-105.24
-85.53
-56.61
-23.93
5.41
25.73
34.91
34.73
29.42
23.08
17.96
14.19
10.79
7.26
4.31
3.33
5.42
10.53
17.30
23.76
28.05
29.28
27.83
25.24
23.32
23.51
26.41
31.53
37.63
43.23
47.28
49.48
50.57
51.58
53.67
57.49
62.87
68.86
74.05
77.28
77.90
76.37
73.60
71.02
70.13
72.52
79.66
92.25
109.19
125.23
134.46
130.37
109.37
73.24
29.43
-11.78
-41.65
-56.55
-59.15
-55.94
-54.16
-57.58
-66.46
-78.97
-93.09
-107.56
-121.23
-132.30
-136.76
-132.00
-117.16
-93.96
-66.39
-39.21
-16.30
0.46
10.47
14.12
11.93
5.53
-2.01
-6.66
-4.44
7.02
27.68
54.12
80.81
100.96
108.34
99.07
73.01
35.51
-3.47
-29.27
-30.22
-3.39
42.88
91.87
125.54
132.33
113.02
76.86
37.50
5.42
-15.97
-29.88
-42.70
-59.46
-81.27
-104.02
-122.64
-130.72
-123.49
-101.50
-69.04
-32.92
2.30
33.09
57.29
73.46
80.50
76.71
60.50
32.38
-3.94
-41.78
-73.88
-95.03
-103.31
-100.34
-90.54
-79.16
-70.46
-66.77
-68.59
-75.81
-88.72
-107.20
-130.13
-155.00
-177.31
-191.65
-193.44
-181.12
-154.52
-121.39
-91.68
-72.73
-66.72
-70.82
-80.08
-90.36
-99.51
-108.08
-117.36
-127.16
-135.90
-141.81
-143.51
-141.05
-135.42
-127.95
-119.50
-110.22
-98.76
-82.74
-62.41
-37.84
-9.85
20.26
50.96
80.91
109.00
134.93
158.95
181.48
203.30
224.87
246.34
267.77
289.36
311.39
334.06
356.74
377.36
392.81
399.40
394.38
377.08
349.32
314.71
277.30
240.11
204.55
170.85
138.78
108.53
81.02
57.59
39.37
26.57
18.36
12.93
8.18
2.29
-5.55
-15.01
-24.88
-33.69
-40.41
-44.69
-46.67
-46.39
-43.54
-37.53
-28.15
-16.08
-2.95
9.35
19.65
28.16
36.29
45.63
56.53
67.29
74.39
73.79
62.79
41.32
12.26
-19.47
-48.63
-71.39
-86.20
-93.78
-96.25
-95.97
-94.73
-93.46
-92.39
-91.47
-90.47
-89.09
-86.69
-82.44
-75.44
-65.23
-52.05
-37.01
-21.78
-8.09
2.86
10.70
15.90
19.46
22.38
25.35
28.55
31.78
34.74
37.20
39.23
41.26
44.09
48.74
56.13
66.71
80.03
94.74
108.99
121.10
130.32
137.14
142.95
149.33
157.23
166.61
176.52
185.51
191.98
194.42
191.44
181.85
164.91
140.56
109.75
74.57
37.97
3.27
-26.39
-48.70
-62.54
-68.09
-66.96
-61.70
-55.38
-51.05
-50.86
-55.45
-63.77
-73.55
-82.45
-89.82
-96.86
-106.24
-120.71
-141.58
-167.93
-196.95
-225.19
-250.34
-272.91
-295.19
-320.37
-351.20
-388.58
-430.96
-474.66
-514.81
-546.83
-569.37
-582.68
-587.73
-585.10
-573.73
-551.60
-517.30
-471.18
-415.45
-355.07
-293.76
-233.35
-174.77
-119.18
-69.77
-31.61
-9.62
7.67
29.98
65.28
115.37
174.39
233.11
283.67
322.34
349.36
367.18
376.13
375.54
363.76
338.58
300.72
253.74
203.70
158.39
125.33
108.10
106.46
119.41
138.69
154.66
160.68
155.65
143.12
128.46
114.69
102.16
89.24
73.85
56.41
39.54
26.49
19.15
17.23
18.10
18.56
16.48
11.34
5.07
0.71
0.92
6.40
15.79
26.29
35.24
41.28
44.45
46.37
48.90
53.06
58.55
64.49
70.25
75.70
80.46
82.83
79.74
67.36
42.90
6.01
-40.15
-90.22
-138.33
-180.05
-213.03
-236.08
-248.18
-246.48
-229.26
-197.60
-156.15
-112.25
-72.79
-41.08
-14.85
12.28
46.95
91.60
142.45
190.95
227.92
248.04
252.16
246.89
241.57
244.47
259.52
285.12
315.07
340.86
354.56
350.83
328.80
291.44
244.39
193.68
143.93
97.74
56.06
19.15
-13.39
-42.16
-68.28
-93.18
-118.10
-143.84
-170.08
-195.43
-215.50
-226.21
-224.98
-212.63
-192.68
-169.58
-146.98
-126.82
-109.76
-95.74
-86.98
-84.60
-90.18
-105.18
-130.30
-164.84
-205.78
-247.87
-278.39
-287.41
-270.74
-232.47
-183.08
-134.80
-96.71
-72.06
-58.88
-52.56
-49.90
-49.15
-50.33
-53.36
-57.23
-60.35
-61.42
-60.39
-58.20
-56.77
-57.40
-59.98
-62.87
-63.53
-61.09
-54.82
-44.67
-31.04
-14.99
2.32
19.94
37.31
54.97
74.95
99.85
130.90
166.15
199.45
222.04
225.55
205.93
165.85
115.43
68.35
37.05
29.22
46.53
85.88
141.67
207.21
274.72
335.69
379.55
396.11
380.13
335.48
275.91
221.29
190.20
192.35
226.07
277.63
327.58
358.68
362.08
338.81
296.93
246.63
185.83
115.59
39.12
-37.68
-107.32
-163.15
-201.49
-222.54
-230.39
-231.13
-229.00
-226.71
-224.70
-221.71
-215.72
-205.48
-191.31
-175.25
-160.29
-147.94
-139.03
-133.22
-129.15
-125.01
-119.35
-111.49
-102.19
-93.14
-85.64
-80.78
-78.96
-79.64
-81.45
-82.69
-81.98
-79.44
-75.87
-72.52
-70.87
-72.10
-76.96
-85.76
-98.12
-111.98
-123.87
-128.77
-121.38
-98.55
-61.26
-14.93
32.31
72.61
101.69
118.82
126.39
127.76
125.29
119.74
110.92
98.93
81.99
63.19
45.36
29.96
16.85
4.93
-6.93
-18.99
-30.50
-40.12
-46.05
-48.14
-47.39
-45.53
-44.22
-44.35
-45.66
-46.89
-46.44
-42.25
-34.20
-23.24
-10.85
1.68
13.86
26.14
39.56
53.59
68.66
83.82
97.29
107.37
113.07
114.61
113.26
110.75
108.67
108.61
111.34
116.93
124.05
129.50
128.63
116.92
92.28
56.77
16.78
-19.66
-45.94
-59.45
-62.00
-58.11
-52.24
-46.88
-42.30
-37.67
-32.95
-28.88
-26.95
-28.22
-32.55
-38.52
-44.33
-48.26
-49.65
-48.87
-46.87
-44.68
-42.87
-41.30
-39.33
-36.34
-31.88
-26.08
-19.51
-12.85
-6.73
-1.55
2.63
6.04
8.62
10.59
11.99
13.02
14.11
15.68
17.87
20.42
22.94
24.36
24.42
22.88
20.27
18.04
17.79
20.48
25.93
33.05
38.77
40.44
35.14
22.13
3.68
-15.63
-30.77
-38.86
-35.47
-23.10
-7.64
1.96
-1.35
-19.79
-50.53
-87.28
-123.30
-153.77
-178.30
-185.74
-169.97
-132.74
-82.57
-29.34
20.56
58.89
85.98
99.98
99.14
81.46
47.15
2.13
-47.84
-98.19
-139.32
-165.00
-175.39
-175.07
-171.58
-170.62
-173.73
-178.65
-180.04
-171.58
-148.73
-111.51
-64.11
-14.77
27.60
57.13
72.82
78.58
80.24
81.65
82.62
80.43
72.23
57.59
39.61
23.34
13.46
12.06
17.95
27.98
38.49
46.25
48.02
40.62
22.10
-6.36
-39.16
-67.56
-82.98
-80.94
-63.49
-38.40
-15.34
-1.13
2.61
-1.06
-7.66
-14.39
-21.40
-30.58
-43.30
-58.72
-73.53
-84.11
-88.06
-85.74
-79.85
-74.10
-71.03
-70.61
-72.56
-73.91
-71.46
-62.95
-48.53
-30.54
-12.36
3.41
16.14
27.35
40.15
57.45
81.59
112.82
149.53
189.24
229.46
267.76
301.39
327.47
343.27
348.79
345.69
336.69
324.25
309.89
293.94
276.10
256.79
238.04
225.15
222.67
231.63
248.14
264.60
272.66
266.38
244.32
198.37
130.57
51.17
-25.65
-89.01
-135.07
-165.69
-184.59
-194.64
-197.39
-192.18
-179.58
-162.09
-143.63
-127.53
-115.36
-106.71
-100.12
-94.12
-86.39
-76.05
-64.07
-52.88
-44.92
-41.82
-44.13
-51.51
-63.05
-76.56
-90.16
-100.72
-108.04
-113.01
-117.03
-121.41
-126.99
-133.68
-139.95
-143.68
-143.29
-138.57
-130.63
-121.68
-114.22
-110.32
-111.12
-116.41
-124.85
-133.70
-139.07
-136.41
-122.02
-94.99
-58.21
-18.00
18.23
44.94
60.44
66.85
68.97
71.56
77.30
85.63
93.09
95.10
87.92
70.53
45.62
19.14
-1.76
-11.57
-8.98
3.79
20.81
36.68
49.00
58.53
67.21
75.84
83.48
88.07
88.10
83.84
77.23
70.54
65.10
60.09
53.34
42.97
28.19
9.38
-11.75
-33.35
-53.95
-73.04
-90.24
-107.01
-124.92
-144.79
-165.64
-183.97
-194.36
-191.35
-172.14
-138.35
-96.19
-54.04
-19.29
4.13
17.49
24.20
28.00
31.17
34.34
37.21
39.91
43.43
49.06
57.15
66.77
75.98
82.79
86.16
86.67
86.38
87.77
92.65
101.54
113.07
124.03
130.15
127.33
112.97
87.44
54.37
19.77
-9.88
-29.82
-37.94
-35.87
-27.52
-16.84
-6.09
4.33
14.72
25.00
33.96
39.37
39.42
33.93
23.58
10.06
-4.73
-19.66
-34.54
-49.93
-66.79
-85.11
-103.67
-120.17
-131.49
-134.86
-128.78
-113.62
-90.12
-62.97
-37.09
-15.98
-1.18
7.82
12.48
14.44
14.42
11.65
3.87
-11.09
-34.66
-67.04
-106.38
-148.45
-186.66
-212.89
-219.75
-203.65
-165.91
-112.51
-52.21
7.08
60.78
106.35
143.79
175.44
203.09
226.74
244.34
252.58
248.26
229.37
196.34
152.89
105.54
61.52
26.28
1.46
-15.37
-28.21
-39.58
-47.99
-48.18
-34.55
-5.28
35.96
81.23
121.72
151.03
166.42
167.94
157.27
136.06
105.86
69.60
31.94
-1.18
-24.56
-35.57
-35.26
-27.58
-17.92
-11.60
-12.26
-21.08
-36.41
-54.63
-71.65
-84.47
-92.36
-96.41
-100.30
-107.31
-119.29
-135.70
-154.24
-171.02
-181.37
-180.21
-163.54
-130.99
-87.20
-42.54
-9.47
2.46
-7.68
-32.28
-57.75
-70.83
-65.16
-42.78
-14.37
8.75
20.13
20.24
14.01
6.94
1.65
-2.73
-8.42
-16.28
-24.10
-27.94
-24.05
-11.04
9.25
32.97
55.61
74.14
87.99
98.94
111.18
128.15
149.99
172.27
187.19
186.79
166.86
129.65
83.47
39.01
4.59
-16.57
-25.78
-26.20
-20.42
-9.72
4.41
18.53
27.55
26.28
12.70
-10.61
-37.25
-60.22
-75.19
-82.23
-85.58
-90.69
-101.15
-116.37
-131.80
-140.61
-137.19
-119.01
-87.77
-48.72
-7.98
29.45
60.05
80.57
87.44
77.77
52.63
18.94
-11.42
-25.55
-16.00
14.92
55.01
86.93
95.21
73.10
24.70
-37.84
-99.00
-145.49
-169.53
-170.20
-150.11
-119.33
-88.61
-65.26
-52.15
-47.87
-48.92
-52.03
-54.97
-55.94
-53.57
-45.63
-29.82
-5.40
26.30
59.43
88.89
110.82
123.45
127.32
125.29
121.02
117.34
115.62
115.36
115.16
113.26
108.44
100.38
90.09
81.57
75.41
71.74
69.97
69.06
67.53
63.99
57.92
49.80
41.03
33.55
28.58
26.86
29.11
36.22
49.00
67.27
88.76
104.61
108.30
94.93
64.46
22.83
-20.18
-54.94
-75.95
-83.57
-82.58
-78.01
-74.60
-74.63
-78.67
-87.09
-100.61
-119.58
-142.36
-164.30
-174.02
-165.02
-136.56
-94.60
-49.57
-12.10
11.17
19.56
17.50
11.59
6.23
3.26
2.30
2.09
1.88
1.67
1.86
2.75
4.43
6.13
7.18
7.46
7.14
6.50
5.76
4.97
4.16
3.53
2.98
2.75
3.18
4.23
5.46
6.22
5.74
3.78
0.59
-3.19
-6.25
-6.65
-2.56
7.13
21.60
37.41
49.02
50.76
39.49
16.53
-11.37
-35.53
-48.98
-49.68
-40.64
-27.83
-16.96
-11.45
-11.97
-17.38
-26.18
-36.35
-45.12
-48.99
-45.00
-32.05
-13.08
6.77
21.87
28.49
26.03
16.57
3.46
-10.22
-22.27
-31.39
-36.63
-37.62
-35.01
-30.38
-25.96
-23.26
-22.50
-22.27
-19.91
-12.83
0.38
19.42
42.42
65.79
85.62
98.28
101.83
97.12
88.22
81.31
82.24
93.80
113.38
133.46
144.19
137.88
112.56
73.24
29.96
-7.30
-31.68
-42.03
-41.92
-37.15
-32.58
-30.36
-29.72
-28.37
-24.98
-19.57
-13.85
-9.96
-9.52
-13.27
-21.38
-33.49
-49.14
-66.87
-83.38
-94.25
-94.67
-81.57
-55.38
-20.80
13.68
38.29
45.59
34.01
8.97
-19.34
-40.51
-48.65
-44.94
-36.19
-30.41
-32.18
-40.51
-50.54
-57.15
-58.06
-54.39
-48.37
-40.70
-29.81
-12.77
10.21
35.94
58.94
73.84
78.02
72.39
60.60
47.03
34.57
24.16
15.47
7.89
1.86
-1.27
-0.06
5.36
12.79
18.37
18.71
13.37
5.87
2.30
7.64
22.35
41.00
54.27
53.65
35.82
4.69
-30.46
-59.32
-74.92
-76.30
-66.81
-52.68
-38.56
-25.82
-13.26
0.69
16.29
31.54
43.60
50.25
51.22
48.57
45.49
44.73
47.39
52.66
58.23
61.57
60.75
55.28
46.14
34.99
23.26
11.54
-0.53
-13.74
-28.31
-44.46
-61.40
-77.66
-91.70
-102.38
-109.38
-113.05
-114.86
-114.88
-113.36
-110.01
-104.29
-95.85
-84.47
-70.52
-54.76
-38.20
-21.14
-5.03
9.39
21.81
32.13
40.32
46.34
50.29
52.40
53.26
53.38
53.55
54.34
55.98
58.19
60.22
61.11
60.26
57.53
53.28
48.44
43.98
40.36
37.31
33.83
28.62
20.75
9.92
-3.23
-17.36
-31.19
-43.71
-54.85
-65.02
-74.82
-84.63
-94.63
-105.00
-115.65
-125.50
-132.15
-132.28
-122.56
-101.86
-72.67
-40.88
-13.66
2.68
6.38
0.20
-10.29
-19.76
-24.94
-24.96
-20.48
-12.35
-0.85
14.35
32.99
52.67
71.43
87.20
98.19
103.92
105.00
102.89
99.26
96.27
93.03
88.89
82.98
74.55
63.62
50.70
36.85
23.55
11.95
2.88
-2.57
-3.91
-1.22
5.18
14.47
24.41
34.47
43.99
52.57
60.60
68.06
74.63
79.82
82.99
83.86
83.09
81.70
80.61
80.17
80.63
80.26
78.86
77.20
76.14
75.16
71.64
61.10
42.26
16.71
-10.54
-32.71
-44.85
-46.25
-40.18
-31.65
-24.93
-21.74
-21.83
-24.09
-27.96
-33.78
-41.30
-50.89
-61.69
-72.13
-80.40
-85.55
-87.59
-87.36
-85.96
-84.12
-82.42
-80.78
-78.89
-76.50
-73.76
-71.05
-68.74
-67.60
-65.93
-62.57
-56.66
-48.08
-37.59
-26.69
-17.02
-9.83
-5.23
-2.33
-0.54
0.57
0.50
-1.96
-8.17
-17.98
-32.01
-49.68
-69.23
-88.10
-102.53
-108.24
-101.93
-82.91
-54.17
-21.77
7.61
29.22
41.58
46.54
47.21
45.77
42.37
36.23
26.94
16.11
6.92
2.47
4.15
11.50
22.41
34.91
47.19
57.59
63.93
63.90
56.22
42.46
26.90
15.45
11.46
13.28
15.44
12.30
1.99
-11.71
-21.26
-20.15
-7.26
11.92
27.83
32.54
23.95
6.27
-13.12
-27.65
-35.04
-37.08
-37.58
-39.45
-43.03
-46.17
-46.06
-41.26
-32.48
-22.36
-14.19
-10.49
-12.02
-17.35
-23.80
-28.68
-30.35
-28.72
-25.03
-20.87
-17.46
-14.83
-11.61
-5.67
4.91
20.91
41.53
63.55
84.07
100.58
111.55
117.07
118.44
117.56
116.35
116.39
118.63
123.10
128.03
129.78
123.65
105.76
75.26
35.59
-6.37
-42.67
-67.34
-78.68
-79.22
-73.77
-67.30
-63.24
-62.91
-65.82
-69.81
-71.43
-66.85
-53.13
-29.96
-0.75
28.20
50.11
60.65
59.50
50.26
38.27
28.01
22.16
21.38
25.60
34.47
46.75
59.27
66.66
63.40
47.02
20.13
-10.19
-35.54
-50.66
-55.56
-54.87
-54.43
-57.57
-63.28
-67.56
-66.58
-58.77
-47.11
-36.04
-28.64
-25.04
-22.89
-19.11
-11.99
-2.09
8.09
15.26
17.13
13.07
3.61
-10.28
-27.44
-46.49
-65.00
-78.52
-83.02
-75.78
-57.28
-31.63
-5.25
15.79
28.11
31.89
29.92
25.44
20.91
17.27
14.53
12.55
11.50
11.55
12.48
13.59
13.90
13.08
11.39
9.78
9.12
9.66
10.88
11.72
11.28
9.16
5.97
2.73
0.77
1.21
4.66
11.02
19.08
26.17
28.32
21.63
4.39
-21.14
-48.56
-69.44
-76.78
-68.49
-48.38
-24.27
-4.05
8.12
13.11
15.17
18.44
24.25
30.65
34.43
33.54
28.56
22.14
16.92
13.92
11.90
8.67
2.77
-5.32
-13.27
-18.32
-18.80
-14.93
-8.52
-1.99
2.72
4.56
3.70
1.15
-1.56
-2.62
-0.44
5.94
16.50
30.19
45.14
59.30
70.65
77.25
77.61
70.88
57.27
38.10
15.75
-6.87
-26.83
-42.27
-53.03
-60.07
-64.42
-66.32
-65.29
-60.78
-53.28
-44.26
-35.81
-31.31
-33.93
-45.15
-63.90
-86.67
-108.00
-121.38
-119.49
-96.56
-51.20
11.96
82.50
146.59
191.10
207.95
192.85
151.16
96.98
47.06
12.73
-3.71
-6.88
-3.27
2.72
8.76
14.02
17.03
14.36
2.45
-19.56
-48.04
-75.56
-90.81
-86.62
-63.08
-27.60
9.18
38.81
58.32
69.55
74.93
75.02
67.29
49.07
20.06
-16.18
-50.92
-74.06
-79.56
-67.88
-44.47
-17.30
7.65
27.77
42.98
54.15
62.19
66.92
67.97
65.19
58.36
48.00
34.93
19.61
1.78
-18.90
-43.98
-75.59
-111.61
-148.81
-181.03
-200.29
-199.85
-182.06
-147.60
-99.41
-42.48
17.62
74.52
122.22
155.09
168.48
160.52
131.78
90.06
48.23
19.32
9.19
14.06
24.88
32.43
30.08
15.60
-9.99
-44.67
-85.56
-129.28
-167.16
-188.81
-187.53
-164.82
-129.01
-90.10
-57.16
-28.83
-1.57
26.30
52.08
68.97
68.10
43.39
-5.11
-70.37
-141.05
-204.95
-251.62
-275.07
-274.96
-255.83
-224.50
-187.79
-150.54
-116.10
-86.14
-60.68
-39.62
-23.29
-12.55
-7.44
-9.82
-14.15
-19.17
-24.04
-27.40
-27.71
-23.50
-15.00
-3.37
9.24
21.29
31.36
40.56
53.40
74.91
108.66
154.05
208.32
266.97
325.10
375.46
409.81
421.17
404.27
358.32
287.02
201.18
115.61
45.13
-1.92
-32.91
-57.31
-85.67
-113.10
-138.59
-160.48
-181.20
-199.78
-214.82
-224.68
-225.00
-211.97
-183.36
-141.89
-92.63
-41.92
5.15
44.84
76.04
102.99
130.64
162.47
197.19
231.17
260.01
281.14
294.00
300.30
306.74
320.36
346.67
386.95
438.79
496.52
552.33
597.00
605.57
561.73
462.90
323.95
170.94
29.22
-85.87
-170.80
-230.05
-270.43
-294.61
-303.54
-298.52
-283.53
-265.09
-249.07
-238.42
-232.66
-229.23
-222.97
-210.47
-191.41
-168.99
-148.95
-136.07
-132.38
-137.32
-148.50
-162.00
-174.80
-185.66
-195.41
-207.12
-223.17
-243.95
-267.10
-287.16
-295.77
-284.42
-247.52
-181.01
-94.33
-3.60
75.31
132.38
165.86
180.96
185.51
185.93
185.46
184.13
181.91
179.19
175.73
169.18
155.35
130.18
92.78
46.47
-1.75
-43.44
-72.40
-86.65
-89.00
-84.69
-78.53
-72.98
-68.12
-63.06
-56.70
-48.63
-38.58
-26.23
-10.71
8.84
32.27
57.40
79.94
95.13
98.15
89.29
71.58
49.79
28.71
11.48
-0.82
-8.80
-13.65
-16.47
-17.82
-18.49
-19.08
-19.67
-20.18
-20.10
-18.52
-14.13
-5.34
9.23
28.92
50.05
66.98
73.38
65.45
43.97
14.13
-16.46
-40.93
-55.77
-61.04
-58.81
-51.61
-41.38
-29.81
-18.70
-11.23
-9.53
-13.46
-20.42
-26.49
-28.52
-25.60
-18.85
-10.75
-3.33
2.66
7.41
11.41
14.90
17.93
20.70
23.76
27.56
32.76
39.48
47.30
55.23
61.88
65.78
65.77
61.29
52.54
40.52
26.65
12.77
-0.09
-11.56
-21.89
-31.76
-41.67
-51.55
-60.49
-67.13
-70.09
-68.94
-64.54
-58.92
-54.66
-53.93
-57.40
-63.90
-70.88
-75.42
-75.67
-71.67
-65.41
-59.95
-58.24
-62.13
-71.83
-86.13
-101.40
-112.79
-115.02
-104.00
-78.87
-43.63
-6.96
21.24
32.81
25.26
2.76
-25.43
-49.22
-61.41
-60.91
-51.44
-38.80
-27.92
-20.69
-15.76
-9.75
0.94
18.48
42.20
69.08
94.61
114.43
125.98
129.34
126.46
119.68
110.53
98.86
84.19
66.80
48.69
33.12
23.11
19.79
21.80
25.96
28.80
28.11
23.65
17.01
10.64
6.36
4.69
4.74
4.85
3.57
0.56
-2.99
-5.27
-4.29
0.75
9.17
18.96
27.67
33.55
36.34
37.24
38.16
41.30
47.27
55.24
62.84
67.66
67.98
63.60
55.69
46.13
37.45
31.40
29.38
32.07
39.17
48.74
56.89
58.67
47.54
23.33
-8.95
-41.11
-65.06
-76.21
-74.58
-63.99
-49.20
-33.97
-19.07
-4.73
8.50
19.06
24.75
23.82
15.59
1.62
-15.02
-29.57
-38.47
-40.57
-37.65
-33.76
-32.82
-36.81
-41.79
-43.75
-37.89
-21.98
2.22
29.63
53.14
69.85
78.94
81.57
79.15
72.93
62.74
47.61
28.08
4.98
-19.69
-43.70
-64.52
-80.28
-89.74
-93.13
-92.02
-88.76
-85.88
-84.90
-86.17
-88.58
-90.32
-89.70
-86.03
-80.11
-73.74
-69.14
-67.87
-70.63
-77.03
-85.73
-94.19
-98.85
-95.71
-81.77
-56.66
-23.39
12.29
43.90
66.74
79.60
84.25
84.08
82.29
80.90
80.36
79.51
76.05
67.29
51.60
29.86
6.29
-13.03
-22.42
-19.77
-7.61
8.55
23.35
34.38
42.39
49.00
53.47
52.08
40.18
15.87
-16.92
-49.02
-69.96
-73.20
-58.32
-32.70
-6.44
12.89
23.03
26.80
29.01
32.59
36.77
37.77
31.52
16.19
-6.70
-33.56
-59.71
-80.85
-93.10
-92.83
-77.84
-49.16
-12.55
22.13
44.65
49.64
39.93
25.52
18.45
26.03
46.78
71.68
89.30
92.19
80.76
61.61
42.37
27.43
16.26
5.61
-7.38
-22.64
-37.20
-47.23
-50.23
-46.80
-39.87
-33.64
-31.47
-34.63
-42.09
-51.04
-58.29
-61.59
-60.33
-55.37
-48.41
-41.26
-34.59
-28.13
-20.90
-11.69
0.32
15.12
31.88
49.06
64.88
77.81
86.95
92.27
94.54
95.01
94.85
94.94
95.83
97.95
101.74
107.13
112.89
116.29
113.43
100.57
75.93
40.94
0.18
-40.12
-74.26
-98.89
-113.48
-119.75
-120.40
-118.01
-114.53
-111.27
-109.20
-109.02
-111.08
-114.75
-118.77
-121.65
-122.53
-121.85
-121.64
-125.02
-134.72
-151.42
-172.04
-190.28
-198.59
-191.19
-166.64
-128.38
-83.46
-39.23
-0.71
30.49
56.11
80.19
107.38
141.35
183.49
232.08
282.30
326.94
359.19
374.11
370.36
350.51
319.83
284.15
247.83
213.21
175.87
134.15
89.45
45.93
8.41
-20.01
-38.94
-49.99
-54.79
-54.21
-48.02
-36.34
-20.62
-3.74
10.91
21.48
26.34
25.06
18.26
7.22
-7.50
-26.38
-50.75
-81.78
-119.20
-161.89
-206.84
-248.56
-279.24
-291.25
-280.22
-247.50
-200.44
-150.13
-107.43
-78.92
-65.18
-61.95
-63.64
-66.19
-68.34
-70.56
-73.51
-76.90
-79.63
-79.35
-74.58
-65.64
-54.45
-43.72
-35.51
-30.52
-28.02
-26.20
-22.61
-15.38
-4.15
9.62
23.28
34.29
41.18
44.14
44.80
46.19
51.26
61.37
75.33
89.77
101.05
106.69
106.62
103.34
98.89
97.13
101.77
114.83
136.20
164.42
196.26
226.57
243.24
235.96
200.14
140.91
70.95
4.62
-47.17
-81.18
-101.19
-114.54
-126.89
-139.96
-149.09
-149.89
-140.06
-118.80
-88.12
-52.84
-19.66
5.26
12.55
-0.24
-25.30
-57.63
-92.27
-125.02
-152.43
-171.20
-178.43
-171.64
-148.20
-109.35
-61.39
-10.92
36.75
79.60
119.19
159.39
202.17
248.21
293.83
322.99
322.64
287.78
223.96
144.49
72.68
15.77
-25.89
-55.01
-74.64
-86.68
-89.94
-82.98
-65.84
-40.81
-12.79
14.94
39.92
59.71
72.13
74.22
62.22
32.96
-14.22
-77.48
-150.93
-227.76
-302.59
-371.11
-428.99
-470.53
-488.38
-475.53
-429.27
-352.44
-254.25
-147.79
-45.53
44.26
118.69
179.02
228.20
268.51
301.56
328.30
349.18
363.92
371.72
371.59
363.46
349.26
332.48
317.14
305.67
297.88
290.92
280.93
264.91
241.46
210.68
173.42
131.00
85.72
41.47
3.50
-22.98
-35.14
-34.27
-25.85
-18.39
-21.00
-40.39
-78.51
-131.27
-189.04
-239.48
-271.27
-277.42
-257.24
-215.68
-161.21
-103.43
-51.25
-12.08
8.23
5.83
-20.03
-66.61
-128.25
-197.95
-269.24
-336.79
-395.78
-440.73
-465.33
-464.07
-435.13
-382.33
-314.76
-243.85
-179.40
-126.87
-86.97
-57.06
-33.08
-11.07
12.31
39.10
69.00
98.41
120.86
129.58
121.18
98.49
70.17
47.66
40.18
51.31
78.67
115.87
155.33
189.83
212.62
217.40
199.56
158.55
100.24
37.04
-15.52
-44.30
-43.49
-16.62
25.40
68.79
101.39
115.37
107.85
80.01
36.65
-14.05
-61.10
-92.36
-97.76
-72.57
-19.61
51.45
126.92
193.77
242.97
270.65
277.31
265.68
239.18
201.38
156.06
107.31
59.26
15.50
-21.14
-48.29
-63.74
-65.67
-53.53
-29.30
1.95
33.15
57.37
70.46
72.53
67.28
59.74
53.62
49.81
46.75
42.20
35.31
27.42
21.46
20.14
24.48
33.13
43.08
51.14
55.25
55.19
52.15
47.67
42.51
36.14
27.08
13.91
-3.53
-23.79
-44.03
-61.23
-73.21
-79.31
-80.29
-77.64
-72.89
-67.13
-61.04
-55.06
-49.69
-45.58
-43.38
-43.49
-46.00
-50.60
-56.64
-63.24
-69.33
-73.95
-76.29
-75.77
-71.95
-64.60
-53.79
-39.85
-23.45
-5.27
14.32
35.34
57.81
81.10
103.11
120.33
128.88
125.85
110.40
84.00
49.53
9.97
-32.21
-75.59
-119.43
-163.18
-206.06
-246.59
-282.08
-308.46
-320.69
-313.54
-284.22
-234.18
-169.12
-97.20
-26.06
39.69
99.26
154.58
208.89
263.24
315.34
360.49
393.87
412.90
418.39
413.85
403.79
392.84
382.52
371.04
354.34
328.23
290.40
241.44
184.51
117.61
43.41
-32.45
-102.72
-160.81
-203.26
-229.87
-242.61
-244.44
-238.70
-227.90
-215.01
-203.05
-194.02
-187.94
-182.51
-174.04
-159.59
-138.94
-114.52
-91.49
-75.33
-69.16
-72.38
-81.07
-90.17
-95.83
-96.80
-93.56
-87.72
-80.89
-74.11
-67.93
-62.73
-58.81
-56.30
-54.95
-54.17
-53.14
-51.33
-48.63
-45.24
-41.57
-38.26
-36.17
-35.96
-37.28
-37.84
-33.54
-19.93
5.61
41.90
83.52
122.46
150.87
164.05
161.37
145.77
121.75
93.62
64.63
37.80
16.64
4.76
4.13
13.10
25.80
33.99
30.25
11.12
-20.54
-56.01
-83.83
-93.58
-79.63
-43.20
7.88
61.47
104.40
126.72
124.48
100.25
61.61
18.39
-20.35
-48.24
-62.59
-64.19
-56.43
-44.14
-33.25
-29.13
-35.02
-51.17
-75.17
-100.13
-119.45
-128.61
-125.73
-111.77
-89.41
-62.05
-33.70
-8.65
8.91
16.51
14.30
5.69
-6.02
-17.90
-26.69
-28.57
-20.76
-3.93
17.18
35.05
42.50
33.97
8.86
-27.76
-66.12
-93.59
-103.38
-97.39
-85.87
-71.51
-52.23
-23.30
19.65
78.14
148.53
218.07
269.66
290.99
281.69
251.00
211.61
173.68
142.23
117.30
96.35
78.03
63.70
56.52
57.89
66.16
76.54
82.24
76.69
56.43
24.36
-10.60
-37.10
-47.59
-41.85
-26.65
-11.82
-5.97
-12.05
-26.58
-42.79
-55.09
-62.60
-69.08
-80.26
-95.59
-113.84
-132.19
-147.71
-159.26
-168.21
-177.73
-191.37
-211.72
-239.45
-274.07
-313.05
-352.02
-385.11
-405.91
-408.89
-391.09
-353.22
-299.32
-235.93
-169.59
-105.31
-46.27
5.69
48.89
81.28
100.90
107.19
102.40
92.45
85.66
89.93
109.78
144.50
188.90
236.17
280.93
320.46
353.77
379.21
392.53
387.37
358.21
303.87
229.40
144.05
57.59
-22.70
-92.70
-149.99
-191.82
-214.36
-214.08
-189.82
-145.14
-87.91
-27.72
27.61
73.72
109.39
135.02
151.18
158.82
158.58
151.46
139.40
125.35
112.59
103.75
100.10
101.33
106.72
114.14
120.40
122.36
117.85
106.00
86.85
60.89
23.86
-22.41
-70.43
-110.72
-137.09
-148.58
-147.76
-138.52
-124.73
-109.62
-94.61
-80.92
-69.77
-61.87
-56.86
-53.48
-50.21
-46.18
-41.46
-36.01
-30.31
-25.05
-20.38
-15.62
-9.83
-2.34
6.53
15.12
21.69
24.27
20.87
9.97
-8.77
-33.69
-60.35
-82.10
-92.57
-87.90
-69.01
-41.55
-13.66
7.62
19.05
21.93
20.07
17.23
15.29
13.87
11.61
7.76
3.17
-0.36
-1.06
1.34
5.47
9.17
10.36
8.22
3.48
-1.85
-5.58
-6.18
-3.61
0.70
4.49
5.62
3.00
-3.07
-10.87
-18.45
-24.18
-27.42
-28.31
-27.26
-24.27
-19.21
-12.29
-4.34
3.15
9.01
13.24
17.38
23.71
33.63
46.45
58.95
67.47
69.26
63.92
53.17
39.92
26.92
15.71
6.85
0.17
-4.03
-4.79
-0.83
8.70
22.98
39.37
53.15
58.83
52.46
33.34
4.49
-28.61
-60.11
-85.37
-101.20
-105.42
-96.55
-74.05
-39.22
4.01
49.17
88.22
113.55
119.94
105.71
73.22
28.33
-20.63
-64.67
-95.52
-108.85
-105.67
-91.02
-71.18
-51.14
-33.31
-18.18
-5.51
4.66
11.76
15.43
16.26
15.71
15.43
16.67
19.64
23.71
27.98
31.75
34.91
38.13
42.36
48.08
54.79
61.18
65.35
65.74
61.52
52.96
41.14
27.36
12.51
-3.24
-20.02
-37.83
-55.74
-72.16
-85.28
-93.74
-97.26
-96.50
-92.75
-87.13
-80.69
-74.02
-67.85
-62.90
-59.38
-56.69
-53.48
-48.15
-39.62
-28.36
-15.77
-3.90
5.42
11.42
14.41
15.38
15.10
14.34
12.20
9.19
6.68
7.26
14.40
31.05
57.78
91.69
127.22
155.40
168.51
163.55
144.00
118.35
95.43
80.70
70.25
58.07
36.81
3.46
-39.40
-84.48
-122.42
-141.05
-133.59
-99.80
-45.60
18.77
81.82
133.31
167.12
183.01
185.06
179.52
173.34
168.40
164.47
160.39
155.22
148.93
141.98
132.51
117.58
95.06
64.38
28.31
-8.04
-39.15
-60.74
-71.48
-76.12
-81.97
-88.49
-96.44
-105.45
-114.78
-124.16
-134.13
-145.81
-163.92
-191.86
-229.39
-273.72
-320.23
-365.16
-407.01
-446.51
-463.70
-448.47
-403.76
-344.51
-287.78
-242.67
-208.65
-178.67
-143.88
-97.82
-43.12
12.61
60.55
94.29
112.00
115.89
110.70
101.13
90.34
76.89
59.36
38.04
17.53
3.58
0.33
8.82
27.18
52.10
78.61
103.19
124.32
143.09
161.22
179.26
196.01
209.15
216.20
215.00
205.33
189.27
170.77
154.16
142.81
138.34
139.50
142.04
139.28
124.51
93.93
48.69
-4.90
-56.84
-96.12
-114.17
-107.44
-78.61
-35.76
10.40
49.81
76.10
87.92
88.48
83.27
77.25
73.08
70.93
69.56
67.77
64.55
58.78
49.01
33.83
12.92
-11.82
-36.74
-57.25
-69.93
-73.72
-70.35
-63.21
-55.38
-47.94
-39.43
-27.02
-8.94
13.49
34.93
47.48
44.29
23.39
-10.32
-46.30
-72.26
-79.59
-66.82
-39.37
-7.84
18.24
34.25
41.00
42.08
40.52
36.02
25.01
3.15
-30.72
-72.61
-113.59
-143.83
-157.09
-153.50
-139.31
-123.30
-111.87
-105.21
-97.46
-80.56
-49.24
-4.49
46.31
93.19
128.18
148.30
155.06
151.96
141.17
122.44
94.92
59.87
21.99
-10.16
-29.19
-32.43
-22.34
-5.05
12.70
27.16
37.14
42.97
44.85
41.99
33.17
17.99
-2.40
-25.14
-46.39
-61.91
-68.06
-62.95
-47.43
-25.09
-1.91
14.82
19.74
10.72
-9.72
-35.12
-57.29
-69.85
-70.28
-60.59
-45.83
-32.00
-24.00
-24.27
-31.79
-42.30
-50.96
-52.97
-45.95
-30.71
-10.90
8.47
23.20
31.73
34.98
35.01
33.67
31.37
27.60
22.07
15.54
9.88
7.10
8.13
11.98
16.43
19.15
18.64
15.11
10.04
5.48
3.11
3.44
5.71
8.48
10.19
10.00
7.94
4.86
1.90
0.03
-0.41
0.24
1.30
2.03
1.98
1.10
-0.32
-1.86
-3.21
-4.26
-5.10
-5.83
-6.50
-7.03
-7.40
-7.61
-7.81
-8.27
-9.30
-11.07
-13.44
-16.04
-18.41
-20.43
-22.32
-24.49
-27.40
-31.15
-35.29
-38.56
-39.51
-36.83
-30.08
-19.89
-7.84
4.03
13.97
20.90
24.71
26.01
25.73
25.11
25.79
29.67
38.05
50.52
64.12
73.18
72.30
58.61
33.75
3.67
-23.56
-41.45
-47.41
-43.30
-33.66
-23.14
-14.51
-8.18
-3.69
-0.90
-1.00
-5.85
-16.02
-29.44
-41.11
-45.43
-38.62
-20.89
3.55
28.32
48.27
61.87
70.63
78.14
85.69
90.66
87.84
73.13
46.47
12.94
-19.57
-44.17
-57.82
-62.13
-61.35
-59.69
-58.74
-57.86
-55.41
-50.55
-44.42
-39.61
-39.15
-44.58
-54.42
-63.84
-65.94
-54.40
-26.78
13.83
59.49
100.30
128.67
142.00
143.37
137.91
130.72
124.32
118.73
112.95
106.26
98.21
88.02
73.52
51.71
20.98
-16.85
-56.34
-89.39
-108.39
-110.14
-96.27
-72.39
-45.74
-22.42
-5.76
4.36
10.39
15.96
24.39
37.41
54.49
72.92
88.27
96.38
94.11
79.16
51.42
13.64
-28.63
-68.04
-97.38
-111.69
-110.04
-95.51
-73.66
-50.07
-28.64
-10.97
2.68
12.76
19.82
24.29
26.83
28.32
29.67
31.48
33.84
36.38
38.66
40.33
41.60
43.22
46.27
51.76
60.26
71.40
84.29
98.28
112.27
125.44
137.55
148.89
159.95
171.11
182.26
193.11
203.87
214.23
224.20
234.00
244.02
254.40
264.71
273.13
277.03
278.16
276.21
270.44
260.26
245.41
225.70
200.92
169.35
129.94
85.26
36.83
-14.80
-68.80
-124.30
-180.73
-237.82
-298.20
-363.15
-427.43
-488.63
-547.77
-605.03
-658.37
-702.57
-729.56
-734.93
-714.60
-659.00
-568.20
-452.95
-327.25
-206.09
-103.33
-29.82
2.53
-9.60
-49.73
-101.09
-152.06
-192.56
-216.68
-223.67
-177.67
-66.17
41.57
118.56
178.91
228.81
275.97
328.63
392.56
467.75
540.54
594.30
625.53
631.84
612.39
574.12
527.26
480.23
436.35
391.48
341.10
291.92
249.06
213.07
183.85
159.91
138.86
118.06
94.86
68.92
47.20
34.63
31.60
37.04
48.41
62.40
74.48
83.43
88.58
93.47
100.85
111.52
125.45
141.40
157.43
167.11
173.46
175.71
173.84
168.08
158.51
145.33
128.25
106.48
69.94
28.53
-16.95
-67.66
-122.82
-179.42
-233.10
-280.05
-318.45
-362.93
-398.75
-428.43
-461.30
-504.18
-559.97
-627.56
-704.77
-789.55
-898.64
-1007.58
-1110.93
-1211.68
-1308.15
-1394.07
-1460.15
-1499.73
-1392.68
-1295.09
-1189.03
-1078.85
-980.64
-903.37
-848.25
-809.37
-780.17
-757.82
-761.91
-772.63
-709.53
-540.75
-285.39
-1.02
260.27
475.90
647.11
769.22
867.42
945.93
986.49
989.67
963.93
925.11
888.83
866.62
846.96
835.38
826.74
807.80
773.83
728.27
679.45
635.46
598.46
559.69
518.29
470.41
410.90
342.79
275.05
220.49
186.66
170.19
158.76
145.13
127.16
106.27
86.11
70.94
62.46
59.10
57.33
56.19
54.67
52.84
49.83
45.15
38.01
27.39
12.61
-6.19
-27.48
-48.35
-64.86
-75.59
-78.56
-73.14
-60.22
-41.92
-20.46
2.23
24.47
45.20
62.81
75.01
79.24
73.94
59.04
35.92
7.04
-24.84
-56.64
-86.06
-111.48
-132.07
-147.53
-157.95
-163.59
-164.72
-163.48
-159.78
-153.38
-144.41
-133.56
-122.14
-111.89
-104.90
-103.16
-108.26
-120.79
-139.50
-162.12
-185.67
-207.04
-223.60
-233.44
-235.31
-228.59
-213.06
-186.95
-149.51
-101.16
-43.71
19.76
85.52
150.11
210.71
265.22
314.99
361.95
407.92
453.93
500.30
547.67
598.34
655.51
704.90
732.68
724.77
672.01
574.42
441.65
290.41
140.43
8.58
-94.99
-164.49
-199.45
-202.65
-179.10
-137.14
-89.38
-50.46
-29.78
-33.40
-56.41
-86.17
-108.26
-113.48
-102.11
-85.77
-76.58
-83.39
-108.43
-145.50
-185.76
-222.30
-252.28
-276.20
-295.87
-310.57
-317.57
-314.02
-297.81
-269.18
-230.42
-185.04
-136.23
-86.61
-38.24
7.45
49.05
85.31
114.70
135.85
148.13
152.11
149.52
143.12
135.52
128.32
122.04
116.34
110.70
104.96
99.25
94.13
90.15
87.41
85.31
83.11
80.18
76.55
72.74
69.47
67.36
66.95
68.80
73.06
78.74
83.10
81.98
71.19
48.72
16.47
-19.89
-52.75
-75.60
-85.52
-83.79
-74.21
-60.94
-46.84
-33.00
-20.06
-9.06
-1.58
0.78
-2.54
-10.89
-22.49
-35.39
-47.97
-59.58
-70.58
-81.74
-94.69
-110.51
-128.39
-144.89
-154.32
-150.86
-131.46
-98.02
-57.34
-19.04
8.35
20.69
18.97
8.13
-5.68
-17.94
-26.50
-30.97
-31.16
-26.43
-16.82
-4.24
7.38
13.41
11.05
0.93
-12.33
-22.29
-23.79
-15.57
-0.47
16.42
30.21
38.27
40.59
39.68
39.31
42.55
50.35
60.61
68.76
69.65
60.39
42.51
21.37
4.16
-3.80
-1.06
9.61
23.35
35.95
45.48
52.19
56.97
59.97
59.74
54.34
42.31
23.60
-0.05
-25.71
-50.77
-73.84
-94.61
-112.87
-127.05
-133.95
-130.29
-113.66
-85.42
-50.85
-17.35
8.48
23.35
28.00
25.95
21.17
16.57
12.95
9.94
7.12
4.74
3.43
3.58
4.88
6.41
7.28
6.71
4.76
2.03
-0.71
-2.81
-4.07
-4.64
-4.93
-5.31
-6.14
-7.58
-9.73
-12.66
-16.29
-20.44
-24.59
-27.96
-29.57
-28.92
-25.92
-21.30
-15.81
-10.00
-4.11
2.20
9.47
17.82
26.90
36.26
45.60
54.90
63.66
70.17
71.40
64.23
47.29
22.91
-2.76
-22.14
-29.77
-25.12
-12.88
0.29
9.34
13.98
17.70
24.73
36.63
50.89
62.77
68.14
65.71
56.54
42.51
24.57
2.72
-22.19
-46.15
-62.56
-64.87
-49.75
-19.64
18.19
54.27
81.22
96.17
100.51
97.73
90.98
81.60
68.45
49.52
22.87
-11.58
-52.00
-95.22
-137.23
-173.53
-199.08
-211.10
-205.64
-182.26
-145.43
-103.90
-67.81
-44.55
-35.41
-34.61
-33.88
-25.30
-6.10
20.09
46.10
65.48
76.72
82.33
88.31
99.53
117.34
137.77
152.51
152.17
129.99
85.34
24.51
-40.99
-98.72
-139.04
-157.96
-156.74
-139.66
-111.40
-75.32
-34.86
5.62
39.99
61.30
63.15
42.45
1.36
-52.82
-107.19
-148.88
-169.72
-169.02
-153.46
-133.87
-120.10
-117.21
-125.27
-137.54
-146.96
-148.72
-141.52
-126.19
-104.18
-75.97
-41.02
-0.67
43.68
88.82
130.10
162.05
180.74
185.27
178.75
170.22
163.71
161.57
162.43
161.99
155.07
138.14
110.92
76.68
40.10
5.18
-24.31
-46.16
-59.07
-62.04
-54.00
-37.24
-13.27
15.43
44.86
71.60
92.73
106.47
112.44
111.53
105.53
96.94
87.99
79.79
72.97
67.35
62.31
57.18
51.41
45.12
39.32
35.04
32.89
33.05
34.88
37.13
38.52
38.22
36.20
33.44
31.10
30.14
31.25
34.85
40.94
48.64
55.66
58.23
52.25
35.00
7.02
-27.25
-60.86
-87.10
-102.09
-106.09
-102.45
-95.40
-87.87
-80.79
-73.61
-65.83
-57.88
-51.11
-46.79
-45.09
-44.74
-43.59
-39.74
-32.28
-21.99
-10.73
-0.90
5.60
8.03
6.85
3.43
-0.88
-5.41
-10.68
-17.59
-26.96
-38.76
-51.75
-63.67
-71.84
-74.53
-71.28
-63.35
-53.23
-43.63
-37.00
-35.20
-39.53
-50.44
-66.99
-86.07
-102.72
-111.48
-108.35
-92.85
-68.33
-40.63
-15.23
4.84
20.11
33.42
47.63
64.08
82.03
99.85
115.92
129.72
140.71
147.60
147.88
138.50
117.52
85.23
45.03
2.77
-34.12
-59.52
-69.65
-63.83
-44.12
-14.42
20.48
56.22
89.39
118.58
142.69
160.61
170.90
172.40
165.25
151.45
135.00
116.97
101.39
90.84
85.30
82.69
80.48
77.37
73.40
69.30
64.98
59.50
50.55
36.50
18.06
-1.22
-16.15
-22.97
-21.67
-16.65
-14.89
-24.16
-50.13
-94.69
-154.85
-223.06
-289.02
-342.10
-374.00
-380.60
-363.05
-326.80
-280.03
-229.80
-180.07
-131.60
-83.40
-34.13
16.95
69.24
120.31
163.92
192.66
199.74
181.32
138.08
76.17
5.90
-61.02
-114.80
-152.24
-173.78
-182.12
-180.82
-173.95
-166.11
-162.48
-168.62
-175.70
-179.29
-177.93
-171.13
-155.70
-126.97
-83.78
-31.18
20.52
60.47
80.09
79.10
64.28
44.87
27.03
11.65
-3.72
-21.41
-40.06
-55.99
-62.31
-52.96
-25.97
15.39
64.58
115.58
165.85
217.30
267.44
313.36
349.38
367.31
359.56
323.07
261.40
183.55
100.62
22.44
-43.65
-92.91
-122.26
-129.73
-114.69
-79.70
-31.85
18.11
58.97
83.19
89.79
84.03
75.38
73.83
85.99
113.10
144.82
167.53
170.61
153.67
124.96
94.12
66.74
42.97
20.11
-2.95
-23.21
-37.39
-41.82
-34.62
-17.10
5.75
26.45
37.46
34.86
18.10
-11.63
-50.24
-91.28
-125.62
-143.69
-141.93
-133.99
-129.43
-130.53
-127.76
-110.02
-67.74
1.76
89.89
178.57
247.55
283.78
283.90
253.99
204.68
148.86
99.56
65.30
50.25
55.40
78.71
112.49
144.49
159.67
149.47
117.50
72.04
22.56
-22.51
-57.98
-83.43
-101.19
-117.46
-135.01
-149.12
-159.59
-170.47
-185.58
-206.62
-233.21
-263.37
-298.90
-338.51
-372.32
-395.79
-407.96
-406.12
-386.82
-348.40
-265.63
-141.21
-32.56
41.13
83.78
96.70
86.16
62.25
35.71
14.43
-2.21
-15.30
-18.82
-14.12
-7.18
-3.11
-6.30
-20.87
-50.17
-98.37
-163.20
-216.65
-235.79
-212.69
-156.67
-86.35
-17.90
40.06
83.39
113.09
135.30
150.67
157.03
154.11
144.87
134.31
127.48
126.39
131.10
141.38
152.52
157.68
152.05
134.69
108.79
80.60
57.22
44.88
48.01
63.36
82.06
94.57
95.05
83.80
66.02
48.73
37.24
33.32
34.76
37.75
38.60
34.20
22.06
0.82
-28.11
-59.34
-84.31
-95.34
-88.96
-67.93
-40.04
-14.22
3.67
12.76
16.07
17.42
18.63
19.04
17.09
12.28
6.15
1.49
0.50
3.76
9.72
15.74
19.38
19.65
17.22
13.83
11.37
11.01
12.80
15.87
18.97
21.20
22.36
22.78
23.06
23.60
24.43
25.22
25.58
25.32
24.69
24.37
25.19
27.68
31.37
34.43
33.83
26.24
9.63
-15.54
-45.82
-75.78
-99.57
-112.98
-114.80
-106.98
-93.43
-78.24
-64.40
-53.14
-44.28
-37.26
-31.83
-28.22
-26.86
-28.09
-31.70
-36.78
-41.72
-44.45
-42.81
-35.14
-20.96
-1.46
20.64
42.22
60.76
75.10
85.28
91.84
95.12
94.90
90.83
82.89
72.19
60.82
51.35
45.55
43.43
43.46
42.94
39.12
30.21
16.23
-1.40
-20.52
-39.75
-59.02
-78.93
-99.39
-116.98
-127.79
-128.03
-115.90
-92.14
-60.51
-26.61
4.09
27.94
43.71
51.86
54.25
52.86
50.24
49.34
53.57
65.90
86.96
113.50
138.39
153.08
149.76
128.58
97.05
67.28
47.61
40.85
43.83
49.44
51.16
46.69
39.46
35.64
40.13
53.35
69.79
80.44
77.20
56.63
21.55
-20.31
-60.50
-93.49
-115.03
-124.61
-123.90
-114.88
-99.81
-82.00
-66.30
-59.25
-66.95
-91.74
-130.40
-173.99
-209.97
-227.40
-220.96
-192.90
-152.70
-113.77
-89.02
-87.35
-111.19
-155.54
-206.14
-245.63
-259.46
-242.43
-200.43
-145.45
-89.08
-42.08
-4.73
22.90
38.76
40.00
25.53
-1.49
-32.98
-58.01
-67.09
-55.69
-26.96
10.61
47.69
78.02
100.23
116.63
130.07
141.33
149.67
153.99
155.51
158.14
165.99
180.39
198.47
214.55
223.27
223.71
219.93
219.20
227.98
247.68
273.48
296.09
305.72
295.79
265.09
217.13
158.66
97.65
42.03
-0.91
-25.26
-27.66
-8.97
25.07
64.47
98.10
117.30
118.56
103.97
78.94
49.08
17.90
-13.72
-45.96
-78.37
-109.23
-136.41
-158.99
-178.57
-199.12
-225.03
-258.38
-296.75
-332.57
-355.26
-355.05
-326.79
-272.08
-199.01
-119.27
-44.58
16.26
58.67
82.06
88.78
82.89
69.00
51.49
33.34
15.23
-4.34
-27.61
-55.56
-86.42
-116.16
-139.60
-152.14
-150.97
-135.39
-106.05
-64.06
-10.82
51.16
117.13
179.77
230.69
262.95
272.93
261.19
232.23
192.29
146.90
99.20
49.88
0.25
-44.07
-74.50
-84.00
-70.58
-38.24
5.59
52.94
96.79
132.77
159.43
178.24
190.24
195.86
194.42
184.72
165.21
133.65
88.92
31.96
-32.44
-97.87
-156.97
-203.69
-233.92
-246.42
-244.62
-234.31
-221.58
-210.59
-203.13
-196.69
-186.33
-166.28
-124.49
-59.49
17.99
88.67
133.68
139.68
109.11
50.72
-24.68
-107.66
-188.44
-259.09
-313.91
-350.09
-368.87
-372.19
-361.94
-338.25
-300.07
-247.78
-184.18
-114.53
-40.21
28.97
81.18
108.80
112.90
100.90
80.62
56.93
31.95
6.52
-18.84
-41.08
-56.73
-63.68
-62.42
-55.99
-48.46
-42.67
-39.63
-38.91
-37.89
-33.40
-23.14
-6.77
13.88
35.67
55.33
70.36
79.17
82.18
81.24
78.56
75.82
73.50
70.79
65.99
57.40
43.81
25.62
5.17
-13.88
-28.04
-35.26
-35.69
-31.55
-26.02
-21.95
-20.47
-20.20
-17.91
-9.85
7.15
34.87
73.55
121.73
175.67
228.64
272.15
298.22
302.50
287.03
260.64
235.99
224.59
231.03
249.96
270.02
279.92
273.43
251.33
219.08
182.17
143.71
103.40
58.68
11.13
-31.71
-60.50
-69.47
-60.33
-42.28
-26.40
-22.03
-35.81
-66.54
-105.61
-142.20
-166.34
-171.15
-153.84
-113.90
-54.99
12.23
77.78
136.54
186.80
229.94
268.91
291.80
289.47
279.89
269.63
249.53
215.05
165.74
106.85
48.95
4.88
-12.83
1.07
38.68
87.04
135.36
176.89
210.14
236.26
255.22
265.74
265.10
249.69
222.25
192.43
170.21
160.27
159.29
157.82
147.00
122.86
86.26
43.64
3.20
-29.93
-55.03
-74.26
-90.34
-104.29
-115.67
-124.61
-131.72
-138.13
-145.84
-156.81
-171.91
-190.55
-210.90
-230.97
-249.96
-267.92
-285.24
-302.03
-317.60
-330.42
-338.47
-339.85
-333.17
-317.84
-294.28
-264.27
-231.29
-200.47
-177.70
-167.90
-172.88
-189.86
-211.70
-229.16
-234.19
-222.91
-196.39
-159.14
-116.21
-71.10
-25.46
19.20
59.46
89.38
102.23
93.37
62.85
15.68
-39.19
-91.17
-130.47
-150.04
-146.85
-123.47
-87.93
-51.98
-28.17
-25.79
-48.30
-92.94
-152.07
-215.10
-271.34
-311.34
-328.04
-318.68
-285.36
-235.35
-179.32
-128.07
-88.31
-62.30
-48.01
-40.91
-36.39
-30.33
-19.73
-3.11
18.85
43.64
65.32
76.80
77.76
70.45
61.77
60.80
73.71
94.81
118.71
139.50
153.13
159.63
163.28
169.80
183.97
207.51
238.54
273.74
308.88
340.61
367.18
386.61
394.92
386.16
354.43
297.09
217.68
124.59
29.00
-57.78
-123.78
-160.89
-168.02
-150.78
-118.17
-78.36
-37.45
0.73
34.11
61.48
82.26
96.25
103.28
103.22
96.23
81.92
59.09
26.01
-18.74
-75.76
-143.34
-214.87
-280.32
-329.35
-355.28
-357.43
-340.88
-313.83
-284.38
-257.58
-234.49
-213.64
-193.28
-173.10
-154.37
-138.96
-127.89
-120.83
-116.19
-111.80
-105.81
-97.41
-86.97
-75.53
-64.14
-53.18
-42.15
-29.83
-14.79
4.07
27.29
54.98
86.97
122.59
159.95
195.45
224.01
240.61
242.46
230.73
210.61
189.49
173.80
166.21
164.67
163.74
157.39
141.80
116.81
85.49
52.62
23.04
0.72
-11.57
-12.40
-1.86
18.17
43.86
69.98
91.16
103.78
107.45
105.41
103.48
108.29
125.02
155.78
198.86
249.10
299.08
341.09
369.20
380.69
376.90
362.42
343.35
325.04
310.24
298.30
285.75
267.93
240.38
200.65
149.04
88.67
24.93
-35.72
-87.25
-125.84
-150.75
-165.35
-175.05
-185.63
-201.10
-222.67
-248.88
-276.75
-303.53
-327.57
-350.59
-375.22
-403.56
-435.02
-465.31
-487.21
-493.08
-477.79
-440.34
-386.06
-322.42
-256.60
-192.72
-130.80
-67.54
1.21
72.38
148.73
222.53
283.78
322.71
333.14
314.44
271.24
211.10
141.80
70.91
3.89
-52.95
-93.40
-113.57
-114.96
-105.60
-97.90
-103.30
-126.02
-162.33
-200.85
-228.72
-236.97
-223.63
-192.90
-151.86
-106.95
-61.94
-19.26
19.90
54.25
82.10
102.57
116.69
127.64
139.82
156.42
176.25
193.23
198.15
182.87
145.12
90.52
30.92
-20.21
-52.74
-62.65
-51.60
-24.98
10.20
46.38
76.15
93.27
94.48
81.32
60.07
39.77
28.54
30.34
43.48
61.74
77.29
84.06
79.65
65.71
46.73
27.39
10.50
-4.09
-18.80
-36.38
-57.24
-78.34
-93.81
-97.36
-85.20
-58.02
-21.13
17.21
48.33
65.57
65.90
50.37
23.67
-7.18
-34.29
-50.19
-49.15
-28.24
11.70
65.76
125.79
182.66
229.03
261.61
281.49
292.90
300.76
308.80
318.79
331.11
345.81
362.59
380.39
396.46
406.21
404.76
389.21
360.47
323.45
285.29
252.53
228.94
214.84
208.05
205.74
205.87
207.76
211.46
216.89
223.16
228.48
230.73
228.10
219.70
205.75
187.27
165.68
142.23
117.79
92.77
67.28
41.45
15.69
-9.33
-32.96
-54.60
-73.89
-90.67
-105.11
-117.59
-128.51
-138.17
-146.61
-153.81
-159.50
-163.30
-164.88
-164.22
-161.71
-158.09
-154.24
-150.89
-148.75
-147.99
-148.32
-149.30
-150.92
-153.76
-159.02
-168.03
-181.49
-200.37
-224.27
-251.81
-281.06
-310.54
-339.73
-368.97
-399.09
-430.68
-466.59
-508.92
-558.22
-612.45
-666.83
-714.45
-748.00
-762.03
-754.70
-732.70
-704.99
-679.40
-659.26
-643.03
-626.57
-606.35
-581.65
-554.48
-533.46
-524.78
-529.16
-541.18
-552.56
-557.02
-553.87
-548.69
-515.56
-439.77
-316.45
-154.00
29.53
214.63
385.98
533.31
650.43
736.14
788.60
810.26
806.61
785.60
754.81
719.05
680.32
638.16
592.02
538.24
475.20
403.95
328.55
255.06
189.16
140.31
114.20
112.21
128.70
155.45
184.49
210.43
230.45
246.43
259.51
268.07
269.41
259.62
235.73
196.40
139.52
68.11
-10.73
-87.01
-150.04
-190.16
-202.11
-186.85
-151.62
-107.59
-65.55
-32.79
-11.81
-1.22
2.36
1.81
-1.71
-8.12
-16.85
-25.90
-32.61
-35.26
-34.11
-31.24
-29.53
-31.73
-39.01
-50.60
-63.92
-75.64
-83.35
-86.12
-85.23
-81.78
-77.03
-71.53
-64.80
-55.51
-41.89
-23.14
0.16
25.99
51.59
73.97
90.84
101.02
104.50
102.71
97.45
91.06
86.40
86.49
92.68
103.63
114.76
116.42
102.72
72.49
30.34
-15.22
-54.92
-82.40
-94.80
-91.87
-74.47
-44.40
-6.10
33.12
64.56
81.73
82.63
70.61
52.25
33.64
18.05
4.72
-9.02
-25.11
-42.15
-56.84
-65.49
-65.77
-58.57
-44.62
-24.56
1.78
34.52
73.24
115.22
155.71
189.95
215.24
232.89
247.37
264.06
280.01
290.33
288.46
269.42
232.75
182.52
125.00
65.96
9.37
-42.58
-87.43
-122.66
-146.06
-156.65
-155.10
-144.52
-130.80
-120.95
-120.74
-131.62
-149.15
-165.55
-171.91
-162.44
-137.13
-101.36
-62.82
-28.10
-0.14
20.66
35.25
44.93
50.02
50.67
47.63
42.61
37.40
33.11
28.75
21.37
6.69
-19.99
-62.12
-120.12
-190.45
-266.06
-334.88
-385.22
-409.16
-405.02
-377.59
-335.37
-286.75
-237.53
-190.16
-145.16
-102.91
-64.96
-34.15
-14.29
-8.61
-17.94
-40.14
-68.59
-98.24
-126.23
-151.42
-174.02
-194.20
-211.20
-223.59
-229.86
-228.86
-219.91
-203.09
-179.15
-149.61
-117.51
-85.37
-54.80
-26.52
-0.21
26.11
54.59
86.72
122.33
157.65
189.12
214.23
231.96
243.55
253.53
266.74
286.99
316.07
350.92
389.69
431.00
472.42
510.43
542.92
568.15
586.65
601.79
614.90
629.72
648.66
670.24
672.56
638.94
561.24
444.24
325.88
222.50
138.56
72.10
12.93
-42.00
-88.13
-118.98
-128.94
-116.13
-87.40
-50.95
-15.97
8.24
9.69
-16.18
-66.79
-131.90
-197.10
-252.35
-291.28
-313.26
-322.25
-322.89
-317.03
-305.21
-287.64
-265.77
-244.41
-227.44
-216.77
-212.18
-211.13
-209.38
-203.25
-190.86
-173.02
-153.76
-137.27
-126.43
-121.81
-121.35
-121.57
-119.21
-112.52
-101.88
-89.65
-78.69
-71.41
-69.38
-72.31
-77.86
-81.38
-76.54
-57.66
-22.46
25.97
80.22
130.51
168.62
190.20
195.92
190.17
177.95
162.59
144.87
124.12
98.35
69.90
42.56
18.38
-0.87
-14.57
-23.06
-27.08
-26.55
-20.86
-9.69
4.91
18.08
23.45
15.13
-7.82
-40.63
-74.05
-98.43
-107.36
-100.29
-81.68
-58.38
-36.30
-18.52
-5.74
3.42
10.64
17.20
23.65
29.78
34.69
37.29
36.81
31.92
21.87
6.13
-14.53
-37.31
-56.35
-65.24
-59.48
-39.72
-14.29
6.15
10.41
-7.85
-46.83
-96.83
-144.43
-177.36
-186.37
-172.51
-141.96
-102.82
-61.64
-23.29
10.71
37.68
54.07
56.65
44.50
21.55
-4.47
-24.35
-30.58
-21.70
-3.10
16.04
26.95
24.75
10.84
-9.24
-28.88
-43.51
-52.10
-55.83
-55.95
-53.12
-47.49
-38.93
-28.09
-16.16
-4.63
5.31
13.39
20.70
28.37
36.77
45.22
52.13
55.66
54.62
49.07
40.66
32.86
29.46
33.28
45.06
62.68
81.20
94.47
97.51
85.01
58.38
24.18
-8.30
-30.68
-38.66
-33.26
-19.65
-4.56
6.57
11.96
12.84
12.55
15.02
23.39
38.87
60.29
84.23
105.97
121.37
127.50
123.39
109.93
89.25
63.98
36.79
10.14
-13.88
-33.48
-47.81
-57.10
-62.49
-65.54
-67.50
-68.81
-68.96
-66.78
-60.91
-50.78
-37.00
-21.46
-6.82
4.31
10.19
10.48
6.26
-0.39
-7.22
-12.50
-15.37
-15.80
-14.32
-11.65
-8.33
-4.64
-0.55
4.12
9.57
15.76
22.49
29.40
36.02
41.95
46.84
50.47
52.73
53.73
53.78
53.35
53.03
53.12
53.48
53.50
52.32
49.33
44.51
38.46
32.11
26.15
20.59
14.87
8.13
-0.04
-9.30
-18.60
-26.64
-32.41
-35.57
-36.29
-34.86
-31.32
-25.47
-17.34
-7.63
2.40
11.43
19.17
26.78
36.54
50.50
68.87
89.37
107.78
119.54
121.70
113.92
98.12
77.22
53.69
28.91
3.52
-21.78
-45.53
-65.73
-80.57
-89.52
-93.69
-95.37
-96.73
-98.58
-99.72
-97.43
-88.88
-72.61
-49.46
-22.32
4.98
28.89
46.96
57.85
60.89
55.78
42.72
22.92
-0.92
-24.86
-44.63
-57.00
-61.02
-58.35
-52.58
-47.56
-45.89
-48.11
-52.91
-58.32
-62.95
-66.63
-70.38
-75.59
-83.27
-93.63
-106.51
-121.66
-138.75
-156.78
-173.41
-185.01
-187.89
-180.02
-162.35
-138.73
-114.02
-91.83
-72.89
-55.19
-35.80
-12.92
12.97
39.52
64.02
84.85
101.81
115.54
126.51
134.32
138.11
137.23
132.07
124.20
115.89
109.24
105.39
104.24
104.53
104.62
103.08
99.36
93.67
86.74
79.34
72.12
65.78
61.35
60.23
63.65
71.94
83.91
96.91
107.58
113.07
111.88
104.03
90.61
72.89
51.92
28.59
4.01
-20.04
-41.23
-57.16
-66.32
-68.77
-66.31
-61.94
-58.83
-59.31
-64.24
-73.00
-83.90
-94.80
-103.47
-107.97
-106.99
-100.19
-88.58
-74.46
-60.70
-49.72
-42.57
-38.66
-36.37
-34.03
-30.73
-26.41
-21.47
-16.11
-10.09
-3.01
5.33
14.65
24.48
34.59
45.11
55.95
66.26
74.22
77.65
75.35
68.16
58.97
51.81
50.03
54.99
65.79
80.00
94.87
108.24
118.78
125.60
128.21
126.37
120.31
110.91
99.52
87.45
75.64
64.42
53.44
41.96
28.98
13.57
-4.75
-25.61
-47.51
-67.98
-84.34
-94.55
-97.83
-94.94
-87.64
-78.09
-68.34
-59.97
-53.95
-50.70
-49.89
-50.43
-50.68
-48.95
-44.21
-36.69
-27.86
-19.89
-14.66
-12.98
-14.20
-16.51
-17.76
-16.25
-11.41
-3.80
5.00
12.61
16.19
12.61
-1.09
-26.96
-65.33
-114.39
-170.39
-228.85
-285.87
-339.14
-387.74
-431.00
-467.09
-492.37
-502.06
-492.27
-461.92
-413.47
-352.10
-283.71
-213.04
-142.87
-74.56
-9.26
51.05
103.88
147.24
181.03
207.51
230.93
256.02
286.32
322.91
363.83
404.26
437.78
458.20
461.66
448.17
421.99
390.25
360.39
337.24
321.31
308.85
293.74
270.30
235.67
190.55
138.45
83.85
30.42
-19.83
-66.26
-108.47
-144.80
-171.66
-183.96
-177.03
-148.55
-100.25
-37.92
29.77
93.43
144.98
179.12
193.73
189.62
169.92
139.19
102.72
65.71
32.59
6.53
-10.92
-19.83
-21.60
-18.61
-13.64
-9.23
-7.14
-8.01
-11.56
-17.12
-24.11
-32.39
-42.14
-53.42
-65.79
-78.16
-89.05
-97.18
-102.09
-104.46
-106.00
-108.89
-114.92
-124.75
-137.59
-151.36
-163.23
-170.41
-170.58
-162.34
-145.32
-120.35
-89.50
-56.00
-23.69
3.70
23.53
34.84
38.49
36.58
31.40
24.40
15.59
3.65
-13.20
-35.88
-63.44
-92.69
-118.86
-137.23
-144.77
-141.45
-130.26
-116.07
-103.88
-97.10
-96.82
-101.97
-110.26
-119.26
-127.03
-132.30
-134.41
-133.20
-129.04
-122.97
-116.35
-110.26
-104.81
-98.80
-90.16
-77.14
-59.42
-38.68
-18.23
-1.67
8.45
11.54
8.89
3.05
-3.08
-6.93
-6.69
-1.57
8.04
20.50
33.17
43.17
48.27
47.79
42.78
35.68
29.38
26.25
27.34
32.19
39.13
46.03
51.11
53.45
53.28
51.51
49.19
46.85
44.30
40.84
35.67
28.35
18.92
7.89
-3.98
-15.70
-26.03
-33.53
-36.89
-35.42
-29.49
-20.57
-10.73
-1.98
4.41
8.19
9.94
10.56
10.77
10.86
10.78
10.38
9.62
8.61
7.62
6.91
6.68
7.06
8.29
10.73
14.97
21.71
31.44
44.15
59.02
74.50
88.61
99.57
106.11
107.78
104.99
98.77
90.64
82.45
76.12
73.32
74.88
80.25
87.36
93.03
93.99
87.94
74.40
54.92
32.57
11.01
-6.40
-17.21
-20.26
-15.55
-4.15
12.18
31.07
50.31
68.33
84.38
98.51
111.27
123.37
135.47
147.91
160.67
173.65
186.92
200.66
215.01
229.91
244.91
259.39
272.39
282.39
288.09
288.70
283.92
273.78
258.41
238.19
214.08
187.29
158.03
126.96
95.28
64.37
35.24
8.11
-17.39
-41.13
-63.33
-86.70
-112.93
-142.09
-172.75
-203.21
-232.63
-261.28
-288.67
-315.56
-346.76
-385.15
-430.47
-479.40
-527.55
-571.45
-609.02
-637.17
-655.28
-668.90
-682.48
-697.84
-714.29
-730.72
-747.92
-768.50
-793.85
-790.82
-741.36
-645.86
-523.12
-395.47
-275.22
-163.85
-72.75
7.17
79.24
136.42
172.58
186.95
185.12
176.65
168.21
163.28
165.15
172.75
180.37
184.38
184.07
181.26
178.38
176.72
176.87
181.12
189.22
198.27
206.29
212.26
216.03
217.80
217.58
216.56
217.72
221.46
226.82
233.43
240.57
247.66
254.49
261.35
270.93
286.85
308.34
333.96
363.56
396.15
429.67
460.34
482.48
491.90
485.43
457.34
407.51
343.48
274.83
209.74
152.28
102.05
59.83
27.31
2.51
-12.09
-9.51
13.73
55.03
106.17
135.42
119.09
84.79
51.45
17.42
-13.99
-40.97
-63.12
-80.15
-90.96
-90.56
-75.38
-51.88
-28.50
-11.29
-5.83
-14.59
-35.79
-63.81
-88.33
-99.40
-94.97
-75.52
-41.90
2.39
52.31
102.31
146.89
182.90
208.08
218.13
210.95
188.09
152.02
105.54
51.31
-7.87
-67.33
-121.04
-163.92
-191.58
-201.88
-197.23
-184.21
-171.39
-166.57
-173.95
-193.28
-220.58
-249.07
-271.33
-282.31
-281.07
-271.03
-258.14
-247.84
-242.14
-238.44
-230.72
-212.54
-180.11
-133.81
-77.82
-18.00
40.25
93.01
137.82
173.01
197.28
210.06
211.93
204.82
191.76
176.14
160.95
148.04
137.82
129.15
119.90
107.87
92.13
73.98
56.82
44.78
40.76
44.63
52.72
59.01
57.55
44.76
20.68
-11.28
-45.74
-76.87
-100.00
-112.79
-115.65
-111.39
-103.73
-95.49
-87.27
-77.59
-64.57
-47.85
-29.81
-14.81
-7.09
-8.52
-17.69
-30.79
-43.87
-54.73
-63.37
-71.09
-78.74
-85.75
-90.08
-89.26
-81.77
-67.99
-50.35
-32.58
-18.42
-10.15
-7.99
-10.29
-14.67
-19.15
-22.75
-25.35
-26.84
-26.48
-22.79
-14.15
0.10
18.99
39.94
59.64
75.42
86.26
93.08
98.09
103.34
109.50
115.41
118.66
117.15
110.63
101.26
92.96
89.60
93.22
103.13
116.51
129.79
140.32
147.10
150.43
150.89
148.48
142.62
133.05
120.96
109.19
101.30
99.75
104.54
113.08
121.53
126.70
127.34
124.28
119.40
114.66
111.53
110.93
113.23
117.99
123.35
125.92
121.65
107.38
82.42
49.01
11.28
-26.69
-62.64
-96.72
-130.88
-167.56
-208.30
-252.59
-297.26
-336.75
-364.14
-373.25
-361.02
-329.29
-284.72
-236.74
-194.21
-162.20
-140.70
-125.75
-112.63
-98.95
-86.39
-79.88
-84.88
-104.81
-139.48
-185.39
-236.94
-287.59
-330.68
-360.02
-370.87
-361.10
-332.15
-288.78
-237.56
-184.69
-134.41
-88.44
-46.81
-9.19
24.35
53.28
77.27
96.54
111.73
123.17
130.17
130.93
123.54
107.38
84.09
57.90
34.51
19.27
15.26
22.47
38.22
58.65
80.04
99.26
113.91
122.40
124.63
122.58
119.72
119.10
120.77
120.95
113.60
94.76
66.47
37.39
19.16
20.28
41.19
73.62
105.57
127.63
137.71
140.54
142.96
148.33
153.61
151.41
135.18
104.88
66.65
28.85
-3.78
-33.19
-66.55
-111.13
-169.24
-236.50
-302.22
-356.38
-394.21
-417.15
-429.44
-433.58
-428.09
-408.97
-372.71
-315.83
-238.83
-146.41
-46.16
53.70
146.56
228.04
295.86
349.72
395.45
439.93
488.37
542.65
601.60
662.13
719.84
768.29
774.17
711.74
573.33
378.46
165.89
-24.66
-166.19
-249.19
-279.92
-276.46
-253.64
-222.05
-188.81
-159.21
-137.01
-124.13
-120.22
-122.90
-128.93
-130.21
-118.95
-90.97
-49.61
-4.78
30.20
44.10
32.64
0.33
-39.45
-72.24
-88.44
-86.62
-72.46
-54.66
-40.52
-33.39
-32.56
-33.64
-32.22
-26.01
-15.80
-4.71
3.75
7.56
6.89
3.61
0.61
-0.13
1.76
5.02
8.16
10.53
12.84
16.48
22.19
29.46
36.39
40.75
40.98
37.13
30.48
23.27
17.46
13.88
12.09
10.69
8.35
4.04
-1.92
-8.48
-13.68
-16.59
-17.44
-17.37
-17.74
-19.10
-22.12
-26.63
-32.01
-36.63
-39.65
-40.41
-38.52
-34.39
-29.15
-27.23
-29.04
-35.14
-42.87
-48.47
-46.88
-33.54
-6.31
34.31
80.74
123.14
152.51
163.48
151.77
116.77
62.12
-4.40
-71.52
-133.45
-187.23
-231.81
-250.59
-233.33
-182.10
-111.27
-50.04
-0.15
39.10
67.19
87.11
100.14
103.75
96.73
80.76
61.52
47.23
38.38
32.12
24.95
14.95
-3.02
-33.20
-77.38
-132.38
-176.99
-193.75
-172.58
-135.22
-94.09
-62.63
-45.77
-51.91
-84.05
-137.48
-205.42
-278.35
-330.04
-337.29
-296.26
-222.57
-138.57
-58.19
14.61
78.28
131.40
172.06
198.88
210.79
210.12
201.13
190.06
181.34
174.47
165.76
150.70
124.54
86.05
37.43
-15.75
-64.36
-98.36
-110.19
-96.99
-62.02
-14.53
32.91
69.19
88.77
93.18
88.35
80.89
75.33
73.20
73.56
74.43
74.20
72.50
69.82
66.81
63.88
61.43
60.04
60.61
64.15
70.85
79.13
85.27
84.02
70.69
43.82
6.81
-32.56
-64.79
-82.99
-85.77
-77.89
-67.78
-63.71
-69.71
-83.65
-98.59
-105.67
-98.44
-75.27
-40.00
-0.67
33.12
53.32
56.15
42.58
17.73
-11.47
-38.82
-60.77
-76.78
-88.07
-95.95
-99.53
-97.49
-88.16
-72.10
-52.37
-33.83
-21.07
-16.62
-20.21
-29.19
-39.60
-46.74
-46.01
-33.68
-8.21
27.96
68.23
102.91
122.51
121.43
100.53
66.82
30.93
2.82
-12.04
-14.19
-9.04
-3.69
-3.44
-9.35
-18.11
-24.13
-22.72
-13.01
1.77
16.43
26.95
33.22
39.35
51.20
71.92
98.72
122.34
131.04
116.23
76.91
20.90
-38.29
-86.87
-116.33
-123.96
-114.55
-96.56
-77.14
-59.38
-42.32
-23.40
-1.07
23.03
45.38
61.54
68.07
63.83
49.72
27.35
-2.36
-39.12
-82.96
-131.69
-179.16
-217.35
-239.16
-241.54
-227.22
-205.29
-182.90
-165.55
-155.26
-150.55
-148.45
-146.45
-143.61
-140.39
-137.70
-135.68
-134.14
-132.75
-131.31
-130.37
-130.74
-132.97
-136.65
-140.30
-141.30
-136.87
-127.44
-113.21
-95.14
-74.74
-53.56
-32.75
-12.92
5.93
23.80
40.54
56.16
70.24
82.08
90.88
96.03
97.27
94.87
89.58
82.53
75.44
69.80
66.51
65.68
66.64
68.29
69.65
70.37
70.98
72.96
77.93
86.90
99.72
115.08
131.01
145.62
157.93
168.16
177.68
188.45
202.72
222.63
249.59
283.17
320.02
353.57
375.16
376.80
354.33
309.58
250.25
187.35
131.46
89.39
63.04
50.20
46.84
49.16
54.41
60.59
65.75
67.65
64.45
55.81
43.54
31.37
23.72
23.72
31.67
44.81
58.45
68.03
71.16
68.17
61.55
54.64
50.09
49.07
51.23
55.40
60.34
65.75
71.65
78.19
85.57
93.87
103.19
113.51
124.88
137.22
151.14
166.70
183.48
200.84
217.96
233.78
246.44
253.25
250.76
236.58
209.03
168.11
116.05
56.95
-4.14
-62.56
-114.63
-164.16
-210.91
-251.83
-282.48
-299.33
-301.95
-292.01
-274.13
-252.79
-232.00
-214.32
-202.52
-200.75
-212.70
-240.87
-285.16
-341.76
-402.72
-457.77
-496.44
-512.64
-506.87
-485.44
-457.87
-432.76
-414.92
-404.24
-397.23
-389.00
-375.98
-356.71
-331.06
-299.34
-261.53
-217.48
-167.24
-111.70
-52.59
7.33
64.99
117.90
164.67
205.08
239.59
268.78
292.94
312.42
328.05
341.51
354.90
369.36
383.69
394.03
394.97
381.88
353.04
310.68
260.13
207.82
159.17
117.34
83.13
55.70
33.47
14.67
-2.21
-18.11
-33.35
-47.59
-60.03
-69.78
-76.15
-78.67
-77.08
-71.30
-61.61
-49.06
-35.48
-23.14
-14.05
-9.23
-8.37
-9.95
-12.01
-12.74
-11.10
-6.93
-0.67
7.12
16.13
26.40
38.14
51.34
65.51
79.51
91.73
100.55
104.86
104.44
99.92
92.43
83.16
72.93
62.05
50.45
37.93
24.54
10.67
-3.02
-15.87
-27.37
-37.32
-45.84
-53.32
-60.31
-67.37
-74.73
-82.05
-88.27
-91.94
-91.73
-87.07
-78.26
-66.10
-51.34
-34.26
-14.83
6.64
28.81
49.11
64.48
72.64
73.19
67.79
59.54
51.64
46.20
43.60
42.79
42.09
40.08
36.36
31.77
28.21
27.98
32.87
43.33
58.02
73.75
86.32
91.88
88.40
76.67
60.35
44.63
34.32
32.13
37.83
48.88
61.76
73.46
81.97
86.11
84.96
77.61
63.39
42.65
17.04
-10.80
-38.23
-63.56
-86.38
-107.00
-125.68
-141.91
-154.41
-161.47
-161.71
-154.43
-139.70
-118.34
-92.00
-63.42
-36.38
-15.26
-3.65
-2.76
-10.34
-21.01
-28.11
-26.28
-13.78
6.92
30.33
50.44
63.38
68.78
69.33
68.83
69.96
72.54
73.69
69.30
56.53
35.93
12.13
-7.41
-15.32
-7.33
16.06
49.61
85.20
114.56
131.10
130.83
112.41
77.04
28.40
-27.60
-83.89
-134.57
-177.00
-212.71
-245.82
-279.38
-311.77
-335.56
-340.20
-317.46
-266.59
-195.79
-119.03
-49.77
4.85
45.59
78.20
107.88
135.22
155.98
164.46
157.94
139.37
115.96
95.39
81.98
75.32
71.81
67.76
61.93
55.74
51.94
52.53
57.23
63.49
67.41
65.23
54.80
36.79
14.98
-4.38
-14.59
-11.02
7.07
36.10
69.70
101.12
125.30
139.74
143.65
136.65
118.07
87.50
46.28
-1.65
-50.49
-94.75
-131.66
-161.99
-188.40
-212.56
-232.67
-243.66
-239.43
-216.33
-175.55
-123.00
-67.05
-15.66
25.55
53.72
67.94
68.64
57.92
40.07
21.57
9.46
8.72
19.81
38.22
56.26
66.58
65.50
54.44
38.76
24.86
17.09
16.07
19.13
22.44
23.08
20.28
14.97
8.53
1.79
-5.35
-13.44
-22.66
-32.40
-41.30
-47.65
-49.95
-47.47
-40.52
-30.60
-20.06
-11.48
-6.74
-6.37
-9.16
-12.65
-13.81
-10.06
-0.18
15.04
32.63
48.03
56.41
54.83
44.02
28.90
17.36
17.23
33.02
63.59
102.16
138.36
161.58
164.13
143.02
100.13
40.79
-27.83
-98.52
-164.89
-221.85
-265.95
-295.86
-312.72
-319.92
-321.92
-322.19
-321.45
-316.96
-303.83
-277.83
-238.04
-188.05
-134.77
-85.38
-44.21
-11.21
17.14
45.11
74.89
105.34
132.57
152.16
161.52
160.95
153.32
142.56
132.06
123.53
117.25
112.65
109.18
106.59
104.71
102.98
100.25
95.17
87.10
76.81
66.55
59.31
57.44
61.24
68.44
75.10
77.61
74.89
69.62
67.40
74.14
92.94
122.04
155.29
184.63
203.19
207.39
197.06
173.96
140.17
97.24
46.48
-10.08
-69.00
-125.32
-173.31
-207.34
-223.04
-218.35
-194.31
-155.23
-107.69
-58.48
-12.54
28.05
63.33
93.67
118.19
134.85
142.03
140.59
134.55
129.46
129.41
134.25
139.27
137.33
122.52
93.26
52.87
7.68
-36.44
-76.36
-111.39
-141.00
-162.56
-171.69
-164.51
-140.86
-105.28
-65.07
-26.37
8.60
41.15
73.05
102.26
122.98
128.90
118.10
95.72
72.23
57.82
56.56
64.09
68.14
55.94
20.21
-37.41
-107.79
-178.25
-237.88
-280.68
-305.70
-318.77
-327.64
-339.41
-358.27
-384.56
-415.46
-445.86
-469.18
-478.21
-470.97
-449.77
-421.66
-396.62
-384.60
-392.90
-424.17
-475.50
-516.08
-517.03
-459.29
-344.70
-194.72
-37.09
107.09
228.17
325.17
401.65
457.98
493.52
508.25
504.81
488.97
467.17
446.21
428.66
414.26
398.23
375.03
340.76
294.94
241.08
184.64
132.15
89.26
60.15
45.00
41.38
45.22
51.87
60.09
67.05
69.38
63.03
44.04
11.28
-32.84
-79.81
-117.21
-133.99
-126.09
-97.77
-59.29
-22.24
5.16
20.26
25.77
26.44
25.88
24.68
21.45
14.91
5.17
-5.86
-15.77
-23.16
-28.59
-33.97
-41.16
-50.96
-60.43
-65.72
-64.40
-57.76
-50.30
-47.80
-53.76
-65.93
-78.15
-82.43
-73.84
-53.03
-24.97
5.00
34.75
65.99
102.27
144.55
189.51
230.23
259.68
274.33
275.53
267.34
253.14
232.30
201.10
156.75
101.62
44.80
-0.25
-21.47
-14.01
17.66
61.59
103.50
132.91
146.04
144.56
133.22
116.66
96.57
74.39
51.10
27.99
7.06
-9.34
-20.52
-27.19
-31.34
-35.36
-40.54
-46.70
-52.12
-54.41
-52.19
-48.12
-47.28
-54.89
-73.87
-103.25
-138.99
-175.79
-208.99
-236.04
-258.63
-279.55
-300.74
-322.27
-342.63
-360.30
-374.69
-386.03
-382.12
-355.03
-303.00
-231.92
-152.13
-73.25
-1.61
59.29
107.74
143.24
164.61
172.49
170.01
162.12
153.98
149.33
149.50
153.78
160.13
165.03
164.48
156.05
139.92
119.15
98.88
84.52
79.80
84.77
94.78
102.16
100.20
86.44
63.38
36.77
12.26
-7.00
-20.87
-31.57
-41.31
-50.70
-58.79
-64.32
-67.01
-68.18
-70.09
-74.70
-82.90
-93.92
-105.53
-114.70
-119.30
-117.63
-109.79
-97.20
-81.79
-65.03
-47.40
-28.54
-7.62
15.52
39.93
63.35
82.86
95.91
101.32
99.81
93.78
86.75
81.78
80.44
82.20
84.89
85.85
83.11
76.24
66.40
56.17
48.21
44.67
46.95
55.29
67.82
80.35
86.89
78.78
51.69
7.69
-44.19
-90.61
-118.96
-122.36
-101.87
-64.80
-20.58
23.96
65.90
104.93
140.98
172.70
198.39
217.86
233.58
249.56
268.69
289.83
307.10
312.52
299.79
267.71
220.64
166.20
112.25
65.16
29.73
10.18
9.98
30.06
66.64
110.76
150.85
177.54
187.86
185.76
178.88
173.78
172.10
170.40
163.27
147.39
124.11
98.76
78.07
66.85
66.08
72.69
81.04
85.11
80.41
65.49
41.70
12.25
-19.63
-52.12
-85.17
-119.69
-156.10
-193.14
-227.73
-256.19
-275.73
-285.91
-288.86
-288.69
-289.85
-295.94
-308.87
-328.23
-351.10
-371.99
-383.84
-380.09
-357.45
-318.01
-269.08
-220.76
-182.01
-157.24
-145.26
-140.63
-136.20
-125.45
-103.89
-69.60
-23.78
29.05
81.43
124.86
152.51
161.68
154.49
136.03
111.66
84.74
56.51
27.45
-1.13
-26.72
-46.87
-60.60
-69.14
-74.68
-78.60
-79.93
-75.63
-62.42
-38.79
-6.17
31.43
69.12
103.04
131.35
154.22
172.67
187.34
197.64
201.91
198.09
184.63
161.20
128.77
89.65
47.37
6.52
-27.75
-50.59
-58.80
-51.99
-33.00
-7.44
17.89
36.88
45.46
42.26
28.40
6.71
-18.97
-44.46
-65.62
-79.14
-83.14
-77.76
-65.38
-50.11
-36.55
-27.76
-23.84
-21.75
-17.16
-6.96
8.29
24.11
34.10
32.97
18.95
-6.16
-38.77
-75.43
-113.28
-149.19
-178.10
-192.95
-186.86
-156.14
-102.42
-32.21
45.58
122.54
191.95
248.53
287.71
305.55
300.16
273.59
232.27
185.52
142.38
108.47
84.70
68.25
54.99
42.17
29.55
18.85
11.83
8.60
7.30
5.12
0.10
-7.65
-15.74
-21.22
-22.60
-20.91
-19.45
-21.97
-30.71
-45.20
-62.75
-80.14
-95.47
-109.17
-123.81
-142.62
-167.84
-198.99
-231.94
-259.25
-271.96
-262.83
-229.96
-178.91
-121.83
-74.02
-48.71
-53.01
-86.24
-141.30
-207.76
-274.97
-334.16
-379.27
-407.16
-417.71
-414.05
-401.87
-387.95
-377.79
-373.71
-374.09
-374.34
-369.04
-354.10
-328.15
-292.86
-252.21
-211.44
-176.01
-150.67
-138.59
-140.62
-154.53
-174.97
-194.47
-205.33
-202.16
-183.53
-152.26
-113.98
-74.65
-38.43
-6.73
21.22
47.03
71.71
95.33
117.16
136.41
152.84
166.99
179.89
192.75
206.61
222.15
239.53
258.16
276.55
292.33
302.94
306.49
302.53
292.41
278.51
263.16
247.68
232.04
215.37
196.86
176.37
154.52
132.17
110.02
88.48
67.88
48.84
32.12
18.33
7.62
-0.22
-5.29
-6.81
-2.87
9.09
31.15
63.67
104.47
149.12
192.18
228.80
255.99
272.82
279.83
278.06
268.46
252.03
230.38
206.25
183.30
165.01
153.19
147.03
143.22
137.35
125.81
107.13
82.17
53.18
22.63
-7.67
-36.52
-62.77
-84.92
-101.17
-110.15
-111.85
-108.05
-102.00
-97.39
-97.16
-102.67
-113.52
-128.03
-143.98
-159.21
-171.97
-180.90
-185.01
-183.74
-177.15
-166.34
-153.46
-141.15
-131.81
-126.66
-125.55
-127.36
-130.98
-135.95
-142.42
-150.23
-157.94
-162.44
-159.76
-146.62
-121.98
-87.59
-47.24
-5.01
36.52
77.03
118.21
162.46
211.33
264.52
319.61
372.56
418.47
452.49
470.52
469.87
449.91
412.52
361.87
303.71
243.84
186.77
134.97
89.05
48.64
13.37
-16.68
-41.33
-60.78
-76.18
-89.22
-101.40
-113.10
-123.43
-130.79
-133.91
-132.69
-128.32
-122.73
-117.67
-114.00
-111.64
-109.88
-108.01
-105.56
-102.41
-98.59
-94.07
-88.75
-82.56
-75.59
-68.18
-60.76
-53.67
-47.05
-40.93
-35.36
-30.50
-26.66
-24.09
-22.88
-22.91
-23.86
-25.57
-28.06
-31.60
-36.54
-42.89
-50.27
-57.86
-64.44
-68.39
-68.06
-62.34
-51.31
-36.65
-21.36
-9.19
-3.37
-5.20
-13.19
-23.63
-32.38
-36.63
-36.05
-32.37
-28.42
-27.07
-29.64
-35.19
-40.96
-43.34
-38.72
-24.09
2.75
41.69
88.88
136.74
175.77
197.32
196.57
174.30
134.85
88.63
48.99
25.98
21.76
31.53
48.03
65.47
80.90
93.49
103.34
110.85
115.65
117.16
115.51
111.47
105.85
98.75
90.76
81.29
70.40
57.85
43.10
25.80
5.78
-17.20
-43.50
-73.55
-107.90
-146.38
-185.39
-221.10
-248.30
-261.27
-256.33
-233.82
-198.67
-161.97
-128.64
-100.65
-77.89
-58.66
-41.16
-24.96
-10.50
1.85
12.89
25.68
44.90
75.14
117.47
169.84
226.23
278.03
316.12
333.48
320.94
278.01
214.52
147.52
93.23
59.01
42.77
37.22
35.22
33.82
34.47
39.75
50.12
64.58
77.72
84.07
80.32
65.68
41.37
9.53
-28.37
-71.55
-116.15
-156.29
-184.60
-194.87
-185.08
-158.79
-123.62
-88.47
-60.16
-41.37
-31.36
-27.34
-26.62
-27.85
-30.67
-34.51
-37.98
-39.25
-37.10
-31.98
-25.66
-20.37
-18.10
-19.51
-23.78
-28.96
-32.93
-34.18
-32.60
-29.31
-26.18
-25.14
-27.35
-32.82
-40.20
-47.62
-53.21
-55.85
-55.54
-53.37
-50.81
-49.00
-48.57
-48.11
-45.57
-38.97
-27.21
-11.05
6.97
23.44
35.31
40.87
40.43
35.83
29.68
24.63
22.51
24.48
31.04
41.57
53.85
64.06
67.60
60.17
41.91
17.23
-6.45
-21.99
-25.99
-20.39
-11.15
-4.80
-4.68
-8.32
-10.20
-4.34
12.11
36.84
63.21
83.15
90.56
83.39
64.21
38.04
10.32
-14.95
-35.38
-49.34
-55.25
-52.37
-42.18
-29.32
-21.30
-25.42
-46.12
-82.61
-128.18
-172.00
-202.65
-211.62
-195.85
-158.39
-106.60
-50.18
1.69
42.53
69.62
83.67
88.06
87.52
84.31
81.88
83.22
90.11
102.45
118.54
135.57
150.91
163.09
172.51
181.83
194.34
213.06
239.40
272.47
308.47
340.83
360.93
360.75
336.06
287.63
221.45
146.12
69.89
-2.17
-69.44
-134.78
-200.65
-265.72
-324.32
-367.94
-389.66
-387.26
-364.57
-327.06
-283.94
-244.29
-213.34
-193.19
-179.96
-169.61
-160.18
-150.84
-141.31
-130.73
-116.68
-96.05
-66.67
-28.12
17.64
67.67
119.58
172.18
224.75
275.95
322.66
359.42
379.80
378.16
352.30
304.34
240.00
166.69
91.90
22.61
-34.94
-75.43
-95.64
-95.56
-79.16
-53.94
-28.81
-11.55
-6.30
-12.96
-28.37
-48.54
-70.24
-91.77
-112.55
-131.01
-144.88
-151.03
-146.65
-130.47
-103.60
-68.91
-30.03
8.35
43.59
72.86
93.20
101.99
98.19
83.29
61.72
40.55
28.77
34.42
60.98
105.44
158.56
207.62
240.57
250.09
235.54
202.17
158.16
110.98
65.42
23.22
-15.64
-51.54
-84.24
-113.03
-137.42
-158.20
-177.88
-199.79
-226.33
-256.85
-286.57
-307.26
-309.62
-286.78
-237.12
-165.34
-81.06
4.44
82.09
147.16
199.20
240.00
270.89
291.37
299.66
294.57
277.50
252.84
226.44
203.15
184.74
169.04
151.41
127.18
94.17
54.10
12.36
-23.99
-48.65
-58.57
-55.23
-44.21
-32.99
-28.44
-34.78
-52.80
-80.67
-115.44
-154.36
-195.49
-237.74
-280.58
-324.00
-367.80
-410.61
-449.05
-477.47
-489.16
-478.76
-444.70
-390.43
-324.11
-255.51
-192.96
-141.15
-100.85
-70.10
-45.94
-25.41
-5.15
18.19
48.61
89.48
141.53
201.04
259.86
307.44
334.35
336.23
313.33
270.74
215.82
155.64
95.48
38.75
-12.03
-54.62
-86.30
-107.21
-119.46
-127.40
-136.99
-154.13
-182.97
-224.29
-274.51
-316.10
-332.66
-313.76
-261.20
-189.12
-116.52
-58.37
-20.40
-3.68
0.86
0.80
1.20
5.26
15.70
35.34
65.76
106.56
152.16
192.80
217.11
219.30
202.37
175.99
151.55
136.53
131.98
133.63
137.44
137.89
130.54
112.20
81.24
38.72
-11.16
-61.63
-105.50
-137.30
-155.53
-162.65
-163.99
-165.16
-169.57
-177.46
-186.52
-193.63
-196.04
-192.31
-181.64
-163.38
-137.05
-102.81
-62.09
-17.54
27.90
71.76
112.94
151.76
189.38
226.72
263.46
297.61
326.25
346.52
356.78
357.43
350.86
340.55
330.17
322.86
320.52
323.42
329.51
334.29
331.47
314.87
280.61
228.89
164.03
92.59
20.31
-50.26
-119.95
-190.38
-260.56
-324.50
-372.00
-392.43
-379.65
-335.10
-267.31
-188.71
-111.23
-43.46
10.29
49.18
74.74
90.39
101.45
114.32
134.38
163.48
198.11
230.22
250.23
250.95
229.91
189.90
136.79
77.39
17.63
-37.83
-85.41
-122.77
-149.44
-167.74
-182.41
-199.13
-221.59
-248.93
-275.13
-290.96
-287.13
-257.98
-203.51
-129.45
-45.81
35.33
102.02
144.59
157.94
143.47
109.75
71.14
44.16
42.55
72.75
131.43
206.49
280.89
337.65
365.12
359.96
327.15
277.53
223.29
173.66
132.52
99.12
69.81
40.66
9.29
-24.48
-58.66
-89.01
-109.44
-113.39
-96.13
-58.09
-6.66
44.97
82.12
94.64
81.22
49.55
11.93
-20.96
-44.75
-61.96
-78.67
-99.85
-126.36
-155.26
-182.85
-208.01
-233.92
-266.08
-308.28
-358.82
-409.81
-449.50
-467.41
-459.05
-427.98
-384.17
-339.72
-303.60
-278.62
-261.68
-246.65
-228.12
-203.84
-175.04
-144.52
-114.49
-85.26
-55.33
-22.24
16.46
62.35
115.28
172.54
228.48
275.16
304.21
309.19
287.39
240.64
175.13
100.26
27.35
-31.83
-66.81
-70.58
-41.57
15.04
87.70
160.98
219.44
251.89
254.81
233.27
199.22
167.64
151.23
156.03
179.63
212.51
242.15
257.71
253.27
228.37
186.79
134.42
77.60
22.38
-26.07
-63.86
-89.24
-103.45
-110.49
-115.98
-125.21
-141.30
-164.13
-190.70
-216.22
-235.83
-246.21
-246.30
-237.23
-221.54
-202.24
-181.74
-161.35
-141.22
-120.68
-98.64
-74.01
-45.95
-14.14
20.97
57.86
93.75
125.16
148.53
161.27
162.42
152.60
133.39
106.54
73.64
36.58
-1.40
-35.15
-58.24
-64.73
-51.52
-19.91
24.49
73.59
119.55
156.82
183.05
198.40
204.17
201.65
191.66
174.76
151.87
124.32
93.33
59.19
20.81
-23.99
-76.98
-137.61
-201.49
-260.51
-304.93
-326.77
-322.68
-294.94
-250.17
-196.51
-140.72
-86.61
-35.42
12.71
56.98
95.24
124.47
142.32
148.47
145.10
136.19
125.95
117.29
110.81
104.83
96.37
82.42
60.81
30.28
-9.71
-59.00
-115.69
-174.70
-227.42
-263.41
-274.15
-257.04
-217.06
-164.94
-112.36
-66.85
-29.39
4.14
38.89
77.30
117.75
156.30
189.81
217.84
242.58
267.24
294.14
323.84
355.11
385.25
410.61
427.10
430.94
419.96
394.45
356.90
310.91
259.77
205.57
149.69
93.83
40.60
-6.84
-46.40
-78.34
-105.76
-133.66
-167.05
-208.76
-257.96
-309.66
-355.71
-387.40
-398.58
-388.08
-360.37
-323.99
-288.38
-260.45
-242.55
-232.26
-224.19
-212.37
-192.14
-161.03
-118.44
-65.28
-3.85
62.14
127.86
188.21
238.83
277.18
302.47
315.24
316.43
306.75
286.87
257.98
222.35
182.99
143.45
107.19
77.10
55.27
42.79
39.69
44.65
55.19
67.39
77.62
83.26
83.57
79.06
70.43
57.48
38.43
10.34
-31.43
-90.62
-168.04
-259.52
-355.32
-441.65
-503.94
-531.14
-519.28
-474.80
-411.82
-347.90
-298.22
-271.09
-266.94
-280.39
-303.61
-319.47
-314.50
-281.26
-221.33
-143.45
-58.27
25.70
102.64
168.39
220.10
255.15
273.37
277.72
272.42
261.45
246.93
227.89
201.29
163.41
110.04
41.19
-38.87
-121.15
-193.71
-244.69
-267.36
-261.99
-236.13
-202.42
-173.40
-157.13
-154.14
-160.80
-169.28
-174.76
-175.44
-171.77
-164.86
-155.23
-142.65
-125.22
-101.66
-71.97
-39.72
-8.44
19.71
45.04
69.65
92.95
116.89
143.05
171.88
199.15
220.76
233.75
237.60
232.79
220.48
204.79
190.42
182.35
181.56
190.10
209.99
242.44
284.08
315.67
318.42
278.80
215.71
142.63
71.24
2.59
-58.12
-105.56
-136.10
-146.72
-138.02
-114.52
-87.37
-66.48
-58.27
-62.81
-75.73
-91.44
-103.65
-107.98
-102.63
-90.47
-74.09
-55.94
-36.16
-13.24
13.79
45.87
83.13
124.97
168.38
210.91
249.88
285.08
319.06
353.68
390.14
428.30
466.89
503.25
535.16
559.92
561.06
528.16
457.01
352.22
225.46
90.84
-39.67
-150.27
-240.72
-312.97
-366.27
-399.84
-413.56
-408.49
-387.04
-351.25
-303.63
-248.15
-188.20
-126.20
-65.77
-10.99
34.52
68.32
89.80
99.94
100.02
93.03
83.46
75.28
71.30
72.15
75.47
76.20
67.95
45.48
8.45
-37.71
-84.28
-122.64
-147.64
-158.98
-160.05
-155.37
-148.36
-140.04
-130.02
-118.33
-106.31
-96.06
-89.11
-85.29
-82.88
-79.72
-74.32
-66.79
-58.73
-52.15
-48.37
-47.36
-47.94
-48.54
-47.92
-45.68
-42.03
-37.48
-32.35
-26.58
-19.97
-12.23
-3.21
7.06
17.98
28.27
35.74
37.82
33.08
22.68
11.10
4.90
9.91
27.78
54.42
80.99
97.48
96.96
78.39
46.68
10.18
-22.79
-46.35
-57.92
-57.66
-47.62
-31.34
-13.55
0.54
6.53
2.42
-10.38
-27.50
-43.51
-53.84
-56.53
-52.54
-44.63
-36.08
-29.74
-27.72
-31.02
-39.14
-49.36
-57.00
-56.69
-44.19
-18.51
17.27
56.77
92.18
116.67
126.23
120.33
101.96
76.57
50.78
30.72
20.36
20.16
27.44
37.60
46.09
50.33
49.91
45.63
38.50
29.60
20.55
14.37
15.15
26.35
48.84
79.89
113.77
144.07
166.07
177.91
180.01
175.05
167.01
159.93
156.90
159.18
165.64
172.69
175.39
169.33
152.72
127.17
97.08
67.53
42.33
22.81
7.89
-4.57
-16.52
-28.90
-42.07
-56.41
-72.73
-91.73
-112.98
-134.17
-151.12
-159.09
-154.59
-136.89
-108.26
-72.78
-34.42
4.27
42.40
79.97
116.59
150.90
180.43
202.31
214.03
214.11
202.34
179.70
148.52
112.23
74.83
40.20
11.39
-9.94
-23.67
-30.93
-33.80
-34.71
-35.99
-39.51
-46.23
-56.17
-68.62
-82.66
-97.68
-113.57
-130.64
-149.20
-169.31
-190.72
-212.98
-235.31
-256.43
-274.38
-286.43
-289.84
-282.64
-264.53
-236.90
-202.42
-163.98
-124.19
-85.56
-51.06
-24.95
-12.29
-17.68
-43.38
-88.00
-146.42
-211.32
-275.54
-334.23
-385.93
-432.10
-475.50
-517.97
-558.67
-593.56
-616.35
-620.61
-602.18
-561.03
-501.32
-430.13
-355.31
-283.35
-218.27
-161.80
-114.41
-76.25
-47.71
-28.90
-18.95
-15.63
-15.39
-14.30
-9.09
1.88
18.40
38.73
60.48
81.53
100.84
118.65
136.33
155.81
179.21
208.31
243.89
285.32
330.09
373.71
410.35
434.53
443.06
436.88
421.40
404.99
396.15
400.32
417.82
443.72
469.68
486.51
486.79
466.19
423.62
360.66
280.71
188.26
88.29
-14.09
-113.94
-206.72
-288.36
-355.44
-405.08
-435.26
-444.97
-434.52
-405.40
-360.40
-303.18
-237.61
-167.27
-94.84
-22.51
47.72
113.42
171.78
219.93
255.62
278.08
288.38
289.11
283.40
274.20
263.50
252.50
241.08
227.60
209.30
183.01
146.23
97.94
39.22
-26.64
-93.73
-155.91
-208.23
-247.33
-271.29
-279.52
-273.42
-256.57
-234.08
-209.36
-185.53
-165.25
-149.80
-137.86
-125.63
-108.32
-81.88
-44.11
7.65
71.49
140.21
203.70
253.96
288.68
311.09
327.60
344.81
370.86
408.22
452.29
493.77
523.68
536.30
529.18
502.44
431.01
309.86
159.69
16.52
-92.49
-160.07
-192.89
-201.95
-196.64
-182.24
-158.69
-128.21
-97.60
-76.06
-70.55
-83.19
-111.97
-154.38
-200.71
-235.20
-245.72
-229.75
-194.75
-153.11
-116.31
-91.03
-77.90
-72.61
-68.03
-59.92
-48.93
-39.00
-33.67
-33.61
-36.62
-39.18
-38.25
-32.32
-22.54
-12.06
-4.26
-0.91
-1.58
-4.40
-7.19
-8.33
-7.48
-5.59
-4.08
-3.87
-4.87
-6.42
-8.29
-11.37
-16.79
-25.79
-38.36
-52.69
-65.60
-73.76
-74.82
-68.04
-53.89
-33.45
-8.29
19.76
48.40
74.84
96.19
110.37
116.73
116.43
111.87
105.67
100.12
96.73
96.19
98.48
103.03
108.81
114.41
118.29
118.75
114.63
105.53
91.84
74.68
55.39
35.13
14.57
-4.14
-18.97
-27.98
-29.52
-22.39
-6.17
18.42
49.19
82.54
114.12
139.66
156.39
163.60
162.37
154.48
141.30
123.18
99.98
71.94
40.27
7.12
-25.03
-53.74
-76.46
-90.08
-90.99
-76.39
-46.50
-6.33
34.75
65.75
78.02
68.38
39.73
-0.77
-45.03
-86.77
-122.70
-151.84
-174.40
-190.92
-202.52
-211.48
-221.33
-235.73
-256.80
-283.39
-310.72
-331.55
-338.58
-327.12
-296.91
-252.28
-201.08
-152.52
-114.97
-94.25
-92.41
-107.54
-134.78
-168.15
-202.30
-233.69
-260.24
-280.48
-292.41
-293.28
-280.48
-253.27
-213.91
-167.26
-119.20
-74.37
-35.45
-3.04
23.51
45.42
63.77
79.36
93.22
107.00
123.35
144.53
171.05
200.61
228.05
246.15
248.04
230.82
196.68
155.41
120.59
102.30
102.16
114.66
131.54
146.37
156.69
163.47
169.12
174.37
178.12
178.48
175.08
169.24
163.36
159.82
160.12
164.41
170.19
174.48
173.84
167.01
155.02
140.54
126.04
113.49
103.84
95.16
84.57
69.58
49.55
25.94
1.75
-20.35
-38.10
-50.41
-59.62
-69.50
-84.10
-106.53
-139.18
-177.25
-218.04
-259.92
-291.47
-306.08
-302.39
-284.63
-259.70
-233.74
-210.49
-192.06
-178.01
-165.29
-150.42
-129.08
-98.11
-57.60
-11.64
33.06
69.24
93.06
104.98
107.41
103.58
95.98
85.85
74.05
62.10
51.86
45.40
43.66
44.92
45.80
42.97
34.45
20.84
5.04
-9.35
-19.27
-23.75
-24.17
-23.91
-25.40
-29.48
-34.70
-37.65
-34.33
-21.34
2.75
36.93
77.03
115.66
144.02
154.93
145.92
120.23
87.12
54.81
29.31
11.84
-0.97
-14.92
-35.56
-65.04
-102.29
-143.45
-182.99
-214.40
-231.76
-231.55
-214.82
-187.60
-158.22
-134.29
-119.31
-111.42
-104.87
-94.01
-76.19
-52.99
-28.48
-5.39
15.47
35.27
55.34
75.75
94.98
111.71
125.40
131.32
128.56
117.56
99.34
75.31
46.75
15.02
-16.77
-45.88
-70.13
-87.40
-96.17
-95.08
-83.04
-60.05
-27.59
13.67
61.47
111.96
161.18
205.96
245.26
280.20
312.81
345.28
382.40
427.30
479.57
534.65
584.16
618.33
628.85
611.41
548.56
439.01
297.61
150.43
22.35
-73.80
-137.92
-176.90
-198.86
-210.34
-212.80
-207.81
-198.59
-189.98
-186.24
-189.04
-196.75
-205.55
-211.57
-209.40
-196.25
-172.54
-142.06
-110.30
-82.03
-59.95
-45.23
-37.77
-35.18
-35.18
-36.74
-40.29
-47.21
-58.77
-75.40
-95.78
-118.36
-141.44
-164.06
-185.00
-201.77
-210.41
-206.26
-186.46
-152.08
-108.85
-65.13
-28.84
-4.64
7.43
10.62
9.15
5.75
1.23
-4.73
-12.39
-21.01
-29.22
-35.89
-40.89
-45.07
-49.46
-54.39
-59.47
-62.57
-61.19
-53.45
-38.95
-18.80
4.44
27.56
47.66
62.39
70.35
70.91
64.76
53.91
41.64
30.96
22.74
15.69
7.24
-3.92
-15.98
-24.20
-23.26
-10.14
13.04
39.83
63.49
79.80
88.79
92.90
94.02
89.36
76.93
57.72
31.81
1.64
-29.35
-57.21
-79.03
-92.87
-96.74
-87.91
-63.95
-24.36
29.37
91.27
152.75
204.06
236.31
244.81
231.47
204.31
175.33
157.29
158.51
181.91
224.07
273.52
316.86
343.35
347.95
331.14
301.66
259.69
202.25
127.70
38.68
-56.71
-145.67
-216.49
-263.13
-286.73
-294.70
-295.03
-292.90
-289.41
-281.90
-266.43
-240.84
-206.30
-167.03
-129.52
-99.09
-78.76
-69.24
-69.16
-75.78
-85.81
-95.66
-101.96
-102.66
-96.75
-84.96
-69.76
-54.13
-40.43
-29.56
-20.92
-13.02
-4.68
4.82
15.46
26.53
36.89
45.31
50.49
51.28
46.90
37.21
23.03
6.21
-10.88
-25.88
-36.91
-43.01
-44.17
-41.33
-36.08
-30.37
-26.15
-25.05
-28.09
-35.49
-46.49
-59.35
-71.85
-81.83
-88.10
-90.88
-91.67
-92.53
-94.88
-98.62
-102.05
-102.69
-98.42
-88.32
-72.81
-53.01
-30.12
-5.14
20.75
45.64
66.85
81.51
87.92
86.72
80.98
75.01
72.57
75.24
82.02
90.23
96.93
100.39
100.66
99.20
97.68
97.11
97.37
97.67
97.35
95.93
93.30
89.45
84.23
77.16
68.21
58.36
49.76
45.61
47.83
56.22
68.55
81.27
90.46
93.88
91.83
87.01
84.23
86.26
92.72
100.51
104.95
101.14
86.86
63.29
34.40
6.61
-17.00
-37.06
-56.39
-78.38
-106.11
-140.78
-182.03
-228.50
-276.33
-323.87
-370.46
-414.77
-443.97
-445.06
-408.99
-335.98
-250.38
-165.45
-88.98
-25.48
26.80
67.12
92.88
101.21
90.04
60.25
19.64
-22.10
-54.52
-68.93
-62.07
-36.97
-0.58
39.75
79.65
120.32
162.96
206.41
246.20
274.60
284.67
273.79
244.88
204.83
161.90
119.94
77.63
31.02
-23.39
-83.86
-143.21
-192.02
-223.78
-238.25
-242.84
-248.55
-257.38
-266.59
-267.11
-248.66
-206.18
-143.34
-70.74
-0.85
56.96
98.95
124.89
137.90
140.55
135.14
124.84
113.91
106.85
104.84
107.27
109.10
103.96
87.46
59.49
23.78
-14.48
-51.24
-84.85
-114.91
-141.64
-164.73
-181.67
-189.72
-187.98
-178.38
-165.11
-153.05
-145.40
-142.99
-143.74
-143.67
-138.48
-124.80
-100.75
-65.80
-22.63
24.35
68.16
100.54
114.74
108.46
86.16
57.62
34.04
22.92
25.07
34.67
43.04
43.28
32.97
14.57
-7.91
-31.57
-55.71
-80.17
-103.36
-121.13
-127.55
-117.62
-88.60
-42.77
13.06
70.15
121.27
163.33
197.75
229.52
263.98
307.01
360.60
422.05
484.71
539.64
578.04
593.60
584.84
555.72
517.95
484.07
462.85
455.64
456.20
453.87
438.65
406.27
344.29
253.47
143.60
30.45
-70.53
-149.47
-203.70
-235.82
-247.61
-246.13
-235.61
-219.96
-201.18
-178.83
-150.66
-113.98
-71.28
-27.58
8.68
35.51
48.00
40.74
7.02
-53.57
-134.18
-221.25
-297.47
-347.62
-361.71
-339.83
-290.08
-224.67
-154.57
-86.77
-23.33
36.94
94.66
148.24
191.81
217.67
219.63
196.78
154.19
101.44
49.30
5.59
-26.62
-49.50
-67.53
-85.20
-105.11
-128.17
-153.79
-179.53
-201.56
-215.55
-218.34
-209.24
-190.67
-166.95
-142.51
-120.07
-100.35
-82.94
-68.42
-59.38
-59.45
-71.63
-96.39
-131.50
-172.95
-216.76
-260.21
-301.89
-340.62
-374.15
-398.51
-408.70
-400.38
-372.33
-327.95
-274.48
-220.43
-172.41
-133.00
-100.55
-71.02
-40.26
-5.77
33.17
76.03
121.32
165.76
203.48
226.17
226.22
200.78
154.83
101.06
55.88
33.26
39.36
71.25
119.72
174.43
228.10
277.29
320.43
354.80
375.66
377.63
358.01
319.14
268.05
213.61
162.15
115.31
70.98
26.73
-16.31
-51.76
-69.90
-62.45
-27.52
27.65
88.43
137.66
161.91
155.91
123.43
74.28
19.79
-31.30
-74.69
-109.84
-138.22
-161.98
-183.41
-204.95
-228.77
-255.82
-284.51
-310.56
-327.97
-331.25
-317.14
-285.32
-238.24
-180.83
-120.29
-65.93
-28.49
-17.68
-38.40
-87.40
-152.69
-216.82
-263.01
-281.25
-271.24
-241.05
-202.50
-165.84
-136.29
-113.79
-95.35
-78.09
-60.80
-43.62
-26.40
-7.36
17.04
50.64
95.54
150.80
212.39
274.38
330.95
377.62
411.91
433.21
442.25
440.36
429.27
410.23
383.44
348.16
303.17
247.72
182.26
108.84
31.13
-45.73
-115.57
-171.63
-207.32
-217.47
-199.81
-156.16
-92.84
-20.09
49.88
104.89
135.55
137.31
111.94
67.79
18.16
-21.71
-38.84
-26.34
14.00
72.32
133.56
182.06
206.75
204.67
181.78
150.83
126.93
122.40
142.75
185.13
239.77
293.69
335.07
356.69
357.27
340.57
312.82
280.02
246.13
212.62
179.44
146.18
113.25
81.96
54.31
32.43
17.99
11.96
14.52
25.31
43.43
67.74
96.64
127.93
158.72
185.52
204.89
214.28
212.97
202.38
185.63
166.32
147.38
130.26
114.79
99.84
84.27
67.66
50.62
34.50
20.55
9.34
0.48
-7.15
-14.78
-23.19
-32.48
-42.30
-52.09
-61.63
-71.14
-81.14
-92.24
-104.61
-117.83
-130.73
-141.74
-149.05
-150.88
-145.68
-132.29
-110.18
-79.51
-41.48
1.64
46.56
89.37
126.17
153.78
170.32
175.45
170.17
156.17
135.20
108.61
77.33
42.14
4.26
-34.29
