1592925705.00
64.000000
-0.00
-0.00
-0.00
-0.00
-0.00
-0.00
-0.00
-0.00
-0.00
-0.00
0.00
0.01
0.01
-0.00
-0.03
-0.05
-0.05
0.00
0.13
0.36
0.66
1.01
1.37
1.72
2.06
2.40
2.79
3.24
3.80
4.42
5.06
5.66
6.20
6.68
7.15
7.68
8.31
9.14
10.09
11.04
11.88
12.56
13.14
13.76
14.65
15.96
17.91
20.32
22.90
25.38
27.58
29.57
31.68
34.32
37.81
42.54
48.15
54.10
59.83
64.97
69.58
74.14
79.34
85.71
93.76
103.00
112.62
121.73
129.77
136.75
143.30
150.75
157.77
166.64
177.95
191.79
206.97
220.57
228.25
225.36
208.53
176.87
132.76
80.05
23.07
-34.94
-92.44
-149.16
-205.23
-260.37
-313.74
-363.87
-409.83
-450.91
-486.50
-515.74
-537.23
-549.22
-549.96
-538.37
-514.21
-478.67
-433.88
-382.45
-327.02
-269.84
-212.63
-156.66
-102.95
-52.37
-5.90
35.58
71.43
101.35
125.50
144.38
158.69
169.15
176.37
180.75
182.57
182.07
179.51
175.23
169.65
163.18
156.15
148.81
141.30
133.69
126.02
118.33
110.69
103.16
95.80
88.68
81.83
75.25
68.95
62.95
57.25
51.86
46.78
42.03
37.59
33.45
29.61
26.07
22.81
19.83
17.11
14.67
12.48
10.54
8.83
7.35
6.07
4.97
4.05
3.27
2.63
2.09
1.66
1.29
0.99
0.76
0.57
0.43
0.34
0.27
0.23
0.19
0.15
0.10
0.05
0.02
0.01
0.04
0.10
0.14
0.14
0.04
-0.16
-0.44
-0.71
-0.90
-0.93
-0.78
-0.52
-0.29
-0.22
-0.38
-0.75
-1.18
-1.49
-1.50
-1.21
-0.75
-0.39
-0.40
-0.91
-1.83
-2.82
-3.47
-3.44
-2.72
-1.66
-0.85
-0.89
-2.09
-4.22
-6.57
-8.19
-8.35
-6.92
-4.54
-2.45
-1.95
-3.83
-7.88
-12.90
-17.01
-18.39
-16.18
-11.00
-4.94
-0.80
-0.87
-5.73
-13.77
-21.77
-26.37
-25.68
-20.37
-13.43
-8.82
-9.68
-17.06
-29.42
-42.87
-52.39
-53.12
-41.76
-17.77
16.00
53.54
86.86
108.20
112.45
99.32
73.69
44.23
20.18
7.85
8.19
16.68
26.02
29.93
26.41
18.44
12.02
12.39
20.59
32.83
42.61
44.63
37.84
26.18
16.42
14.04
19.94
29.93
36.81
34.52
21.66
2.28
-15.98
-25.98
-24.75
-14.99
-3.46
2.63
-0.66
-12.24
-27.15
-39.29
-44.65
-43.22
-38.03
-33.27
-31.82
-34.31
-39.00
-43.66
-47.22
-50.33
-54.70
-61.47
-69.60
-75.75
-75.46
-65.31
-45.16
-18.64
8.08
28.70
39.23
39.68
33.18
24.04
15.89
10.43
7.71
6.78
6.60
6.47
6.04
5.14
3.86
2.46
1.55
1.74
3.50
6.80
11.14
15.79
20.01
23.49
26.56
30.00
34.90
42.37
53.02
66.29
79.93
89.93
91.59
81.16
57.83
24.92
-10.47
-39.81
-56.43
-58.16
-48.13
-33.06
-20.13
-13.94
-15.18
-21.24
-28.16
-32.55
-32.76
-28.99
-22.69
-16.02
-11.13
-9.69
-12.53
-19.19
-28.02
-36.74
-43.15
-45.84
-44.25
-38.56
-29.55
-18.74
-8.52
-1.83
-1.33
-8.03
-20.42
-34.62
-45.98
-51.05
-48.85
-40.63
-28.66
-14.83
-0.08
15.00
29.04
39.25
42.27
36.16
22.31
5.68
-6.97
-10.01
-1.59
16.03
37.65
57.51
71.28
77.54
77.35
72.79
65.49
55.82
43.05
26.18
4.79
-20.19
-46.12
-68.84
-83.59
-86.80
-78.08
-61.19
-43.40
-32.56
-33.51
-45.23
-60.87
-70.82
-67.38
-48.43
-18.48
13.51
38.38
50.82
51.42
45.63
40.27
40.11
45.90
55.11
64.34
71.82
78.27
85.88
95.97
107.08
115.11
115.35
105.33
86.58
64.16
44.11
31.60
29.55
38.08
55.14
77.33
100.69
121.04
134.24
136.34
126.22
106.34
81.61
56.79
34.24
13.31
-8.63
-33.98
-63.94
-95.55
-122.99
-141.51
-150.75
-154.70
-159.10
-167.97
-182.30
-201.76
-223.16
-241.84
-253.85
-257.28
-251.77
-237.46
-214.55
-172.43
-112.89
-49.00
4.93
43.10
67.54
82.98
93.55
103.49
113.89
122.83
129.26
133.71
137.28
140.48
143.47
143.75
141.16
136.20
128.24
117.36
104.53
90.80
76.58
61.75
46.52
31.97
19.11
7.83
-1.86
-9.64
-15.36
-19.30
-22.04
-23.99
-24.97
-25.00
-24.86
-25.31
-26.72
-28.97
-31.55
-33.66
-34.41
-33.09
-29.88
-25.97
-22.89
-21.89
-23.55
-27.75
-33.81
-40.89
-48.12
-54.98
-61.20
-66.48
-70.46
-72.68
-72.78
-70.81
-67.47
-64.08
-62.31
-63.67
-69.05
-78.33
-90.36
-103.28
-114.93
-123.28
-126.67
-123.79
-113.70
-95.81
-70.08
-37.44
-0.10
38.68
75.23
106.75
132.62
154.97
178.03
205.98
240.55
279.13
314.96
339.34
344.80
327.72
289.27
234.41
169.82
102.01
36.28
-23.07
-72.51
-109.24
-131.78
-140.84
-139.55
-132.68
-125.07
-120.04
-118.56
-119.56
-120.98
-120.97
-118.65
-114.11
-107.75
-99.91
-90.76
-80.44
-69.15
-57.24
-45.27
-33.99
-24.27
-16.85
-11.93
-8.76
-5.78
-1.32
5.42
13.66
21.28
26.13
27.53
27.12
28.28
34.15
45.64
60.69
75.35
85.98
90.89
90.67
87.03
81.47
74.33
64.83
52.15
36.38
18.83
1.53
-13.88
-27.08
-39.34
-52.87
-69.64
-90.09
-112.63
-133.86
-149.87
-157.90
-157.41
-150.34
-139.90
-128.99
-118.93
-109.21
-98.48
-85.93
-72.09
-58.68
-47.55
-39.49
-33.71
-28.16
-20.72
-10.38
2.23
15.29
26.93
36.27
43.85
51.19
59.48
68.51
76.47
80.77
79.58
72.96
62.92
52.57
44.47
39.47
36.65
34.24
31.09
27.55
25.23
25.92
30.33
37.26
44.12
48.19
48.21
44.95
40.84
38.60
39.70
43.67
48.49
51.86
52.61
51.25
49.51
49.29
51.50
55.52
59.69
62.22
62.31
60.45
58.04
56.47
56.05
55.68
53.33
47.10
36.39
22.43
7.76
-4.86
-13.82
-19.32
-23.07
-27.23
-33.24
-41.23
-50.30
-59.33
-67.86
-76.28
-85.35
-95.49
-106.10
-115.65
-122.14
-123.88
-120.06
-110.98
-97.81
-82.23
-65.89
-50.13
-35.72
-22.86
-11.44
-1.32
7.48
14.71
20.20
24.06
26.88
29.52
32.64
36.35
39.98
42.55
43.23
41.93
39.33
36.57
34.49
33.25
32.23
30.45
27.31
22.90
18.11
14.07
11.50
10.36
9.96
9.45
8.39
6.99
5.97
6.00
7.18
8.80
9.63
8.57
5.20
0.04
-5.64
-10.46
-13.64
-15.28
-16.26
-17.57
-19.68
-22.28
-24.45
-25.31
-24.74
-23.51
-22.99
-24.32
-27.69
-32.14
-35.93
-37.41
-35.82
-31.58
-26.00
-20.54
-16.04
-12.49
-9.10
-5.06
-0.14
5.15
9.77
12.83
14.05
13.92
13.45
13.59
14.65
16.17
17.35
17.74
17.65
18.12
20.29
24.66
30.75
37.07
41.86
44.20
44.62
44.89
47.11
52.48
60.78
70.80
80.67
88.70
94.26
97.92
100.96
104.47
108.71
113.18
117.60
121.48
124.18
125.08
123.75
119.86
113.19
103.77
92.10
79.82
68.06
56.92
45.63
33.25
19.23
3.48
-13.72
-36.54
-64.39
-92.81
-116.17
-131.17
-137.73
-137.52
-132.75
-125.36
-116.78
-107.11
-96.67
-86.34
-77.26
-70.23
-65.32
-61.98
-59.38
-56.66
-52.60
-46.92
-40.37
-34.14
-29.30
-26.22
-24.66
-23.93
-23.38
-21.90
-19.07
-15.13
-10.71
-7.07
-5.75
-8.67
-17.07
-30.30
-44.31
-53.04
-50.81
-35.19
-8.73
21.99
49.38
67.93
75.67
73.76
64.78
51.20
35.63
21.31
12.55
13.18
24.48
43.49
63.54
77.10
79.34
70.19
53.72
35.73
20.76
11.09
7.11
8.14
13.51
22.48
33.56
43.85
49.67
47.44
34.91
13.13
-14.88
-44.74
-71.87
-92.33
-103.97
-106.61
-102.07
-93.71
-85.11
-79.18
-76.79
-76.72
-76.85
-76.14
-75.87
-79.63
-91.59
-113.93
-145.02
-179.27
-208.74
-225.51
-224.30
-204.25
-169.40
-127.71
-88.74
-60.84
-48.79
-52.39
-66.64
-83.92
-96.66
-99.81
-92.17
-75.65
-53.42
-28.06
-0.83
27.82
57.02
84.81
108.13
123.63
128.91
123.22
107.90
86.22
62.96
43.54
32.80
33.35
44.59
62.61
81.63
96.17
103.15
102.61
96.69
87.83
77.35
65.42
52.16
38.64
27.10
19.98
18.47
21.72
27.06
31.41
32.76
31.10
28.21
26.79
28.94
35.08
43.66
51.75
56.35
55.53
49.20
38.89
26.94
15.33
5.08
-3.64
-10.67
-15.29
-16.04
-11.48
-1.36
12.52
26.47
36.17
38.45
32.67
21.05
7.63
-3.51
-9.75
-10.58
-7.18
-1.39
5.20
11.50
16.72
19.94
20.29
17.41
11.98
5.83
1.22
-0.26
1.51
5.16
8.62
10.15
9.21
6.49
3.23
0.46
-1.65
-3.84
-7.26
-12.78
-20.45
-29.42
-38.25
-45.32
-49.46
-50.25
-48.10
-43.95
-38.86
-33.43
-27.54
-20.46
-11.25
0.43
13.94
27.68
39.70
48.56
53.89
56.34
56.84
55.82
52.86
47.11
38.34
27.63
17.36
10.34
8.36
11.16
16.51
21.19
22.59
19.65
13.12
4.78
-3.50
-10.55
-15.99
-19.85
-22.05
-22.21
-19.80
-14.56
-6.85
2.33
11.67
19.99
26.61
31.39
34.47
35.95
35.68
33.34
28.81
22.51
15.58
9.51
5.61
4.36
5.22
6.81
7.61
6.64
3.95
0.53
-2.22
-3.08
-1.67
1.35
4.55
6.37
5.79
2.81
-1.49
-5.42
-7.42
-6.79
-3.91
-0.04
3.43
5.63
6.57
6.96
7.46
8.22
8.63
7.77
5.11
1.04
-3.15
-5.84
-5.97
-3.65
-0.11
2.87
3.89
2.54
-0.44
-3.74
-6.20
-7.41
-7.81
-8.17
-9.02
-10.23
-11.04
-10.61
-8.60
-5.55
-2.65
-1.09
-1.52
-3.71
-6.76
-9.62
-11.65
-12.79
-13.41
-13.89
-14.32
-14.55
-14.39
-13.97
-13.85
-14.77
-17.10
-20.49
-23.78
-25.47
-24.42
-20.46
-14.56
-8.40
-3.59
-0.91
-0.01
0.19
0.90
2.60
4.75
6.09
5.37
2.24
-2.49
-7.16
-10.07
-10.32
-8.34
-5.62
-3.95
-4.45
-7.08
-10.67
-13.54
-14.36
-12.73
-9.29
-5.27
-1.79
0.61
2.10
3.26
4.58
6.09
7.34
7.69
6.84
5.01
2.88
1.28
0.63
0.68
0.57
-0.64
-3.42
-7.36
-11.22
-13.44
-12.83
-9.14
-3.20
3.41
9.09
12.75
14.19
13.98
12.98
11.86
10.81
9.66
8.18
6.41
4.66
3.42
2.88
2.78
2.43
1.20
-1.07
-3.83
-6.10
-6.87
-5.77
-3.39
-0.95
0.27
-0.25
-1.98
-3.57
-3.53
-1.05
3.64
9.16
13.75
16.13
16.13
14.69
13.27
12.97
14.01
16.03
18.16
19.65
20.46
21.31
23.18
26.54
31.02
35.61
39.74
43.03
45.33
46.83
47.96
48.98
49.63
49.29
47.50
45.22
43.55
43.17
44.38
47.19
51.31
56.06
60.69
64.76
69.30
74.74
80.17
83.65
83.13
77.12
65.06
47.46
19.63
-16.06
-51.46
-78.09
-92.71
-97.17
-95.10
-89.60
-82.59
-75.00
-66.25
-56.49
-46.82
-38.46
-31.81
-26.34
-21.50
-16.94
-12.68
-8.27
-4.03
-0.91
0.33
-0.36
-2.78
-6.39
-10.77
-15.74
-20.77
-25.84
-31.31
-37.40
-43.47
-47.60
-47.41
-40.31
-24.88
-2.13
23.99
48.07
65.59
74.70
78.62
79.72
81.35
84.09
87.94
91.05
91.26
87.72
80.50
70.37
55.39
33.49
8.29
-16.90
-39.20
-56.49
-67.71
-74.67
-80.05
-89.19
-103.53
-119.04
-129.56
-130.61
-121.88
-106.53
-91.77
-83.49
-87.92
-105.09
-128.98
-152.66
-171.88
-185.92
-195.03
-202.43
-183.67
-129.15
-50.72
29.20
95.13
143.08
170.72
185.60
189.16
181.55
159.50
121.72
74.24
22.13
-31.82
-87.21
-127.22
-141.78
-131.84
-110.34
-88.44
-69.60
-52.96
-37.16
-22.08
-7.70
2.92
8.39
8.10
4.33
0.87
0.21
2.58
6.40
10.16
10.83
7.42
0.70
-6.64
-11.44
-12.44
-10.38
-7.17
-4.87
-6.45
-13.78
-26.87
-42.85
-56.01
-59.45
-47.70
-19.77
18.68
55.65
77.88
76.69
51.74
10.64
-34.88
-73.75
-98.89
-108.05
-102.49
-85.08
-59.22
-28.97
0.62
24.29
38.16
41.30
35.59
25.04
13.75
4.69
-0.43
-1.21
1.93
7.92
15.23
22.06
27.39
30.98
33.34
35.57
38.63
42.80
47.58
51.86
54.39
54.38
51.63
46.68
40.51
34.23
28.64
24.08
20.48
17.50
14.84
12.34
10.02
8.11
6.77
6.10
6.00
6.17
6.20
5.77
4.58
2.46
-0.58
-4.45
-9.00
-14.08
-19.59
-25.57
-31.85
-38.38
-45.14
-52.07
-59.12
-66.18
-73.14
-79.88
-86.34
-92.15
-97.19
-101.54
-105.39
-109.03
-112.63
-116.27
-119.88
-123.35
-126.13
-127.98
-128.89
-128.96
-128.19
-126.16
-121.95
-113.86
-103.31
-90.55
-76.06
-60.66
-45.27
-30.64
-17.01
-4.09
8.72
21.79
35.58
49.95
64.58
79.41
94.71
110.67
126.69
140.94
150.81
154.54
151.73
143.66
132.32
118.94
103.21
83.83
60.34
34.50
10.57
-6.65
-14.43
-13.77
-8.86
-4.83
-4.98
-9.16
-14.43
-17.08
-15.05
-9.13
-2.23
2.59
3.93
2.94
2.63
6.11
15.08
29.08
45.98
63.07
78.06
89.36
95.90
96.86
91.80
81.33
67.54
53.88
44.26
41.53
46.35
56.89
69.62
80.48
86.38
86.21
80.95
73.20
66.05
61.67
60.52
61.40
62.28
61.53
58.91
55.39
52.39
50.76
50.12
49.25
47.03
43.34
39.27
36.51
36.21
38.09
40.36
40.49
36.61
28.57
18.14
8.24
1.48
-1.07
-0.16
2.36
4.76
6.43
7.93
10.39
14.45
19.72
24.99
28.97
31.05
31.51
31.14
30.58
30.06
29.43
28.48
27.04
24.93
21.66
16.45
8.62
-1.90
-14.09
-26.05
-35.66
-41.51
-43.55
-43.01
-41.80
-41.60
-43.31
-46.81
-51.31
-55.70
-58.88
-59.98
-58.43
-54.26
-48.15
-41.46
-35.75
-32.26
-31.38
-32.51
-34.27
-35.03
-33.39
-28.39
-19.71
-7.69
6.52
21.01
33.44
41.74
44.74
42.72
37.24
30.54
24.82
21.61
21.55
24.43
29.24
34.31
37.67
37.58
33.11
24.68
13.90
2.93
-6.45
-13.52
-18.71
-22.95
-27.06
-31.15
-34.65
-36.68
-36.69
-34.76
-31.61
-28.35
-26.03
-25.34
-26.36
-28.59
-31.21
-33.50
-35.22
-36.58
-37.91
-38.94
-38.51
-34.90
-26.83
-14.48
0.16
14.05
24.48
30.35
32.46
32.70
32.73
33.03
33.06
32.08
30.04
27.76
26.20
25.49
24.52
21.48
15.10
5.59
-5.17
-14.51
-20.36
-22.25
-21.29
-19.38
-18.12
-17.97
-18.37
-18.24
-16.77
-14.03
-10.90
-8.59
-7.86
-8.51
-9.24
-8.18
-3.80
4.23
14.67
25.17
33.35
37.80
38.65
37.22
35.03
32.90
30.73
27.84
23.98
19.74
16.35
14.88
15.42
16.79
17.02
14.51
8.89
1.36
-5.92
-10.88
-12.54
-11.33
-8.79
-6.61
-5.73
-6.07
-6.67
-6.53
-5.16
-3.04
-1.36
-1.55
-4.53
-10.20
-17.34
-23.99
-28.24
-29.15
-27.03
-23.33
-19.75
-17.30
-15.85
-14.37
-11.78
-7.94
-3.96
-1.71
-2.62
-6.74
-12.49
-17.47
-19.73
-18.76
-15.70
-12.56
-10.99
-11.40
-12.89
-13.92
-13.42
-11.48
-9.19
-7.79
-7.65
-7.92
-7.04
-3.79
1.72
7.95
12.70
14.33
12.80
9.60
6.90
6.26
7.75
10.14
11.75
11.61
10.03
8.44
8.37
10.52
14.24
17.85
19.57
18.50
15.10
10.91
7.61
6.20
6.54
7.61
8.22
7.56
5.49
2.30
-1.51
-5.53
-9.51
-13.31
-16.91
-20.42
-24.04
-27.92
-31.86
-35.27
-37.39
-37.78
-36.59
-34.57
-32.50
-30.57
-28.19
-24.32
-18.33
-10.72
-3.24
1.94
3.25
0.72
-3.95
-8.16
-9.67
-7.64
-2.91
2.57
6.92
9.25
10.17
11.28
14.14
19.24
25.59
31.20
34.05
33.17
29.16
23.75
18.91
15.83
14.53
14.19
13.91
13.27
12.57
12.19
12.09
11.50
9.26
4.68
-1.73
-8.26
-12.58
-12.87
-8.86
-1.98
5.16
9.87
10.62
7.60
2.52
-2.25
-4.93
-5.19
-4.14
-3.54
-4.64
-7.42
-10.48
-11.95
-10.66
-6.91
-2.40
0.83
1.56
0.14
-1.79
-2.39
-0.81
2.27
5.17
6.21
4.89
2.04
-0.69
-1.95
-1.53
-0.31
0.52
0.41
-0.02
0.55
3.06
7.26
11.54
13.73
12.18
6.63
-1.82
-11.37
-20.32
-27.51
-32.38
-34.65
-34.24
-31.23
-26.02
-19.31
-11.91
-4.49
2.53
8.90
14.13
17.49
18.23
16.11
11.85
7.01
3.37
2.08
3.07
5.02
6.10
5.05
1.92
-1.91
-4.48
-4.29
-1.12
4.02
9.55
14.12
17.10
18.25
17.36
13.98
7.79
-0.71
-9.79
-16.79
-19.34
-16.67
-10.37
-3.70
-0.08
-1.18
-5.99
-11.31
-13.43
-10.10
-1.81
8.51
16.92
20.47
18.48
12.62
5.90
1.04
-0.74
-0.00
1.49
1.82
-0.16
-4.37
-9.60
-14.06
-16.02
-14.55
-9.81
-2.96
4.23
10.13
13.73
14.86
13.86
11.27
7.51
3.07
-1.28
-4.53
-5.55
-3.80
0.17
4.69
7.49
6.71
1.83
-5.96
-14.26
-20.39
-22.56
-20.55
-15.63
-9.77
-4.83
-1.90
-1.16
-2.21
-4.46
-7.24
-9.83
-11.38
-11.12
-8.75
-4.66
0.05
4.10
6.57
7.39
7.12
6.51
5.86
4.98
3.47
1.32
-0.91
-2.25
-1.93
0.02
2.86
5.47
7.07
7.62
7.72
8.14
9.21
10.66
11.76
11.82
10.54
8.09
4.94
1.65
-1.28
-3.44
-4.52
-4.46
-3.49
-2.16
-1.18
-1.02
-1.77
-3.10
-4.51
-5.61
-6.33
-6.73
-6.87
-6.59
-5.72
-4.24
-2.53
-1.24
-1.00
-2.01
-3.79
-5.30
-5.44
-3.57
0.11
4.54
8.05
9.01
6.50
0.80
-6.50
-12.94
-16.09
-14.50
-8.41
0.29
8.69
14.05
14.87
11.39
5.46
-0.42
-4.16
-4.90
-3.14
-0.27
2.18
3.25
2.77
1.27
-0.54
-2.16
-3.54
-5.02
-6.94
-9.38
-11.87
-13.56
-13.63
-11.77
-8.45
-4.97
-2.90
-3.29
-6.13
-10.23
-13.83
-15.39
-14.34
-11.08
-6.57
-1.73
2.92
7.06
10.28
11.97
11.48
8.78
4.76
1.07
-0.63
0.51
4.01
8.28
11.55
12.85
12.45
11.63
11.82
13.64
16.49
18.86
19.26
17.13
13.23
9.16
6.47
5.60
5.61
4.83
1.96
-2.86
-7.88
-10.68
-9.46
-4.34
2.51
7.76
8.65
4.36
-3.43
-11.33
-15.83
-14.88
-8.70
0.67
10.52
18.80
24.74
28.80
31.88
34.72
37.59
40.55
43.88
48.34
54.80
63.64
74.22
84.78
93.12
97.52
97.71
95.07
92.05
91.04
93.38
98.87
106.15
113.60
120.16
125.68
130.33
133.77
134.52
130.12
118.02
96.80
67.05
31.25
-6.94
-44.04
-78.02
-109.05
-139.46
-172.90
-212.53
-259.06
-309.47
-357.10
-393.42
-410.81
-405.11
-376.74
-329.85
-270.55
-205.37
-140.88
-83.59
-39.67
-13.51
-6.08
-13.94
-30.04
-46.31
-56.47
-57.63
-50.05
-35.72
-16.94
4.23
25.53
43.96
55.89
58.08
48.66
27.60
-3.51
-41.90
-83.77
-124.49
-159.33
-184.58
-198.43
-201.20
-194.53
-179.95
-157.84
-127.69
-89.74
-46.78
-4.61
29.37
48.95
52.00
41.70
25.60
12.81
11.05
24.18
50.92
85.34
118.58
142.06
150.64
144.54
129.00
111.72
99.06
93.29
92.38
92.29
90.48
87.78
87.44
92.18
101.54
111.56
117.07
115.00
106.33
95.35
86.93
83.71
84.82
86.89
86.36
81.29
72.29
61.58
51.47
43.29
36.87
31.18
25.12
18.60
12.95
10.54
13.47
22.07
34.10
45.44
51.92
51.35
44.57
34.77
25.67
19.61
16.75
15.71
14.98
13.89
12.76
12.14
11.87
10.83
7.47
0.81
-8.74
-19.27
-28.11
-32.86
-32.47
-27.58
-20.22
-12.77
-6.85
-2.72
0.58
4.37
9.37
15.15
20.29
23.27
23.33
21.00
18.07
16.94
19.79
27.89
41.07
57.68
74.86
89.32
98.37
100.92
97.66
90.41
80.93
69.91
56.91
41.20
23.04
4.25
-12.29
-23.96
-29.67
-30.29
-27.84
-24.33
-20.65
-16.55
-11.45
-5.24
1.24
6.73
10.41
12.69
15.19
20.01
28.49
40.27
53.16
64.06
70.36
71.23
67.95
63.11
59.11
56.95
55.78
53.52
47.94
37.50
21.43
-0.62
-28.86
-62.92
-100.95
-139.26
-172.82
-196.75
-208.08
-206.77
-195.58
-178.73
-160.32
-143.32
-129.21
-118.56
-111.67
-109.06
-111.37
-118.67
-129.65
-141.24
-149.08
-148.77
-137.64
-116.04
-87.57
-57.68
-31.48
-11.76
1.86
11.99
21.85
33.29
45.92
57.42
64.85
66.23
61.67
53.61
46.23
43.93
49.60
63.47
82.87
103.29
119.95
129.37
130.13
122.64
108.22
88.21
63.60
35.38
5.14
-24.46
-49.93
-67.94
-76.53
-75.94
-68.59
-58.20
-48.45
-41.74
-38.62
-37.98
-37.85
-36.42
-32.61
-26.17
-17.35
-6.55
5.93
19.70
33.93
47.11
57.10
61.88
60.28
52.82
41.82
30.73
22.97
20.63
23.74
30.35
37.34
41.66
41.37
36.10
26.75
14.93
2.36
-9.33
-18.75
-24.73
-26.52
-24.16
-18.85
-12.76
-8.35
-7.44
-10.36
-15.86
-21.64
-25.62
-26.84
-25.95
-24.82
-25.41
-28.71
-33.89
-38.40
-38.87
-32.65
-19.16
-0.56
18.81
33.94
41.01
38.93
30.01
19.39
13.05
15.75
29.41
52.89
82.77
114.77
144.91
169.97
187.30
194.82
191.66
179.05
160.95
142.79
128.88
119.97
112.90
102.30
83.98
57.59
27.26
-0.19
-19.35
-29.02
-32.25
-33.40
-35.19
-37.40
-38.03
-35.67
-30.67
-25.87
-25.25
-31.99
-46.27
-64.83
-81.57
-90.50
-92.28
-90.29
-88.88
-89.88
-94.39
-101.71
-109.58
-115.14
-116.31
-112.49
-103.55
-89.54
-69.99
-44.34
-12.46
23.91
60.44
91.17
110.96
118.73
118.32
117.16
122.95
140.44
169.24
203.96
236.59
259.82
270.15
268.29
257.92
243.23
227.17
210.69
193.19
173.84
152.75
131.30
111.38
94.23
79.66
66.33
52.62
37.54
21.44
5.81
-7.25
-16.04
-20.01
-19.95
-17.58
-14.77
-12.75
-11.73
-10.93
-9.23
-5.86
-1.04
3.82
6.44
4.50
-3.63
-18.19
-37.99
-61.05
-85.62
-111.11
-138.47
-169.58
-205.73
-246.11
-287.14
-323.31
-349.23
-361.74
-360.84
-348.91
-329.06
-303.60
-274.06
-242.32
-211.58
-186.12
-169.45
-162.35
-162.38
-165.45
-168.86
-173.42
-182.93
-201.28
-228.65
-259.72
-285.03
-294.80
-283.43
-251.82
-206.71
-157.50
-112.28
-75.23
-45.88
-20.86
3.51
29.00
54.52
77.13
94.19
105.35
113.13
122.01
136.11
157.13
183.59
211.65
237.06
257.06
271.23
281.00
287.99
292.36
292.15
284.09
265.66
237.01
201.87
166.68
137.89
119.15
109.37
102.97
92.24
70.59
35.42
-10.82
-61.62
-108.85
-145.29
-166.37
-170.69
-159.61
-136.43
-105.65
-72.36
-41.50
-16.84
0.16
10.98
19.36
29.60
44.30
62.83
81.52
95.31
100.26
95.25
82.11
64.42
45.74
28.18
12.14
-3.13
-18.44
-33.81
-48.31
-60.63
-69.96
-76.83
-83.13
-91.07
-101.67
-113.61
-123.77
-128.99
-128.34
-124.26
-121.40
-123.74
-131.84
-142.05
-148.57
-146.90
-136.47
-120.84
-105.22
-93.57
-86.85
-83.61
-82.22
-82.42
-85.24
-91.43
-99.76
-106.71
-107.94
-100.71
-85.71
-66.86
-49.41
-37.24
-31.16
-29.07
-27.75
-24.98
-20.90
-17.58
-17.23
-20.52
-25.85
-30.30
-31.39
-28.21
-21.48
-12.25
-0.69
14.06
33.09
56.47
82.98
110.65
137.76
163.13
185.50
202.19
208.98
201.63
178.56
143.12
103.35
69.14
47.73
40.41
42.24
45.12
42.26
31.58
16.16
1.48
-8.43
-13.89
-19.36
-30.52
-50.16
-75.57
-99.28
-112.53
-109.78
-91.68
-64.76
-38.09
-18.85
-9.21
-6.16
-3.94
2.51
15.05
31.83
48.63
61.16
66.71
64.87
57.35
47.16
37.66
31.75
30.99
35.29
42.87
51.01
57.21
60.12
59.73
56.80
51.86
44.75
34.95
22.59
9.37
-1.59
-7.21
-6.34
-0.98
4.24
4.21
-3.96
-19.18
-36.86
-51.01
-56.95
-53.28
-41.88
-26.56
-11.19
1.95
12.45
21.09
28.72
35.43
40.50
42.99
42.62
40.24
37.66
36.65
37.98
40.83
43.24
43.25
40.16
35.15
30.81
29.61
32.36
37.47
41.56
41.17
34.73
23.69
12.02
4.27
3.19
8.21
15.76
21.29
21.82
17.57
11.61
7.82
8.48
12.91
18.18
21.10
20.29
16.89
13.50
12.22
13.19
14.55
14.00
10.65
5.79
2.25
2.47
6.78
13.08
17.90
18.32
13.42
4.50
-5.89
-15.38
-22.81
-28.40
-32.96
-37.06
-40.44
-42.24
-41.45
-37.77
-31.85
-25.05
-18.80
-13.83
-9.96
-6.25
-1.75
3.76
9.47
14.03
16.44
16.82
16.47
17.11
19.79
24.06
28.12
29.73
27.55
21.77
13.97
6.14
-0.35
-5.16
-8.69
-11.23
-12.44
-11.43
-7.52
-1.01
6.62
13.21
16.94
17.19
14.77
11.38
8.59
7.17
6.96
7.21
7.29
6.91
6.13
4.97
3.15
0.29
-3.68
-8.12
-11.65
-12.65
-10.12
-4.38
2.97
9.59
13.38
13.27
9.51
3.37
-3.42
-9.33
-13.21
-14.26
-12.20
-7.63
-2.40
0.67
-1.15
-8.98
-21.08
-33.03
-39.52
-36.99
-25.47
-8.64
8.39
22.01
31.99
41.12
52.67
67.61
83.31
94.48
95.55
83.14
57.32
21.47
-18.93
-57.75
-89.30
-109.48
-116.71
-112.53
-101.31
-88.74
-79.68
-76.47
-78.61
-83.81
-89.70
-94.94
-99.01
-101.14
-99.77
-92.89
-79.29
-59.74
-37.24
-15.92
0.76
11.44
17.09
20.00
22.46
25.61
29.39
32.95
35.36
36.12
35.04
32.05
27.06
20.36
12.99
6.89
4.36
7.06
14.80
25.19
34.39
38.89
37.34
31.24
24.34
20.62
22.26
28.48
36.20
41.80
43.01
39.96
34.67
29.70
26.74
26.01
26.63
27.40
27.50
26.65
24.96
22.61
19.72
16.41
12.92
9.73
7.60
7.44
10.30
17.18
28.44
43.21
58.91
71.61
77.26
73.24
59.65
39.38
16.80
-4.05
-20.93
-33.59
-42.97
-49.98
-54.44
-55.32
-51.74
-44.01
-33.84
-23.72
-15.61
-10.28
-7.30
-5.99
-6.35
-9.24
-15.65
-25.42
-36.41
-44.94
-47.04
-40.32
-25.06
-4.21
17.74
36.47
49.14
54.98
54.98
51.27
46.02
40.93
36.97
34.30
32.62
31.46
30.56
30.00
29.99
30.36
30.18
27.76
21.42
10.56
-3.52
-17.79
-28.74
-34.05
-33.71
-30.02
-26.20
-24.83
-26.60
-30.53
-35.06
-39.24
-43.30
-48.09
-54.02
-60.29
-64.84
-65.16
-59.61
-48.30
-33.21
-17.48
-4.11
5.23
10.82
14.36
17.89
22.57
28.16
33.38
36.95
38.44
38.49
38.27
38.38
38.36
36.87
32.68
25.62
16.82
8.20
1.45
-2.88
-5.50
-7.87
-11.30
-16.24
-22.08
-27.43
-30.80
-31.34
-29.40
-26.48
-24.66
-25.61
-29.79
-35.94
-41.65
-44.50
-43.23
-38.38
-31.90
-25.76
-20.83
-16.41
-10.99
-3.86
3.97
10.11
12.24
9.90
5.04
1.30
2.03
8.54
19.45
31.57
41.71
48.01
50.53
50.62
49.83
48.97
47.95
46.19
43.33
39.76
36.63
35.51
37.55
42.68
49.30
54.86
57.04
54.79
48.86
41.15
33.46
26.41
19.35
11.14
1.35
-9.21
-18.84
-25.87
-29.59
-30.58
-30.29
-30.35
-31.68
-34.43
-38.01
-41.44
-43.81
-44.43
-43.15
-40.32
-36.64
-32.89
-29.47
-26.16
-22.43
-17.84
-12.40
-6.75
-1.62
2.38
5.08
6.65
7.25
6.79
4.94
1.39
-3.76
-9.94
-16.24
-21.72
-25.81
-28.42
-29.90
-30.78
-31.39
-31.64
-31.07
-29.14
-25.82
-21.83
-18.53
-17.14
-17.78
-19.10
-18.66
-14.16
-4.81
8.02
21.15
31.01
35.17
33.29
27.02
19.18
12.51
8.77
8.47
11.14
15.95
22.30
30.04
39.22
49.57
60.01
68.73
73.86
74.42
70.99
65.52
60.39
57.01
55.22
53.52
50.28
45.18
39.78
37.03
39.77
49.16
63.83
80.25
94.03
101.49
100.77
92.18
77.75
60.37
43.13
28.83
19.78
17.49
22.27
32.89
46.60
59.68
68.68
71.74
69.26
63.54
57.41
52.70
49.41
46.05
40.90
33.23
23.58
13.13
2.43
-9.33
-23.89
-42.94
-66.87
-94.53
-124.16
-154.95
-188.13
-226.48
-272.31
-324.94
-379.21
-426.37
-456.88
-464.16
-447.22
-410.81
-363.00
-311.77
-262.23
-215.77
-171.25
-127.03
-82.36
-37.51
6.88
50.31
92.33
132.00
167.79
198.05
221.95
239.92
253.36
263.80
272.11
278.69
284.10
289.74
297.75
309.89
326.28
344.67
361.05
371.23
372.56
364.85
350.10
331.46
312.04
294.10
278.84
266.57
257.14
250.27
245.68
243.09
241.95
241.21
239.33
234.51
225.31
211.11
192.38
170.59
147.61
125.14
104.06
84.21
64.63
44.10
21.75
-2.41
-27.44
-51.81
-74.01
-93.28
-109.92
-125.23
-140.91
-158.35
-178.01
-199.20
-220.66
-241.10
-260.04
-278.06
-296.72
-318.15
-344.75
-378.93
-422.57
-476.04
-536.93
-599.38
-654.76
-694.01
-710.80
-703.84
-677.21
-638.50
-595.58
-553.88
-515.44
-479.80
-445.88
-413.35
-382.85
-355.18
-330.33
-307.21
-284.23
-260.28
-235.45
-210.94
-188.63
-170.03
-155.59
-144.49
-135.07
-125.54
-114.81
-102.82
-90.46
-79.11
-69.83
-62.93
-57.74
-53.00
-47.45
-40.40
-32.00
-23.17
-15.08
-8.51
-3.39
1.25
6.86
14.76
25.52
38.69
53.04
67.10
79.99
91.84
103.77
117.34
133.70
152.96
173.99
195.00
214.35
231.38
246.69
261.88
278.73
298.63
322.50
350.92
384.03
420.79
458.05
490.35
511.13
515.10
500.89
472.20
436.81
403.55
378.93
364.96
359.37
357.98
357.20
355.67
353.91
352.37
349.70
342.51
327.26
303.07
273.50
245.76
227.64
223.31
230.82
243.02
251.12
249.20
236.85
218.48
200.14
185.89
175.81
166.75
154.74
137.54
115.72
92.00
69.51
50.14
33.80
18.74
2.40
-17.00
-39.78
-64.75
-89.97
-113.74
-135.32
-154.92
-173.17
-190.58
-207.14
-222.64
-237.07
-250.99
-265.35
-280.95
-297.91
-315.60
-332.97
-349.31
-364.41
-377.97
-388.59
-393.09
-386.82
-365.02
-324.95
-267.53
-197.94
-124.63
-57.05
-3.07
32.91
50.42
51.90
41.19
22.37
-0.83
-24.97
-46.77
-63.15
-71.73
-71.38
-62.69
-47.83
-30.19
-13.87
-3.04
-0.80
-7.48
-19.48
-29.92
-31.44
-20.07
2.02
26.88
44.62
48.58
38.57
20.57
3.43
-5.32
-1.95
13.67
40.13
76.28
121.22
172.63
225.46
272.07
304.59
317.74
310.98
288.38
256.82
223.13
191.84
164.40
139.74
115.86
90.88
63.98
35.09
4.14
-29.37
-66.62
-109.22
-159.21
-218.42
-287.28
-363.30
-440.30
-508.86
-558.78
-582.41
-577.53
-548.13
-502.63
-450.46
-398.60
-350.01
-304.39
-260.07
-215.95
-172.22
-129.66
-88.43
-47.30
-4.33
41.41
88.32
132.19
167.80
191.37
202.76
205.08
203.42
202.23
203.29
205.34
205.71
203.17
199.28
198.09
202.64
213.22
226.76
237.95
241.56
234.67
218.11
195.03
169.54
142.93
115.02
86.34
60.05
41.46
35.58
44.66
64.92
88.13
102.28
97.97
72.85
32.27
-14.01
-56.63
-89.08
-110.28
-107.32
-72.39
-7.72
73.87
156.68
230.14
285.47
326.21
355.22
374.47
383.07
379.63
365.09
341.25
310.24
273.63
233.19
189.70
144.70
98.53
51.54
4.49
-41.64
-86.00
-128.35
-168.12
-205.42
-239.79
-271.65
-301.79
-331.00
-360.22
-390.63
-424.15
-462.57
-507.21
-556.81
-607.08
-650.56
-678.41
-683.48
-663.17
-620.65
-563.21
-499.60
-436.38
-376.53
-319.78
-264.45
-209.33
-154.60
-101.48
-50.92
-2.90
43.85
91.47
142.34
198.29
259.68
324.61
388.70
445.54
488.19
511.21
512.33
492.97
457.28
410.53
357.34
300.83
242.77
183.98
124.65
64.30
1.94
-62.91
-128.69
-190.64
-241.10
-271.68
-276.43
-254.50
-210.45
-152.55
-89.41
-26.94
33.03
91.90
152.07
214.49
277.81
338.72
393.28
438.17
471.07
490.40
495.07
484.63
460.01
424.33
382.78
341.46
305.31
276.54
254.13
234.90
215.42
193.74
169.94
145.59
122.56
102.24
85.36
72.00
62.05
55.32
51.36
49.40
48.43
47.45
45.84
43.39
40.42
37.48
35.14
33.66
33.00
32.85
32.89
32.88
32.92
33.36
34.64
37.18
41.06
46.05
51.64
57.16
62.00
65.75
68.28
69.59
69.77
68.85
66.77
63.35
58.45
51.95
43.87
34.33
23.40
11.14
-2.46
-17.46
-33.77
-51.13
-69.08
-87.01
-104.33
-120.69
-136.06
-150.70
-165.02
-179.35
-193.68
-207.71
-220.94
-232.89
-243.47
-253.09
-262.51
-272.60
-283.94
-296.54
-309.84
-322.95
-335.09
-345.92
-355.67
-364.95
-374.53
-385.13
-397.40
-411.78
-428.15
-445.44
-461.35
-472.66
-476.11
-469.66
-453.40
-429.55
-401.65
-373.26
-346.90
-323.73
-304.04
-287.99
-276.24
-269.70
-268.85
-272.93
-279.56
-285.12
-286.02
-279.91
-266.63
-248.19
-227.92
-209.10
-193.85
-182.66
-174.82
-169.19
-164.98
-161.95
-160.17
-159.51
-159.29
-158.36
-155.55
-150.12
-142.01
-131.79
-120.32
-108.34
-96.17
-83.62
-70.24
-55.59
-39.52
-22.33
-4.62
12.85
29.43
44.78
58.85
71.78
83.72
94.76
104.78
113.54
120.78
126.34
130.20
132.53
133.55
133.56
132.79
131.41
129.60
127.51
125.31
123.17
121.23
119.63
118.38
117.46
116.72
116.03
115.19
114.03
112.37
110.04
106.90
102.78
97.55
91.12
83.41
74.38
64.07
52.59
40.08
26.80
13.03
-0.92
-14.69
-27.93
-40.32
-51.56
-61.37
-69.56
-75.98
-80.53
-83.13
-83.82
-82.62
-79.64
-75.02
-68.98
-61.78
-53.66
-44.96
-35.96
-26.96
-18.20
-9.90
-2.21
4.80
11.10
16.73
21.74
26.26
30.39
34.26
37.96
41.60
45.23
48.90
52.64
56.44
60.30
64.20
68.11
71.95
75.66
79.15
82.30
84.99
87.09
88.48
89.00
88.58
87.11
84.56
80.95
76.34
70.88
64.74
58.13
51.29
44.47
37.90
31.77
26.22
21.35
17.15
13.56
10.44
7.65
5.03
2.46
0.75
0.60
2.16
4.91
7.94
10.46
12.14
13.02
13.35
14.36
17.05
21.80
28.14
35.13
41.89
47.96
53.30
58.12
64.88
75.62
90.88
109.25
128.19
145.37
159.45
170.09
177.66
188.77
208.93
239.72
277.46
315.57
348.22
372.43
387.91
396.16
411.58
446.15
503.64
576.92
652.68
719.19
770.38
805.62
827.72
860.12
922.40
1020.89
1144.48
1272.20
1385.74
1475.83
1541.78
1588.09
1646.13
1742.20
1885.93
2065.41
2256.94
2439.78
2602.42
2739.96
2692.78
2360.36
1738.92
941.24
129.38
-572.99
-1113.63
-1495.48
-1748.77
-1910.23
-1987.12
-1982.91
-1908.26
-1788.53
-1656.85
-1540.84
-1454.15
-1398.39
-1368.35
-1338.21
-1286.65
-1206.04
-1106.50
-1007.94
-927.53
-873.49
-846.28
-842.93
-844.58
-836.62
-813.39
-780.90
-752.21
-739.07
-746.76
-772.98
-809.31
-839.39
-847.29
-823.22
-767.94
-691.50
-607.43
-527.45
-458.39
-390.26
-317.93
-242.73
-171.27
-111.58
-69.04
-44.18
-33.51
-30.29
-28.97
-27.82
-26.04
-23.09
-17.95
-11.11
-2.25
9.43
25.00
45.13
68.45
93.50
118.88
143.42
166.30
187.42
207.25
226.60
245.96
264.64
282.48
300.45
320.67
345.21
374.29
404.58
428.89
437.88
423.10
381.02
314.48
231.62
142.70
56.93
-19.47
-83.01
-131.55
-163.45
-177.50
-174.28
-157.10
-131.66
-104.07
-78.37
-54.79
-30.31
-1.01
34.43
72.69
106.38
127.34
130.99
119.11
99.13
80.56
70.41
70.15
76.10
82.42
84.52
81.07
73.40
63.49
52.45
40.49
28.12
16.97
9.33
6.49
7.33
8.47
5.87
-2.86
-17.15
-34.24
-51.14
-66.05
-78.64
-89.04
-96.87
-100.99
-100.66
-96.73
-91.98
-89.99
-93.04
-100.73
-110.13
-117.48
-120.47
-119.44
-116.75
-114.92
-114.62
-114.30
-111.20
-103.18
-90.03
-73.62
-56.92
-42.51
-31.32
-22.36
-13.11
-0.72
17.07
41.31
71.73
106.88
144.64
182.57
218.25
249.50
274.77
293.47
305.84
312.81
315.25
313.68
308.20
299.13
287.72
276.46
268.77
267.86
275.36
290.32
309.20
326.78
337.81
338.60
328.00
307.49
280.33
250.25
220.28
192.13
166.25
142.57
121.27
102.77
87.55
75.45
65.62
56.73
47.69
38.27
29.03
21.22
16.02
14.09
15.30
18.83
23.57
28.50
33.07
37.21
41.28
45.79
51.14
57.38
64.21
71.03
77.06
81.52
83.85
83.88
81.88
78.50
74.58
70.81
67.36
63.70
58.75
51.21
40.21
25.76
8.92
-8.54
-24.81
-38.99
-51.52
-64.12
-79.10
-98.21
-121.75
-148.30
-175.20
-199.67
-219.98
-236.20
-250.13
-264.70
-283.12
-307.91
-339.82
-376.94
-414.00
-442.62
-452.88
-436.25
-388.93
-314.11
-221.80
-126.02
-40.11
27.52
75.39
107.82
131.41
151.30
168.97
182.60
189.34
187.80
179.29
167.21
155.25
145.37
137.17
128.71
118.18
105.35
91.91
80.73
74.30
73.40
76.60
80.80
82.46
78.94
69.56
55.72
40.32
26.57
16.65
10.74
6.88
1.63
-8.63
-26.17
-51.05
-80.95
-112.16
-141.32
-166.86
-189.70
-212.75
-239.54
-272.66
-312.99
-359.83
-411.45
-464.80
-515.16
-555.93
-580.04
-582.86
-565.63
-536.94
-510.60
-500.12
-512.20
-543.05
-579.52
-604.87
-605.90
-577.83
-524.64
-455.35
-379.13
-301.76
-225.38
-150.15
-76.38
-5.37
61.28
123.65
184.76
249.99
324.22
408.41
497.31
579.54
641.87
674.67
675.87
651.57
613.08
572.20
536.96
509.84
488.12
467.69
446.10
423.52
401.69
381.85
363.45
344.00
320.24
287.92
244.96
192.54
134.27
74.29
15.49
-41.24
-96.56
-151.52
-210.87
-276.44
-345.61
-412.56
-471.61
-520.07
-558.75
-590.66
-619.25
-656.76
-711.46
-784.33
-869.10
-956.15
-1035.79
-1099.28
-1139.29
-1150.67
-1147.33
-1142.63
-1142.85
-1145.39
-1143.96
-1133.79
-1113.24
-1083.06
-1044.34
-1018.00
-1017.50
-1041.90
-1077.34
-1108.01
-1124.77
-1126.95
-1118.91
-995.87
-715.58
-308.86
135.42
531.64
837.60
1051.50
1190.20
1265.99
1306.54
1311.92
1282.32
1227.15
1164.96
1113.57
1084.68
1079.69
1089.92
1105.14
1101.65
1066.03
1000.21
917.92
832.98
755.23
687.74
629.50
579.77
530.16
476.17
419.01
368.48
325.14
289.38
259.44
232.66
208.25
184.62
162.56
144.67
133.58
127.12
125.78
130.06
140.93
155.45
175.37
203.67
242.61
292.34
347.67
408.24
473.80
541.74
586.37
586.50
534.59
442.88
354.20
277.49
215.66
169.07
132.23
102.75
81.44
68.83
64.32
65.35
64.70
59.95
49.67
33.01
10.82
-12.46
-32.28
-45.70
-52.90
-58.81
-65.34
-73.82
-84.90
-97.81
-109.54
-117.04
-118.52
-114.28
-107.66
-100.19
-93.98
-90.34
-88.91
-87.58
-84.21
-77.71
-68.48
-58.57
-49.23
-44.79
-47.99
-58.26
-72.17
-86.23
-98.47
-108.51
-117.08
-124.70
-138.81
-164.03
-198.78
-236.59
-271.13
-299.11
-320.05
-334.82
-344.71
-362.27
-395.54
-442.77
-494.16
-539.95
-575.08
-599.02
-613.49
-621.13
-639.48
-680.46
-743.25
-816.54
-888.64
-953.65
-1011.27
-1063.78
-1021.87
-846.75
-570.59
-273.17
-19.15
169.10
298.39
384.75
443.63
486.06
503.96
491.70
454.08
404.79
356.62
316.30
285.46
265.26
258.14
255.76
252.53
248.32
246.51
246.39
247.47
246.94
243.76
239.12
227.86
206.88
177.36
144.44
113.44
87.98
69.18
56.95
49.97
42.40
30.02
11.73
-10.07
-31.63
-49.39
-61.17
-65.41
-61.13
-53.66
-46.53
-41.80
-39.67
-39.08
-38.20
-35.39
-29.37
-19.88
-7.95
5.00
17.00
26.58
33.48
38.92
44.85
53.21
64.85
78.85
93.32
105.63
113.96
118.27
120.55
123.84
130.96
143.14
159.70
179.15
199.87
220.54
239.76
255.24
263.81
262.88
252.67
237.57
225.02
221.50
228.51
241.03
250.13
248.70
236.57
221.48
214.81
224.79
251.29
285.91
316.93
335.99
342.08
340.74
339.44
342.18
346.96
347.02
335.17
307.93
267.48
220.60
175.67
138.98
112.27
92.70
74.42
51.40
19.92
-20.03
-65.62
-113.50
-161.68
-209.91
-258.05
-304.26
-344.15
-372.26
-385.16
-383.99
-373.98
-361.21
-348.72
-334.67
-314.67
-286.60
-254.79
-229.89
-223.60
-241.38
-277.68
-317.07
-340.99
-336.42
-301.11
-243.12
-175.56
-109.37
-48.99
7.66
65.78
129.69
200.68
276.77
354.04
427.76
493.22
545.73
581.14
596.80
592.57
570.83
535.88
492.64
445.45
397.69
351.84
309.86
272.94
241.12
213.01
186.12
157.96
127.25
94.69
62.60
34.00
11.29
-4.73
-15.05
-21.84
-27.47
-33.49
-40.21
-46.78
-51.79
-54.16
-53.66
-51.17
-48.28
-46.73
-47.70
-51.54
-58.13
-66.82
-76.73
-87.21
-98.22
-110.35
-124.30
-140.46
-158.61
-178.54
-199.81
-222.13
-245.42
-269.64
-294.86
-320.79
-346.96
-373.40
-402.03
-435.02
-472.75
-512.40
-548.22
-573.63
-583.83
-577.65
-557.54
-530.19
-500.39
-468.07
-428.91
-378.33
-315.30
-242.88
-166.01
-88.38
-16.07
48.75
107.63
162.83
212.73
250.88
269.81
265.41
239.34
189.77
119.42
36.69
-46.77
-121.62
-184.42
-236.18
-279.66
-317.91
-365.51
-434.39
-527.56
-637.82
-753.21
-862.33
-955.20
-1023.79
-993.57
-829.69
-557.51
-250.80
20.16
222.93
358.67
444.21
497.74
532.30
543.79
527.76
487.83
436.69
388.92
352.99
330.69
319.53
315.47
306.44
284.57
250.81
213.39
183.52
167.66
166.88
178.66
199.34
219.97
234.11
240.78
241.58
241.05
241.71
243.58
245.25
245.39
240.46
228.35
209.76
187.85
166.63
148.41
133.77
122.04
112.58
103.63
93.70
82.22
69.61
56.89
44.71
34.93
26.33
18.46
10.83
2.78
-6.31
-16.80
-28.46
-40.40
-51.75
-61.08
-67.11
-69.80
-70.42
-70.76
-72.30
-75.73
-80.23
-84.65
-86.25
-82.81
-74.42
-63.46
-53.18
-46.04
-43.03
-42.66
-42.72
-38.24
-25.36
-3.84
23.28
52.35
81.93
107.39
129.04
148.86
172.91
206.35
250.59
303.52
361.14
418.68
470.29
509.83
508.74
451.68
346.13
219.79
103.60
16.21
-39.22
-69.88
-85.71
-95.02
-98.39
-93.97
-82.65
-69.07
-59.65
-59.58
-71.31
-94.24
-126.22
-161.69
-190.14
-206.64
-211.75
-209.48
-204.42
-199.92
-197.47
-196.99
-195.51
-189.85
-179.32
-165.31
-150.27
-136.63
-126.22
-119.93
-117.76
-118.28
-119.97
-122.46
-125.11
-125.84
-120.98
-106.59
-80.83
-45.61
-6.17
30.77
59.25
76.87
85.14
87.68
87.73
86.37
82.91
76.41
67.56
58.63
52.64
51.90
56.93
66.75
79.28
92.10
102.64
108.39
106.99
97.46
81.11
61.33
42.44
27.78
18.33
12.83
8.93
4.53
-1.13
-7.78
-15.37
-25.12
-38.54
-58.39
-85.74
-117.98
-148.85
-169.84
-172.90
-154.09
-115.40
-64.31
-11.97
29.93
54.73
59.82
47.50
23.86
-3.37
-27.19
-42.84
-48.83
-46.34
-37.92
-26.46
-13.96
-1.31
11.52
23.41
33.32
40.44
45.01
48.50
52.74
59.18
68.12
78.34
87.64
94.03
96.46
95.37
92.47
89.85
89.04
90.38
92.81
94.31
92.82
87.22
77.13
63.44
47.97
32.51
18.13
4.97
-7.53
-20.05
-32.75
-44.96
-55.70
-63.38
-67.05
-66.85
-64.22
-61.77
-62.81
-70.49
-84.58
-104.48
-125.52
-140.34
-141.96
-126.56
-95.42
-54.50
-12.08
23.72
46.26
51.57
37.96
6.78
-36.39
-81.51
-116.51
-131.23
-121.54
-91.50
-50.94
-10.54
22.48
45.96
61.45
69.96
70.99
63.89
50.19
35.13
25.13
23.89
29.58
34.51
28.79
5.58
-35.86
-89.60
-144.44
-189.81
-218.29
-226.82
-216.68
-192.59
-160.95
-128.42
-100.76
-78.54
-60.34
-43.42
-25.01
-3.69
19.79
44.25
68.67
91.83
114.24
135.63
154.59
169.01
176.83
176.90
170.10
159.06
147.31
138.25
133.25
131.68
131.36
129.55
124.40
115.71
104.98
94.69
87.35
84.14
84.96
88.90
94.33
98.89
99.51
92.76
76.10
49.54
16.15
-18.46
-48.19
-68.80
-79.89
-83.74
-83.67
-82.00
-79.24
-74.62
-67.66
-59.14
-51.09
-46.00
-45.52
-50.05
-58.46
-68.16
-75.35
-76.34
-68.49
-51.84
-29.81
-8.30
6.38
9.82
2.03
-13.40
-31.41
-47.74
-60.61
-70.46
-78.42
-84.91
-88.92
-88.49
-82.05
-69.42
-51.80
-31.26
-10.23
9.53
27.07
41.74
54.18
65.15
75.17
84.40
92.55
98.99
102.98
103.99
102.57
99.25
95.26
92.00
90.50
91.21
94.12
99.00
105.21
111.36
114.88
112.34
100.80
79.48
50.77
19.68
-8.21
-29.14
-42.51
-50.51
-55.87
-60.20
-63.18
-63.57
-60.96
-57.02
-55.11
-58.43
-67.89
-81.22
-93.65
-100.45
-98.86
-89.90
-77.84
-68.15
-65.26
-70.91
-83.75
-99.66
-113.06
-117.91
-109.18
-84.45
-45.63
0.01
40.93
64.82
64.25
40.55
4.17
-29.36
-46.15
-40.04
-14.79
18.89
49.06
68.91
78.50
82.56
86.56
93.39
102.55
110.08
114.20
112.58
104.86
91.92
74.85
54.82
33.31
11.96
-5.83
-18.15
-25.02
-26.78
-24.56
-18.41
-9.72
-1.57
1.85
-3.35
-19.59
-46.89
-82.34
-118.39
-148.18
-165.24
-165.03
-146.66
-113.96
-74.77
-38.19
-10.94
4.79
10.98
12.05
11.96
12.35
12.38
10.32
5.41
-1.13
-6.84
-9.83
-9.61
-7.35
-5.12
-4.93
-7.67
-12.84
-18.91
-24.15
-27.60
-29.12
-29.40
-29.44
-29.95
-30.89
-31.63
-30.80
-27.21
-20.22
-9.84
3.26
17.95
32.92
46.88
58.62
67.06
71.46
71.64
68.11
62.03
54.89
48.12
42.76
39.05
36.55
34.62
33.02
32.21
33.25
37.28
44.78
55.15
66.29
75.38
79.81
78.30
71.52
62.00
53.21
48.76
51.47
61.94
77.92
94.59
105.85
106.70
95.55
75.47
51.94
34.21
31.28
48.19
83.76
130.60
177.26
211.85
225.46
214.34
180.44
129.34
68.04
2.92
-61.45
-122.58
-179.71
-232.86
-282.30
-327.94
-369.22
-404.63
-431.41
-445.72
-443.58
-422.47
-382.46
-326.24
-258.62
-185.82
-114.79
-52.47
-4.97
23.97
34.58
31.84
24.25
20.87
27.46
44.03
65.19
83.25
92.22
90.50
80.94
68.62
57.77
49.44
41.33
29.42
10.70
-14.76
-43.07
-67.84
-82.94
-85.11
-75.38
-58.43
-40.07
-24.16
-10.70
3.79
23.94
52.43
87.97
125.24
157.19
178.08
185.90
183.01
174.79
166.90
162.74
162.13
161.58
156.19
141.96
117.74
86.09
52.60
24.59
9.12
11.30
32.53
69.42
113.67
153.72
177.77
177.33
149.73
98.72
33.12
-36.05
-98.52
-146.52
-175.06
-181.65
-166.21
-131.54
-83.73
-31.40
16.07
50.84
68.81
70.28
59.16
40.68
19.24
-2.80
-24.93
-45.39
-61.04
-68.79
-67.45
-58.11
-43.10
-24.86
-5.60
13.35
30.76
45.61
57.14
65.08
69.83
72.29
73.61
74.26
74.45
73.34
69.87
63.33
53.69
41.70
28.66
16.08
4.59
-5.08
-13.55
-21.85
-30.58
-39.77
-49.17
-58.93
-65.00
-65.90
-54.37
-27.40
13.65
63.76
116.82
167.87
214.17
254.76
289.03
316.65
337.50
350.75
356.23
354.76
347.79
336.42
320.77
299.18
272.68
241.29
203.89
161.00
114.92
68.78
24.96
-15.76
-54.29
-91.75
-129.71
-172.09
-220.06
-271.26
-321.13
-365.61
-402.77
-432.78
-456.39
-474.59
-492.99
-514.27
-536.79
-556.30
-569.46
-576.00
-578.20
-579.64
-584.43
-602.98
-640.82
-695.05
-754.79
-806.11
-837.29
-841.64
-819.11
-731.59
-571.86
-363.96
-150.75
32.18
170.32
265.58
326.81
362.85
380.79
380.12
362.75
334.80
304.86
279.70
261.06
249.45
244.61
246.19
249.65
252.75
256.49
263.86
276.98
292.33
306.24
316.23
320.85
317.37
305.16
286.29
264.49
242.59
220.47
195.54
168.62
135.54
94.55
48.95
5.81
-27.59
-47.63
-56.07
-58.12
-59.10
-63.00
-70.35
-79.17
-86.99
-92.40
-95.40
-96.14
-97.39
-98.43
-97.88
-93.84
-85.53
-73.80
-60.72
-48.44
-37.94
-28.62
-18.03
-4.02
15.15
39.66
68.06
97.82
126.21
151.45
172.99
191.68
208.87
226.79
248.27
275.81
310.24
349.08
386.76
415.23
426.71
416.46
385.16
338.72
285.52
233.24
186.45
147.27
115.61
90.17
68.36
46.36
19.63
-15.70
-60.55
-111.35
-158.85
-192.00
-202.40
-187.84
-152.58
-104.89
-53.55
-5.05
29.17
41.46
30.53
1.99
-35.46
-74.39
-110.31
-141.17
-165.98
-184.74
-196.70
-201.50
-200.02
-194.46
-187.03
-179.78
-173.91
-169.12
-164.10
-156.12
-142.76
-123.16
-98.48
-70.55
-41.99
-15.37
8.21
28.74
47.81
67.57
90.06
116.83
149.58
188.34
226.70
257.55
273.40
269.02
243.24
199.72
140.35
74.38
13.43
-33.85
-64.46
-80.88
-87.35
-87.06
-81.69
-72.40
-60.08
-46.97
-35.91
-28.42
-24.38
-22.08
-19.20
-14.10
-6.35
3.77
14.80
24.80
32.61
38.06
42.05
45.83
50.25
55.45
60.99
65.87
68.92
69.39
67.41
64.33
61.66
60.36
61.07
63.49
67.05
71.04
74.74
77.88
81.02
84.76
89.38
95.13
101.37
107.44
112.75
116.18
116.92
115.35
111.15
102.52
92.45
81.34
69.05
55.49
39.14
19.50
-0.12
-17.30
-31.48
-42.30
-50.58
-57.25
-63.15
-72.13
-86.16
-99.70
-109.29
-115.29
-118.33
-120.15
-122.66
-127.49
-140.93
-166.17
-194.48
-220.18
-243.39
-264.25
-283.69
-303.16
-324.86
-358.59
-411.53
-474.83
-541.04
-605.78
-660.60
-696.13
-705.82
-645.82
-503.30
-358.42
-245.99
-155.39
-82.33
-20.33
37.29
95.90
159.19
222.70
283.48
351.11
427.31
502.93
567.59
612.65
633.82
632.52
609.38
568.71
524.74
485.40
450.43
418.67
389.19
361.37
334.55
304.26
266.99
226.82
187.08
149.01
114.96
87.00
65.56
48.83
31.66
9.13
-18.98
-51.69
-87.41
-123.11
-155.82
-184.06
-208.58
-232.35
-259.08
-291.15
-330.31
-376.99
-428.58
-478.75
-518.32
-537.75
-530.85
-498.35
-448.55
-394.42
-348.26
-316.18
-295.76
-277.97
-252.35
-212.37
-158.28
-96.25
-35.03
18.07
59.31
88.46
107.40
118.74
125.50
131.33
140.52
156.86
181.15
209.65
234.21
245.12
235.90
207.35
168.35
132.99
114.71
120.94
150.33
193.90
239.42
276.00
297.08
300.62
287.90
262.40
229.74
198.03
177.38
177.48
203.42
252.47
313.46
370.27
407.83
417.78
401.05
366.25
324.85
286.29
255.18
231.59
213.51
199.03
187.36
178.61
172.71
168.95
166.10
163.31
160.67
159.43
161.46
168.30
180.40
196.72
214.91
232.02
245.30
252.83
253.60
247.24
233.55
212.21
182.70
144.71
98.67
46.04
-10.62
-68.15
-123.51
-174.35
-219.48
-258.73
-292.46
-321.10
-344.85
-363.61
-377.38
-386.63
-392.61
-397.16
-402.32
-409.73
-420.14
-433.42
-448.58
-464.33
-479.48
-493.27
-505.69
-517.90
-532.33
-552.14
-579.62
-613.98
-650.12
-678.82
-689.56
-674.39
-631.59
-566.54
-489.53
-411.88
-341.80
-282.50
-232.80
-189.37
-148.79
-108.60
-67.28
-24.22
19.60
60.96
94.45
113.99
115.33
98.11
66.57
27.78
-11.25
-46.35
-77.45
-108.00
-142.76
-185.03
-234.42
-286.27
-332.82
-365.82
-379.41
-372.29
-347.93
-312.92
-274.13
-236.52
-202.44
-172.27
-145.98
-124.12
-107.68
-97.01
-90.98
-87.02
-82.19
-74.48
-63.68
-51.24
-39.63
-31.02
-26.22
-24.50
-23.90
-22.09
-17.27
-8.86
2.41
14.93
26.93
37.19
45.43
52.38
59.46
68.14
79.38
93.19
108.59
123.89
137.25
147.38
154.11
158.47
162.38
167.97
176.73
188.90
203.37
218.06
230.79
240.21
246.24
250.41
255.78
266.18
284.85
312.85
347.32
380.96
403.35
403.91
375.60
317.55
235.69
141.05
46.70
-35.74
-98.24
-137.07
-152.33
-146.95
-125.71
-94.20
-58.08
-21.95
11.31
40.57
65.66
86.41
101.91
110.64
111.42
104.57
92.32
78.15
65.49
56.30
50.74
48.24
48.83
53.89
65.85
86.60
115.85
150.66
186.17
217.95
243.92
265.45
286.63
312.43
346.03
386.82
430.00
468.66
496.82
512.21
517.10
516.45
514.32
511.12
503.10
484.88
453.14
409.22
358.96
309.90
267.74
233.95
206.00
179.80
152.42
123.61
95.30
70.17
49.66
33.26
18.41
1.90
-18.78
-44.33
-73.55
-104.18
-133.95
-161.85
-188.65
-216.45
-247.85
-285.20
-330.22
-383.79
-445.49
-512.81
-580.55
-640.88
-684.96
-705.61
-699.88
-670.29
-623.74
-569.00
-513.67
-462.33
-416.44
-375.54
-338.64
-305.06
-274.26
-245.42
-217.32
-188.54
-158.06
-125.59
-91.45
-56.26
-20.32
16.44
54.25
93.34
133.57
174.39
215.20
255.54
295.29
334.47
373.24
411.91
450.62
488.96
525.18
555.46
574.17
574.98
553.14
507.83
443.68
370.32
300.14
244.56
210.21
196.78
197.19
200.36
195.39
175.08
137.43
84.81
22.00
-45.78
-113.24
-173.87
-219.52
-242.07
-236.83
-206.11
-159.74
-112.20
-76.92
-60.90
-63.43
-78.16
-97.61
-116.89
-134.20
-148.95
-159.15
-160.22
-146.79
-116.00
-70.31
-18.21
27.67
54.53
53.76
24.45
-25.47
-81.22
-125.95
-146.88
-140.01
-111.22
-73.20
-38.99
-16.10
-3.82
5.16
19.45
44.18
78.06
114.49
145.14
163.48
167.07
157.56
139.43
118.40
99.98
88.38
85.86
92.22
104.69
118.73
129.03
131.52
124.57
109.66
90.57
71.77
56.65
46.25
39.34
33.73
27.65
20.54
13.07
6.35
1.43
-0.80
0.33
5.12
12.70
20.63
25.32
23.89
16.46
7.20
2.82
9.15
27.37
52.60
75.91
88.53
86.38
72.06
52.97
37.40
30.68
33.74
44.38
59.50
76.96
95.53
113.45
127.08
130.97
120.05
92.57
52.00
6.93
-31.68
-54.02
-54.60
-33.73
3.38
48.55
93.06
129.67
153.95
164.44
162.17
149.49
129.16
103.93
76.26
48.37
22.20
-0.77
-19.99
-36.07
-50.82
-66.40
-84.47
-105.48
-128.43
-151.49
-172.93
-192.26
-210.48
-230.02
-254.19
-285.95
-326.46
-373.88
-422.78
-465.13
-492.43
-498.49
-481.55
-444.69
-394.54
-338.99
-284.45
-234.78
-191.32
-153.95
-122.24
-95.73
-73.97
-56.38
-42.35
-31.65
-24.45
-20.69
-19.23
-17.64
-13.10
-4.26
7.31
16.89
18.91
10.05
-8.37
-30.43
-48.25
-55.83
-51.63
-38.68
-22.08
-6.08
7.49
19.05
29.40
37.84
42.05
39.16
27.87
9.78
-10.97
-28.97
-39.74
-41.52
-35.74
-26.40
-18.19
-14.54
-16.25
-21.26
-25.58
-25.48
-19.12
-7.37
7.26
22.41
37.24
52.48
68.85
85.10
97.36
100.62
91.78
72.24
48.15
27.91
17.78
18.23
23.40
23.98
12.80
-10.55
-38.54
-58.82
-60.56
-40.76
-6.40
28.25
48.72
47.24
25.69
-6.48
-38.09
-62.06
-77.43
-87.37
-94.82
-99.57
-98.48
-88.33
-69.02
-44.81
-22.73
-9.15
-6.70
-13.12
-22.37
-27.25
-22.81
-8.70
10.26
25.69
29.67
18.27
-6.45
-37.19
-64.86
-82.74
-88.56
-84.41
-74.14
-60.63
-44.89
-26.72
-6.47
13.55
29.52
37.39
34.87
22.31
2.73
-19.06
-37.71
-48.91
-50.70
-44.22
-33.03
-21.84
-14.39
-11.70
-12.02
-12.12
-9.10
-1.92
8.72
21.08
33.63
45.95
58.77
72.85
87.82
101.49
110.30
110.91
102.12
86.13
67.63
51.34
39.18
29.12
16.88
-0.92
-23.69
-46.34
-61.84
-65.32
-56.85
-41.22
-24.77
-11.88
-3.21
3.43
10.68
19.63
29.73
39.95
50.44
62.62
78.02
96.68
116.17
131.63
137.04
127.14
99.67
56.97
6.49
-40.33
-71.51
-78.93
-61.85
-27.68
11.27
43.07
61.06
65.78
62.82
58.38
56.03
56.00
57.48
61.14
69.45
84.79
105.98
126.87
138.21
132.47
108.83
75.15
45.02
31.46
40.19
66.45
97.10
117.25
118.24
102.20
81.04
70.42
81.55
115.42
162.65
208.65
241.53
257.88
263.19
267.46
278.46
296.73
315.73
325.97
321.13
301.85
275.14
249.98
232.04
220.80
210.28
193.12
165.09
127.45
86.31
49.28
21.89
5.28
-3.72
-10.76
-21.19
-38.04
-61.35
-88.78
-117.22
-144.28
-169.25
-193.23
-218.23
-246.23
-278.73
-316.63
-360.15
-408.42
-458.50
-504.80
-539.39
-553.76
-541.20
-499.14
-430.22
-342.17
-246.09
-154.34
-78.15
-25.60
-0.66
-2.98
-29.16
-74.00
-131.65
-195.75
-258.71
-311.55
-344.97
-352.08
-331.35
-287.87
-231.80
-174.82
-125.69
-87.54
-58.28
-32.98
-7.04
21.87
53.72
87.48
122.09
156.37
188.71
216.62
237.20
248.62
252.58
254.73
263.55
285.58
321.13
363.46
401.20
423.19
423.16
402.29
366.98
325.81
284.22
242.98
200.60
156.87
114.45
78.08
52.67
39.63
36.70
37.09
31.84
13.67
-20.74
-71.46
-136.92
-214.30
-303.31
-391.42
-458.83
-491.02
-487.19
-457.54
-416.11
-379.33
-349.63
-326.01
-305.35
-285.88
-268.05
-252.93
-240.88
-230.79
-220.46
-206.85
-189.14
-167.64
-145.06
-125.54
-112.51
-106.73
-106.32
-107.96
-107.64
-103.28
-94.08
-81.28
-67.53
-55.46
-46.43
-40.40
-36.44
-33.03
-29.58
-25.95
-22.73
-20.91
-21.31
-23.96
-28.17
-32.78
-36.47
-38.57
-38.81
-37.40
-34.94
-32.06
-29.25
-26.69
-24.45
-22.57
-21.18
-20.42
-20.36
-20.94
-21.98
-23.06
-23.70
-23.45
-21.92
-18.84
-14.14
-7.94
-0.60
7.45
15.68
23.45
30.25
35.64
39.37
41.31
41.52
40.25
37.80
34.47
30.56
26.32
22.00
17.68
13.44
9.33
5.39
1.57
-2.08
-5.50
-8.63
-11.30
-13.44
-14.86
-15.45
-15.21
-14.18
-12.50
-10.34
-7.94
-5.56
-3.41
-1.65
-0.47
0.06
-0.00
-0.58
-1.51
-2.59
-3.55
-4.14
-4.24
-3.79
-2.79
-1.29
0.53
2.49
4.47
6.36
8.06
9.55
10.89
12.11
13.25
14.32
15.40
16.53
17.72
19.09
20.71
22.69
25.03
27.68
30.58
33.66
36.83
40.07
43.48
47.17
51.14
55.26
59.31
63.00
66.04
68.38
70.26
72.22
74.93
78.95
84.57
91.64
99.63
107.94
116.21
124.57
133.57
144.06
156.78
171.90
188.83
206.46
223.50
239.17
253.62
267.99
284.05
303.32
326.29
351.87
377.50
399.85
415.70
422.70
419.65
406.43
383.95
354.18
320.15
285.77
254.88
229.96
211.05
195.65
179.96
161.00
138.23
113.95
91.80
74.46
62.10
52.12
41.00
26.57
9.34
-7.66
-20.58
-27.26
-28.48
-27.55
-28.28
-32.46
-38.61
-42.54
-39.77
-28.44
-10.96
6.78
18.26
19.78
12.28
0.90
-7.97
-10.23
-6.03
0.60
4.70
3.65
-1.30
-5.76
-5.03
2.66
14.67
25.03
27.65
20.07
4.83
-11.46
-21.58
-21.63
-13.11
-1.90
5.15
4.29
-3.19
-12.01
-16.29
-13.38
-5.65
0.87
0.23
-9.58
-25.27
-39.70
-45.85
-40.87
-27.51
-12.64
-3.23
-2.47
-8.43
-15.59
-18.47
-15.16
-8.44
-4.08
-7.24
-19.05
-35.88
-50.99
-58.22
-55.37
-45.43
-35.06
-30.92
-36.21
-49.10
-63.72
-73.25
-73.45
-64.56
-50.99
-38.63
-31.65
-30.68
-32.76
-33.55
-30.23
-23.19
-15.90
-12.66
-15.77
-24.04
-33.21
-38.28
-36.57
-29.28
-20.94
-16.67
-19.04
-26.65
-34.53
-36.99
-30.81
-17.09
-0.83
11.94
17.23
15.20
9.85
6.58
8.86
16.19
24.28
27.83
23.77
13.13
0.70
-7.78
-9.05
-4.25
1.78
3.46
-2.12
-13.42
-25.16
-31.23
-28.18
-17.07
-3.02
7.84
11.60
8.48
2.61
-0.54
2.52
11.21
21.06
26.48
24.10
14.78
3.46
-3.56
-2.11
7.60
21.12
32.49
37.63
36.55
33.32
33.46
40.65
54.31
69.69
80.48
82.53
76.03
65.78
58.49
59.09
68.14
81.52
93.08
98.11
95.89
89.92
85.55
86.44
92.25
98.76
100.72
95.42
84.79
74.74
72.00
79.98
96.71
115.89
130.84
138.48
140.96
143.77
151.49
164.21
176.62
180.56
169.30
140.95
98.53
47.95
-5.29
-58.21
-109.99
-160.27
-207.18
-247.11
-276.27
-292.71
-298.02
-297.22
-296.78
-301.92
-313.95
-329.33
-341.22
-342.38
-328.72
-301.41
-266.52
-232.40
-205.90
-189.50
-181.05
-175.81
-169.72
-161.92
-154.53
-150.55
-150.60
-151.57
-147.92
-134.88
-111.55
-81.98
-53.09
-31.17
-18.63
-13.23
-10.03
-3.95
7.56
23.74
41.60
57.50
69.15
76.33
80.49
83.86
88.22
93.66
98.43
99.50
94.44
83.05
68.01
54.10
45.80
44.78
48.80
52.68
51.34
42.72
29.20
16.68
11.54
17.22
32.51
52.07
69.62
81.13
86.66
90.16
96.73
109.61
128.30
148.88
166.56
178.44
185.12
189.97
196.65
206.18
215.85
220.07
213.95
196.27
170.74
144.51
124.12
111.72
103.64
92.33
71.13
38.39
-1.12
-38.43
-65.24
-78.35
-81.05
-81.06
-85.69
-97.69
-113.99
-127.53
-131.57
-123.55
-106.29
-86.14
-68.85
-56.37
-45.89
-31.99
-10.43
18.59
49.42
72.90
80.53
68.10
37.08
-6.38
-54.90
-103.25
-149.96
-196.75
-245.64
-296.18
-344.18
-382.57
-404.36
-406.02
-389.20
-360.16
-326.62
-294.32
-264.99
-236.37
-204.88
-168.74
-129.71
-92.63
-62.82
-43.10
-32.06
-24.75
-15.32
-0.08
20.51
42.20
59.82
70.37
74.97
78.49
86.52
101.62
121.32
138.99
147.55
143.63
129.54
112.35
99.88
96.26
99.85
104.39
103.26
93.29
76.57
59.03
46.49
41.08
40.01
37.51
28.83
13.43
-4.54
-18.50
-23.52
-19.43
-11.03
-5.46
-7.77
-18.02
-31.07
-39.31
-37.02
-23.70
-4.54
12.15
19.48
15.45
3.68
-8.54
-14.50
-11.53
-2.18
7.56
12.24
9.97
3.49
-1.69
-0.89
6.67
17.28
24.66
23.78
13.89
-0.96
-13.73
-18.21
-12.42
0.20
12.52
17.62
12.40
-0.80
-15.37
-24.35
-24.33
-17.28
-9.44
-7.23
-13.45
-25.72
-37.72
-43.31
-40.34
-31.97
-24.68
-23.93
-30.92
-41.92
-50.73
-52.73
-47.92
-40.84
-37.86
-43.19
-56.29
-72.51
-85.61
-91.24
-89.03
-82.16
-75.10
-70.76
-69.07
-67.22
-61.77
-51.22
-37.34
-24.53
-17.59
-18.64
-25.53
-32.31
-31.09
-16.18
13.13
52.11
92.70
127.45
152.82
170.30
184.98
203.21
227.31
253.71
274.61
282.75
275.82
258.26
239.11
227.27
229.54
245.32
267.70
287.61
298.77
300.27
295.65
289.17
282.77
279.87
281.26
286.87
296.98
313.23
337.72
370.64
407.98
441.72
468.25
484.27
487.84
478.29
456.73
425.95
389.21
348.87
274.10
151.94
-10.71
-187.48
-347.74
-471.99
-556.02
-605.98
-631.40
-645.83
-652.39
-650.92
-639.76
-617.67
-584.13
-539.53
-484.10
-422.37
-361.85
-305.17
-253.51
-206.73
-164.72
-127.95
-96.91
-71.33
-49.89
-29.78
-4.29
31.17
76.64
126.96
174.16
211.29
235.18
247.15
252.14
257.90
269.78
288.20
308.13
321.70
321.79
305.01
272.78
230.20
184.01
139.32
98.21
60.35
24.45
-10.25
-43.61
-75.14
-104.71
-133.09
-162.14
-194.01
-230.12
-269.91
-310.05
-345.49
-371.47
-385.89
-390.64
-390.74
-391.71
-396.42
-403.18
-406.88
-402.06
-386.32
-361.95
-334.39
-309.28
-289.12
-272.28
-254.79
-233.34
-207.74
-181.05
-157.44
-139.50
-126.47
-114.84
-100.95
-83.71
-65.53
-50.96
-43.24
-42.04
-43.03
-39.95
-28.50
-9.11
12.85
29.83
36.46
32.39
22.54
14.49
14.17
22.66
35.88
47.18
51.57
48.41
41.75
37.97
41.76
53.47
69.08
82.66
90.46
93.00
94.84
101.59
115.90
135.06
151.69
157.39
147.68
124.55
95.93
71.68
58.37
55.94
58.13
56.51
45.93
27.42
7.75
-4.72
-5.30
3.75
13.91
14.70
-0.59
-31.31
-69.58
-104.09
-125.69
-131.24
-123.86
-109.86
-93.98
-76.90
-55.71
-27.33
7.52
42.87
69.69
80.59
74.43
57.30
39.83
31.54
35.85
48.56
60.51
63.10
53.56
36.35
20.58
14.80
22.08
38.35
54.75
62.63
58.29
44.51
28.63
18.17
16.56
21.44
26.32
24.42
12.75
-6.23
-25.83
-38.35
-38.65
-26.32
-5.08
19.42
42.53
62.26
79.48
96.31
114.18
132.42
148.23
158.18
160.53
156.82
152.11
152.88
163.64
183.82
207.03
224.18
228.85
221.79
211.72
211.10
228.89
264.85
308.54
344.07
357.81
344.31
307.65
257.85
205.15
155.34
108.98
63.28
15.54
-34.91
-86.26
-135.25
-179.35
-217.90
-252.51
-285.85
-319.53
-352.40
-379.71
-394.54
-391.14
-368.37
-331.41
-290.39
-256.34
-236.59
-232.02
-237.35
-244.75
-247.85
-244.43
-236.06
-225.26
-212.59
-195.10
-167.85
-127.67
-77.00
-24.76
16.68
37.59
35.80
18.52
-1.10
-11.18
-7.12
6.61
20.02
24.63
18.28
6.23
-2.52
-0.95
12.16
32.68
54.74
74.92
94.00
115.65
143.08
175.87
208.90
233.95
243.38
233.52
205.79
165.75
120.36
74.97
31.61
-10.90
-55.50
-104.57
-158.58
-215.21
-269.93
-317.97
-356.01
-383.26
-401.07
-410.87
-412.49
-403.42
-380.18
-341.47
-291.07
-237.92
-193.05
-164.17
-151.54
-147.35
-139.92
-120.02
-85.76
-43.17
-2.15
29.52
50.29
65.24
82.79
109.56
146.65
189.64
231.51
266.98
295.37
320.72
348.88
383.08
420.85
454.13
472.85
470.09
445.73
406.88
364.42
327.52
299.41
276.49
251.55
218.76
177.18
131.47
89.03
55.72
32.70
16.13
-0.03
-20.30
-45.13
-70.92
-92.45
-106.34
-113.43
-118.44
-127.17
-142.45
-162.12
-179.15
-185.43
-176.29
-153.61
-125.30
-101.14
-87.31
-83.47
-83.18
-78.24
-64.11
-42.72
-21.41
-8.38
-7.54
-16.41
-27.42
-32.48
-27.85
-16.24
-5.25
-2.60
-11.33
-27.79
-42.95
-46.77
-33.40
-4.05
33.64
69.72
97.12
114.46
125.98
137.87
153.66
171.66
185.70
189.35
180.24
161.52
140.23
123.16
112.86
106.19
96.04
74.79
38.01
-14.02
-76.25
-140.75
-199.39
-246.23
-278.92
-298.28
-306.60
-305.86
-296.47
-277.75
-250.04
-216.27
-181.86
-152.46
-130.70
-114.79
-99.53
-80.00
-54.91
-27.70
-4.37
10.83
18.84
25.96
41.06
70.91
115.98
169.04
217.20
246.80
248.83
222.36
175.18
120.37
70.70
33.78
9.90
-5.95
-19.56
-33.88
-47.80
-58.25
-63.99
-67.64
-74.39
-88.39
-108.69
-128.41
-137.62
-128.91
-102.33
-66.48
-34.82
-18.69
-21.20
-35.84
-50.01
-52.19
-38.44
-14.62
6.73
13.16
-0.94
-31.93
-68.57
-97.93
-111.49
-108.13
-93.31
-74.80
-57.94
-43.27
-27.15
-5.04
24.45
57.55
86.67
104.18
106.83
97.54
84.42
76.34
78.56
90.13
104.98
115.88
118.59
113.94
106.96
103.59
106.67
114.03
119.28
115.29
98.28
70.02
37.69
10.51
-4.77
-7.16
-1.63
4.25
4.91
-0.19
-6.70
-8.50
-2.04
11.20
25.61
35.27
37.63
34.70
31.69
33.18
40.00
48.77
53.85
51.19
40.91
27.21
16.12
12.16
15.67
22.67
26.98
23.63
11.83
-4.67
-19.13
-25.52
-21.79
-11.23
-1.19
0.86
-8.71
-27.93
-50.37
-68.76
-79.21
-83.25
-86.68
-95.45
-111.46
-130.95
-145.93
-148.79
-136.90
-114.53
-90.90
-74.97
-70.63
-74.92
-80.28
-79.62
-71.28
-60.64
-57.38
-69.98
-100.59
-143.50
-187.24
-219.74
-233.18
-226.43
-204.26
-173.75
-140.71
-107.75
-74.33
-38.23
2.09
46.12
91.13
133.47
170.43
201.30
227.70
252.00
275.19
295.16
306.72
304.28
285.12
251.81
212.18
176.40
152.44
142.49
142.32
144.01
140.51
129.23
113.12
98.34
90.36
90.69
96.10
100.80
100.11
92.72
80.94
68.41
57.22
46.34
32.39
12.50
-12.90
-39.45
-60.44
-70.43
-68.36
-58.16
-46.82
-40.39
-40.83
-45.51
-49.17
-47.40
-39.45
-28.57
-19.87
-17.10
-20.27
-26.02
-29.48
-27.37
-19.98
-10.77
-4.46
-4.13
-9.62
-17.93
-24.97
-27.99
-27.38
-26.36
-29.30
-38.99
-54.64
-71.99
-84.76
-87.73
-79.32
-62.53
-43.55
-28.54
-20.71
-19.22
-20.03
-18.61
-12.78
-4.05
3.41
5.45
0.67
-8.75
-17.72
-21.33
-17.69
-9.20
-1.49
-0.10
-7.27
-20.59
-33.86
-40.40
-36.81
-24.87
-10.72
-1.25
-0.31
-6.67
-14.70
-17.87
-12.79
-1.28
10.53
16.11
12.57
2.43
-7.71
-11.16
-5.46
5.97
15.64
16.58
6.79
-9.37
-23.15
-26.63
-17.29
0.28
16.92
24.22
19.21
5.83
-7.49
-12.90
-7.84
3.47
12.58
12.13
-0.16
-20.45
-40.94
-54.55
-58.90
-57.43
-57.13
-63.90
-78.31
-95.86
-109.44
-113.37
-106.80
-94.16
-83.15
-80.60
-89.06
-104.44
-119.51
-127.61
-125.27
-112.63
-92.16
-66.76
-38.29
-7.28
28.71
70.64
117.10
164.91
211.01
254.12
294.85
335.12
377.16
424.51
476.11
525.05
560.15
570.47
549.88
499.23
426.18
325.52
205.25
82.12
-25.75
-107.91
-163.81
-198.14
-216.14
-221.81
-218.54
-207.14
-190.05
-170.88
-153.14
-138.49
-126.14
-114.35
-101.60
-87.45
-70.50
-51.38
-32.05
-14.85
-1.52
8.52
16.59
23.86
30.93
39.22
48.65
58.35
67.23
74.80
81.48
88.05
95.16
103.15
112.77
123.47
134.38
144.48
153.01
159.56
163.61
164.33
160.08
154.04
146.97
139.12
130.54
121.32
111.65
101.71
91.77
82.17
73.31
64.83
56.67
48.86
41.42
34.41
27.94
22.15
17.22
13.38
10.35
8.00
6.25
4.98
4.10
3.55
3.28
3.32
3.77
4.46
5.29
6.21
7.25
8.39
9.62
10.92
12.27
13.71
15.04
16.11
16.81
17.08
16.88
16.20
15.09
13.68
12.08
10.32
8.49
6.68
4.20
0.59
-3.90
-8.54
-12.66
-15.91
-18.30
-19.98
-21.17
-22.82
-25.57
-29.29
-33.37
-37.17
-40.33
-42.89
-45.05
-47.04
-50.96
-58.10
-68.15
-79.47
-90.25
-99.58
-107.26
-113.53
-118.68
-128.13
-145.31
-169.23
-195.32
-218.79
-237.36
-250.93
-260.54
-267.41
-283.42
-316.06
-363.61
-416.75
-465.63
-505.33
-535.39
-557.58
-574.21
-604.44
-660.15
-738.43
-824.00
-900.67
-960.19
-1001.58
-1027.77
-1042.85
-1072.94
-1134.92
-1226.57
-1329.71
-1424.90
-1503.32
-1565.63
-1617.33
-1524.52
-1229.57
-778.13
-289.55
133.68
452.09
671.34
814.39
904.79
961.03
973.40
935.78
856.99
753.91
652.28
567.95
508.45
476.81
473.54
478.63
474.87
456.63
429.99
404.93
387.14
379.40
380.36
387.91
388.96
374.45
344.70
308.42
276.15
253.12
239.56
232.71
229.35
221.33
203.70
177.22
147.44
120.94
101.19
88.63
81.81
78.85
75.91
70.50
62.47
53.66
46.40
41.77
39.61
38.98
38.80
38.00
35.93
32.47
27.91
22.81
17.64
12.69
7.99
3.47
-1.02
-5.54
-10.04
-14.39
-18.40
-21.83
-24.51
-26.35
-27.22
-27.01
-25.62
-23.00
-19.14
-14.09
-8.06
-1.42
5.45
12.11
18.14
23.19
27.00
29.48
30.61
30.42
29.02
26.63
23.47
19.76
15.73
11.69
7.83
4.29
1.21
-1.33
-3.26
-4.58
-5.30
-5.41
-5.02
-4.28
-3.34
-2.35
-1.45
-0.75
-0.30
-0.08
-0.04
-0.22
-0.54
-0.97
-1.48
-2.13
-2.93
-3.88
-5.03
-6.47
-8.21
-10.20
-12.35
-14.50
-16.47
-17.99
-18.95
-19.25
-18.88
-17.89
-16.38
-14.52
-12.45
-10.26
-8.02
-5.84
-3.73
-1.66
0.40
2.46
4.51
6.62
8.78
10.93
13.07
15.16
17.17
19.03
20.74
22.38
24.05
25.90
28.12
30.88
34.25
38.18
42.54
47.21
52.03
56.93
62.03
67.54
73.76
80.90
89.05
98.16
108.00
118.19
128.51
138.96
149.85
161.69
175.09
190.44
207.61
225.97
244.50
262.27
278.97
295.46
313.55
335.34
361.78
391.62
420.89
443.74
454.37
448.86
426.37
389.08
341.03
287.19
232.74
182.89
142.68
116.01
104.16
104.78
112.09
118.91
119.57
112.31
99.67
86.43
76.66
71.15
67.15
60.62
49.06
33.32
17.41
6.20
2.51
5.57
11.51
15.83
15.98
12.40
8.16
6.47
8.38
12.13
14.13
11.54
4.25
-4.90
-11.55
-12.44
-7.50
0.06
5.46
5.12
-1.23
-10.67
-18.48
-21.02
-17.72
-11.42
-6.79
-7.59
-14.47
-24.54
-32.70
-34.36
-28.21
-17.13
-7.08
-3.82
-9.83
-23.00
-37.43
-46.69
-47.29
-40.31
-30.78
-24.40
-24.60
-30.77
-38.82
-43.84
-43.08
-37.51
-31.09
-28.20
-30.77
-37.20
-42.95
-43.47
-37.00
-25.84
-15.28
-10.32
-12.72
-19.84
-26.05
-25.96
-17.75
-4.35
8.14
13.96
10.83
1.04
-9.78
-16.04
-15.38
-9.74
-4.16
-3.31
-8.60
-17.30
-23.79
-22.89
-12.96
2.97
18.56
27.64
27.40
19.58
9.57
3.03
2.66
6.89
10.94
10.22
3.28
-7.04
-15.18
-16.13
-8.59
4.02
15.35
19.78
15.48
5.15
-5.42
-10.97
-9.66
-4.01
0.53
-0.68
-8.72
-20.17
-28.76
-28.87
-18.99
-2.81
12.30
19.24
14.89
1.61
-13.90
-24.44
-26.22
-20.76
-13.74
-11.21
-15.97
-25.93
-35.30
-38.09
-31.78
-18.84
-5.57
1.79
0.52
-7.13
-15.20
-17.85
-12.86
-2.97
5.66
7.52
1.11
-10.12
-19.63
-21.58
-14.37
-1.55
10.05
14.36
9.40
-1.88
-13.25
-19.00
-17.01
-9.78
-2.65
-0.18
-3.47
-9.60
-13.48
-11.30
-3.10
7.12
13.50
12.00
2.83
-9.74
-19.57
-22.28
-17.77
-10.05
-5.13
-7.23
-16.43
-28.50
-37.15
-37.51
-29.08
-16.04
-5.15
-1.84
-7.20
-17.35
-25.24
-24.68
-13.75
4.12
21.85
32.80
34.25
28.65
22.17
20.88
27.24
38.77
49.59
54.04
50.02
40.04
30.02
25.77
30.08
41.61
56.35
70.42
81.96
91.18
98.63
103.21
101.12
87.30
58.13
14.36
-38.17
-90.30
-132.71
-159.55
-170.20
-168.91
-162.32
-156.10
-152.95
-152.10
-150.34
-144.50
-133.42
-118.63
-103.52
-91.27
-82.92
-76.97
-70.12
-59.57
-44.87
-28.56
-14.88
-7.15
-5.79
-7.83
-8.36
-3.13
8.77
24.33
37.95
44.63
42.57
34.01
24.07
17.51
16.08
17.57
17.25
11.35
-0.43
-14.36
-24.44
-26.11
-19.04
-7.46
2.06
4.65
-0.19
-8.50
-14.13
-12.68
-4.20
6.77
13.69
11.92
1.29
-13.74
-26.32
-30.78
-25.49
-13.53
-0.92
6.87
7.62
3.29
-1.16
-0.96
5.53
15.83
24.48
26.52
20.50
9.47
-0.38
-3.39
2.18
13.15
23.17
26.63
21.85
11.96
3.08
0.44
5.17
13.64
19.45
17.48
6.84
-8.51
-21.82
-27.33
-23.42
-13.38
-3.55
0.48
-3.26
-12.13
-20.46
-23.00
-17.93
-7.77
2.13
6.99
5.36
-0.13
-4.41
-3.18
4.19
14.07
20.39
18.33
7.10
-9.48
-24.68
-32.67
-31.57
-24.32
-16.93
-14.64
-19.00
-27.11
-33.30
-32.78
-24.62
-12.56
-3.07
-1.37
-8.57
-20.84
-31.24
-33.72
-26.39
-12.54
1.31
9.35
9.51
4.38
-0.63
-0.83
4.71
12.69
17.53
15.23
5.85
-6.27
-14.89
-15.54
-8.19
2.77
10.88
11.59
4.59
-6.10
-14.45
-15.89
-9.86
-0.08
7.56
8.68
2.65
-6.93
-14.24
-14.69
-7.65
3.13
11.50
12.80
6.48
-3.46
-10.67
-10.25
-1.83
10.26
19.31
20.40
13.12
1.83
-6.80
-7.84
-0.97
9.28
16.08
14.41
3.79
-11.46
-24.52
-29.85
-26.16
-16.86
-8.01
-4.63
-8.12
-15.68
-22.24
-23.89
-20.34
-15.17
-13.66
-19.11
-30.72
-43.59
-51.20
-49.14
-37.74
-21.98
-8.86
-3.39
-6.07
-12.72
-17.03
-14.37
-4.63
7.60
15.63
14.78
5.16
-8.23
-18.06
-18.89
-10.27
2.92
12.98
13.86
4.07
-12.52
-28.72
-38.09
-38.25
-31.78
-24.54
-21.87
-25.56
-32.88
-38.20
-36.47
-26.49
-11.84
1.00
6.47
3.05
-5.74
-13.23
-13.63
-5.44
7.54
18.31
20.98
14.08
1.36
-10.14
-14.25
-9.02
2.47
14.05
20.44
19.98
15.38
11.68
12.79
18.89
26.25
29.63
25.97
16.51
6.37
1.77
6.21
18.17
31.75
39.80
38.18
27.71
13.70
2.92
-0.55
2.53
7.17
7.16
-0.75
-14.79
-28.81
-35.44
-30.34
-14.98
3.82
17.16
18.92
8.67
-8.04
-22.85
-29.22
-25.79
-16.59
-8.23
-5.41
-8.25
-12.48
-12.23
-4.13
10.35
25.52
34.57
33.88
24.90
13.65
7.37
10.35
21.45
34.46
41.29
36.62
20.52
-1.46
-21.07
-31.82
-32.24
-26.27
-20.74
-21.02
-28.29
-38.91
-46.88
-47.66
-41.01
-31.01
-23.45
-21.93
-25.68
-29.98
-29.11
-20.03
-4.54
11.47
21.14
20.55
10.58
-3.51
-14.90
-18.89
-15.00
-6.86
0.25
2.70
0.13
-4.83
-8.54
-9.00
-7.24
-6.71
-11.16
-21.84
-36.49
-50.01
-56.85
-53.91
-42.21
-26.42
-12.35
-3.77
-0.72
0.23
3.63
12.11
24.28
35.32
39.64
34.55
22.04
8.23
0.18
2.00
12.51
25.93
35.04
35.42
27.55
16.39
8.35
7.54
13.42
21.28
25.21
21.80
12.00
0.71
-6.13
-5.06
3.03
13.40
20.28
20.27
14.00
5.62
0.32
1.34
7.92
15.93
20.23
17.74
9.21
-1.13
-7.79
-7.26
-0.11
8.97
13.72
9.91
-2.18
-17.54
-28.78
-30.30
-21.36
-6.75
5.89
10.50
5.84
-3.69
-10.80
-9.82
-0.28
12.54
20.71
18.49
5.90
-11.06
-23.50
-24.77
-14.19
2.64
17.11
22.55
17.58
6.54
-3.57
-7.41
-4.42
1.05
2.93
-2.49
-13.98
-25.87
-31.15
-25.66
-10.61
7.91
22.12
26.93
22.27
13.22
6.92
8.47
17.98
30.35
38.25
36.42
24.79
8.80
-3.56
-6.31
0.88
12.41
20.04
17.75
5.11
-12.21
-25.95
-30.07
-24.15
-13.50
-5.56
-5.37
-12.71
-22.42
-27.73
-24.45
-13.50
-0.34
8.23
8.16
0.09
-10.89
-18.34
-18.38
-11.79
-3.62
0.18
-3.65
-13.57
-23.97
-28.39
-23.43
-11.04
2.35
9.41
6.18
-5.79
-20.09
-29.04
-27.94
-17.43
-3.08
8.19
11.88
8.20
1.63
-1.95
1.20
10.52
21.54
28.77
29.03
23.19
15.77
12.05
14.68
21.93
28.29
28.05
18.90
3.67
-10.82
-17.44
-12.88
0.18
14.30
21.37
17.11
3.25
-13.23
-23.97
-23.73
-12.96
2.53
15.28
20.16
17.06
10.55
6.81
9.81
18.76
28.57
33.05
28.74
17.00
3.33
-5.90
-7.47
-3.16
1.15
-0.71
-11.44
-28.42
-45.09
-54.60
-53.70
-44.66
-33.93
-28.34
-31.26
-40.98
-51.64
-56.82
-53.26
-42.54
-30.28
-22.45
-22.03
-27.29
-32.91
-33.16
-25.40
-11.86
1.59
8.93
7.57
-0.10
-7.84
-9.31
-1.88
11.61
24.24
29.20
23.73
10.86
-2.07
-7.66
-2.68
10.11
23.49
30.13
26.68
15.40
2.74
-4.58
-3.37
4.44
13.23
17.34
14.37
6.35
-1.54
-4.27
-0.02
8.59
15.85
16.40
8.23
-5.93
-19.68
-26.26
-22.19
-9.09
6.86
18.38
20.67
13.67
1.92
-8.22
-12.05
-8.96
-2.44
2.50
2.32
-2.91
-9.60
-12.90
-9.78
-1.23
7.95
11.82
6.55
-7.30
-24.70
-38.88
-45.00
-42.78
-36.60
-32.53
-34.87
-43.55
-54.29
-61.41
-61.43
-55.09
-46.95
-42.02
-42.54
-46.37
-48.24
-43.24
-30.22
-12.92
1.73
7.92
4.28
-5.37
-13.90
-15.13
-7.34
5.80
17.30
21.04
15.02
2.21
-11.14
-19.05
-19.02
-12.97
-5.86
-2.35
-4.05
-8.58
-11.00
-7.24
3.11
16.04
24.97
24.91
15.42
1.34
-9.69
-11.53
-3.04
11.36
24.17
29.38
25.69
16.89
9.43
8.34
14.33
23.66
30.54
31.08
25.63
18.53
15.62
20.50
32.14
45.27
53.12
51.40
40.59
25.84
14.35
11.43
17.83
29.51
39.97
44.05
40.45
32.13
24.41
21.60
24.57
30.27
33.65
31.05
22.45
11.77
4.84
5.93
15.01
27.53
36.60
37.06
28.16
13.94
1.06
-5.14
-3.43
2.86
8.14
8.26
2.95
-3.90
-6.61
-1.27
11.75
27.69
39.79
43.18
37.29
26.14
16.07
12.09
15.07
21.37
25.15
22.07
11.90
-1.19
-11.06
-13.26
-7.86
0.59
5.58
2.68
-8.11
-22.30
-33.39
-36.59
-31.21
-20.83
-10.98
-5.74
-5.75
-8.03
-7.91
-2.05
9.38
22.69
32.55
35.11
30.01
20.59
12.11
8.70
10.95
15.55
17.42
13.01
2.41
-10.29
-19.35
-20.78
-14.83
-5.91
-0.14
-1.55
-9.88
-20.68
-27.81
-27.17
-19.15
-8.54
-1.86
-3.44
-13.03
-25.74
-34.63
-34.62
-25.39
-11.69
-0.65
2.32
-3.57
-13.99
-21.97
-22.11
-13.67
-0.98
9.22
11.93
6.63
-2.41
-8.90
-8.42
-1.22
8.02
13.04
10.15
0.46
-10.57
-16.17
-12.35
-0.23
14.44
24.48
25.30
17.14
4.87
-5.10
-8.57
-5.85
-1.29
-0.31
-5.64
-15.69
-25.24
-28.56
-23.03
-10.80
2.13
9.34
7.58
-1.59
-12.56
-18.94
-17.19
-8.57
1.53
6.79
3.66
-6.77
-19.26
-27.39
-27.26
-19.71
-9.81
-3.73
-5.02
-12.69
-21.65
-25.86
-21.96
-11.40
0.49
7.74
7.39
1.21
-5.42
-6.65
0.15
12.80
25.42
31.89
29.48
20.44
10.95
7.73
14.21
28.58
44.47
54.51
54.27
44.31
29.81
17.41
11.37
11.30
12.66
9.90
0.28
-14.42
-28.68
-36.61
-35.78
-28.92
-22.56
-23.14
-33.09
-49.41
-65.04
-72.77
-69.10
-56.02
-39.62
-26.61
-20.72
-21.30
-24.20
-24.67
-20.37
-12.45
-4.81
-1.15
-2.55
-6.69
-9.04
-5.75
3.72
15.80
24.59
25.39
17.73
6.03
-2.47
-1.66
9.82
27.64
43.80
50.91
46.03
31.76
14.80
2.23
-2.14
0.88
6.87
10.84
10.06
5.18
-0.47
-3.40
-2.44
0.36
0.77
-4.79
-16.79
-31.80
-43.91
-47.82
-41.92
-29.33
-16.52
-9.68
-11.43
-19.34
-27.03
-27.69
-17.75
1.34
24.01
43.90
57.12
63.68
66.73
69.83
74.20
77.80
76.50
67.07
49.61
28.13
9.09
-2.06
-3.69
1.22
6.73
7.49
1.59
-8.55
-17.70
-21.10
-17.49
-9.94
-4.03
-4.24
-11.00
-20.45
-26.21
-23.22
-10.54
8.05
26.07
38.10
42.58
42.33
42.16
46.00
54.58
65.11
73.12
75.37
72.11
67.25
66.77
74.09
88.47
105.12
117.90
123.11
121.78
119.36
122.87
136.44
156.58
173.92
177.42
160.31
123.09
72.52
18.00
-32.76
-76.50
-116.52
-158.35
-206.13
-260.20
-317.45
-373.44
-423.74
-463.98
-477.50
-450.81
-380.44
-279.00
-169.16
-71.14
4.82
58.76
96.69
125.97
147.17
157.28
152.97
135.15
109.91
85.69
69.16
62.78
63.47
63.59
56.47
39.42
16.05
-5.74
-18.45
-18.14
-4.40
21.36
54.05
93.33
138.66
187.95
236.57
278.01
305.98
316.53
308.97
283.07
243.52
196.57
148.61
104.30
65.88
33.00
3.79
-23.87
-51.67
-79.73
-108.49
-138.34
-168.92
-198.52
-223.20
-237.29
-235.89
-217.86
-187.16
-152.92
-125.40
-111.41
-111.38
-119.87
-129.43
-134.90
-136.11
-136.35
-139.28
-145.44
-151.05
-150.25
-139.32
-119.83
-98.67
-84.75
-83.55
-94.11
-109.02
-118.22
-114.82
-98.86
-77.36
-60.23
-54.02
-58.31
-65.83
-66.86
-55.22
-32.21
-5.85
13.65
19.99
14.14
3.63
-2.00
3.05
17.55
33.80
42.41
38.09
22.45
3.52
-8.93
-9.07
1.59
15.21
22.19
17.35
2.77
-13.25
-20.91
-14.91
2.48
22.78
36.33
37.81
29.02
17.64
12.69
19.52
37.01
58.74
76.83
86.58
88.57
87.79
90.27
98.93
111.53
121.50
121.79
109.05
85.72
59.26
38.23
27.74
26.87
29.64
28.79
20.51
6.47
-7.10
-13.17
-8.33
5.12
20.14
29.06
27.71
17.52
4.67
-3.34
-1.88
8.41
22.11
32.26
34.31
28.43
19.35
13.57
15.48
24.96
37.29
46.19
47.49
41.48
32.92
28.07
30.84
40.18
50.32
54.25
48.02
33.33
17.01
7.25
8.80
19.95
33.21
39.74
34.36
18.38
-1.03
-15.30
-19.50
-15.23
-9.54
-10.37
-21.60
-40.76
-60.24
-71.85
-71.74
-62.61
-52.23
-48.66
-55.62
-70.52
-85.85
-93.79
-90.69
-79.16
-66.56
-60.50
-64.43
-75.73
-86.91
-90.13
-81.86
-65.11
-48.16
-39.72
-43.98
-58.32
-74.33
-82.88
-79.35
-66.19
-51.23
-42.61
-43.54
-50.57
-55.62
-51.23
-35.29
-12.43
8.84
21.45
24.06
21.69
22.92
34.51
57.54
86.53
112.50
128.12
131.35
125.86
118.28
113.74
112.52
109.77
98.46
73.69
35.80
-9.74
-54.58
-92.03
-120.01
-141.32
-161.33
-184.10
-209.88
-235.01
-254.00
-262.55
-260.16
-250.14
-237.71
-226.87
-218.29
-209.49
-196.98
-179.19
-158.02
-138.69
-127.06
-125.79
-132.30
-139.11
-137.19
-120.60
-89.76
-50.76
-13.37
13.67
26.83
28.75
26.70
28.24
37.82
55.32
79.24
107.11
137.21
169.49
205.23
245.81
290.86
337.49
380.84
418.65
449.11
471.71
487.85
501.19
516.74
538.92
569.47
606.40
647.97
688.18
717.90
727.38
709.82
664.04
594.48
509.54
393.86
247.66
83.83
-75.85
-210.90
-310.66
-374.81
-409.80
-424.77
-428.92
-425.43
-416.37
-402.65
-383.96
-358.15
-321.92
-274.54
-217.28
-155.24
-92.53
-33.92
17.26
60.06
95.58
125.34
148.66
162.54
163.03
150.00
126.13
96.38
65.88
36.75
11.56
-9.20
-26.79
-43.03
-57.89
-69.93
-76.73
-76.29
-68.39
-54.74
-39.59
-27.98
-23.87
-28.20
-38.96
-52.32
-64.44
-72.94
-77.20
-78.56
-79.14
-80.81
-84.37
-89.47
-95.07
-99.91
-103.22
-104.60
-104.33
-102.95
-101.15
-100.00
-100.71
-104.14
-109.85
-115.73
-118.21
-113.96
-101.48
-82.23
-60.11
-39.60
-23.72
-13.10
-6.54
-2.35
0.42
1.88
2.12
2.11
3.56
7.98
15.50
24.49
32.28
36.54
36.26
32.11
25.73
18.71
11.97
5.77
0.27
-4.02
-6.21
-5.46
-1.59
4.59
11.43
17.22
21.04
23.00
24.01
24.87
25.67
25.47
22.83
16.76
7.58
-2.88
-12.06
-17.81
-19.50
-18.26
-16.36
-15.78
-17.08
-19.05
-19.29
-15.62
-7.31
4.22
15.98
24.62
27.93
25.66
19.45
12.04
5.87
2.34
1.55
3.09
6.86
13.53
24.07
38.74
56.25
73.53
86.72
92.75
90.75
82.24
70.57
59.11
49.74
42.26
34.82
25.32
12.79
-1.90
-16.04
-26.27
-29.99
-26.69
-18.28
-8.20
0.01
4.18
4.16
1.36
-2.58
-6.90
-12.14
-19.22
-28.27
-37.69
-44.33
-45.33
-39.25
-26.78
-10.62
5.90
20.25
31.71
41.19
50.45
60.07
69.30
76.39
79.66
78.53
73.92
68.04
62.94
59.73
56.92
52.27
44.53
34.30
23.66
15.02
10.22
9.01
9.76
6.93
-3.84
-23.50
-49.45
-77.45
-103.68
-125.10
-141.36
-153.09
-167.85
-191.41
-224.62
-263.34
-302.08
-337.63
-368.43
-397.10
-425.55
-463.69
-515.77
-576.69
-634.23
-676.68
-699.73
-705.13
-703.29
-703.85
-724.76
-773.60
-843.22
-916.05
-974.80
-1011.75
-1026.23
-1027.68
-942.41
-734.24
-422.67
-76.63
233.16
470.11
612.51
692.14
734.16
756.45
757.90
736.23
698.56
655.43
617.31
589.72
576.50
574.28
580.21
581.98
570.09
542.03
502.54
459.72
420.05
389.30
366.69
350.43
331.99
304.86
268.05
226.27
186.88
155.35
135.01
123.15
115.76
106.01
89.49
66.10
39.84
16.56
0.53
-6.53
-7.44
-6.04
-6.23
-9.44
-14.18
-17.22
-15.67
-9.05
2.75
15.73
25.24
29.33
29.26
27.25
24.36
20.36
14.64
7.41
-0.39
-7.10
-11.28
-12.65
-12.09
-10.68
-8.94
-6.92
-4.36
-1.66
0.37
1.04
-0.15
-3.14
-7.03
-10.28
-11.65
-10.36
-6.82
-2.15
2.55
6.18
7.70
6.26
1.63
-5.39
-12.38
-15.81
-12.12
0.36
19.96
41.56
58.55
66.10
63.12
52.37
38.54
25.77
16.03
8.99
3.33
-1.67
-5.69
-7.69
-7.07
-4.27
-0.75
1.87
2.29
0.43
-2.69
-5.58
-6.98
-6.40
-4.28
-1.75
0.02
0.27
-0.97
-2.95
-4.65
-5.25
-4.53
-2.91
-1.22
-0.24
-0.36
-1.38
-2.59
-3.27
-2.97
-1.72
-0.09
1.15
1.45
0.66
-0.85
-2.43
-3.47
-3.77
-3.56
-3.47
-4.00
-5.19
-6.55
-7.25
-6.40
-3.47
1.66
8.94
18.14
28.84
39.82
48.90
53.28
50.73
40.82
25.64
9.15
-4.50
-12.86
-16.05
-16.22
-15.93
-16.50
-17.48
-17.31
-14.80
-10.25
-5.42
-2.47
-2.49
-4.93
-7.82
-9.11
-7.73
-4.30
-0.71
1.03
-0.01
-3.18
-6.65
-8.34
-7.26
-3.94
0.03
2.83
3.63
2.89
2.00
2.29
4.20
6.94
9.01
9.34
7.95
6.07
5.38
7.08
11.07
15.98
19.81
21.07
19.82
17.40
15.98
17.24
21.50
27.46
33.06
36.43
36.71
34.70
32.47
32.50
36.09
42.65
49.89
55.06
56.31
53.58
48.63
43.89
41.24
41.03
42.14
42.79
41.52
37.50
30.38
19.82
5.07
-14.60
-39.21
-67.19
-95.03
-118.06
-131.91
-133.90
-123.90
-104.29
-78.80
-51.15
-24.06
1.05
23.50
42.71
57.76
67.42
70.60
67.15
58.22
46.05
33.38
22.48
14.49
9.20
5.40
1.54
-3.29
-9.08
-14.80
-19.05
-20.79
-19.82
-16.69
-12.27
-7.13
-1.12
6.35
15.88
27.14
38.57
47.45
50.99
47.47
37.31
23.17
8.89
-2.12
-8.53
-11.61
-14.30
-19.49
-28.40
-39.94
-51.43
-60.36
-65.84
-69.19
-72.90
-78.83
-86.80
-94.07
-96.49
-90.53
-75.23
-52.94
-28.32
-6.41
9.61
19.48
25.39
30.18
35.59
41.29
45.65
47.24
46.08
43.85
42.71
43.50
44.79
43.22
35.31
19.53
-2.67
-27.24
-49.38
-65.75
-75.72
-81.32
-85.83
-92.04
-100.95
-111.52
-121.47
-128.72
-132.30
-132.68
-130.77
-127.01
-120.64
-109.80
-92.75
-69.29
-41.42
-12.87
12.60
32.82
47.91
59.60
69.61
78.17
83.70
83.96
77.83
66.50
53.08
41.23
33.22
28.93
26.21
22.44
16.38
8.93
2.69
0.53
3.88
12.00
22.38
31.96
38.70
42.31
44.02
45.53
47.83
50.53
51.98
50.32
44.59
35.44
24.85
15.31
8.50
4.51
1.91
-1.37
-6.49
-12.86
-18.31
-20.12
-16.78
-9.18
-0.41
5.75
6.82
2.94
-3.29
-8.27
-9.56
-7.27
-3.99
-3.41
-8.24
-18.90
-33.46
-48.67
-61.52
-70.56
-76.31
-80.39
-84.28
-88.16
-90.62
-89.34
-82.49
-69.97
-53.77
-37.37
-23.98
-15.29
-10.87
-8.72
-6.78
-4.14
-1.59
-0.80
-2.85
-7.18
-11.60
-13.38
-11.03
-5.25
1.31
5.58
5.93
3.18
0.10
-0.21
3.67
10.74
18.07
22.52
22.66
19.37
15.45
13.85
15.95
20.81
25.70
27.76
25.76
20.97
16.69
16.72
23.31
35.99
51.76
66.36
76.30
80.08
78.56
74.05
68.83
64.14
59.84
55.00
48.75
40.89
31.82
22.33
12.95
3.82
-5.21
-13.90
-21.16
-25.27
-24.24
-17.08
-4.73
9.97
23.03
30.95
32.30
28.29
22.12
17.44
16.50
19.16
23.37
26.46
26.66
23.95
19.80
16.04
13.71
12.45
10.84
7.45
1.77
-5.49
-12.88
-19.16
-24.23
-28.95
-34.61
-41.65
-49.05
-54.49
-55.37
-50.16
-39.43
-25.86
-13.15
-4.40
-0.86
-1.55
-3.98
-5.57
-4.93
-2.35
0.57
2.12
1.41
-1.15
-4.16
-6.25
-6.87
-6.60
-6.62
-7.94
-10.56
-13.58
-15.79
-16.37
-15.73
-15.15
-16.13
-19.29
-23.98
-28.39
-30.66
-30.10
-27.83
-26.51
-29.09
-36.96
-48.96
-61.49
-69.80
-70.13
-61.52
-46.07
-28.06
-11.82
0.18
8.10
14.25
21.59
32.04
45.60
60.65
75.05
87.06
95.95
101.64
104.07
102.78
97.00
86.40
71.85
55.62
40.74
30.11
25.05
24.89
27.38
29.65
29.71
27.09
22.82
18.63
15.98
15.15
15.31
15.10
13.51
10.51
7.12
4.75
4.31
5.71
7.73
8.89
8.34
6.40
4.40
3.89
5.58
8.80
11.74
12.37
9.65
4.18
-2.13
-6.92
-8.72
-7.61
-5.17
-3.36
-3.32
-4.85
-6.40
-6.35
-3.96
-0.11
3.05
3.23
-0.47
-6.97
-13.61
-17.35
-16.54
-11.69
-5.32
-0.54
0.57
-1.98
-6.26
-9.53
-9.89
-7.35
-3.55
-0.72
-0.21
-1.76
-3.65
-3.94
-1.70
2.43
6.42
8.23
7.03
3.61
-0.05
-2.00
-1.52
0.41
1.78
0.73
-3.30
-9.19
-14.66
-17.50
-16.75
-13.13
-8.77
-5.85
-5.54
-7.42
-9.80
-10.77
-9.32
-5.99
-2.63
-1.36
-3.17
-7.57
-12.55
-15.72
-15.72
-12.78
-8.60
-5.26
-3.99
-4.44
-5.01
-3.94
-0.42
4.79
9.72
12.50
12.26
9.69
6.68
5.04
5.40
6.93
7.73
6.14
1.81
-4.05
-9.12
-11.25
-9.73
-5.65
-1.30
1.13
0.79
-1.48
-3.53
-3.28
0.11
5.66
11.06
13.97
13.32
9.76
5.40
2.44
2.02
3.60
5.38
5.60
3.58
0.20
-2.56
-2.97
-0.75
2.56
4.40
2.74
-2.61
-9.85
-15.97
-18.49
-16.82
-12.71
-9.18
-8.83
-12.36
-18.19
-23.33
-25.15
-22.80
-17.56
-12.11
-8.72
-8.08
-9.03
-9.29
-6.84
-1.19
6.42
13.76
19.03
21.71
22.86
24.25
27.19
31.51
35.50
36.72
33.54
26.23
16.96
8.95
4.73
4.92
7.93
10.99
11.82
9.84
6.38
3.73
3.51
5.50
7.70
7.41
3.03
-5.00
-14.36
-22.05
-26.14
-26.72
-25.69
-25.46
-27.27
-30.49
-32.91
-32.08
-26.92
-18.50
-9.55
-3.09
-0.72
-2.02
-4.87
-6.76
-6.25
-3.67
-0.84
0.29
-1.13
-4.32
-7.34
-8.19
-6.15
-2.10
1.79
3.38
1.93
-1.58
-4.84
-5.51
-2.60
2.92
8.60
11.77
11.03
6.98
1.80
-1.91
-2.64
-0.81
1.52
1.92
-0.94
-6.56
-12.71
-16.74
-16.99
-13.62
-8.61
-4.57
-3.29
-4.89
-7.81
-9.86
-9.62
-7.15
-3.95
-1.95
-2.16
-4.03
-5.70
-5.15
-1.52
4.19
9.56
12.10
10.54
5.64
-0.19
-4.21
-4.78
-2.10
1.95
5.12
6.06
4.95
3.25
2.68
4.01
6.63
8.82
9.03
6.82
3.26
0.43
0.19
2.98
7.43
11.04
11.51
8.10
2.00
-4.26
-8.24
-8.87
-7.07
-4.99
-4.63
-6.65
-10.09
-12.85
-13.14
-10.46
-5.91
-1.67
0.46
-0.01
-2.04
-3.70
-3.22
-0.12
4.57
8.83
10.86
10.02
7.24
4.49
3.55
5.10
8.22
10.94
11.46
9.19
5.11
1.25
-0.54
0.42
3.17
5.74
6.34
4.46
1.04
-1.97
-2.88
-1.33
1.57
3.74
3.51
0.56
-3.91
-7.89
-9.75
-9.25
-7.59
-6.74
-8.08
-11.70
-16.17
-19.49
-20.22
-18.43
-15.58
-13.65
-13.82
-15.84
-18.16
-18.75
-16.40
-11.47
-5.76
-1.65
-0.63
-2.57
-5.66
-7.42
-6.00
-1.19
5.51
11.75
15.67
16.93
16.70
16.90
18.91
22.68
26.72
28.99
28.17
24.33
19.02
14.21
11.27
10.21
9.65
7.81
3.73
-2.10
-7.96
-11.78
-12.56
-10.95
-9.11
-9.57
-13.67
-20.81
-28.48
-33.48
-33.47
-28.01
-18.54
-7.39
3.45
13.28
22.51
31.93
41.68
50.81
57.50
60.14
58.32
53.00
46.40
40.67
36.98
35.05
33.45
30.64
25.99
20.19
14.90
11.92
11.96
14.25
16.97
18.14
16.84
13.56
9.92
7.61
7.32
8.19
8.20
5.43
-0.83
-9.47
-17.96
-23.51
-24.53
-21.18
-15.34
-9.28
-4.39
-0.60
3.57
9.68
18.32
28.46
37.89
44.24
46.30
44.45
40.30
35.82
32.20
29.38
26.38
22.19
16.58
10.41
5.21
2.08
0.94
0.31
-1.98
-7.56
-16.51
-27.26
-37.40
-44.80
-48.98
-50.93
-52.58
-55.41
-59.54
-63.79
-66.20
-65.41
-61.40
-55.67
-50.43
-47.43
-47.08
-48.17
-48.75
-47.10
-42.95
-37.67
-33.55
-32.41
-34.54
-38.45
-41.58
-41.90
-39.06
-34.63
-31.30
-31.21
-34.76
-40.45
-45.42
-46.75
-42.55
-32.34
-16.81
2.68
24.73
47.96
71.00
92.27
109.96
122.19
127.52
125.61
117.45
105.34
92.09
80.16
70.75
63.51
57.04
49.91
41.60
32.76
24.79
18.89
15.20
12.75
9.93
5.50
-0.65
-7.41
-13.14
-16.64
-17.95
-18.32
-19.50
-22.72
-27.97
-34.03
-39.17
-42.36
-43.85
-45.11
-48.08
-53.75
-61.69
-70.03
-76.59
-79.98
-80.47
-79.67
-79.55
-81.19
-84.14
-86.63
-86.53
-82.68
-75.58
-67.26
-60.07
-55.56
-53.66
-52.94
-51.64
-48.79
-44.91
-41.74
-41.08
-43.16
-46.22
-46.91
-41.86
-29.36
-10.15
12.80
35.35
54.12
67.86
77.79
86.49
96.37
108.48
122.35
136.51
148.77
157.67
163.29
166.89
169.64
171.42
170.73
165.78
155.78
140.10
119.45
95.44
70.03
44.37
18.27
-9.14
-37.94
-66.74
-94.92
-121.88
-147.38
-171.49
-195.05
-219.44
-245.63
-273.16
-288.46
-279.98
-244.52
-190.88
-133.68
-84.25
-46.62
-19.00
2.93
22.92
40.79
54.32
61.35
61.79
57.51
51.14
45.27
42.03
42.77
46.66
51.88
56.41
59.67
61.92
63.72
65.52
67.53
69.59
70.20
67.60
60.65
49.65
36.15
22.13
9.35
-1.01
-8.36
-13.10
-15.95
-17.78
-19.07
-20.22
-21.60
-23.94
-28.04
-34.25
-42.45
-51.91
-61.43
-69.76
-76.17
-80.67
-83.91
-86.80
-89.93
-93.11
-95.12
-93.95
-87.48
-74.42
-55.18
-31.86
-7.75
13.93
31.05
42.96
50.25
53.83
54.48
52.61
48.74
43.99
40.09
38.78
40.79
45.45
50.80
54.81
56.40
55.91
55.01
55.46
58.18
62.67
67.52
71.18
72.83
72.76
71.94
71.32
71.17
71.01
69.93
67.48
63.94
60.25
57.44
55.76
54.49
52.06
47.00
38.70
27.89
16.42
6.39
-0.77
-5.10
-7.81
-10.54
-14.34
-19.13
-23.83
-26.98
-27.75
-26.28
-23.89
-22.00
-21.36
-21.79
-22.42
-22.23
-20.85
-18.68
-16.69
-15.99
-16.83
-18.55
-19.85
-19.50
-17.01
-13.04
-8.91
-6.03
-5.48
-6.98
-8.99
-9.83
-8.56
-5.57
-2.45
-0.51
-0.51
-3.05
-7.04
-10.35
-11.54
-10.46
-8.37
-7.11
-6.91
-7.24
-8.67
-10.24
-10.07
-7.46
-3.16
1.14
3.92
6.47
10.71
15.50
20.85
28.02
37.18
48.16
61.05
76.75
98.73
128.75
161.74
192.43
217.59
235.40
247.13
256.72
253.37
232.26
214.92
203.50
184.90
153.11
107.77
53.83
-1.32
-50.93
-88.65
-111.88
-124.30
-128.01
-122.39
-108.37
-89.43
-71.73
-62.49
-65.35
-80.78
-108.47
-143.52
-177.85
-204.86
-220.78
-224.92
-219.08
-205.19
-185.69
-164.56
-143.98
-124.02
-104.76
-86.99
-72.45
-63.25
-60.15
-62.49
-68.96
-76.98
-83.86
-88.45
-91.28
-93.69
-96.44
-98.62
-98.07
-92.73
-81.55
-65.24
-46.29
-27.87
-12.33
-0.36
8.85
16.74
24.18
30.97
35.98
37.98
36.64
32.96
28.92
26.54
26.90
29.56
32.89
34.88
34.22
30.87
26.14
21.87
19.45
19.14
20.02
20.64
20.03
18.23
16.24
15.39
16.48
19.17
22.27
24.39
24.86
24.13
23.57
24.61
27.87
32.65
37.33
40.09
39.93
37.07
32.83
28.95
26.85
27.00
28.95
31.64
34.05
35.50
35.86
35.36
34.20
32.39
29.77
26.13
21.64
16.93
12.88
10.25
9.18
9.02
8.72
7.27
4.40
0.76
-2.40
-3.82
-2.94
-0.22
3.15
5.90
7.17
6.93
5.74
4.44
3.52
2.90
2.04
0.47
-1.77
-4.12
-5.66
-5.64
-3.56
0.34
4.98
8.91
11.14
11.57
10.91
10.18
10.16
11.70
14.86
18.69
21.69
22.86
22.27
20.74
19.18
18.04
18.42
20.94
25.30
30.48
35.73
40.88
45.79
49.70
51.26
50.92
50.01
50.27
53.32
60.63
72.69
88.07
103.58
106.17
88.56
55.03
19.20
-6.93
-19.93
-23.87
-25.56
-30.08
-38.59
-47.22
-51.21
-48.52
-41.06
-32.81
-27.33
-26.27
-29.24
-34.47
-38.44
-38.38
-33.43
-24.87
-15.11
-6.74
-2.32
-3.89
-12.60
-27.25
-44.98
-62.30
-76.18
-84.46
-86.23
-81.84
-72.59
-60.20
-46.04
-31.44
-17.88
-6.92
0.35
3.93
4.84
4.62
4.64
5.77
7.96
10.52
12.44
12.95
11.73
9.10
5.32
0.45
-5.38
-11.58
-16.94
-19.74
-18.53
-12.91
-3.94
6.14
15.17
22.31
28.02
33.49
39.55
45.87
50.96
52.85
49.97
42.34
31.75
20.77
11.50
4.55
-1.25
-8.50
-20.23
-38.90
-65.08
-93.87
-117.56
-128.59
-123.83
-106.21
-82.26
-58.13
-37.47
-20.76
-6.20
7.86
21.67
33.97
42.89
47.31
47.46
44.71
41.10
38.63
38.54
41.05
46.08
53.58
63.31
74.94
87.30
98.44
106.32
109.72
108.36
103.48
96.96
90.25
83.53
75.84
66.16
54.41
41.75
29.49
18.82
9.96
2.08
-6.24
-16.44
-29.69
-47.20
-66.01
-85.29
-104.38
-122.57
-139.11
-153.29
-164.80
-173.62
-179.63
-182.28
-181.42
-176.98
-169.57
-160.71
-152.25
-145.52
-140.65
-136.49
-131.18
-123.83
-114.51
-104.22
-94.29
-85.51
-77.55
-69.02
-58.11
-43.19
-24.15
-2.30
19.75
38.98
53.25
62.13
67.07
70.31
73.49
76.43
77.38
74.25
66.16
54.42
42.18
32.94
28.61
28.62
30.38
31.09
29.36
26.02
23.45
23.88
27.90
33.99
39.25
41.06
38.52
32.85
26.85
23.36
23.92
28.13
34.10
39.61
43.25
44.94
45.70
46.76
48.58
50.37
50.53
47.75
41.85
34.19
27.07
22.57
21.39
22.59
24.10
24.03
21.67
17.73
13.91
11.71
11.42
12.12
12.13
10.34
6.89
3.31
1.73
3.69
9.16
16.36
22.68
25.90
25.44
22.48
19.17
17.41
17.71
18.96
19.13
16.67
11.34
4.49
-1.63
-5.14
-5.52
-3.75
-1.79
-1.35
-2.92
-5.70
-8.03
-8.51
-6.83
-3.89
-1.36
-0.54
-1.65
-3.61
-4.67
-3.40
0.46
5.74
10.50
12.99
12.52
9.80
6.48
4.12
3.49
4.15
4.85
4.51
2.98
1.25
0.91
3.19
7.97
13.81
18.48
20.19
18.67
15.24
12.22
11.43
13.27
16.42
18.74
18.57
15.60
11.19
7.31
5.40
5.45
5.96
4.97
1.35
-4.49
-10.75
-15.15
-16.39
-14.76
-12.06
-10.57
-11.66
-15.12
-19.24
-21.89
-21.75
-19.03
-15.31
-12.45
-11.61
-12.56
-13.98
-14.39
-13.05
-10.39
-7.64
-6.05
-6.07
-7.20
-8.28
-8.24
-6.62
-3.86
-0.91
1.22
2.12
2.13
2.14
3.07
5.28
8.32
11.08
12.46
11.89
9.65
6.77
4.35
2.93
2.18
1.07
-1.37
-5.35
-10.06
-13.94
-15.49
-14.05
-10.21
-5.41
-1.29
1.26
2.42
3.23
4.88
7.87
11.58
14.57
15.54
13.93
10.48
6.68
3.97
2.97
3.14
3.19
2.03
-0.54
-3.72
-6.02
-6.25
-4.27
-0.96
2.13
3.71
3.39
1.84
0.34
0.15
1.71
4.39
6.90
8.03
7.34
5.44
3.65
3.21
4.55
6.95
8.79
8.61
5.91
1.40
-3.23
-6.33
-7.04
-5.72
-3.59
-2.08
-1.86
-2.73
-3.78
-4.09
-3.34
-2.02
-1.15
-1.58
-3.51
-6.28
-8.81
-10.19
-10.26
-9.59
-9.13
-9.46
-10.32
-10.69
-9.37
-5.77
-0.46
5.11
9.08
10.26
8.54
5.03
1.37
-1.12
-1.96
-1.67
-1.25
-1.45
-2.42
-3.61
-4.16
-3.50
-1.81
0.12
1.31
1.16
-0.15
-1.77
-2.61
-2.06
-0.31
1.74
3.01
2.91
1.69
0.33
-0.04
1.22
3.74
6.33
7.51
6.48
3.46
-0.37
-3.50
-4.92
-4.68
-3.65
-3.08
-3.76
-5.68
-8.00
-9.68
-10.05
-9.07
-7.44
-5.99
-5.27
-5.22
-5.42
-5.21
-4.35
-3.22
-2.60
-3.42
-6.08
-10.18
-14.53
-17.77
-18.97
-18.15
-16.25
-14.52
-13.72
-13.70
-13.54
-12.20
-9.34
-5.64
-2.50
-1.22
-2.14
-4.40
-6.21
-5.83
-2.50
3.28
9.89
15.54
19.05
20.31
20.09
19.45
19.10
18.93
18.34
16.69
13.95
10.91
8.94
9.22
12.00
16.38
20.56
22.73
21.96
18.62
14.16
10.38
8.49
8.51
9.41
9.85
9.05
7.26
5.63
5.44
7.13
9.97
12.27
12.35
9.48
4.34
-1.35
-5.78
-8.01
-8.33
-7.87
-7.69
-8.10
-8.49
-7.89
-5.69
-2.23
1.30
3.43
3.39
1.55
-0.70
-1.68
-0.44
2.69
6.26
8.47
8.15
5.41
1.49
-1.93
-3.64
-3.48
-2.33
-1.34
-1.25
-1.97
-2.73
-2.69
-1.53
0.32
1.84
1.96
0.31
-2.67
-5.80
-7.72
-7.74
-6.13
-4.02
-2.88
-3.58
-5.90
-8.61
-10.09
-9.19
-5.98
-1.72
1.95
3.81
3.71
2.57
1.69
1.82
2.83
3.78
3.60
1.91
-0.72
-2.96
-3.54
-1.99
0.97
3.87
5.17
4.24
1.59
-1.50
-3.54
-3.89
-3.02
-2.26
-3.04
-5.96
-10.46
-14.94
-17.80
-18.11
-16.19
-13.39
-11.26
-10.73
-11.66
-12.95
-13.18
-11.53
-8.07
-3.85
-0.26
1.79
2.14
1.38
0.39
-0.13
-0.23
-0.38
-1.17
-2.65
-4.23
-4.97
-4.09
-1.59
1.80
4.77
6.06
5.20
2.58
-0.56
-2.98
-3.93
-3.62
-2.74
-2.28
-2.84
-4.22
-5.43
-5.10
-2.42
2.47
8.39
14.27
18.95
21.74
22.79
23.24
24.52
27.30
31.24
35.22
39.16
42.87
46.10
48.92
51.76
54.93
57.92
59.72
59.58
59.34
60.53
63.33
66.92
70.25
72.43
72.95
72.72
74.15
82.50
100.20
124.41
148.30
164.21
166.73
154.46
130.59
87.43
29.95
-27.68
-73.16
-104.17
-124.81
-138.76
-147.04
-149.31
-145.93
-136.71
-123.80
-111.09
-101.50
-95.30
-90.76
-85.86
-79.51
-71.89
-62.47
-52.09
-43.06
-37.14
-34.32
-33.14
-31.82
-29.25
-25.39
-20.00
-13.81
-8.61
-5.38
-3.81
-2.60
-0.29
3.76
9.05
14.68
18.96
19.87
16.50
9.34
-0.04
-9.91
-18.97
-26.77
-33.51
-39.79
-46.63
-54.47
-63.61
-74.01
-84.81
-93.82
-97.58
-92.36
-74.51
-46.63
-14.10
16.03
37.72
48.33
49.16
44.10
37.36
31.44
26.45
21.75
16.87
12.25
9.05
8.14
9.41
11.71
13.50
13.27
10.84
7.05
3.28
0.79
0.18
1.11
2.58
3.45
2.82
0.74
-2.15
-4.94
-6.95
-8.02
-8.52
-9.17
-10.52
-12.67
-15.03
-16.63
-16.49
-14.04
-9.31
-2.83
4.57
12.17
19.51
26.50
33.33
40.24
47.42
54.76
61.63
66.86
68.89
66.34
58.62
46.31
31.09
15.17
0.62
-11.13
-19.51
-24.50
-26.45
-26.00
-23.92
-21.18
-18.67
-16.90
-15.80
-14.82
-13.41
-11.48
-9.54
-8.22
-7.91
-8.33
-8.85
-8.89
-8.38
-7.93
-8.31
-10.01
-12.76
-15.60
-17.51
-18.08
-17.80
-17.80
-19.16
-22.16
-26.02
-29.19
-30.27
-28.80
-25.69
-22.82
-22.04
-24.21
-28.67
-33.57
-36.85
-37.23
-34.13
-28.51
-22.35
-17.54
-15.03
-14.17
-13.20
-10.16
-3.97
4.88
14.48
22.53
27.60
29.79
30.61
31.97
34.98
39.29
43.15
44.38
41.71
35.69
28.47
22.84
20.82
22.61
26.73
30.71
32.42
31.00
27.02
21.97
17.43
14.34
12.76
12.20
12.03
11.88
11.74
11.77
12.07
12.41
12.28
11.11
8.72
5.47
2.34
0.59
1.12
4.01
8.39
12.68
15.42
15.93
14.61
12.68
11.53
11.80
13.20
14.64
14.95
13.59
10.91
7.91
5.59
4.43
4.11
3.94
3.37
2.40
1.46
1.12
1.47
1.99
1.77
-0.02
-3.51
-7.99
-12.11
-14.48
-14.20
-11.36
-6.89
-2.25
1.23
2.85
2.73
1.67
0.61
0.21
0.45
0.81
0.68
-0.27
-1.78
-3.10
-3.58
-3.08
-2.08
-1.54
-2.17
-4.01
-6.25
-7.56
-6.83
-3.83
0.56
4.87
7.76
8.79
8.51
8.15
8.72
10.37
12.26
12.99
11.53
7.90
3.34
-0.30
-1.52
0.09
3.58
7.17
9.18
8.96
7.14
5.21
4.49
5.31
6.91
7.87
6.98
3.73
-1.33
-7.06
-12.53
-17.50
-22.35
-27.43
-32.59
-37.28
-41.35
-45.01
-49.02
-54.57
-62.67
-73.39
-85.31
-95.97
-102.82
-105.05
-103.09
-98.33
-92.65
-87.77
-84.58
-82.80
-81.44
-79.44
-77.00
-74.20
-70.64
-65.51
-58.09
-47.80
-34.17
-16.91
8.29
40.05
72.01
96.92
111.05
114.92
111.51
104.56
97.06
90.44
83.80
75.99
66.89
57.57
49.68
44.62
42.92
43.92
45.98
46.60
44.16
38.76
31.91
25.70
21.97
21.98
26.14
34.01
43.77
53.00
59.40
61.00
56.53
45.94
30.72
13.75
-1.59
-12.81
-19.09
-21.01
-20.25
-18.63
-17.31
-16.41
-15.05
-12.09
-7.03
-0.72
5.29
9.32
10.04
7.11
1.06
-7.16
-15.78
-23.62
-30.92
-38.43
-46.71
-55.40
-63.29
-68.97
-71.83
-72.81
-70.67
-66.52
-62.26
-58.98
-55.73
-50.29
-40.99
-28.07
-13.46
0.26
10.59
16.54
18.72
18.44
17.15
15.78
14.70
14.02
13.56
12.63
10.22
5.84
-0.84
-9.47
-18.96
-27.25
-31.63
-29.68
-20.56
-5.45
12.79
30.38
44.32
53.25
57.82
60.25
63.07
67.90
75.21
84.68
93.93
101.57
106.81
109.47
109.62
107.35
102.69
95.85
87.27
77.18
65.31
50.41
30.40
3.55
-30.26
-68.79
-107.80
-142.55
-169.81
-188.84
-201.35
-209.85
-215.73
-218.43
-215.99
-206.73
-190.83
-170.61
-149.25
-129.18
-110.71
-92.15
-71.40
-47.73
-22.77
0.26
18.25
30.16
37.55
43.61
51.39
62.07
74.54
86.29
94.80
98.91
99.20
97.30
94.94
93.07
91.75
90.51
88.88
86.76
84.36
81.87
79.08
75.35
69.97
62.75
54.29
45.94
39.10
34.36
30.76
25.98
17.50
4.22
-12.50
-29.13
-41.54
-47.24
-46.77
-43.35
-41.01
-42.23
-46.62
-51.26
-52.64
-48.66
-39.80
-28.57
-17.82
-9.10
-1.97
5.48
15.29
28.39
44.12
60.55
75.53
87.66
96.68
103.39
108.94
114.11
119.01
123.14
125.88
127.07
127.14
126.85
126.58
125.60
121.89
112.74
95.99
71.28
40.46
7.17
-24.58
-51.99
-74.31
-92.60
-108.53
-123.02
-135.59
-144.76
-149.22
-148.99
-145.76
-142.15
-140.28
-140.57
-141.48
-140.34
-134.84
-124.43
-110.61
-96.12
-83.49
-73.87
-66.71
-60.35
-53.26
-44.99
-36.38
-28.96
-23.93
-21.31
-19.96
-18.14
-14.50
-8.89
-2.31
3.74
8.19
11.11
13.70
17.54
23.58
31.44
39.45
45.44
47.97
47.03
44.05
41.21
40.21
41.47
44.01
46.12
46.45
44.78
42.13
40.17
40.13
42.03
44.74
46.68
46.94
45.90
44.92
45.48
48.08
51.83
54.78
55.03
51.74
45.56
38.27
31.71
26.93
23.77
21.17
17.85
13.05
6.80
-0.31
-7.46
-14.12
-20.31
-26.43
-32.95
-39.90
-46.67
-52.08
-54.85
-54.16
-50.13
-43.81
-36.86
-30.74
-26.15
-22.92
-20.24
-17.39
-14.23
-11.31
-9.46
-9.22
-10.40
-12.01
-12.83
-12.10
-10.00
-7.55
-6.06
-6.31
-8.13
-10.45
-11.95
-11.78
-10.05
-7.72
-5.94
-5.36
-5.74
-6.08
-5.21
-2.54
1.61
6.13
9.69
11.36
11.01
9.20
6.83
4.59
2.66
0.65
-2.07
-5.84
-10.46
-15.11
-18.71
-20.46
-20.21
-18.57
-16.58
-15.04
-14.23
-13.72
-12.77
-10.88
-8.16
-5.39
-3.52
-3.10
-3.80
-4.57
-4.21
-2.17
1.09
4.21
5.68
4.78
2.06
-0.87
-2.15
-0.69
3.11
7.69
11.14
12.28
11.29
9.54
8.71
9.83
12.67
15.92
18.09
18.40
17.24
15.93
15.86
17.60
20.52
23.13
23.88
22.12
18.41
14.28
11.38
10.49
11.22
12.27
12.25
10.50
7.47
4.46
2.84
3.31
5.47
8.11
9.99
10.46
9.78
8.90
8.66
9.32
10.34
10.75
9.85
7.71
5.21
3.63
3.95
6.21
9.47
12.31
13.51
12.70
10.46
8.03
6.56
6.42
7.13
7.63
7.01
5.06
2.57
0.85
1.00
3.23
6.63
9.52
10.30
8.37
4.36
0.07
-2.46
-1.88
1.82
7.39
13.00
17.12
19.11
19.26
18.33
16.84
14.70
11.42
6.77
1.33
-3.47
-5.96
-5.12
-1.34
3.62
7.41
8.34
6.12
1.98
-2.09
-4.39
-4.40
-2.87
-1.28
-0.91
-2.08
-4.10
-5.73
-5.90
-4.33
-1.64
1.03
2.81
3.46
3.51
3.81
4.91
6.60
8.01
8.02
6.07
2.59
-1.10
-3.39
-3.32
-1.10
1.89
3.89
3.68
1.29
-2.06
-4.64
-5.16
-3.51
-0.76
1.48
1.99
0.60
-1.75
-3.54
-3.55
-1.45
1.96
5.24
7.14
7.20
5.90
4.35
3.52
3.62
4.05
3.71
1.84
-1.44
-5.20
-8.16
-9.48
-9.31
-8.74
-9.11
-11.20
-14.77
-18.66
-21.39
-21.93
-20.30
-17.44
-14.88
-13.91
-15.11
-18.28
-22.63
-27.29
-31.83
-36.27
-40.88
-45.59
-49.68
-51.89
-50.94
-46.29
-38.76
-30.15
-22.44
-16.91
-13.51
-10.77
-6.40
1.61
14.03
30.02
47.87
66.25
85.03
105.48
129.40
157.72
189.33
221.10
248.69
268.77
280.07
283.10
278.97
268.33
251.18
227.62
198.93
167.25
136.29
109.89
89.87
75.08
62.11
46.91
26.39
-0.58
-34.49
-72.35
-108.34
-136.31
-152.47
-156.62
-151.87
-143.45
-136.98
-139.22
-152.27
-173.64
-199.26
-226.49
-254.87
-285.35
-319.13
-356.63
-399.44
-443.57
-479.77
-497.75
-491.02
-459.04
-406.85
-343.09
-256.29
-154.38
-57.70
16.63
65.13
92.94
105.86
107.79
102.05
93.21
82.70
74.12
72.02
78.74
92.64
109.72
126.76
143.35
158.98
172.67
186.01
202.19
223.61
249.97
278.37
304.31
322.58
328.25
316.78
288.08
246.87
200.65
156.50
118.90
89.15
65.91
46.82
29.61
14.26
2.59
-3.77
-5.08
-3.87
-3.64
-7.13
-14.94
-25.48
-35.65
-42.53
-45.07
-44.55
-43.71
-44.83
-48.32
-52.65
-55.53
-55.42
-52.63
-49.21
-47.90
-50.61
-57.25
-65.60
-72.32
-75.28
-74.42
-71.64
-69.67
-70.66
-75.24
-82.23
-89.16
-93.62
-95.41
-95.82
-96.21
-96.47
-94.86
-88.94
-77.13
-59.70
-39.21
-21.05
-10.72
-11.45
-23.10
-43.22
-68.91
-97.99
-129.07
-152.18
-158.55
-144.69
-115.27
-79.16
-43.83
-13.36
11.14
30.51
46.22
58.13
65.34
67.09
63.84
56.96
47.85
37.48
26.74
16.89
8.73
3.48
2.70
7.45
17.15
29.14
39.71
46.16
47.77
45.28
40.39
34.74
29.36
24.48
20.18
15.65
11.51
9.14
9.44
12.27
16.38
19.97
21.50
20.57
18.11
16.20
16.92
21.10
27.89
35.06
40.06
41.25
38.55
33.36
27.94
24.12
22.41
21.92
21.09
18.71
14.65
9.95
6.11
4.19
4.15
4.80
4.63
2.83
-0.28
-3.31
-4.63
-3.32
0.26
4.61
7.87
8.82
7.47
4.96
2.91
2.46
3.72
5.72
7.04
6.70
4.71
2.11
0.30
0.20
1.72
3.76
4.92
4.42
2.52
0.38
-0.59
0.33
2.73
5.27
6.43
5.49
2.85
-0.08
-1.72
-1.22
1.08
3.85
5.57
5.34
3.43
1.03
-0.45
-0.26
1.23
2.77
2.93
1.03
-2.48
-6.17
-8.45
-8.43
-6.43
-3.70
-1.72
-1.29
-2.16
-3.19
-3.03
-0.91
2.90
7.26
10.85
12.85
13.30
13.01
12.94
13.65
14.85
15.66
15.19
13.15
10.10
7.22
5.72
6.11
7.98
10.19
11.53
11.46
10.23
8.76
7.99
8.28
9.16
9.64
8.82
6.45
3.12
-0.06
-2.09
-2.67
-2.36
-2.22
-3.21
-5.57
-8.67
-11.35
-12.58
-12.05
-10.35
-8.69
-8.12
-8.94
-10.54
-11.82
-11.78
-10.23
-7.86
-5.88
-5.32
-6.37
-8.34
-9.96
-10.17
-8.66
-6.07
-3.64
-2.51
-3.08
-4.86
-6.65
-7.19
-5.95
-3.30
-0.34
1.81
2.72
2.78
2.92
3.98
6.16
8.80
10.88
11.65
11.13
10.07
9.54
10.24
11.99
13.89
14.76
13.85
11.29
7.95
5.07
3.60
3.68
4.64
5.35
4.91
3.12
0.56
-1.75
-2.93
-2.79
-1.96
-1.54
-2.43
-4.78
-7.86
-10.40
-11.44
-10.74
-8.98
-7.30
-6.58
-6.91
-7.54
-7.39
-5.74
-2.84
0.33
2.45
2.75
1.43
-0.44
-1.57
-1.17
0.59
2.68
3.91
3.65
2.13
0.34
-0.63
-0.17
1.42
3.22
4.16
3.75
2.34
0.92
0.61
1.97
4.62
7.46
9.16
8.85
6.59
3.30
0.31
-1.35
-1.45
-0.65
-0.01
-0.36
-1.83
-3.80
-5.31
-5.69
-5.01
-4.07
-3.93
-5.18
-7.52
-9.81
-10.68
-9.26
-5.80
-1.55
1.87
3.33
2.76
1.10
-0.23
-0.24
1.10
2.89
3.86
3.18
0.97
-1.75
-3.58
-3.64
-2.01
0.29
1.88
1.93
0.58
-1.23
-2.25
-1.82
-0.27
1.24
1.39
-0.46
-3.89
-7.55
-9.93
-10.11
-8.29
-5.59
-3.38
-2.48
-2.74
-3.22
-2.70
-0.62
2.70
6.06
8.12
8.10
6.24
3.60
1.50
0.80
1.44
2.57
3.06
2.25
0.30
-1.96
-3.43
-3.47
-2.28
-0.78
-0.10
-0.92
-3.08
-5.63
-7.41
-7.66
-6.49
-4.71
-3.36
-3.00
-3.44
-3.85
-3.26
-1.32
1.58
4.39
6.00
5.92
4.46
2.66
1.61
1.91
3.34
4.97
5.76
5.19
3.56
1.79
0.97
1.65
3.50
5.54
6.61
6.13
4.37
2.32
1.13
1.44
3.01
4.93
6.12
5.96
4.62
2.88
1.75
1.74
2.62
3.53
3.51
2.13
-0.29
-2.80
-4.41
-4.69
-4.08
-3.62
-4.32
-6.48
-9.49
-12.07
-12.97
-11.71
-8.85
-5.75
-3.78
-3.65
-5.04
-6.76
-7.48
-6.45
-3.87
-0.78
1.56
2.38
1.77
0.54
-0.28
-0.12
0.81
1.68
1.59
0.23
-1.90
-3.70
-4.09
-2.61
0.22
3.13
4.81
4.65
3.02
1.08
0.10
0.62
2.23
3.70
3.80
2.10
-0.75
-3.32
-4.17
-2.70
0.50
4.02
6.39
6.88
5.78
4.25
3.47
4.02
5.50
6.83
6.87
5.13
2.10
-1.07
-3.17
-3.72
-3.26
-3.05
-4.28
-7.30
-11.30
-14.72
-16.02
-14.69
-11.51
-8.18
-6.33
-6.67
-8.63
-10.70
-11.40
-10.14
-7.55
-5.11
-4.08
-4.83
-6.58
-7.87
-7.44
-5.08
-1.69
1.15
2.18
1.20
-0.83
-2.28
-1.83
0.72
4.36
7.38
8.41
7.12
4.41
1.89
0.96
1.97
4.01
5.45
4.86
1.90
-2.46
-6.42
-8.38
-7.82
-5.65
-3.66
-3.45
-5.46
-8.70
-11.36
-11.86
-9.83
-6.30
-3.11
-1.79
-2.67
-4.78
-6.39
-6.12
-3.69
-0.11
2.99
4.29
3.56
1.71
0.25
0.45
2.50
5.51
7.93
8.61
7.35
5.11
3.44
3.53
5.50
8.30
10.27
10.11
7.74
4.28
1.56
1.05
3.04
6.49
9.57
10.75
9.54
6.74
3.94
2.53
2.98
4.56
5.85
5.66
3.70
0.75
-1.78
-2.71
-1.74
0.40
2.31
2.87
1.74
-0.44
-2.49
-3.44
-3.14
-2.23
-1.76
-2.37
-3.87
-5.32
-5.58
-4.07
-1.19
1.85
3.71
3.74
2.21
0.23
-0.86
-0.28
1.84
4.51
6.42
6.85
5.88
4.42
3.59
4.05
5.52
6.87
6.71
4.30
0.20
-4.02
-6.57
-6.51
-4.21
-1.25
0.31
-1.04
-5.29
-10.70
-14.69
-15.31
-12.14
-6.32
0.08
4.75
5.87
3.10
-1.99
-6.88
-9.57
-9.31
-6.65
-2.71
0.60
1.23
-1.81
-7.54
-13.60
-17.74
-18.50
-15.03
-6.89
5.07
18.15
28.39
31.64
23.93
2.09
-34.31
-81.24
-125.38
-147.84
-136.68
-97.07
-46.00
-0.05
31.77
48.82
55.84
58.82
60.75
60.80
56.81
48.52
38.48
30.45
27.80
32.37
44.03
59.45
73.33
80.34
77.53
65.11
45.87
24.13
4.07
-11.62
-23.22
-32.71
-41.72
-49.99
-55.20
-54.37
-45.72
-29.83
-8.21
14.30
32.54
43.22
45.60
41.31
33.38
25.06
18.76
15.50
14.75
15.51
16.97
17.95
17.10
12.92
4.15
-10.03
-29.77
-54.52
-82.55
-107.27
-121.60
-121.90
-110.69
-93.96
-76.95
-62.32
-50.62
-41.13
-32.85
-25.73
-20.53
-18.23
-19.13
-22.47
-26.24
-27.59
-23.66
-12.76
3.49
22.02
38.75
50.52
56.35
57.17
54.83
50.83
45.81
39.31
31.00
21.57
12.81
6.75
4.36
5.02
6.98
8.49
8.68
6.74
3.61
0.97
-0.04
0.56
1.62
1.71
0.06
-3.02
-6.18
-7.76
-6.83
-3.73
0.20
3.36
4.91
5.04
4.75
5.16
6.74
8.90
10.38
10.06
7.79
4.50
1.81
1.06
2.59
5.52
8.15
8.96
7.49
4.62
2.11
1.63
3.68
7.22
10.29
11.07
9.04
5.29
2.02
1.25
3.61
7.96
11.98
13.67
12.39
9.32
6.85
7.32
11.81
19.57
28.41
35.78
39.88
40.26
37.99
34.81
32.31
31.24
31.37
32.05
32.91
34.29
37.16
42.50
50.33
59.14
66.09
68.09
63.12
51.11
34.07
15.06
-3.16
-19.23
-33.39
-46.60
-59.29
-70.67
-78.83
-81.80
-78.85
-71.03
-60.84
-50.90
-42.71
-36.14
-29.71
-21.84
-12.01
-1.21
8.55
15.41
18.72
19.29
18.99
19.60
21.85
25.05
27.64
28.24
26.63
23.98
22.38
23.62
28.18
34.87
41.35
45.44
46.14
43.99
40.60
37.59
35.51
33.62
30.44
24.91
17.34
9.44
3.71
2.07
4.83
10.57
16.74
21.15
22.92
22.73
22.20
22.71
24.38
25.92
25.24
20.74
12.29
1.33
-9.55
-18.03
-23.00
-24.98
-25.70
-26.91
-29.50
-33.04
-36.14
-37.34
-36.05
-32.94
-29.54
-27.41
-27.14
-28.13
-28.79
-27.60
-24.08
-19.17
-14.92
-13.17
-14.60
-18.21
-21.82
-23.27
-21.68
-17.94
-14.22
-12.63
-14.03
-17.55
-21.02
-22.40
-20.96
-17.74
-14.96
-14.64
-17.49
-22.42
-27.27
-29.99
-29.87
-27.86
-25.92
-25.69
-27.64
-30.80
-33.48
-34.43
-33.70
-32.58
-32.77
-35.17
-39.23
-43.25
-45.32
-44.65
-42.12
-39.96
-40.53
-44.89
-52.11
-59.73
-64.99
-66.51
-65.04
-63.22
-64.14
-69.67
-79.28
-90.12
-97.97
-98.78
-90.02
-71.17
-43.61
-9.85
27.19
64.75
100.63
133.28
161.56
184.58
201.38
210.98
212.49
205.52
190.63
169.43
144.28
117.79
92.16
68.98
49.27
33.67
22.63
16.12
13.31
12.48
11.41
8.24
2.27
-5.70
-13.78
-19.90
-22.90
-23.01
-21.55
-20.03
-19.32
-19.27
-18.89
-17.17
-13.78
-9.35
-5.07
-1.97
-0.30
0.55
1.64
3.70
6.54
9.07
9.80
7.88
3.70
-1.14
-4.53
-5.06
-2.84
0.50
2.61
1.85
-1.86
-6.96
-11.07
-12.35
-10.52
-7.01
-4.16
-3.82
-6.45
-10.81
-14.75
-16.44
-15.41
-12.78
-10.50
-10.11
-11.75
-14.11
-15.14
-13.47
-9.36
-4.62
-1.77
-2.47
-6.60
-12.27
-16.75
-18.07
-15.91
-11.80
-8.09
-6.57
-7.49
-9.46
-10.30
-8.35
-3.57
2.37
6.92
8.12
5.72
1.35
-2.38
-3.35
-1.11
2.87
6.16
6.90
4.84
1.46
-0.97
-0.84
1.82
5.35
7.41
6.46
2.61
-2.42
-6.22
-7.10
-4.98
-1.43
1.31
1.67
-0.40
-3.47
-5.55
-5.34
-3.05
-0.26
0.98
-0.48
-4.20
-8.32
-10.55
-9.57
-5.69
-0.80
2.70
3.28
1.03
-2.41
-4.82
-4.56
-1.55
2.92
6.89
9.03
9.27
8.81
9.31
11.72
15.66
19.46
21.25
20.14
16.90
13.69
12.96
16.00
22.13
29.07
34.09
35.60
33.87
30.89
29.10
29.94
33.10
36.78
38.84
38.11
35.04
31.38
29.11
29.32
31.62
34.51
36.32
36.38
35.35
34.94
36.93
42.10
49.71
57.77
64.21
68.18
70.64
73.86
80.00
89.28
99.01
104.18
99.49
81.89
52.04
14.18
-25.75
-62.63
-93.77
-118.93
-139.00
-154.36
-164.48
-168.46
-166.34
-159.87
-152.04
-145.79
-142.57
-141.81
-141.62
-140.01
-136.15
-130.71
-125.25
-121.17
-118.74
-116.66
-112.73
-104.82
-91.90
-74.95
-56.72
-40.89
-30.53
-26.71
-28.05
-31.40
-33.38
-31.99
-27.53
-22.11
-18.29
-17.46
-19.01
-20.59
-19.33
-13.42
-3.09
9.44
21.07
29.26
33.02
33.10
31.26
29.06
27.12
25.12
22.52
19.49
17.17
17.22
20.70
27.06
33.95
38.09
36.82
29.62
18.50
7.20
-0.65
-3.31
-1.72
1.12
1.86
-1.35
-8.01
-15.60
-21.09
-22.50
-19.81
-14.60
-8.88
-3.75
1.11
7.07
15.42
26.23
38.03
48.33
54.87
56.88
55.40
52.79
51.38
52.04
53.85
54.59
52.22
46.09
37.24
27.70
19.06
11.44
3.42
-7.03
-21.19
-38.75
-57.89
-76.17
-91.48
-102.85
-110.51
-115.42
-118.60
-120.58
-121.16
-119.66
-115.32
-107.96
-98.22
-87.58
-77.55
-69.02
-61.82
-54.84
-46.81
-37.17
-26.55
-16.40
-8.21
-2.54
1.22
4.53
8.79
14.54
21.14
27.22
31.51
33.60
34.08
34.20
35.02
36.69
38.34
38.56
36.26
31.46
25.29
19.48
15.45
13.64
13.25
12.66
10.39
5.85
-0.23
-6.25
-10.64
-12.64
-12.54
-11.45
-10.47
-10.05
-9.81
-8.59
-5.57
-1.09
3.52
6.49
6.67
4.23
0.63
-1.96
-1.15
3.84
11.78
20.20
27.00
31.42
34.30
37.45
42.66
51.72
64.30
77.85
89.21
96.62
100.48
102.80
105.91
111.29
120.58
132.92
145.07
153.53
156.84
156.21
154.34
153.79
155.93
162.81
174.01
186.42
195.95
199.55
195.58
182.99
161.15
116.86
50.74
-21.38
-78.97
-111.12
-119.63
-113.55
-102.95
-94.96
-92.05
-90.87
-87.77
-81.94
-75.42
-70.70
-68.93
-69.63
-71.05
-71.01
-66.61
-56.82
-43.09
-28.06
-13.50
0.03
12.20
21.95
27.39
27.14
20.36
6.87
-12.51
-35.65
-59.80
-82.40
-101.45
-112.72
-114.33
-106.47
-91.36
-72.60
-53.99
-38.43
-27.14
-19.63
-14.32
-9.80
-5.15
-0.52
3.08
4.35
2.26
-3.54
-12.61
-23.65
-34.96
-44.15
-48.64
-46.66
-37.99
-24.25
-8.43
6.07
16.51
21.53
21.60
18.52
14.23
10.13
6.68
3.77
1.10
-1.45
-3.69
-6.16
-8.72
-11.08
-13.09
-14.94
-17.19
-20.55
-25.37
-31.42
-37.88
-43.46
-47.40
-49.86
-51.88
-54.82
-59.39
-65.19
-70.76
-74.29
-74.44
-71.14
-65.50
-59.05
-52.71
-46.25
-38.56
-28.33
-15.17
0.07
15.48
28.90
39.10
46.20
51.48
56.58
62.51
69.12
75.22
79.23
80.09
77.93
73.97
70.14
68.02
68.19
69.97
71.80
72.09
70.02
65.91
60.90
56.26
52.60
49.51
45.88
40.68
33.74
25.95
18.96
14.27
12.42
12.65
13.28
12.65
9.88
5.26
-0.05
-4.82
-8.47
-11.36
-14.37
-18.23
-22.88
-27.44
-30.60
-31.46
-30.05
-27.37
-24.86
-23.60
-23.78
-24.73
-25.35
-24.86
-23.23
-21.20
-19.80
-19.73
-21.03
-23.13
-25.22
-26.87
-28.30
-30.33
-33.85
-39.36
-46.52
-54.43
-61.93
-68.32
-73.56
-78.19
-82.77
-87.29
-90.99
-92.57
-90.76
-84.95
-75.47
-63.43
-50.20
-36.80
-23.60
-10.36
3.45
18.23
33.91
49.91
65.34
79.16
90.51
98.97
104.79
108.82
112.33
116.49
121.86
128.27
134.84
140.36
143.81
144.58
142.45
137.41
129.53
119.05
106.58
93.24
80.48
69.53
60.93
54.23
48.27
41.70
33.70
24.23
13.97
3.90
-5.16
-12.87
-19.29
-24.64
-29.00
-32.20
-33.89
-33.93
-32.65
-30.83
-29.45
-29.04
-29.39
-29.51
-28.08
-24.22
-18.05
-10.79
-4.30
-0.15
0.95
-0.62
-3.76
-7.41
-11.07
-14.85
-19.13
-23.99
-29.01
-33.25
-35.86
-36.45
-35.39
-33.59
-32.01
-30.99
-30.13
-28.48
-25.06
-19.58
-12.61
-5.39
0.78
5.27
8.26
10.60
13.11
16.04
18.87
20.64
20.58
18.61
15.42
12.13
9.71
8.48
8.08
7.76
6.86
5.26
3.33
1.75
1.01
1.18
1.87
2.56
2.90
2.95
3.16
4.00
5.68
7.91
10.01
11.18
10.93
9.39
7.20
5.32
4.56
5.15
6.63
8.10
8.65
7.83
5.94
3.83
2.39
2.05
2.47
2.76
1.97
-0.27
-3.64
-7.20
-10.02
-11.61
-12.13
-12.23
-12.56
-13.36
-14.31
-14.78
-14.18
-12.44
-10.05
-7.84
-6.55
-6.33
-6.75
-6.98
-6.29
-4.48
-1.97
0.47
2.18
3.00
3.35
4.00
5.56
8.17
11.42
14.53
16.78
17.83
17.76
16.99
16.06
15.30
14.73
14.09
13.01
11.24
8.86
6.24
3.92
2.33
1.53
1.22
0.94
0.36
-0.46
-1.14
-1.27
-0.72
0.16
0.65
0.13
-1.57
-4.05
-6.45
-7.94
-8.14
-7.27
-6.04
-5.26
-5.37
-6.34
-7.66
-8.66
-8.85
-8.15
-6.86
-5.41
-4.08
-2.81
-1.21
1.13
4.31
7.96
11.29
13.55
14.42
14.24
13.91
14.39
16.19
19.08
22.24
24.67
25.79
25.66
24.94
24.43
24.60
25.26
25.78
25.46
23.96
21.56
18.98
16.93
15.66
14.72
13.17
10.06
4.89
-2.08
-10.02
-17.96
-25.23
-31.72
-37.65
-43.24
-48.21
-51.78
-52.95
-51.09
-46.52
-40.48
-34.57
-29.95
-26.77
-24.15
-21.02
-16.92
-12.67
-10.06
-10.83
-15.61
-23.34
-31.59
-37.71
-40.01
-38.38
-34.13
-29.15
-24.88
-21.83
-19.52
-17.08
-13.84
-9.76
-5.38
-1.48
1.46
3.59
5.57
8.13
11.65
15.71
19.31
21.30
21.15
19.26
17.01
15.96
17.25
20.85
25.53
29.40
30.76
28.88
24.27
18.42
12.96
8.96
6.58
5.14
3.83
2.35
1.12
0.90
2.15
4.51
6.72
7.19
4.86
-0.06
-6.16
-11.52
-14.89
-16.55
-18.32
-22.49
-30.30
-40.74
-50.71
-56.41
-55.32
-47.68
-36.45
-25.89
-19.29
-17.46
-18.64
-19.88
-19.00
-15.81
-11.76
-8.74
-7.82
-8.62
-9.78
-9.98
-8.93
-7.57
-7.69
-10.43
-15.69
-22.31
-28.71
-33.34
-35.24
-34.41
-31.84
-29.48
-28.84
-30.42
-34.08
-39.13
-44.52
-49.37
-53.52
-57.54
-62.51
-67.93
-71.69
-71.60
-66.76
-57.91
-47.21
-37.46
-31.06
-29.79
-32.57
-36.12
-36.92
-32.17
-19.71
1.68
31.75
71.77
112.71
141.92
153.11
148.76
135.24
118.42
102.11
87.98
76.71
67.96
62.09
58.57
53.90
42.43
19.94
-13.36
-53.00
-90.97
-119.74
-133.46
-129.88
-110.94
-80.99
-44.38
-4.54
35.49
72.38
99.70
112.17
109.47
95.57
76.58
58.27
44.28
35.22
29.53
24.58
18.83
12.48
6.62
2.55
1.33
3.10
6.84
10.65
12.35
10.82
6.47
0.69
-4.83
-8.64
-9.79
-7.84
-2.80
4.68
13.17
20.16
22.24
16.45
1.90
-19.21
-41.87
-59.77
-68.75
-68.15
-60.44
-49.56
-38.75
-29.64
-22.49
-17.27
-14.55
-15.63
-21.64
-32.24
-45.20
-56.71
-62.20
-58.01
-43.03
-19.39
8.07
33.40
51.70
60.76
61.39
56.57
49.60
42.69
36.35
30.08
23.12
15.47
7.97
2.01
-1.16
-1.12
1.55
5.21
8.16
9.15
7.98
5.72
4.12
4.80
8.50
14.99
21.71
26.75
28.89
28.19
25.84
23.53
22.69
23.68
25.72
27.26
27.04
24.60
20.55
16.34
13.43
12.56
13.37
14.67
15.08
14.08
12.02
9.89
8.80
9.06
10.11
10.80
10.14
7.87
4.77
2.15
1.13
2.15
4.74
7.71
9.82
10.39
9.56
8.19
7.38
7.84
9.56
11.81
13.45
13.60
12.05
9.42
6.82
5.23
5.02
5.79
6.70
7.18
7.21
7.40
8.59
11.18
14.81
18.51
21.27
22.64
23.04
23.44
24.89
27.83
32.01
36.66
41.05
45.01
49.00
53.86
60.42
68.90
78.74
88.68
97.12
102.81
105.35
105.59
105.40
106.89
111.37
118.59
126.68
133.13
136.00
135.07
131.94
129.03
128.04
128.67
128.48
124.06
112.73
94.07
70.18
44.64
20.74
0.18
-17.32
-33.02
-48.06
-62.45
-75.21
-85.36
-93.06
-100.03
-108.93
-121.87
-139.08
-158.35
-175.70
-187.08
-190.26
-185.80
-176.91
-167.83
-162.07
-160.80
-162.65
-164.70
-164.19
-159.75
-151.70
-141.27
-129.48
-116.64
-102.53
-87.52
-73.43
-63.29
-60.07
-64.91
-76.20
-89.91
-101.31
-106.98
-106.17
-100.60
-93.12
-85.96
-79.75
-73.63
-66.20
-56.74
-45.57
-33.85
-22.61
-11.88
-0.76
12.06
27.16
43.72
59.34
70.80
75.34
71.83
61.17
45.99
29.45
13.99
0.40
-12.26
-25.66
-40.99
-57.86
-74.10
-86.70
-93.18
-92.96
-87.71
-80.56
-74.71
-71.99
-72.35
-74.21
-75.69
-75.63
-74.10
-71.85
-69.32
-66.03
-60.51
-51.11
-37.21
-19.83
-1.44
15.17
28.26
37.82
45.29
52.51
60.55
69.16
77.27
84.11
90.08
96.68
105.64
117.63
131.53
144.69
154.11
157.99
156.60
151.83
146.09
140.80
135.39
127.52
114.24
93.52
65.62
33.29
1.10
-26.08
-44.61
-53.18
-52.97
-46.89
-38.40
-30.47
-24.92
-22.46
-23.21
-27.04
-33.76
-42.86
-53.19
-63.04
-70.41
-73.70
-72.33
-66.90
-58.90
-50.00
-41.19
-32.57
-23.37
-12.72
-0.43
12.38
23.48
30.37
31.60
27.52
20.28
12.72
6.86
2.92
-0.63
-5.77
-13.41
-22.62
-30.98
-36.00
-36.63
-33.85
-29.97
-27.24
-26.55
-27.08
-27.06
-24.84
-19.78
-12.24
-2.98
7.63
19.92
34.61
52.26
72.63
94.51
115.89
134.50
148.32
156.14
157.56
153.06
143.58
130.06
113.18
93.39
71.14
47.22
22.82
-0.54
-21.42
-38.73
-51.72
-59.74
-62.11
-58.44
-49.46
-37.63
-27.20
-23.35
-30.36
-49.94
-80.16
-115.87
-150.69
-179.34
-199.54
-212.49
-221.77
-231.31
-243.32
-256.98
-268.42
-272.00
-262.34
-236.56
-195.79
-145.34
-93.22
-47.31
-12.27
12.35
31.40
51.91
79.88
117.78
163.57
211.75
255.76
290.85
315.34
329.66
334.90
331.44
319.13
297.41
266.63
228.42
186.04
143.29
102.60
64.71
29.83
-0.60
-23.58
-35.97
-36.73
-28.11
-15.74
-7.63
-11.03
-29.38
-58.76
-87.89
-103.66
-100.79
-83.71
-60.24
-36.61
-15.36
3.83
22.23
40.04
55.76
67.14
72.97
74.30
72.91
70.44
67.64
64.17
58.72
49.28
34.08
12.80
-11.11
-34.64
-55.64
-73.01
-86.51
-96.45
-103.46
-108.12
-110.65
-110.74
-108.70
-105.27
-101.39
-98.00
-96.15
-96.97
-101.06
-107.49
-112.92
-112.71
-102.23
-79.29
-45.82
-7.72
27.29
52.85
66.46
69.92
67.34
62.81
58.56
54.71
50.44
45.41
40.40
36.80
35.57
36.44
38.03
38.76
37.34
33.73
28.91
24.40
21.49
20.66
21.37
22.45
22.66
21.33
18.66
15.55
13.10
12.04
12.37
13.34
13.95
13.37
11.57
9.19
7.31
6.82
7.90
9.92
11.71
12.13
10.72
7.98
5.17
3.74
4.55
7.34
10.90
13.45
13.72
11.42
7.44
3.44
0.82
0.44
2.30
6.08
10.98
15.39
16.62
11.16
-3.78
-28.40
-58.98
-88.80
-110.51
-119.50
-115.80
-103.53
-88.15
-73.40
-59.76
-45.06
-28.12
-9.58
7.61
19.95
25.78
26.43
25.68
27.35
33.55
43.44
54.06
61.81
63.85
59.08
47.92
31.94
13.77
-3.20
-15.42
-20.01
-16.15
-5.82
6.88
16.77
20.39
17.39
10.21
2.28
-3.94
-8.00
-11.04
-13.99
-16.28
-15.61
-9.12
4.66
24.34
45.61
62.41
69.15
63.16
45.64
21.28
-3.74
-24.22
-37.43
-43.47
-44.41
-42.92
-41.33
-41.06
-42.33
-44.01
-43.72
-38.13
-24.42
-1.95
26.51
55.20
77.47
88.67
88.38
80.23
69.99
62.56
59.57
59.21
57.66
51.36
38.99
21.54
1.69
-17.41
-33.20
-44.10
-49.51
-49.44
-44.09
-33.96
-20.34
-5.71
6.50
12.74
10.31
-1.41
-20.64
-43.13
-63.48
-75.48
-75.79
-64.89
-46.23
-24.37
-3.08
15.41
30.57
42.88
52.99
61.18
67.47
72.00
75.11
77.35
79.20
81.30
83.97
87.32
90.95
94.22
96.73
97.95
97.92
95.77
90.97
83.12
71.94
57.29
39.31
18.83
-3.33
-24.94
-44.92
-62.45
-76.93
-88.15
-96.20
-101.50
-104.02
-104.40
-103.29
-101.47
-99.45
-97.38
-95.27
-92.81
-91.62
-89.37
-84.76
-76.82
-65.07
-49.38
-30.10
-8.14
14.99
37.16
56.96
72.17
81.05
82.39
75.64
61.25
40.28
16.07
-9.61
-34.38
-56.94
-76.34
-91.98
-103.84
-111.90
-116.29
-117.26
-118.10
-117.49
-114.82
-109.62
-101.45
-90.32
-75.93
-57.98
-36.48
-11.85
15.93
45.98
77.39
110.67
143.17
172.80
198.10
218.15
232.42
241.91
246.97
247.98
245.66
240.12
232.05
222.23
211.36
200.12
189.43
179.80
171.73
165.52
160.44
155.82
150.87
144.78
136.89
126.91
114.37
98.43
82.00
65.70
49.46
32.72
14.72
-4.94
-26.08
-48.15
-70.34
-92.14
-114.40
-138.30
-165.12
-195.64
-229.50
-265.10
-300.08
-331.91
-358.86
-380.91
-399.14
-415.49
-432.50
-452.97
-479.43
-513.01
-552.07
-591.40
-623.27
-639.24
-633.42
-604.99
-558.52
-502.15
-444.27
-390.62
-343.25
-301.54
-263.99
-229.73
-198.90
-171.85
-148.24
-126.64
-105.11
-82.18
-57.61
-32.33
-8.02
13.88
32.87
49.55
65.40
81.94
100.15
120.06
140.71
160.70
178.65
193.81
206.06
215.81
223.57
229.51
233.33
234.27
231.41
224.01
211.82
195.11
174.61
151.22
125.90
99.43
72.44
45.47
19.02
-6.27
-29.84
-51.07
-69.53
-84.96
-97.30
-106.70
-113.40
-117.73
-120.00
-120.53
-119.57
-117.41
-114.28
-110.36
-105.86
-100.90
-95.63
-90.14
-84.53
-78.86
-73.22
-67.63
-62.13
-56.75
-51.47
-46.28
-41.14
-36.04
-30.95
-25.86
-20.78
-15.71
-10.69
-5.77
-1.00
3.56
7.83
11.76
15.29
18.37
20.97
23.07
24.69
25.85
26.60
26.98
27.09
26.99
26.78
26.55
26.38
26.34
26.47
26.80
27.33
28.03
28.86
29.77
30.75
31.79
32.88
34.03
35.20
36.33
37.33
38.12
38.67
39.02
39.24
39.45
39.76
40.20
40.70
41.10
41.24
40.98
40.25
39.17
37.89
36.62
35.48
34.46
33.42
32.18
30.69
29.09
27.79
27.32
28.12
30.32
33.63
37.38
40.81
43.45
45.40
47.35
50.34
55.33
62.69
71.95
81.96
91.35
99.23
105.66
111.80
119.42
130.20
144.84
162.73
182.24
201.30
218.41
233.28
246.94
261.40
279.18
302.65
333.40
371.14
412.78
452.17
481.19
492.20
481.18
449.84
405.56
358.97
320.19
295.31
284.96
284.92
288.57
289.41
282.92
267.24
242.93
212.19
178.04
143.64
111.66
83.92
61.30
43.90
31.30
22.76
17.32
13.70
10.19
4.75
-4.76
-20.00
-41.66
-69.18
-100.99
-134.98
-168.81
-199.91
-225.32
-241.82
-246.84
-240.11
-224.93
-208.04
-197.48
-199.11
-213.86
-237.08
-260.52
-276.04
-278.91
-269.04
-249.59
-224.25
-195.09
-161.93
-123.60
-79.74
-31.75
17.54
65.15
109.11
148.51
182.72
210.60
230.28
239.97
239.35
230.46
216.95
202.12
187.17
171.10
152.46
131.91
113.43
102.99
105.24
120.01
141.07
158.20
161.74
147.15
117.12
80.02
45.52
20.01
4.47
-4.56
-11.80
-19.95
-28.41
-33.96
-32.83
-22.72
-3.95
20.94
48.09
73.50
93.79
106.77
111.68
109.15
100.64
87.66
71.13
51.46
29.22
6.07
-15.27
-32.12
-43.50
-51.01
-58.26
-68.70
-83.30
-99.60
-112.79
-118.19
-113.74
-101.08
-84.81
-70.40
-61.97
-60.95
-65.94
-73.81
-81.14
-85.36
-85.44
-81.82
-75.73
-68.48
-60.57
-51.46
-39.67
-23.60
-2.55
22.30
47.51
68.15
79.57
79.62
70.23
57.37
48.79
50.83
65.38
88.67
112.88
129.50
132.91
122.43
101.83
77.02
53.40
34.12
19.92
9.94
2.79
-2.85
-8.17
-14.19
-21.68
-30.64
-40.09
-48.38
-53.80
-55.70
-55.01
-54.02
-55.44
-61.18
-71.25
-83.26
-93.02
-96.01
-89.36
-73.47
-52.30
-32.12
-18.98
-16.09
-22.25
-32.31
-39.02
-35.72
-18.48
12.74
54.03
98.51
138.07
165.82
178.40
177.54
169.74
164.22
169.30
189.08
221.79
260.36
295.17
317.44
322.33
310.25
286.24
257.81
232.08
213.40
202.28
196.05
190.59
182.42
169.76
152.46
131.42
107.91
83.68
61.31
44.17
35.48
36.87
47.15
62.19
76.34
84.62
84.62
77.18
65.66
54.11
45.47
40.57
38.20
36.12
32.29
25.65
16.38
5.51
-5.90
-17.15
-28.14
-39.10
-50.18
-61.22
-71.86
-81.73
-90.93
-100.11
-110.34
-122.73
-137.97
-155.98
-175.95
-196.61
-216.82
-236.17
-255.13
-274.94
-297.07
-322.46
-350.92
-381.01
-410.56
-437.36
-459.90
-477.77
-491.52
-502.38
-512.00
-522.39
-535.56
-552.66
-572.61
-591.35
-602.24
-598.18
-574.58
-531.69
-475.01
-413.42
-355.80
-308.17
-272.60
-248.06
-232.20
-223.01
-219.11
-219.19
-221.10
-221.61
-217.17
-205.19
-184.88
-157.46
-125.77
-93.24
-62.98
-37.20
-17.13
-3.37
3.77
4.02
-2.36
-14.75
-31.93
-51.98
-72.47
-90.65
-104.08
-111.16
-111.36
-104.92
-92.98
-77.09
-58.87
-39.73
-20.59
-1.93
15.97
32.91
49.43
65.72
81.46
95.72
107.33
115.43
119.73
120.42
117.97
115.26
114.55
116.62
120.48
124.14
126.08
126.09
125.20
124.97
131.90
150.76
182.94
225.66
273.56
321.81
368.06
412.51
456.57
509.90
579.84
668.49
771.17
878.79
982.24
1075.71
1157.16
1227.29
1299.38
1385.15
1489.72
1607.90
1725.73
1826.60
1897.65
1933.30
1866.84
1662.03
1319.32
882.73
421.04
-4.10
-357.84
-631.27
-831.08
-969.86
-1050.18
-1076.02
-1055.66
-1003.20
-935.76
-868.03
-808.64
-760.08
-722.33
-685.84
-642.80
-590.15
-530.92
-471.95
-419.61
-376.86
-343.92
-319.40
-296.50
-270.16
-238.66
-204.28
-171.83
-146.25
-126.78
-112.54
-102.76
-94.67
-86.82
-79.21
-72.99
-69.50
-69.12
-71.15
-75.14
-81.32
-89.97
-101.96
-118.36
-139.82
-165.96
-195.19
-224.58
-250.73
-270.41
-281.69
-284.95
-283.18
-280.95
-282.47
-289.19
-298.52
-304.78
-301.16
-282.84
-249.41
-205.37
-158.64
-118.04
-90.39
-78.53
-80.85
-91.90
-104.41
-111.92
-111.33
-103.83
-93.99
-87.34
-87.22
-93.17
-101.05
-105.25
-101.72
-89.72
-72.03
-53.62
-39.54
-33.43
-37.16
-50.93
-73.98
-104.91
-141.27
-179.21
-213.18
-236.66
-244.21
-234.00
-209.53
-179.73
-156.76
-151.79
-170.64
-210.92
-262.87
-312.83
-348.35
-362.29
-353.89
-327.14
-287.46
-239.59
-187.24
-134.85
-89.13
-58.25
-48.85
-62.32
-92.30
-126.09
-149.75
-153.80
-137.07
-106.28
-72.15
-44.44
-28.57
-25.16
-31.51
-44.28
-60.46
-77.49
-92.78
-103.44
-106.93
-101.77
-88.51
-69.86
-50.06
-33.51
-23.31
-20.19
-22.09
-25.03
-24.60
-17.86
-4.88
11.49
26.99
37.94
43.09
44.04
44.08
46.53
53.16
63.79
76.84
90.51
103.62
115.90
127.68
139.08
149.68
158.61
165.01
168.53
169.54
168.93
167.67
166.32
164.89
162.92
159.87
155.46
149.88
143.68
137.49
131.69
126.21
120.59
114.22
106.71
98.14
89.09
80.49
73.24
67.92
64.66
63.20
63.12
64.19
66.48
70.37
76.32
84.63
95.21
107.54
120.84
134.33
147.56
160.63
174.29
189.87
208.98
232.82
261.32
292.69
323.36
348.84
365.02
369.32
361.40
343.01
317.27
287.70
257.46
229.01
203.92
182.86
165.62
151.14
137.90
124.65
110.91
97.18
84.60
74.11
65.86
59.00
52.23
44.68
36.39
28.33
21.61
16.60
12.61
8.17
2.11
-5.58
-13.57
-19.90
-23.07
-23.02
-21.12
-19.50
-19.85
-22.71
-27.47
-32.94
-38.26
-43.52
-49.56
-57.44
-67.45
-78.59
-88.88
-96.14
-99.03
-97.67
-93.39
-87.92
-82.35
-76.61
-69.77
-60.91
-50.02
-38.56
-28.97
-23.81
-24.60
-31.26
-42.23
-55.16
-67.98
-79.69
-90.44
-101.11
-112.19
-123.10
-132.07
-136.70
-135.04
-126.52
-112.21
-94.33
-75.26
-56.66
-39.18
-22.70
-6.96
7.96
21.49
32.80
41.25
46.48
48.37
46.73
41.05
30.45
14.01
-8.62
-36.52
-67.25
-97.26
-122.80
-141.16
-151.60
-155.44
-155.38
-154.06
-152.84
-151.43
-148.38
-142.02
-131.55
-117.45
-101.41
-85.54
-71.65
-60.61
-52.38
-46.44
-42.25
-39.50
-38.03
-37.39
-36.71
-34.77
-30.05
-22.02
-11.89
-2.45
2.74
1.20
-7.33
-20.49
-34.18
-42.97
-43.38
-35.41
-22.79
-11.37
-6.41
-10.09
-20.45
-32.03
-35.09
-20.90
15.36
73.16
147.22
229.63
311.93
386.21
445.42
488.02
514.01
524.72
522.68
512.06
499.09
490.90
493.05
507.75
539.12
588.40
653.81
729.99
808.64
880.21
936.13
970.45
945.85
841.06
655.89
415.56
160.19
-74.05
-267.33
-415.74
-524.49
-601.34
-647.78
-664.97
-656.18
-628.51
-591.59
-554.61
-523.28
-499.49
-482.54
-466.26
-445.11
-416.34
-381.25
-344.00
-309.47
-280.37
-257.08
-238.55
-220.59
-199.65
-174.36
-146.12
-118.16
-94.77
-78.50
-70.35
-70.22
-76.19
-86.23
-98.91
-113.60
-130.10
-148.57
-167.50
-184.64
-197.58
-203.95
-202.19
-191.91
-173.87
-146.23
-112.95
-77.58
-42.76
-10.20
18.84
43.68
64.00
79.78
91.16
98.00
101.38
102.50
102.51
101.04
97.13
89.56
77.32
59.81
37.23
11.99
-12.56
-33.37
-48.81
-58.66
-63.91
-66.09
-67.23
-68.50
-69.17
-67.48
-62.11
-53.22
-42.30
-31.68
-24.00
-22.77
-30.78
-48.92
-76.12
-107.38
-136.69
-157.33
-163.50
-146.81
-108.05
-57.98
-11.98
18.36
29.86
26.60
15.30
1.23
-13.22
-28.96
-46.72
-65.21
-81.31
-92.88
-97.85
-95.73
-87.43
-74.21
-57.62
-37.97
-14.16
15.44
49.12
83.84
115.83
141.72
159.65
168.81
170.10
165.75
158.36
149.54
140.75
132.46
124.51
117.08
110.17
104.03
98.94
97.63
97.78
97.98
97.37
95.73
94.27
94.46
97.68
104.57
114.66
126.17
137.58
147.52
155.19
161.47
167.75
175.95
188.16
206.19
230.48
260.27
292.98
318.72
329.73
320.75
290.97
244.71
189.89
135.04
86.84
48.41
19.50
-0.95
-14.15
-20.71
-20.95
-15.69
-6.82
3.31
12.54
19.61
24.99
29.82
35.25
41.84
49.22
56.28
61.72
64.58
64.47
62.09
58.41
54.26
50.11
45.88
41.15
35.43
28.40
20.04
10.79
1.22
-8.17
-17.01
-24.97
-31.89
-37.74
-42.68
-47.21
-52.04
-58.07
-66.09
-76.47
-89.02
-103.14
-118.13
-133.59
-149.84
-167.80
-188.74
-213.61
-242.52
-274.54
-308.03
-341.01
-371.98
-400.27
-426.11
-450.58
-475.56
-503.54
-536.98
-576.93
-621.43
-664.72
-697.94
-711.79
-700.06
-662.21
-603.78
-534.12
-462.70
-395.86
-335.57
-280.39
-227.81
-176.34
-126.20
-78.77
-35.17
4.48
41.22
76.43
111.16
145.81
180.40
215.46
252.12
291.40
332.41
371.08
400.03
410.72
396.78
356.87
295.78
222.58
147.47
78.39
19.37
-29.17
-68.89
-101.92
-130.16
-155.06
-177.75
-198.70
-217.14
-230.92
-237.04
-232.86
-217.28
-191.47
-158.85
-124.12
-92.06
-65.93
-46.49
-31.95
-18.61
-2.43
19.10
45.72
74.11
98.67
113.72
115.53
103.97
82.74
58.19
37.23
25.31
25.17
36.80
58.30
87.23
121.46
159.16
198.21
235.83
268.45
292.79
306.92
310.98
307.15
298.63
288.23
277.39
266.01
253.25
238.63
222.71
207.12
193.61
182.88
174.12
165.19
153.83
138.78
120.45
100.72
82.04
66.46
54.97
47.60
43.84
43.05
44.50
47.29
50.09
51.13
48.86
42.45
32.37
20.27
8.45
-1.19
-7.92
-12.59
-17.18
-23.69
-33.15
-45.01
-57.51
-68.51
-76.43
-80.75
-82.00
-81.16
-78.95
-75.59
-70.65
-63.51
-53.75
-41.51
-27.50
-12.94
0.80
12.57
21.72
28.23
32.36
34.28
33.69
29.75
21.55
8.68
-8.17
-27.15
-45.68
-61.33
-72.56
-78.96
-81.03
-79.65
-75.40
-68.54
-58.95
-46.52
-31.41
-14.06
4.84
24.39
43.45
60.61
74.23
82.82
85.63
83.09
76.80
69.02
61.88
56.69
53.68
52.21
51.16
49.43
46.01
40.11
31.24
19.32
4.91
-10.79
-26.19
-39.65
-49.87
-56.05
-57.80
-55.18
-48.67
-39.36
-28.89
-19.16
-11.71
-7.21
-5.17
-4.14
-2.31
1.75
8.65
18.02
28.74
39.37
48.69
55.96
60.76
62.83
61.67
56.72
47.69
35.19
20.93
7.28
-3.61
-10.88
-15.30
-18.76
-23.08
-28.92
-35.23
-39.71
-40.10
-35.25
-25.99
-14.77
-4.87
0.85
0.95
-4.33
-13.04
-22.28
-29.02
-30.79
-26.18
-15.07
1.37
20.77
39.84
55.12
63.81
64.77
59.12
49.86
40.95
35.58
34.92
37.65
40.97
42.17
40.05
35.60
31.33
30.03
33.35
41.39
52.67
65.24
77.09
86.78
93.44
96.60
96.25
92.98
88.08
83.17
79.53
77.36
75.50
71.68
63.11
47.35
23.17
-8.87
-46.27
-85.16
-121.53
-152.58
-177.50
-197.27
-213.07
-224.60
-229.33
-223.51
-204.42
-172.69
-133.04
-92.64
-58.22
-33.15
-16.84
-5.96
3.12
12.62
23.20
34.66
46.65
58.47
68.26
72.46
66.66
47.36
13.76
-31.64
-84.13
-138.87
-192.52
-243.53
-291.10
-333.72
-368.43
-391.28
-398.76
-389.22
-363.55
-324.88
-277.61
-226.28
-174.69
-125.62
-80.78
-40.87
-5.86
25.07
53.51
81.73
112.10
146.20
183.67
221.74
255.46
279.16
288.61
282.64
263.67
236.64
207.02
178.82
153.75
131.59
111.29
92.37
75.31
61.33
51.67
46.90
46.47
48.75
51.60
52.96
51.66
47.56
41.38
34.27
27.06
19.99
12.62
4.28
-5.47
-16.49
-28.05
-39.12
-48.57
-55.60
-59.84
-61.40
-60.73
-58.41
-54.89
-50.54
-45.94
-41.91
-39.53
-39.69
-42.56
-47.23
-51.98
-54.89
-54.69
-51.28
-45.53
-38.71
-31.90
-25.53
-19.37
-12.78
-5.01
4.62
16.31
29.50
42.65
53.56
60.29
62.04
59.74
55.71
52.58
51.99
53.94
57.11
59.74
60.78
60.09
58.16
55.34
51.43
45.87
38.46
29.87
21.61
15.42
12.44
12.75
15.42
19.07
22.28
23.84
22.85
18.87
12.08
3.27
-6.40
-15.96
-24.88
-32.93
-39.63
-43.78
-43.64
-37.92
-26.77
-12.33
2.10
13.61
21.06
25.42
28.82
32.94
38.14
43.55
47.99
50.91
52.54
53.30
53.22
51.88
48.65
43.28
36.06
27.70
18.96
10.58
3.33
-2.01
-4.81
-5.16
-3.90
-2.35
-1.74
-2.46
-3.91
-4.91
-4.51
-2.46
0.69
4.24
7.93
12.05
17.13
23.20
29.52
34.73
37.70
38.13
36.87
35.52
35.59
37.81
41.64
45.52
47.62
46.79
43.00
37.22
30.63
23.80
16.57
8.23
-1.60
-12.40
-22.83
-31.42
-37.44
-41.40
-44.87
-49.38
-55.46
-62.28
-68.08
-71.32
-71.50
-69.35
-66.21
-63.29
-60.96
-58.74
-55.69
-50.95
-44.26
-36.16
-27.70
-20.09
-14.09
-9.83
-6.85
-4.33
-1.50
1.94
5.67
8.83
10.33
9.51
6.53
2.36
-1.67
-4.46
-5.81
-6.25
-6.60
-7.29
-7.93
-7.42
-4.65
0.74
8.07
15.83
22.54
27.44
30.70
33.20
36.10
40.21
45.98
53.74
64.05
77.77
95.73
118.08
143.66
169.92
193.47
211.10
220.69
221.44
213.43
196.97
172.21
139.57
100.44
57.70
15.52
-21.98
-52.34
-75.76
-94.80
-113.04
-133.26
-156.15
-180.28
-202.90
-221.31
-233.83
-239.98
-240.06
-234.71
-224.46
-209.79
-191.17
-169.10
-144.00
-116.15
-85.79
-53.56
-20.76
10.70
38.74
61.82
79.42
92.04
100.87
107.11
111.58
114.67
116.35
116.42
114.61
110.73
104.77
97.04
88.12
78.61
68.82
58.56
47.24
34.30
19.37
2.45
-16.05
-35.28
-53.91
-70.27
-82.65
-89.97
-92.24
-90.70
-87.21
-83.45
-80.34
-77.91
-75.82
-73.77
-71.72
-69.57
-66.92
-62.87
-56.73
-48.54
-39.48
-31.53
-26.73
-26.19
-29.45
-34.56
-38.74
-39.45
-35.34
-26.76
-15.49
-4.03
5.60
12.65
17.72
22.11
26.77
31.69
36.05
38.83
39.58
38.72
37.22
35.93
35.22
34.82
34.14
32.67
30.30
27.37
24.48
22.13
20.61
19.85
19.47
18.83
17.37
14.91
11.80
8.88
7.09
6.89
8.08
9.90
11.45
12.23
12.14
11.37
9.87
7.27
2.98
-3.19
-10.80
-18.73
-25.51
-30.01
-31.61
-30.51
-27.52
-23.80
-20.42
-18.03
-16.71
-15.99
-15.18
-13.67
-11.33
-8.63
-6.45
-5.52
-5.98
-7.25
-8.30
-8.26
-6.79
-4.09
-0.67
3.02
6.79
10.64
14.49
18.04
20.67
21.74
20.99
18.68
15.56
12.56
10.32
9.08
8.72
8.88
9.24
9.42
8.91
7.08
3.41
-2.16
-8.91
-15.20
-19.04
-18.88
-14.37
-6.68
1.92
9.03
13.08
13.98
13.01
12.00
12.44
14.78
18.37
21.91
24.18
24.62
23.67
22.55
22.64
24.99
29.84
36.49
43.48
49.04
51.78
51.14
47.43
41.56
34.37
26.32
17.36
7.54
-2.46
-11.21
-16.97
-18.61
-16.47
-12.44
-9.11
-8.56
-11.10
-15.22
-18.50
-18.85
-15.54
-9.44
-2.37
3.70
7.46
8.61
7.67
5.54
2.87
-0.26
-4.24
-9.41
-15.60
-21.84
-26.65
-28.91
-28.44
-26.35
-24.46
-24.22
-25.68
-27.51
-27.79
-25.21
-20.11
-14.39
-10.58
-10.58
-14.59
-21.02
-27.25
-30.84
-30.48
-26.53
-20.60
-14.81
-10.84
-9.26
-9.41
-9.83
-8.93
-5.65
-0.14
6.58
12.98
17.86
20.85
22.42
23.48
24.71
26.11
27.05
26.93
25.76
24.24
23.52
24.34
26.63
29.35
31.07
30.56
27.48
22.45
16.57
11.06
6.62
3.51
1.60
0.86
1.26
2.69
4.67
6.12
5.64
2.02
-4.94
-14.19
-23.60
-30.85
-34.40
-34.17
-31.68
-29.54
-30.40
-35.93
-46.17
-59.52
-73.26
-84.51
-91.01
-91.59
-86.02
-74.60
-57.92
-36.98
-13.54
9.82
29.90
43.99
50.87
51.35
47.82
43.06
38.80
35.03
30.17
22.15
9.90
-5.60
-21.16
-32.44
-35.87
-30.75
-20.40
-11.85
-13.48
-31.83
-68.72
-119.98
-176.62
-227.66
-263.42
-277.87
-269.74
-242.16
-201.37
-155.01
-110.60
-73.84
-47.56
-31.18
-21.01
-11.60
2.53
25.07
56.76
94.97
134.44
168.92
193.05
204.23
203.24
193.78
181.07
170.04
164.03
164.47
171.03
181.96
194.37
204.69
209.48
206.46
195.54
178.86
160.04
142.52
128.15
116.82
106.97
96.86
85.44
72.46
58.11
42.40
25.24
6.81
-11.93
-29.19
-42.93
-51.80
-55.74
-55.93
-54.28
-52.70
-52.86
-56.00
-63.16
-75.19
-92.49
-114.64
-139.89
-165.12
-186.33
-199.66
-202.70
-195.79
-182.22
-167.24
-156.04
-151.37
-152.43
-155.41
-155.65
-149.94
-137.92
-121.50
-103.23
-84.71
-66.02
-46.61
-26.36
-6.20
12.62
29.52
45.28
61.61
79.84
99.83
119.66
136.57
148.25
153.95
154.63
152.18
148.47
144.42
140.00
134.64
127.84
119.55
110.28
100.65
91.01
81.31
71.03
59.74
47.44
34.73
22.60
11.85
2.61
-5.63
-13.75
-22.33
-31.33
-40.11
-47.66
-53.25
-56.69
-58.67
-60.30
-62.51
-65.26
-67.38
-66.88
-62.11
-52.85
-40.86
-29.41
-21.84
-19.93
-23.05
-28.41
-32.46
-32.47
-27.66
-19.19
-9.42
-0.68
5.65
9.41
11.36
12.37
12.88
12.48
10.37
5.90
-0.79
-8.51
-15.42
-19.69
-20.48
-18.11
-14.03
-9.87
-6.83
-5.16
-4.19
-3.08
-1.43
0.18
0.42
-2.21
-8.44
-17.77
-28.82
-39.84
-49.46
