1589839893.00
64.000000
-0.00
-0.00
-0.00
-0.00
-0.00
-0.00
-0.00
-0.00
-0.00
-0.00
0.00
0.01
0.01
-0.00
-0.03
-0.05
-0.05
0.00
0.13
0.36
0.66
1.01
1.37
1.72
2.06
2.40
2.79
3.24
3.80
4.42
5.06
5.66
6.20
6.68
7.15
7.68
8.31
9.14
10.09
11.04
11.88
12.56
13.14
13.76
14.65
15.96
17.91
20.32
22.90
25.38
27.58
29.57
31.68
34.32
37.81
42.54
48.15
54.10
59.83
64.97
69.58
74.14
79.34
85.71
93.76
103.00
112.62
121.73
129.77
136.75
143.30
150.75
157.77
166.64
177.95
191.79
206.97
220.57
228.25
225.36
208.53
176.87
132.76
80.05
23.07
-34.94
-92.44
-149.16
-205.23
-260.37
-313.74
-363.87
-409.83
-450.91
-486.50
-515.74
-537.23
-549.22
-549.96
-538.35
-514.17
-478.64
-433.88
-382.51
-327.16
-270.07
-212.94
-157.01
-103.32
-52.74
-6.26
35.21
71.01
100.87
124.93
143.73
158.00
168.43
175.65
180.01
181.77
181.14
178.41
173.94
168.19
161.61
154.55
147.22
139.67
131.89
123.89
115.74
107.59
99.66
92.10
84.98
78.21
71.63
65.05
58.39
51.73
45.26
39.24
33.87
29.18
25.01
21.06
17.06
12.85
8.50
4.24
0.38
-2.89
-5.50
-7.56
-9.28
-10.84
-12.47
-14.50
-17.26
-20.89
-24.88
-27.94
-28.24
-24.15
-15.12
-2.16
12.29
25.35
34.76
39.65
40.59
38.93
36.03
32.84
29.96
28.05
27.93
30.24
34.80
40.33
44.77
46.35
44.50
40.36
36.27
34.61
36.55
41.62
47.98
53.26
55.39
53.00
45.56
33.34
17.48
-0.08
-16.85
-30.38
-39.13
-42.86
-42.67
-40.34
-37.59
-35.43
-34.08
-33.23
-32.44
-31.46
-30.29
-29.07
-28.02
-27.27
-26.84
-26.56
-26.20
-25.54
-24.47
-23.01
-21.42
-20.01
-19.05
-18.80
-19.43
-21.03
-23.23
-25.03
-24.83
-20.89
-12.19
0.88
16.29
31.07
42.52
49.24
51.60
51.09
49.31
47.06
44.17
40.09
34.60
28.29
22.02
16.69
12.66
9.72
7.45
5.21
2.20
-2.57
-10.05
-20.44
-32.47
-43.45
-50.19
-50.73
-45.37
-36.71
-28.33
-22.97
-21.30
-22.05
-23.34
-23.76
-22.68
-19.46
-12.87
-1.13
16.55
38.51
60.22
75.56
79.70
71.60
54.78
35.61
20.33
12.31
11.18
14.26
18.36
21.73
24.69
28.84
35.44
44.53
54.81
64.48
72.71
79.47
85.22
90.52
95.69
100.93
107.02
115.89
130.64
154.90
189.98
233.22
277.98
315.41
337.55
340.28
324.64
293.11
253.60
214.79
182.97
160.50
146.20
137.00
129.58
121.28
110.26
95.68
76.70
52.83
24.45
-7.22
-40.53
-74.03
-107.01
-139.61
-171.95
-204.29
-236.53
-267.94
-297.46
-324.09
-347.37
-367.68
-386.28
-404.72
-424.45
-445.88
-467.40
-485.32
-494.85
-491.94
-474.84
-444.97
-405.84
-361.58
-315.02
-267.01
-216.98
-164.44
-110.40
-57.76
-10.56
27.35
53.53
67.39
70.17
64.26
52.54
37.76
22.07
7.00
-6.67
-18.70
-29.32
-38.95
-48.17
-57.61
-68.08
-80.82
-97.69
-120.77
-151.39
-188.79
-229.00
-265.17
-289.41
-295.65
-282.03
-251.60
-210.78
-166.46
-123.49
-83.61
-46.30
-10.61
23.46
54.81
82.06
104.87
124.42
142.97
162.94
186.17
213.69
245.57
280.67
316.37
348.50
371.96
382.16
376.62
355.82
322.71
281.42
235.89
189.56
146.08
109.93
86.29
79.43
90.99
118.71
156.87
198.31
237.07
270.09
297.20
319.73
338.59
353.39
362.31
363.11
354.28
336.06
310.24
279.14
244.48
206.59
165.43
121.19
74.80
27.73
-18.54
-63.01
-105.37
-145.53
-183.43
-218.15
-249.15
-276.95
-303.36
-329.66
-354.90
-375.37
-385.91
-382.46
-362.49
-326.40
-276.55
-216.87
-151.19
-82.99
-15.87
48.18
101.24
136.60
155.09
165.82
178.32
197.01
219.48
238.83
247.73
241.90
225.58
202.87
178.54
155.64
135.60
118.63
104.30
92.18
81.61
72.40
63.18
55.16
46.77
36.14
22.34
5.78
-11.88
-28.84
-42.90
-52.62
-57.92
-60.12
-60.31
-58.87
-55.68
-50.29
-43.00
-34.03
-23.92
-15.40
-11.37
-12.69
-17.62
-22.85
-24.17
-19.57
-8.26
8.84
24.75
32.20
27.83
13.29
-7.11
-27.64
-46.89
-64.73
-81.85
-106.56
-145.68
-199.79
-263.05
-327.68
-385.18
-433.90
-472.77
-500.50
-525.87
-557.85
-600.83
-654.29
-716.71
-784.24
-857.99
-934.40
-947.89
-857.39
-669.86
-436.26
-212.58
-53.28
53.54
121.79
163.28
188.04
196.37
186.92
164.02
137.65
117.88
113.68
123.32
143.13
169.53
192.13
202.41
198.49
185.45
170.97
163.72
164.90
174.01
189.75
205.90
216.87
221.12
221.26
221.11
224.57
230.37
236.23
240.04
238.24
228.60
211.74
190.74
169.38
151.34
137.54
127.91
121.84
117.43
112.71
106.52
98.84
90.44
82.58
75.80
70.23
65.52
60.86
55.30
48.05
38.92
28.41
17.78
8.76
2.97
1.34
3.82
9.21
15.80
22.04
27.22
31.78
36.89
43.82
53.19
64.69
77.08
88.52
96.97
100.70
98.83
91.66
80.84
69.00
58.85
52.12
48.91
47.79
46.58
43.46
37.82
30.29
22.17
14.56
7.78
1.45
-5.16
-12.67
-21.16
-30.38
-39.76
-48.76
-56.91
-63.80
-69.00
-72.05
-72.63
-70.64
-66.44
-60.83
-54.94
-49.71
-45.53
-42.02
-38.26
-33.34
-26.81
-18.89
-10.18
-1.15
8.15
17.88
28.04
38.05
46.75
52.98
56.20
57.02
57.16
58.91
64.41
74.82
89.75
106.98
122.83
133.11
134.61
126.49
111.04
93.04
78.02
70.13
70.54
77.42
87.12
96.04
102.15
105.34
106.74
107.63
108.50
108.92
107.90
104.52
98.26
89.23
78.20
66.61
56.65
51.27
53.60
65.75
87.46
115.18
142.23
160.29
162.01
143.45
105.73
54.83
-0.30
-50.62
-89.62
-114.76
-127.26
-130.56
-128.55
-124.20
-119.06
-113.87
-109.18
-106.00
-105.55
-108.87
-116.03
-125.75
-135.70
-143.47
-147.69
-148.68
-148.35
-149.04
-152.27
-157.78
-163.80
-168.13
-169.51
-168.29
-165.92
-163.89
-162.63
-161.36
-158.88
-154.73
-149.70
-145.45
-143.33
-143.31
-143.91
-143.12
-139.58
-133.43
-125.92
-118.47
-111.40
-103.52
-92.61
-76.63
-54.78
-27.93
1.78
31.88
60.29
85.71
107.57
125.93
141.53
156.23
173.25
196.65
229.72
272.95
322.41
370.05
405.91
421.52
412.80
381.02
331.91
273.44
213.56
158.62
112.47
75.86
46.27
18.60
-12.89
-51.85
-97.53
-144.50
-185.04
-212.93
-226.56
-229.44
-227.62
-226.27
-226.93
-227.31
-223.32
-211.89
-192.74
-168.31
-142.22
-117.27
-94.45
-73.10
-52.32
-32.32
-14.87
-2.68
2.39
0.73
-4.61
-9.22
-9.40
-4.05
4.81
13.44
18.57
19.35
17.64
16.78
19.55
26.65
36.51
46.28
53.40
56.66
56.39
53.87
50.52
47.41
45.08
43.53
42.29
40.60
37.43
31.95
24.02
14.48
5.20
-1.54
-3.87
-1.14
5.80
14.76
23.08
28.49
29.85
27.38
22.33
16.43
11.18
7.47
5.43
4.54
3.99
2.95
0.85
-2.49
-6.90
-11.76
-16.08
-18.63
-18.28
-14.36
-7.08
2.55
13.22
23.68
33.24
41.69
49.12
55.68
61.54
67.04
72.90
80.19
89.73
101.49
114.25
125.82
133.72
136.14
132.43
123.17
109.88
94.52
79.15
65.56
54.94
47.56
42.70
38.90
34.60
28.78
21.33
13.36
6.60
2.67
2.30
4.86
8.76
12.33
14.57
15.51
15.74
15.53
14.41
11.40
5.97
-1.09
-7.63
-11.02
-9.75
-4.58
1.63
5.33
4.18
-1.78
-10.49
-19.34
-26.66
-32.29
-37.14
-42.01
-46.79
-50.54
-52.32
-52.11
-51.01
-50.58
-51.79
-54.26
-56.35
-56.01
-51.88
-43.88
-33.07
-20.93
-8.84
2.50
13.09
23.14
32.46
40.12
44.43
43.46
35.87
21.60
2.15
-19.77
-41.06
-58.83
-70.66
-74.77
-70.29
-57.73
-39.66
-20.47
-5.20
2.35
1.39
-5.66
-14.46
-20.99
-23.20
-21.48
-17.50
-12.71
-7.41
-1.08
6.32
13.25
16.69
13.43
2.30
-14.72
-32.79
-46.48
-52.50
-51.11
-45.16
-37.54
-28.89
-17.06
0.91
26.08
55.68
83.66
103.59
111.79
109.37
101.36
94.10
91.94
95.43
101.53
105.38
102.64
90.78
69.90
42.34
11.66
-18.31
-44.02
-62.32
-70.67
-67.51
-53.66
-33.08
-12.45
0.93
2.15
-9.18
-29.09
-51.64
-72.26
-89.87
-106.29
-123.54
-140.97
-154.06
-156.34
-142.90
-113.60
-73.70
-31.70
4.47
30.59
47.02
57.53
66.62
77.37
90.51
105.04
119.27
132.04
143.10
152.85
161.90
170.59
178.92
186.68
193.78
200.42
207.17
214.92
224.63
236.86
251.10
265.32
276.10
279.38
271.80
252.01
221.32
183.26
142.29
102.22
64.97
30.47
-2.67
-35.97
-70.03
-104.48
-138.49
-171.91
-205.91
-242.54
-283.45
-328.28
-373.62
-413.62
-441.79
-453.25
-446.40
-423.25
-388.32
-347.05
-304.41
-264.53
-230.76
-205.68
-190.38
-183.43
-180.06
-172.84
-154.01
-118.89
-68.65
-10.58
44.16
84.83
104.97
104.20
87.15
60.69
31.33
3.85
-18.28
-31.89
-33.87
-22.11
3.18
38.24
76.31
109.84
133.09
143.97
144.08
137.23
127.38
117.09
106.99
96.33
83.99
69.39
52.85
35.43
18.64
3.94
-7.61
-15.49
-19.81
-21.27
-21.05
-20.57
-21.38
-24.85
-31.88
-42.47
-55.42
-68.54
-79.37
-86.11
-88.34
-87.04
-83.96
-80.71
-78.08
-76.14
-74.84
-74.71
-77.00
-83.02
-93.36
-107.22
-122.59
-136.96
-148.33
-155.85
-159.89
-161.52
-161.95
-162.16
-163.12
-165.99
-172.01
-181.71
-193.85
-205.04
-210.31
-204.86
-185.96
-154.17
-113.24
-68.53
-25.20
13.51
46.64
75.44
102.75
132.11
166.71
208.03
254.39
300.62
339.25
362.41
365.02
347.09
314.44
277.52
248.48
237.90
252.05
291.71
351.08
419.49
484.27
534.08
562.22
567.69
554.36
528.66
497.13
462.80
425.25
382.08
330.81
271.26
205.81
138.18
72.28
11.85
-42.19
-90.61
-134.81
-176.45
-215.36
-249.89
-278.54
-305.33
-329.29
-347.42
-357.11
-359.29
-360.91
-366.49
-375.91
-386.75
-395.60
-394.94
-379.51
-346.03
-294.38
-229.82
-159.41
-88.75
-21.42
42.37
105.34
161.96
203.62
235.22
255.68
254.70
228.51
179.31
115.05
46.55
-17.45
-71.37
-113.33
-141.58
-153.70
-147.97
-127.23
-96.68
-61.82
-28.12
0.68
23.00
37.49
42.37
40.20
33.31
23.64
12.03
-2.17
-19.95
-42.05
-63.30
-81.22
-93.77
-100.88
-103.03
-101.11
-96.20
-89.04
-79.75
-69.15
-58.80
-49.07
-40.81
-33.82
-27.64
-21.34
-16.75
-11.30
-3.54
6.41
18.50
30.96
43.00
53.85
63.45
72.33
80.82
88.44
93.95
96.27
92.19
80.12
58.50
26.33
-12.85
-56.70
-104.05
-154.49
-197.18
-224.94
-233.42
-225.32
-206.68
-183.09
-158.07
-133.38
-109.43
-85.65
-70.67
-62.32
-57.86
-54.03
-48.03
-38.01
-23.97
-6.85
20.35
55.25
94.33
132.81
167.50
196.70
220.02
236.66
246.26
249.14
244.74
234.54
219.78
202.30
183.36
163.87
142.77
118.65
90.38
56.01
15.27
-33.30
-86.19
-141.83
-189.23
-220.29
-231.41
-224.95
-207.63
-185.08
-161.33
-138.22
-116.70
-96.72
-79.47
-65.87
-56.09
-49.54
-44.10
-38.26
-31.46
-23.93
-15.78
-7.96
-0.93
5.70
9.78
14.70
22.62
33.25
45.34
57.58
68.34
76.76
82.92
87.59
92.08
96.31
97.72
93.58
81.71
60.81
31.11
-6.02
-48.96
-96.35
-138.57
-171.98
-195.64
-210.79
-219.95
-225.81
-230.38
-233.88
-233.77
-225.46
-205.24
-170.72
-123.68
-70.54
-20.49
17.87
39.87
46.20
41.49
30.43
16.89
2.52
-12.33
-27.06
-40.07
-48.98
-51.77
-47.85
-40.06
-30.36
-20.99
-13.29
-7.18
-1.80
3.85
10.23
16.85
22.04
24.11
21.67
14.33
3.17
-10.02
-23.32
-35.26
-45.15
-53.22
-60.04
-66.44
-73.01
-79.52
-85.53
-90.60
-94.39
-96.74
-97.61
-96.78
-93.75
-90.33
-87.01
-83.92
-80.99
-78.17
-75.44
-72.87
-70.54
-68.57
-67.12
-65.92
-64.77
-63.51
-62.08
-60.42
-58.55
-56.51
-54.42
-52.49
-50.63
-48.89
-47.32
-46.07
-45.25
-44.96
-45.29
-46.34
-48.19
-50.70
-53.83
-57.56
-61.91
-66.93
-72.70
-79.28
-86.71
-94.98
-103.86
-113.10
-122.32
-131.11
-138.99
-145.49
-150.18
-152.67
-152.65
-149.88
-144.29
-135.92
-125.01
-111.88
-96.97
-80.75
-63.71
-46.32
-29.03
-12.32
3.33
17.37
29.29
38.62
45.01
48.33
48.58
46.01
40.95
33.86
25.24
15.75
6.19
-2.33
-8.48
-10.77
-7.81
1.32
16.92
38.48
64.81
94.40
125.78
157.78
189.57
220.49
249.72
276.10
298.10
314.17
323.34
325.67
322.56
316.50
310.36
306.51
306.04
308.64
312.87
317.00
319.88
321.60
323.59
328.20
338.14
355.41
380.34
410.75
441.49
465.03
472.91
458.20
417.95
354.78
276.57
194.44
119.41
59.45
17.91
-6.17
-16.30
-16.75
-11.22
-2.64
6.67
14.80
20.61
24.15
26.80
30.67
37.48
47.63
59.82
71.65
80.34
83.19
77.93
62.80
37.03
1.53
-40.60
-84.63
-125.43
-159.28
-184.78
-202.59
-213.92
-218.55
-214.34
-198.77
-171.61
-137.07
-103.48
-80.27
-73.74
-84.18
-105.80
-129.58
-147.37
-155.09
-153.79
-148.39
-144.84
-147.10
-155.61
-166.95
-175.24
-174.25
-159.60
-130.18
-88.07
-37.23
18.17
74.45
128.18
175.27
211.05
231.64
236.06
227.65
213.20
199.92
192.17
189.90
189.65
187.25
180.46
169.82
157.42
145.01
132.87
120.10
106.02
91.21
77.37
66.19
57.75
50.11
40.18
25.64
6.53
-14.54
-33.74
-47.95
-56.21
-59.83
-61.35
-62.98
-65.62
-68.75
-71.38
-73.03
-74.18
-75.83
-78.62
-82.09
-84.80
-85.14
-82.42
-77.31
-71.57
-67.10
-64.98
-65.11
-66.59
-68.53
-70.59
-72.92
-75.68
-78.56
-80.77
-81.52
-80.78
-79.62
-79.77
-82.64
-88.47
-96.08
-103.37
-108.14
-108.88
-105.00
-96.53
-83.81
-67.24
-47.32
-24.87
-1.10
22.54
44.70
64.47
81.59
96.33
109.14
120.30
129.69
136.76
140.84
141.63
139.66
136.34
133.49
132.39
133.02
133.91
132.85
128.01
118.97
107.02
94.58
84.08
76.88
72.85
70.47
67.58
62.23
53.37
41.24
27.36
13.94
3.17
-3.36
-5.12
-2.49
3.49
11.56
20.53
29.39
37.44
44.34
50.21
55.76
62.05
70.08
80.30
92.17
104.10
113.71
118.36
116.01
105.91
89.12
68.27
46.95
28.71
16.33
11.54
15.08
26.70
44.98
67.00
88.38
104.01
109.28
101.59
81.15
50.77
14.84
-21.88
-55.21
-81.79
-98.80
-104.24
-97.13
-78.25
-50.42
-18.23
12.86
37.58
51.83
53.68
44.10
27.20
9.48
-2.04
-2.33
9.53
29.80
51.43
66.83
70.50
60.56
38.47
7.55
-28.61
-67.35
-106.77
-145.50
-182.51
-217.33
-250.54
-284.21
-321.79
-367.00
-422.04
-485.50
-551.35
-609.81
-650.31
-665.42
-653.63
-619.94
-573.47
-523.66
-476.93
-435.41
-398.00
-362.70
-328.51
-295.87
-265.82
-238.74
-213.72
-189.04
-163.22
-135.96
-108.38
-82.66
-60.89
-44.08
-31.76
-22.16
-13.01
-2.52
10.03
24.16
38.86
53.24
67.19
81.60
97.88
117.43
141.23
169.71
202.85
240.07
280.03
320.26
357.42
387.98
409.46
421.32
425.06
423.33
418.42
411.12
400.70
386.03
366.87
344.50
321.15
298.67
277.48
256.50
234.13
209.58
183.53
157.82
134.34
113.85
95.63
77.99
59.35
39.29
18.68
-0.76
-17.31
-30.00
-38.80
-44.56
-48.44
-51.43
-54.02
-56.11
-57.35
-57.43
-56.33
-54.38
-52.09
-49.85
-47.73
-45.48
-42.62
-38.76
-33.83
-28.23
-22.58
-17.55
-13.53
-10.52
-8.17
-6.09
-4.12
-2.36
-1.20
-1.03
-2.05
-4.15
-6.91
-9.78
-12.32
-14.29
-15.66
-16.52
-16.91
-16.80
-16.06
-14.59
-12.46
-9.93
-7.45
-5.45
-4.17
-3.59
-3.44
-3.36
-3.16
-2.83
-2.59
-2.64
-3.05
-3.67
-4.23
-4.46
-4.23
-3.67
-3.01
-2.49
-2.16
-1.96
-1.66
-1.10
-0.28
0.65
1.39
1.68
1.38
0.53
-0.73
-2.18
-3.77
-5.51
-7.52
-9.86
-12.42
-14.95
-17.07
-18.49
-19.08
-18.96
-18.37
-17.54
-16.62
-15.56
-14.22
-12.50
-10.46
-8.40
-6.70
-5.70
-5.50
-5.95
-6.64
-7.17
-7.34
-7.17
-6.93
-6.91
-7.29
-7.99
-8.77
-9.33
-9.48
-9.26
-8.87
-8.52
-8.39
-8.46
-8.60
-8.65
-8.59
-8.51
-8.60
-8.99
-9.64
-10.34
-10.80
-10.84
-10.50
-10.03
-9.83
-10.10
-10.83
-11.67
-12.16
-11.89
-10.76
-8.95
-6.81
-4.70
-2.77
-0.99
0.79
2.66
4.57
6.26
7.45
7.99
7.93
7.55
7.18
7.08
7.27
7.56
7.68
7.43
6.83
6.04
5.31
4.80
4.49
4.18
3.64
2.72
1.46
0.07
-1.17
-1.98
-2.30
-2.22
-2.04
-2.08
-2.57
-3.57
-4.97
-6.55
-8.09
-9.45
-10.54
-11.26
-11.50
-11.11
-9.97
-8.15
-5.89
-3.67
-1.93
-0.91
-0.56
-0.53
-0.36
0.26
1.36
2.67
3.80
4.44
4.54
4.27
3.91
3.64
3.45
3.13
2.42
1.22
-0.32
-1.87
-3.03
-3.59
-3.63
-3.48
-3.57
-4.13
-5.14
-6.30
-7.25
-7.79
-7.99
-8.18
-8.71
-9.78
-11.24
-12.76
-13.91
-14.42
-14.26
-13.67
-12.94
-12.28
-11.70
-11.01
-9.99
-8.52
-6.73
-4.90
-3.34
-2.23
-1.50
-0.91
-0.17
0.85
2.06
3.21
4.02
4.36
4.35
4.24
4.31
4.63
5.10
5.42
5.36
4.83
4.00
3.14
2.50
2.09
1.70
1.01
-0.18
-1.79
-3.51
-4.92
-5.74
-5.98
-5.93
-5.98
-6.44
-7.39
-8.65
-9.91
-10.88
-11.37
-11.39
-11.04
-10.44
-9.63
-8.57
-7.13
-5.24
-3.01
-0.70
1.28
2.62
3.24
3.32
3.25
3.42
4.01
4.89
5.74
6.18
6.07
5.50
4.78
4.25
4.04
4.06
4.01
3.65
2.87
1.84
0.87
0.23
-0.00
0.00
-0.06
-0.45
-1.24
-2.26
-3.23
-3.92
-4.27
-4.43
-4.71
-5.36
-6.47
-7.89
-9.26
-10.22
-10.52
-10.11
-9.13
-7.75
-6.10
-4.22
-2.06
0.39
3.03
5.61
7.81
9.39
10.25
10.51
10.44
10.32
10.34
10.46
10.48
10.14
9.32
8.10
6.78
5.71
5.11
4.94
4.95
4.77
4.17
3.14
1.88
0.66
-0.33
-1.10
-1.84
-2.74
-3.88
-5.16
-6.33
-7.15
-7.54
-7.66
-7.82
-8.34
-9.39
-10.86
-12.44
-13.72
-14.36
-14.21
-13.29
-11.72
-9.64
-7.11
-4.19
-0.96
2.43
5.68
8.53
10.81
12.54
13.94
15.27
16.74
18.31
19.77
20.77
21.04
20.58
19.63
18.53
17.60
16.91
16.31
15.56
14.52
13.23
11.92
10.87
10.21
9.84
9.42
8.54
6.96
4.71
2.11
-0.38
-2.36
-3.72
-4.66
-5.61
-6.97
-8.92
-11.29
-13.67
-15.58
-16.73
-17.05
-16.69
-15.80
-14.42
-12.44
-9.74
-6.37
-2.65
0.87
3.61
5.27
5.87
5.82
5.66
5.79
6.36
7.14
7.76
7.94
7.64
7.14
6.85
7.11
7.95
9.08
10.03
10.42
10.12
9.37
8.59
8.15
8.15
8.39
8.49
8.09
7.10
5.73
4.35
3.31
2.78
2.64
2.63
2.46
1.97
1.23
0.52
0.26
0.82
2.41
4.99
8.30
12.05
16.13
20.69
25.98
32.13
38.91
45.83
52.48
58.86
65.38
72.49
80.05
86.89
91.11
90.83
85.14
74.59
60.97
46.43
32.59
20.09
8.91
-1.05
-9.45
-15.46
-18.18
-17.13
-12.60
-5.51
2.87
11.41
19.34
26.32
32.22
36.91
39.98
40.79
38.54
32.70
23.33
11.28
-2.03
-15.05
-26.60
-36.32
-44.57
-52.16
-59.87
-68.12
-76.85
-85.65
-93.87
-100.87
-106.13
-109.41
-110.82
-110.76
-109.84
-108.64
-107.53
-106.63
-105.97
-105.65
-105.86
-106.77
-108.23
-110.08
-111.91
-113.28
-113.21
-109.77
-100.21
-81.93
-54.11
-18.57
20.21
56.51
85.08
102.38
106.97
99.16
80.90
55.96
29.87
9.01
-1.33
0.77
12.80
28.79
42.05
48.18
46.44
39.17
29.81
20.98
13.79
8.30
4.49
2.56
3.00
5.90
10.63
15.95
20.41
22.99
23.30
21.73
19.27
17.03
15.78
15.62
16.02
16.15
15.31
13.30
10.44
7.26
4.21
1.29
-1.81
-5.52
-10.01
-15.06
-20.05
-24.29
-27.30
-28.96
-29.53
-29.47
-29.33
-29.56
-30.48
-32.24
-34.75
-37.60
-40.04
-41.08
-39.83
-35.95
-29.87
-22.89
-16.66
-12.56
-11.05
-11.46
-12.37
-12.17
-9.94
-5.67
-0.23
5.24
9.86
13.39
16.11
18.47
20.67
22.54
23.55
23.19
21.25
17.98
13.98
10.00
6.63
4.02
1.98
0.13
-1.72
-3.39
-4.30
-3.85
-1.82
1.40
4.84
7.42
8.43
7.90
6.57
5.48
5.48
6.92
9.56
12.86
16.33
19.73
23.11
26.68
30.63
35.04
39.78
44.70
49.68
54.69
59.66
64.40
68.42
70.95
71.16
68.44
62.73
54.65
45.30
35.91
27.43
20.24
14.01
7.99
1.28
-6.77
-16.29
-26.88
-37.79
-48.17
-57.37
-65.00
-71.02
-75.53
-78.62
-80.28
-80.34
-78.61
-74.94
-69.29
-61.74
-52.39
-41.38
-28.96
-15.66
-2.32
9.94
20.05
27.33
31.79
34.14
35.47
36.83
38.84
41.55
44.58
47.32
49.13
49.40
47.73
43.96
38.33
31.54
24.63
18.61
14.13
11.14
8.98
6.67
3.43
-1.00
-6.07
-10.78
-14.21
-16.08
-16.92
-17.73
-19.34
-21.79
-24.23
-25.53
-25.05
-23.08
-20.67
-19.00
-18.87
-21.12
-27.62
-41.72
-67.16
-105.71
-154.40
-204.50
-243.51
-259.25
-244.11
-197.31
-124.24
-34.05
63.04
157.32
240.12
304.12
344.37
359.81
353.96
333.92
307.88
281.89
257.89
234.09
207.29
175.67
140.30
104.76
73.30
48.72
31.47
19.97
11.91
5.22
-1.13
-7.64
-14.63
-22.42
-31.08
-40.14
-48.61
-55.37
-59.82
-61.95
-62.40
-61.99
-61.31
-60.78
-60.90
-62.19
-64.97
-68.94
-72.53
-73.72
-70.91
-63.81
-53.67
-42.72
-33.19
-26.19
-21.20
-15.87
-7.44
6.06
24.88
47.71
72.29
96.38
118.46
134.26
140.64
135.39
118.39
92.17
61.44
31.26
5.26
-15.28
-31.04
-43.02
-51.79
-56.49
-56.35
-50.66
-39.61
-24.67
-8.31
6.81
19.24
28.81
36.51
43.46
49.83
54.44
54.95
48.86
34.79
13.91
-10.45
-33.37
-50.32
-59.03
-60.47
-58.57
-58.22
-63.07
-73.74
-88.19
-102.32
-112.12
-115.63
-113.81
-110.05
-108.37
-111.58
-120.03
-132.45
-146.03
-157.88
-166.55
-172.78
-179.29
-189.45
-205.72
-228.24
-255.29
-282.51
-303.85
-313.49
-307.64
-285.83
-251.24
-209.72
-160.44
-106.51
-52.42
-2.25
40.94
74.96
98.48
111.56
116.64
116.46
115.64
117.40
121.55
124.21
119.55
102.95
73.52
34.85
-5.04
-36.52
-52.43
-49.75
-30.36
0.27
35.84
71.33
104.11
133.19
157.80
176.81
189.27
194.61
193.30
186.85
177.14
166.50
155.85
144.99
133.10
119.73
104.71
88.77
73.39
59.89
49.19
41.14
34.71
28.44
21.27
12.00
0.02
-12.97
-25.98
-38.37
-50.33
-62.33
-74.71
-87.12
-99.90
-113.45
-128.58
-147.16
-171.47
-204.34
-248.07
-304.23
-365.78
-425.63
-476.77
-513.34
-530.89
-525.67
-496.41
-445.71
-380.96
-312.47
-251.75
-206.37
-177.99
-164.73
-159.29
-155.74
-150.66
-142.69
-130.50
-113.43
-90.01
-59.27
-21.56
21.67
68.02
115.75
160.35
200.22
235.07
266.74
296.78
325.59
352.36
375.09
392.00
402.49
408.18
411.41
416.58
426.57
441.87
460.60
479.17
494.05
503.11
506.73
506.66
507.63
513.04
523.73
537.88
552.11
563.03
568.70
569.18
549.87
503.47
429.69
336.15
235.07
137.58
48.90
-32.38
-111.38
-192.77
-274.70
-350.32
-413.77
-460.62
-489.12
-500.83
-499.51
-489.34
-473.44
-451.58
-423.32
-383.56
-332.62
-274.40
-214.31
-157.16
-105.91
-61.41
-21.91
14.38
47.53
76.95
101.25
119.12
130.18
135.26
136.03
134.93
133.71
132.84
132.22
130.86
127.76
122.36
114.86
106.09
97.46
90.30
85.48
82.83
81.33
79.50
75.85
69.27
59.26
46.11
30.53
13.46
-4.58
-23.60
-44.02
-66.40
-91.40
-119.68
-151.84
-187.99
-227.13
-266.46
-301.01
-324.17
-329.42
-312.81
-274.82
-220.61
-158.47
-96.91
-42.16
2.80
37.57
62.65
78.02
82.91
76.57
59.40
33.42
1.84
-31.93
-65.28
-96.75
-125.72
-152.02
-175.77
-197.56
-218.76
-241.57
-268.65
-301.95
-341.34
-383.45
-421.65
-447.29
-452.36
-432.40
-388.62
-328.05
-261.26
-198.65
-146.93
-107.25
-75.90
-47.20
-16.76
16.23
48.91
76.48
94.77
102.08
99.74
91.20
80.34
70.06
61.75
55.65
51.61
49.65
50.05
53.07
58.41
64.99
71.18
75.41
76.81
75.63
73.16
71.20
71.25
73.82
78.27
83.19
87.02
88.74
88.27
86.45
84.53
83.60
84.01
85.18
85.96
85.10
81.87
76.30
69.01
60.75
52.09
43.27
34.42
25.84
18.18
12.25
8.63
7.35
7.91
9.55
11.73
14.47
18.26
23.65
30.75
38.88
46.73
52.77
55.91
55.93
53.55
50.15
47.08
45.14
44.24
43.59
42.23
39.55
35.70
31.55
28.21
26.45
26.28
26.96
27.40
26.81
24.94
22.13
18.75
14.85
10.12
4.27
-2.42
-8.88
-13.57
-15.38
-14.39
-12.19
-11.17
-13.41
-19.54
-28.32
-37.16
-43.22
-44.66
-41.24
-34.23
-25.58
-16.97
-9.27
-2.57
3.40
8.73
13.12
16.14
17.56
17.65
17.04
16.45
16.33
16.68
17.19
17.52
17.60
17.66
18.05
18.98
20.33
21.61
22.11
21.20
18.67
14.99
11.31
9.02
8.98
10.77
12.38
10.69
2.71
-13.02
-35.62
-61.83
-87.19
-107.66
-121.12
-127.97
-130.66
-132.33
-135.24
-139.59
-143.25
-142.53
-133.48
-113.47
-82.14
-41.70
3.72
49.12
89.87
122.40
144.59
155.75
156.43
148.16
133.25
114.48
94.62
75.98
59.91
46.69
35.74
26.26
17.80
10.67
5.78
4.05
5.66
9.69
14.32
17.49
17.84
15.26
10.88
6.42
3.33
2.13
2.27
2.59
2.01
0.03
-3.06
-6.54
-9.67
-12.04
-13.54
-14.20
-13.85
-12.23
-9.12
-4.71
0.27
4.85
8.19
10.05
10.90
11.62
12.96
15.14
17.70
19.77
20.60
19.91
18.09
15.92
14.14
13.05
12.25
10.86
7.91
2.92
-3.72
-10.77
-16.60
-19.82
-19.98
-17.66
-14.24
-11.22
-9.58
-9.49
-10.52
-12.22
-14.51
-17.83
-22.65
-28.84
-35.32
-40.12
-41.21
-37.32
-28.68
-16.88
-4.34
6.64
14.53
18.82
19.78
18.09
14.58
10.02
5.19
0.89
-2.15
-3.47
-2.89
-0.66
2.67
6.45
10.14
13.54
16.85
20.60
25.35
31.23
37.52
42.66
44.54
41.25
31.89
17.25
-0.16
-16.67
-28.57
-33.67
-32.46
-27.98
-24.89
-27.43
-37.67
-54.81
-75.79
-96.86
-115.30
-130.14
-142.06
-152.43
-162.48
-173.14
-185.17
-199.37
-216.34
-235.78
-256.02
-274.07
-286.54
-290.85
-286.22
-273.85
-256.42
-237.03
-218.24
-201.40
-186.75
-173.75
-161.57
-149.48
-137.18
-124.61
-111.93
-99.20
-86.27
-72.79
-58.31
-42.53
-25.51
-7.70
10.26
27.78
44.59
60.74
76.51
92.13
107.82
123.93
140.97
159.41
178.96
197.89
212.93
220.10
216.30
200.86
176.19
147.02
118.65
95.22
78.86
70.09
68.70
74.55
87.42
106.34
128.79
150.76
167.74
176.24
175.20
166.31
153.43
141.06
132.80
130.21
132.80
138.60
145.28
151.07
155.12
157.33
157.78
156.31
152.53
146.22
137.80
128.52
120.13
114.10
110.90
109.61
108.22
104.52
97.12
86.23
73.56
61.71
52.91
48.13
46.86
47.62
48.90
49.98
51.03
52.61
54.94
57.37
58.56
57.05
52.19
44.47
35.37
26.59
19.39
14.07
10.18
6.95
3.85
0.94
-1.30
-2.27
-1.67
0.27
2.83
5.12
6.41
6.39
5.24
3.51
1.83
0.70
0.27
0.37
0.62
0.67
0.37
-0.11
-0.33
0.22
1.83
4.42
7.49
10.35
12.38
13.27
13.15
12.38
11.42
10.59
10.03
9.78
9.89
10.40
11.24
12.10
12.45
11.60
9.11
4.98
-0.30
-5.89
-10.94
-14.94
-17.74
-19.50
-20.47
-20.82
-20.57
-19.74
-18.40
-16.73
-14.99
-13.40
-12.08
-11.03
-10.16
-9.43
-8.89
-8.63
-8.74
-9.23
-9.95
-10.65
-11.06
-11.00
-10.44
-9.49
-8.38
-7.31
-6.43
-5.72
-5.08
-4.34
-3.37
-2.18
-0.86
0.40
1.44
2.18
2.63
2.89
3.07
3.22
3.31
3.27
3.00
2.45
1.66
0.73
-0.17
-0.96
-1.66
-2.37
-3.28
-4.51
-6.08
-7.86
-9.66
-11.30
-12.64
-13.66
-14.41
-14.94
-15.26
-15.33
-15.08
-14.45
-13.47
-12.27
-11.04
-9.94
-9.04
-8.24
-7.33
-6.09
-4.41
-2.33
-0.06
2.16
4.14
5.82
7.21
8.27
8.86
8.76
7.77
5.86
3.27
0.46
-2.02
-3.77
-4.67
-4.91
-4.88
-4.94
-5.28
-5.86
-6.49
-6.96
-7.10
-6.85
-6.29
-5.53
-4.78
-4.24
-4.10
-4.42
-5.17
-6.12
-6.91
-7.10
-6.35
-4.48
-1.60
1.98
5.76
9.22
11.94
13.73
14.65
14.98
15.08
15.25
15.65
16.25
16.94
17.53
17.88
17.90
17.56
16.85
15.83
14.56
13.16
11.77
10.58
9.69
9.05
8.53
7.87
6.87
5.44
3.68
1.78
-0.03
-1.62
-3.00
-4.26
-5.54
-6.92
-8.45
-10.10
-11.82
-13.54
-15.14
-16.44
-17.27
-17.50
-17.09
-16.15
-14.83
-13.31
-11.70
-10.04
-8.36
-6.72
-5.25
-4.15
-3.56
-3.51
-3.89
-4.51
-5.15
-5.70
-6.09
-6.30
-6.24
-5.80
-4.89
-3.57
-2.06
-0.73
0.10
0.30
0.01
-0.42
-0.66
-0.54
-0.11
0.36
0.59
0.44
-0.11
-0.97
-2.06
-3.43
-5.21
-7.50
-10.23
-13.11
-15.62
-17.24
-17.60
-16.64
-14.66
-12.13
-9.53
-7.16
-5.02
-2.99
-0.91
1.28
3.48
5.48
7.11
8.30
9.07
9.52
9.68
9.55
9.08
8.27
7.21
6.08
5.08
4.39
4.09
4.11
4.31
4.46
4.39
4.02
3.37
2.59
1.82
1.16
0.58
-0.05
-0.90
-2.01
-3.33
-4.69
-5.88
-6.82
-7.51
-8.16
-8.98
-10.16
-11.70
-13.47
-15.16
-16.48
-17.21
-17.32
-16.89
-16.11
-15.17
-14.15
-13.09
-12.02
-11.02
-10.26
-9.87
-9.88
-10.13
-10.36
-10.35
-10.10
-9.85
-9.97
-10.75
-12.12
-13.63
-14.57
-14.29
-12.47
-9.24
-5.15
-0.87
3.02
6.18
8.53
10.15
11.20
11.81
12.07
12.08
11.96
11.82
11.76
11.78
11.79
11.57
10.95
9.86
8.44
6.99
5.87
5.30
5.29
5.63
6.01
6.16
6.02
5.69
5.42
5.38
5.66
6.20
6.83
7.41
7.85
8.14
8.34
8.49
8.52
8.34
7.83
6.98
5.92
4.94
4.30
4.13
4.30
4.52
4.42
3.77
2.58
1.10
-0.39
-1.71
-2.86
-4.03
-5.37
-6.94
-8.57
-10.03
-11.10
-11.78
-12.28
-12.92
-13.98
-15.50
-17.23
-18.76
-19.65
-19.62
-18.68
-17.06
-15.08
-13.04
-11.09
-9.22
-7.37
-5.50
-3.64
-1.93
-0.52
0.45
0.93
0.98
0.77
0.54
0.47
0.68
1.10
1.58
1.92
2.03
1.95
1.78
1.67
1.70
1.81
1.89
1.82
1.58
1.22
0.85
0.61
0.53
0.57
0.65
0.67
0.58
0.43
0.28
0.22
0.24
0.24
0.04
-0.48
-1.27
-2.15
-2.73
-2.72
-2.00
-0.66
1.01
2.74
4.35
5.83
7.26
8.79
10.48
12.27
14.03
15.66
17.10
18.39
19.59
20.77
22.09
23.72
25.82
28.48
31.67
35.24
38.96
42.56
45.86
49.17
52.94
57.59
63.28
69.86
76.88
83.78
90.11
95.69
101.28
107.87
116.24
126.63
138.65
151.35
163.61
174.39
182.96
190.11
197.03
204.90
214.41
225.60
237.91
250.29
261.27
269.04
272.89
272.41
267.53
258.61
246.51
232.67
218.93
207.07
188.97
159.40
116.65
63.51
6.43
-47.20
-91.96
-125.70
-148.89
-161.75
-166.47
-164.69
-157.60
-146.50
-133.17
-119.62
-107.71
-98.96
-93.23
-89.29
-85.61
-81.15
-75.74
-69.94
-64.58
-60.37
-57.56
-56.12
-55.53
-55.19
-54.91
-54.89
-55.60
-57.37
-60.23
-63.93
-68.23
-73.10
-78.77
-85.81
-94.85
-106.21
-119.64
-134.41
-149.56
-164.38
-178.75
-193.06
-208.18
-225.25
-245.49
-269.66
-297.52
-327.24
-355.19
-376.68
-387.11
-383.71
-366.62
-338.98
-305.74
-272.01
-241.51
-215.93
-195.28
-178.67
-165.09
-153.68
-143.59
-133.74
-122.83
-109.69
-93.76
-75.50
-56.28
-38.03
-22.45
-10.44
-1.75
4.93
11.33
19.04
29.00
41.32
55.45
70.42
85.04
98.19
109.05
117.28
123.08
126.82
128.49
127.04
120.33
105.93
82.39
50.53
13.80
-22.64
-53.75
-76.59
-91.10
-99.40
-104.02
-106.29
-105.74
-100.90
-90.79
-75.99
-58.55
-40.87
-24.32
-8.62
7.60
25.31
43.92
60.98
73.08
77.49
73.35
62.05
46.52
30.06
15.42
4.43
-1.78
-2.52
2.63
13.61
29.59
48.88
69.11
87.83
103.21
114.47
122.03
127.20
131.52
136.13
141.34
146.61
150.96
153.55
154.01
152.38
148.71
142.58
133.02
118.95
100.01
77.26
53.32
31.76
15.94
7.84
7.37
12.59
20.60
28.77
35.63
41.17
46.23
51.53
56.97
61.49
63.42
61.30
54.16
41.27
21.77
-5.53
-41.47
-85.65
-136.06
-189.38
-242.30
-292.66
-339.81
-383.87
-424.43
-459.63
-486.30
-501.24
-502.71
-491.35
-469.93
-442.19
-411.53
-380.26
-349.55
-319.95
-291.88
-265.87
-242.34
-221.48
-202.78
-185.02
-166.65
-146.24
-123.16
-97.77
-71.31
-45.32
-20.97
1.44
22.57
43.62
65.67
89.09
113.29
136.89
158.41
176.82
192.02
204.89
216.83
229.38
243.95
261.51
282.41
305.92
329.88
350.87
364.92
368.98
362.26
346.60
325.81
303.89
283.38
264.54
245.90
225.66
202.90
178.08
152.54
127.47
103.30
79.68
56.07
32.54
10.17
-9.21
-23.58
-31.48
-32.60
-27.73
-18.66
-7.59
3.30
12.23
17.97
19.86
17.72
12.01
3.70
-5.77
-14.69
-21.54
-25.29
-25.67
-23.14
-18.65
-13.25
-7.80
-2.65
2.21
6.93
11.51
15.68
19.00
21.14
22.18
22.66
23.36
24.83
27.07
29.46
31.20
31.71
31.07
29.89
28.94
28.63
28.77
28.69
27.73
25.68
22.91
20.22
18.32
17.49
17.44
17.49
17.03
15.82
14.14
12.53
11.54
11.38
11.94
12.83
13.72
14.50
15.30
16.38
17.85
19.43
20.57
20.59
19.14
16.38
12.93
9.59
6.86
4.78
2.84
0.30
-3.49
-8.88
-15.88
-24.09
-32.82
-41.01
-47.32
-50.40
-49.32
-43.94
-35.24
-25.02
-15.40
-8.15
-4.17
-3.33
-4.73
-7.11
-9.17
-9.78
-8.13
-3.92
2.35
9.30
14.87
17.03
14.67
8.33
0.20
-6.69
-9.76
-8.10
-2.77
3.77
8.86
10.73
9.26
5.50
1.15
-2.34
-4.21
-4.27
-2.60
0.87
6.26
13.55
22.26
31.38
39.66
46.02
49.88
51.24
50.46
48.01
44.23
39.36
33.60
27.27
20.79
14.62
9.12
4.58
1.19
-0.93
-1.69
-1.14
0.61
3.26
6.52
9.90
12.95
15.19
16.33
16.40
15.73
14.85
14.20
13.91
13.70
13.00
11.25
8.14
3.79
-1.30
-6.47
-11.15
-15.03
-18.06
-20.35
-21.97
-22.94
-23.17
-22.71
-21.80
-20.94
-20.71
-21.45
-23.07
-24.98
-26.35
-26.49
-25.16
-22.66
-19.61
-16.60
-13.94
-11.50
-8.91
-5.89
-2.45
1.05
4.07
6.25
7.50
8.05
8.29
8.48
8.64
8.49
7.69
6.14
4.08
2.07
0.74
0.43
0.98
1.80
2.12
1.40
-0.39
-2.77
-5.01
-6.45
-6.86
-6.45
-5.75
-5.27
-5.26
-5.58
-5.87
-5.77
-5.13
-4.09
-2.95
-1.93
-1.02
-0.02
1.33
3.11
5.11
6.90
8.04
8.29
7.77
6.89
6.09
5.68
5.70
5.88
5.91
5.58
4.95
4.28
3.93
4.08
4.65
5.26
5.43
4.84
3.50
1.81
0.36
-0.38
-0.37
-0.02
-0.00
-0.87
-2.71
-5.11
-7.31
-8.72
-9.17
-9.09
-9.19
-10.04
-11.69
-13.53
-14.76
-14.60
-12.85
-9.97
-6.68
-3.64
-1.07
1.00
2.56
3.32
2.98
1.52
-0.51
-2.03
-2.00
0.08
3.76
7.88
11.15
12.78
12.72
11.56
10.01
8.53
7.27
6.06
4.73
3.15
1.29
-0.83
-3.12
-5.31
-7.29
-8.93
-10.35
-11.79
-13.45
-15.34
-17.20
-18.61
-19.23
-19.02
-18.22
-17.32
-16.70
-16.43
-16.20
-15.46
-13.69
-10.71
-6.82
-2.68
0.97
3.67
5.37
6.44
7.47
8.88
10.75
12.72
14.21
14.80
14.49
13.68
13.00
12.94
13.58
14.53
15.18
15.00
13.88
12.10
10.22
8.70
7.69
6.97
6.10
4.73
2.80
0.56
-1.55
-3.15
-4.19
-4.92
-5.81
-7.19
-9.02
-10.85
-12.06
-12.16
-11.12
-9.39
-7.62
-6.31
-5.48
-4.74
-3.56
-1.63
0.87
3.38
5.22
6.04
5.86
5.11
4.34
3.92
3.95
4.24
4.45
4.35
3.87
3.20
2.70
2.67
3.21
4.10
4.88
5.06
4.42
3.07
1.46
0.06
-0.92
-1.70
-2.81
-4.78
-7.71
-11.25
-14.67
-17.29
-18.81
-19.49
-19.93
-20.68
-21.90
-23.33
-24.38
-24.53
-23.64
-21.98
-20.09
-18.40
-17.05
-15.83
-14.34
-12.30
-9.75
-6.99
-4.47
-2.46
-0.99
0.15
1.27
2.51
3.77
4.74
5.08
4.64
3.63
2.52
1.92
2.25
3.56
5.49
7.43
8.78
9.27
9.00
8.40
7.93
7.81
7.90
7.73
6.87
5.12
2.69
0.09
-2.17
-3.89
-5.25
-6.68
-8.46
-10.49
-12.27
-13.14
-12.70
-11.07
-8.82
-6.66
-5.01
-3.83
-2.77
-1.41
0.40
2.47
4.36
5.67
6.24
6.26
6.09
6.14
6.62
7.47
8.37
8.89
8.73
7.92
6.81
5.99
5.90
6.62
7.77
8.66
8.74
7.82
6.26
4.72
3.81
3.76
4.32
4.93
5.05
4.41
3.15
1.66
0.33
-0.71
-1.68
-2.97
-4.88
-7.41
-10.23
-12.79
-14.65
-15.65
-15.97
-16.00
-15.98
-15.94
-15.59
-14.53
-12.57
-9.85
-6.91
-4.39
-2.72
-1.93
-1.60
-1.13
-0.01
1.89
4.27
6.57
8.25
9.11
9.25
9.02
8.80
8.72
8.68
8.40
7.66
6.44
4.98
3.66
2.75
2.27
1.94
1.27
-0.18
-2.59
-5.77
-9.28
-12.63
-15.48
-17.74
-19.51
-20.88
-21.79
-22.03
-21.30
-19.52
-16.90
-13.96
-11.32
-9.35
-8.06
-7.04
-5.77
-3.90
-1.48
1.09
3.25
4.64
5.27
5.50
5.86
6.74
8.16
9.78
11.06
11.60
11.32
10.55
9.84
9.65
10.09
10.85
11.41
11.35
10.65
9.69
9.11
9.40
10.63
12.41
14.07
15.15
15.53
15.52
15.63
16.25
17.38
18.64
19.41
19.10
17.41
14.38
10.40
5.98
1.52
-2.86
-7.32
-12.09
-17.19
-22.25
-26.53
-29.22
-29.89
-28.67
-26.27
-23.60
-21.44
-20.12
-19.57
-19.49
-19.61
-19.77
-19.98
-20.14
-20.14
-19.70
-18.56
-16.55
-13.75
-10.46
-7.15
-4.23
-1.84
0.13
2.06
4.35
7.26
10.73
14.41
17.73
19.90
20.10
17.54
11.72
2.66
-8.91
-21.71
-34.08
-44.45
-51.66
-54.99
-54.25
-49.68
-41.89
-31.85
-20.70
-9.50
1.11
11.00
20.49
29.96
39.48
48.65
56.74
63.13
67.60
70.52
72.58
74.47
76.57
78.81
80.92
82.61
83.71
84.22
84.18
83.67
82.78
81.73
80.87
80.55
80.98
82.08
83.39
84.22
83.87
81.86
78.15
73.15
67.73
63.09
60.32
59.73
60.47
60.48
57.29
49.16
36.03
19.65
2.64
-12.91
-26.37
-38.61
-51.01
-64.09
-76.87
-87.20
-92.89
-92.91
-87.88
-79.77
-71.13
-64.37
-61.22
-62.48
-67.84
-75.80
-84.03
-89.91
-91.47
-87.99
-80.18
-69.59
-57.80
-45.85
-34.07
-22.36
-10.53
1.56
13.95
26.57
39.09
50.65
59.98
66.05
68.76
69.42
70.37
73.81
80.25
87.78
92.61
90.77
80.11
61.35
37.96
14.87
-3.06
-12.17
-10.63
1.25
20.79
43.09
61.80
70.90
66.73
49.45
22.95
-6.99
-35.31
-59.96
-82.32
-105.71
-132.60
-162.38
-190.90
-211.96
-220.19
-213.63
-194.79
-169.56
-144.85
-125.85
-114.39
-108.95
-106.12
-102.33
-95.24
-83.92
-68.42
-49.14
-26.42
-0.89
26.14
52.37
74.77
90.26
96.80
94.15
84.17
70.15
55.76
43.71
35.11
29.32
24.65
19.36
12.40
3.87
-5.15
-13.21
-19.12
-22.43
-23.55
-23.64
-24.03
-25.67
-28.80
-32.80
-36.58
-38.98
-39.31
-37.65
-34.80
-31.89
-29.99
-29.61
-30.61
-32.30
-33.77
-34.25
-33.35
-31.07
-27.68
-23.62
-19.42
-15.77
-13.53
-13.54
-16.33
-21.56
-27.84
-33.08
-35.26
-33.47
-28.49
-22.75
-19.40
-21.04
-28.81
-42.04
-58.73
-76.24
-92.12
-104.55
-112.74
-116.96
-118.37
-118.33
-117.75
-116.55
-113.67
-107.76
-97.92
-84.27
-67.74
-49.46
-30.18
-10.20
10.22
30.23
48.32
62.78
72.57
77.90
80.03
80.51
80.33
79.49
77.33
73.32
67.84
62.46
59.57
61.35
68.73
80.76
94.70
106.93
114.14
114.49
108.10
96.77
83.14
69.69
58.14
49.35
43.53
40.60
40.28
41.91
44.38
46.19
45.86
42.67
37.04
30.35
24.32
20.05
17.51
15.57
12.72
8.03
1.70
-4.92
-10.12
-12.66
-12.44
-10.44
-8.18
-6.88
-6.95
-7.89
-8.65
-8.20
-6.05
-2.34
2.22
6.84
10.88
14.05
16.39
18.14
19.56
20.83
22.03
23.31
24.98
27.49
31.28
36.39
42.22
47.59
51.01
51.40
48.49
43.07
36.61
30.65
26.11
23.02
20.63
18.03
14.69
10.76
6.90
3.83
1.88
0.71
-0.45
-2.38
-5.38
-9.14
-12.86
-15.71
-17.20
-17.35
-16.65
-15.64
-14.63
-13.59
-12.19
-10.08
-7.17
-3.79
-0.53
2.01
3.54
4.26
4.70
5.44
6.76
8.43
9.82
10.31
9.66
8.15
6.46
5.23
4.73
4.69
4.54
3.81
2.43
0.81
-0.42
-0.81
-0.40
0.25
0.35
-0.69
-2.96
-5.94
-8.79
-10.66
-11.21
-10.75
-10.11
-10.20
-11.57
-14.12
-17.13
-19.64
-20.94
-20.89
-19.89
-18.53
-17.18
-15.78
-13.91
-11.18
-7.60
-3.72
-0.42
1.63
2.25
1.92
1.49
1.70
2.78
4.33
5.61
6.05
5.55
4.60
3.98
4.32
5.65
7.41
8.70
8.82
7.62
5.60
3.63
2.43
2.27
2.76
3.13
2.73
1.30
-0.83
-2.97
-4.46
-5.06
-5.07
-5.14
-5.89
-7.54
-9.85
-12.19
-13.98
-14.92
-15.19
-15.20
-15.28
-15.44
-15.27
-14.22
-11.91
-8.42
-4.36
-0.65
1.94
3.15
3.25
2.92
2.83
3.29
4.15
4.88
5.04
4.54
3.72
3.15
3.29
4.16
5.29
6.00
5.81
4.75
3.27
2.10
1.71
2.08
2.60
2.43
1.00
-1.62
-4.68
-6.99
-7.59
-6.23
-3.47
-0.56
1.20
1.00
-1.28
-5.10
-9.64
-14.18
-18.33
-21.94
-24.89
-26.90
-27.58
-26.51
-23.58
-19.09
-13.72
-8.37
-3.72
-0.01
2.96
5.67
8.51
11.47
14.07
15.63
15.65
14.10
11.49
8.68
6.43
5.11
4.58
4.42
4.27
4.06
4.04
4.56
5.78
7.46
9.01
9.73
9.16
7.29
4.55
1.58
-1.06
-3.15
-4.81
-6.43
-8.32
-10.53
-12.74
-14.44
-15.10
-14.50
-12.84
-10.69
-8.63
-7.03
-5.81
-4.44
-2.31
0.92
5.05
9.31
12.71
14.40
13.97
11.54
7.65
2.92
-2.10
-7.06
-11.54
-15.05
-16.99
-16.80
-14.29
-9.92
-4.71
-0.00
3.13
4.27
3.79
2.62
1.72
1.58
2.04
2.45
2.21
1.12
-0.48
-1.85
-2.34
-1.78
-0.59
0.40
0.44
-0.77
-2.98
-5.55
-7.81
-9.40
-10.41
-11.20
-12.04
-12.85
-13.09
-12.05
-9.22
-4.66
1.04
6.94
12.23
16.47
19.53
21.47
22.21
21.41
18.68
13.91
7.57
0.76
-5.04
-8.50
-8.86
-6.38
-2.17
2.17
5.23
6.40
6.07
5.24
4.89
5.18
5.36
4.25
1.11
-3.78
-9.16
-13.46
-15.74
-16.22
-16.02
-16.42
-17.92
-19.88
-20.87
-19.49
-15.25
-8.88
-2.06
3.22
5.52
4.39
0.40
-5.12
-10.68
-15.21
-18.27
-19.97
-20.66
-20.56
-19.61
-17.54
-14.20
-9.82
-5.10
-0.99
1.69
2.63
2.07
0.70
-0.73
-1.74
-2.19
-2.20
-1.89
-1.24
-0.06
1.80
4.28
7.01
9.54
11.54
13.16
14.87
17.13
19.95
22.60
23.71
21.83
16.18
7.17
-3.68
-14.30
-22.99
-29.22
-33.80
-38.47
-45.04
-54.47
-66.40
-79.12
-89.90
-95.87
-94.81
-85.87
-69.92
-49.16
-26.39
-4.13
16.19
34.38
51.14
67.40
83.85
100.65
117.45
133.54
147.79
158.63
164.16
162.66
153.18
136.25
114.06
90.06
68.29
52.81
47.13
53.74
73.19
103.03
137.23
166.95
183.00
179.09
154.38
113.76
65.61
18.09
-23.86
-59.43
-90.38
-118.29
-142.74
-161.29
-171.26
-171.85
-165.18
-155.37
-146.46
-140.62
-137.23
-133.67
-127.17
-116.38
-101.98
-86.26
-71.99
-61.29
-55.13
-53.24
-54.34
-56.59
-57.94
-56.62
-51.59
-42.90
-31.70
-19.92
-9.48
-1.64
3.32
5.93
7.13
7.78
8.37
9.10
10.03
11.10
12.22
12.99
12.79
10.72
6.09
-1.07
-9.83
-18.73
-26.55
-33.03
-38.90
-45.29
-52.76
-60.64
-67.22
-70.71
-70.13
-65.90
-59.40
-51.96
-44.17
-35.68
-25.75
-13.75
0.54
17.23
36.77
59.93
87.20
117.97
150.15
180.17
204.12
218.94
223.54
218.98
207.85
193.15
177.18
161.25
145.69
130.52
115.78
101.59
87.88
74.12
59.56
43.63
26.73
10.30
-3.52
-12.79
-16.74
-16.14
-12.93
-9.28
-6.64
-5.25
-4.45
-3.22
-0.88
2.71
7.20
12.08
16.93
21.62
26.24
31.08
36.44
42.42
48.68
54.41
58.45
59.80
58.11
53.91
48.32
42.37
36.12
28.27
16.46
-2.00
-29.23
-66.17
-112.16
-164.58
-218.72
-268.05
-305.16
-323.57
-319.77
-294.77
-254.01
-205.77
-158.48
-118.48
-88.99
-70.53
-62.02
-61.70
-67.41
-76.41
-85.50
-91.61
-92.84
-89.00
-81.46
-72.33
-63.46
-55.87
-49.68
-44.51
-39.81
-34.77
-28.32
-19.16
-6.35
10.05
28.76
47.49
63.76
75.85
83.19
86.24
85.95
83.27
79.09
74.35
70.13
67.43
66.87
68.25
70.54
72.32
72.30
69.87
65.05
58.24
49.86
40.27
29.94
19.67
10.58
3.76
-0.26
-1.82
-1.99
-2.05
-2.93
-4.84
-7.35
-9.69
-11.17
-11.39
-10.23
-7.92
-4.97
-2.25
-0.79
-1.45
-4.52
-9.45
-15.00
-19.78
-22.78
-23.76
-23.12
-21.50
-19.29
-16.57
-13.22
-9.37
-5.53
-2.52
-1.07
-1.38
-3.07
-5.29
-7.07
-7.70
-6.86
-4.72
-1.76
1.33
3.76
4.85
4.18
1.58
-2.79
-8.53
-15.06
-21.75
-28.00
-33.40
-37.75
-41.10
-43.68
-45.63
-46.89
-47.09
-45.68
-42.27
-36.85
-29.87
-22.19
-14.69
-8.03
-2.55
1.64
4.65
6.54
7.35
7.09
5.85
3.92
1.79
0.15
-0.35
0.82
3.78
8.21
13.47
18.79
23.65
27.80
31.27
34.20
36.53
37.99
38.21
36.96
34.32
30.70
26.72
22.85
19.27
15.75
11.99
7.89
3.78
0.32
-1.71
-1.82
0.07
3.64
8.40
13.99
20.18
26.75
33.27
39.05
43.28
45.35
45.21
43.38
40.86
38.74
37.75
38.09
39.39
40.90
41.94
42.15
41.58
40.63
39.65
38.74
37.68
36.04
33.52
30.15
26.41
22.99
20.54
19.40
19.43
20.15
20.95
21.27
20.78
19.30
16.66
12.58
6.71
-1.19
-10.82
-21.25
-30.94
-38.23
-41.91
-41.65
-38.01
-32.22
-25.50
-18.77
-12.37
-6.29
-0.45
5.04
9.76
13.15
14.79
14.57
12.81
10.13
7.26
4.81
3.17
2.44
2.53
3.18
4.10
4.99
5.68
6.16
6.52
6.87
7.23
7.59
7.91
8.16
8.28
8.19
7.66
6.55
4.99
3.50
2.90
3.86
6.43
9.78
12.49
13.20
11.40
7.73
3.65
0.72
-0.20
0.72
2.58
4.28
5.14
5.13
4.69
4.28
4.03
3.66
2.67
0.65
-2.44
-6.25
-10.14
-13.52
-16.06
-17.77
-18.98
-20.14
-21.60
-23.42
-25.47
-27.54
-29.49
-31.25
-32.65
-33.20
-32.09
-28.41
-21.62
-12.04
-0.92
9.88
18.49
23.63
24.91
22.82
18.43
12.99
7.63
3.17
0.03
-1.74
-2.37
-2.17
-1.41
-0.26
1.07
2.26
2.80
2.21
0.28
-2.70
-6.02
-8.81
-10.43
-10.77
-10.15
-9.14
-8.18
-7.45
-6.84
-6.13
-5.18
-4.03
-2.81
-1.58
-0.30
1.25
3.26
5.69
8.22
10.31
11.39
11.13
9.52
6.94
3.90
0.92
-1.73
-3.96
-5.89
-7.67
-9.41
-11.12
-12.69
-13.87
-14.32
-13.66
-11.55
-7.86
-2.77
3.23
9.39
14.94
19.28
22.14
23.62
24.06
23.87
23.39
22.85
22.31
21.81
21.30
20.78
20.27
19.82
19.54
19.52
19.77
20.23
20.71
21.01
20.96
20.51
19.71
18.67
17.45
16.08
14.55
12.93
11.31
9.84
8.59
7.46
6.25
4.73
2.82
0.67
-1.41
-3.15
-4.48
-5.57
-6.73
-8.14
-9.75
-11.23
-12.16
-12.24
-11.35
-9.65
-7.39
-4.80
-2.13
0.39
2.47
3.85
4.45
4.47
4.38
4.72
5.84
7.77
10.25
12.87
15.21
16.87
17.41
16.35
13.32
8.36
2.15
-3.96
-8.37
-9.78
-7.78
-3.02
3.06
8.77
12.79
14.60
14.39
12.80
10.53
8.13
5.97
4.25
3.06
2.29
1.52
0.02
-3.07
-8.25
-15.35
-23.36
-30.76
-36.02
-38.21
-37.25
-33.79
-28.81
-23.19
-17.58
-12.36
-7.92
-4.72
-3.20
-3.63
-5.83
-9.21
-12.90
-16.02
-17.95
-18.35
-17.16
-14.52
-10.70
-6.12
-1.33
3.00
6.30
8.21
8.70
8.05
6.69
5.03
3.35
1.77
0.31
-1.02
-2.10
-2.87
-3.40
-4.05
-5.43
-8.12
-12.38
-17.86
-23.63
-28.53
-31.68
-32.79
-32.31
-31.08
-29.86
-28.94
-28.06
-26.58
-23.92
-19.95
-15.09
-10.22
-6.38
-4.38
-4.58
-6.75
-10.19
-13.97
-17.26
-19.47
-20.36
-19.95
-18.47
-16.34
-14.02
-11.95
-10.50
-9.95
-10.45
-12.00
-14.34
-16.92
-19.03
-19.97
-19.45
-17.94
-16.68
-17.08
-19.92
-24.69
-29.73
-33.29
-34.37
-33.68
-33.54
-36.88
-45.92
-61.27
-81.78
-105.19
-128.99
-150.19
-165.84
-173.11
-169.81
-155.25
-130.93
-100.52
-68.76
-39.72
-13.63
12.85
44.98
86.57
136.85
189.48
234.27
261.66
266.99
254.73
236.92
229.07
244.46
289.72
363.01
455.15
553.05
632.56
671.54
655.72
585.54
476.67
352.85
234.96
134.28
53.12
-10.94
-59.30
-91.70
-106.76
-107.36
-99.71
-91.61
-89.68
-96.39
-109.74
-123.79
-132.16
-131.08
-121.28
-107.21
-93.27
-83.51
-79.35
-79.57
-80.92
-80.41
-76.75
-70.89
-65.02
-61.42
-61.49
-65.06
-70.95
-77.43
-83.07
-87.05
-89.10
-89.17
-87.36
-84.11
-80.08
-76.26
-73.89
-74.09
-77.60
-84.54
-94.35
-106.15
-119.33
-133.73
-149.71
-167.70
-187.54
-207.86
-226.10
-239.13
-244.43
-241.08
-230.05
-213.76
-195.22
-177.28
-162.26
-151.94
-147.49
-149.08
-155.39
-163.05
-167.15
-162.46
-145.19
-114.53
-73.29
-27.29
16.30
51.19
73.68
83.41
82.99
76.72
69.11
63.56
61.74
63.83
69.06
76.35
84.44
91.89
97.28
99.46
98.06
93.59
87.63
82.46
80.42
82.88
89.47
98.41
107.18
113.44
115.48
112.74
105.95
96.84
87.86
81.33
79.57
84.29
96.23
114.56
137.58
163.51
190.82
219.96
248.85
273.06
285.69
282.27
260.19
219.59
163.23
96.32
25.29
-44.04
-106.94
-160.57
-204.00
-238.57
-267.13
-293.40
-321.45
-354.86
-395.71
-442.70
-490.47
-530.39
-553.56
-554.06
-531.45
-491.01
-441.55
-392.01
-348.03
-310.96
-278.93
-249.39
-220.75
-192.68
-165.45
-138.77
-111.45
-81.78
-48.30
-10.46
31.13
74.75
118.02
158.18
192.49
218.82
236.29
245.74
249.46
250.43
251.26
253.45
257.32
262.41
267.97
273.19
277.06
278.11
274.54
264.75
248.23
226.20
201.74
179.16
163.00
156.81
162.16
178.22
201.88
228.47
252.75
269.96
276.63
270.97
252.86
223.58
185.33
140.75
92.40
42.16
-9.27
-62.43
-118.48
-177.89
-239.12
-298.08
-348.86
-385.54
-404.31
-404.76
-389.94
-365.05
-335.76
-306.63
-280.57
-259.11
-242.83
-231.81
-225.38
-221.96
-218.85
-212.64
-200.13
-179.20
-149.52
-112.60
-71.25
-28.49
13.54
54.07
93.38
131.85
168.93
202.84
230.95
250.74
260.71
260.92
252.86
239.10
222.85
207.66
196.99
193.65
199.04
212.61
231.81
252.81
271.63
285.21
291.92
291.43
284.18
271.03
253.22
232.66
212.24
195.68
186.60
187.32
197.98
216.39
238.63
260.12
276.53
284.36
281.42
267.09
242.72
211.67
178.79
149.08
126.19
111.10
102.04
95.39
87.41
75.73
59.87
40.85
20.28
-0.44
-20.34
-38.65
-54.49
-66.69
-74.05
-76.09
-73.66
-69.02
-65.33
-65.67
-71.99
-84.55
-102.38
-123.97
-148.34
-175.72
-207.42
-245.36
-291.53
-347.48
-413.84
-489.51
-570.69
-650.44
-719.48
-768.46
-790.99
-785.90
-757.55
-713.90
-663.36
-611.99
-562.44
-514.79
-468.29
-422.75
-378.82
-337.22
-297.93
-259.93
-221.86
-182.92
-143.41
-104.49
-67.67
-33.85
-2.84
26.49
55.75
86.19
118.31
151.64
185.12
217.63
248.52
277.89
306.67
336.38
368.58
404.01
441.77
479.09
511.74
535.27
546.44
544.21
529.75
505.51
473.88
436.25
392.99
344.35
291.63
237.91
187.54
144.77
112.15
89.54
74.35
62.85
51.64
38.80
24.11
8.42
-7.20
-21.96
-35.20
-46.13
-53.62
-56.55
-54.39
-47.68
-38.02
-27.42
-17.35
-8.38
-0.28
7.39
14.53
20.31
23.48
23.04
18.93
12.05
3.88
-4.16
-11.29
-17.42
-22.80
-27.51
-31.16
-32.96
-32.04
-27.90
-20.66
-11.18
-0.79
8.88
16.47
21.18
22.93
22.33
20.29
17.52
14.31
10.58
6.40
2.37
-0.40
-0.72
1.84
6.38
10.75
12.30
9.10
0.82
-11.11
-24.10
-35.70
-44.80
-52.20
-60.18
-71.28
-87.08
-107.41
-130.45
-153.67
-174.82
-192.63
-206.78
-217.37
-224.33
-227.18
-225.02
-216.84
-201.78
-179.32
-149.52
-113.32
-72.71
-30.58
9.99
46.61
78.31
105.54
129.54
151.46
171.57
189.20
203.19
212.47
216.57
215.93
211.76
206.14
201.38
199.38
200.80
204.21
206.00
201.16
184.93
154.83
112.08
61.64
10.77
-33.51
-66.72
-88.02
-99.63
-105.03
-107.23
-107.80
-107.13
-105.47
-103.66
-103.30
-105.78
-111.19
-117.92
-123.23
-124.57
-121.06
-114.17
-107.08
-103.41
-105.34
-112.50
-122.04
-129.67
-131.49
-125.56
-112.46
-94.81
-75.89
-58.36
-43.72
-32.41
-24.71
-21.08
-22.13
-27.88
-36.97
-46.65
-53.64
-55.54
-52.19
-45.72
-39.32
-35.20
-32.86
-29.02
-19.32
-0.68
26.40
57.55
85.98
105.19
111.41
104.69
88.17
66.14
42.24
18.29
-5.42
-29.06
-52.03
-72.51
-87.91
-95.84
-95.24
-86.63
-71.78
-52.71
-30.87
-7.04
18.18
43.71
67.45
86.62
98.61
101.96
96.96
85.44
70.17
54.11
39.52
27.66
18.72
12.17
7.32
3.75
1.59
1.09
2.02
2.94
1.35
-5.40
-18.48
-36.32
-54.58
-67.54
-70.68
-62.88
-47.12
-29.09
-14.34
-5.72
-2.25
-0.05
5.17
15.62
30.43
46.47
60.44
70.60
77.43
82.70
87.81
92.68
95.72
95.07
90.05
81.85
73.09
66.51
63.57
63.88
65.49
66.06
63.86
58.34
50.10
40.35
30.35
21.06
13.04
6.58
1.84
-1.15
-2.48
-2.47
-1.73
-0.99
-0.93
-1.84
-3.43
-4.92
-5.37
-4.27
-1.97
0.25
0.70
-1.85
-7.42
-14.67
-21.29
-25.04
-24.69
-20.41
-13.65
-6.24
0.35
5.44
9.14
11.93
14.10
15.58
15.99
15.08
13.04
10.59
8.75
8.35
9.51
11.55
13.21
13.29
11.21
7.34
2.85
-0.83
-2.76
-2.94
-2.25
-1.93
-2.88
-5.13
-7.87
-9.90
-10.40
-9.38
-7.62
-6.15
-5.55
-5.63
-5.49
-4.13
-1.05
3.37
8.08
11.88
14.01
14.38
13.54
12.31
11.30
10.70
10.27
9.59
8.38
6.72
5.11
4.25
4.58
6.00
7.81
9.04
9.01
7.74
6.10
5.26
6.04
8.30
10.95
12.54
12.11
9.73
6.48
3.77
2.52
2.61
3.11
2.96
1.70
-0.20
-1.65
-1.74
-0.34
1.77
3.35
3.60
2.69
1.74
2.31
5.43
11.05
17.95
24.37
28.89
31.04
31.40
31.24
31.72
33.39
36.06
39.01
41.55
43.32
44.45
45.29
46.09
46.78
47.02
46.49
45.14
43.27
41.24
39.11
36.37
32.00
24.99
14.99
2.68
-10.34
-22.24
-31.67
-38.39
-43.19
-47.32
-51.67
-56.32
-60.53
-63.31
-64.08
-63.14
-61.66
-61.24
-63.02
-67.12
-72.30
-76.18
-75.93
-69.23
-55.21
-34.99
-11.47
11.52
30.35
42.72
48.20
47.92
43.84
37.79
31.00
24.07
17.33
11.13
6.05
2.59
0.82
0.22
-0.12
-1.03
-2.91
-5.54
-8.28
-10.59
-12.38
-14.10
-16.35
-19.46
-23.14
-26.54
-28.65
-28.81
-27.04
-24.04
-20.74
-17.95
-16.07
-15.09
-14.75
-14.86
-15.29
-16.02
-16.89
-17.54
-17.47
-16.29
-13.92
-10.71
-7.36
-4.57
-2.73
-1.72
-1.03
-0.06
1.53
3.60
5.68
7.17
7.86
8.00
8.27
9.35
11.51
14.40
17.12
18.63
18.26
15.95
12.29
8.15
4.32
1.17
-1.34
-3.48
-5.43
-7.09
-8.12
-8.18
-7.14
-5.30
-3.29
-1.83
-1.40
-2.03
-3.34
-4.68
-5.52
-5.72
-5.60
-5.70
-6.41
-7.74
-9.22
-10.12
-9.88
-8.40
-6.17
-4.01
-2.61
-2.14
-2.14
-1.85
-0.65
1.53
4.07
6.01
6.57
5.59
3.60
1.56
0.34
0.26
1.00
1.82
2.10
1.70
1.08
0.96
1.86
3.68
5.63
6.62
5.87
3.31
-0.48
-4.54
-8.11
-10.90
-13.00
-14.60
-15.61
-15.63
-14.21
-11.09
-6.55
-1.29
3.73
7.65
10.01
10.76
10.22
8.89
7.23
5.50
3.67
1.57
-0.90
-3.55
-5.87
-7.20
-7.09
-5.61
-3.43
-1.49
-0.51
-0.66
-1.49
-2.19
-2.14
-1.29
-0.15
0.50
0.11
-1.27
-3.10
-4.59
-5.27
-5.25
-5.22
-6.02
-8.16
-11.36
-14.64
-16.63
-16.30
-13.42
-8.81
-3.95
-0.35
1.09
0.44
-1.48
-3.58
-5.10
-5.86
-6.15
-6.38
-6.67
-6.75
-6.11
-4.44
-1.88
0.90
3.02
3.79
3.07
1.31
-0.63
-1.98
-2.39
-2.12
-1.79
-1.99
-2.97
-4.51
-6.08
-7.23
-7.81
-8.04
-8.25
-8.57
-8.76
-8.26
-6.53
-3.43
0.57
4.55
7.53
8.97
8.98
8.11
7.03
5.99
4.72
2.62
-0.75
-5.23
-9.96
-13.59
-14.86
-13.20
-8.94
-3.18
2.70
7.59
10.97
12.91
13.84
14.12
13.85
12.89
11.14
8.83
6.65
5.53
6.24
8.93
12.96
17.13
20.16
21.25
20.34
18.03
15.22
12.60
10.42
8.51
6.63
4.74
3.13
2.29
2.58
3.91
5.66
6.91
6.85
5.19
2.24
-1.19
-4.25
-6.44
-7.84
-9.05
-10.73
-13.22
-16.29
-19.22
-21.20
-21.79
-21.18
-20.02
-19.02
-18.46
-18.01
-16.90
-14.38
-10.26
-5.07
0.09
4.14
6.49
7.23
7.09
6.92
7.22
8.00
8.74
8.93
8.41
7.49
6.84
7.11
8.45
10.39
12.04
12.60
11.73
9.77
7.60
6.07
5.61
5.93
6.23
5.63
3.72
0.76
-2.46
-5.04
-6.50
-7.01
-7.25
-7.94
-9.47
-11.64
-13.86
-15.44
-16.03
-15.74
-15.06
-14.39
-13.80
-12.93
-11.19
-8.21
-4.18
0.10
3.54
5.34
5.39
4.33
3.21
2.87
3.45
4.34
4.56
3.39
0.90
-2.03
-4.05
-4.01
-1.54
2.85
7.98
12.58
15.82
17.54
18.24
18.55
18.86
19.02
18.45
16.60
13.41
9.41
5.62
2.96
1.69
1.24
0.46
-1.66
-5.37
-9.98
-14.09
-16.32
-15.94
-13.24
-9.24
-5.10
-1.54
1.40
4.21
7.45
11.27
15.31
18.86
21.35
22.60
22.92
22.81
22.60
22.18
21.06
18.70
14.93
10.14
5.20
1.19
-1.12
-1.52
-0.34
1.75
4.15
6.48
8.61
10.31
10.98
9.61
5.17
-2.79
-13.53
-25.03
-34.60
-39.95
-40.20
-36.26
-30.43
-25.28
-22.59
-22.69
-24.62
-26.85
-28.09
-27.79
-26.12
-23.57
-20.47
-16.78
-12.27
-6.82
-0.81
4.85
9.01
10.80
10.03
7.38
4.07
1.36
0.00
-0.00
0.74
1.49
1.83
1.84
1.97
2.58
3.68
4.76
5.07
4.04
1.58
-1.82
-5.30
-7.97
-9.33
-9.44
-8.99
-9.00
-10.49
-14.06
-19.65
-26.41
-32.96
-37.73
-39.48
-37.68
-32.57
-25.08
-16.44
-7.85
-0.24
5.79
9.95
12.28
13.16
13.24
13.35
14.22
16.10
18.69
21.24
22.95
23.37
22.55
21.03
19.38
17.88
16.43
14.66
12.36
9.73
7.36
5.97
6.01
7.38
9.49
11.48
12.65
12.74
11.91
10.63
9.35
8.27
7.27
6.01
4.14
1.59
-1.43
-4.46
-7.02
-8.85
-9.98
-10.71
-11.29
-11.78
-11.94
-11.41
-9.86
-7.32
-4.13
-0.95
1.67
3.40
4.25
4.55
4.65
4.77
4.89
4.80
4.28
3.30
2.04
0.86
0.10
-0.19
-0.26
-0.60
-1.58
-3.30
-5.45
-7.44
-8.76
-9.27
-9.26
-9.32
-9.94
-11.23
-12.83
-14.08
-14.45
-13.84
-12.64
-11.61
-11.37
-12.16
-13.67
-15.23
-16.17
-16.19
-15.43
-14.37
-13.45
-12.81
-12.27
-11.39
-9.87
-7.76
-5.48
-3.68
-2.82
-2.92
-3.56
-4.00
-3.60
-2.08
0.23
2.61
4.28
4.81
4.28
3.28
2.46
2.22
2.47
2.77
2.71
2.25
1.81
1.99
3.20
5.22
7.20
8.16
7.44
5.21
2.35
0.09
-0.73
-0.02
1.51
2.79
3.08
2.29
1.11
0.55
1.35
3.57
6.54
9.29
11.06
11.73
11.78
11.97
12.80
14.18
15.46
15.85
14.91
12.89
10.56
8.85
8.24
8.54
8.96
8.59
7.04
4.62
2.26
1.01
1.44
3.35
5.86
7.90
8.80
8.55
7.73
7.07
6.94
7.11
6.85
5.36
2.27
-2.12
-6.93
-11.08
-13.76
-14.76
-14.44
-13.43
-12.21
-10.91
-9.29
-7.01
-4.03
-0.73
2.11
3.80
4.10
3.43
2.68
2.72
3.91
5.86
7.69
8.54
8.09
6.75
5.39
4.85
5.45
6.87
8.34
9.09
8.79
7.69
6.38
5.48
5.23
5.35
5.27
4.44
2.75
0.63
-1.16
-1.98
-1.70
-0.83
-0.34
-1.07
-3.32
-6.61
-9.96
-12.35
-13.26
-12.85
-11.80
-10.85
-10.40
-10.30
-10.00
-8.88
-6.69
-3.67
-0.50
2.08
3.64
4.28
4.54
5.11
6.34
8.00
9.39
9.74
8.69
6.57
4.27
2.81
2.77
3.99
5.68
6.87
7.00
6.15
4.97
4.24
4.28
4.83
5.14
4.50
2.71
0.19
-2.22
-3.79
-4.31
-4.22
-4.36
-5.39
-7.45
-10.06
-12.40
-13.73
-13.81
-12.90
-11.53
-10.15
-8.85
-7.42
-5.55
-3.08
-0.26
2.41
4.32
5.13
4.89
4.05
3.29
3.17
3.86
5.09
6.24
6.70
6.12
4.62
2.69
0.94
-0.24
-0.78
-0.87
-0.73
-0.35
0.50
2.17
4.76
7.93
10.88
12.64
12.52
10.38
6.76
2.59
-1.18
-4.04
-6.01
-7.56
-9.18
-11.06
-12.96
-14.36
-14.79
-14.17
-12.86
-11.51
-10.63
-10.33
-10.28
-9.84
-8.49
-6.17
-3.29
-0.61
1.32
2.35
2.84
3.44
4.63
6.43
8.32
9.61
9.81
8.97
7.63
6.55
6.30
6.94
8.01
8.82
8.84
8.00
6.68
5.51
4.99
5.14
5.50
5.38
4.31
2.29
-0.18
-2.31
-3.54
-3.83
-3.67
-3.85
-4.96
-7.06
-9.73
-12.22
-13.92
-14.57
-14.41
-13.92
-13.47
-13.08
-12.45
-11.07
-8.62
-5.23
-1.44
1.96
4.44
5.91
6.73
7.53
8.78
10.46
12.15
13.19
13.17
12.17
10.73
9.63
9.40
10.06
11.12
11.77
11.43
10.03
8.04
6.26
5.36
5.47
6.18
6.73
6.50
5.34
3.60
1.96
0.95
0.62
0.57
0.11
-1.24
-3.50
-6.21
-8.69
-10.39
-11.25
-11.62
-12.07
-12.95
-14.11
-14.96
-14.77
-13.13
-10.25
-6.94
-4.20
-2.74
-2.55
-3.03
-3.25
-2.58
-1.01
0.87
2.25
2.64
2.16
1.44
1.28
2.12
3.75
5.46
6.42
6.22
5.06
3.67
2.88
3.11
4.16
5.31
5.76
5.04
3.28
1.12
-0.70
-1.71
-2.00
-2.08
-2.58
-3.86
-5.79
-7.87
-9.48
-10.30
-10.48
-10.53
-10.98
-11.99
-13.23
-13.98
-13.54
-11.67
-8.71
-5.49
-2.85
-1.23
-0.45
0.10
1.10
2.80
4.92
6.76
7.70
7.57
6.76
6.06
6.18
7.32
9.03
10.50
10.99
10.27
8.71
7.08
6.11
6.10
6.72
7.26
7.03
5.75
3.74
1.69
0.29
-0.16
0.09
0.38
0.10
-1.01
-2.72
-4.48
-5.79
-6.54
-7.05
-7.84
-9.32
-11.39
-13.51
-14.93
-15.05
-13.78
-11.57
-9.22
-7.42
-6.39
-5.87
-5.21
-3.79
-1.45
1.40
3.97
5.51
5.70
4.84
3.71
3.13
3.53
4.70
5.96
6.62
6.36
5.47
4.63
4.54
5.43
6.90
8.10
8.27
7.15
5.09
2.90
1.32
0.62
0.47
0.16
-0.91
-2.90
-5.39
-7.63
-9.00
-9.35
-9.11
-9.15
-10.20
-12.53
-15.73
-18.81
-20.66
-20.49
-18.19
-14.33
-9.84
-5.60
-2.08
0.72
3.14
5.47
7.71
9.55
10.63
10.82
10.38
9.90
9.96
10.80
12.15
13.35
13.79
13.25
12.00
10.70
9.97
9.99
10.42
10.55
9.78
7.98
5.55
3.30
1.95
1.79
2.45
3.16
3.16
2.10
0.19
-1.92
-3.56
-4.48
-4.91
-5.52
-6.88
-9.15
-11.93
-14.47
-16.01
-16.27
-15.48
-14.29
-13.24
-12.49
-11.73
-10.40
-8.06
-4.80
-1.23
1.82
3.73
4.42
4.38
4.36
4.92
6.10
7.44
8.29
8.24
7.38
6.27
5.64
5.96
7.15
8.63
9.65
9.69
8.77
7.34
6.10
5.54
5.66
5.99
5.85
4.82
2.93
0.74
-1.05
-1.96
-2.09
-2.05
-2.63
-4.35
-7.11
-10.27
-12.93
-14.41
-14.55
-13.78
-12.75
-11.97
-11.53
-11.10
-10.18
-8.45
-5.98
-3.26
-0.92
0.65
1.48
1.97
2.66
3.84
5.37
6.76
7.47
7.24
6.29
5.21
4.65
4.95
5.91
6.88
7.09
6.17
4.36
2.52
1.74
2.78
5.62
9.34
12.50
13.79
12.64
9.43
5.28
1.44
-1.33
-3.03
-4.24
-5.68
-7.77
-10.52
-13.63
-16.76
-19.75
-22.60
-25.25
-27.43
-28.57
-28.00
-25.12
-19.85
-12.70
-4.78
2.55
8.14
11.40
12.46
11.96
10.67
9.03
7.04
4.47
1.25
-2.19
-4.96
-6.02
-4.77
-1.38
3.19
7.66
11.08
13.13
14.17
14.78
15.21
15.10
13.65
10.09
4.39
-2.58
-9.26
-13.98
-15.75
-14.52
-11.17
-6.95
-2.96
0.24
2.59
4.33
5.60
6.29
6.04
4.50
1.61
-2.30
-6.49
-10.11
-12.45
-13.17
-12.38
-10.49
-7.84
-4.63
-0.83
3.64
8.59
13.40
17.18
19.12
18.84
16.72
13.62
10.55
8.09
6.12
4.01
1.15
-2.53
-6.30
-8.89
-9.10
-6.51
-1.71
3.84
8.53
11.27
11.86
10.92
9.38
7.94
6.73
5.36
3.28
0.22
-3.69
-7.90
-11.73
-14.77
-16.91
-18.40
-19.48
-20.20
-20.36
-19.58
-17.66
-14.82
-11.82
-9.68
-9.16
-10.38
-12.60
-14.54
-14.95
-13.26
-9.81
-5.68
-2.11
0.14
1.04
1.20
1.40
2.16
3.46
4.93
6.14
6.94
7.42
7.71
7.73
7.08
5.28
2.00
-2.52
-7.50
-11.92
-14.86
-15.96
-15.42
-13.88
-12.05
-10.36
-8.92
-7.61
-6.25
-4.81
-3.42
-2.34
-1.79
-1.77
-1.97
-1.71
-0.17
3.32
8.84
15.60
22.14
26.87
28.82
28.05
25.68
23.23
21.78
21.46
21.50
20.89
19.11
16.51
14.14
13.05
13.71
15.61
17.65
18.78
18.51
17.15
15.54
14.52
14.42
14.95
15.35
14.94
13.45
11.26
9.15
7.91
7.86
8.65
9.45
9.41
8.18
6.07
3.95
2.69
2.61
3.32
3.89
3.47
1.77
-0.71
-2.97
-4.06
-3.56
-1.79
0.50
2.56
4.08
5.25
6.63
8.70
11.61
15.07
18.56
21.67
24.34
26.86
29.70
33.29
37.77
43.06
48.93
55.19
61.68
68.05
73.57
77.11
77.39
73.59
65.81
55.45
44.65
35.59
29.43
25.63
22.01
15.43
2.98
-16.82
-43.42
-74.31
-105.72
-133.67
-155.06
-168.49
-174.61
-175.87
-175.46
-175.97
-178.20
-180.65
-180.01
-172.44
-155.21
-127.80
-92.25
-52.34
-12.28
24.70
57.16
85.13
109.14
129.25
144.40
152.74
152.72
144.04
128.18
107.96
86.48
66.10
48.09
32.94
20.98
12.86
9.25
10.32
15.20
21.98
28.23
31.81
31.41
26.84
19.12
10.16
2.35
-2.12
-2.15
1.87
8.26
14.79
19.62
21.82
21.29
18.38
13.51
7.04
-0.43
-8.00
-14.66
-19.83
-23.75
-27.34
-31.47
-36.08
-39.99
-41.31
-38.56
-31.64
-22.05
-12.16
-4.19
0.89
3.67
5.89
9.53
15.91
25.05
35.69
45.87
53.57
57.46
57.06
52.71
45.12
34.96
22.75
8.99
-5.60
-19.93
-32.55
-42.15
-47.98
-50.28
-50.19
-49.29
-48.97
-49.82
-51.46
-52.83
-52.74
-50.42
-45.76
-39.27
-31.79
-24.07
-16.68
-9.95
-4.12
0.62
4.13
6.40
7.56
7.87
7.52
6.59
4.99
2.54
-0.87
-5.16
-10.09
-15.36
-20.76
-26.25
-31.90
-37.76
-43.65
-49.20
-53.97
-57.63
-60.21
-61.98
-63.32
-64.29
-64.45
-62.89
-58.54
-50.63
-39.15
-24.95
-9.58
5.13
17.58
26.77
32.37
34.73
34.64
33.07
31.01
29.32
28.63
29.22
30.99
33.38
35.49
36.22
34.65
30.26
23.25
14.46
5.20
-3.18
-9.69
-13.95
-16.19
-16.95
-16.84
-16.25
-15.24
-13.72
-11.63
-9.00
-6.04
-3.00
-0.12
2.43
4.46
5.67
5.73
4.36
1.49
-2.59
-7.26
-11.72
-15.25
-17.46
-18.47
-18.76
-19.00
-19.66
-20.81
-22.12
-23.07
-23.29
-22.77
-21.76
-20.53
-19.05
-16.83
-13.22
-7.81
-0.89
6.46
12.76
16.82
18.34
18.09
17.56
18.14
20.49
24.18
28.03
30.82
31.97
31.82
31.35
31.54
32.80
34.84
37.00
38.81
40.14
41.12
41.65
41.08
38.27
32.16
22.32
9.47
-4.72
-18.19
-29.07
-36.25
-39.45
-39.18
-36.54
-33.07
-30.43
-30.02
-32.54
-37.66
-44.08
-50.01
-53.94
-55.29
-54.57
-52.82
-51.01
-49.32
-47.16
-43.78
-39.03
-33.84
-29.87
-28.70
-30.80
-35.13
-39.68
-42.49
-42.84
-41.59
-40.74
-42.23
-47.00
-54.84
-64.89
-76.81
-90.98
-107.93
-127.16
-146.35
-161.92
-170.73
-172.04
-168.25
-163.79
-162.64
-165.96
-171.33
-174.10
-169.86
-156.58
-135.09
-107.64
-75.94
-39.78
2.45
51.76
106.36
160.73
206.85
237.18
247.94
241.01
223.35
204.06
190.58
186.17
189.32
195.67
200.79
202.30
200.34
196.43
191.80
186.32
178.63
167.26
151.89
134.02
116.63
102.97
95.20
93.43
95.82
99.42
101.40
100.18
95.76
89.31
82.32
75.74
69.64
63.44
56.57
48.99
41.43
34.94
30.38
27.82
26.47
24.97
22.08
17.27
11.05
4.74
-0.13
-2.63
-2.98
-2.53
-3.14
-6.26
-12.13
-19.70
-27.07
-32.38
-34.63
-33.93
-31.22
-27.78
-24.77
-23.01
-22.99
-24.78
-28.09
-32.17
-35.90
-38.14
-38.03
-35.40
-30.80
-25.51
-21.03
-18.64
-18.89
-21.25
-24.33
-26.31
-25.75
-22.10
-15.97
-8.80
-2.17
2.90
6.19
8.14
9.37
10.35
11.21
11.94
12.64
13.66
15.49
18.50
22.65
27.41
31.79
34.65
34.98
32.18
26.00
16.46
3.85
-11.13
-27.21
-42.61
-55.46
-64.35
-68.72
-68.93
-65.79
-60.02
-51.77
-40.72
-26.46
-9.13
10.17
29.46
46.29
58.57
65.10
65.86
61.84
54.66
46.03
37.39
29.82
24.14
21.12
21.37
25.21
32.38
41.89
52.04
60.58
65.19
63.87
55.55
40.58
20.92
-0.06
-18.43
-30.85
-35.65
-33.25
-25.83
-16.39
-7.68
-1.65
0.60
-1.55
-8.47
-20.02
-34.97
-50.79
-64.10
-71.93
-73.01
-68.39
-60.98
-54.08
-49.84
-48.46
-48.60
-48.65
-48.01
-47.52
-48.82
-53.12
-60.35
-68.84
-75.81
-78.47
-74.86
-64.70
-49.65
-32.88
-18.17
-8.60
-5.22
-6.38
-8.34
-6.96
0.24
12.82
27.77
41.13
49.70
52.45
50.87
48.21
48.33
54.56
68.69
90.30
116.27
140.55
155.37
153.58
131.27
89.42
33.64
-27.83
-86.75
-134.01
-161.81
-165.39
-144.51
-103.40
-49.06
11.00
70.32
124.14
169.28
204.11
228.60
244.06
252.72
257.14
258.96
258.54
255.17
247.25
233.25
212.59
185.98
155.28
122.77
89.98
56.65
24.25
-7.93
-41.41
-77.37
-115.93
-156.08
-196.04
-234.08
-269.19
-301.39
-332.08
-363.22
-397.06
-435.62
-479.95
-528.89
-578.27
-620.97
-648.52
-654.42
-636.39
-597.66
-545.77
-489.73
-436.73
-390.22
-350.11
-314.49
-282.00
-252.60
-227.17
-206.33
-189.33
-173.93
-157.19
-136.71
-111.53
-82.65
-52.33
-23.06
3.52
27.25
49.49
72.40
98.00
127.35
160.06
194.56
228.62
259.89
286.16
305.41
316.04
317.46
310.82
299.27
287.27
278.82
275.66
276.48
277.87
276.64
271.95
266.01
262.62
264.64
271.82
280.47
285.06
280.67
265.05
238.96
205.44
168.40
131.73
98.80
72.09
52.77
40.26
32.44
26.48
20.13
12.84
5.82
1.22
0.70
4.46
11.24
19.29
27.89
38.01
51.87
71.41
96.89
126.37
156.57
184.37
208.16
227.98
244.77
259.01
270.05
276.29
276.25
269.74
258.28
244.57
231.37
220.33
211.66
204.29
196.49
186.68
173.87
158.12
140.39
122.24
105.04
89.45
74.94
59.96
42.46
20.85
-5.36
-35.41
-67.86
-101.31
-135.22
-170.23
-207.96
-250.51
-299.97
-357.91
-424.72
-498.73
-575.29
-646.70
-703.46
-736.80
-741.61
-718.10
-671.54
-610.15
-542.04
-473.05
-406.06
-341.81
-280.45
-222.48
-168.56
-118.83
-72.48
-27.82
17.10
63.85
113.62
166.23
219.77
270.64
314.07
345.26
361.21
361.85
350.26
332.03
312.63
296.10
284.87
280.52
284.54
297.95
319.98
346.54
370.65
383.05
375.58
344.58
292.55
227.19
158.50
95.30
38.72
-9.92
-49.94
-80.67
-101.49
-112.32
-114.24
-109.52
-101.18
-92.13
-83.55
-75.85
-68.68
-61.30
-53.12
-43.92
-34.02
-24.23
-15.29
-7.07
0.72
8.42
16.34
24.52
32.78
40.68
47.63
52.87
56.52
58.97
60.75
62.25
63.81
65.67
67.99
70.30
72.25
73.86
75.26
76.66
78.16
79.93
82.24
85.41
88.99
92.60
95.98
98.84
100.85
101.11
98.57
91.76
83.62
74.82
65.46
55.40
44.60
33.28
20.85
7.33
-6.72
-20.44
-33.90
-47.53
-61.87
-77.14
-92.89
-110.47
-130.08
-150.79
-171.11
-190.52
-209.42
-228.70
-248.94
-269.77
-293.88
-322.03
-352.99
-384.21
-413.51
-440.21
-465.25
-490.72
-518.93
-556.01
-603.55
-656.72
-705.24
-737.46
-745.74
-729.18
-693.57
-618.37
-501.55
-356.16
-204.87
-68.47
42.26
124.97
182.19
218.44
239.30
246.11
241.84
231.15
217.71
207.09
202.29
204.30
213.24
229.24
249.01
270.74
294.61
318.74
341.50
360.50
373.56
379.52
378.53
369.47
352.62
329.65
303.11
275.99
250.14
226.39
204.99
185.93
168.07
150.56
133.11
116.14
100.50
86.67
74.75
64.62
56.07
48.45
41.26
34.13
27.15
20.71
15.11
10.48
6.86
4.13
2.17
0.77
-0.43
-1.54
-2.53
-3.33
-3.92
-4.35
-4.72
-5.20
-4.97
-5.10
-5.96
-7.64
-10.03
-12.93
-16.07
-19.18
-22.08
-24.69
-27.17
-29.33
-31.00
-31.90
-31.74
-30.21
-27.19
-22.81
-17.42
-11.57
-5.46
0.91
7.84
15.90
25.76
37.83
52.05
67.87
84.29
100.34
115.14
128.01
138.76
147.72
155.49
162.65
169.28
174.55
176.89
174.17
164.52
147.37
123.95
97.04
70.08
46.02
26.29
11.58
1.97
-3.44
-5.89
-6.30
-4.90
-1.40
4.52
12.56
21.65
30.02
35.80
38.00
36.68
32.68
27.04
20.66
14.25
8.31
2.95
-2.52
-9.42
-19.24
-32.63
-48.51
-64.04
-75.61
-80.44
-78.07
-70.58
-61.46
-54.02
-50.04
-49.47
-51.04
-53.23
-54.94
-55.82
-56.15
-56.48
-57.52
-59.85
-63.69
-68.81
-74.62
-80.22
-84.50
-86.15
-83.65
-75.60
-61.30
-41.46
-18.43
4.20
22.79
34.98
40.51
41.05
39.21
37.33
36.66
37.22
38.40
39.54
40.31
40.57
40.12
38.52
35.31
30.19
23.18
14.78
5.68
-3.46
-12.15
-20.10
-27.16
-33.33
-38.76
-43.76
-48.64
-53.54
-58.21
-62.15
-64.84
-66.22
-66.85
-67.82
-70.27
-74.78
-81.23
-88.78
-96.52
-103.77
-110.33
-116.35
-121.94
-126.97
-131.09
-133.87
-134.97
-134.30
-131.98
-128.34
-123.74
-118.60
-113.33
-108.25
-103.58
-99.31
-95.21
-90.91
-86.09
-80.58
-74.45
-67.92
-61.19
-54.31
-47.22
-39.77
-31.90
-23.65
-15.24
-7.04
0.37
6.32
10.18
11.59
10.70
8.31
5.59
3.77
3.72
5.67
9.25
13.73
18.22
21.91
24.14
24.43
22.58
18.80
13.72
8.32
3.68
0.53
-1.09
-1.95
-3.33
-6.41
-11.56
-17.86
-23.41
-26.04
-24.36
-18.45
-9.83
-0.72
6.95
12.30
15.59
17.73
19.68
21.92
24.40
26.80
28.80
30.17
30.80
30.60
29.54
27.72
25.49
23.40
22.03
21.68
22.16
22.77
22.46
20.38
16.34
11.00
5.73
2.08
1.07
2.79
6.48
10.86
14.81
17.76
19.70
20.99
21.85
22.12
21.32
18.90
14.48
8.12
0.30
-8.21
-16.58
-24.05
-30.09
-34.42
-37.00
-37.98
-37.52
-35.85
-33.15
-29.63
-25.56
-21.25
-17.11
-13.58
-11.11
-10.10
-10.89
-13.65
-18.22
-24.04
-30.05
-34.98
-37.77
-38.10
-36.64
-34.95
-34.75
-36.97
-41.18
-45.70
-48.28
-47.38
-42.81
-35.80
-28.14
-21.15
-14.93
-8.45
-0.11
11.33
26.15
43.59
62.28
80.86
98.45
114.90
130.61
146.18
161.92
177.46
191.72
203.20
210.47
212.74
210.19
203.88
195.44
186.60
178.74
172.69
168.74
166.81
166.62
167.76
169.55
170.88
170.11
165.19
154.20
135.84
109.92
77.33
39.59
-1.80
-45.66
-90.95
-136.09
-178.52
-214.86
-241.82
-257.42
-261.76
-257.01
-246.38
-232.84
-218.21
-203.11
-187.66
-172.39
-158.77
-148.77
-143.94
-144.33
-148.02
-151.77
-152.18
-147.10
-136.39
-121.69
-105.38
-89.28
-73.94
-58.70
-42.53
-25.05
-7.00
10.04
24.49
35.52
43.36
48.98
53.48
57.63
61.64
65.34
68.47
70.90
72.66
73.86
74.56
74.70
74.11
72.59
70.01
66.34
61.71
56.29
50.27
43.78
36.96
29.95
23.09
16.75
11.29
6.84
3.19
-0.14
-3.70
-7.83
-12.53
-17.43
-22.00
-25.82
-28.73
-30.88
-32.46
-33.56
-33.95
-33.17
-30.71
-26.36
-20.27
-13.02
-5.39
1.83
7.91
12.22
14.31
14.04
11.76
8.32
4.85
2.34
1.22
1.23
1.60
1.48
0.40
-1.59
-3.99
-6.19
-7.69
-8.27
-7.82
-6.39
-3.99
-0.74
3.12
7.12
10.72
13.40
15.02
15.89
16.72
18.34
21.31
25.66
30.90
36.31
41.24
45.36
48.62
51.00
52.37
52.39
50.74
47.38
42.73
37.66
33.16
29.97
28.28
27.70
27.52
27.00
25.76
23.77
21.37
18.96
16.92
15.47
14.65
14.31
14.12
13.58
12.14
9.39
5.37
0.59
-4.07
-7.72
-9.82
-10.40
-9.98
-9.26
-8.82
-8.94
-9.56
-10.42
-11.21
-11.70
-11.77
-11.51
-11.03
-10.48
-9.95
-9.44
-8.92
-8.43
-8.07
-8.03
-8.42
-9.16
-9.93
-10.32
-10.04
-9.09
-7.84
-6.78
-6.29
-6.44
-6.95
-7.42
-7.51
-7.10
-6.32
-5.42
-4.62
-4.03
-3.69
-3.58
-3.71
-4.04
-4.55
-5.17
-5.80
-6.31
-6.53
-6.33
-5.58
-4.28
-2.54
-0.65
1.03
2.18
2.64
2.46
1.82
0.97
0.15
-0.48
-0.87
-1.07
-1.22
-1.43
-1.75
-2.10
-2.31
-2.24
-1.85
-1.26
-0.66
-0.21
0.07
0.35
0.75
1.26
1.66
1.60
0.85
-0.58
-2.32
-3.84
-4.76
-5.05
-5.00
-5.11
-5.70
-6.79
-8.00
-8.83
-8.84
-7.93
-6.28
-4.26
-2.25
-0.49
0.86
1.74
2.15
2.15
1.91
1.70
1.85
2.61
4.06
6.08
8.23
9.94
10.61
9.95
8.21
6.33
5.65
7.48
12.50
20.40
29.91
39.24
46.78
51.52
53.27
52.37
49.30
44.47
38.22
31.05
23.73
17.14
11.98
8.40
5.86
3.38
0.03
-4.68
-10.53
-16.84
-22.72
-27.56
-31.15
-33.71
-35.76
-37.86
-40.45
-43.64
-47.22
-50.83
-54.08
-56.68
-58.48
-59.32
-58.99
-57.22
-53.76
-48.68
-42.46
-35.99
-30.28
-26.07
-23.60
-22.57
-22.24
-21.88
-21.00
-19.43
-17.16
-14.18
-10.33
-5.40
0.65
7.44
14.15
19.85
23.80
25.93
26.73
27.07
27.72
29.06
31.02
33.21
35.20
36.82
38.07
39.07
39.92
40.55
40.80
40.51
39.73
38.70
37.74
37.07
36.61
36.01
34.86
32.87
30.15
27.09
24.27
22.26
21.46
22.03
23.86
26.58
29.55
32.01
33.26
32.93
31.01
27.91
24.11
19.95
15.42
10.26
4.13
-3.14
-11.41
-20.28
-29.19
-37.50
-44.53
-49.51
-51.70
-50.62
-46.27
-39.31
-31.00
-22.88
-16.25
-11.70
-9.03
-7.43
-5.96
-4.06
-1.79
0.38
1.91
2.55
2.53
2.30
2.20
2.19
1.77
0.36
-2.24
-5.59
-8.63
-10.18
-9.54
-7.01
-3.78
-1.46
-1.28
-3.45
-7.07
-10.53
-12.33
-11.84
-9.58
-6.85
-5.12
-5.32
-7.49
-10.77
-13.80
-15.01
-13.04
-6.99
3.35
17.17
32.29
45.26
52.13
50.13
39.22
22.89
7.27
-1.09
2.10
17.02
39.90
64.97
87.10
103.57
114.23
120.24
122.54
121.08
115.16
104.59
90.35
74.74
60.18
48.12
38.63
30.81
23.55
16.09
8.33
0.62
-6.00
-10.50
-12.12
-10.49
-5.65
1.82
10.62
18.93
25.11
29.15
31.69
33.21
33.58
32.30
28.96
23.64
17.08
10.71
7.73
10.36
18.47
29.65
40.74
49.41
54.76
57.30
58.44
61.80
69.83
82.45
97.16
110.75
120.69
125.32
123.76
103.65
60.76
2.13
-57.26
-104.76
-135.60
-151.39
-156.43
-155.01
-150.25
-142.13
-130.21
-115.42
-100.19
-87.06
-77.36
-71.09
-67.27
-64.55
-60.46
-53.35
-43.62
-33.41
-25.17
-20.28
-19.16
-20.86
-24.13
-27.25
-29.14
-30.34
-32.64
-37.84
-46.66
-58.54
-72.20
-84.40
-94.98
-104.30
-112.58
-118.95
-121.18
-116.36
-102.74
-81.01
-54.49
-27.99
-5.78
9.25
15.65
12.58
0.33
-20.29
-46.85
-74.37
-95.93
-103.94
-93.41
-64.62
-23.68
19.31
53.84
72.65
73.92
60.76
39.29
15.61
-6.30
-24.79
-39.44
-49.62
-54.07
-51.61
-42.49
-28.85
-14.18
-1.89
6.25
9.88
10.17
9.01
8.00
7.83
8.39
9.14
9.44
8.81
7.18
5.14
3.98
5.32
10.41
19.35
30.77
42.18
50.94
55.26
54.70
49.82
41.50
30.51
17.46
3.24
-10.88
-23.42
-33.11
-39.26
-41.85
-41.45
-38.74
-34.50
-29.45
-24.38
-20.13
-17.40
-16.42
-16.84
-17.67
-17.68
-15.69
-11.09
-3.98
4.82
14.15
22.88
30.32
36.27
41.09
45.25
49.08
52.51
55.21
56.83
57.29
56.94
56.46
56.67
58.17
61.11
65.10
69.34
73.04
75.77
77.79
79.90
83.03
87.81
94.07
100.87
106.70
109.90
109.00
102.78
90.11
70.18
43.05
10.54
-23.56
-54.00
-75.58
-85.20
-83.41
-74.56
-65.09
-60.83
-64.28
-74.30
-86.96
-97.48
-102.21
-99.82
-91.24
-78.56
-63.96
-48.42
-32.73
-17.74
-4.32
7.06
16.38
24.05
30.93
38.16
47.73
60.42
75.53
91.45
106.57
119.78
130.58
139.31
146.76
154.53
162.10
166.70
164.75
153.78
133.39
104.95
71.36
29.15
-17.39
-59.64
-90.34
-107.54
-113.38
-111.42
-105.65
-99.20
-94.02
-89.47
-84.71
-79.35
-73.06
-65.77
-58.36
-52.55
-50.38
-53.84
-63.48
-79.48
-100.93
-124.64
-145.04
-151.36
-138.68
-108.63
-68.78
-28.95
2.02
19.75
25.64
25.09
24.10
25.63
29.83
35.12
40.19
44.51
48.32
51.88
55.34
58.73
61.73
64.33
66.82
69.63
72.82
76.22
79.83
84.26
90.35
98.41
108.34
119.39
130.05
138.34
142.26
140.08
132.00
120.90
111.62
109.29
117.26
135.54
161.05
189.09
215.29
236.88
252.60
261.92
264.56
260.72
251.56
239.65
228.37
220.59
217.48
217.92
219.14
217.84
211.53
199.23
181.57
160.23
137.22
114.29
92.44
71.84
52.18
33.15
14.74
-2.74
-18.93
-33.70
-47.23
-59.78
-71.42
-81.88
-90.53
-96.81
-100.52
-102.07
-102.44
-102.81
-104.23
-107.36
-112.50
-119.60
-128.08
-136.53
-142.72
-144.09
-138.83
-126.98
-110.82
-94.23
-81.10
-73.72
-71.98
-73.78
-76.40
-77.82
-77.40
-75.47
-72.59
-68.78
-63.55
-56.33
-47.16
-36.81
-26.56
-17.65
-10.73
-5.64
-1.54
2.58
7.48
13.29
19.54
25.35
29.92
32.83
34.18
34.54
34.55
34.57
34.48
33.65
31.23
26.52
19.34
10.18
-0.01
-10.16
-19.61
-28.37
-37.16
-47.09
-59.13
-73.65
-90.17
-107.56
-124.53
-140.32
-155.04
-169.76
-186.03
-205.16
-227.59
-252.59
-278.70
-304.25
-328.19
-350.50
-372.16
-394.84
-420.62
-451.80
-490.36
-536.91
-589.35
-642.13
-686.76
-714.18
-717.88
-696.52
-654.38
-599.50
-540.53
-483.74
-431.92
-385.15
-342.67
-304.31
-270.83
-243.09
-221.05
-203.41
-188.18
-173.69
-159.26
-145.39
-133.30
-124.01
-117.67
-113.37
-109.45
-104.17
-96.42
-86.07
-73.95
-61.40
-49.61
-39.20
-30.02
-21.34
-12.28
-2.23
8.91
20.79
32.75
44.24
54.97
65.00
74.64
84.20
93.82
103.34
112.37
120.35
126.76
131.18
133.33
133.05
130.26
124.84
116.68
105.69
91.83
75.21
56.14
35.07
12.66
-10.28
-32.83
-54.02
-72.95
-88.84
-101.13
-109.51
-114.02
-114.93
-112.77
-108.21
-101.96
-94.66
-86.82
-78.72
-70.40
-61.69
-52.26
-41.73
-29.75
-16.14
-0.92
15.59
32.83
50.05
66.41
81.12
93.51
103.15
109.92
114.01
115.86
116.14
115.60
114.98
114.93
115.89
118.08
121.38
125.44
129.64
133.25
135.53
135.85
133.85
129.43
122.75
114.16
104.12
93.10
81.56
69.98
58.87
48.82
40.48
34.54
31.50
31.66
35.01
41.24
49.96
60.79
73.56
88.37
105.52
125.36
148.10
173.70
201.87
232.08
263.70
296.12
328.72
361.03
392.73
424.21
455.73
486.95
516.38
541.43
558.82
565.43
559.34
540.67
512.21
478.20
443.09
410.27
381.63
357.69
338.06
321.92
308.54
298.63
292.99
292.01
295.39
302.41
312.09
323.29
334.88
345.95
358.98
375.92
396.73
419.20
440.54
458.90
473.50
484.02
489.81
495.26
502.02
507.38
505.53
491.87
465.77
429.79
387.46
341.37
301.73
274.94
261.24
256.19
256.26
261.66
274.05
293.09
315.02
345.26
385.12
429.54
468.61
494.89
507.38
509.65
506.49
426.94
240.81
-28.62
-315.62
-559.76
-734.62
-842.96
-900.67
-925.22
-928.54
-911.08
-871.85
-815.10
-753.33
-699.23
-660.37
-639.44
-637.03
-649.09
-656.77
-644.78
-607.18
-551.55
-489.77
-430.70
-378.29
-332.79
-292.47
-249.85
-206.30
-159.30
-112.62
-70.67
-35.57
-7.18
15.56
33.67
49.68
63.51
79.84
96.35
110.20
119.94
125.46
127.31
126.30
123.88
120.84
117.94
113.36
106.02
95.83
83.42
69.75
55.80
42.24
29.52
18.46
8.43
-0.80
-9.23
-16.76
-23.29
-28.74
-33.05
-36.20
-37.86
-38.46
-38.23
-37.30
-35.79
-33.84
-31.63
-29.32
-26.97
-24.50
-22.09
-19.84
-17.82
-16.15
-14.95
-14.34
-14.32
-14.78
-15.49
-16.23
-16.84
-17.35
-18.02
-19.28
-21.62
-25.36
-30.50
-36.77
-43.70
-50.94
-58.52
-66.89
-76.82
-89.07
-104.02
-121.39
-140.31
-159.59
-178.26
-196.02
-213.35
-231.38
-251.30
-273.80
-298.65
-324.84
-351.03
-376.05
-399.54
-421.97
-444.53
-468.88
-497.00
-530.83
-571.48
-617.97
-666.38
-709.73
-739.57
-748.62
-733.40
-695.65
-641.50
-579.07
-515.49
-455.13
-399.33
-347.59
-299.10
-253.54
-211.07
-171.78
-135.19
-100.36
-66.37
-32.81
0.17
31.93
61.76
89.30
114.58
137.97
159.96
181.10
201.91
222.89
244.44
266.74
289.73
313.21
337.14
361.80
387.65
414.77
442.31
468.41
490.74
507.49
517.97
522.36
520.92
512.95
496.52
469.26
429.55
377.54
315.53
247.38
177.47
109.48
45.77
-12.55
-64.53
-108.23
-140.10
-155.75
-152.08
-129.77
-94.47
-55.72
-23.21
-2.57
7.25
13.35
25.32
50.89
92.62
147.49
208.71
268.43
319.82
357.91
379.79
384.16
371.38
343.38
303.62
256.53
206.76
157.94
111.64
67.24
22.76
-23.41
-70.73
-115.64
-152.27
-174.64
-179.21
-166.69
-141.91
-112.47
-86.26
-69.18
-64.05
-70.54
-86.17
-107.12
-129.11
-147.89
-159.84
-163.02
-158.37
-150.32
-146.11
-153.58
-177.58
-217.12
-264.61
-308.00
-335.11
-338.04
-315.76
-273.64
-220.42
-164.43
-110.88
-60.97
-12.76
37.13
91.52
151.04
212.98
271.18
317.60
345.02
349.90
334.01
303.77
267.82
233.98
206.85
187.46
174.06
163.58
152.64
138.43
119.28
95.42
69.21
44.51
25.00
12.42
5.84
2.44
-1.05
-6.77
-15.05
-24.82
-34.72
-43.81
-52.30
-61.94
-75.86
-97.71
-129.59
-169.86
-212.16
-246.85
-264.32
-258.84
-230.81
-185.65
-131.17
-73.46
-14.73
46.11
111.03
180.36
251.24
317.66
372.35
407.99
420.70
411.37
384.61
345.96
299.05
244.91
183.34
116.37
48.47
-11.67
-53.97
-72.77
-71.39
-62.04
-60.21
-78.93
-123.25
-192.33
-277.83
-365.82
-440.76
-489.71
-505.06
-485.11
-436.50
-372.89
-316.38
-286.94
-294.16
-334.21
-393.13
-453.61
-500.66
-528.01
-512.80
-450.90
-359.74
-266.92
-190.78
-134.28
-97.64
-72.65
-56.13
-46.52
-44.88
-48.69
-51.36
-45.94
-28.91
-1.81
31.13
64.12
93.39
114.94
128.00
135.17
140.39
145.87
150.65
152.40
147.89
135.62
114.30
85.02
51.26
17.56
-12.51
-37.43
-56.86
-71.54
-81.52
-87.36
-89.36
-87.38
-81.18
-70.99
-57.79
-42.85
-27.66
-12.91
0.75
12.87
23.29
32.10
39.60
46.15
52.15
57.91
64.76
73.62
84.46
96.36
107.94
118.09
126.07
131.54
134.38
137.57
143.28
151.70
161.03
168.84
173.56
174.93
173.61
170.62
172.99
185.74
209.35
239.84
271.62
300.64
325.35
346.07
363.92
389.69
430.97
488.19
554.73
621.46
681.69
732.72
774.76
809.24
850.11
906.99
979.97
1059.84
1134.13
1193.50
1233.96
1255.54
1182.09
976.29
651.73
269.21
-101.24
-415.04
-658.64
-837.68
-964.92
-1053.59
-1102.32
-1109.13
-1082.09
-1035.12
-982.88
-935.71
-898.01
-869.86
-849.17
-823.58
-783.69
-727.18
-662.02
-598.09
-542.84
-499.41
-467.53
-445.05
-423.14
-394.96
-358.78
-317.78
-277.05
-240.73
-210.59
-186.27
-166.12
-145.02
-118.88
-86.43
-49.20
-9.96
28.80
65.74
100.84
134.92
170.38
209.46
253.65
303.65
359.43
419.49
480.15
535.25
577.22
599.35
598.22
575.15
535.83
488.13
439.24
393.70
353.10
316.97
284.05
252.98
222.22
189.90
154.12
113.88
70.10
26.02
-13.62
-44.17
-62.69
-68.90
-65.11
-55.29
-43.76
-34.28
-29.28
-29.67
-34.80
-42.75
-50.93
-56.97
-59.38
-57.94
-53.53
-47.36
-40.26
-32.18
-22.42
-10.18
4.64
21.15
37.65
52.24
63.43
70.55
73.64
73.31
70.61
67.04
64.55
64.79
68.08
72.44
73.42
65.08
42.19
2.54
-51.72
-114.31
-176.82
-231.30
-272.54
-298.81
-311.34
-312.94
-306.69
-295.39
-281.52
-267.37
-254.96
-245.63
-239.58
-235.88
-232.71
-228.12
-220.58
-209.41
-194.78
-177.55
-159.18
-141.52
-126.29
-114.61
-106.54
-101.22
-97.25
-93.55
-89.90
-86.94
-85.84
-87.60
-92.34
-98.93
-105.06
-107.59
-103.32
-89.86
-66.35
-33.90
4.58
44.97
82.90
114.60
137.52
150.71
154.79
151.73
144.50
136.42
130.44
128.49
131.00
136.76
143.27
147.50
146.95
140.60
129.40
115.89
103.26
94.03
89.30
88.50
89.98
91.84
92.55
91.27
87.64
81.65
73.52
63.74
53.21
43.16
34.82
29.12
26.33
25.93
26.83
27.85
28.15
27.49
26.06
24.21
22.04
19.27
15.43
10.25
4.12
-1.97
-6.78
-9.41
-9.72
-8.40
-6.64
-5.59
-5.94
-7.74
-10.48
-13.29
-15.23
-15.57
-13.99
-10.68
-6.19
-1.30
3.28
7.12
10.11
12.43
14.30
15.94
17.48
19.02
20.65
22.46
24.38
26.10
27.15
27.05
25.72
23.62
21.74
21.16
22.43
25.15
27.88
28.74
26.18
19.80
10.53
0.23
-9.09
-16.08
-20.46
-22.91
-24.46
-26.01
-27.81
-29.53
-30.50
-30.20
-28.56
-26.02
-23.24
-20.68
-18.28
-15.57
-11.96
-7.37
-2.49
1.46
3.38
2.90
0.75
-1.61
-2.72
-1.85
0.67
3.74
6.27
7.76
8.56
9.55
11.36
13.81
15.77
15.79
12.89
7.19
-0.17
-7.77
-14.70
-21.03
-27.37
-33.97
-39.99
-43.59
-42.87
-37.11
-27.50
-16.77
-7.92
-2.82
-1.50
-2.62
-4.50
-6.13
-7.47
-8.97
-10.87
-12.85
-14.10
-13.74
-11.34
-7.22
-2.58
0.59
0.00
-6.07
-17.81
-33.25
-48.52
-59.24
-62.40
-57.78
-48.13
-37.68
-30.07
-26.70
-26.57
-27.37
-27.17
-25.41
-22.80
-20.27
-17.98
-15.02
-9.94
-1.86
8.76
20.09
29.70
35.77
37.93
37.34
36.04
35.96
38.17
42.63
48.55
54.89
60.85
65.98
70.14
73.25
75.27
76.23
76.35
76.20
76.55
78.16
81.42
86.12
91.36
95.90
98.60
99.04
97.80
96.32
96.31
98.91
104.07
110.55
116.48
120.36
121.93
122.47
124.18
129.07
137.71
148.81
159.64
167.21
169.26
164.70
153.44
135.97
113.30
87.23
60.51
36.26
16.63
1.39
-12.46
-29.40
-53.06
-83.86
-118.32
-150.36
-174.13
-186.59
-188.56
-183.96
-177.65
-173.42
-172.82
-175.25
-178.92
-182.10
-183.92
-184.60
-185.08
-186.24
-188.34
-190.63
-191.52
-189.40
-183.48
-174.55
-164.98
-158.00
-156.11
-160.01
-167.92
-176.18
-180.90
-179.79
-173.44
-165.08
-159.30
-159.43
-166.81
-180.47
-197.77
-215.86
-232.16
-244.18
-249.12
-244.59
-229.44
-206.63
-182.95
-166.68
-163.63
-173.65
-190.02
-202.43
-202.04
-184.36
-151.56
-109.36
-63.00
-14.38
37.96
96.33
162.42
228.23
286.87
330.21
352.82
354.14
338.68
314.40
289.73
270.46
257.98
250.62
244.20
235.21
222.48
207.38
192.45
179.61
168.92
158.53
146.62
131.69
114.02
95.48
78.62
65.60
57.19
52.63
49.88
47.12
42.92
37.22
31.13
26.34
24.23
24.99
27.49
29.65
29.65
26.37
19.97
11.70
3.36
-3.41
-7.60
-8.96
-7.94
-5.22
-1.70
1.79
4.50
5.76
5.03
1.92
-3.60
-11.09
-19.53
-27.56
-33.70
-36.94
-37.09
-34.88
-31.75
-29.26
-28.50
-29.78
-32.62
-36.18
-39.75
-43.05
-46.10
-49.01
-51.58
-53.27
-53.45
-51.74
-48.38
-44.08
-39.66
-35.64
-31.97
-28.21
-23.91
-18.99
-13.88
-9.30
-5.86
-3.75
-2.62
-1.80
-0.57
1.39
3.96
6.68
9.06
10.89
12.26
13.48
14.92
16.83
19.25
22.03
24.85
27.30
28.91
29.23
27.96
25.15
21.33
17.32
13.99
11.92
11.31
12.02
13.63
15.65
17.71
19.73
21.73
23.62
25.21
26.40
27.43
28.50
29.81
31.60
34.32
38.41
43.94
50.48
57.30
63.59
68.19
69.94
68.42
64.50
60.03
57.05
57.01
60.17
65.40
69.33
67.14
54.14
27.82
-11.19
-59.55
-112.32
-164.36
-206.52
-229.39
-228.07
-205.58
-170.66
-132.13
-95.44
-62.91
-35.16
-12.14
5.74
17.96
24.70
27.44
28.43
29.85
32.91
37.73
43.79
49.84
54.64
57.41
58.40
58.39
58.42
58.99
59.98
60.60
60.15
58.25
54.67
49.80
44.16
38.82
34.68
32.18
31.41
32.13
34.54
38.20
42.44
46.07
48.35
48.53
45.76
39.23
28.50
14.32
-2.83
-17.64
-28.70
-35.77
-39.33
-40.30
-39.61
-42.63
-47.35
-51.64
-54.56
-56.23
-57.03
-58.19
-61.69
-69.82
-84.74
-107.53
-132.94
-158.66
-183.58
-207.09
-229.41
-251.55
-275.07
-301.94
-333.51
-370.98
-414.65
-461.85
-506.45
-540.51
-557.08
-552.94
-529.90
-493.54
-451.25
-409.69
-372.00
-337.81
-304.97
-271.47
-236.48
-200.05
-162.01
-121.55
-77.68
-29.40
23.27
78.88
134.60
187.04
233.26
271.66
302.01
324.99
341.90
353.93
361.77
365.51
365.05
360.49
352.48
342.42
332.12
323.75
319.49
321.38
330.74
347.53
369.65
393.00
412.32
422.86
422.09
410.46
390.99
367.58
343.38
320.06
298.19
278.36
261.82
250.04
243.64
242.04
244.19
250.04
261.21
279.89
306.38
336.93
363.79
377.81
372.46
346.89
306.16
258.49
211.33
168.35
129.19
91.16
51.77
10.18
-32.69
-75.31
-116.79
-157.27
-197.76
-239.56
-283.58
-330.15
-379.51
-432.53
-490.71
-555.29
-625.47
-696.93
-761.74
-810.31
-834.80
-832.19
-805.43
-762.02
-710.80
-658.72
-609.18
-562.35
-516.87
-471.52
-425.96
-380.49
-335.24
-289.94
-244.03
-197.28
-150.11
-103.43
-58.50
-16.18
23.27
60.29
95.82
130.76
165.71
200.71
235.39
269.25
302.19
334.83
368.38
403.80
440.83
477.18
508.71
530.53
538.79
532.08
511.99
482.38
447.96
412.86
379.75
349.84
323.19
299.21
276.91
255.05
232.38
208.01
181.81
154.61
127.91
103.37
82.27
65.03
51.12
39.38
28.43
17.23
5.36
-6.91
-18.73
-29.06
-36.98
-41.96
-43.99
-43.47
-41.06
-37.46
-33.23
-28.60
-23.35
-16.95
-8.83
1.16
12.21
22.40
29.04
29.54
22.50
8.38
-10.55
-31.08
-50.27
-66.36
-78.95
-88.49
-95.42
-99.63
-100.59
-97.93
-92.08
-84.44
-77.00
-71.60
-69.21
-69.71
-72.03
-74.71
-76.39
-76.19
-73.76
-69.27
-63.21
-56.35
-49.59
-43.75
-39.34
-36.38
-34.39
-32.56
-30.13
-26.63
-22.06
-16.68
-10.80
-4.54
2.13
9.27
16.73
24.06
30.73
36.32
40.73
44.17
46.90
49.02
50.47
51.06
50.78
49.88
48.74
47.64
46.47
44.81
42.10
38.04
32.79
26.88
21.02
15.75
11.30
7.69
4.95
3.23
2.67
3.28
4.73
6.42
7.72
8.30
8.36
8.57
9.70
12.27
16.24
20.98
25.53
28.98
30.81
30.99
29.87
27.94
25.56
22.78
19.37
15.03
9.65
3.50
-2.83
-8.59
-13.23
-16.62
-19.06
-21.18
-23.53
-26.34
-29.45
-32.40
-34.79
-36.50
-37.73
-38.91
-40.33
-41.97
-43.46
-44.24
-43.87
-42.26
-39.69
-36.68
-33.73
-31.21
-29.30
-28.12
-27.82
-28.62
-30.71
-34.03
-38.25
-42.86
-47.36
-51.45
-55.02
-58.12
-60.64
-62.18
-61.89
-58.65
-51.31
-39.25
-22.81
-3.60
15.77
32.37
43.92
49.51
49.78
46.40
41.26
35.77
30.66
26.35
23.44
23.06
26.69
35.63
50.38
70.27
93.43
117.19
138.57
154.87
164.24
166.11
161.30
151.76
140.09
128.78
119.62
113.29
109.29
106.11
101.63
93.65
80.63
62.27
39.95
16.49
-4.47
-19.66
-27.29
-27.78
-23.61
-18.57
-16.33
-19.28
-27.75
-40.06
-53.49
-65.43
-74.61
-81.44
-87.67
-95.42
-106.15
-119.78
-134.41
-146.49
-151.73
-146.58
-130.03
-104.88
-77.86
-58.09
-53.94
-69.69
-103.42
-147.04
-188.88
-217.43
-225.04
-209.96
-176.42
-132.93
-89.70
-56.00
-38.12
-38.26
-54.39
-81.11
-111.10
-136.75
-151.82
-152.64
-138.79
-112.95
-80.18
-46.45
-17.16
4.24
16.91
22.40
23.67
23.90
25.57
29.88
36.79
45.30
53.95
61.31
66.38
68.90
69.46
69.20
69.42
71.01
74.06
77.95
81.63
84.20
85.29
85.18
84.59
84.33
84.95
86.68
89.47
93.10
97.40
102.27
107.65
113.59
120.25
128.03
137.69
150.20
166.46
186.70
209.94
233.73
254.57
268.80
273.80
268.74
254.80
234.49
210.43
184.77
159.23
135.65
116.45
104.55
102.36
110.28
125.69
143.04
155.99
160.07
154.55
142.37
128.53
117.47
111.08
108.32
105.86
100.64
91.54
79.46
66.33
53.68
41.88
30.18
17.16
0.36
-21.43
-47.68
-76.68
-106.97
-137.88
-169.15
-200.17
-229.45
-257.49
-283.93
-307.43
-326.95
-343.07
-357.72
-372.53
-387.37
-400.43
-413.50
-427.25
-440.33
-450.25
-455.31
-455.29
-450.63
-441.84
-429.44
-419.74
-416.99
-420.81
-426.97
-430.72
-428.62
-418.46
-398.95
-336.37
-220.59
-69.89
80.58
203.19
288.87
342.07
372.83
391.91
408.38
423.33
437.18
451.25
466.35
480.15
487.33
482.96
466.05
440.71
410.79
382.53
366.24
370.76
398.24
442.53
491.66
532.21
553.23
546.52
511.13
453.42
383.62
311.43
243.33
182.40
129.69
85.28
47.85
16.38
-9.52
-30.28
-46.62
-59.09
-67.48
-70.61
-67.12
-56.70
-40.24
-19.67
2.26
22.61
38.32
47.67
50.58
48.22
42.09
33.23
22.03
8.46
-7.40
-25.77
-46.07
-66.80
-85.92
-101.65
-112.98
-119.84
-122.83
-122.80
-122.27
-123.06
-125.59
-129.03
-132.13
-134.15
-134.98
-134.83
-133.82
-136.65
-146.58
-163.68
-184.86
-206.11
-224.55
-238.72
-248.01
-251.72
-259.09
-276.99
-306.20
-341.50
-376.10
-405.72
-429.01
-446.21
-457.07
-477.32
-518.43
-581.70
-658.40
-737.03
-809.72
-873.28
-927.06
-970.00
-1022.66
-1100.15
-1204.38
-1324.03
-1444.34
-1556.00
-1657.05
-1749.88
-1721.97
-1516.90
-1151.26
-706.88
-271.61
103.63
403.70
631.34
782.83
883.97
934.18
933.61
892.32
830.23
767.53
716.95
682.50
663.63
660.49
655.05
633.94
594.31
543.66
492.42
447.67
412.09
385.99
370.37
354.02
328.57
292.28
249.90
208.13
171.64
142.31
120.60
107.37
97.02
85.34
71.33
57.07
45.52
38.51
36.41
38.76
45.21
52.75
58.91
62.51
63.68
63.10
61.25
58.35
54.49
49.98
44.80
39.02
32.75
26.18
19.51
12.95
6.73
1.09
-3.27
-5.76
-6.12
-4.55
-1.55
2.36
6.78
11.40
15.97
20.67
25.62
30.58
34.98
38.05
39.19
38.11
34.93
29.99
25.01
21.57
20.56
21.89
24.74
28.33
32.19
36.20
40.36
47.87
61.31
81.26
105.64
130.80
153.49
171.89
185.61
195.01
207.42
229.05
262.02
302.90
345.00
382.23
411.36
431.98
445.25
463.44
497.02
549.85
616.88
687.74
753.08
808.16
852.69
888.89
933.33
1000.22
1094.93
1211.03
1335.14
1455.13
1564.89
1663.90
1667.00
1518.88
1212.36
799.96
363.12
-32.09
-354.00
-598.88
-777.02
-903.01
-977.67
-1001.27
-979.42
-926.39
-861.34
-801.06
-755.92
-729.67
-717.84
-706.34
-680.28
-631.20
-562.01
-485.10
-415.60
-365.25
-339.30
-336.19
-342.93
-344.62
-331.14
-300.79
-258.63
-211.76
-165.80
-124.02
-88.18
-57.36
-30.54
-8.24
7.47
14.36
11.74
1.04
-14.81
-32.53
-48.45
-59.75
-65.59
-66.86
-65.27
-62.22
-58.41
-53.99
-49.17
-44.41
-39.91
-36.06
-33.11
-31.33
-31.17
-33.41
-38.94
-48.71
-63.33
-82.61
-105.98
-131.69
-156.68
-176.80
-187.91
-187.04
-174.12
-151.71
-124.36
-98.42
-79.00
-68.37
-65.79
-68.71
-73.70
-78.86
-82.95
-85.31
-88.66
-95.60
-107.03
-121.53
-136.45
-148.21
-156.00
-159.60
-159.25
-160.05
-166.49
-180.20
-198.88
-218.30
-232.72
-241.14
-243.38
-240.15
-238.18
-243.22
-258.09
-281.17
-308.73
-334.91
-359.36
-381.45
-364.26
-286.83
-154.77
-0.50
140.73
233.03
287.35
317.37
334.16
342.07
340.96
326.92
296.26
249.78
191.98
130.88
69.04
9.29
-47.72
-103.71
-138.71
-134.90
-87.20
-8.63
80.11
148.05
193.07
218.46
226.61
219.84
201.02
172.38
137.32
101.77
70.02
47.17
34.21
29.01
28.23
26.76
20.74
9.53
-3.69
-15.18
-20.52
-19.06
-12.43
-3.17
4.99
9.11
8.38
4.35
-0.78
-4.34
-5.95
-6.16
-6.05
-7.40
-11.72
-19.12
-28.05
-35.95
-40.00
-39.10
-33.49
-24.43
-13.87
-3.69
5.07
12.11
17.44
21.04
22.28
20.77
16.78
11.42
6.21
2.52
1.04
1.71
3.91
6.86
10.10
13.80
18.53
24.81
32.74
41.92
51.48
60.52
68.02
73.34
76.33
77.43
77.20
76.77
77.79
82.06
90.92
103.57
117.64
129.86
137.21
136.95
128.26
112.46
92.42
72.06
53.31
36.90
22.84
10.51
-2.32
-17.46
-35.38
-54.85
-72.62
-87.58
-99.75
-109.40
-117.17
-124.99
-133.76
-142.99
-151.27
-156.45
-160.57
-167.08
-178.38
-182.10
-168.16
-134.02
-86.92
-48.10
-19.04
2.36
17.76
31.82
44.28
50.50
45.32
26.28
-4.39
-38.98
-71.02
-96.25
-113.41
-124.73
-134.58
-145.56
-156.57
-163.35
-160.23
-146.12
-123.73
-97.67
-72.62
-51.86
-35.83
-22.69
-9.59
6.38
25.38
46.07
66.76
85.66
101.00
111.38
115.84
114.13
107.30
96.71
84.50
73.23
65.00
60.73
60.04
61.61
63.84
65.57
66.10
65.33
63.58
61.27
58.72
56.11
53.43
50.60
47.60
44.41
41.09
37.68
34.07
30.08
25.45
20.05
14.07
7.95
2.22
-2.80
-7.17
-11.27
-15.39
-19.41
-22.57
-23.72
-21.95
-17.23
-10.63
-3.95
1.07
3.61
4.08
3.80
4.06
5.26
6.67
7.00
5.15
1.05
-4.34
-9.52
-13.13
-14.42
-13.14
-9.19
-2.41
7.14
18.75
30.83
41.33
48.61
52.39
54.07
56.14
61.10
70.36
83.78
99.92
116.78
132.31
144.90
153.13
155.59
150.81
137.53
114.94
83.22
44.16
1.53
-39.35
-72.71
-94.05
-101.50
-96.30
-82.01
-63.03
-43.23
-25.26
-10.74
-0.93
2.98
-0.11
-10.95
-29.47
-54.67
-84.24
-114.41
-139.92
-154.98
-155.08
-139.21
-111.03
-77.73
-47.31
-25.42
-13.46
-8.91
-7.67
-6.61
-5.02
-4.08
-5.23
-8.61
-12.65
-15.00
-13.93
-9.31
-2.61
3.99
8.71
10.96
11.38
11.32
12.00
13.92
16.76
19.72
22.05
23.42
24.07
24.52
25.30
26.69
28.72
31.33
34.43
37.96
41.85
45.91
49.81
53.20
55.68
57.10
57.55
57.26
56.55
55.72
54.80
53.41
50.60
45.02
35.47
21.49
4.01
-14.77
-32.04
-45.41
-53.92
-58.12
-59.58
-59.87
-59.83
-59.37
-57.90
-54.99
-50.79
-45.96
-41.20
-36.84
-32.63
-28.03
-22.66
-16.62
-10.66
-5.82
-2.85
-1.97
-2.72
-4.24
-5.87
-7.42
-9.30
-12.06
-15.86
-20.24
-24.20
-26.79
-27.63
-27.20
-26.61
-27.01
-28.88
-31.72
-34.16
-34.54
-31.61
-25.11
-16.03
-6.27
1.87
6.43
6.50
2.42
-4.26
-11.39
-16.83
-19.03
-17.33
-12.14
-4.65
3.54
10.81
15.98
18.53
18.63
17.11
15.22
14.28
15.30
18.65
23.99
30.41
36.77
42.05
45.62
47.44
47.98
47.96
48.00
48.28
48.44
47.81
45.89
42.86
39.69
37.85
38.51
41.76
46.29
49.84
50.24
46.49
39.30
30.70
23.07
18.12
16.31
16.86
18.18
18.50
16.45
11.35
3.43
-6.00
-14.56
-19.24
-17.28
-7.26
9.73
29.87
47.56
57.24
55.67
43.38
24.67
5.99
-6.69
-10.29
-5.66
3.13
10.92
13.75
10.28
1.74
-9.31
-20.44
-30.44
-39.15
-46.73
-52.72
-55.82
-54.45
-47.79
-36.78
-24.07
-13.13
-6.71
-5.70
-8.90
-13.84
-18.13
-20.58
-21.52
-22.21
-23.81
-26.53
-29.54
-31.48
-31.26
-28.78
-24.98
-21.38
-19.26
-19.05
-20.22
-21.53
-21.74
-20.12
-16.84
-12.80
-9.21
-7.01
-6.44
-7.02
-7.86
-8.15
-7.52
-6.14
-4.46
-2.85
-1.34
0.44
3.06
6.86
11.74
17.07
21.98
25.73
27.94
28.64
28.02
26.24
23.31
19.33
14.95
11.44
10.52
13.52
20.44
29.40
37.07
39.94
36.10
26.33
14.03
3.74
-1.01
0.67
6.67
13.19
16.67
15.45
10.10
2.78
-4.15
-9.19
-11.84
-12.22
-10.45
-6.51
-0.60
6.42
12.87
16.65
16.14
10.96
2.26
-7.60
-15.99
-20.90
-21.66
-18.97
-14.54
-10.37
-7.91
-7.76
-9.52
-12.27
-15.02
-17.22
-18.74
-19.91
-21.10
-22.60
-24.60
-27.09
-29.98
-33.11
-36.23
-38.90
-40.54
-40.61
-38.69
-34.78
-29.30
-23.01
-16.79
-11.39
-7.06
-3.60
-0.38
3.31
7.82
12.97
18.02
22.10
24.64
25.74
26.15
26.91
28.79
31.78
35.14
37.72
38.65
37.76
35.67
33.42
31.89
31.42
31.73
32.26
32.51
32.27
31.54
30.29
28.29
25.06
20.02
12.91
4.05
-5.67
-14.97
-22.58
-27.67
-30.01
-30.01
-28.49
-26.37
-24.40
-22.98
-22.16
-21.76
-21.47
-21.03
-20.28
-19.10
-17.46
-15.39
-12.99
-10.50
-8.24
-6.51
-5.49
-5.09
-4.96
-4.66
-3.80
-2.28
-0.21
2.11
4.48
6.97
9.81
13.43
18.19
24.23
31.51
39.73
48.21
55.85
61.14
62.49
58.87
50.27
37.87
23.76
10.31
-0.54
-7.73
-11.06
-10.95
-8.12
-3.48
1.98
7.29
11.77
15.34
18.47
21.88
25.98
30.49
34.38
36.29
35.12
30.43
22.66
13.03
3.13
-5.46
-11.52
-14.39
-14.07
-11.04
-6.11
-0.10
6.28
12.34
17.38
20.62
21.48
19.74
15.72
10.08
3.51
-3.55
-10.85
-18.19
-25.01
-30.56
-34.09
-35.32
-34.79
-33.66
-33.24
-34.40
-37.18
-40.81
-44.22
-46.33
-46.55
-44.73
-41.12
-36.15
-30.24
-23.79
-17.12
-10.56
-4.42
0.97
5.33
8.52
10.59
11.80
12.50
13.09
13.81
14.70
15.64
16.44
17.12
17.94
19.36
21.84
25.35
29.28
32.37
33.22
30.81
25.05
16.92
8.11
0.39
-4.97
-7.59
-7.94
-6.91
-5.52
-4.53
-4.28
-4.74
-5.65
-6.69
-7.57
-8.11
-8.17
-7.63
-6.34
-4.25
-1.44
1.82
5.18
8.43
11.53
14.55
17.45
19.91
21.32
21.09
19.07
15.79
12.32
9.86
9.21
10.48
13.14
16.29
19.22
21.83
24.58
28.41
34.28
42.77
53.69
65.76
76.63
83.22
82.45
72.49
53.86
29.77
5.46
-13.55
-23.53
-24.07
-18.06
-10.30
-5.22
-4.97
-8.69
-13.17
-14.50
-10.05
0.20
13.54
25.59
31.99
30.23
20.57
6.16
-8.08
-17.44
-19.31
-14.32
-6.01
0.67
1.54
-5.05
-17.52
-31.81
-43.07
-47.51
-44.10
-34.88
-24.16
-16.74
-16.07
-22.95
-35.29
-48.81
-58.50
-60.45
-53.30
-38.98
-21.96
-7.56
-0.10
-1.55
-11.15
-26.00
-42.09
-55.41
-63.08
-64.05
-59.33
-51.74
-45.07
-42.94
-47.30
-57.58
-70.53
-81.54
-86.64
-84.36
-76.53
-67.44
-61.70
-61.92
-67.45
-74.63
-78.55
-75.39
-64.23
-47.34
-28.75
-12.31
0.02
8.57
14.93
20.59
25.81
29.52
30.06
26.60
19.89
12.19
6.22
3.84
5.13
8.63
12.36
14.99
16.50
17.84
19.87
22.50
24.47
24.12
20.58
14.65
8.67
5.56
7.46
14.58
24.91
34.91
40.82
40.21
33.02
21.56
9.60
0.79
-2.82
-1.32
3.40
8.91
13.37
16.05
17.13
16.99
15.55
12.30
6.91
-0.19
-7.46
-12.63
-13.45
-8.64
1.68
15.84
31.01
43.90
51.58
52.34
46.30
35.59
23.69
14.42
10.45
12.42
18.68
26.08
31.33
32.39
29.07
23.04
16.77
12.43
11.00
11.89
13.34
13.27
10.18
3.85
-4.47
-12.60
-18.47
-20.95
-20.37
-18.33
-16.88
-17.58
-20.74
-25.24
-28.95
-29.76
-26.62
-20.04
-12.17
-5.91
-3.66
-6.28
-12.60
-19.94
-25.31
-26.75
-24.33
-19.90
-16.16
-15.31
-18.16
-24.08
-31.55
-39.07
-45.70
-51.12
-55.24
-57.79
-58.17
-55.66
-49.97
-41.67
-32.28
-23.95
-18.81
-18.17
-22.02
-28.92
-36.39
-41.72
-42.95
-39.51
-32.38
-23.52
-15.04
-8.32
-3.50
0.18
3.78
7.78
11.71
14.43
14.81
12.41
7.85
2.63
-1.52
-3.24
-1.83
2.87
10.70
21.31
34.03
47.69
60.53
70.55
76.12
76.66
72.89
66.53
59.65
53.73
49.07
44.83
39.64
32.51
23.45
13.62
4.72
-1.76
-5.27
-6.23
-5.77
-4.95
-4.34
-3.80
-2.86
-1.20
0.98
2.94
3.85
3.33
1.88
0.68
1.11
3.94
8.90
14.77
19.94
23.21
24.30
23.80
22.68
21.61
20.57
18.85
15.41
9.53
1.28
-8.19
-16.89
-22.60
-23.75
-20.06
-12.68
-3.70
4.83
11.55
16.13
18.90
20.20
19.97
17.96
14.25
9.72
6.04
4.85
6.75
10.56
13.74
13.61
8.84
0.41
-8.70
-14.80
-15.20
-9.43
0.85
12.79
23.89
32.97
40.39
47.33
54.83
63.08
71.50
79.15
85.22
89.35
91.54
91.86
90.34
86.95
81.80
75.30
67.97
60.15
51.87
43.04
34.02
26.13
21.77
23.49
32.72
48.41
66.74
82.15
89.47
86.06
72.89
53.83
33.62
15.68
0.96
-11.81
-24.80
-39.90
-58.01
-79.05
-102.32
-126.43
-148.92
-166.22
-174.36
-170.48
-154.55
-130.11
-103.36
-81.02
-67.96
-65.52
-71.30
-80.31
-86.64
-85.56
-75.04
-56.35
-33.79
-13.22
-0.16
1.91
-7.42
-25.33
-46.73
-65.67
-77.05
-77.88
-68.13
-50.83
-31.21
-15.12
-7.23
-9.53
-20.73
-37.05
-53.69
-66.56
-73.30
-73.54
-68.34
-59.39
-48.37
-36.60
-24.93
-14.06
-4.52
3.40
9.92
15.93
22.74
31.48
42.44
54.65
66.07
74.52
78.71
79.08
77.67
77.38
80.60
88.24
99.39
111.95
123.62
132.71
138.36
140.30
138.59
133.64
126.62
119.77
116.11
118.19
126.68
139.68
153.47
164.53
171.63
176.40
181.94
190.05
199.00
203.49
196.98
175.19
138.56
92.29
43.93
-0.00
-36.24
-65.08
-88.84
-109.83
-129.31
-147.59
-164.84
-181.80
-199.75
-219.97
-243.16
-269.21
-297.64
-328.20
-361.58
-399.44
-443.56
-494.31
-549.23
-602.58
-646.46
-673.26
-678.40
-661.90
-628.15
-583.71
-534.62
-484.56
-434.63
-384.37
-333.28
-281.45
-229.19
-176.23
-121.08
-61.34
5.33
79.73
160.20
242.34
319.95
386.70
438.00
472.28
491.09
498.12
497.58
492.61
484.50
472.94
456.80
435.18
408.29
377.79
346.58
318.05
295.07
278.98
269.17
263.40
258.78
253.07
245.28
235.64
224.79
213.25
200.92
187.40
172.50
156.53
139.98
123.22
106.40
89.39
71.97
54.00
35.37
16.08
-3.50
-22.53
-39.72
-53.73
-63.91
-70.75
-75.85
-81.12
-87.92
-96.37
-105.47
-113.88
-120.70
-125.90
-129.98
-133.22
-135.26
-135.22
-132.37
-126.49
-118.22
-108.64
-98.75
-89.06
-79.65
-70.53
-61.80
-53.73
-46.56
-40.26
-34.29
-27.98
-21.00
-13.78
-7.18
-2.06
1.24
2.93
3.67
4.35
5.56
7.45
9.78
12.10
14.05
15.50
16.21
16.18
15.77
15.75
16.98
20.19
25.58
32.57
39.97
45.23
46.30
42.71
35.97
28.65
23.41
22.18
25.86
34.68
46.24
58.20
69.67
81.59
95.55
112.47
132.15
153.16
173.54
187.77
191.35
182.92
164.51
139.17
108.60
72.90
30.99
-17.22
-74.67
-141.73
-214.80
-287.13
-352.36
-407.12
-450.86
-485.32
-486.80
-440.28
-348.58
-233.45
-119.89
-23.10
52.15
106.92
140.87
159.36
162.12
149.14
122.91
88.23
48.89
4.97
-37.23
-72.96
-98.25
-115.94
-130.72
-144.94
-155.98
-157.85
-144.50
-112.67
-65.04
-8.55
45.14
86.16
110.32
119.79
120.11
116.58
112.18
106.64
99.24
89.03
77.35
67.64
63.72
67.15
75.56
83.02
81.41
64.77
31.59
-13.27
-60.70
-100.21
-124.28
-131.12
-124.44
-111.38
-98.52
-90.10
-87.05
-87.52
-87.83
-83.59
-70.85
-47.46
-14.35
25.13
65.71
102.10
130.77
150.55
162.62
169.08
171.83
172.18
172.70
176.04
183.93
195.34
205.50
208.19
198.16
173.29
131.00
76.41
17.82
-36.77
-82.44
-118.82
-146.88
-167.77
-182.66
-193.35
-200.30
-203.62
-202.39
-194.43
-176.99
-144.77
-92.81
-18.27
68.76
148.26
199.03
210.39
192.61
156.79
113.70
71.77
36.06
7.55
-10.94
-16.64
-7.63
14.08
40.05
60.56
67.35
55.89
26.39
-14.97
-58.21
-92.43
-109.87
-111.39
-100.31
-82.54
-65.59
-56.00
-57.10
-69.19
-90.63
-119.52
-154.62
-193.48
-229.91
-257.55
-271.10
-267.70
-247.92
-215.27
-174.69
-130.77
-85.49
-38.81
9.72
59.84
110.02
157.44
198.98
232.26
256.39
272.54
282.96
289.63
293.50
293.97
289.25
277.26
256.80
228.52
195.05
160.52
129.27
105.08
90.35
85.60
89.53
99.50
112.35
125.33
136.70
145.72
152.51
157.48
161.02
163.23
163.84
162.36
157.87
149.08
134.45
112.78
83.91
49.02
10.54
-28.07
-63.07
-91.31
-110.99
-122.08
-126.12
-125.63
-123.26
-121.07
-120.03
-119.96
-120.03
-119.28
-116.96
-112.67
-106.19
-97.49
-87.08
-75.79
-64.64
-54.95
-48.06
-44.97
-45.81
-49.30
-53.06
-55.29
-54.64
-50.57
-43.57
-35.27
-27.70
-22.45
-20.11
-20.59
-25.79
-37.19
-54.80
-76.77
-100.45
-123.48
-144.64
-163.82
-181.89
-202.92
-229.17
-259.23
-288.44
-311.79
-326.28
-331.60
-329.52
-323.04
-319.25
-323.48
-336.85
-356.06
-375.93
-391.63
-399.56
-397.83
-360.49
-278.62
-164.87
-46.61
52.37
122.62
166.78
192.82
209.07
220.73
229.46
235.69
240.66
246.18
252.28
256.52
255.73
248.53
233.95
212.18
186.11
160.81
141.41
130.55
127.54
129.64
133.87
138.03
139.37
136.13
128.32
117.56
105.91
94.97
85.70
78.59
73.47
69.15
64.10
57.55
49.79
41.71
34.35
28.57
24.70
22.48
20.99
19.08
15.97
11.55
6.31
1.09
-3.28
-6.22
-7.62
-7.77
-7.29
-6.91
-7.13
-8.11
-9.72
-11.76
-14.06
-16.45
-18.57
-19.83
-19.58
-17.27
-12.94
-7.22
-1.28
3.66
6.82
8.14
8.23
8.08
8.55
10.03
12.31
14.85
17.08
18.58
19.27
19.36
19.10
18.66
17.97
16.76
14.82
12.20
9.21
6.35
4.01
2.22
0.63
-1.26
-3.79
-6.90
-10.16
-13.03
-15.25
-17.03
-18.94
-21.52
-25.06
-29.41
-34.12
-38.76
-43.15
-47.45
-52.05
-57.26
-63.05
-69.04
-74.54
-78.87
-81.59
-82.78
-82.94
-82.94
-83.70
-85.89
-89.77
-95.13
-101.31
-107.46
-112.61
-115.57
-115.15
-110.23
-100.02
-84.44
-64.34
-41.40
-17.73
4.66
24.29
40.30
52.36
60.39
64.32
64.23
60.54
54.39
47.44
41.53
38.15
37.97
40.87
46.31
53.92
63.46
74.39
85.14
93.19
95.72
91.13
80.05
65.29
50.78
39.62
32.92
29.92
28.99
28.99
29.74
31.44
33.79
35.37
34.21
29.00
20.33
10.72
3.61
1.56
5.17
12.75
21.19
27.52
30.09
29.04
25.82
22.24
19.44
17.47
15.57
12.94
9.43
5.76
3.08
2.19
2.93
4.18
4.36
2.37
-1.86
-7.36
-12.75
-16.91
-19.12
-18.47
-13.42
-1.75
18.27
46.23
78.72
109.93
133.87
146.83
148.88
142.86
132.30
118.98
102.37
81.08
55.22
27.91
4.64
-9.14
-10.80
-1.93
12.46
26.48
35.73
38.77
36.67
31.52
24.94
17.06
6.92
-6.36
-22.42
-39.04
-52.53
-59.05
-56.49
-45.92
-31.86
-20.62
-17.43
-23.96
-37.30
-51.53
-60.70
-61.69
-55.40
-45.57
-36.24
-29.62
-25.38
-21.54
-16.03
-7.63
3.87
18.33
35.57
55.33
76.63
97.53
115.66
128.71
134.79
132.80
122.54
105.14
83.29
60.89
41.75
28.08
19.11
11.59
1.83
-11.82
-27.67
-41.44
-48.88
-48.33
-41.77
-33.50
-27.84
-27.40
-32.85
-43.62
-58.74
-76.75
-95.08
-109.88
-117.16
-114.68
-103.63
-88.59
-75.43
-68.42
-68.14
-71.36
-72.88
-68.02
-54.55
-33.17
-6.72
21.18
46.95
67.63
80.77
84.51
77.65
60.36
34.83
5.42
-22.01
-41.66
-49.60
-45.11
-31.02
-12.45
5.05
17.38
22.74
21.44
15.10
5.58
-5.43
-16.40
-25.86
-32.67
-36.67
-38.93
-41.38
-45.70
-52.11
-58.85
-62.73
-60.57
-50.81
-34.16
-13.21
8.80
29.18
46.37
59.85
69.52
75.37
77.55
76.37
72.49
66.63
59.16
49.92
38.54
24.82
9.25
-6.69
-20.79
-30.74
-34.98
-33.27
-26.89
-18.14
-9.59
-3.15
0.22
0.54
-1.57
-5.36
-10.09
-15.07
-19.52
-22.60
-23.67
-22.47
-19.42
-15.44
-11.68
-8.99
-7.51
-6.59
-5.08
-1.79
3.97
11.97
20.78
28.01
30.98
27.71
17.90
3.37
-12.31
-25.00
-31.61
-31.25
-25.49
-17.36
-10.01
-5.34
-3.72
-4.39
-6.47
-9.45
-13.22
-17.58
-21.78
-24.52
-24.59
-21.76
-17.29
-13.49
-12.73
-16.10
-22.64
-29.70
-34.02
-33.25
-26.99
-16.76
-5.22
4.95
12.06
15.66
16.26
14.84
12.36
9.71
7.87
7.93
10.92
17.44
27.04
38.18
48.44
55.41
57.61
55.10
49.51
43.27
38.63
36.78
37.48
39.43
40.81
39.78
34.80
24.86
9.76
-9.71
-31.63
-53.16
-71.12
-82.85
-86.92
-83.53
-74.39
-62.31
-50.47
-41.71
-37.78
-39.05
-44.49
-51.99
-59.11
-63.75
-64.60
-61.42
-54.91
-46.58
-38.34
-32.06
-28.98
-29.30
-32.21
-36.10
-39.11
-39.84
-37.72
-33.09
-26.89
-20.28
-14.22
-9.26
-5.44
-2.43
0.23
2.97
5.87
8.57
10.45
10.92
9.88
8.20
7.81
11.41
21.51
39.38
64.12
92.48
119.51
139.96
149.53
145.85
128.79
100.26
63.85
24.34
-12.84
-42.62
-61.36
-67.88
-63.72
-52.44
-38.32
-25.00
-14.64
-7.99
-5.04
-5.58
-9.52
-16.64
-26.26
-37.04
-47.22
-55.11
-59.47
-59.85
-56.64
-51.07
-45.08
-40.73
-39.61
-41.97
-46.39
-50.23
-50.83
-46.68
-38.13
-27.10
-15.94
-6.34
1.26
7.49
13.12
18.39
22.74
25.25
25.20
22.70
18.65
14.43
11.40
10.23
10.63
11.50
11.29
8.78
3.78
-2.74
-8.93
-12.91
-13.65
-11.33
-7.24
-3.08
-0.10
1.34
1.77
2.17
3.40
5.65
8.56
11.39
13.55
14.96
16.04
17.30
18.90
20.45
21.14
20.28
17.80
14.50
11.71
10.68
11.94
15.17
19.45
23.81
27.73
31.09
33.96
36.20
37.39
37.02
34.94
31.59
27.98
25.25
24.08
24.50
25.83
27.26
28.21
28.63
28.79
28.95
28.98
28.38
26.66
23.72
20.19
17.20
15.84
16.53
18.76
21.34
22.98
23.01
21.51
19.17
16.81
14.91
13.48
12.11
10.39
8.15
5.53
2.96
0.98
0.14
0.71
2.58
5.09
7.22
7.86
6.36
2.99
-1.19
-4.76
-6.78
-7.19
-6.83
-6.67
-7.23
-8.24
-8.96
-8.88
-8.15
-7.48
-7.63
-8.81
-10.48
-11.80
-12.14
-11.52
-10.58
-10.11
-10.62
-12.19
-14.57
-17.46
-20.57
-23.65
-26.32
-28.16
-28.70
-27.71
-25.26
-21.66
-17.39
-12.89
-8.47
-4.34
-0.65
2.49
5.05
7.10
8.73
10.00
10.86
11.13
10.73
9.71
8.38
7.21
6.53
6.37
6.42
6.27
5.68
4.77
3.95
3.53
3.48
3.38
2.65
1.02
-1.26
-3.41
-4.53
-3.91
-1.51
2.06
5.84
8.87
10.55
10.68
9.48
7.23
4.26
0.82
-2.93
-6.73
-10.24
-13.10
-14.97
-15.59
-14.95
-13.21
-10.79
-8.18
-5.76
-3.62
-1.51
1.04
4.40
8.57
13.04
17.02
19.84
21.36
21.99
22.48
23.41
24.77
26.08
26.70
26.29
25.11
23.80
22.95
22.70
22.71
22.40
21.40
19.82
18.11
16.84
16.27
16.14
15.88
14.87
12.88
10.08
6.92
3.80
0.90
-1.91
-4.88
-8.19
-11.79
-15.43
-18.81
-21.79
-24.49
-27.25
-30.42
-34.08
-37.90
-41.29
-43.57
-44.29
-43.36
-41.12
-38.09
-34.77
-31.46
-28.17
-24.67
-20.64
-15.81
-10.15
-3.95
2.12
7.16
10.34
11.31
10.48
9.02
8.39
9.73
13.24
18.14
22.95
26.23
27.13
25.62
22.23
17.77
12.98
8.46
4.79
2.48
1.91
3.03
5.25
7.60
9.15
9.43
8.70
7.79
7.68
9.01
11.78
15.39
18.95
21.76
23.63
24.94
26.54
29.36
33.93
40.15
47.26
54.12
59.74
63.75
66.55
68.94
71.69
74.96
78.28
80.94
82.46
83.01
83.27
83.98
85.41
87.14
88.33
88.30
86.98
84.98
83.17
82.08
81.45
80.34
77.60
72.72
66.24
59.62
54.63
52.39
52.77
54.36
55.23
53.87
49.75
43.29
35.32
26.33
16.29
4.94
-7.59
-20.41
-32.08
-41.43
-48.29
-53.87
-60.19
-69.06
-81.07
-95.08
-108.59
-118.78
-123.61
-122.56
-116.72
-108.05
-98.65
-89.88
-82.19
-75.35
-69.01
-63.20
-58.42
-55.45
-54.83
-56.55
-59.91
-63.65
-66.53
-67.73
-67.24
-65.83
-64.64
-64.58
-65.81
-67.66
-68.86
-68.28
-65.47
-60.86
-55.48
-50.38
-46.10
-42.57
-39.40
-36.30
-33.36
-31.01
-29.61
-29.11
-28.90
-28.03
-25.56
-21.04
-14.59
-6.77
1.67
10.09
18.00
24.99
30.68
34.66
36.74
36.97
35.84
34.02
32.20
30.77
29.81
29.25
28.91
28.68
28.43
27.95
26.96
25.28
22.97
20.40
18.17
16.72
16.22
16.46
17.02
17.52
17.77
17.78
17.55
17.04
16.06
14.49
12.39
10.01
7.67
5.50
3.32
0.65
-2.95
-7.59
-12.77
-17.63
-21.21
-22.92
-22.77
-21.40
-19.65
-18.23
-17.40
-16.92
-16.24
-14.84
-12.48
-9.35
-5.87
-2.58
0.17
2.27
3.91
5.38
7.02
9.08
11.75
15.11
19.12
23.48
27.67
31.03
32.88
32.79
30.76
27.25
23.01
18.88
15.47
12.99
11.11
9.18
6.46
2.45
-2.86
-8.88
-14.55
-18.64
-20.19
-18.82
-14.88
-9.44
-3.91
0.34
2.35
1.90
-0.57
-4.14
-7.64
-9.90
-9.88
-6.78
-0.29
9.13
20.14
30.73
38.71
42.38
40.94
34.55
24.05
10.51
-4.93
-20.98
-35.88
-47.32
-52.92
-50.77
-40.39
-22.95
-1.04
22.07
43.48
61.15
74.01
81.88
85.20
84.84
82.09
78.38
74.92
72.36
70.59
69.11
67.69
66.92
68.26
73.44
83.54
98.00
114.33
128.68
137.01
136.40
125.96
106.97
82.23
54.94
27.64
1.62
-22.96
-46.54
-69.55
-92.09
-113.74
-133.47
-149.51
-159.16
-159.09
-146.22
-119.16
-79.35
-31.37
18.11
62.17
95.55
115.46
121.43
114.19
94.77
64.59
26.13
-16.36
-56.89
-89.07
-108.11
-112.58
-104.83
-90.02
-73.81
-60.35
-51.18
-45.44
-41.14
-36.42
-30.23
-22.24
-12.39
-0.48
13.74
30.13
47.96
66.02
83.12
98.73
113.15
127.21
141.61
156.03
168.82
177.21
177.83
167.55
144.26
107.58
59.37
3.80
-53.19
-105.00
-145.90
-172.44
-184.06
-182.96
-173.06
-158.74
-143.68
-130.46
-120.44
-114.10
-111.30
-111.49
-113.99
-118.34
-124.56
-133.25
-145.20
-160.85
-179.72
-200.34
-220.52
-238.05
-251.43
-260.16
-264.78
-266.48
-266.76
-266.88
-267.48
-268.20
-267.40
-262.41
-250.18
-228.18
-195.14
-151.51
-99.41
-42.39
14.91
67.34
109.80
138.22
150.44
146.77
129.90
104.01
73.60
42.38
12.97
-12.97
-34.20
-49.48
-57.66
-58.03
-50.61
-36.20
-16.25
7.46
32.91
58.09
80.95
99.57
112.66
119.94
122.33
121.66
120.07
119.12
119.34
120.28
121.05
120.88
119.26
115.89
110.51
102.84
92.83
80.86
67.79
54.64
42.37
31.71
23.22
17.49
15.08
16.07
19.79
24.61
28.44
29.55
27.32
22.51
16.80
11.90
8.85
7.77
8.09
9.07
10.31
11.90
14.35
18.23
23.98
31.90
42.29
55.52
71.86
91.15
112.39
133.77
153.02
168.11
177.86
182.10
181.42
176.57
167.98
155.71
139.72
120.27
98.31
75.38
53.40
34.34
19.91
11.24
8.68
11.45
17.70
24.67
29.45
29.73
24.48
14.12
0.15
-15.60
-31.43
-45.94
-57.88
-66.13
-70.16
-70.56
-69.21
-68.71
-71.01
-76.38
-82.98
-87.95
-89.04
-85.99
-80.73
-76.20
-74.70
-76.64
-80.50
-83.88
-84.91
-83.14
-79.47
-75.32
-71.60
-68.16
-63.87
-57.41
-48.18
-36.88
-25.16
-14.91
-7.33
-2.46
0.48
2.42
3.51
3.04
-0.31
-7.65
-19.02
-33.20
-47.66
-59.20
-64.70
-62.03
-50.94
-33.42
-13.51
3.86
14.56
16.80
11.84
3.34
-4.25
-7.41
-4.69
3.38
15.07
28.67
43.15
58.15
73.64
89.35
104.71
119.09
132.06
143.49
153.24
160.59
164.11
162.13
153.77
140.09
124.40
111.37
104.98
106.47
113.57
121.47
125.07
121.00
108.40
88.25
61.89
30.15
-6.37
-46.12
-85.85
-121.08
-147.87
-164.60
-172.74
-176.09
-178.77
-183.49
-190.72
-199.09
-206.35
-210.28
-209.16
-202.00
-188.76
-170.30
-148.32
-124.91
-101.88
-80.16
-59.64
-39.59
-19.55
-0.07
17.24
30.13
36.63
36.07
29.46
19.33
8.76
0.32
-4.80
-6.94
-7.54
-8.27
-10.25
-13.83
-18.61
-24.13
-30.20
-37.25
-46.12
-57.52
-71.52
-87.01
-101.77
-112.92
-117.89
-115.44
-106.12
-91.99
-75.82
-59.95
-45.95
-34.59
-26.36
-21.37
-18.92
-16.78
-11.32
1.39
23.66
54.74
90.74
126.08
155.91
177.87
192.37
201.37
206.67
208.68
206.50
198.88
185.45
167.27
146.46
125.36
105.57
87.56
70.74
53.98
36.36
17.66
-1.41
-19.49
-35.25
-48.02
-58.21
-67.16
-76.53
-87.50
-100.21
-113.60
-125.73
-134.21
-136.79
-131.87
-119.00
-99.24
-75.45
-51.68
-31.96
-18.56
-10.75
-4.86
4.28
20.91
46.40
78.70
113.39
145.58
171.59
189.38
198.07
197.06
185.62
163.32
130.89
90.89
47.48
5.43
-31.17
-59.86
-80.12
-92.89
-99.83
-102.64
-102.75
-101.38
-99.68
-98.65
-98.82
-99.90
-100.69
-99.51
-94.92
-86.35
-74.32
-60.08
-45.06
-30.42
-17.01
-5.38
4.04
11.12
16.08
19.61
22.66
26.03
29.93
34.01
37.60
40.14
41.49
41.95
41.95
41.73
41.08
39.27
35.33
28.51
18.67
6.35
-7.44
-21.70
-35.75
-49.21
-61.77
-72.81
-81.34
-86.32
-87.22
-84.36
-79.00
-72.74
-66.88
-61.84
-57.23
-52.17
-46.01
-38.64
-30.49
-22.20
-14.19
-6.41
1.59
10.24
19.49
28.64
36.55
42.16
45.11
45.96
45.91
46.18
47.31
48.84
49.49
47.86
43.02
34.98
24.61
13.18
1.84
-8.61
-17.74
-25.18
-30.52
-33.37
-33.53
-31.18
-27.02
-22.03
-17.16
-13.16
-10.28
-8.42
-7.14
-5.98
-4.61
-2.97
-1.25
0.31
1.52
2.43
3.25
4.14
5.04
5.57
5.35
4.23
2.60
1.16
0.52
0.80
1.41
1.43
0.15
-2.30
-4.89
-5.97
-3.92
2.20
12.26
25.19
39.31
52.81
64.06
71.72
74.84
72.80
65.69
54.42
40.88
27.71
17.62
12.61
13.20
18.37
25.89
33.30
38.82
41.70
42.17
40.94
38.61
35.40
31.21
26.01
20.16
14.46
9.85
6.97
5.84
5.77
5.69
4.55
1.65
-3.20
-9.75
-17.35
-25.19
-32.38
-38.04
-41.39
-41.76
-38.77
-32.51
-23.61
-13.30
-3.23
4.97
10.19
12.28
12.03
10.70
9.31
8.08
6.33
2.91
-3.02
-11.34
-20.97
-30.27
-37.80
-42.90
-45.87
-47.75
-49.68
-52.41
-56.05
-60.28
-64.52
-68.31
-71.28
-72.88
-72.28
-68.34
-60.08
-47.30
-31.03
-13.50
2.47
14.51
21.58
24.32
24.74
25.24
27.68
32.71
39.83
47.85
55.61
62.47
68.36
73.52
78.20
82.41
85.94
88.60
90.32
91.17
91.18
90.17
87.87
84.02
78.62
72.06
65.04
58.53
53.49
50.67
50.30
51.88
54.01
54.69
51.80
43.84
30.67
13.68
-4.32
-19.99
-30.39
-33.88
-30.48
-21.68
-9.95
1.99
11.76
17.76
19.38
17.11
12.45
7.53
4.58
5.11
9.28
15.65
21.71
24.82
23.39
17.50
8.79
-0.36
-7.91
-12.94
-15.67
-16.99
-17.66
-17.86
-17.25
-15.46
-12.55
-9.28
-6.78
-6.05
-7.37
-10.21
-13.49
-16.14
-17.62
-18.15
-18.55
-19.83
-22.65
-26.90
-31.73
-35.80
-37.79
-36.94
-33.37
-27.96
-21.98
-16.45
-11.83
-7.97
-4.35
-0.64
3.08
6.28
8.41
9.27
9.37
9.69
11.33
14.88
20.10
26.06
31.62
36.06
39.33
42.02
44.87
48.33
52.44
57.00
62.13
68.56
77.55
90.40
107.70
128.69
151.11
171.72
187.14
194.92
194.02
184.81
168.61
147.05
121.79
94.44
66.75
40.54
17.35
-2.00
-17.65
-30.39
-40.98
-49.46
-54.94
-56.23
-52.90
-46.00
-38.07
-32.12
-30.32
-32.95
-38.32
-43.81
-47.24
-47.86
-46.51
-44.90
-44.65
-46.48
-50.21
-55.22
-61.09
-67.80
-75.42
-83.67
-91.59
-97.65
-100.48
-99.47
-95.20
-89.20
-83.48
-79.69
-78.74
-80.55
-84.16
-88.22
-91.32
-92.55
-91.65
-89.03
-85.54
-82.09
-79.20
-76.83
-74.61
-72.04
-68.89
-65.19
-61.24
-57.31
-53.52
-49.85
-46.23
-42.60
-38.90
-35.13
-31.21
-27.06
-22.63
-17.90
-12.96
-7.97
-3.16
1.19
4.77
7.32
8.81
9.48
9.84
10.53
12.01
14.29
16.85
18.91
19.73
19.09
17.37
15.38
14.01
13.68
14.19
14.83
14.87
13.96
12.29
10.50
9.18
8.46
7.96
6.93
4.83
1.84
-1.00
-1.95
0.96
9.31
23.95
44.66
70.16
98.07
125.14
147.70
162.25
166.33
159.16
142.00
118.05
91.72
67.60
49.24
38.35
34.39
35.03
37.06
37.62
35.06
29.23
21.11
12.02
2.92
-5.83
-14.41
-23.07
-31.83
-40.43
-48.43
-55.46
-61.38
-66.25
-70.17
-73.14
-74.98
-75.36
-73.94
-70.62
-65.63
-59.64
-53.53
-48.21
-44.28
-42.04
-41.53
-42.66
-45.36
-49.56
-55.04
-61.36
-67.80
-73.57
-77.92
-80.43
-81.10
-80.28
-78.48
-75.95
-72.39
-67.01
-58.96
-47.95
-34.80
-21.37
-9.85
-1.70
3.12
6.31
10.41
17.72
29.37
45.15
63.85
83.86
103.31
120.12
131.84
136.09
131.43
118.32
99.46
79.23
62.38
52.50
50.97
56.61
66.26
75.65
80.59
77.96
66.61
47.68
24.28
0.56
-19.82
-34.75
-44.12
-49.32
-52.28
-54.46
-56.48
-58.35
-60.04
-61.71
-63.63
-65.84
-67.79
-68.40
-66.52
-61.59
-54.09
-45.47
-37.54
-31.70
-28.26
-26.34
-24.36
-20.93
-15.50
-8.64
-1.58
4.50
9.06
12.47
15.67
19.62
24.82
31.15
38.09
45.01
51.41
56.97
61.61
65.37
68.26
70.43
72.26
74.51
78.40
85.34
96.36
111.44
128.96
145.84
158.32
163.07
158.18
143.55
120.63
91.65
59.08
25.31
-7.21
-35.75
-57.47
-70.00
-72.34
-65.52
-52.68
-38.23
-26.51
-20.49
-20.90
-26.38
-34.28
-41.98
-47.93
-51.94
-54.84
-57.58
-60.60
-63.51
-65.52
-65.99
-64.88
-62.77
-60.47
-58.51
-56.96
-55.46
-53.64
-51.46
-49.21
-47.19
-45.39
-43.29
-40.31
-36.27
-31.73
-27.94
-26.13
-26.75
-28.93
-30.56
-28.92
-21.71
-8.04
10.94
31.88
49.97
60.24
59.28
46.48
24.63
-0.89
-23.85
-39.25
-44.85
-41.42
-31.83
-19.51
-7.08
4.18
14.06
22.75
30.31
36.58
41.37
44.74
47.08
48.73
49.73
49.60
47.75
43.97
38.83
33.64
29.94
28.83
30.52
34.26
38.69
42.39
44.20
43.47
40.07
34.45
27.50
20.41
14.43
10.63
9.91
12.86
19.64
29.38
39.55
46.09
44.41
31.51
7.71
-22.71
-52.79
-75.64
-87.22
-87.71
-80.80
-71.47
-63.67
-58.94
-56.74
-55.73
-55.16
-55.38
-57.37
-61.66
-67.71
-73.85
-77.97
-78.53
-75.31
-69.49
-63.09
-57.76
-54.04
-51.14
-47.65
-42.41
-35.24
-26.97
-18.97
-12.34
-7.42
-3.74
-0.36
3.20
6.89
10.39
13.58
16.68
20.15
24.38
29.56
35.40
40.42
42.72
40.89
34.98
26.51
18.00
12.08
10.59
14.12
20.84
27.95
33.13
35.78
36.71
37.13
37.81
38.73
39.13
36.31
27.02
8.76
-18.96
-54.91
-96.33
-139.74
-181.40
-209.18
-212.46
-187.37
-140.22
-83.04
-27.12
21.58
61.60
93.65
118.94
137.08
147.44
150.33
148.33
143.78
138.98
135.35
133.11
131.83
129.73
125.04
116.91
106.83
95.38
83.21
70.76
57.91
44.14
27.99
7.89
-17.33
-39.74
-56.35
-66.61
-71.02
-70.61
-66.33
-59.13
-49.61
-43.43
-37.95
-31.80
-24.43
-15.24
-3.92
9.50
24.49
40.04
54.83
68.03
81.78
95.40
108.17
119.50
129.09
137.03
143.69
149.81
157.06
165.81
175.34
185.40
196.08
207.98
220.96
234.34
247.09
258.73
268.12
273.44
273.64
268.50
258.63
244.56
226.80
205.88
182.67
157.67
129.99
99.31
66.08
32.51
-0.13
-31.06
-59.99
-86.41
-110.00
-133.59
-159.21
-186.92
-212.27
-233.43
-249.78
-261.80
-269.33
-272.05
-275.54
-283.87
-297.15
-306.69
-309.52
-305.29
-296.28
-283.69
-268.56
-261.12
-268.74
-292.15
-318.14
-341.60
-360.64
-376.81
-389.88
-400.00
-419.92
-459.41
-520.54
-588.18
-657.36
-726.35
-796.70
-867.46
-862.55
-741.29
-515.33
-320.68
-193.99
-138.52
-116.53
-108.90
-102.33
-88.38
-74.11
-65.54
-31.59
55.62
189.67
343.55
488.16
606.53
694.27
742.66
756.34
740.07
706.16
658.68
600.34
534.35
463.15
388.67
307.15
225.75
153.10
100.57
69.50
39.35
6.61
-29.67
-70.54
-107.79
-136.06
-155.30
-164.97
-166.57
-161.13
-129.52
-67.10
17.40
91.83
148.54
185.39
206.03
210.35
198.12
173.35
137.98
95.80
52.15
12.95
-21.79
-55.46
-81.31
-94.78
-94.05
-84.90
-73.49
-62.88
-52.54
-44.04
-39.55
-40.63
-47.90
-58.15
-67.26
-69.95
-62.25
-43.38
-18.24
6.09
23.95
32.25
32.17
26.48
18.28
9.40
0.51
-8.93
-18.88
-28.02
-35.33
-40.06
-42.37
-43.07
-43.16
-43.12
-43.02
-42.89
-40.88
-36.16
-28.69
-19.28
-9.28
-0.27
6.51
10.45
11.90
11.77
10.62
8.78
6.17
2.48
-2.78
-9.92
-19.05
-29.68
-41.20
-53.19
-65.41
-77.81
-90.47
-103.55
-117.11
-131.20
-145.31
-158.70
-170.80
-181.18
-189.62
-195.84
-199.42
-199.42
-197.59
-194.37
-189.67
-183.39
-175.45
-165.87
-154.76
-142.32
-128.81
-114.72
-100.20
-84.89
-68.59
-51.36
-33.53
-15.66
1.58
17.44
31.06
41.94
51.48
60.99
71.35
82.67
94.58
106.61
118.27
129.01
138.42
149.90
166.39
189.43
218.62
252.28
288.41
325.10
360.51
392.99
426.86
465.57
510.06
558.08
605.88
650.71
692.20
731.92
771.51
818.07
873.61
933.20
986.60
1023.15
1037.07
1029.43
1006.43
929.12
778.85
560.40
304.04
50.66
-168.06
-338.01
-459.81
-542.07
-595.96
-624.30
-629.00
-613.55
-583.89
-548.32
-513.99
-487.83
-474.48
-476.56
-489.39
-508.21
-529.52
-550.55
-566.40
-571.21
-560.61
-534.27
-497.11
-453.89
-410.08
-371.29
-336.33
-302.83
-268.40
-231.66
-192.48
-151.67
-108.12
-60.24
-10.46
38.62
83.46
120.45
146.88
161.43
164.66
159.39
149.26
137.39
126.79
118.46
111.82
105.52
98.30
89.53
79.43
68.76
58.19
49.09
41.92
36.23
31.26
26.06
19.92
12.50
5.78
-1.66
-9.99
-19.42
-30.27
-42.46
-55.90
-70.21
-84.76
-98.78
-111.82
-123.03
-132.00
-138.85
-143.49
-146.32
-147.92
-148.96
-150.08
-152.06
-155.11
-159.38
-165.00
-171.28
-177.69
-183.73
-188.84
-192.42
-193.89
-192.07
-185.27
-176.56
-166.79
-156.49
-146.06
-135.75
-125.74
-116.18
-107.04
-98.33
-90.26
-82.38
-74.61
-67.01
-59.62
-52.45
-45.38
-38.19
-30.73
-23.07
-14.94
-6.47
1.99
10.17
18.11
26.14
34.66
44.01
54.25
65.45
77.16
88.73
99.67
110.02
120.35
131.49
144.27
159.07
175.86
194.01
212.54
230.59
248.05
265.26
282.78
301.44
322.32
346.64
375.10
406.96
439.41
468.48
488.96
496.16
487.96
466.04
435.41
402.31
371.90
346.69
328.17
315.33
305.80
297.23
288.37
279.01
269.24
258.80
247.17
236.39
227.42
219.68
211.59
201.67
189.14
173.71
155.42
134.70
115.52
99.84
86.50
71.98
52.78
27.00
-5.18
-41.83
-100.02
-180.45
-269.51
-347.42
-401.17
-428.63
-434.50
-425.05
-405.80
-381.04
-351.03
-317.11
-282.29
-250.13
-222.75
-200.32
-181.96
-167.14
-156.25
-148.03
-142.79
-142.16
-147.77
-157.51
-168.44
-177.63
-183.72
-186.84
-186.62
-183.54
-178.37
-171.71
-163.78
-155.27
-147.21
-140.17
-133.23
-123.14
-106.84
-83.41
-55.03
-25.87
-0.71
17.10
26.07
26.05
17.72
1.71
-20.85
-47.64
-74.81
-97.15
-109.11
-106.12
-86.48
-53.01
-13.85
19.39
35.39
29.14
5.61
-22.17
-39.11
-36.90
-18.70
3.33
16.10
14.19
3.06
-4.94
0.74
22.12
52.03
79.68
97.78
106.49
111.30
117.37
124.58
126.83
116.50
90.05
50.93
8.34
-27.80
-51.33
-61.21
-59.43
-48.12
-27.59
2.93
41.79
82.71
115.38
129.12
117.60
82.09
31.24
-22.13
-64.89
-87.35
-85.22
-59.62
-16.05
36.99
89.70
133.42
159.79
164.43
148.10
115.73
74.68
32.96
-2.41
-26.60
-37.71
-37.22
-29.31
-19.51
-12.79
-11.70
-15.89
-22.82
-29.94
-35.90
-40.79
-44.93
-48.21
-50.24
-50.95
-51.36
-53.52
-59.38
-69.42
-82.29
-95.04
-104.50
-108.74
-107.60
-102.22
-94.24
-85.05
-75.49
-66.09
-57.10
-48.67
-40.68
-32.75
-24.30
-14.88
-4.48
6.46
17.21
27.14
35.86
43.12
48.59
51.71
51.77
48.22
41.11
31.29
20.28
9.86
1.42
-4.41
-7.87
-9.74
-10.80
-11.41
-11.38
-10.11
-7.11
-2.31
3.81
10.43
16.83
22.63
27.91
32.98
38.02
42.71
46.17
47.24
45.00
39.23
30.62
20.59
10.74
2.26
-4.43
-9.67
-14.12
-18.33
-22.47
-26.29
-29.33
-31.33
-32.28
-32.45
-32.16
-31.54
-30.58
-29.06
-26.90
-24.19
-21.36
-19.06
-17.81
-17.86
-18.97
-20.53
-21.86
-22.53
-22.69
-22.95
-24.06
-26.42
-29.79
-33.38
-36.14
-37.35
-36.86
-35.13
-32.85
-30.57
-28.49
-26.59
-24.84
-23.50
-23.08
-24.09
-26.65
-30.46
-34.79
-38.94
-42.58
-45.86
-49.34
-53.51
-58.41
-63.35
-67.01
-67.81
-64.53
-56.72
-44.98
-30.85
-16.27
-3.20
6.89
13.35
16.41
17.10
16.83
16.78
17.29
17.40
15.05
7.77
-6.23
-27.29
-53.88
-82.87
-110.25
-132.03
-145.17
-148.48
-143.25
-133.33
-124.53
-122.75
-131.85
-151.99
-179.39
-207.79
-231.05
-245.62
-251.44
-251.24
-248.14
-243.50
-236.06
-222.69
-200.33
-167.78
-126.76
-81.18
-35.63
6.13
42.14
72.08
96.67
116.91
133.90
148.91
163.29
177.53
190.22
198.05
197.27
186.03
166.06
142.60
122.20
109.56
105.31
105.79
105.15
98.20
82.85
60.61
35.77
13.68
-0.68
-3.44
7.68
33.17
71.14
117.40
166.09
210.91
246.34
268.78
276.86
271.35
254.38
228.59
196.84
162.77
131.29
108.25
99.21
106.93
129.21
158.58
184.61
197.96
194.22
175.49
148.95
123.45
105.73
98.44
100.31
107.81
116.91
124.00
126.11
121.14
108.42
89.48
68.17
49.43
37.21
32.58
33.15
34.57
33.04
27.27
18.69
10.12
3.72
-0.24
-3.04
-6.06
-9.37
-11.34
-9.66
-3.02
7.77
19.59
28.28
30.50
25.13
13.74
-0.27
-13.03
-21.82
-25.86
-26.10
-24.36
-22.23
-20.44
-18.61
-15.81
-11.16
-4.32
4.43
14.32
24.26
33.01
39.28
42.07
40.98
36.31
28.83
19.25
7.66
-6.49
-23.81
-44.32
-66.77
-88.92
-108.38
-123.50
-134.09
-141.28
-146.74
-151.66
-156.25
-159.70
-160.75
-158.27
-151.68
-141.18
-127.57
-112.19
-96.43
-81.35
-67.13
-52.92
-37.03
-17.44
6.76
34.49
62.08
84.04
94.79
90.77
72.01
42.70
10.51
-15.53
-27.91
-23.21
-3.51
24.52
52.39
73.18
84.34
88.12
89.49
93.14
100.82
110.89
120.07
126.06
129.24
132.06
136.99
144.47
152.54
157.83
157.31
150.07
137.85
124.60
115.10
112.85
118.87
130.81
143.73
151.83
150.72
138.72
117.11
89.00
57.73
26.28
-3.19
-28.76
-48.43
-60.38
-63.81
-59.20
-47.86
-31.25
-9.43
17.71
49.82
85.08
119.83
149.14
168.05
172.93
161.83
137.89
106.43
74.89
50.72
38.75
39.28
47.78
56.53
55.92
43.09
17.66
-16.79
-54.87
-92.04
-126.40
-158.84
-192.05
-232.04
-278.20
-331.89
-392.55
-457.06
-519.53
-572.36
-608.25
-622.66
-619.19
-597.72
-564.56
-525.41
-483.37
-438.37
-388.54
-332.49
-247.89
-169.74
-100.97
-50.36
-25.32
-29.12
-58.98
-106.02
-157.50
-200.97
-231.44
-241.90
-234.88
-215.82
-190.29
-162.49
-134.99
-109.75
-88.66
-75.66
-66.87
-59.03
-46.46
-22.44
18.28
76.84
148.49
222.97
285.52
326.11
337.38
319.24
279.04
229.05
182.02
147.11
127.32
120.81
125.46
138.63
159.57
189.04
227.48
272.53
317.73
352.46
367.48
357.63
322.17
264.44
190.42
107.50
23.71
-52.35
-113.64
-151.26
-158.53
-133.83
-82.01
-12.51
64.64
142.56
219.37
283.60
325.94
341.45
333.56
312.60
289.19
268.28
247.33
229.10
202.07
160.61
107.43
52.13
6.42
-21.25
-29.13
-25.22
-19.65
-23.83
-41.09
-67.83
-96.45
-120.20
-136.21
-145.56
-151.35
-154.53
-154.66
-147.93
-132.55
-111.49
-91.99
-81.75
-85.31
-103.16
-130.75
-162.15
-189.96
-208.76
-215.35
-208.38
-187.57
-148.10
-92.94
-32.43
19.62
54.20
68.79
65.39
47.14
17.68
-18.70
-57.89
-94.50
-125.47
-147.88
-161.76
-170.62
-180.01
-193.29
-209.28
-222.77
-225.46
-209.86
-172.85
-118.10
-51.82
14.65
71.68
114.90
144.60
163.89
175.43
179.94
176.29
163.60
142.82
117.87
93.67
73.32
57.23
43.64
30.47
17.00
4.56
-4.39
-7.12
-2.75
6.50
15.85
19.85
14.98
0.98
-19.36
-42.08
-63.41
-80.88
-93.03
-98.35
-94.66
-79.64
-52.34
-14.67
28.52
71.20
108.43
137.98
160.39
177.58
191.17
201.54
208.19
210.79
210.19
208.45
207.91
209.99
214.49
219.69
223.35
223.86
220.95
215.66
209.73
204.33
199.24
192.35
180.18
158.73
124.94
78.12
20.86
-41.04
-99.97
-148.58
-181.74
-197.47
-196.82
-182.95
-160.21
-133.89
-109.85
-94.22
-92.30
-107.11
-138.47
-183.40
-237.80
-298.10
-361.70
-425.87
-485.88
-534.24
-562.23
-563.06
-534.78
-481.43
-411.58
-335.60
-262.85
-200.33
-152.68
-122.68
-111.29
-117.13
-136.04
-161.39
-185.49
-201.45
-204.90
-194.47
-171.49
-139.39
-102.78
-66.50
-34.76
-10.38
5.77
14.59
18.25
19.39
20.51
23.58
30.12
41.24
57.74
80.17
108.73
143.47
184.41
231.61
284.67
341.90
399.45
451.33
490.49
510.93
509.77
488.17
450.81
403.96
353.23
302.00
251.47
201.74
153.19
107.26
66.09
31.30
2.78
-21.63
-45.39
-71.88
-102.68
-136.63
-169.82
-196.89
-212.88
-215.08
-204.07
-183.36
-158.06
-132.91
-110.84
-92.58
-77.38
-64.18
-52.59
-43.14
-36.88
-34.70
-36.77
-42.61
-51.52
-62.90
-76.24
-90.77
-104.91
-116.06
-120.71
-114.92
-95.24
-59.47
-7.67
56.87
127.44
194.84
249.59
284.51
297.00
289.58
268.69
242.05
216.03
194.08
176.84
163.39
152.69
144.33
138.46
134.96
132.98
130.96
127.49
122.13
115.81
110.61
108.54
110.30
114.50
118.00
117.12
109.29
94.00
72.90
48.89
24.80
2.52
-17.24
-34.43
-49.02
-60.67
-68.92
-73.54
-75.03
-74.60
-73.77
-73.71
-74.73
-76.22
-77.08
-76.37
-73.88
-70.28
-66.71
-64.12
-62.78
-62.14
-61.24
-59.30
-56.29
-52.87
-50.02
-48.41
-47.92
-47.70
-46.60
-43.82
-39.39
-34.22
-29.63
-26.62
-25.30
-24.84
-23.87
-21.19
-16.41
-10.15
-3.81
1.20
4.02
4.74
4.32
4.07
5.04
7.57
11.24
15.13
18.29
20.15
20.60
19.99
18.97
18.53
19.94
24.69
34.15
48.92
68.26
89.83
110.09
125.33
132.93
132.42
125.53
115.47
105.67
98.67
95.61
96.59
101.37
109.92
122.36
138.20
155.61
171.23
180.82
180.70
169.15
147.30
118.60
87.73
58.91
34.54
14.52
-3.71
-24.09
-50.40
-84.64
-125.84
-169.97
-211.10
-243.40
-263.11
-269.53
-264.49
-250.82
-230.60
-204.39
-171.61
-132.06
-87.41
-41.83
-0.89
30.39
49.33
56.31
53.70
43.86
27.86
5.52
-22.81
-54.43
-84.27
-107.02
-120.47
-127.57
-135.69
-152.86
-183.30
-224.66
-268.87
-305.95
-328.45
-334.27
-326.18
-309.20
-287.41
-262.38
-233.70
-200.80
-164.61
-127.96
-94.37
-66.06
-42.51
-20.53
3.97
33.50
67.18
100.54
127.64
143.65
147.10
140.18
127.31
112.90
99.53
87.40
75.11
61.00
44.33
25.61
6.27
-11.91
-27.32
-38.68
-45.14
-46.35
-42.41
-33.81
-21.40
-6.15
10.84
28.37
45.16
59.87
71.35
78.96
82.97
84.41
84.67
84.89
85.51
86.31
86.85
86.91
86.71
86.86
87.89
89.94
92.52
94.71
95.58
94.51
91.43
86.79
81.42
76.19
71.92
69.27
68.65
70.13
73.39
77.86
82.68
86.92
89.71
90.47
89.10
85.86
81.31
76.03
70.46
64.73
58.76
52.40
45.63
38.68
32.02
26.21
21.68
18.56
16.62
15.42
14.59
14.04
13.99
14.75
16.41
18.65
20.80
22.09
22.08
20.76
18.59
16.22
14.28
13.21
13.34
14.85
17.81
22.01
26.83
31.30
34.39
35.34
33.89
30.36
25.45
19.95
14.48
9.42
4.88
0.73
-3.24
-7.24
-11.35
-15.46
-19.29
-22.49
-24.88
-26.60
-28.04
-29.71
-31.91
-34.59
-37.40
-39.86
-41.57
-42.38
-42.40
-41.87
-40.98
-39.77
-38.11
-35.86
-33.00
-29.70
-26.37
-23.49
-21.45
-20.36
-20.05
-20.11
-20.14
-19.94
-19.56
-19.22
-19.09
-19.12
-19.10
-18.72
-17.80
-16.44
-14.89
-13.43
-12.10
-10.65
-8.65
-5.76
-1.96
2.35
6.46
9.59
11.19
11.17
9.86
7.87
5.73
3.65
1.52
-1.01
-4.15
-7.84
-11.72
-15.34
-18.37
-20.78
-22.73
-24.31
-25.28
-25.10
-23.13
-19.04
-13.09
-6.13
0.68
6.33
10.35
12.90
14.59
16.11
17.85
19.77
21.44
22.34
22.20
21.06
19.29
17.35
15.58
14.08
12.74
11.42
10.06
8.75
7.62
6.73
6.00
5.19
3.98
2.16
-0.26
-2.98
-5.58
-7.63
-8.86
-9.32
-9.35
-9.39
-9.83
-10.80
-12.18
-13.64
-14.89
-15.79
-16.41
-17.00
-17.69
-18.43
-18.91
-18.68
-17.40
-15.07
-12.01
-8.70
-5.55
-2.63
0.33
3.68
7.59
11.79
15.64
18.37
19.52
19.17
17.85
16.36
15.34
15.03
15.27
15.57
15.50
14.88
13.79
12.52
11.37
10.45
9.68
8.81
7.61
6.03
4.25
2.64
1.53
1.03
0.94
0.90
0.52
-0.32
-1.54
-2.88
-4.14
-5.34
-6.75
-8.71
-11.36
-14.53
-17.69
-20.22
-21.62
-21.80
-20.95
-19.46
-17.63
-15.53
-13.04
-10.03
-6.53
-2.89
0.35
2.68
3.87
4.00
3.48
2.80
2.34
2.21
2.35
2.58
2.81
3.09
3.52
4.23
5.21
6.30
7.23
7.76
7.80
7.47
6.97
6.55
6.30
6.14
5.86
5.26
4.29
3.11
2.03
1.40
1.40
1.96
2.74
3.26
3.19
2.43
1.20
-0.05
-0.85
-0.95
-0.37
0.65
1.80
2.92
4.12
5.70
8.06
11.49
16.08
21.69
28.08
34.98
42.09
49.16
55.86
61.82
66.68
70.29
72.80
74.73
76.88
80.07
84.85
91.17
98.31
104.98
109.67
111.20
109.25
104.57
98.76
93.46
89.60
86.85
83.79
78.61
70.04
57.95
43.28
27.49
11.84
-3.12
-17.33
-30.83
-43.38
-54.44
-63.59
-70.91
-77.13
-83.18
-89.66
-96.27
-101.87
-104.99
-104.61
-100.63
-94.06
-86.45
-79.26
-73.20
-68.19
-63.52
-58.39
-52.28
-45.04
-36.83
-27.85
-18.30
-8.59
0.54
7.92
12.17
12.28
8.07
0.41
-8.96
-18.03
-25.10
-29.23
-30.24
-28.48
-24.48
-18.81
-12.10
-5.16
1.06
5.60
7.83
7.78
6.22
4.44
3.72
4.78
7.40
10.50
12.62
12.61
10.18
6.17
2.20
-0.07
0.37
3.31
7.39
10.68
11.44
8.87
3.26
-4.24
-12.03
-18.53
-22.37
-22.62
-18.82
-11.24
-0.80
11.16
23.37
35.28
47.15
59.68
73.21
87.07
99.45
108.09
111.26
108.68
101.77
93.17
85.79
81.95
82.86
88.54
98.39
111.57
127.32
145.08
164.14
183.38
201.11
215.23
223.56
224.44
217.01
201.25
177.84
147.84
112.46
73.00
30.89
-12.34
-55.18
-96.34
-135.23
-172.22
-208.66
-246.23
-285.91
-326.90
-366.19
-399.27
-422.00
-432.43
-431.71
-423.46
-411.76
-399.23
-386.25
-371.64
-354.42
-334.91
-314.69
-295.17
-276.34
-256.50
-233.47
-206.13
-175.11
-142.23
-108.97
-75.23
-39.16
1.39
47.02
95.50
142.07
181.38
209.99
228.16
239.68
250.01
263.56
281.81
302.88
322.89
337.92
345.75
346.34
341.10
331.80
319.78
305.82
290.54
274.22
256.43
235.70
209.82
176.91
136.64
90.65
42.04
-6.14
-52.11
-95.85
-138.54
-181.68
-226.51
-273.97
-324.91
-379.70
-437.19
-493.52
-542.03
-575.08
-587.29
-578.44
-554.27
-524.36
-497.93
-479.86
-469.07
-459.85
-445.23
-420.46
-384.57
-339.87
-290.12
-238.64
-187.42
-137.36
-88.91
-42.61
0.92
41.22
78.45
113.58
148.10
183.26
218.97
253.19
282.21
302.30
311.91
313.05
310.74
310.56
315.58
324.69
333.46
337.20
334.09
326.55
319.69
318.11
322.86
330.63
335.45
331.78
317.15
293.22
264.99
238.89
220.76
214.33
220.42
237.01
259.83
283.76
304.21
318.14
324.09
321.60
310.36
289.68
258.99
218.64
170.59
118.34
65.83
15.99
-30.19
-73.77
-116.83
-161.09
-207.10
-254.14
-301.07
-346.99
-391.52
-434.27
-474.22
-509.38
-537.09
-554.81
-560.78
-554.27
-535.56
-505.69
-466.50
-420.75
-372.10
-324.65
-282.04
-246.23
-216.88
-191.42
-166.13
-137.69
-104.48
-67.23
-28.71
7.35
37.85
61.62
80.12
96.89
116.08
140.53
170.31
202.41
