1588981804.00
64.000000
-0.00
-0.00
-0.00
-0.00
-0.00
-0.00
-0.00
-0.00
-0.00
-0.00
0.00
0.01
0.01
-0.00
-0.03
-0.05
-0.05
0.00
0.13
0.36
0.66
1.01
1.37
1.72
2.06
2.40
2.79
3.24
3.80
4.42
5.06
5.66
6.20
6.68
7.15
7.68
8.31
9.14
10.09
11.04
11.88
12.56
13.14
13.76
14.65
15.96
17.91
20.32
22.90
25.38
27.58
29.57
31.68
34.32
37.81
42.54
48.15
54.10
59.83
64.97
69.58
74.14
79.34
85.71
93.76
103.00
112.62
121.73
129.77
136.75
143.30
150.75
157.77
166.64
177.95
191.79
206.97
220.57
228.25
225.36
208.53
176.87
132.76
80.05
23.07
-34.94
-92.44
-149.16
-205.23
-260.37
-313.74
-363.87
-409.83
-450.91
-486.50
-515.74
-537.23
-549.22
-549.96
-538.37
-514.21
-478.67
-433.88
-382.45
-327.02
-269.84
-212.63
-156.66
-102.95
-52.37
-5.90
35.58
71.43
101.35
125.50
144.38
158.69
169.15
176.37
180.75
182.57
182.07
179.51
175.23
169.65
163.18
156.15
148.81
141.30
133.69
126.02
118.33
110.69
103.16
95.80
88.68
81.83
75.25
68.95
62.95
57.25
51.86
46.78
42.03
37.59
33.45
29.61
26.07
22.81
19.83
17.11
14.67
12.48
10.54
8.83
7.35
6.07
4.97
4.05
3.27
2.62
2.09
1.65
1.30
1.01
0.79
0.61
0.47
0.37
0.29
0.24
0.20
0.17
0.16
0.16
0.17
0.20
0.24
0.29
0.32
0.34
0.33
0.28
0.23
0.19
0.18
0.21
0.27
0.34
0.39
0.41
0.40
0.37
0.36
0.41
0.51
0.66
0.81
0.92
0.96
0.94
0.89
0.90
1.04
1.32
1.70
2.08
2.33
2.37
2.23
2.02
1.94
2.13
2.67
3.45
4.22
4.71
4.77
4.41
3.87
3.52
3.66
4.44
5.66
6.94
7.81
7.97
7.39
6.42
5.51
5.02
5.04
5.28
5.21
4.21
1.80
-2.41
-8.60
-16.58
-25.42
-33.44
-38.50
-38.77
-33.58
-24.00
-12.47
-1.97
5.28
8.52
8.49
6.73
4.64
2.97
1.75
0.76
-0.11
-0.69
-0.77
-0.29
0.44
1.00
1.07
0.57
-0.21
-0.79
-0.68
0.26
1.91
3.81
5.40
6.26
6.19
5.33
4.04
2.80
1.94
1.61
1.73
2.03
2.20
1.99
1.31
0.23
-1.00
-2.08
-2.79
-3.02
-2.78
-2.25
-1.70
-1.39
-1.50
-2.07
-2.95
-4.03
-5.21
-6.57
-8.26
-10.44
-13.13
-16.23
-19.55
-22.75
-25.78
-28.87
-32.44
-36.79
-42.08
-48.09
-54.38
-60.32
-65.22
-68.33
-68.89
-66.34
-60.41
-51.35
-39.90
-27.07
-13.88
-1.01
11.20
22.72
33.56
43.62
52.60
60.09
65.81
69.68
71.87
72.65
72.33
71.15
69.33
67.00
64.33
61.52
58.73
56.09
53.55
50.92
48.01
44.70
41.06
37.37
33.92
30.93
28.41
26.17
23.97
21.60
19.01
16.27
13.53
10.97
8.73
6.94
5.73
5.18
5.26
5.80
6.53
7.08
7.19
6.74
5.88
4.94
4.29
4.14
4.46
4.99
5.30
5.07
4.09
2.36
-0.00
-2.78
-5.79
-8.91
-12.11
-15.38
-18.72
-22.05
-25.19
-27.85
-29.74
-30.65
-30.56
-29.62
-28.10
-26.28
-24.39
-22.54
-20.80
-19.13
-17.46
-15.71
-13.84
-11.85
-9.85
-7.99
-6.38
-5.05
-3.92
-2.83
-1.63
-0.24
1.32
2.99
4.71
6.39
7.94
9.20
9.97
10.15
9.81
9.22
8.79
8.82
9.41
10.35
11.22
11.56
11.06
9.73
7.95
6.40
5.88
7.17
10.69
16.44
23.87
31.99
39.62
45.74
49.68
51.34
51.08
49.46
47.01
43.99
40.44
36.24
31.34
25.87
20.12
14.45
9.02
3.75
-1.58
-7.20
-13.08
-18.95
-24.32
-28.71
-31.80
-33.52
-34.07
-33.83
-33.24
-32.64
-32.18
-31.79
-31.26
-30.45
-29.42
-28.39
-27.68
-27.46
-27.67
-28.02
-28.20
-28.03
-27.66
-27.37
-27.45
-27.93
-28.55
-28.89
-28.52
-27.27
-25.23
-22.67
-19.93
-17.22
-14.55
-11.83
-9.01
-6.15
-3.44
-1.07
0.85
2.45
3.89
5.30
6.65
7.67
8.10
7.78
6.75
5.29
3.70
2.26
1.03
0.02
-0.79
-1.42
-1.83
-1.97
-1.78
-1.23
-0.34
0.86
2.32
3.97
5.76
7.66
9.68
11.80
13.94
15.93
17.53
18.58
18.95
18.72
18.08
17.30
16.66
16.38
16.62
17.48
18.96
20.93
23.20
25.47
27.40
28.72
29.28
29.12
28.43
27.47
26.49
25.61
24.83
24.07
23.25
22.33
21.30
20.19
19.08
18.02
17.04
16.13
15.20
14.10
12.58
10.48
7.80
4.70
1.51
-1.49
-4.16
-6.62
-9.18
-12.12
-15.52
-19.19
-22.71
-25.61
-27.61
-28.70
-29.12
-29.19
-29.20
-29.25
-29.27
-29.19
-28.92
-28.52
-28.07
-27.68
-27.33
-26.90
-26.23
-25.19
-23.85
-22.41
-21.09
-20.05
-19.24
-18.51
-17.70
-16.78
-15.88
-15.23
-14.99
-15.15
-15.53
-15.87
-15.95
-15.74
-15.39
-15.10
-15.12
-15.51
-16.18
-16.91
-17.42
-17.54
-17.28
-16.86
-16.62
-16.84
-17.62
-18.79
-20.03
-20.99
-21.54
-21.72
-21.79
-21.98
-22.47
-23.26
-24.25
-25.28
-26.15
-26.66
-26.57
-25.69
-23.94
-21.40
-18.31
-14.98
-11.67
-8.55
-5.68
-3.08
-0.78
1.22
2.95
4.49
5.95
7.43
8.88
10.20
11.25
11.95
12.35
12.64
13.01
13.57
14.23
14.80
15.05
14.89
14.37
13.66
12.97
12.40
11.96
11.53
11.02
10.36
9.59
8.84
8.20
7.75
7.39
6.99
6.35
5.40
4.20
2.94
1.83
0.97
0.27
-0.53
-1.61
-3.00
-4.52
-5.88
-6.92
-7.70
-8.54
-9.75
-11.49
-13.60
-15.65
-17.11
-17.50
-16.57
-14.34
-11.10
-7.31
-3.55
-0.27
2.22
4.00
5.38
6.86
8.87
11.57
14.84
18.21
21.10
22.90
23.19
21.90
19.24
15.72
11.97
8.57
5.93
4.25
3.58
3.93
5.32
7.74
11.16
15.38
20.07
24.85
29.42
33.59
37.40
40.99
44.49
47.98
51.35
54.35
56.63
57.83
57.70
56.21
53.54
50.00
45.93
41.56
36.99
32.18
27.09
21.74
16.24
10.67
5.06
-0.71
-6.85
-13.39
-20.14
-26.53
-31.79
-35.18
-36.27
-35.16
-32.38
-28.71
-24.94
-21.59
-18.88
-16.71
-14.86
-13.11
-11.36
-9.66
-8.22
-7.21
-6.78
-6.93
-7.56
-8.56
-9.78
-11.16
-12.63
-14.06
-15.26
-15.99
-16.11
-15.60
-14.66
-13.56
-12.56
-11.80
-11.27
-10.90
-10.63
-10.44
-10.37
-10.42
-10.47
-10.32
-9.75
-8.61
-6.98
-5.14
-3.51
-2.53
-2.46
-3.31
-4.77
-6.35
-7.53
-8.03
-7.87
-7.32
-6.78
-6.53
-6.72
-7.35
-8.38
-9.84
-11.78
-14.18
-16.84
-19.42
-21.50
-22.83
-23.37
-23.39
-23.21
-23.20
-23.56
-24.28
-25.16
-25.83
-25.92
-25.15
-23.58
-21.52
-19.53
-18.09
-17.44
-17.43
-17.63
-17.56
-16.90
-15.65
-13.99
-12.21
-10.52
-8.98
-7.60
-6.42
-5.57
-5.20
-5.42
-6.13
-7.08
-7.86
-8.10
-7.67
-6.69
-5.53
-4.59
-4.14
-4.18
-4.48
-4.77
-4.85
-4.75
-4.65
-4.81
-5.37
-6.30
-7.41
-8.43
-9.09
-9.18
-8.67
-7.61
-6.15
-4.44
-2.62
-0.76
1.09
2.90
4.67
6.35
7.91
9.26
10.37
11.17
11.67
11.89
11.85
11.63
11.34
11.09
10.95
11.00
11.21
11.48
11.69
11.71
11.51
11.13
10.69
10.26
9.85
9.38
8.75
7.97
7.11
6.35
5.78
5.35
4.87
4.15
3.11
1.84
0.60
-0.37
-0.97
-1.32
-1.66
-2.24
-3.24
-4.71
-6.59
-8.75
-11.00
-13.14
-15.00
-16.42
-17.26
-17.47
-17.02
-15.93
-14.26
-12.12
-9.70
-7.24
-4.95
-2.96
-1.26
0.28
1.78
3.29
4.73
5.93
6.79
7.31
7.66
8.09
8.80
9.84
11.05
12.19
13.01
13.44
13.55
13.50
13.42
13.34
13.14
12.71
11.92
10.79
9.48
8.21
7.17
6.40
5.83
5.25
4.45
3.29
1.79
0.15
-1.36
-2.51
-3.23
-3.63
-3.99
-4.63
-5.72
-7.32
-9.29
-11.44
-13.63
-15.78
-17.85
-19.73
-21.14
-21.73
-21.23
-19.57
-17.02
-14.04
-11.15
-8.69
-6.74
-5.08
-3.38
-1.43
0.84
3.24
5.51
7.45
8.96
10.10
11.02
11.85
12.64
13.39
14.09
14.72
15.33
15.98
16.70
17.49
18.31
19.07
19.64
19.86
19.63
18.96
18.01
17.01
16.17
15.55
15.02
14.39
13.49
12.27
10.89
9.53
8.31
7.23
6.17
5.00
3.63
2.07
0.39
-1.31
-2.95
-4.48
-5.93
-7.39
-9.01
-10.89
-12.96
-14.98
-16.54
-17.26
-16.93
-15.62
-13.60
-11.26
-8.89
-6.62
-4.42
-2.17
0.23
2.80
5.53
8.39
11.31
14.24
17.06
19.59
21.61
22.93
23.46
23.34
22.89
22.58
22.79
23.67
25.07
26.54
27.55
27.75
27.04
25.59
23.76
21.91
20.29
18.99
17.97
17.09
16.21
15.25
14.18
13.07
12.03
11.09
10.18
9.11
7.64
5.60
2.89
-0.42
-4.21
-8.27
-12.34
-16.10
-19.26
-21.65
-23.37
-24.72
-26.18
-28.11
-30.58
-33.31
-35.75
-37.29
-37.53
-36.31
-33.81
-30.48
-26.82
-23.31
-20.24
-17.61
-15.25
-12.87
-10.28
-7.47
-4.50
-1.48
1.53
4.54
7.51
10.27
12.58
14.21
15.13
15.58
15.96
16.64
17.78
19.26
20.82
22.22
23.38
24.45
25.54
26.66
27.58
27.93
27.46
26.13
24.26
22.32
20.80
19.93
19.71
19.95
20.43
21.03
21.73
22.48
23.01
22.85
21.44
18.37
13.58
7.36
0.30
-7.00
-14.10
-20.83
-27.25
-33.52
-39.73
-45.79
-51.49
-56.44
-60.28
-62.69
-63.43
-62.44
-59.80
-55.69
-50.41
-44.34
-37.93
-31.65
-25.90
-20.98
-16.97
-13.83
-11.43
-9.64
-8.34
-7.39
-6.69
-6.08
-5.48
-4.90
-4.51
-4.55
-5.25
-6.73
-8.87
-11.38
-13.89
-16.08
-17.77
-18.99
-19.95
-20.87
-21.97
-23.33
-24.97
-26.86
-28.85
-30.69
-31.96
-32.24
-31.27
-29.21
-26.74
-24.91
-24.79
-27.05
-31.70
-38.06
-45.05
-51.43
-56.24
-58.94
-59.40
-57.85
-54.70
-50.47
-45.64
-40.59
-35.50
-30.38
-25.02
-19.11
-12.49
-5.32
1.84
8.20
12.90
15.46
15.99
15.14
13.90
13.11
13.25
14.25
15.73
17.19
18.36
19.21
19.94
20.77
21.76
22.71
23.25
23.09
22.21
21.04
20.28
20.67
22.62
25.99
29.96
33.36
34.94
33.82
29.89
24.03
17.79
13.03
11.17
12.67
16.84
21.92
25.38
24.23
15.60
-2.49
-30.03
-64.32
-99.91
-129.87
-147.92
-150.44
-137.69
-113.19
-81.82
-47.73
-13.30
20.34
52.01
79.43
99.51
109.75
109.68
101.28
88.03
73.19
58.63
45.18
33.64
25.96
25.13
33.72
51.91
76.52
101.66
120.97
130.03
127.66
115.81
98.05
78.01
58.21
39.89
23.46
8.98
-3.45
-13.58
-21.22
-26.44
-29.69
-31.89
-34.17
-37.38
-41.64
-46.11
-49.23
-49.29
-45.24
-37.29
-27.05
-17.05
-9.95
-7.54
-10.20
-16.68
-24.50
-30.69
-32.52
-28.25
-17.68
-2.18
15.39
31.24
41.43
43.05
35.42
20.88
4.56
-7.09
-8.46
2.96
25.79
55.35
85.64
111.51
130.00
140.28
142.49
136.47
121.17
95.20
58.01
10.88
-42.74
-97.97
-149.73
-193.96
-228.19
-251.49
-263.91
-265.77
-257.48
-239.73
-214.05
-183.21
-151.01
-121.51
-97.89
-81.66
-72.36
-68.22
-66.98
-66.80
-66.59
-65.93
-64.70
-62.82
-60.40
-57.99
-56.84
-58.62
-64.67
-75.22
-88.93
-103.18
-114.87
-121.29
-120.73
-112.57
-97.04
-75.10
-48.21
-18.35
12.35
42.33
71.32
100.59
131.85
165.40
198.66
226.24
241.87
241.12
223.79
194.22
159.86
128.36
105.09
91.93
87.65
89.36
94.03
99.41
104.17
107.61
109.34
109.21
107.46
104.84
102.59
101.92
103.61
107.18
111.08
113.44
113.17
110.76
107.76
105.67
104.46
102.17
95.97
84.06
67.36
49.46
35.02
27.24
26.14
28.50
29.72
26.21
17.31
5.26
-6.11
-13.44
-15.31
-12.26
-5.92
2.39
12.32
24.22
38.18
53.10
66.57
75.65
78.21
74.06
65.01
54.00
43.67
35.25
28.32
21.86
15.03
7.94
1.56
-2.93
-5.03
-5.52
-6.00
-8.19
-12.69
-18.87
-25.18
-30.05
-32.68
-33.42
-33.67
-35.14
-39.09
-45.15
-51.96
-57.77
-61.08
-61.00
-57.26
-50.22
-40.47
-28.87
-15.07
0.77
17.67
34.15
49.19
62.56
74.22
84.36
92.56
101.02
111.34
123.88
137.79
151.94
165.30
176.07
183.00
184.63
184.74
186.84
192.79
202.61
216.50
235.92
261.93
295.70
335.47
382.32
433.38
481.76
518.83
539.04
542.43
532.35
515.50
460.08
353.45
207.48
53.67
-78.65
-176.01
-232.93
-265.18
-285.21
-301.71
-314.28
-322.24
-325.32
-325.99
-327.17
-330.66
-338.36
-350.01
-365.99
-382.38
-396.66
-408.78
-420.91
-434.59
-448.88
-461.79
-469.77
-471.36
-465.20
-453.41
-441.29
-435.46
-440.55
-457.03
-481.81
-508.43
-530.35
-541.09
-536.96
-517.52
-484.87
-441.99
-391.52
-336.09
-278.23
-221.28
-168.19
-120.93
-79.43
-41.47
-3.51
37.72
83.42
132.51
182.02
228.53
269.54
303.98
332.01
354.38
371.77
384.47
392.26
394.53
390.47
379.37
361.07
336.34
306.78
274.60
242.17
211.53
184.25
161.49
144.07
132.59
127.26
127.96
134.04
144.43
157.70
172.32
186.92
200.53
212.62
222.96
231.16
236.14
235.88
227.83
209.88
181.71
145.65
106.49
70.17
41.89
24.42
17.59
18.93
25.20
33.76
43.29
53.65
65.11
77.61
90.43
102.46
112.53
119.92
124.46
126.52
126.90
126.60
126.62
127.67
129.79
131.90
131.82
126.51
112.94
89.05
54.54
11.25
-37.22
-86.21
-131.09
-167.98
-194.52
-210.25
-216.20
-214.66
-208.01
-197.63
-183.14
-162.67
-134.32
-97.64
-54.74
-9.86
32.05
67.03
93.10
110.21
119.40
122.01
119.39
113.13
105.23
97.88
92.69
90.09
89.17
88.33
86.14
82.02
76.31
69.80
63.29
57.44
52.80
49.59
47.94
47.67
48.35
49.42
50.46
51.34
52.30
53.75
56.09
59.50
63.82
68.62
73.30
77.31
80.31
82.22
83.15
83.28
82.77
81.59
79.55
76.38
71.87
66.00
59.01
51.34
43.50
35.86
28.49
21.15
13.38
4.75
-4.92
-15.39
-26.11
-36.43
-45.99
-54.95
-64.02
-74.25
-86.55
-101.28
-118.04
-135.82
-153.46
-170.20
-186.16
-202.32
-220.13
-240.81
-264.76
-291.24
-318.85
-345.94
-371.55
-395.72
-419.45
-444.45
-472.83
-506.88
-548.57
-598.50
-654.59
-711.25
-760.02
-791.88
-800.34
-783.89
-746.57
-696.19
-641.07
-587.13
-536.72
-489.46
-444.17
-400.37
-358.51
-319.27
-282.75
-248.04
-213.75
-178.97
-143.92
-110.14
-79.80
-54.58
-34.95
-20.24
-8.86
1.07
11.10
21.89
32.84
42.99
51.82
59.73
67.16
74.78
83.24
92.93
103.67
113.94
122.44
128.74
133.69
137.57
140.59
143.00
145.23
147.57
148.73
148.05
145.98
144.55
144.14
144.59
145.57
147.07
149.04
149.46
147.14
142.14
136.50
130.18
122.60
113.45
103.24
104.22
119.77
144.39
161.01
168.63
169.85
168.68
167.17
167.15
170.14
175.09
180.98
187.40
195.38
203.84
211.42
217.46
222.52
227.93
234.01
241.86
253.09
269.45
288.97
306.91
317.24
314.96
297.78
266.40
225.33
181.47
141.94
110.45
87.48
71.60
61.03
54.54
51.08
49.90
50.13
50.68
49.79
46.02
39.05
30.11
21.47
15.35
13.10
14.62
18.24
21.14
20.62
15.33
5.97
-5.04
-14.45
-19.44
-18.61
-12.26
-2.11
9.43
20.06
28.11
32.83
34.39
33.58
31.55
29.41
27.97
27.54
27.80
27.92
26.80
23.63
18.32
11.77
5.68
1.88
1.70
5.47
12.61
22.08
32.97
44.79
57.27
70.14
82.69
94.01
103.23
110.00
114.65
117.94
120.68
123.33
125.88
128.03
129.50
130.28
130.72
131.46
133.33
137.26
144.06
154.33
168.08
184.55
202.19
218.85
232.29
240.59
242.42
237.17
224.79
205.76
181.02
151.87
119.76
85.99
51.40
16.33
-19.24
-55.38
-91.94
-128.56
-164.83
-200.46
-235.36
-269.57
-303.17
-336.23
-368.70
-400.12
-429.35
-454.30
-472.12
-479.78
-475.14
-457.73
-429.20
-392.95
-353.24
-314.16
-278.66
-248.17
-222.61
-200.95
-181.85
-164.38
-148.28
-133.64
-120.17
-106.47
-89.91
-67.39
-36.74
1.93
45.91
90.52
130.86
163.20
185.62
197.29
197.59
185.95
163.13
133.33
104.99
88.72
92.60
117.46
155.05
191.37
213.27
215.07
201.06
182.51
171.00
172.22
183.81
197.87
206.18
204.51
193.78
177.98
160.96
144.12
126.17
104.48
76.71
41.80
0.15
-46.97
-97.90
-150.80
-203.19
-251.28
-289.99
-313.89
-319.14
-305.68
-278.42
-246.33
-219.50
-205.12
-204.52
-212.81
-221.35
-222.00
-210.64
-188.35
-159.83
-130.45
-103.70
-80.54
-60.43
-43.02
-28.72
-18.03
-10.33
-2.81
8.73
27.66
54.63
86.53
117.96
143.68
161.27
172.31
181.97
197.03
223.30
263.07
313.36
366.12
410.17
434.62
432.56
403.23
351.81
286.89
216.99
147.90
81.97
19.40
-39.62
-93.22
-137.76
-169.43
-186.16
-188.72
-180.86
-167.83
-154.45
-143.54
-135.19
-127.60
-118.48
-106.38
-91.04
-73.08
-53.17
-31.91
-10.25
9.79
24.80
30.79
24.54
4.70
-28.09
-71.69
-123.31
-179.81
-237.38
-291.07
-334.96
-363.21
-371.49
-358.33
-325.44
-277.07
-218.84
-156.55
-95.18
-38.49
10.86
50.64
78.39
91.13
86.03
61.98
21.35
-29.31
-80.54
-122.95
-150.51
-162.33
-162.14
-155.44
-146.23
-135.02
-119.16
-94.72
-58.76
-10.76
46.98
109.61
170.35
221.27
254.82
266.14
255.35
228.70
197.10
172.14
161.23
164.79
176.70
188.17
192.50
187.82
176.50
161.99
145.53
125.19
97.85
62.30
21.44
-18.12
-49.18
-67.48
-73.63
-72.42
-70.07
-70.95
-75.91
-82.31
-85.65
-81.59
-67.45
-42.57
-7.63
36.25
87.51
143.52
199.70
249.58
285.95
303.37
300.21
279.36
247.05
210.36
174.84
143.35
116.35
92.99
72.11
52.52
32.66
10.63
-15.39
-46.02
-79.78
-112.96
-140.91
-159.59
-167.34
-165.59
-158.17
-149.55
-142.82
-138.50
-134.71
-128.69
-118.54
-104.52
-88.92
-74.85
-64.76
-59.39
-57.78
-58.11
-58.80
-59.22
-59.87
-61.87
-66.26
-73.52
-83.77
-96.96
-113.33
-133.08
-155.59
-178.52
-197.72
-208.17
-205.92
-189.75
-161.55
-125.20
-84.47
-41.44
3.58
50.72
98.77
144.31
182.44
208.79
221.39
221.43
212.35
197.96
180.66
160.82
137.36
109.21
76.85
42.81
11.10
-14.38
-31.79
-42.33
-49.91
-59.35
-73.92
-93.67
-115.44
-134.47
-146.89
-151.64
-150.71
-147.74
-145.82
-145.77
-145.80
-142.73
-133.69
-117.52
-95.28
-69.86
-45.27
-25.83
-15.47
-16.79
-30.22
-53.20
-80.30
-104.26
-117.84
-115.57
-95.03
-57.39
-7.43
46.87
95.52
128.49
138.64
124.34
90.66
48.17
9.41
-15.25
-20.71
-7.57
19.38
53.80
90.00
123.34
150.49
168.96
177.36
176.10
167.91
157.32
149.41
148.15
155.07
168.78
185.26
198.85
203.60
194.97
171.44
135.34
92.58
50.87
17.30
-3.97
-12.65
-11.57
-4.86
3.99
12.95
20.98
26.84
28.32
22.16
5.23
-24.12
-65.59
-116.58
-172.54
-227.69
-275.97
-311.84
-331.37
-332.96
-317.58
-288.53
-250.61
-209.10
-168.93
-134.05
-107.29
-90.44
-84.42
-89.29
-104.23
-127.21
-154.92
-182.88
-205.98
-219.55
-220.40
-207.67
-182.90
-149.38
-110.83
-70.30
-29.28
12.62
57.21
106.80
162.58
223.19
283.87
337.00
373.90
387.53
374.97
338.76
286.65
229.59
179.00
143.86
128.96
134.37
156.22
188.42
224.52
259.21
289.02
312.33
328.70
338.25
341.18
337.65
327.70
311.25
288.25
258.91
224.29
186.68
149.76
118.10
96.13
86.79
90.46
104.50
123.76
141.93
153.25
154.09
143.61
123.43
96.68
66.58
35.79
6.38
-19.64
-39.96
-52.50
-56.48
-53.56
-47.91
-44.99
-49.49
-63.51
-86.11
-114.35
-145.13
-176.54
-208.06
-239.48
-269.80
-296.68
-317.17
-329.23
-332.92
-330.57
-325.49
-320.49
-316.59
-313.22
-309.40
-305.21
-302.20
-302.33
-306.05
-310.87
-311.93
-304.50
-287.03
-262.74
-238.36
-220.59
-212.39
-211.32
-211.23
-205.99
-193.09
-174.61
-155.44
-139.49
-127.03
-114.26
-95.63
-66.99
-27.62
19.91
71.96
125.88
180.57
235.19
287.11
331.10
360.45
369.83
357.72
327.13
283.70
232.83
177.48
118.18
54.92
-10.61
-74.17
-130.09
-173.77
-203.51
-220.81
-228.82
-230.35
-226.63
-217.59
-202.92
-183.23
-160.29
-136.36
-112.96
-90.10
-66.44
-40.25
-10.43
22.85
58.27
94.16
129.20
162.91
195.47
226.96
256.72
282.90
302.67
312.87
311.08
296.52
270.46
236.37
199.28
164.62
136.80
117.85
106.80
100.36
94.22
85.06
72.17
58.03
47.59
46.24
57.79
83.03
119.97
165.00
214.13
263.75
310.14
348.82
374.61
383.50
375.30
355.52
333.63
318.35
312.86
312.94
309.22
292.32
258.13
209.83
156.62
107.98
68.14
34.93
3.31
-29.95
-63.88
-94.06
-116.03
-126.68
-126.97
-122.59
-121.82
-131.45
-154.23
-188.81
-230.47
-272.48
-304.22
-314.04
-294.37
-245.07
-173.44
-92.04
-15.00
46.61
77.43
71.63
41.08
7.70
-14.19
-24.18
-28.93
-33.87
-39.54
-44.99
-47.88
-47.75
-48.22
-55.52
-74.42
-106.04
-148.78
-188.40
-215.79
-226.16
-220.36
-203.98
-184.36
-166.99
-153.80
-143.80
-134.46
-125.16
-114.98
-103.46
-91.34
-80.39
-72.14
-66.99
-64.23
-62.32
-61.09
-59.80
-57.46
-53.64
-48.70
-43.59
-39.40
-37.05
-36.72
-38.97
-43.19
-47.94
-51.91
-54.50
-56.16
-58.03
-61.41
-66.85
-75.08
-86.03
-98.68
-110.84
-118.94
-118.79
-106.93
-83.92
-51.11
-13.85
21.33
49.36
68.48
80.08
87.13
92.12
95.76
97.73
97.35
95.29
93.50
94.24
98.74
106.57
115.92
123.95
127.19
121.92
105.33
76.88
39.74
0.50
-32.75
-53.56
-60.15
-55.95
-47.82
-42.66
-44.39
-52.72
-64.58
-77.08
-87.61
-95.60
-102.27
-108.30
-113.14
-115.52
-114.28
-109.28
-101.53
-92.38
-83.04
-73.71
-63.27
-49.53
-32.04
-10.52
14.32
41.28
69.56
99.40
132.72
172.60
221.36
277.98
336.74
387.28
417.88
419.26
387.30
324.14
237.39
137.89
37.27
-53.84
-127.77
-180.14
-210.56
-222.79
-224.38
-223.70
-227.42
-237.62
-250.49
-262.91
-273.15
-280.34
-284.27
-284.30
-279.49
-269.23
-253.78
-234.64
-214.39
-195.34
-178.58
-163.82
-149.66
-134.21
-116.01
-94.67
-71.23
-48.02
-27.27
-10.10
3.80
16.16
29.43
45.80
66.28
90.25
115.71
140.42
162.83
182.63
200.71
218.66
238.48
262.25
291.65
327.20
367.08
406.30
436.84
449.69
438.06
400.33
341.19
270.08
197.65
132.19
77.70
34.22
-0.13
-27.10
-47.31
-60.68
-67.37
-68.50
-65.92
-61.37
-55.83
-49.28
-40.94
-30.15
-17.05
-2.97
9.89
19.31
24.10
24.79
23.38
22.29
22.93
24.65
25.05
21.32
11.92
-2.39
-19.00
-34.72
-47.44
-56.79
-63.70
-69.28
-73.75
-76.27
-75.60
-71.09
-63.28
-53.83
-44.68
-37.26
-31.94
-28.21
-25.29
-22.83
-21.46
-22.73
-28.52
-40.20
-57.72
-79.22
-101.50
-121.11
-135.73
-145.20
-151.69
-158.81
-169.86
-185.96
-205.06
-222.29
-231.42
-227.11
-206.72
-171.25
-125.09
-74.78
-27.39
11.31
38.30
54.07
62.50
69.39
80.50
99.51
126.75
159.31
192.54
222.04
245.29
262.29
275.01
286.07
297.29
308.61
317.93
321.77
316.61
300.10
271.98
233.99
188.84
138.99
85.66
28.54
-33.61
-101.76
-175.06
-249.80
-319.45
-376.16
-413.18
-427.36
-420.46
-398.48
-369.28
-339.59
-313.02
-289.95
-269.13
-249.54
-231.51
-216.15
-203.92
-193.42
-181.34
-163.53
-136.61
-99.01
-51.28
3.89
62.22
118.34
166.61
202.42
223.49
230.71
227.80
219.98
211.86
206.02
202.54
199.70
195.31
187.62
175.73
159.58
139.85
117.75
94.92
72.61
50.78
27.59
-0.17
-35.80
-81.10
-135.19
-194.17
-251.59
-299.78
-331.51
-341.49
-327.72
-291.86
-238.81
-175.21
-107.48
-40.02
25.60
90.11
155.11
221.23
286.94
348.29
399.72
435.52
451.57
446.64
423.06
386.12
342.38
297.88
256.93
221.82
193.55
172.82
160.29
156.11
159.02
165.79
171.92
173.16
167.25
154.92
139.41
124.55
112.66
103.16
92.67
76.54
50.79
13.73
-33.40
-86.89
-141.49
-191.88
-233.89
-265.47
-287.06
-301.03
-310.57
-318.11
-324.33
-327.96
-326.67
-318.39
-302.44
-279.62
-251.60
-219.85
-185.04
-147.28
-106.79
-64.51
-22.20
18.06
54.71
87.32
116.70
144.35
171.42
197.92
222.41
242.43
255.51
260.26
257.02
247.66
234.89
221.17
208.12
196.45
186.33
178.00
171.89
168.47
167.87
169.70
173.17
177.49
182.12
186.90
192.08
198.14
205.52
214.35
224.06
233.11
239.09
239.24
231.32
214.31
188.76
156.51
119.91
81.04
41.41
2.06
-35.97
-71.31
-102.36
-127.76
-146.95
-160.42
-169.66
-176.76
-183.83
-192.57
-203.89
-217.95
-234.37
-252.67
-272.52
-293.94
-316.91
-340.78
-363.90
-383.64
-396.95
-401.41
-396.02
-381.49
-359.93
-334.06
-306.49
-279.06
-252.66
-227.17
-201.76
-175.37
-147.29
-117.76
-88.07
-60.32
-36.66
-18.57
-6.23
1.41
6.21
10.22
15.15
21.98
30.92
41.45
52.52
63.03
72.24
80.12
87.39
95.11
103.99
113.82
123.35
130.76
134.51
134.01
129.94
123.79
117.08
110.69
104.55
97.88
89.68
79.18
66.09
50.67
33.48
15.05
-4.31
-24.66
-46.30
-69.45
-93.72
-117.95
-140.20
-158.37
-170.91
-177.29
-178.00
-174.18
-167.45
-160.23
-156.07
-159.35
-173.60
-199.14
-231.34
-261.04
-277.37
-271.91
-241.99
-191.19
-126.83
-56.12
16.55
89.63
162.10
230.79
289.45
330.59
348.76
343.30
318.79
283.09
244.18
207.60
175.55
147.77
123.28
101.74
83.72
69.98
60.54
54.04
47.92
39.14
25.19
4.82
-21.52
-52.04
-84.23
-115.58
-143.96
-167.61
-184.76
-193.47
-192.04
-179.84
-158.39
-131.62
-105.17
-84.68
-73.82
-73.08
-79.56
-88.22
-93.47
-90.74
-77.42
-53.15
-19.62
19.86
60.94
98.99
130.05
151.67
163.36
166.61
164.14
158.98
153.52
149.02
145.59
142.54
138.89
133.77
126.70
117.58
106.61
94.16
80.75
67.02
53.71
41.65
31.56
23.92
18.98
16.71
16.97
19.60
24.41
31.14
39.23
47.91
56.23
63.37
68.94
73.14
76.59
80.11
84.17
88.76
93.42
97.50
100.56
102.56
103.72
104.31
104.38
103.54
101.02
95.68
86.20
71.31
50.18
22.82
-9.54
-44.58
-79.39
-111.36
-138.85
-161.53
-180.03
-195.26
-207.77
-217.50
-223.84
-226.02
-223.44
-215.82
-203.26
-186.19
-165.29
-141.64
-116.55
-91.57
-68.20
-47.67
-30.79
-17.79
-8.41
-2.00
2.24
5.07
7.04
8.44
9.27
9.43
8.89
7.72
6.25
4.87
3.90
3.43
3.27
3.07
2.43
1.15
-0.76
-3.10
-5.61
-8.09
-10.52
-12.99
-15.63
-18.58
-21.81
-25.20
-28.49
-31.41
-33.80
-35.72
-37.44
-39.34
-41.66
-44.28
-46.54
-47.51
-46.32
-42.53
-36.41
-28.84
-21.02
-14.05
-8.60
-4.70
-1.78
1.19
5.61
12.87
23.95
38.91
56.61
74.76
90.79
102.62
109.46
111.98
111.75
110.19
107.71
103.41
95.84
84.30
69.33
52.70
36.75
23.36
13.27
5.94
0.26
-4.69
-8.56
-10.50
-9.74
-6.03
0.32
8.56
17.61
26.12
32.64
36.84
38.75
39.09
39.24
40.96
45.85
54.70
67.57
84.11
104.81
129.10
154.66
177.32
192.28
196.03
187.80
170.36
142.08
105.97
67.43
32.26
4.14
-16.17
-29.70
-38.16
-42.73
-44.03
-41.65
-35.97
-28.57
-21.79
-18.13
-19.20
-25.51
-37.20
-53.40
-72.20
-92.27
-113.57
-137.04
-163.84
-191.50
-219.04
-246.23
-272.89
-297.48
-316.88
-326.43
-321.13
-298.10
-258.64
-209.34
-159.58
-117.99
-89.20
-72.93
-65.47
-61.97
-59.45
-56.72
-54.52
-53.46
-53.07
-52.07
-49.38
-45.18
-40.54
-37.23
-36.79
-39.95
-46.06
-53.55
-60.73
-66.61
-71.33
-75.45
-79.98
-85.54
-92.09
-98.62
-103.52
-105.06
-101.75
-95.73
-88.31
-80.56
-73.00
-65.52
-57.50
-48.28
-37.62
-25.87
-13.99
-2.56
8.09
18.24
28.73
40.57
54.43
70.22
87.09
103.76
119.38
133.64
146.91
160.15
174.60
191.45
211.56
235.00
260.54
285.54
305.86
316.87
314.90
298.62
269.65
231.99
190.63
150.03
113.16
81.38
55.05
34.47
20.28
13.33
13.99
21.50
33.73
47.66
60.21
69.16
73.97
75.72
76.44
78.13
81.83
87.32
93.37
98.48
101.45
101.76
99.49
95.07
88.98
81.51
72.60
61.86
48.78
33.06
14.88
-4.89
-24.87
-43.56
-59.64
-72.28
-80.95
-85.20
-84.38
-77.86
-65.42
-47.80
-26.86
-5.34
13.95
29.10
39.63
46.52
51.52
56.22
61.29
66.26
69.93
71.02
68.80
63.37
55.48
46.09
35.97
25.56
14.98
4.22
-6.63
-17.32
-27.40
-36.26
-43.19
-47.51
-48.64
-46.29
-40.49
-31.54
-19.91
-6.17
9.18
25.67
42.89
60.47
78.07
95.44
112.39
128.71
144.08
157.92
169.54
178.15
183.19
184.66
183.34
180.83
179.17
180.32
185.51
194.71
206.45
218.12
226.54
228.86
223.20
209.06
187.25
159.47
127.84
94.45
61.11
29.30
0.09
-26.01
-49.15
-70.30
-91.04
-113.08
-137.57
-164.69
-193.59
-222.81
-250.89
-277.03
-301.32
-324.88
-349.75
-378.50
-413.46
-455.27
-501.41
-545.54
-578.38
-590.32
-574.95
-531.82
-467.09
-391.71
-317.98
-256.21
-212.82
-190.46
-188.95
-206.23
-238.21
-278.30
-317.44
-345.53
-354.23
-339.69
-303.74
-253.14
-196.66
-141.64
-91.70
-46.72
-4.48
36.86
77.39
115.65
149.83
178.78
202.08
219.21
228.80
228.96
218.55
198.84
173.89
149.40
130.20
118.06
110.92
104.19
93.15
75.27
51.19
24.16
-1.39
-21.28
-32.60
-33.97
-25.29
-7.47
17.89
48.47
81.28
112.54
138.33
155.15
160.90
155.60
141.50
122.32
102.15
84.17
70.13
60.53
55.43
55.38
61.71
76.08
99.22
129.57
162.60
191.29
207.86
206.09
183.50
142.42
89.40
33.27
-17.53
-57.21
-83.88
-99.29
-107.46
-112.80
-118.61
-126.18
-134.67
-141.56
-143.23
-135.84
-116.40
-84.01
-41.12
6.11
48.72
77.45
86.01
73.73
46.43
14.63
-10.11
-19.43
-10.90
11.67
40.31
66.33
83.36
88.99
84.54
73.46
59.69
46.33
35.35
27.70
23.76
23.52
26.58
31.96
38.20
43.57
46.57
46.27
42.47
35.52
25.96
14.24
0.67
-14.49
-30.85
-47.91
-65.13
-82.17
-99.00
-115.92
-133.32
-151.46
-170.25
-189.02
-206.38
-220.22
-227.95
-227.09
-216.00
-194.63
-164.57
-128.70
-90.14
-51.16
-12.36
27.19
68.95
113.19
157.72
197.69
227.00
240.62
236.83
218.05
189.77
158.26
128.12
101.23
77.23
55.18
34.99
17.89
5.73
-0.19
-0.00
4.82
12.07
19.70
26.29
31.17
34.18
35.21
34.05
30.33
23.86
15.02
4.93
-4.58
-11.44
-13.97
-11.30
-3.42
9.04
25.07
43.28
61.66
77.46
87.48
88.98
80.80
64.19
42.68
21.08
3.82
-6.44
-9.32
-6.41
-0.27
6.57
12.02
14.52
12.82
5.95
-6.43
-23.48
-42.87
-60.93
-73.46
-76.89
-69.42
-51.55
-25.93
3.45
32.34
57.24
76.12
88.63
95.84
99.59
101.71
103.36
104.66
104.78
102.45
96.77
87.87
77.22
67.34
60.98
60.13
65.25
75.05
87.02
98.27
106.50
110.53
110.31
106.40
99.24
88.63
73.55
52.68
25.16
-8.62
-46.49
-84.74
-118.97
-145.32
-161.58
-167.65
-165.25
-156.83
-144.48
-129.39
-112.05
-93.07
-73.86
-56.71
-44.01
-37.13
-35.60
-37.10
-38.50
-37.30
-32.77
-26.12
-19.67
-15.69
-15.26
-17.90
-21.85
-24.76
-24.26
-18.51
-6.41
12.22
36.32
63.50
90.09
111.79
124.51
125.50
114.07
91.93
62.95
32.25
5.09
-14.52
-24.89
-27.09
-24.69
-22.52
-25.10
-35.08
-52.49
-74.98
-99.00
-121.34
-140.29
-156.03
-170.04
-183.99
-198.48
-212.32
-222.41
-224.67
-215.35
-192.72
-158.32
-117.38
-78.10
-49.52
-38.75
-48.28
-74.74
-109.57
-141.83
-161.93
-164.71
-150.63
-124.40
-92.12
-58.31
-24.27
11.55
51.75
97.70
147.97
198.22
242.41
274.74
291.53
292.22
279.29
257.15
230.61
203.57
178.40
156.07
136.72
120.23
106.28
94.10
82.22
68.74
52.05
31.79
9.33
-12.47
-30.33
-41.73
-45.96
-44.20
-39.02
-33.26
-28.96
-26.76
-25.79
-24.16
-19.81
-11.40
1.04
15.94
30.51
41.63
46.93
45.59
38.75
29.02
19.66
13.62
12.83
18.06
29.10
45.05
64.61
85.98
106.75
124.00
134.65
136.23
127.69
109.97
85.95
59.82
35.77
16.70
3.42
-5.34
-12.13
-19.50
-29.00
-40.81
-54.08
-67.52
-80.03
-90.77
-99.00
-103.80
-104.19
-99.69
-91.06
-80.66
-72.04
-68.74
-72.88
-84.02
-98.97
-112.55
-119.21
-114.65
-97.26
-68.81
-34.21
-0.46
25.19
37.35
34.24
18.35
-4.31
-26.22
-40.74
-43.98
-35.43
-17.23
7.19
34.47
61.93
87.58
109.78
127.04
138.17
142.69
141.03
134.36
124.17
111.80
98.18
83.82
69.14
54.64
40.88
28.40
17.49
8.12
-0.02
-7.35
-14.31
-21.41
-29.20
-38.18
-48.50
-59.70
-70.63
-79.70
-85.39
-86.80
-84.07
-78.27
-71.03
-63.94
-58.13
-54.01
-51.41
-49.79
-48.40
-46.26
-42.14
-34.61
-22.34
-4.77
17.18
40.79
61.85
75.75
78.98
70.38
51.71
27.05
1.55
-19.96
-33.88
-38.18
-32.27
-16.92
5.65
31.68
56.24
74.18
81.55
76.86
61.62
39.81
16.47
-3.86
-18.34
-26.13
-27.97
-25.27
-19.37
-11.06
-0.61
11.94
26.26
41.42
55.74
66.92
72.38
69.84
57.99
37.29
10.26
-18.65
-44.18
-61.96
-70.10
-70.00
-65.74
-62.28
-63.21
-69.36
-78.64
-87.27
-91.60
-89.61
-81.34
-68.48
-53.43
-38.42
-24.95
-13.59
-3.83
5.78
17.24
32.44
52.23
75.72
100.15
121.43
135.24
138.08
128.16
105.64
72.51
32.11
-11.55
-54.39
-92.86
-124.16
-146.34
-158.03
-158.28
-146.67
-123.94
-92.65
-57.44
-24.52
-0.12
11.39
9.03
-4.38
-23.20
-40.77
-51.42
-51.81
-41.39
-22.00
2.82
28.73
51.39
67.31
74.60
73.28
64.97
51.95
36.04
17.85
-3.04
-27.10
-53.59
-79.68
-100.54
-110.58
-105.21
-82.69
-45.05
1.82
49.49
89.04
113.47
119.83
110.23
91.48
73.09
64.45
71.60
95.01
129.03
163.66
188.10
194.95
183.27
159.23
133.85
118.73
121.53
143.10
177.51
214.60
243.71
257.15
251.69
228.34
190.71
143.17
89.48
32.25
-26.70
-85.57
-141.82
-191.98
-232.33
-260.00
-274.03
-275.85
-268.67
-256.23
-241.55
-226.21
-210.71
-195.19
-180.17
-166.41
-154.17
-142.31
-128.03
-107.99
-80.28
-46.41
-11.95
14.93
26.45
18.66
-6.54
-42.01
-78.11
-106.49
-122.78
-127.09
-122.37
-111.90
-97.52
-79.49
-57.69
-33.15
-8.64
12.05
25.83
32.09
33.46
35.19
43.36
62.42
93.07
131.35
169.31
197.33
207.29
195.35
163.30
117.82
68.10
22.92
-11.57
-32.48
-39.50
-33.71
-16.75
9.16
40.80
73.81
103.29
124.93
135.89
135.16
123.00
100.31
68.33
28.90
-15.05
-59.45
-99.64
-131.49
-152.31
-161.15
-158.35
-144.77
-121.44
-89.86
-52.86
-15.26
16.45
35.59
37.52
21.59
-8.18
-44.02
-76.74
-98.56
-105.09
-96.13
-75.08
-47.41
-19.12
4.49
19.58
24.13
18.19
3.99
-14.21
-30.76
-39.92
-37.39
-21.94
3.87
34.13
61.28
78.44
81.57
70.40
48.03
19.58
-9.60
-34.98
-53.46
-63.26
-63.86
-55.94
-41.44
-23.48
-5.82
7.94
15.43
16.28
12.36
7.21
4.95
8.84
20.11
37.60
58.17
77.91
93.48
103.19
107.28
107.41
105.63
103.39
100.94
97.46
91.59
82.20
68.84
51.79
31.65
9.00
-15.78
-42.26
-69.50
-95.75
-118.66
-135.75
-145.21
-146.42
-140.09
-127.98
-112.39
-95.65
-79.63
-65.37
-52.84
-40.88
-27.55
-10.73
10.93
37.30
66.34
94.35
116.94
130.29
132.39
123.65
106.68
85.38
63.62
44.26
28.62
16.68
7.69
0.76
-4.75
-9.26
-13.30
-17.65
-23.21
-30.40
-38.48
-45.19
-47.02
-40.43
-23.29
3.60
36.12
67.56
90.45
98.85
90.12
65.46
29.24
-12.44
-53.40
-88.56
-114.48
-129.46
-133.31
-127.19
-113.32
-94.73
-74.75
-56.37
-41.63
-31.16
-24.10
-18.44
-11.75
-2.05
11.34
27.29
42.98
54.77
59.48
55.64
44.09
27.75
10.54
-3.93
-13.54
-18.10
-19.13
-19.20
-20.97
-26.55
-36.93
-51.83
-69.93
-89.16
-107.09
-121.29
-129.58
-130.33
-122.73
-107.17
-85.26
-59.56
-32.88
-7.60
14.79
33.64
48.75
59.93
66.88
69.44
67.93
63.39
57.41
51.87
48.54
48.83
53.65
63.22
76.82
92.67
108.30
121.16
129.68
133.89
135.49
137.01
140.74
147.60
156.69
165.45
170.36
167.84
155.15
131.12
96.77
55.42
12.31
-26.47
-55.40
-71.07
-72.95
-63.50
-47.32
-29.96
-16.86
-12.55
-20.25
-41.44
-75.62
-120.02
-169.98
-219.72
-263.59
-297.26
-318.46
-326.98
-324.11
-311.82
-292.02
-266.32
-236.09
-202.72
-167.76
-132.82
-99.17
-67.42
-37.48
-8.80
18.98
45.55
69.86
90.48
106.30
117.01
123.25
126.21
127.01
126.25
123.89
119.51
112.64
103.16
91.40
78.24
64.99
53.32
44.89
41.00
42.07
47.36
55.07
62.77
68.13
69.62
67.06
61.66
55.52
50.98
49.73
52.31
58.02
65.32
72.37
77.57
79.87
78.80
74.32
66.74
56.63
44.83
32.42
20.57
10.26
2.06
-4.03
-8.48
-12.04
-15.41
-18.92
-22.49
-25.59
-27.58
-27.89
-26.34
-23.09
-18.63
-13.55
-8.38
-3.55
0.60
3.87
6.13
7.37
7.69
7.32
6.58
5.80
5.27
5.11
5.34
5.78
6.16
6.14
5.50
4.16
2.27
0.16
-1.79
-3.29
-4.24
-4.73
-5.00
-5.25
-5.62
-6.08
-6.47
-6.57
-6.19
-5.28
-3.93
-2.38
-0.87
0.44
1.52
2.45
3.25
3.84
3.98
3.49
2.46
1.44
1.44
3.70
9.31
18.85
32.24
48.73
67.20
86.48
105.61
123.98
141.38
157.88
173.70
189.06
203.89
217.65
229.25
237.29
240.59
238.71
232.40
223.47
214.16
206.33
200.74
196.77
192.68
186.33
176.00
161.05
142.18
121.31
100.88
83.10
69.21
59.06
51.34
44.04
35.19
23.39
7.95
-11.23
-33.86
-59.37
-86.83
-114.87
-141.71
-165.40
-184.23
-197.16
-204.12
-205.91
-203.94
-199.74
-194.50
-188.86
-182.92
-176.49
-169.45
-161.87
-154.05
-146.29
-138.67
-130.95
-122.64
-113.34
-102.87
-91.50
-79.77
-68.30
-57.55
-47.78
-38.96
-31.01
-23.84
-17.46
-11.94
-7.36
-3.68
-0.77
1.64
3.85
6.17
8.79
11.68
14.62
17.26
19.15
19.99
19.70
18.42
16.49
14.34
12.30
10.52
8.93
7.37
5.75
4.13
2.74
1.66
0.57
-1.36
-5.49
-13.33
-26.21
-44.81
-68.89
-97.27
-127.95
-158.51
-186.60
-210.37
-228.66
-240.98
-247.20
-247.38
-241.63
-230.38
-214.66
-196.12
-176.75
-158.40
-142.28
-128.86
-118.06
-109.37
-101.76
-93.38
-81.64
-63.86
-38.56
-6.66
28.22
60.68
85.60
100.01
104.09
100.59
93.28
85.18
77.79
71.20
65.01
59.07
53.73
49.38
46.01
43.05
39.57
34.87
28.73
21.67
14.76
9.18
5.78
4.61
4.83
5.29
5.48
6.54
11.52
24.45
48.55
84.34
128.82
176.23
220.14
255.74
281.11
297.01
305.65
309.25
309.48
307.51
304.15
299.57
292.64
280.62
259.66
226.32
179.30
120.52
54.91
-10.98
-70.88
-120.24
-156.86
-180.67
-193.14
-196.75
-194.54
-189.63
-184.74
-181.59
-180.63
-181.16
-181.78
-181.01
-177.87
-172.15
-164.36
-155.45
-146.50
-138.31
-131.17
-124.82
-118.57
-111.60
-103.27
-93.41
-82.38
-70.94
-60.00
-50.32
-42.31
-36.03
-31.27
-27.69
-24.94
-22.67
-20.63
-18.69
-16.80
-15.05
-13.63
-12.76
-12.61
-13.30
-14.78
-16.90
-19.38
-21.89
-24.11
-25.82
-26.96
-27.62
-28.00
-28.27
-28.48
-28.54
-28.22
-27.29
-25.57
-23.00
-19.56
-15.30
-10.29
-4.68
1.36
7.60
13.74
19.49
24.55
28.59
31.28
32.31
31.45
28.61
23.95
17.97
11.49
5.59
1.26
-0.91
-1.01
0.18
1.48
1.83
0.66
-1.86
-5.00
-7.85
-9.69
-10.17
-9.33
-7.42
-4.76
-1.72
1.31
3.95
5.92
7.11
7.64
7.79
7.90
8.15
8.51
8.69
8.39
7.51
6.30
5.39
5.53
7.33
10.87
15.77
21.31
26.76
31.70
35.99
39.70
42.85
45.36
47.11
48.09
48.45
48.42
48.11
47.33
45.77
43.17
39.73
36.16
33.45
32.36
33.04
34.81
36.43
36.57
34.36
29.65
23.08
15.66
8.47
2.22
-2.74
-6.37
-8.73
-9.82
-9.57
-7.93
-4.97
-0.89
4.02
9.50
15.29
21.06
26.21
29.86
31.05
29.22
24.78
19.31
15.40
15.77
22.35
35.49
53.89
75.13
96.41
115.32
130.02
139.17
141.73
137.10
125.35
107.66
86.31
64.12
43.66
26.41
12.49
0.84
-10.17
-22.09
-35.98
-52.35
-71.29
-92.53
-115.49
-139.25
-162.37
-182.91
-198.56
-207.02
-206.53
-196.49
-177.83
-153.02
-125.51
-98.95
-76.29
-59.12
-47.62
-40.86
-37.38
-35.64
-34.39
-32.62
-29.55
-24.67
-17.81
-9.34
-0.17
8.42
15.15
19.09
19.91
18.01
14.38
10.32
7.18
6.09
7.80
12.63
20.60
31.45
44.77
59.97
76.36
93.16
109.70
125.55
140.72
155.53
170.43
185.56
200.46
213.96
224.48
230.54
231.34
227.09
218.87
208.29
196.81
185.27
173.82
162.02
149.39
135.72
121.22
106.38
91.67
77.30
63.19
49.07
34.59
19.32
2.72
-15.96
-37.46
-62.15
-89.68
-118.76
-147.38
-173.42
-195.32
-212.62
-225.95
-236.64
-246.03
-254.87
-263.07
-269.73
-273.47
-272.75
-266.18
-252.83
-232.56
-206.41
-176.75
-147.00
-120.84
-101.10
-88.86
-83.11
-81.39
-80.86
-79.44
-76.29
-71.63
-66.08
-60.01
-53.36
-45.89
-37.59
-28.96
-20.84
-14.04
-8.96
-5.45
-3.03
-1.27
-0.08
0.25
-0.79
-3.50
-7.52
-11.64
-13.94
-12.46
-6.08
4.68
17.60
29.40
36.96
38.57
34.56
27.00
18.65
11.90
7.99
7.07
8.69
12.35
17.66
24.27
31.59
38.77
44.95
49.59
52.67
54.62
55.99
57.12
58.00
58.28
57.52
55.40
51.75
46.59
39.98
31.97
22.63
12.16
0.95
-10.36
-20.94
-29.99
-36.94
-41.58
-44.09
-44.96
-44.76
-44.00
-42.97
-41.84
-40.71
-39.60
-38.39
-36.66
-33.82
-29.24
-22.68
-14.52
-5.65
2.83
10.17
16.25
21.61
27.00
32.91
39.28
45.58
51.14
55.49
58.49
60.18
60.51
59.20
55.85
50.25
42.56
33.51
24.11
15.33
7.77
1.44
-4.05
-9.26
-14.51
-19.74
-24.48
-28.04
-29.77
-29.28
-26.51
-21.76
-15.65
-8.97
-2.59
2.78
6.66
8.97
10.00
10.21
10.08
9.92
9.83
9.70
9.41
8.83
7.88
6.55
4.82
2.73
0.31
-2.42
-5.43
-8.75
-12.37
-16.22
-20.06
-23.52
-26.16
-27.59
-27.50
-25.76
-22.33
-17.34
-11.12
-4.28
2.39
8.14
12.47
15.37
17.38
19.37
22.29
26.76
32.90
40.20
47.76
54.47
59.42
62.15
62.70
61.59
59.54
57.22
55.06
53.07
50.88
47.83
43.22
36.53
27.79
17.76
7.84
-0.35
-5.54
-7.32
-6.28
-3.77
-1.41
-0.60
-2.31
-7.07
-15.00
-25.93
-39.28
-54.10
-69.12
-82.95
-94.33
-102.23
-105.98
-105.24
-100.00
-90.66
-77.91
-62.71
-46.02
-28.56
-10.72
7.41
25.90
44.75
63.75
82.38
99.89
115.43
128.35
138.44
146.21
152.84
159.84
168.63
180.13
194.62
211.58
229.77
247.16
261.15
268.91
267.98
256.99
236.13
207.14
172.81
136.21
99.99
65.77
34.17
4.77
-23.61
-52.66
-84.27
-120.52
-163.47
-214.66
-274.13
-339.19
-403.82
-459.32
-496.61
-509.13
-495.28
-458.85
-407.30
-348.94
-290.13
-234.23
-182.08
-133.48
-88.41
-47.23
-10.08
24.02
57.36
92.87
132.57
175.95
219.13
255.27
276.99
279.33
262.06
230.11
191.62
154.53
123.62
99.41
79.30
60.08
40.14
20.22
2.56
-10.72
-18.72
-21.99
-21.82
-19.47
-15.87
-11.60
-7.26
-3.55
-1.00
0.25
0.73
1.58
4.33
10.52
21.43
37.68
59.14
84.73
112.70
140.90
167.40
191.03
211.66
229.90
246.38
260.90
272.15
278.21
277.56
270.01
257.10
241.47
225.77
211.56
198.88
186.54
172.98
156.96
137.90
115.68
90.39
62.27
31.86
0.12
-31.73
-62.76
-92.77
-122.41
-152.64
-183.99
-215.92
-246.89
-274.87
-298.22
-316.17
-328.99
-337.57
-343.08
-346.62
-349.17
-351.51
-354.05
-356.65
-358.58
-358.92
-356.99
-352.84
-347.36
-341.84
-337.34
-333.83
-329.65
-321.54
-305.37
-277.39
-235.62
-180.54
-114.97
-43.17
30.30
101.55
167.58
225.98
274.55
311.05
333.72
341.96
337.12
322.81
304.38
287.70
277.68
276.70
284.00
295.93
307.39
313.58
311.60
301.11
283.78
262.31
239.10
215.55
191.92
167.70
142.33
115.68
88.45
62.07
38.35
18.93
4.75
-4.14
-8.52
-9.57
-8.62
-6.89
-5.51
-5.52
-7.79
-12.83
-20.53
-30.12
-40.38
-50.00
-58.06
-64.26
-68.99
-73.03
-77.32
-82.59
-89.16
-96.81
-104.83
-112.21
-117.94
-121.38
-122.51
-121.97
-120.72
-119.71
-119.44
-119.80
-120.25
-120.03
-118.46
-115.11
-109.79
-102.47
-93.20
-82.15
-69.79
-56.99
-44.93
-34.88
-27.74
-23.59
-21.60
-20.22
-17.68
-12.64
-4.58
6.15
18.74
32.27
46.09
59.81
73.11
85.50
96.23
104.43
109.36
110.67
108.54
103.65
96.95
89.52
82.28
75.97
71.09
67.94
66.63
67.20
69.67
74.05
80.31
88.38
97.96
108.55
119.46
130.02
139.75
148.53
156.50
164.01
171.44
179.07
187.12
195.75
204.92
214.20
222.58
228.52
230.15
225.93
215.14
198.19
176.63
152.56
128.13
104.94
83.79
64.72
47.25
30.66
14.24
-2.71
-20.97
-41.61
-65.93
-95.09
-129.30
-167.20
-205.67
-240.51
-267.80
-285.21
-292.84
-292.80
-288.16
-281.68
-275.30
-270.36
-268.08
-269.83
-276.68
-288.53
-303.58
-318.79
-331.07
-338.61
-341.48
-340.95
-338.24
-333.34
-324.62
-309.71
-286.85
-255.90
-218.61
-177.70
-135.78
-94.34
-53.65
-13.26
27.02
66.35
102.68
133.30
155.87
169.55
175.48
176.57
176.64
179.10
185.84
196.55
208.70
218.11
219.97
210.25
187.12
151.89
109.18
65.90
29.31
4.91
-5.12
-2.46
8.05
19.81
26.30
22.81
7.77
-16.78
-45.80
-72.78
-91.93
-99.96
-96.93
-85.53
-69.65
-52.73
-36.98
-23.49
-12.93
-6.12
-4.12
-7.76
-17.22
-31.70
-49.45
-68.02
-84.68
-96.96
-103.27
-103.36
-98.41
-90.65
-82.51
-75.70
-70.73
-67.11
-64.02
-61.04
-58.49
-57.03
-56.97
-57.70
-57.62
-54.83
-47.96
-36.91
-22.81
-7.50
7.26
20.40
31.68
41.32
49.55
56.26
61.01
63.35
63.13
60.69
56.74
52.15
47.56
43.24
39.04
34.51
29.07
22.40
14.57
6.17
-1.89
-8.71
-13.78
-17.21
-19.61
-21.83
-24.42
-27.32
-29.79
-30.64
-28.65
-23.01
-13.55
-0.84
14.01
29.61
44.53
57.55
67.97
75.65
81.04
84.91
88.03
90.69
92.46
92.07
87.78
77.89
61.27
37.84
8.77
-23.62
-56.18
-85.61
-109.31
-126.15
-136.95
-144.17
-150.88
-159.43
-170.35
-182.05
-191.50
-195.62
-192.44
-181.83
-165.14
-144.32
-120.86
-95.33
-67.53
-37.10
-4.31
29.65
62.75
92.80
118.11
137.91
152.42
162.51
169.30
173.74
176.43
177.60
177.09
174.32
168.34
157.83
141.50
118.67
89.98
57.94
26.81
1.67
-13.09
-15.30
-5.96
11.14
30.64
47.41
57.90
60.77
56.48
46.62
33.26
18.61
4.88
-5.80
-11.83
-12.66
-9.18
-3.73
0.54
0.52
-6.07
-20.09
-40.83
-66.12
-92.52
-115.97
-132.67
-140.28
-138.78
-130.70
-120.16
-111.21
-106.10
-104.48
-103.91
-101.37
-94.91
-84.50
-71.66
-58.34
-45.94
-34.97
-25.63
-18.47
-14.69
-15.60
-21.63
-31.63
-42.87
-51.98
-56.11
-53.88
-45.52
-32.31
-15.96
1.84
19.45
35.19
47.49
55.43
59.32
60.96
63.05
68.14
77.46
90.23
103.94
115.31
121.52
121.25
114.94
104.38
91.92
79.57
68.44
58.74
50.12
42.22
35.08
29.14
24.98
22.95
22.95
24.48
26.93
29.86
33.07
36.50
39.98
43.14
45.46
46.56
46.35
45.00
42.54
38.57
32.27
22.84
10.21
-4.43
-18.81
-30.31
-37.04
-38.64
-36.32
-32.15
-28.08
-25.18
-23.40
-22.00
-20.04
-16.91
-12.43
-6.71
-0.02
7.34
14.96
22.33
28.82
33.80
36.82
37.74
36.91
34.93
32.38
29.35
25.11
18.29
7.52
-7.69
-26.33
-45.96
-63.47
-76.32
-83.45
-85.56
-84.41
-81.85
-78.91
-75.59
-71.29
-65.63
-58.90
-52.15
-46.73
-43.69
-43.35
-45.28
-48.65
-52.69
-57.19
-62.55
-69.56
-78.85
-90.29
-102.74
-114.12
-122.07
-124.76
-121.60
-113.36
-101.76
-88.58
-74.96
-61.19
-46.99
-32.19
-16.96
-1.67
13.73
29.93
48.02
68.59
90.88
112.48
129.98
140.33
142.02
135.52
122.78
106.20
87.70
68.37
48.85
29.73
11.83
-3.97
-17.05
-27.35
-35.22
-41.10
-45.08
-46.71
-45.34
-40.41
-32.03
-21.20
-9.75
-0.10
5.36
4.84
-2.21
-14.91
-31.12
-48.18
-63.69
-76.36
-86.15
-94.05
-101.27
-108.48
-115.61
-121.79
-125.92
-127.08
-124.94
-120.09
-113.97
-108.78
-106.68
-109.00
-115.22
-122.46
-125.89
-120.12
-101.26
-68.67
-25.60
21.75
65.87
100.35
121.88
131.26
132.98
133.52
139.23
154.18
179.05
210.51
242.37
267.56
280.76
279.94
266.46
243.96
215.86
186.68
160.77
141.25
129.24
124.57
126.48
133.30
142.06
148.77
149.85
143.24
129.20
110.34
89.28
68.09
46.96
24.22
-2.92
-36.88
-79.22
-127.47
-178.66
-228.97
-273.15
-304.87
-317.77
-308.16
-276.79
-229.67
-176.41
-127.20
-88.99
-63.61
-49.32
-41.22
-35.67
-30.73
-25.72
-20.09
-13.27
-4.63
6.04
17.88
29.60
39.73
47.57
53.82
60.56
70.40
85.97
109.04
137.19
166.56
191.63
207.06
209.85
200.86
184.53
167.15
153.91
146.61
143.52
140.39
133.15
120.05
102.01
81.52
60.84
40.86
21.10
0.99
-19.37
-38.74
-55.20
-67.09
-73.95
-76.74
-77.29
-77.49
-78.08
-78.62
-77.84
-74.47
-68.13
-59.87
-51.76
-46.06
-44.22
-46.07
-50.06
-53.71
-54.50
-50.67
-41.65
-28.32
-13.16
-0.05
6.31
1.67
-15.88
-44.25
-76.85
-103.96
-115.91
-106.73
-76.68
-32.22
16.70
60.59
93.91
116.18
130.83
142.41
154.19
167.17
180.60
193.04
203.06
209.07
208.92
199.85
179.52
147.46
106.20
60.98
18.09
-17.44
-43.48
-60.87
-72.19
-79.90
-85.34
-88.83
-90.56
-91.46
-93.17
-97.23
-104.00
-112.32
-119.93
-124.66
-125.43
-122.59
-117.41
-111.21
-104.55
-97.11
-87.97
-76.31
-61.94
-45.75
-29.61
-15.81
-6.27
-1.59
-0.61
-0.49
2.33
10.94
26.74
48.95
74.76
100.10
120.74
133.36
136.22
129.55
115.34
96.71
77.11
59.32
44.84
33.70
24.68
15.95
5.74
-7.17
-23.14
-41.66
-61.47
-80.77
-97.53
-109.83
-116.26
-116.29
-110.52
-100.67
-89.22
-78.75
-71.12
-67.10
-66.29
-67.66
-70.22
-73.35
-76.66
-79.54
-80.82
-78.90
-72.47
-61.21
-46.13
-29.34
-13.32
-0.00
9.57
15.20
17.19
16.21
13.30
10.11
8.82
11.60
19.77
33.10
49.73
66.79
81.39
91.56
96.74
97.61
95.50
91.72
87.06
81.82
75.98
69.61
63.04
56.82
51.44
46.93
42.63
37.32
29.67
18.92
5.35
-9.59
-23.77
-35.10
-42.33
-45.30
-44.88
-42.30
-38.66
-34.52
-29.92
-24.57
-17.94
-9.30
2.44
18.52
39.82
66.00
94.92
122.87
145.56
159.69
164.13
160.24
151.07
139.91
129.11
119.62
111.41
104.43
99.20
96.83
98.29
103.35
109.84
113.72
110.14
95.03
66.67
26.58
-20.80
-69.39
-113.33
-148.49
-173.10
-187.37
-192.52
-189.78
-180.05
-164.22
-143.74
-120.99
-98.88
-80.10
-66.11
-56.66
-49.87
-43.04
-33.71
-20.39
-2.95
17.58
39.54
61.09
80.61
96.93
109.30
117.36
121.05
120.45
115.68
106.95
94.66
79.62
63.03
46.13
29.62
13.17
-4.72
-25.93
-51.27
-79.13
-104.85
-121.36
-121.17
-99.10
-54.64
7.03
75.83
139.36
186.22
208.88
205.25
178.47
135.26
83.66
31.16
-16.33
-54.66
-81.16
-94.53
-94.94
-84.31
-66.23
-45.20
-25.35
-9.22
3.03
13.38
25.10
41.07
62.42
87.80
113.77
135.98
150.64
155.75
151.32
139.06
121.42
100.84
79.22
57.96
38.09
20.47
5.89
-5.18
-12.75
-17.54
-20.78
-23.94
-28.15
-33.87
-40.74
-47.75
-53.75
-57.87
-59.82
-59.85
-58.62
-56.91
-55.53
-55.11
-55.91
-57.52
-58.81
-58.24
-54.59
-47.67
-38.77
-30.26
-24.60
-23.25
-25.87
-30.51
-34.52
-35.74
-33.33
-27.93
-21.04
-14.25
-8.54
-4.28
-1.44
-0.06
-0.44
-3.03
-8.18
-15.84
-25.49
-36.27
-47.29
-57.85
-67.59
-76.47
-84.67
-92.27
-99.21
-105.10
-109.28
-111.06
-109.97
-106.01
-99.79
-92.42
-85.19
-79.23
-75.09
-72.50
-70.49
-67.77
-63.27
-56.62
-48.34
-39.54
-31.48
-24.92
-19.89
-15.72
-11.44
-6.28
0.01
7.09
14.23
20.57
25.41
28.37
29.45
28.94
27.35
25.22
22.94
20.74
18.69
16.87
15.44
14.68
14.82
15.88
17.44
18.77
18.91
17.12
13.09
7.18
0.27
-6.56
-12.41
-16.91
-20.23
-22.99
-25.86
-29.25
-33.12
-37.05
-40.52
-43.15
-44.77
-45.31
-44.63
-42.44
-38.56
-33.27
-27.36
-21.87
-17.46
-13.89
-10.11
-4.82
2.62
11.63
20.53
27.45
31.29
32.29
31.81
31.45
32.12
33.60
34.86
34.75
32.73
29.15
24.99
21.46
19.44
19.30
20.82
23.30
25.63
26.39
24.14
17.84
7.31
-6.54
-21.81
-36.14
-47.48
-54.56
-57.13
-55.75
-51.41
-45.21
-38.24
-31.53
-26.06
-22.51
-21.05
-21.21
-21.96
-22.05
-20.58
-17.36
-12.91
-8.24
-4.38
-1.88
-0.73
-0.52
-0.69
-0.92
-1.24
-1.91
-3.18
-5.12
-7.49
-9.80
-11.51
-12.21
-11.80
-10.54
-9.00
-7.92
-8.02
-9.83
-13.63
-19.36
-26.72
-35.16
-44.03
-52.56
-60.02
-65.75
-69.32
-70.50
-69.33
-66.03
-61.02
-54.72
-47.55
-39.85
-31.88
-23.86
-16.13
-9.06
-3.08
1.51
4.62
6.51
7.72
8.92
10.78
13.68
17.74
22.82
28.64
34.86
41.08
46.81
51.38
54.00
54.02
51.18
45.95
39.39
32.83
27.30
23.08
19.61
15.83
10.66
3.54
-5.23
-14.45
-22.18
-26.21
-24.69
-16.78
-3.09
14.33
32.55
48.74
61.05
69.00
73.31
75.17
75.53
74.87
73.38
71.25
68.93
66.91
65.32
63.62
60.69
55.24
46.33
33.69
17.88
0.04
-18.41
-36.04
-51.68
-64.56
-74.32
-80.95
-84.60
-85.48
-83.92
-80.43
-75.80
-70.93
-66.55
-62.85
-59.46
-55.65
-50.89
-45.19
-39.15
-33.60
-29.06
-25.53
-22.55
-19.59
-16.48
-13.41
-10.68
-8.33
-5.85
-2.33
3.15
11.01
20.83
31.36
40.89
47.89
51.53
51.95
50.05
47.01
43.80
40.85
38.20
35.72
33.46
31.76
31.02
31.40
32.55
33.69
33.93
32.76
30.30
27.29
24.73
23.41
23.57
24.80
26.29
27.17
26.74
24.78
21.50
17.53
13.76
11.13
10.39
11.93
15.66
21.06
27.39
33.79
39.45
43.52
45.27
44.11
39.90
33.09
24.66
15.78
7.40
-0.01
-6.57
-12.66
-18.68
-24.81
-30.99
-36.96
-42.36
-46.73
-49.53
-50.27
-48.58
-44.44
-38.20
-30.42
-21.78
-12.90
-4.38
3.07
8.60
11.33
10.70
6.77
0.25
-7.65
-15.71
-23.07
-29.37
-34.62
-38.93
-42.09
-43.57
-42.57
-38.35
-30.56
-19.48
-6.12
7.96
21.04
31.94
40.45
47.41
54.14
61.58
69.55
76.61
80.64
79.89
73.84
63.44
50.71
37.91
26.88
18.77
14.14
13.09
15.24
19.61
24.67
28.57
29.75
27.47
22.06
14.67
6.80
-0.32
-6.00
-10.16
-13.13
-15.38
-17.17
-18.51
-19.10
-18.60
-16.90
-14.31
-11.59
-9.65
-9.16
-10.24
-12.46
-15.09
-17.53
-19.54
-21.27
-22.91
-24.45
-25.50
-25.54
-24.19
-21.59
-18.41
-15.64
-14.19
-14.49
-16.27
-18.69
-20.62
-21.19
-19.97
-17.24
-13.73
-10.31
-7.58
-5.73
-4.45
-3.22
-1.56
0.65
3.12
5.17
5.95
4.66
0.83
-5.60
-14.16
-23.95
-33.77
-42.31
-48.38
-51.18
-50.43
-46.49
-40.20
-32.71
-25.15
-18.39
-12.91
-8.84
-6.19
-4.87
-4.76
-5.61
-6.87
-7.69
-7.09
-4.23
1.25
9.08
18.53
28.70
38.80
48.39
57.17
64.76
70.52
73.61
73.37
69.71
63.45
56.06
49.21
44.16
41.37
40.53
40.94
41.98
43.35
45.10
47.34
50.06
52.96
55.65
57.78
59.21
59.93
59.96
59.21
57.56
55.01
51.87
48.84
46.77
46.36
47.81
50.76
54.46
58.23
61.72
64.99
68.27
71.61
74.60
76.36
75.70
71.52
63.22
50.82
34.90
16.27
-4.30
-26.15
-48.41
-69.80
-88.65
-103.54
-114.15
-121.84
-129.36
-139.74
-154.94
-174.92
-197.58
-219.61
-237.42
-247.65
-247.21
-233.40
-204.52
-161.14
-107.19
-49.98
1.43
38.86
57.96
59.64
49.51
35.55
25.35
23.61
31.21
45.66
62.48
77.20
86.94
91.19
91.52
90.51
90.27
91.46
93.21
94.05
93.12
91.09
89.74
90.81
94.60
99.33
101.82
99.12
90.04
75.79
59.30
43.67
30.94
21.25
13.26
5.13
-4.50
-15.91
-28.48
-41.08
-52.49
-61.48
-66.77
-66.90
-60.55
-47.15
-27.47
-3.92
20.00
40.62
55.27
62.84
63.68
58.95
49.92
37.95
24.62
12.26
3.78
1.89
7.88
20.88
37.89
54.92
68.53
76.97
80.49
80.64
79.19
77.14
74.34
69.76
62.20
51.00
36.40
19.55
2.11
-14.41
-29.18
-42.19
-54.01
-65.14
-75.57
-84.51
-90.83
-93.65
-92.95
-89.63
-85.18
-81.03
-78.13
-76.81
-76.95
-78.24
-80.36
-82.98
-85.69
-88.01
-89.42
-89.51
-87.99
-84.66
-79.39
-72.15
-63.14
-52.92
-42.37
-32.44
-23.80
-16.59
-10.47
-4.89
0.45
5.44
9.62
12.53
14.12
14.92
15.89
17.98
21.82
27.53
34.76
42.91
51.37
59.66
67.46
74.74
81.86
89.72
99.54
112.46
128.71
146.99
164.25
176.49
180.15
173.67
158.50
138.99
121.01
110.05
109.42
119.34
137.21
158.64
178.72
193.01
198.05
191.58
172.82
142.75
104.39
62.55
23.11
-8.30
-27.54
-32.89
-25.30
-7.94
14.76
38.12
58.22
72.44
79.89
81.30
78.61
74.37
71.09
70.64
73.86
80.27
88.10
94.48
96.09
90.17
75.49
53.01
25.68
-2.50
-27.78
-47.89
-62.38
-72.33
-79.47
-85.29
-90.68
-95.82
-100.59
-104.75
-108.15
-110.68
-112.22
-112.61
-111.72
-109.54
-106.33
-102.51
-98.59
-95.03
-92.11
-89.93
-88.51
-87.89
-88.22
-89.66
-92.30
-95.96
-100.16
-104.20
-107.39
-109.31
-109.88
-109.44
-108.62
-108.15
-108.69
-110.59
-113.82
-117.90
-122.01
-125.11
-126.24
-124.66
-120.08
-112.63
-102.83
-91.49
-79.58
-68.08
-57.91
-49.77
-43.93
-40.23
-38.14
-36.93
-35.98
-35.01
-34.15
-33.83
-34.46
-36.12
-38.50
-40.92
-42.62
-43.00
-41.77
-38.87
-34.35
-28.34
-21.07
-13.02
-4.95
2.30
8.09
12.30
15.38
18.05
20.88
23.85
26.39
27.73
27.41
25.56
23.00
20.91
20.44
22.35
26.73
32.96
39.73
45.37
48.22
47.19
42.14
33.93
24.01
13.86
4.45
-4.02
-11.85
-19.49
-27.05
-34.25
-40.54
-45.37
-48.44
-49.81
-49.80
-48.92
-47.61
-46.24
-44.85
-43.26
-41.01
-37.56
-32.51
-25.77
-17.66
-8.79
0.30
9.33
18.41
28.06
38.80
50.75
63.23
74.69
82.99
86.14
83.03
74.03
61.02
46.70
33.56
22.89
14.34
6.24
-3.56
-16.76
-34.24
-56.13
-82.02
-111.04
-141.42
-170.26
-193.88
-209.07
-214.74
-212.65
-206.58
-199.97
-193.63
-185.06
-170.11
-146.04
-114.07
-79.55
-49.73
-30.25
-22.69
-24.44
-30.73
-37.27
-41.81
-43.90
-43.55
-39.67
-29.69
-10.45
20.20
62.02
111.89
164.28
212.79
251.63
277.09
287.69
283.80
266.87
238.73
201.58
158.26
112.44
68.23
29.25
-2.39
-26.61
-44.96
-59.65
-72.44
-83.95
-93.85
-101.45
-106.34
-108.72
-109.22
-108.40
-106.46
-103.00
-97.31
-88.99
-78.25
-66.10
-53.93
-42.82
-33.16
-24.86
-17.88
-12.67
-9.89
-9.60
-10.40
-9.58
-4.28
6.72
21.92
37.46
48.92
53.57
51.52
45.30
38.16
32.22
27.80
24.01
19.97
15.73
12.23
10.55
11.09
13.27
15.97
18.14
19.30
19.75
20.17
21.11
22.59
23.99
24.30
22.52
18.29
12.15
5.45
-0.11
-3.26
-3.68
-2.06
0.46
3.04
5.61
8.85
13.61
20.36
28.89
38.48
48.14
56.75
62.89
64.80
60.58
49.00
30.29
6.51
-18.84
-41.96
-59.99
-71.67
-77.11
-77.12
-72.53
-64.00
-52.43
-39.25
-26.58
-16.68
-11.22
-10.53
-13.60
-18.44
-22.93
-25.45
-25.28
-22.52
-17.79
-12.00
-6.02
-0.50
4.19
7.98
11.11
14.00
17.12
20.83
25.32
30.55
36.41
42.77
49.59
56.85
64.53
72.56
80.78
88.93
96.70
103.82
110.02
115.05
118.52
119.93
118.69
114.29
106.48
95.42
81.63
65.85
48.86
31.29
13.58
-3.89
-20.70
-36.27
-49.94
-61.21
-69.96
-76.54
-81.70
-86.30
-90.91
-95.62
-100.06
-103.59
-105.54
-105.37
-102.71
-97.22
-88.71
-77.15
-62.88
-46.74
-29.99
-14.04
-0.04
11.33
20.04
26.37
30.75
33.56
35.19
36.34
38.02
41.40
47.40
56.28
67.46
79.90
92.55
104.82
116.62
127.90
138.26
146.69
151.87
152.77
149.29
142.28
133.23
123.51
113.89
104.36
94.42
83.53
71.49
58.49
44.99
31.47
18.40
6.16
-4.87
-14.37
-22.20
-28.58
-34.09
-39.60
-45.94
-53.65
-62.86
-73.15
-83.73
-93.56
-101.58
-106.91
-108.99
-107.71
-103.40
-96.77
-88.76
-80.30
-72.18
-64.91
-58.69
-53.47
-49.02
-45.08
-41.49
-38.17
-35.14
-32.45
-30.10
-27.96
-25.74
-23.10
-19.73
-15.47
-10.41
-4.76
1.18
7.23
13.31
19.46
25.72
32.07
38.46
44.89
51.50
58.49
66.04
74.03
82.04
89.40
95.49
99.89
102.53
103.59
103.30
101.79
99.05
94.94
89.30
81.98
72.84
61.69
48.24
32.19
13.42
-7.75
-30.34
-52.70
-72.65
-88.10
-97.63
-100.92
-98.83
-93.06
-85.41
-77.24
-69.17
-61.21
-53.07
-44.63
-35.99
-27.50
-19.54
-12.42
-6.34
-1.47
2.02
3.96
4.27
3.03
0.52
-2.84
-6.57
-10.26
-13.55
-16.24
-18.22
-19.54
-20.39
-21.05
-21.75
-22.59
-23.46
-24.07
-24.11
-23.53
-22.68
-22.20
-22.84
-25.04
-28.71
-33.23
-37.70
-41.42
-44.17
-46.19
-47.84
-49.16
-49.60
-48.20
-44.01
-36.51
-25.82
-12.53
2.59
18.69
34.77
49.49
61.18
68.20
69.68
65.95
58.63
49.95
41.87
35.41
30.64
27.15
24.71
23.61
24.39
27.33
31.77
36.11
38.12
35.84
28.42
16.60
2.49
-11.19
-22.11
-29.16
-32.72
-34.25
-35.46
-37.64
-41.17
-45.75
-50.76
-55.60
-59.87
-63.19
-65.16
-65.27
-63.19
-58.89
-52.77
-45.57
-38.14
-31.23
-25.41
-21.05
-18.28
-16.97
-16.69
-16.61
-15.66
-12.63
-6.40
3.75
17.95
35.60
55.41
75.56
94.19
109.83
121.75
130.12
135.70
139.40
141.92
143.60
144.53
144.88
144.89
144.80
144.36
142.56
137.79
128.60
114.59
97.08
78.86
63.25
52.65
47.58
46.47
46.43
44.46
38.54
28.10
13.80
-3.06
-21.17
-39.47
-57.16
-73.44
-87.34
-97.83
-104.05
-105.76
-103.60
-99.23
-95.07
-93.70
-97.00
-105.49
-118.15
-132.91
-147.49
-160.18
-170.13
-177.00
-180.42
-179.62
-173.77
-162.60
-146.95
-128.80
-110.42
-93.25
-77.27
-61.12
-42.92
-21.24
4.42
33.68
65.79
100.03
135.81
172.48
209.17
244.76
278.01
307.71
332.61
351.24
361.94
363.05
353.45
333.11
303.36
266.89
227.35
188.71
154.48
126.93
106.39
91.12
77.93
63.48
45.81
25.52
5.63
-9.79
-17.86
-18.64
-15.51
-13.78
-18.43
-31.93
-53.41
-79.58
-106.42
-130.98
-152.10
-169.83
-184.37
-195.14
-200.79
-199.92
-192.33
-179.47
-164.27
-150.11
-139.56
-133.56
-131.36
-131.08
-130.43
-127.47
-120.85
-110.12
-95.69
-78.78
-61.22
-44.91
-31.29
-20.76
-12.70
-5.78
1.33
9.35
18.22
27.23
35.50
42.37
47.53
51.06
53.21
54.29
54.46
53.69
51.87
48.96
45.19
41.15
37.61
35.30
34.64
35.69
38.16
41.49
44.87
47.14
46.92
42.96
34.70
22.77
9.07
-3.81
-13.67
-19.61
-22.46
-24.28
-27.35
-33.23
-42.23
-53.71
-66.68
-80.41
-94.49
-108.69
-122.59
-135.45
-146.39
-154.81
-160.60
-164.21
-166.40
-167.95
-169.45
-171.18
-173.03
-174.42
-174.37
-171.74
-165.63
-155.89
-143.37
-129.71
-116.78
-105.90
-97.51
-91.12
-85.89
-81.13
-76.69
-73.05
-71.01
-71.34
-74.42
-79.98
-87.07
-94.29
-100.46
-105.31
-109.81
-115.70
-124.25
-134.83
-144.38
-148.15
-141.53
-121.62
-87.83
-41.23
16.51
83.42
156.46
230.39
297.29
347.96
374.77
374.40
349.12
306.04
254.71
204.37
161.77
130.06
109.04
96.10
87.76
80.81
72.92
62.55
48.43
29.61
5.97
-20.71
-46.45
-65.88
-74.36
-70.18
-55.83
-37.17
-21.00
-12.32
-12.51
-19.41
-28.90
-36.68
-40.01
-38.36
-33.14
-26.64
-20.81
-16.28
-12.22
-6.96
0.84
11.30
23.21
34.83
45.08
54.22
63.68
75.06
89.00
104.71
120.30
133.91
144.77
153.56
161.93
171.42
182.50
194.39
205.75
215.67
224.34
232.95
242.77
254.10
265.80
275.87
282.69
286.02
286.81
286.05
283.08
274.96
257.30
226.34
181.03
123.84
59.81
-5.80
-69.58
-130.69
-189.82
-246.96
-299.61
-342.44
-368.88
-373.78
-355.87
-318.61
-269.18
-216.00
-165.88
-122.30
-85.51
-54.10
-27.05
-4.96
10.19
16.56
14.15
5.52
-4.97
-12.99
-16.11
-14.88
-12.36
-12.50
-18.31
-30.61
-47.91
-67.29
-85.74
-101.35
-113.77
-124.14
-134.37
-146.28
-160.67
-176.80
-192.37
-204.22
-209.34
-205.92
-193.96
-175.08
-151.62
-125.64
-98.31
-69.90
-40.45
-10.48
18.58
44.54
64.95
77.88
82.46
79.11
69.30
55.21
39.19
23.27
8.89
-3.25
-13.00
-20.55
-26.10
-29.81
-31.85
-32.59
-32.70
-32.93
-33.90
-35.84
-38.74
-42.52
-47.04
-51.92
-56.06
-57.59
-54.29
-44.74
-29.23
-10.07
9.30
25.70
37.41
44.49
48.01
48.96
47.66
44.02
38.35
31.91
26.59
23.92
24.10
25.71
26.45
24.40
19.00
11.20
2.83
-4.38
-9.56
-12.84
-14.99
-16.75
-18.48
-20.09
-21.34
-22.04
-22.26
-22.30
-22.55
-23.41
-25.22
-28.12
-31.99
-36.32
-40.17
-42.25
-41.30
-36.44
-27.46
-15.01
-0.37
14.95
29.61
42.72
53.85
62.88
69.81
74.68
77.66
79.11
79.45
78.95
77.40
74.10
68.10
58.81
46.49
32.28
17.93
5.16
-4.79
-11.29
-14.13
-13.35
-9.18
-2.20
6.58
15.75
23.91
30.07
34.02
36.35
38.13
40.53
44.48
50.51
58.63
68.13
77.43
84.01
84.76
76.87
58.78
31.07
-3.49
-40.47
-75.12
-103.58
-123.64
-134.75
-137.46
-132.88
-122.28
-107.40
-90.62
-74.94
-63.22
-57.02
-55.58
-55.58
-51.85
-38.82
-12.28
29.33
84.39
148.50
215.62
279.43
334.53
377.26
405.82
419.92
420.11
407.30
382.64
347.86
305.68
259.72
213.80
170.80
131.85
96.32
62.72
29.94
-1.76
-30.83
-55.37
-74.34
-88.34
-99.46
-110.19
-122.19
-135.54
-148.87
-160.18
-167.69
-170.62
-169.34
-165.18
-160.19
-156.62
-156.34
-159.86
-165.64
-170.13
-168.99
-159.23
-140.97
-117.91
-95.94
-80.52
-74.29
-76.18
-82.43
-88.81
-92.59
-93.23
-91.69
-89.14
-85.91
-81.30
-74.39
-64.79
-53.17
-41.13
-30.57
-23.05
-19.09
-18.05
-18.42
-18.44
-16.89
-13.56
-9.18
-4.90
-1.52
1.02
3.59
7.25
12.68
19.72
27.49
34.78
40.59
44.34
46.00
45.84
44.30
41.90
39.29
37.17
36.24
36.84
38.83
41.56
44.16
45.86
46.41
46.10
45.55
45.30
45.54
46.12
46.82
47.76
49.42
52.39
56.89
62.38
67.66
71.33
72.38
70.59
66.49
61.01
55.08
49.42
44.47
40.48
37.49
35.28
33.42
31.33
28.52
24.83
20.50
16.01
11.96
8.86
7.10
6.97
8.65
12.16
17.24
23.38
29.91
36.22
41.93
46.89
51.01
54.15
55.85
55.37
51.90
44.78
33.84
19.60
3.23
-13.58
-29.08
-41.79
-50.90
-56.34
-58.69
-58.87
-57.83
-56.36
-54.97
-54.06
-53.87
-54.58
-56.18
-58.45
-60.97
-63.26
-64.80
-65.28
-64.59
-62.86
-60.37
-57.41
-54.18
-50.73
-46.86
-42.32
-36.92
-30.62
-23.65
-16.35
-9.09
-2.18
4.22
10.03
15.22
19.83
23.96
27.75
31.34
34.77
37.99
40.90
43.37
45.40
47.01
48.31
49.37
50.25
51.12
52.17
53.65
55.64
57.92
59.97
61.04
60.44
57.75
52.90
46.18
38.01
28.79
18.84
8.38
-2.36
-13.11
-23.53
-33.30
-42.13
-49.88
-56.55
-62.26
-67.22
-71.63
-75.62
-79.17
-82.14
-84.33
-85.68
-86.33
-86.66
-87.17
-88.21
-89.68
-90.90
-90.72
-87.97
-82.03
-73.33
-63.39
-54.40
-48.32
-46.09
-47.13
-49.54
-50.98
-49.91
-46.48
-42.59
-41.01
-43.92
-51.58
-61.89
-71.28
-75.91
-73.27
-62.95
-46.75
-28.35
-12.85
-6.18
-13.88
-39.13
-80.55
-131.01
-178.61
-209.92
-214.56
-189.18
-138.83
-75.11
-11.83
39.86
74.55
92.69
98.35
96.04
88.62
76.99
61.42
43.24
25.39
11.38
3.52
1.59
2.61
2.62
-1.31
-9.55
-19.85
-28.63
-32.66
-30.38
-22.37
-11.03
0.29
8.44
11.42
9.07
3.01
-4.05
-9.43
-11.38
-9.56
-4.70
2.09
9.90
18.15
26.27
33.48
38.77
41.29
40.93
38.48
35.42
33.29
32.93
34.17
35.98
36.97
36.08
32.96
28.22
23.23
19.84
19.87
24.69
34.84
49.77
67.85
86.61
103.34
115.82
122.80
124.28
121.18
114.92
106.75
97.63
88.24
79.32
71.87
67.06
65.87
68.72
75.28
84.66
95.84
108.04
120.82
133.74
146.00
156.31
163.11
165.32
163.10
158.33
154.26
154.23
160.04
170.68
182.26
189.27
186.61
171.36
143.55
105.68
61.52
14.97
-30.54
-72.15
-107.60
-135.39
-155.14
-167.78
-175.30
-179.84
-182.67
-183.58
-181.00
-172.80
-157.52
-135.45
-109.06
-82.43
-59.92
-44.64
-37.36
-36.53
-39.36
-43.19
-46.59
-49.41
-52.09
-54.81
-57.08
-58.11
-57.47
-55.56
-53.42
-52.03
-51.64
-51.49
-50.24
-46.74
-40.64
-32.68
-24.26
-16.84
-11.39
-8.10
-6.55
-6.06
-6.04
-6.18
-6.42
-6.84
-7.52
-8.46
-9.62
-10.91
-12.23
-13.47
-14.48
-15.12
-15.29
-14.98
-14.23
-13.13
-11.72
-10.04
-8.09
-5.90
-3.57
-1.24
0.98
3.00
4.81
6.45
7.96
9.37
10.60
11.56
12.15
12.32
12.14
11.71
11.19
10.65
10.15
9.64
9.08
8.41
7.59
6.64
5.61
4.61
3.67
2.80
1.90
0.79
-0.72
-2.78
-5.41
-8.46
-11.62
-14.53
-16.81
-18.22
-18.63
-18.07
-16.65
-14.49
-11.76
-8.58
-5.07
-1.37
2.37
6.00
9.39
12.45
15.07
17.16
18.62
19.46
19.75
19.69
19.50
19.29
19.05
18.67
18.03
17.11
16.02
14.95
14.04
13.28
12.51
11.56
10.34
8.90
7.46
6.20
5.22
4.51
3.90
3.24
2.41
1.40
0.30
-0.75
-1.55
-1.90
-1.66
-0.76
0.76
2.77
5.04
7.34
9.46
11.31
12.88
14.25
15.53
16.83
18.19
19.58
20.93
22.20
23.38
24.56
25.78
27.02
28.22
29.29
30.19
30.95
31.66
32.39
33.15
33.89
34.57
35.24
35.97
36.82
37.70
38.33
38.17
36.50
32.56
25.72
15.80
3.21
-11.05
-25.63
-39.20
-50.84
-60.14
-67.13
-72.06
-75.11
-76.38
-75.95
-74.06
-71.11
-67.57
-63.81
-59.94
-55.86
-51.37
-46.38
-40.94
-35.33
-29.93
-25.14
-21.26
-18.31
-16.15
-14.40
-12.71
-10.82
-8.68
-6.41
-4.21
-2.24
-0.56
0.89
2.20
3.45
4.69
5.93
7.18
8.47
9.90
11.57
13.55
15.85
18.35
20.81
22.93
24.47
25.24
25.17
24.21
22.32
19.46
15.63
10.95
5.73
0.36
-4.71
-9.14
-12.67
-15.20
-16.67
-17.11
-16.62
-15.40
-13.80
-12.16
-10.80
-9.83
-9.14
-8.44
-7.33
-5.49
-2.76
0.80
4.89
9.15
13.19
16.83
20.04
22.92
25.50
27.63
28.90
28.77
26.83
23.00
17.61
11.28
4.63
-1.96
-8.42
-14.94
-21.80
-29.14
-37.01
-45.21
-53.37
-60.84
-66.77
-70.29
-70.80
-68.30
-63.41
-57.22
-50.81
-44.88
-39.60
-34.77
-30.14
-25.73
-21.80
-18.64
-16.32
-14.57
-12.96
-11.12
-8.87
-6.09
-2.46
2.59
9.61
18.70
29.07
39.23
47.52
52.82
55.09
55.18
54.21
52.94
51.42
49.27
46.17
42.33
38.50
35.55
33.92
33.41
33.27
32.59
30.77
27.70
23.69
19.18
14.52
9.81
5.02
0.16
-4.54
-8.62
-11.46
-12.46
-11.14
-7.27
-0.83
7.90
18.37
29.76
41.09
51.45
60.16
66.91
71.71
74.80
76.53
77.18
77.05
76.45
75.70
75.22
75.45
76.73
79.16
82.45
85.87
88.44
89.25
87.79
84.15
78.87
72.71
66.28
59.92
53.68
47.58
41.70
36.18
31.15
26.52
22.03
17.35
12.34
7.22
2.51
-1.07
-3.00
-3.06
-1.49
1.18
4.45
8.09
12.29
17.54
24.40
33.12
43.43
54.60
65.66
75.83
84.82
93.06
101.67
112.35
127.01
147.30
173.78
205.31
238.75
269.38
292.00
302.49
299.09
282.94
257.71
228.26
199.04
172.92
150.55
130.81
111.58
90.83
67.27
40.65
11.61
-18.71
-48.97
-77.84
-104.00
-126.30
-143.97
-157.07
-166.63
-174.52
-182.78
-192.72
-204.42
-216.59
-227.23
-234.40
-237.04
-235.24
-230.05
-223.05
-215.72
-209.23
-204.27
-201.11
-199.63
-199.30
-199.14
-197.88
-194.16
-186.86
-175.46
-160.23
-142.16
-122.61
-102.91
-84.01
-66.37
-50.13
-35.33
-22.11
-10.73
-1.44
5.71
10.87
14.40
16.71
18.08
18.78
19.01
19.09
19.39
20.22
21.75
23.89
26.39
28.92
31.22
33.14
34.53
35.09
34.26
31.24
25.27
16.13
4.33
-8.83
-21.74
-33.07
-42.30
-49.85
-56.72
-63.95
-72.07
-81.00
-90.19
-99.18
-107.76
-116.01
-123.91
-131.03
-136.53
-139.47
-139.46
-136.97
-133.21
-129.55
-126.78
-124.60
-121.69
-116.32
-107.05
-93.41
-76.12
-56.74
-37.22
-19.19
-3.57
9.44
20.22
29.28
37.04
43.90
50.34
57.18
65.41
75.76
88.30
102.15
115.76
127.46
136.30
142.43
146.96
151.48
157.31
164.91
173.70
182.27
188.85
192.00
190.95
185.66
176.57
164.14
148.71
130.53
110.06
88.11
65.64
43.41
21.60
-0.17
-22.46
-45.40
-68.42
-90.32
-109.72
-125.65
-137.84
-146.52
-152.16
-155.06
-155.47
-153.69
-150.37
-146.47
-143.00
-140.72
-139.86
-140.25
-141.48
-143.21
-145.22
-147.25
-148.85
-149.21
-147.35
-142.40
-133.98
-122.32
-108.16
-92.49
-76.26
-60.15
-44.53
-29.56
-15.26
-1.65
11.22
23.30
34.57
45.02
54.60
63.19
70.63
76.82
81.86
86.15
90.28
94.90
100.42
106.83
113.72
120.43
126.31
130.96
134.33
136.71
138.62
140.60
143.12
146.37
150.28
154.42
158.11
160.47
160.68
158.14
152.68
144.55
134.28
122.49
109.75
96.54
83.24
70.23
57.76
45.96
34.69
23.63
12.40
0.70
-11.62
-24.64
-38.43
-52.98
-67.96
-82.58
-95.54
-105.34
-110.79
-111.44
-107.80
-101.20
-93.42
-86.21
-80.94
-78.43
-78.90
-82.07
-87.26
-93.60
-100.13
-106.08
-110.89
-114.27
-116.22
-116.84
-116.35
-114.94
-112.73
-109.74
-105.93
-101.21
-95.50
-88.80
-81.21
-72.93
-64.23
-55.49
-47.08
-39.38
-32.63
-26.91
-22.13
-18.07
-14.50
-11.23
-8.19
-5.36
-2.78
-0.44
1.68
3.55
5.09
6.21
6.81
6.88
6.49
5.85
5.17
4.63
4.32
4.22
4.24
4.27
4.25
4.22
4.25
4.41
4.74
5.14
5.44
5.50
5.21
4.61
3.81
2.94
2.09
1.27
0.52
-0.08
-0.40
-0.21
0.66
2.24
4.39
6.78
9.07
10.95
12.32
13.19
13.70
14.03
14.33
14.70
15.24
15.98
16.91
18.02
19.22
20.44
21.63
22.83
24.07
25.35
26.65
27.85
28.83
29.60
30.28
31.12
32.37
34.17
36.48
39.11
41.83
44.53
47.32
50.45
54.24
58.91
64.50
70.81
77.49
84.15
90.42
96.06
101.05
105.66
110.52
116.65
125.24
137.16
152.49
170.08
187.68
202.53
212.23
215.56
212.62
204.52
192.60
177.90
160.99
142.33
122.71
103.45
86.09
71.89
61.32
53.99
48.92
44.94
41.04
36.42
30.50
22.96
13.84
3.73
-6.15
-14.24
-19.07
-19.80
-16.40
-9.63
-0.66
9.41
19.89
30.52
41.30
52.10
62.54
71.97
79.76
85.57
89.69
92.81
95.71
98.92
102.55
106.36
109.94
112.78
114.10
112.71
107.00
95.36
76.87
51.86
22.06
-9.97
-41.77
-71.73
-99.33
-124.74
-148.18
-169.36
-187.32
-200.71
-208.27
-209.24
-203.68
-192.47
-177.19
-159.88
-142.71
-127.82
-117.07
-111.92
-113.08
-120.28
-132.20
-146.90
-162.45
-177.79
-192.76
-207.37
-220.68
-230.03
-231.69
-222.54
-202.08
-173.21
-141.29
-111.92
-88.81
-72.85
-62.67
-56.17
-51.63
-48.05
-44.71
-40.86
-35.94
-30.22
-25.13
-23.05
-26.23
-35.69
-50.76
-69.28
-88.36
-105.24
-117.76
-124.68
-125.73
-121.67
-113.92
-104.00
-92.79
-80.25
-65.59
-48.06
-27.76
-6.09
14.57
31.82
44.02
50.86
53.33
53.15
52.14
51.88
53.37
56.94
61.96
66.92
69.78
68.63
62.55
51.93
38.36
23.96
10.72
0.00
-7.41
-11.03
-10.46
-5.34
4.44
18.68
36.91
58.60
83.09
109.26
134.88
156.30
169.00
169.12
155.07
128.42
93.44
55.34
18.18
-16.35
-48.83
-80.98
-114.47
-150.55
-190.05
-233.41
-279.96
-326.70
-367.64
-394.66
-399.86
-378.56
-331.08
-262.79
-182.37
-99.73
-24.52
34.99
72.76
86.43
78.59
57.07
33.18
18.15
19.23
37.28
67.12
100.31
128.78
147.49
155.27
153.90
146.46
135.81
124.03
112.29
101.12
90.69
80.90
71.47
61.95
51.92
41.14
29.78
18.51
8.37
0.47
-4.30
-5.61
-3.84
0.03
4.72
9.02
12.08
13.66
14.06
13.95
14.06
14.93
16.62
18.81
20.95
22.50
23.21
23.11
22.47
21.57
20.58
19.46
18.08
16.31
14.16
11.80
9.51
7.63
6.38
5.85
5.93
6.37
6.83
7.04
6.83
6.25
5.48
4.69
4.01
3.41
2.77
1.95
0.89
-0.31
-1.49
-2.45
-3.14
-3.60
-3.96
-4.33
-4.70
-5.01
-5.17
-5.17
-5.09
-5.02
-5.00
-4.99
-4.83
-4.40
-3.65
-2.65
-1.50
-0.25
1.14
2.75
4.67
6.92
9.39
11.82
13.89
15.23
15.57
14.78
12.89
10.03
6.31
1.82
-3.41
-9.26
-15.50
-21.58
-26.65
-29.67
-29.53
-25.24
-16.13
-2.18
15.74
35.75
55.14
70.99
80.98
84.18
81.34
74.63
66.95
61.08
59.12
62.16
70.24
82.23
96.08
109.08
118.64
123.27
123.43
121.66
121.83
127.68
141.15
161.56
185.60
208.28
224.56
230.68
224.98
208.04
181.99
149.59
113.30
74.62
33.95
-9.26
-55.88
-106.38
-160.15
-215.06
-267.78
-314.45
-351.68
-377.30
-390.56
-391.86
-382.16
-362.35
-333.13
-295.22
-249.79
-198.79
-144.89
-91.26
-41.17
2.34
36.69
59.98
71.19
70.55
59.67
41.72
21.17
3.17
-7.21
-5.97
9.11
38.08
78.79
127.24
178.26
226.48
267.34
298.16
318.62
330.32
335.69
336.24
331.53
319.19
296.19
260.65
213.28
157.56
98.69
41.91
-9.06
-52.78
-89.93
-122.45
-152.35
-180.53
-205.90
-225.02
-232.92
-225.08
-199.99
-161.06
-116.58
-77.16
-51.78
-44.31
-52.27
-68.52
-84.89
-95.69
-99.35
-97.61
-93.22
-87.63
-80.35
-69.68
-54.29
-34.31
-11.31
12.81
36.89
61.20
87.05
115.79
147.76
181.72
215.19
245.37
270.06
288.19
299.52
303.90
300.71
288.69
266.38
232.93
188.89
136.56
79.81
23.29
-28.50
-72.20
-106.02
-129.68
-143.89
-149.70
-148.20
-140.60
-128.67
-115.17
-103.79
-98.31
-101.45
-113.77
-133.38
-156.64
-179.33
-197.94
-210.22
-215.31
-213.33
-204.89
-190.93
-172.67
-151.65
-129.71
-108.70
-90.14
-74.84
-62.89
-53.75
-46.57
-40.63
-35.52
-31.20
-27.92
-26.01
-25.67
-26.94
-29.66
-33.62
-38.57
-44.27
-50.47
-56.84
-62.93
-68.31
-72.61
-75.71
-77.80
-79.38
-81.02
-83.10
-85.59
-88.07
-89.85
-90.29
-88.84
-84.88
-77.36
-64.85
-46.05
-20.55
10.56
44.88
79.56
112.18
141.17
165.37
183.42
193.45
193.72
183.77
165.46
142.91
121.18
104.49
94.80
91.57
92.61
95.31
97.50
97.66
94.67
87.80
76.93
62.83
47.13
31.60
17.25
3.54
-11.75
-31.80
-59.58
-96.54
-141.64
-190.91
-238.06
-275.94
-298.55
-303.09
-290.95
-267.08
-237.93
-208.57
-180.81
-152.97
-121.56
-83.57
-38.16
13.25
68.04
123.62
178.01
229.33
275.17
312.41
337.94
349.91
348.67
336.71
317.68
295.21
272.01
249.91
230.08
213.06
198.25
183.48
165.12
139.41
104.25
60.76
13.34
-31.77
-69.02
-95.58
-112.01
-121.17
-126.37
-129.58
-131.05
-129.92
-125.55
-118.46
-110.46
-103.94
-100.83
-101.80
-105.95
-111.20
-114.84
-114.33
-107.91
-94.84
-75.56
-51.67
-25.75
-1.05
19.04
31.64
35.09
29.32
15.81
-2.91
-23.93
-44.64
-62.98
-77.46
-87.03
-91.09
-89.63
-83.41
-73.99
-63.21
-52.54
-42.55
-32.85
-22.63
-11.31
0.78
12.38
21.70
27.10
27.72
23.78
16.46
7.46
-1.42
-8.74
-13.66
-16.06
-16.29
-15.00
-12.84
-10.26
-7.56
-4.93
-2.55
-0.61
0.84
1.89
2.78
3.77
4.98
6.21
7.07
7.10
6.04
3.95
1.22
-1.65
-4.27
-6.57
-8.74
-11.14
-14.06
-17.57
-21.52
-25.69
-29.87
-33.96
-37.86
-41.35
-43.97
-45.02
-43.77
-39.61
-32.27
-21.85
-8.79
6.25
22.36
38.36
52.81
64.14
71.04
72.83
69.93
63.73
56.32
49.73
45.31
43.49
43.77
45.17
46.74
47.76
47.85
46.78
44.42
40.61
35.38
28.98
21.96
15.01
8.80
3.83
0.32
-1.79
-2.83
-3.24
-3.48
-3.82
-4.29
-4.70
-4.78
-4.41
-3.71
-3.10
-3.01
-3.76
-5.38
-7.57
-9.94
-12.10
-13.86
-15.22
-16.27
-17.13
-17.83
-18.34
-18.59
-18.51
-18.08
-17.32
-16.27
-14.95
-13.39
-11.63
-9.82
-8.19
-7.00
-6.44
-6.51
-7.05
-7.79
-8.48
-8.94
-9.16
-9.18
-9.12
-9.04
-8.97
-8.97
-9.09
-9.37
-9.80
-10.35
-10.93
-11.50
-12.05
-12.58
-13.11
-13.55
-13.76
-13.58
-12.93
-11.79
-10.30
-8.69
-7.22
-6.16
-5.72
-6.07
-7.25
-9.23
-11.87
-14.96
-18.29
-21.70
-25.17
-28.73
-32.53
-36.66
-41.19
-46.02
-51.02
-56.04
-60.98
-65.90
-70.86
-75.98
-81.24
-86.47
-91.30
-95.29
-97.95
-98.92
-98.06
-95.44
-91.34
-86.11
-80.00
-73.07
-65.22
-56.26
-46.22
-35.43
-24.59
-14.64
-6.57
-1.09
1.43
1.12
-1.34
-4.80
-7.74
-8.55
-5.86
1.11
12.32
26.96
43.66
60.89
77.21
91.36
102.24
108.77
109.93
105.02
93.93
77.42
57.15
35.38
14.55
-3.35
-17.09
-26.29
-31.23
-32.52
-30.63
-25.78
-17.87
-6.79
7.29
23.56
40.56
56.42
69.30
77.89
81.82
81.73
79.17
76.32
75.49
78.44
85.47
94.60
101.38
99.70
83.83
50.90
2.44
-55.63
-114.64
-165.70
-201.71
-218.40
-214.23
-190.02
-149.06
-97.27
-43.16
3.48
33.87
42.59
28.60
-5.40
-54.71
-113.97
-177.49
-238.65
-289.74
-323.05
-333.18
-319.24
-285.48
-239.64
-189.87
-142.00
-98.66
-60.60
-28.74
-5.23
7.28
7.56
-2.67
-19.15
-37.41
-55.54
-75.38
-101.11
-135.90
-178.43
-221.84
-255.59
-269.67
-258.64
-223.49
-170.53
-108.19
-43.82
18.03
75.24
126.53
170.16
203.82
225.69
235.76
236.32
231.36
225.04
220.15
217.34
215.41
212.41
206.81
198.31
187.86
177.13
167.76
160.62
155.61
151.82
147.98
143.09
136.76
129.34
121.59
114.31
107.92
102.35
97.16
91.81
85.99
79.74
73.43
67.64
63.00
59.99
58.90
59.76
62.33
66.13
70.40
74.08
75.88
74.35
68.25
56.99
40.93
21.68
1.80
-15.81
-28.69
-35.47
-36.17
-31.85
-24.15
-14.65
-4.59
5.16
13.98
21.28
26.59
29.63
30.63
30.28
29.61
29.56
30.65
32.79
35.41
37.85
39.63
40.70
41.40
42.18
43.34
44.86
46.45
47.72
48.39
48.37
47.77
46.79
45.69
44.78
44.43
45.06
47.08
50.71
55.91
62.35
69.48
76.68
83.34
88.84
92.57
93.94
92.48
87.95
80.50
70.65
59.13
46.72
33.92
20.99
7.85
-5.67
-19.78
-34.45
-49.26
-63.32
-75.30
-83.71
-87.41
-85.99
-80.00
-70.75
-59.98
-49.27
-39.75
-32.02
-26.28
-22.51
-20.52
-19.85
-19.67
-18.84
-16.14
-10.80
-2.91
6.21
14.33
18.77
17.40
9.34
-4.61
-22.25
-40.78
-57.93
-72.72
-85.51
-97.59
-110.16
-123.68
-137.53
-150.29
-160.07
-164.90
-162.91
-152.63
-133.39
-105.62
-71.10
-32.63
6.48
43.21
75.39
101.83
122.13
136.25
144.40
146.99
144.66
138.41
129.42
118.84
107.62
96.46
85.83
76.04
67.30
59.71
53.31
48.01
43.53
39.46
35.28
30.62
25.38
19.80
14.39
9.79
6.45
4.53
3.84
3.89
4.12
4.10
3.58
2.53
0.94
-1.31
-4.50
-8.95
-14.71
-21.33
-27.79
-32.69
-34.66
-32.83
-27.05
-17.88
-6.34
6.36
19.03
30.66
40.39
47.58
51.95
53.61
52.94
50.48
46.55
40.99
33.34
23.34
11.74
0.72
-6.55
-7.14
0.17
14.03
30.83
46.20
56.80
61.54
61.61
59.48
57.48
56.93
58.20
61.15
65.74
71.96
79.49
87.24
93.53
96.75
96.12
92.13
86.22
80.13
74.89
70.47
65.89
59.85
51.23
39.40
24.08
5.26
-16.83
-41.62
-68.19
-95.47
-122.74
-149.84
-177.00
-204.24
-230.71
-254.35
-272.35
-282.22
-282.76
-274.69
-260.28
-242.53
-224.02
-206.31
-189.81
-174.18
-158.88
-143.50
-127.89
-111.99
-95.67
-78.66
-60.70
-41.78
-22.38
-3.44
13.83
28.33
39.36
46.80
51.07
52.93
53.22
52.67
51.81
51.04
50.65
50.88
51.90
53.64
55.77
57.81
59.36
60.44
61.62
63.89
68.24
75.19
84.52
95.30
106.29
116.38
124.82
131.26
135.52
137.43
136.80
133.58
127.98
120.52
111.86
102.65
93.36
84.23
75.40
67.06
59.39
52.60
46.88
42.22
38.51
35.47
32.80
30.22
27.55
24.71
21.80
18.91
16.15
13.53
11.03
8.61
6.24
3.91
1.64
-0.57
-2.68
-4.71
-6.70
-8.77
-11.09
-13.76
-16.71
-19.59
-21.79
-22.66
-21.75
-19.06
-15.00
-10.18
-5.07
0.25
6.18
13.38
22.37
33.09
44.85
56.34
66.22
73.71
78.91
82.83
86.89
92.20
99.03
106.68
113.80
118.94
120.85
118.58
111.63
100.33
86.39
73.03
64.24
63.24
70.76
84.40
99.59
111.71
118.34
120.22
120.28
121.51
125.07
129.53
131.86
129.09
119.69
103.87
82.96
58.83
33.52
9.15
-12.39
-29.92
-43.60
-54.99
-66.45
-79.93
-95.97
-113.45
-130.36
-144.95
-156.51
-165.44
-172.42
-177.57
-180.05
-178.59
-172.34
-161.64
-148.00
-133.48
-119.90
-108.19
-98.31
-89.58
-81.31
-73.26
-65.79
-59.57
-55.20
-52.80
-51.89
-51.55
-50.61
-48.22
-44.13
-38.80
-33.20
-28.38
-25.16
-23.61
-23.14
-22.42
-20.29
-16.31
-10.88
-5.02
0.30
4.39
7.67
11.06
16.51
25.54
38.61
54.77
71.79
87.00
97.77
103.26
104.18
104.00
106.57
115.20
131.90
157.09
189.78
226.93
264.69
297.84
322.66
336.53
339.13
332.54
320.48
307.10
294.80
285.34
267.21
233.31
182.48
121.02
59.71
7.82
-26.04
-45.94
-57.46
-65.13
-70.14
-72.76
-73.10
-71.67
-69.80
-69.25
-72.41
-80.29
-93.53
-111.08
-131.74
-154.41
-178.50
-204.15
-231.97
-263.28
-298.64
-338.55
-382.71
-431.15
-484.41
-543.10
-606.69
-672.03
-732.97
-780.74
-807.15
-807.31
-781.89
-736.78
-680.67
-621.82
-565.60
-514.07
-466.81
-422.88
-381.90
-344.14
-309.79
-278.27
-248.21
-218.16
-187.41
-156.27
-126.03
-98.33
-74.29
-53.88
-36.03
-19.20
-2.03
16.08
34.81
53.23
70.21
85.05
97.88
109.46
120.83
132.87
145.94
159.87
174.08
187.96
201.08
213.73
226.40
239.58
253.39
267.49
281.20
293.60
303.80
311.06
315.82
318.60
319.73
319.19
316.75
312.25
305.93
298.36
290.35
284.80
284.31
290.74
304.65
325.38
351.38
380.55
410.38
438.08
464.03
488.47
510.91
529.79
543.02
549.16
548.40
542.58
534.38
530.36
534.96
548.89
568.66
588.05
601.03
604.15
597.24
556.88
470.77
338.32
173.26
-1.52
-163.92
-299.84
-404.34
-478.95
-528.57
-555.10
-561.07
-550.02
-526.94
-497.54
-466.87
-438.27
-413.36
-392.52
-372.32
-349.85
-323.59
-294.17
-263.68
-234.53
-208.40
-186.16
-167.98
-151.65
-135.49
-118.79
-102.31
-87.67
-76.57
-70.17
-68.87
-72.44
-79.09
-87.30
-94.72
-100.80
-105.52
-109.09
-111.65
-113.26
-113.96
-113.22
-110.97
-107.31
-102.63
-97.25
-91.49
-85.45
-79.06
-73.70
-68.08
-61.59
-53.85
-44.85
-34.67
-23.54
-11.81
0.08
11.74
23.24
34.43
45.29
55.86
66.19
76.07
85.04
92.39
97.37
99.73
99.30
96.33
91.50
85.80
80.08
75.02
71.06
68.70
68.89
72.71
81.09
94.65
113.16
135.16
158.02
178.49
193.46
200.66
200.18
192.02
176.19
152.38
119.71
77.09
24.18
-38.15
-107.80
-182.24
-259.46
-337.63
-414.03
-484.20
-541.44
-578.04
-587.87
-568.60
-522.60
-455.57
-374.17
-284.68
-193.27
-107.30
-36.20
9.40
20.87
-4.40
-60.44
-133.47
-206.12
-263.21
-296.24
-304.59
-294.21
-273.46
-249.57
-226.31
-204.21
-182.31
-160.12
-138.26
-117.23
-97.10
-76.31
-52.73
-24.12
9.95
47.27
83.23
112.56
132.73
143.77
148.32
149.47
150.74
153.93
158.77
162.76
163.07
160.30
157.01
157.73
166.61
189.08
229.25
288.26
361.67
439.64
510.73
561.72
581.54
563.47
510.88
435.34
353.16
278.73
206.82
134.23
57.99
-7.21
-57.83
-91.40
-110.48
-114.21
-102.75
-77.81
-39.65
10.93
65.67
114.58
150.38
169.22
171.46
159.23
135.25
104.22
70.32
37.27
7.25
-17.31
-34.95
-45.56
-51.19
-54.89
-58.22
-62.04
-66.28
-70.58
-73.62
-74.15
-71.57
-66.75
-61.39
-56.69
-53.37
-51.51
-50.60
-49.54
-47.02
-42.33
-35.81
-28.67
-22.12
-17.11
-13.92
-12.03
-10.39
-7.61
-2.83
3.82
11.37
18.47
23.99
27.44
30.20
32.32
34.55
37.56
41.79
47.31
53.58
59.03
61.05
56.52
42.90
19.92
-9.95
-42.03
-71.09
-93.33
-107.49
-114.71
-117.26
-117.21
-115.68
-112.95
-109.37
-105.77
-103.38
-102.95
-104.03
-104.85
-103.08
-97.22
-87.22
-74.97
-63.74
-57.04
-57.19
-64.44
-76.99
-91.69
-105.86
-117.93
-128.10
-138.22
-151.04
-169.26
-194.63
-227.30
-261.48
-290.50
-306.64
-303.07
-276.16
-227.12
-161.87
-89.05
-16.99
48.92
106.81
158.23
205.96
251.92
295.73
334.81
365.36
383.88
388.52
379.25
358.25
328.97
294.92
259.05
223.71
191.10
163.67
143.85
133.09
131.34
136.62
145.66
155.01
162.24
166.51
168.52
169.91
172.21
176.01
180.25
181.93
176.66
159.99
129.06
83.94
27.87
-33.77
-94.99
-150.99
-199.05
-238.52
-270.08
-294.68
-312.63
-323.34
-325.58
-318.11
-300.62
-274.31
-242.08
-207.91
-175.98
-149.67
-130.82
-119.71
-115.37
-116.19
-120.56
-127.21
-135.11
-143.23
-149.99
-153.04
-149.50
-136.80
-114.04
-82.94
-48.12
-16.03
7.01
16.88
12.93
-2.10
-23.30
-45.46
-64.40
-77.60
-83.87
-82.48
-72.54
-52.90
-22.61
18.38
68.63
124.93
182.46
235.48
278.49
307.58
321.37
321.17
310.26
292.37
270.34
245.50
218.05
188.14
156.74
125.92
98.12
75.24
57.93
45.61
36.92
30.25
23.78
15.40
3.25
-13.19
-31.77
-47.38
-53.48
-45.19
-22.37
9.34
40.32
61.04
66.14
56.36
37.26
15.90
-2.65
-16.82
-27.73
-37.08
-45.35
-51.52
-54.00
-51.95
-46.00
-37.87
-29.69
-23.06
-18.73
-16.62
-16.20
-16.81
-18.01
-19.81
-22.70
-27.57
-35.14
-45.33
-56.87
-67.42
-74.18
-74.86
-68.54
-55.90
-38.95
-20.18
-1.80
15.01
30.14
44.33
58.63
73.85
90.10
106.78
122.71
136.67
147.71
155.50
160.05
161.30
158.63
150.70
135.88
113.01
82.33
45.82
6.91
-30.53
-63.37
-90.11
-111.15
-128.35
-144.14
-160.64
-178.80
-197.84
-215.22
-227.06
-229.13
-218.46
-194.77
-161.52
-125.65
-96.17
-81.88
-88.68
-117.57
-163.60
-216.56
-263.31
-291.25
-292.22
-265.25
-216.93
-159.21
-105.16
-64.61
-41.41
-33.16
-33.55
-35.43
-33.56
-25.54
-11.40
7.72
30.43
55.48
81.46
106.54
128.50
145.27
155.69
159.96
159.53
156.59
153.00
149.46
145.20
138.53
127.87
112.90
94.97
76.75
61.12
50.01
43.60
40.35
37.61
32.60
23.36
9.40
-8.08
-26.38
-42.05
-52.02
-54.61
-50.16
-40.76
-29.32
-18.23
-8.60
-0.07
8.45
17.90
28.38
39.08
48.64
55.62
59.02
58.43
54.14
47.02
38.49
30.27
24.18
21.67
23.50
29.46
38.25
47.83
55.90
60.64
61.31
58.40
53.31
47.69
42.57
38.02
33.22
27.20
19.44
10.29
0.98
-6.74
-11.18
-11.33
-7.52
-1.61
3.29
3.92
-1.70
-13.20
-27.56
-40.15
-46.50
-43.97
-32.60
-14.76
6.06
26.56
44.48
58.87
69.89
78.56
86.55
95.85
108.12
124.02
142.76
161.94
178.10
187.71
188.23
178.98
161.29
137.87
111.68
84.86
58.23
31.43
3.92
-24.30
-52.15
-77.88
-99.74
-116.73
-128.74
-136.33
-140.11
-140.47
-137.58
-131.71
-123.57
-114.36
-105.46
-98.02
-92.64
-89.27
-87.37
-86.25
-85.39
-84.51
-83.64
-82.79
-81.88
-80.66
-78.90
-76.56
-73.89
-71.30
-69.50
-68.56
-67.58
-64.98
-59.35
-50.06
-37.31
-21.83
-4.29
14.53
34.43
55.90
79.58
105.63
133.42
161.81
189.59
215.92
239.18
258.45
274.01
287.21
299.72
313.07
328.35
345.79
364.08
376.59
376.50
360.00
327.79
283.61
232.35
178.86
126.98
79.00
28.56
-29.28
-93.59
-157.69
-214.47
-260.38
-295.81
-323.31
-345.96
-377.55
-427.14
-493.27
-565.11
-631.20
-685.53
-727.69
-760.12
-785.93
-822.35
-880.87
-959.63
-1044.78
-1121.36
-1181.06
-1222.62
-1248.31
-1169.57
-944.09
-601.52
-227.71
100.75
352.59
531.69
655.03
740.32
800.99
830.86
824.65
786.93
733.53
680.77
638.61
609.75
593.00
585.12
570.59
537.41
483.62
416.84
345.87
280.19
223.51
177.51
143.50
115.49
88.80
62.67
39.36
19.45
0.14
-23.46
-54.55
-93.48
-142.02
-200.72
-268.69
-343.88
-423.98
-505.49
-582.51
-645.75
-684.87
-693.58
-671.15
-622.37
-555.35
-478.56
-397.87
-315.73
-231.82
-145.72
-59.19
23.78
98.60
162.44
215.61
261.47
304.50
348.43
394.72
442.24
488.64
531.74
570.24
603.28
630.04
649.46
661.04
665.17
663.30
657.55
649.65
639.24
623.25
597.32
558.32
506.48
444.98
378.26
310.67
245.76
185.69
131.57
84.25
44.92
14.73
-7.12
-24.31
-42.04
-64.69
-94.98
-134.03
-181.63
-236.62
-291.79
-334.52
-355.82
-357.09
-346.16
-330.15
-312.64
-294.42
-274.91
-253.27
-229.96
-207.04
-186.97
-170.72
-157.72
-146.79
-136.70
-126.40
-115.07
-102.97
-91.34
-81.85
-74.94
-70.00
-66.07
-62.36
-58.27
-53.45
-48.27
-43.47
-40.19
-38.61
-38.09
-37.74
-36.83
-34.75
-31.00
-27.21
-22.38
-16.63
-9.84
-1.63
8.34
20.28
34.14
49.70
66.25
83.21
99.15
113.28
125.28
135.08
142.79
148.59
152.71
154.56
153.86
149.56
141.61
130.71
118.06
105.03
92.93
82.83
73.80
64.72
53.63
40.05
24.65
8.83
-6.11
-19.33
-30.87
-45.03
-60.54
-78.73
-99.47
-121.11
-141.07
-156.90
-167.02
-170.92
-172.98
-178.46
-192.77
-218.55
-256.32
-305.80
-367.24
-440.46
-502.70
-533.61
-520.89
-467.67
-387.70
-297.78
-212.65
-143.09
-93.91
-63.50
-49.08
-45.79
-49.45
-56.37
-65.38
-72.65
-75.11
-70.49
-57.81
-40.52
-22.98
-9.80
-3.66
-4.71
-11.07
-20.52
-30.54
-38.51
-48.30
-62.05
-80.91
-103.98
-128.19
-149.52
-164.44
-170.41
-165.93
-151.47
-127.74
-96.03
-57.40
-11.47
41.85
101.40
164.74
228.68
289.65
344.94
392.15
430.06
460.60
485.56
505.42
519.29
525.85
524.44
515.69
500.42
480.46
461.37
446.96
438.05
432.51
427.05
419.29
408.50
394.43
378.55
367.15
364.15
369.51
379.26
387.90
391.04
386.44
372.65
319.27
212.86
59.52
-116.63
-287.50
-434.13
-549.49
-629.19
-683.37
-719.43
-736.84
-735.00
-715.60
-682.93
-643.28
-601.38
-559.98
-521.13
-484.43
-445.61
-402.05
-353.99
-304.41
-257.20
-215.05
-178.95
-149.20
-124.23
-100.13
-74.32
-46.32
-17.65
9.22
32.42
51.01
64.44
73.38
79.72
84.76
88.77
91.13
90.79
86.99
79.44
68.08
53.45
36.62
18.44
-0.52
-19.97
-39.76
-59.50
-78.66
-96.63
-112.63
-126.01
-136.28
-143.19
-146.67
-146.85
-143.94
-138.26
-130.07
-119.66
-107.30
-93.29
-77.99
-61.85
-45.32
-28.85
-12.70
3.02
18.43
33.69
48.91
64.01
78.66
92.36
104.58
115.00
123.59
130.64
136.53
141.50
145.41
147.76
147.79
144.94
139.15
131.14
122.32
114.41
108.96
106.86
108.23
112.57
119.24
127.82
138.47
151.81
168.76
190.36
217.47
250.32
287.95
327.51
364.29
392.56
407.28
405.99
389.85
363.30
332.37
302.40
276.51
255.32
237.80
222.51
208.40
194.80
180.94
165.64
147.42
125.14
98.59
68.67
37.18
6.44
-21.21
-43.62
-59.08
-66.72
-66.78
-60.77
-51.20
-40.79
-31.67
-24.97
-20.91
-19.33
-20.11
-23.36
-28.99
-36.25
-43.46
-48.32
-48.59
-42.97
-31.54
-15.86
1.57
18.10
31.72
41.74
48.82
54.67
61.26
70.11
81.66
95.18
108.86
120.33
127.06
126.93
118.64
102.22
79.24
52.47
25.23
0.50
-19.79
-34.90
-45.06
-50.78
-52.59
-50.98
-46.74
-41.29
-36.65
-35.01
-37.94
-45.83
-57.71
-71.61
-85.42
-97.71
-108.19
-117.78
-128.04
-140.42
-155.64
-173.35
-192.20
-210.13
-224.74
-233.91
-236.55
-233.27
-226.59
-220.35
-218.39
-222.87
-232.95
-244.58
-251.51
-247.16
-226.74
-188.87
-136.09
-74.27
-11.04
46.10
91.64
123.20
141.62
150.03
152.34
151.75
149.91
147.14
143.09
137.66
131.31
124.90
119.20
114.31
109.61
104.02
96.54
86.62
74.25
59.89
44.40
29.34
17.37
12.20
17.67
36.00
65.90
101.90
135.42
157.51
162.01
147.45
117.05
76.77
32.83
-10.15
-49.58
-84.19
-113.11
-135.24
-149.49
-155.26
-152.98
-144.14
-130.94
-115.70
-100.33
-86.00
-73.04
-61.21
-49.91
-38.47
-26.18
-12.35
3.70
22.37
43.50
66.13
88.76
109.77
128.22
144.11
158.44
172.49
187.34
203.29
219.68
234.79
245.93
249.99
244.54
229.25
206.84
182.66
162.74
150.88
146.57
144.84
138.40
120.97
90.01
47.44
-1.71
-51.79
-98.51
-139.43
-173.37
-199.25
-215.73
-221.60
-216.71
-202.62
-182.42
-159.73
-137.19
-115.24
-91.85
-63.43
-26.61
19.85
74.14
131.56
185.79
230.83
262.36
278.48
279.55
267.66
246.13
218.86
189.74
161.66
135.88
111.68
86.90
59.20
27.21
-9.00
-48.26
-89.46
-132.72
-179.82
-233.46
-295.36
-364.24
-434.72
-498.12
-544.95
-568.25
-566.03
-541.83
-502.98
-457.58
-411.55
-367.38
-324.68
-281.79
-237.26
-190.40
-141.05
-89.52
-36.95
14.01
58.92
92.57
110.78
112.19
99.03
76.30
49.85
24.48
2.90
-14.02
-26.34
-34.17
-37.50
-36.56
-32.24
-26.21
-20.38
-16.30
-14.66
-15.22
-16.96
-18.55
-18.64
-16.13
-10.27
-0.86
11.72
26.40
41.58
55.53
66.68
74.18
77.94
78.63
77.22
74.65
71.51
67.97
63.99
59.49
54.57
49.54
44.82
40.81
37.77
35.79
34.79
34.49
34.40
33.89
32.42
30.06
27.92
28.24
33.87
47.03
68.05
94.63
122.12
145.07
158.97
161.79
154.22
138.75
118.23
94.63
68.85
41.35
13.13
-13.79
-36.66
-53.13
-62.22
-64.76
-62.96
-59.44
-56.26
-54.43
-54.07
-54.98
-57.03
-60.33
-64.90
-70.39
-75.85
-79.92
-81.30
-79.17
-73.50
-65.11
-55.33
-45.66
-37.34
-31.07
-26.95
-24.55
-23.14
-21.90
-20.23
-17.81
-14.68
-11.17
-7.70
-4.74
-2.66
-1.71
-2.08
-3.89
-7.19
-11.83
-17.31
-22.77
-27.18
-29.60
-29.55
-27.24
-23.46
-19.29
-15.71
-13.34
-12.27
-12.17
-12.53
-12.87
-12.81
-12.10
-10.59
-8.21
-5.06
-1.46
2.05
4.79
6.23
6.26
5.27
4.05
3.42
3.84
5.12
6.57
7.34
6.93
5.50
3.77
2.64
2.60
3.49
4.54
4.83
3.81
1.55
-1.35
-4.19
-6.59
-8.63
-10.76
-13.34
-16.34
-19.24
-21.18
-21.38
-19.41
-15.38
-9.78
-3.31
3.38
9.80
15.64
20.68
24.74
27.63
29.24
29.62
29.07
28.10
27.29
27.10
27.65
28.75
29.97
30.93
31.44
31.64
31.87
32.44
33.46
34.70
35.63
35.74
34.68
32.49
29.54
26.32
23.28
20.65
18.43
16.45
14.50
12.39
10.02
7.32
4.29
1.11
-1.98
-4.66
-6.74
-8.23
-9.36
-10.45
-11.74
-13.25
-14.81
-16.23
-17.45
-18.65
-20.12
-22.08
-24.47
-26.92
-28.96
-30.11
-30.24
-29.52
-28.34
-26.96
-25.46
-23.76
-21.83
-19.86
-18.17
-17.00
-16.34
-15.82
-14.94
-13.42
-11.41
-9.49
-8.36
-8.30
-9.15
-10.51
-12.04
-13.77
-15.99
-19.11
-23.23
-27.99
-32.02
-33.89
-32.74
-28.59
-22.34
-15.41
-9.19
-4.72
-2.46
-1.26
0.28
3.32
8.52
16.27
27.05
41.45
59.80
81.75
107.88
137.86
170.42
203.64
235.47
264.30
289.01
308.84
323.28
334.57
345.01
355.94
367.00
376.18
380.89
379.28
371.05
343.02
289.14
211.06
118.53
25.25
-57.63
-124.62
-175.06
-210.67
-233.82
-244.50
-243.23
-232.23
-215.12
-196.37
-179.72
-167.23
-159.13
-154.32
-149.43
-141.86
-131.68
-120.63
-111.94
-108.49
-111.52
-120.33
-132.84
-145.51
-155.48
-162.62
-168.21
-174.63
-184.08
-198.13
-217.72
-243.07
-272.78
-298.41
-313.97
-313.97
-295.53
-259.97
-213.66
-166.17
-126.71
-100.56
-87.67
-84.84
-87.16
-91.26
-95.62
-100.22
-105.19
-109.86
-112.87
-113.10
-111.18
-108.60
-107.38
-108.75
-112.88
-118.66
-124.12
-127.11
-126.06
-120.53
-110.33
-98.34
-85.94
-73.57
-60.96
-47.42
-32.42
-15.89
1.55
19.19
36.47
53.75
71.77
91.25
112.65
135.91
160.45
185.32
209.68
233.00
255.61
278.24
301.99
327.99
356.93
388.24
419.57
446.90
465.44
471.45
463.50
443.14
414.37
382.02
350.10
320.74
294.28
270.11
247.83
227.62
209.97
195.13
182.60
171.17
159.41
146.24
131.25
114.88
98.06
81.73
66.65
53.29
41.93
32.71
25.59
20.07
15.15
9.47
1.70
-8.89
-22.08
-36.75
-51.34
-64.46
-75.35
-83.93
-90.54
-95.50
-98.93
-100.78
-101.08
-100.00
-97.89
-95.00
-91.40
-86.98
-81.66
-75.65
-69.59
-64.36
-60.81
-59.41
-60.11
-62.41
-65.61
-69.00
-71.99
-74.07
-74.83
-74.00
-71.52
-67.71
-63.14
-58.52
-54.45
-51.18
-48.60
-46.35
-44.01
-41.37
-38.47
-35.59
-33.16
-31.56
-31.03
-31.59
-33.08
-35.22
-37.74
-40.39
-43.09
-45.91
-48.97
-52.39
-56.08
-59.61
-62.20
-62.87
-60.87
-56.11
-49.34
-41.99
-35.73
-31.84
-30.81
-32.13
-34.65
-37.03
-38.25
-37.89
-36.24
-34.01
-32.11
-31.20
-31.51
-32.71
-34.12
-34.97
-34.76
-33.28
-30.47
-26.16
-19.94
-11.35
-0.35
12.35
25.38
37.08
46.45
53.50
59.00
63.60
67.01
67.87
64.46
55.81
42.13
24.66
4.77
-16.98
-40.90
-67.48
-96.51
-126.70
-156.26
-184.20
-211.51
-241.05
-276.11
-317.78
-363.07
-404.78
-433.43
-440.82
-423.03
-381.68
-322.77
-253.94
-181.52
-109.40
-39.38
27.13
87.85
139.51
179.02
204.92
218.18
221.76
219.26
213.67
206.59
198.35
188.42
176.18
161.29
143.96
124.82
104.81
84.96
66.24
49.50
35.53
24.83
17.61
13.84
13.30
15.65
20.29
26.11
31.40
34.06
32.26
25.11
13.12
-2.07
-18.33
-33.81
-47.38
-58.37
-66.11
-69.65
-67.93
-60.38
-47.50
-30.98
-13.13
3.87
18.65
30.82
40.68
48.78
55.47
60.81
64.59
66.53
66.54
64.80
61.77
58.06
54.14
50.09
45.61
40.16
33.39
25.38
16.73
8.28
0.76
-5.64
-11.29
-16.96
-23.44
-31.21
-40.30
-50.32
-60.68
-70.80
-80.25
-88.70
-95.82
-101.14
-104.05
-103.90
-100.07
-92.19
-80.30
-64.96
-47.22
-28.60
-10.80
4.51
15.90
22.18
22.49
16.46
4.45
-12.24
-31.39
-50.24
-66.11
-77.24
-82.90
-82.93
-77.72
-67.82
-53.50
-34.89
-12.17
14.16
43.03
73.01
102.86
131.34
157.35
180.22
199.64
215.52
227.78
235.93
239.75
240.29
239.00
237.13
235.39
233.32
229.18
220.54
204.37
179.44
149.09
118.36
92.22
75.12
69.74
76.31
92.94
114.44
135.76
156.73
176.71
192.48
200.68
198.31
183.82
157.95
120.43
72.89
24.14
-19.63
-57.99
-91.96
-123.03
-152.40
-180.69
-212.45
-251.39
-291.52
-327.80
-359.50
-385.29
-403.88
-414.73
-390.93
-315.96
-233.37
-167.29
-111.36
-63.63
-21.41
17.73
54.74
88.55
112.05
118.55
112.36
99.02
81.85
65.38
53.42
47.05
44.09
36.87
17.91
-11.26
-47.76
-90.11
-134.81
-176.44
-207.83
-221.03
-212.08
-182.04
-134.93
-82.07
-38.83
-15.43
-12.02
-18.93
-22.30
-13.18
7.96
33.31
50.67
49.92
29.07
-6.03
-46.44
-85.57
-122.62
-161.60
-207.05
-261.35
-323.09
-386.73
-444.63
-489.29
-515.40
-520.88
-507.11
-478.25
-439.69
-396.38
-351.59
-306.74
-262.25
-218.80
-178.10
-142.58
-114.18
-93.14
-77.50
-63.75
-48.39
-29.27
-6.25
18.86
43.25
64.23
80.16
90.92
97.88
103.37
109.93
119.53
132.86
149.22
166.71
183.22
197.18
208.52
218.78
230.71
247.55
272.05
305.94
349.25
399.66
452.05
498.68
530.36
538.61
518.38
470.06
399.83
317.68
233.72
154.54
81.31
10.83
-61.20
-136.31
-211.19
-278.48
-330.00
-360.60
-370.31
-363.83
-347.80
-327.48
-304.88
-279.24
-249.11
-214.51
-177.80
-142.74
-112.63
-88.62
-69.18
-51.00
-30.73
-6.59
20.85
48.96
74.34
94.35
108.18
117.16
124.06
131.87
142.67
157.24
175.26
195.78
217.58
238.96
257.53
270.29
274.41
268.75
254.86
236.94
220.25
208.88
203.93
203.38
203.43
200.70
193.69
182.89
169.59
154.55
137.42
117.34
93.99
68.37
42.53
18.68
-1.94
-19.44
-34.79
-48.92
-62.01
-73.46
-82.39
-88.36
-91.73
-93.47
-94.71
-96.22
-98.29
-100.80
-103.45
-105.84
-107.25
-106.57
-102.41
-93.57
-79.72
-61.76
-41.70
-21.94
-4.25
10.89
24.25
37.11
50.40
63.97
76.68
87.06
94.02
97.42
97.87
96.31
93.46
89.49
84.25
77.52
69.43
60.50
51.55
43.36
36.42
30.87
26.54
23.10
20.24
17.78
15.72
14.16
13.17
12.75
12.71
12.71
12.37
11.45
9.88
7.82
5.59
3.61
2.16
1.37
1.14
1.17
1.05
0.43
-0.79
-2.51
-4.39
-6.13
-7.52
-8.59
-9.50
-10.45
-11.47
-12.41
-12.97
-12.83
-11.82
-9.96
-7.43
-4.52
-1.53
1.25
3.60
5.33
6.33
6.58
6.13
5.17
3.96
2.87
2.21
2.20
2.85
3.98
5.29
6.41
7.11
7.32
7.23
7.09
7.20
7.67
8.42
9.24
9.87
10.20
10.28
10.35
10.69
11.58
13.10
15.16
17.54
19.96
22.21
24.21
26.07
27.92
29.87
31.87
33.67
34.87
35.15
34.28
32.24
29.17
25.20
20.37
14.56
7.58
-0.82
-10.80
-22.34
-35.15
-48.68
-62.17
-74.83
-86.10
-95.67
-103.56
-109.90
-114.70
-117.85
-119.07
-118.13
-114.96
-109.72
-102.67
-94.11
-84.30
-73.50
-61.96
-49.91
-37.49
-24.69
-11.41
2.28
15.92
28.56
38.99
46.18
49.68
49.84
47.63
44.30
40.88
38.01
35.88
34.45
33.59
33.21
33.25
33.59
34.07
34.49
34.67
34.53
34.05
33.29
32.24
30.94
29.35
27.45
25.25
22.78
20.09
17.28
14.48
11.79
9.29
7.03
4.97
3.03
1.09
-0.90
-2.89
-4.65
-5.81
-6.01
-5.06
-2.99
-0.09
3.19
6.43
9.32
11.69
13.51
14.79
15.58
15.96
16.04
15.96
15.85
15.82
15.97
16.34
16.98
17.88
18.94
20.11
21.34
22.69
24.24
26.09
28.19
30.38
32.42
34.14
35.50
36.63
37.73
38.93
40.29
41.72
43.00
43.73
43.39
41.37
37.23
30.89
22.75
13.61
4.43
-4.00
-11.26
-17.29
-22.26
-26.33
-29.58
-32.03
-33.78
-35.08
-36.29
-37.72
-39.54
-41.68
-43.95
-46.17
-48.34
-50.56
-53.06
-55.95
-59.17
-62.49
-65.56
-68.12
-69.98
-71.07
-71.32
-70.69
-69.19
-66.88
-63.92
-60.46
-56.54
-52.03
-46.66
-40.16
-32.39
-23.42
-13.53
-3.18
7.17
17.09
26.26
34.54
41.90
48.43
54.22
59.35
63.73
67.23
69.70
71.03
71.25
70.59
69.41
68.17
67.29
66.99
67.22
67.68
67.93
67.68
66.97
66.28
66.29
67.67
70.69
75.12
80.33
85.49
89.86
92.87
94.06
92.98
89.04
81.60
70.13
54.37
34.51
11.19
-14.47
-40.94
-66.35
-88.82
-106.97
-120.47
-130.49
-139.65
-151.38
-169.07
-195.01
-229.56
-270.80
-314.44
-354.41
-383.78
-396.36
-388.03
-357.77
-307.75
-242.73
-169.07
-93.57
-22.63
38.52
86.54
120.48
141.95
154.43
162.04
167.89
173.20
177.25
178.51
175.95
169.97
162.35
155.47
151.13
149.57
149.26
147.03
138.79
120.53
89.52
45.40
-9.12
-68.25
-124.30
-169.46
-198.02
-207.81
-200.43
-180.26
-152.64
-122.12
-91.43
-61.58
-32.54
-4.35
22.49
47.07
68.58
86.82
102.20
115.58
127.67
138.73
148.36
155.97
161.20
164.32
166.20
167.92
170.31
173.72
178.07
182.63
186.60
189.29
190.22
189.13
185.88
180.54
173.45
165.14
155.59
144.79
133.14
121.47
110.85
101.77
93.49
84.08
71.10
51.49
23.68
-11.67
-51.77
-92.80
-131.62
-166.59
-197.52
-224.99
-251.10
-277.67
-305.59
-334.52
-363.02
-389.32
-411.99
-429.98
-432.97
-412.97
-367.11
-300.37
-223.63
-147.78
-79.98
-23.00
23.33
60.65
89.49
110.26
123.63
130.49
132.90
133.14
132.90
133.05
133.81
133.74
131.20
125.27
114.56
99.37
80.77
59.94
37.79
14.92
-8.83
-33.34
-58.08
-82.95
-106.32
-126.00
-139.92
-146.86
-146.61
-139.94
-127.92
-104.97
-72.65
-34.64
4.89
42.68
76.31
104.21
125.79
141.57
152.37
158.07
159.28
156.99
152.47
146.12
137.99
127.43
114.43
98.99
80.39
58.34
33.08
5.67
-20.76
-45.04
-66.40
-83.25
-94.76
-100.81
-101.93
-102.26
-100.48
-95.95
-88.77
-79.14
-66.16
-50.36
-33.12
-16.78
-3.32
6.27
10.75
8.85
-1.31
-21.22
-54.87
-96.98
-141.41
-178.24
-195.65
-185.12
-144.45
-87.63
-21.49
46.39
109.57
163.05
203.99
231.11
241.78
233.30
204.01
156.79
96.02
27.53
-44.46
-118.89
-197.28
-282.22
-364.24
-428.96
-460.43
-451.14
-404.89
-334.57
-256.56
-184.39
-126.25
-83.88
-55.21
-35.95
-23.05
-16.12
-12.19
-7.53
2.80
22.75
53.46
92.94
137.02
181.12
222.80
263.55
301.17
336.14
369.53
401.37
430.06
450.83
456.41
439.77
397.49
331.95
252.94
179.17
121.43
86.82
77.14
87.90
109.56
130.80
142.33
139.97
124.69
100.13
70.13
37.05
2.17
-33.67
-70.12
-105.72
-138.20
-164.61
-183.27
-195.83
-205.71
-216.20
-229.62
-246.67
-265.07
-282.49
-297.32
-310.83
-329.34
-359.09
-401.70
-452.35
-501.26
-535.87
-548.36
-537.53
-492.40
-417.20
-327.92
-243.26
-174.49
-129.78
-98.69
-71.62
-42.62
-8.72
30.49
74.80
125.68
185.49
251.02
315.54
368.61
402.78
416.36
410.39
388.89
357.64
322.42
286.89
254.36
225.49
200.30
178.60
158.74
139.37
120.27
101.99
84.50
68.74
54.65
42.12
31.05
20.51
9.53
-2.45
-12.85
-23.31
-34.09
-45.29
-56.75
-68.13
-79.47
-90.95
-102.69
-114.23
-125.71
-136.65
-146.79
-155.95
-164.10
-171.40
-178.23
-185.06
-191.70
-198.32
-204.56
-209.91
-213.70
-215.07
-212.87
-205.45
-195.64
-184.34
-172.53
-160.86
-149.88
-139.90
-130.94
-122.74
-114.93
-107.34
-99.38
-91.15
-82.91
-74.96
-67.30
-59.50
-50.73
-40.03
-26.78
-10.41
8.79
30.00
52.36
75.38
99.22
124.55
152.08
181.94
213.67
245.78
276.36
303.68
326.93
346.44
363.56
380.40
399.47
423.39
453.78
490.11
528.69
562.59
583.15
582.67
557.31
508.77
443.79
371.69
301.23
238.37
185.82
144.04
112.75
91.79
80.98
79.37
84.74
93.81
103.14
110.04
113.11
112.11
107.53
100.08
90.49
79.67
68.66
58.51
49.93
43.05
37.45
32.61
28.37
25.23
24.14
25.88
30.48
36.92
43.37
47.82
48.73
45.42
38.10
27.65
15.17
1.54
-12.58
-27.03
-41.92
-57.64
-74.90
-94.79
-118.51
-146.52
-177.53
-207.99
-232.79
-247.14
-248.85
-239.58
-224.38
-209.45
-199.41
-195.67
-196.64
-199.52
-202.28
-204.80
-208.43
-214.65
-223.91
-235.46
-247.88
-259.81
-270.31
-278.45
-282.87
-281.98
-274.18
-258.97
-237.51
-212.62
-187.82
-166.09
-148.79
-135.35
-123.79
-111.60
-96.65
-77.72
-54.50
-27.46
2.18
32.51
60.96
84.56
100.54
107.01
103.51
91.18
72.30
49.64
25.85
2.90
-17.89
-35.73
-50.10
-60.55
-66.71
-68.40
-65.89
-59.97
-51.98
-43.48
-35.90
-30.24
-26.95
-25.93
-26.79
-28.98
-31.86
-34.93
-37.82
-40.40
-42.86
-45.58
-49.10
-53.79
-59.68
-66.34
-73.08
-79.08
-83.79
-87.03
-88.97
-89.89
-90.04
-89.46
-87.93
-85.00
-80.02
-72.26
-61.16
-46.52
-28.73
-8.81
11.77
31.49
49.17
64.19
76.52
86.47
94.37
100.48
104.88
107.57
108.53
107.82
105.58
102.01
97.35
91.89
85.90
79.66
73.42
67.46
62.06
57.40
53.55
50.32
47.38
44.29
40.75
36.65
32.12
27.35
22.60
18.12
14.16
11.07
9.25
9.02
10.41
13.05
16.19
18.94
20.65
21.16
20.80
20.13
19.65
19.48
19.43
19.21
18.59
17.62
16.52
15.53
14.77
14.20
13.76
13.37
13.03
12.72
12.38
11.91
11.24
10.38
9.43
8.54
7.77
7.14
6.55
5.95
5.29
4.63
4.03
3.53
3.07
2.56
1.90
1.06
0.07
-0.91
-1.82
-2.60
-3.40
-4.40
-5.68
-7.14
-8.49
-9.36
-9.51
-9.01
-8.12
-7.22
-6.51
-6.04
-5.63
-5.05
-4.14
-2.81
-1.10
0.88
3.01
5.13
7.08
8.73
10.01
10.87
11.28
11.27
10.85
10.10
9.11
7.96
6.66
5.24
3.74
2.27
1.04
0.24
-0.05
0.09
0.46
0.82
0.97
0.78
0.20
-0.82
-2.16
-3.49
-4.29
-4.04
-2.58
-0.28
1.95
3.09
2.42
-0.07
-3.67
-7.32
-10.04
-11.33
-11.21
-10.12
-8.57
-6.91
-5.26
-3.56
-1.77
0.10
1.88
3.38
4.44
5.02
5.28
5.45
5.82
6.47
7.37
8.31
9.04
9.43
9.51
9.44
9.47
9.76
10.31
10.94
11.40
11.50
11.18
10.58
9.86
9.15
8.39
7.40
6.00
4.14
1.97
-0.18
-1.96
-3.14
-3.73
-3.93
-4.07
-4.44
-5.19
-6.29
-7.45
-8.30
-8.51
-7.87
-6.44
-4.47
-2.33
-0.36
1.25
2.41
3.17
3.61
3.79
3.76
3.60
3.42
3.39
3.61
4.18
5.04
6.05
7.01
7.71
8.07
8.13
7.98
7.71
7.39
7.01
6.59
6.19
5.87
5.72
5.80
6.04
6.35
6.54
6.49
6.09
5.32
4.20
2.83
1.37
0.05
-0.98
-1.66
-2.12
-2.64
-3.55
-4.99
-6.74
-8.25
-8.83
-8.06
-5.96
-3.03
0.09
3.02
5.91
9.41
14.19
20.50
27.84
34.99
40.50
43.25
42.82
39.73
35.04
30.13
26.23
24.21
24.37
26.18
28.15
27.92
22.79
10.83
-7.97
-31.00
-53.38
-69.42
-74.59
-67.15
-48.58
-22.77
5.52
32.10
54.04
69.52
77.41
77.13
68.75
53.50
33.78
12.71
-6.62
-22.16
-33.25
-40.55
-45.32
-48.86
-51.80
-54.10
-55.28
-54.75
-52.31
-48.21
-43.07
-37.56
-32.09
-26.76
-21.43
-16.12
-11.13
-7.08
-4.56
-3.77
-4.33
-5.43
-6.24
-6.30
-5.71
-4.96
-4.62
-4.90
-5.65
-6.41
-6.74
-6.43
-5.50
-4.11
-2.41
-0.43
1.85
4.46
7.27
10.10
12.65
14.69
16.07
16.82
17.08
17.09
17.09
17.19
17.39
17.56
17.47
16.93
15.90
14.51
13.03
11.75
10.87
10.42
10.25
10.14
9.94
9.72
9.70
10.19
11.34
13.06
14.98
16.69
17.91
18.69
19.34
20.31
21.96
24.42
27.55
30.97
34.20
36.75
38.19
38.24
36.85
34.31
31.10
27.84
25.04
22.95
21.26
19.12
15.22
8.29
-2.34
-16.16
-31.33
-45.19
-55.08
-59.44
-58.43
-53.95
-48.87
-46.01
-47.15
-52.50
-60.84
-70.00
-77.69
-82.15
-82.59
-79.25
-73.10
-65.40
-57.13
-48.86
-40.74
-32.73
-24.87
-17.32
-10.29
-3.97
1.49
5.93
9.08
10.60
10.24
8.07
4.69
1.05
-1.85
-3.45
-3.87
-3.95
-4.74
-7.00
-10.67
-14.85
-18.24
-19.66
-18.66
-15.61
-11.42
-7.06
-3.09
0.38
3.63
6.92
10.37
13.87
17.30
20.60
23.79
26.96
30.10
33.10
35.74
37.82
39.35
40.48
41.52
42.73
44.20
45.72
46.89
47.19
46.19
43.66
39.55
34.03
27.35
20.02
12.63
5.91
0.49
-3.32
-5.58
-6.68
-7.14
-7.41
-7.68
-7.94
-8.06
-7.95
-7.62
-7.14
-6.60
-6.00
-5.35
-4.67
-4.13
-4.05
-4.73
-6.36
-8.88
-11.98
-15.23
-18.30
-20.99
-23.33
-25.39
-27.20
-28.74
-29.93
-30.77
-31.35
-31.81
-32.32
-33.00
-33.95
-35.18
-36.63
-38.12
-39.24
-39.42
-37.99
-34.36
-28.26
-19.81
-9.68
1.10
11.34
20.05
26.65
31.10
33.75
35.03
35.21
34.33
32.33
29.32
25.71
22.09
19.01
16.68
14.90
13.28
11.54
9.62
7.80
6.38
5.50
5.02
4.58
3.84
2.62
1.07
-0.55
-1.91
-2.85
-3.47
-4.00
-4.83
-6.26
-8.50
-11.57
-15.24
-19.10
-22.53
-24.88
-25.56
-24.29
-21.16
-16.69
-11.74
-7.15
-3.57
-1.28
-0.15
0.18
0.12
-0.01
-0.09
-0.03
0.28
1.03
2.34
4.21
6.43
8.73
10.96
13.21
15.79
18.95
22.65
26.43
29.67
31.86
32.90
33.26
33.65
34.68
36.66
39.41
42.49
45.45
48.01
50.14
52.07
54.14
56.69
59.96
63.97
68.51
73.28
77.93
82.25
86.33
90.47
95.19
101.09
108.70
118.28
129.43
140.70
149.63
153.05
148.10
133.23
109.05
78.34
45.25
14.12
-11.82
-31.04
-43.71
-51.16
-55.09
-57.08
-58.31
-59.61
-61.59
-64.83
-69.76
-76.67
-85.48
-95.61
-106.11
-115.96
-124.36
-130.91
-135.56
-138.16
-138.25
-134.90
-127.11
-114.26
-96.72
-75.80
-53.47
-31.65
-11.69
5.77
20.53
32.43
41.18
46.46
48.26
47.11
43.94
39.73
34.92
29.23
21.95
12.50
0.93
-11.98
-25.00
-36.91
-46.86
-54.31
-58.97
-60.68
-59.41
-55.53
-49.88
-43.72
-38.37
-34.84
-33.60
-34.48
-36.79
-39.66
-42.27
-44.14
-45.19
-45.72
-46.22
-47.09
-48.46
-50.14
-51.76
-53.01
-53.81
-54.27
-54.62
-54.92
-54.93
-54.13
-51.83
-47.36
-40.27
-30.46
-18.22
-4.35
9.96
23.25
33.88
40.47
42.21
39.17
32.45
23.87
15.50
9.05
5.49
4.89
6.76
10.47
15.40
21.07
26.94
32.25
36.15
37.94
37.34
34.60
30.40
25.44
20.26
15.17
10.35
6.05
2.62
0.51
0.09
1.45
4.34
8.16
11.99
14.92
16.25
15.67
13.33
9.73
5.51
1.25
-2.60
-5.68
-7.58
-7.89
-6.35
-3.05
1.47
6.28
10.38
13.01
13.84
13.01
11.01
8.44
5.86
3.65
1.99
0.94
0.52
0.82
2.00
4.19
7.32
11.01
14.51
16.99
17.81
16.82
14.36
11.17
8.00
5.45
3.73
2.72
2.09
1.45
0.52
-0.76
-2.26
-3.73
-5.03
-6.18
-7.46
-9.27
-11.92
-15.52
-19.92
-24.82
-30.09
-35.78
-42.19
-49.61
-58.10
-67.39
-76.92
-86.11
-94.63
-102.51
-109.90
-116.63
-121.87
-124.10
-121.60
-113.20
-98.63
-78.58
-54.28
-27.00
2.06
31.65
60.25
86.12
107.69
124.25
136.25
145.02
151.86
157.20
160.15
159.00
152.10
138.81
119.87
97.16
73.10
50.09
30.10
14.62
4.63
0.55
2.11
8.32
17.48
27.36
35.57
39.93
38.84
31.64
18.88
2.39
-15.08
-30.64
-42.09
-48.67
-51.14
-51.21
-50.52
-49.81
-48.54
-45.21
-38.07
-26.03
-8.87
12.66
37.11
62.34
85.37
102.77
111.48
110.18
100.37
86.30
73.28
65.25
62.94
63.73
63.53
59.24
50.51
39.69
29.99
23.34
19.31
15.65
10.14
2.36
-6.22
-13.25
-16.92
-16.93
-14.40
-10.99
-7.91
-5.61
-3.76
-2.50
-2.71
-5.52
-11.22
-18.57
-25.01
-27.76
-25.04
-16.02
-1.90
14.76
31.00
44.63
54.62
61.31
66.28
72.72
86.22
111.60
150.65
200.51
254.05
301.70
334.33
345.63
334.23
305.09
265.30
221.10
176.29
132.83
91.92
54.94
22.75
-12.58
-51.19
-87.50
-114.84
-131.06
-138.35
-140.75
-140.81
-139.89
-139.00
-138.37
-140.43
-147.78
-164.26
-192.43
-232.30
-273.99
-306.79
-323.57
-322.60
-307.95
-286.03
-262.88
-242.29
-225.85
-213.65
-205.94
-202.12
-198.74
-190.51
-171.92
-140.12
-96.45
-46.56
1.58
39.91
63.95
74.47
75.85
73.20
69.71
66.19
62.18
57.42
52.21
47.51
44.43
43.25
43.23
42.93
40.91
36.71
30.98
24.81
19.38
15.47
13.18
12.01
11.05
9.44
6.84
3.49
0.10
-2.45
-3.36
-2.13
1.28
6.66
13.47
21.04
28.77
36.24
43.26
49.75
55.70
61.14
66.15
70.91
75.74
80.80
85.66
88.97
88.75
83.02
70.88
53.18
32.32
11.50
-6.56
-20.35
-29.74
-35.33
-37.82
-37.55
-34.75
-29.89
-23.92
-18.11
-13.46
-10.35
-8.41
-6.85
-4.81
-1.58
3.36
10.34
19.38
29.99
40.85
50.04
55.45
55.61
50.21
40.14
27.13
12.91
-0.78
-12.74
-22.34
-29.21
-33.13
-34.03
-32.23
-28.61
-24.52
-21.34
-20.05
-20.83
-23.07
-25.69
-27.68
-28.59
-28.55
-28.07
-27.63
-27.39
-27.08
-26.10
-23.82
-19.88
-14.44
-8.09
-1.70
4.05
8.78
12.59
15.84
18.78
21.32
22.89
22.79
20.56
16.48
11.57
7.31
5.06
5.51
8.46
12.90
17.53
21.13
22.89
22.51
20.11
16.15
11.35
6.55
2.52
-0.18
-1.43
-1.54
-1.09
-0.71
-0.89
-1.85
-3.51
-5.59
-7.66
-9.30
-10.18
-10.13
-9.22
-7.84
-6.61
-6.35
-7.79
-11.39
-17.10
-24.27
-31.78
-38.36
-42.99
-45.09
-44.72
-42.41
-38.90
-34.91
-30.98
-27.47
-24.60
-22.46
-21.06
-20.27
-19.84
-19.46
-18.79
-17.63
-15.90
-13.72
-11.28
-8.79
-6.36
-4.00
-1.60
0.88
3.31
5.38
6.72
7.09
6.48
5.26
3.99
3.30
3.73
5.63
9.18
14.34
20.84
28.07
35.17
41.25
45.64
48.10
48.92
48.74
48.33
48.33
49.03
50.39
52.14
54.02
55.97
58.13
60.70
63.59
66.22
67.43
65.89
60.58
51.13
38.11
22.79
6.77
-8.46
-21.85
-32.88
-41.62
-48.50
-54.07
-58.79
-62.82
-65.99
-67.98
-68.65
-68.21
-67.21
-66.30
-65.86
-65.92
-66.19
-66.43
-66.62
-66.78
-66.61
-65.25
-61.71
-55.84
-49.21
-45.12
-47.39
-58.46
-77.85
-102.09
-126.05
-145.10
-156.61
-160.37
-157.76
-150.63
-140.74
-129.77
-119.58
-111.93
-107.72
-105.99
-103.92
-97.92
-85.40
-66.02
-41.95
-16.94
5.04
21.18
30.59
34.35
34.91
35.21
37.89
44.67
55.86
70.27
85.70
99.70
110.55
117.36
120.36
120.87
121.31
124.66
133.30
148.60
170.37
197.38
226.78
255.25
280.01
299.78
314.53
323.87
327.07
323.49
314.45
301.32
285.59
268.31
250.26
231.40
209.68
182.83
149.93
114.06
78.23
44.66
13.80
-14.57
-41.25
-68.88
-100.01
-135.56
-171.62
-204.74
-232.28
-253.44
-267.69
-264.00
-234.44
-178.34
-119.17
-68.25
-29.95
1.15
27.56
50.95
72.06
89.13
97.73
94.63
82.25
64.53
46.21
30.78
20.85
17.28
17.77
15.04
2.38
-21.52
-54.81
-93.38
-133.68
-173.13
-211.14
-249.68
-296.25
-357.36
-434.52
-525.29
-624.73
-727.53
-827.85
-919.10
-964.72
-937.80
-830.74
-661.96
-467.52
-283.32
-132.12
-20.52
56.36
108.25
139.72
152.78
147.87
129.98
106.33
84.24
69.19
63.29
65.68
69.99
69.80
61.70
47.13
31.00
17.68
10.53
10.60
16.95
25.13
30.75
31.35
27.44
21.49
16.38
14.27
15.85
20.61
26.27
30.67
32.70
32.77
32.13
32.11
33.58
36.69
41.08
45.90
50.48
54.75
59.10
64.04
69.81
76.26
82.96
89.50
95.85
102.39
109.91
119.12
130.36
143.39
157.63
172.32
187.01
201.63
216.63
232.72
250.77
271.76
296.49
325.19
356.77
388.35
415.48
433.20
437.76
427.99
405.71
374.94
340.18
304.90
270.83
238.30
207.19
177.71
150.57
126.45
105.52
87.12
70.22
53.93
38.03
22.93
9.42
-1.86
-10.79
-17.85
-23.85
-29.55
-35.38
-41.22
-46.55
-50.70
-53.18
-53.88
-53.11
-51.46
-49.60
-48.06
-47.03
-46.40
-45.80
-44.86
-43.31
-41.15
-38.65
-36.19
-34.18
-32.93
-32.56
-33.05
-34.25
-35.94
-37.88
-39.81
-41.44
-42.55
-43.06
-43.07
-42.85
-42.78
-43.13
-43.88
-44.71
-45.06
-44.38
-42.38
-39.19
-35.31
-31.49
-28.43
-26.59
-26.03
-26.43
-27.22
-27.72
-27.43
-26.16
-24.11
-21.75
-19.56
-17.75
-16.19
-14.62
-12.98
-11.92
-12.79
-17.36
-27.07
-42.26
-61.62
-82.20
-99.89
-110.54
-111.18
-101.17
-82.85
-61.55
-44.44
-38.34
-47.13
-69.49
-98.34
-122.48
-129.92
-111.45
-63.28
12.15
106.98
209.65
307.07
386.85
439.49
460.17
449.67
413.74
360.92
299.56
235.44
170.91
105.94
40.05
-26.30
-91.39
-153.04
-209.76
-261.29
-308.41
-352.37
-394.53
-435.98
-476.97
-516.18
-549.97
-572.29
-575.92
-554.71
-506.28
-433.52
-344.27
-249.00
-157.64
-76.88
-9.23
46.27
92.13
130.74
163.46
190.79
212.89
230.20
243.44
253.32
260.12
263.21
261.21
252.59
236.61
214.22
188.22
162.68
141.60
127.38
119.95
116.97
115.02
111.22
104.43
95.53
86.61
79.69
75.71
74.13
73.53
72.45
70.21
67.16
64.49
63.49
64.97
68.91
74.55
80.81
86.89
92.57
98.32
104.95
113.18
123.28
134.96
147.47
159.98
171.78
182.43
191.70
199.47
205.65
210.29
213.54
215.58
216.42
215.73
212.88
207.42
199.45
189.89
180.16
171.51
164.17
157.13
148.44
136.11
118.90
96.77
70.75
42.66
14.91
-9.61
-28.00
-38.29
-40.68
-38.05
-35.44
-37.94
-48.25
-65.11
-83.76
-98.35
-104.75
-102.30
-93.62
-82.73
-73.00
-66.03
-61.96
-60.56
-62.18
-67.72
-77.86
-92.17
-108.64
-124.16
-135.43
-140.11
-137.50
-128.81
-116.75
-104.80
-96.25
-93.25
-96.30
-104.49
-116.34
-130.58
-146.97
-166.41
-190.43
-220.86
-259.35
-307.07
-364.15
-428.77
-496.34
-559.50
-609.55
-639.05
-644.45
-627.48
-594.40
-553.37
-511.45
-472.64
-437.86
-406.36
-377.43
-351.30
-328.58
-309.24
-291.74
-273.29
-250.83
-222.48
-188.24
-149.92
-110.27
-71.69
-35.26
-0.57
33.95
70.15
109.54
152.84
199.83
249.11
298.01
342.60
378.38
401.50
410.18
405.58
391.37
372.31
352.43
333.76
316.34
299.22
281.66
263.85
246.64
230.78
216.34
202.72
189.21
175.53
161.98
149.06
137.00
125.42
113.46
100.30
85.45
68.99
51.29
32.69
13.34
-6.78
-27.63
-48.82
-69.57
-88.95
-106.23
-121.02
-133.23
-142.72
-148.93
-150.85
-147.31
-137.51
-121.53
-100.57
-76.61
-52.02
-28.95
-9.01
6.94
18.75
26.86
32.12
35.52
37.85
39.52
40.59
40.94
40.56
39.59
38.13
35.87
31.91
24.89
13.54
-2.63
-22.82
-44.87
-65.62
-81.47
-88.99
-85.59
-70.19
-44.00
-10.87
23.02
50.70
66.39
67.40
54.96
33.55
9.23
-12.23
-26.69
-32.14
-28.35
-16.32
2.23
25.23
50.56
76.36
101.36
125.07
147.73
170.11
193.24
217.96
244.46
271.89
298.27
320.92
337.26
345.91
347.07
342.46
334.34
324.42
312.99
298.77
279.44
252.73
217.43
173.82
123.60
69.24
13.29
-41.96
-94.57
-142.62
-184.23
-217.82
-242.67
-259.32
-269.51
-275.61
-279.70
-282.80
-284.64
-284.04
-279.62
-270.43
-256.28
-237.44
-214.43
-187.67
-157.45
-124.18
-88.40
-50.89
-12.53
25.66
62.41
95.87
123.64
143.09
152.12
149.96
137.41
116.58
90.10
60.50
30.01
0.83
-24.66
-43.99
-55.22
-57.67
-52.20
-40.91
-26.30
-10.41
5.56
21.14
36.13
50.28
63.32
75.19
86.13
96.54
106.60
115.98
123.86
129.21
131.28
129.84
125.23
118.25
109.83
100.96
92.53
85.31
79.78
76.01
73.44
71.10
67.74
62.26
54.05
43.13
30.12
16.08
2.25
-10.29
-20.82
-29.20
-35.81
-41.35
-46.52
-51.74
-57.04
-62.11
-66.55
-70.10
-72.76
-74.76
-76.40
-77.87
-79.18
-80.17
-80.67
-80.60
-80.09
-79.39
-78.78
-78.46
-78.50
-78.85
-79.36
-79.83
-80.03
-79.75
-78.85
-77.31
-75.18
-72.64
-69.85
-66.92
-63.91
-60.81
-57.62
-54.37
-51.14
-48.10
-45.42
-43.29
-41.83
-41.11
-41.06
-41.56
-42.45
-43.63
-45.00
-46.35
-47.38
-47.66
-46.77
-44.49
-40.90
-36.34
-31.31
-26.32
-21.80
-18.04
-15.20
-13.34
-12.36
-12.06
-12.12
-12.25
-12.31
-12.28
-12.28
-12.45
-12.87
-13.55
-14.49
-15.61
-16.76
-17.69
-18.05
-17.50
-15.83
-13.09
-9.54
-5.60
-1.68
1.99
5.29
8.24
10.93
13.41
15.76
18.03
20.25
22.39
24.29
25.66
26.26
25.92
24.70
22.84
20.65
18.41
16.27
14.21
12.08
9.70
6.89
3.57
-0.24
-4.37
-8.56
-12.53
-16.17
-19.47
-22.59
-25.66
-28.66
-31.39
-33.57
-35.00
-35.74
-36.08
-36.37
-36.79
-37.31
-37.72
-37.82
-37.67
-37.61
-38.10
-39.48
-41.73
-44.47
-47.15
-49.31
-50.81
-51.78
-52.47
-53.01
-53.29
-53.02
-51.90
-49.80
-46.80
-43.16
-39.14
-34.90
-30.45
-25.78
-20.84
-15.63
-10.07
-4.03
2.63
9.94
17.65
25.21
31.81
36.73
39.46
39.96
38.57
35.92
32.64
29.16
25.60
21.89
17.83
13.36
8.66
4.19
0.52
-1.90
-3.00
-3.40
-4.03
-5.74
-8.76
-12.58
-16.02
-17.67
-16.45
-12.03
-5.32
2.10
8.53
12.93
15.41
17.17
19.98
25.73
35.60
49.30
65.61
82.77
98.74
111.39
118.99
121.16
119.86
119.51
124.23
137.04
158.02
183.60
207.32
221.91
222.16
206.90
179.01
140.60
94.24
42.69
-10.52
-61.31
-105.86
-141.45
-166.94
-182.99
-196.67
-215.27
-243.38
-280.75
-323.31
-366.04
-405.08
-438.54
-466.35
-496.00
-534.53
-585.10
-645.03
-707.52
-765.41
-813.81
-850.49
-836.30
-747.09
-581.67
-366.78
-142.34
59.59
223.95
349.42
441.66
508.21
549.77
566.68
561.51
540.76
513.24
486.58
465.23
450.70
442.62
435.07
422.76
403.40
378.78
353.34
331.27
314.54
303.29
296.54
289.92
279.64
264.36
244.83
223.84
204.22
187.31
173.50
162.52
152.36
141.24
128.39
114.22
100.18
87.76
77.38
69.19
63.25
59.10
56.43
55.32
56.19
59.81
66.81
76.56
88.31
101.20
114.18
126.14
135.79
141.64
141.68
139.55
136.10
131.89
127.31
122.72
118.36
114.36
110.79
107.76
105.50
103.29
100.82
97.86
94.23
89.73
84.17
77.44
69.58
60.93
51.31
41.01
30.45
20.08
10.23
1.11
-7.16
-14.39
-20.17
-24.35
-26.47
-26.12
-23.17
-18.01
-11.56
-5.08
0.17
3.36
4.05
2.46
-0.92
-5.73
-12.13
-20.78
-32.66
-48.43
-67.94
-90.09
-112.86
-133.91
-151.27
-164.02
-172.47
-178.15
-183.35
-190.53
-201.43
-216.15
-232.67
-246.98
-254.17
-250.16
-233.79
-208.05
-179.85
-157.78
-149.07
-156.72
-178.58
-208.74
-240.51
-269.52
-295.32
-320.63
-349.13
-382.95
-421.32
-460.85
-497.00
-525.86
-545.28
-554.99
-555.86
-549.20
-536.02
-516.92
-492.15
-461.83
-426.05
-384.85
-338.43
-288.08
-237.44
-193.29
-164.53
-159.12
-179.98
-222.29
-273.94
-319.65
-346.74
-349.71
-331.16
-298.84
-260.91
-222.29
-184.02
-145.22
-105.84
-67.92
-34.87
-9.30
8.71
21.72
33.77
48.04
65.40
84.07
100.59
111.59
115.58
113.65
109.11
106.06
107.63
114.81
126.07
138.21
147.89
153.11
154.20
153.46
154.22
159.27
170.16
186.25
205.29
224.52
241.85
256.47
268.56
278.54
286.55
293.30
299.74
306.77
313.94
318.54
315.83
300.58
270.03
225.96
176.19
130.68
97.23
78.09
69.91
66.64
62.96
56.60
48.44
43.82
46.73
57.03
70.52
82.01
88.76
91.48
93.11
96.98
111.14
140.12
182.09
229.08
271.61
303.88
325.33
339.12
349.57
370.05
409.78
468.89
538.01
604.47
660.01
703.07
736.72
765.76
807.89
877.20
977.66
1100.56
1230.10
1351.56
1454.02
1530.26
1494.93
1299.29
954.77
535.99
133.07
-196.77
-438.52
-603.60
-712.21
-782.88
-816.24
-811.46
-774.28
-718.84
-664.50
-624.52
-603.56
-600.75
-612.86
-626.67
-632.08
-625.01
-610.75
-599.05
-595.88
-599.99
-604.59
-600.83
-575.88
-523.65
-448.65
-365.16
-290.07
-234.59
-201.23
-186.25
-183.27
-183.39
-180.38
-171.70
-158.27
-142.25
-125.64
-108.22
-90.00
-71.37
-51.33
-28.55
-1.59
30.26
66.94
106.59
147.35
185.80
216.61
233.51
231.35
208.95
170.42
124.31
80.70
47.49
27.28
17.56
13.31
10.42
7.72
6.68
9.21
15.45
23.41
29.31
29.79
23.52
11.65
-3.53
-18.61
-30.62
-37.25
-37.06
-30.16
-18.66
-6.77
-0.41
-4.46
-20.22
-44.48
-70.25
-89.56
-97.01
-91.81
-77.41
-59.10
-41.63
-26.45
-13.33
-1.41
9.74
19.62
27.57
34.04
41.13
51.84
67.87
87.52
105.81
115.65
110.80
89.22
54.40
14.62
-20.38
-43.58
-52.96
-51.26
-43.83
-36.11
-31.85
-32.62
-37.61
-44.41
-50.06
-51.34
-45.74
-32.29
-12.60
10.52
31.53
48.39
60.88
68.60
69.69
60.83
39.29
4.06
-42.97
-97.37
-152.99
-201.58
-236.73
-255.70
-259.99
-253.20
-240.32
-225.45
-210.33
-193.10
-169.98
-138.39
-98.66
-53.83
-5.93
44.02
95.97
148.76
198.80
239.21
261.29
258.59
221.27
153.03
70.76
-3.02
-53.59
-79.58
-89.27
-93.62
-101.04
-115.89
-136.11
-160.02
-185.67
-210.55
-230.85
-242.32
-242.45
-231.73
-213.62
-191.32
-170.22
-154.55
-146.34
-145.04
-148.36
-153.68
-158.97
-162.97
-164.11
-161.70
-155.81
-147.77
-139.53
-132.96
-129.35
-128.95
-131.10
-134.31
-137.37
-139.52
-140.93
-142.39
-144.89
-149.13
-155.27
-162.91
-171.03
-178.57
-184.52
-188.26
-189.53
-188.34
-184.69
-178.45
-169.38
-157.07
-141.18
-121.46
-97.94
-71.03
-41.53
-10.43
21.23
52.38
81.89
108.78
132.07
150.91
164.67
173.01
176.00
174.17
168.51
160.26
150.75
141.09
132.15
124.40
118.03
112.94
108.88
105.57
102.91
100.93
99.70
99.31
99.76
100.79
102.10
103.51
105.05
107.22
110.66
116.09
123.97
134.35
146.64
159.94
173.21
185.58
196.58
205.98
213.67
219.38
222.51
222.43
218.93
212.59
205.02
198.72
196.59
201.47
215.58
240.12
274.86
317.80
365.02
411.16
450.78
480.26
499.35
511.33
521.33
533.66
549.26
564.95
574.82
572.84
555.65
524.04
482.16
435.74
389.97
348.18
311.55
279.62
250.73
222.43
192.01
157.25
117.44
74.24
31.78
-4.30
-28.66
-38.28
-33.66
-18.61
0.98
19.51
33.58
42.84
49.45
56.47
66.13
78.89
93.64
108.73
123.12
136.75
149.88
162.19
172.15
177.45
176.11
167.73
153.85
137.33
121.00
106.44
93.44
80.73
66.87
51.22
34.19
16.95
0.80
-13.34
-25.40
-36.00
-46.09
-56.44
-67.28
-78.23
-88.51
-97.34
-104.25
-109.26
-112.90
-115.80
-118.47
-121.06
-123.31
-124.81
-125.25
-124.66
-123.54
-122.67
-122.91
-124.84
-128.63
-133.96
-140.27
-146.98
-153.72
-160.52
-167.81
-176.27
-186.75
-199.81
-215.30
-232.00
-247.76
-259.84
-265.99
-265.33
-258.81
-248.87
-238.45
-229.79
-223.71
-219.64
-216.36
-212.88
-208.88
-204.76
-201.08
-198.05
-195.43
-192.69
-189.06
-183.18
-172.97
-155.76
-129.28
-93.14
-49.82
-4.52
36.37
67.54
86.53
94.11
93.31
87.56
79.31
69.54
58.42
46.11
33.22
20.63
8.82
-2.45
-14.12
-27.16
-42.09
-58.52
-75.11
-90.28
-102.79
-112.39
-119.75
-126.06
-132.27
-138.49
-143.99
-147.61
-148.59
-147.04
-143.90
-140.44
-137.58
-135.51
-133.79
-131.81
-129.22
-126.09
-122.55
-118.93
-114.97
-109.89
-103.14
-95.02
-86.88
-80.50
-77.13
-76.74
-78.62
-81.35
-83.41
-84.01
-83.21
-81.48
-78.84
-74.33
-66.20
-53.68
-36.22
-13.44
14.58
46.63
80.23
112.18
139.33
159.36
168.11
163.91
148.77
127.39
104.49
83.07
64.42
48.97
37.01
22.56
1.79
-24.54
-52.29
-78.43
-103.44
-130.10
-160.93
-196.39
-244.75
-309.07
-384.02
-457.94
-520.34
-566.08
-594.42
-606.69
-604.89
-604.92
-618.83
-648.75
-687.84
-728.69
-768.53
-808.59
-851.56
-815.72
-662.22
-413.73
-139.13
100.87
281.79
406.77
489.70
544.94
583.84
600.55
590.78
558.72
516.72
476.98
446.14
425.66
413.97
409.08
398.83
375.24
335.51
289.62
248.54
219.14
204.15
203.30
215.49
232.44
247.98
264.17
281.49
301.02
322.81
345.54
366.20
383.36
391.83
388.24
370.85
341.51
304.68
265.27
227.19
191.63
159.04
127.11
94.12
56.50
12.44
-37.77
-93.44
-147.10
-196.15
-239.48
-278.62
-314.49
-350.94
-389.53
-428.27
-462.29
-486.69
-499.59
-499.98
-489.89
-446.15
-359.76
-238.82
-104.63
21.70
127.93
205.58
261.70
299.27
319.34
318.76
296.50
253.90
197.35
135.88
80.10
39.39
13.93
-1.10
-14.77
-32.53
-54.08
-74.56
-88.62
-99.11
-104.55
-107.07
-107.91
-108.74
-109.63
-109.07
-105.37
-98.04
-88.43
-74.06
-56.84
-37.87
-18.22
1.76
22.73
44.85
67.06
87.29
104.32
116.31
123.55
127.28
129.45
133.13
140.25
151.14
164.33
178.75
192.92
206.92
221.16
235.81
252.02
269.17
284.71
294.19
294.07
281.83
257.39
221.52
166.77
94.40
13.54
-63.36
-128.37
-178.68
-219.38
-253.85
-283.13
-307.31
-325.07
-336.89
-338.93
-331.90
-317.61
-298.57
-276.79
-254.38
-232.35
-208.36
-178.87
-140.64
-93.19
-37.82
22.41
84.34
144.32
199.85
250.86
297.85
340.71
377.19
405.00
421.81
426.73
418.72
397.58
364.94
323.17
274.75
221.25
164.61
106.06
47.42
-10.96
-68.74
-124.98
-178.19
-226.78
-269.63
-305.12
-332.87
-341.97
-325.86
-286.59
-235.06
-184.12
-141.58
-113.76
-95.35
-81.50
-68.99
-58.15
-50.39
-44.51
-39.48
-34.54
-29.86
-24.27
-19.44
-17.21
-19.95
-28.66
-42.47
-58.80
-74.91
-88.82
-99.08
-106.28
-111.11
-114.82
-118.21
-123.05
-127.99
-131.38
-132.14
-129.64
-124.71
-118.29
-111.68
-105.96
-101.71
-98.77
-96.87
-95.48
-93.81
-92.30
-91.08
-90.27
-89.83
-89.62
-89.27
-88.67
-87.78
-86.66
-85.54
-84.50
-83.50
-82.54
-81.56
-80.34
-78.88
-77.18
-75.25
-73.15
-70.81
-68.19
-65.26
-62.07
-58.59
-54.95
-51.29
-47.77
-44.58
-41.81
-39.52
-37.77
-36.56
-35.82
-35.49
-35.47
-35.62
-35.82
-35.87
-35.60
-34.85
-33.51
-31.53
-28.91
-25.69
-21.99
-17.96
-13.78
-9.64
-5.69
-2.13
0.94
3.41
5.25
6.46
7.09
7.16
6.79
6.05
5.03
3.83
2.52
1.20
-0.05
-1.16
-2.09
-2.79
-3.25
-3.44
-3.43
-3.22
-2.89
-2.51
-2.14
-1.84
-1.65
-1.60
-1.66
-1.82
-2.02
-2.25
-2.42
-2.51
-2.46
-2.27
-1.93
-1.43
-0.77
0.05
1.00
2.06
3.20
4.33
5.32
6.01
6.18
5.61
4.11
1.51
-2.23
-7.05
-12.77
-19.07
-25.61
-31.95
-37.72
-42.54
-46.13
-48.26
-48.82
-47.79
-45.24
-41.36
-36.40
-30.64
-24.38
-17.86
-11.25
-4.64
1.91
8.37
14.69
20.74
26.40
31.56
36.22
40.49
44.62
48.91
53.59
58.71
64.12
69.51
74.50
78.93
82.85
86.61
90.69
95.51
101.23
107.68
114.42
121.01
127.28
133.49
140.32
148.58
158.94
171.52
185.87
201.12
216.36
230.95
244.81
258.32
272.18
287.33
304.72
325.08
348.40
373.36
397.08
415.51
424.53
421.46
406.11
380.90
349.96
317.59
286.87
259.20
234.64
212.65
192.83
175.04
159.09
144.42
130.13
115.22
99.24
82.53
66.20
51.67
40.19
32.17
27.10
23.64
20.02
14.73
6.93
-3.13
-14.29
-24.81
-33.10
-38.20
-40.14
-39.74
-38.18
-36.51
-35.20
-34.24
-33.27
-32.02
-30.45
-28.74
-27.17
-25.87
-24.78
-23.59
-21.96
-19.68
-16.84
-13.77
-10.94
-8.76
-7.42
-6.90
-7.09
-7.93
-9.48
-11.76
-14.69
-17.89
-20.79
-22.80
-23.58
-23.09
-21.64
-19.70
-17.70
-16.02
-14.92
-14.62
-15.28
-16.92
-19.37
-22.26
-25.11
-27.49
-29.20
-30.21
-30.66
-30.65
-30.28
-29.61
-28.77
-28.05
-27.83
-28.51
-30.28
-33.14
-36.80
-40.86
-44.85
-48.20
-50.37
-50.98
-49.98
-47.79
-45.25
-43.31
-42.49
-42.69
-43.05
-42.37
-39.55
-34.03
-25.89
-15.74
-4.44
7.05
17.70
26.42
32.19
34.33
32.82
28.45
22.52
16.33
10.52
4.90
-1.36
-9.03
-18.17
-27.82
-36.36
-42.28
-44.84
-44.46
-42.23
-39.21
-35.69
-31.13
-24.59
-15.64
-5.02
5.40
13.30
16.93
16.00
11.74
6.37
2.07
0.07
0.26
1.45
2.04
0.77
-2.90
-8.71
-15.86
-23.37
-30.30
-35.93
-39.65
-41.07
-40.04
-36.74
-31.81
-26.17
-20.92
-17.01
-14.98
-14.82
-16.17
-18.50
-21.41
-24.75
-28.47
-32.41
-36.07
-38.49
-38.36
-34.42
-25.88
-12.78
4.07
23.39
44.03
65.10
85.96
105.89
123.78
138.28
148.11
152.59
151.78
146.35
137.07
124.53
109.09
91.17
71.57
51.51
32.26
14.79
-0.48
-13.50
-24.30
-32.83
-39.01
-42.91
-44.91
-45.68
-45.94
-46.17
-46.42
-46.42
-45.72
-44.04
-41.33
-37.80
-33.84
-29.74
-25.60
-21.28
-16.59
-11.52
-6.45
-2.05
1.00
2.35
2.15
0.95
-0.62
-2.15
-3.72
-5.63
-8.23
-11.50
-15.11
-18.56
-21.42
-23.53
-25.03
-26.25
-27.46
-28.80
-30.17
-31.32
-31.95
-31.86
-30.95
-29.26
-26.91
-24.05
-20.81
-17.20
-13.22
-8.81
-4.03
0.92
5.69
9.83
12.96
14.90
15.71
15.69
15.19
14.60
14.15
13.98
14.12
14.51
14.91
14.97
14.29
12.50
9.44
5.24
0.24
-5.05
-10.10
-14.48
-17.93
-20.31
-21.70
-22.32
-22.48
-22.46
-22.41
-22.21
-21.61
-20.38
-18.45
-16.00
-13.39
-10.95
-8.87
-7.08
-5.35
-3.49
-1.46
0.55
2.21
3.21
3.37
2.72
1.48
-0.07
-1.64
-3.02
-3.99
-4.37
-3.97
-2.71
-0.62
2.14
5.36
8.85
12.46
16.20
20.05
24.01
28.02
31.93
35.52
38.60
41.02
42.76
43.84
44.28
43.97
42.64
39.90
35.42
29.15
21.48
13.22
5.44
-0.88
-5.15
-7.28
-7.67
-7.00
-5.99
-5.09
-4.41
-3.82
-3.17
-2.49
-2.09
-2.50
-4.25
-7.59
-12.34
-18.02
-24.01
-29.85
-35.34
-40.52
-45.42
-49.95
-53.85
-56.83
-58.71
-59.53
-59.53
-58.95
-57.90
-56.22
-53.54
-49.50
-43.98
-37.23
-29.83
-22.47
-15.69
-9.72
-4.51
-0.06
3.57
6.09
7.25
7.03
5.76
4.01
2.33
1.00
-0.09
-1.25
-2.72
-4.51
-6.40
-8.12
-9.48
-10.42
-10.94
-10.98
-10.41
-9.04
-6.88
-4.09
-1.07
1.79
4.16
5.91
7.00
7.53
7.59
7.26
6.68
5.93
5.07
4.06
2.78
1.16
-0.80
-2.95
-5.02
-6.70
-7.73
-7.94
-7.26
-5.67
-3.17
0.13
4.04
8.27
12.49
16.39
19.76
22.40
24.13
24.77
24.10
22.06
18.78
14.75
10.62
7.09
4.69
3.58
3.62
4.46
5.63
6.75
7.53
7.73
7.21
5.86
3.78
1.26
-1.27
-3.35
-4.66
-5.15
-5.02
-4.58
-4.07
-3.61
-3.14
-2.56
-1.79
-0.81
0.34
1.57
2.82
3.93
4.74
5.05
4.71
3.78
2.47
1.11
0.01
-0.68
-1.06
-1.39
-2.00
-3.19
-5.10
-7.74
-10.98
-14.61
-18.35
-21.90
-24.97
-27.34
-28.91
-29.68
-29.77
-29.34
-28.55
-27.52
-26.38
-25.18
-23.95
-22.60
-20.99
-18.97
-16.40
-13.32
-9.93
-6.56
-3.59
-1.29
0.26
1.19
1.76
2.27
2.97
3.96
5.19
6.47
7.54
8.13
8.07
7.30
5.95
4.25
2.46
0.82
-0.50
-1.47
-2.16
-2.70
-3.24
-3.93
-4.86
-6.00
-7.29
-8.62
-9.92
-11.14
-12.24
-13.21
-14.05
-14.75
-15.36
-15.90
-16.38
-16.74
-16.82
-16.37
-15.10
-12.83
-9.55
-5.54
-1.30
2.58
5.63
7.63
8.68
9.09
9.20
9.24
9.21
9.01
8.56
7.90
7.21
6.68
6.42
6.40
6.44
6.34
6.01
5.50
5.00
4.72
4.77
5.08
5.47
5.69
5.54
4.96
3.99
2.73
1.29
-0.24
-1.87
-3.56
-5.34
-7.21
-9.19
-11.31
-13.55
-15.78
-17.78
-19.33
-20.30
-20.70
-20.65
-20.36
-20.01
-19.69
-19.40
-19.05
-18.51
-17.55
-15.99
-13.60
-10.27
-6.08
-1.23
3.94
9.20
14.43
19.68
24.95
30.12
34.86
38.65
41.04
41.80
41.01
39.05
36.42
33.53
30.64
27.77
24.82
21.66
18.25
14.66
11.08
7.74
4.80
2.24
-0.08
-2.43
-5.01
-7.88
-10.88
-13.78
-16.28
-18.23
-19.59
-20.42
-20.83
-20.86
-20.58
-20.09
-19.50
-18.87
-18.25
-17.56
-16.72
-15.71
-14.66
-13.86
-13.62
-14.14
-15.38
-17.09
-18.94
-20.64
-22.15
-23.65
-25.41
-27.64
-30.35
-33.36
-36.34
-38.98
-41.03
-42.37
-42.91
-42.53
-41.06
-38.40
-34.60
-29.96
-25.02
-20.42
-16.76
-14.50
-13.90
-15.09
-18.08
-22.83
-29.05
-36.16
-43.26
-49.24
-53.22
-54.80
-54.34
-52.77
-51.05
-49.63
-48.11
-45.32
-39.96
-31.33
-19.74
-6.40
7.16
19.79
31.10
41.35
51.07
60.46
69.23
76.75
82.43
86.11
88.20
89.46
90.69
92.33
94.37
96.32
97.51
97.36
95.61
92.37
88.08
83.26
78.41
73.83
69.66
65.86
62.27
58.64
54.56
49.57
43.17
35.00
24.93
13.08
-0.32
-15.19
-31.79
-50.73
-72.74
-98.25
-126.86
-157.00
-185.92
-210.13
-226.28
-232.11
-227.18
-213.02
-192.74
-170.25
-149.35
-132.94
-122.65
-118.54
-119.22
-122.08
-123.91
-121.79
-113.96
-100.27
-82.03
-61.21
-39.56
-17.96
3.43
24.72
45.79
66.09
84.95
102.00
117.35
131.39
144.26
155.43
163.82
168.29
168.41
164.89
159.62
155.11
153.65
156.49
163.49
173.27
184.06
194.60
204.91
216.39
231.29
251.82
279.37
314.08
354.68
398.59
442.08
480.66
510.06
527.61
533.69
531.84
527.17
523.61
521.21
515.53
499.38
466.50
414.77
347.53
272.01
196.11
125.50
62.38
6.35
-43.77
-88.36
-126.78
-158.18
-182.72
-201.99
-218.66
-235.40
-253.87
-274.27
-295.56
-316.19
-334.80
-350.58
-363.08
-371.80
-375.90
-374.14
-365.36
-349.16
-326.34
-298.89
-269.48
-240.72
-214.54
-191.86
-172.72
-156.53
-142.47
-129.74
-117.76
-106.21
-94.95
-83.88
-72.84
-61.46
-49.23
-35.70
-20.80
-4.91
11.11
26.35
40.20
52.51
63.34
72.54
79.34
82.34
79.95
71.02
55.58
34.89
11.03
-13.91
-38.59
-62.50
-85.53
-107.16
-126.01
-140.28
-148.89
-152.72
-154.52
-157.87
-165.07
-175.69
-186.60
-193.74
-194.41
-188.71
-179.01
-168.14
-157.71
-147.69
-137.72
-128.73
-123.89
-127.52
-142.84
-169.82
-204.48
-240.49
-271.56
-294.07
-307.76
-314.91
-318.20
-318.68
-314.85
-303.40
-280.94
-245.81
-199.04
-144.05
-85.11
-26.19
29.68
80.09
122.65
154.93
174.94
182.08
177.60
164.30
145.37
123.45
100.17
76.59
53.94
33.92
18.30
7.99
2.54
0.26
-0.83
-1.98
-3.29
-4.10
-3.80
-2.59
-1.60
-2.22
-5.27
-10.31
-15.74
-19.60
-20.48
-18.18
-13.71
-8.71
-4.57
-1.84
-0.07
1.77
