1593014546.00
64.000000
-0.00
-0.00
-0.00
-0.00
-0.00
-0.00
-0.00
-0.00
-0.00
-0.00
0.00
0.01
0.01
-0.00
-0.03
-0.05
-0.05
0.00
0.13
0.36
0.66
1.01
1.37
1.72
2.06
2.40
2.79
3.24
3.80
4.42
5.06
5.66
6.20
6.68
7.15
7.68
8.31
9.14
10.09
11.04
11.88
12.56
13.14
13.76
14.65
15.96
17.91
20.32
22.90
25.38
27.58
29.57
31.68
34.32
37.81
42.54
48.15
54.10
59.83
64.97
69.58
74.14
79.34
85.71
93.76
103.00
112.62
121.73
129.77
136.75
143.30
150.75
157.77
166.64
177.95
191.79
206.97
220.57
228.25
225.36
208.53
176.87
132.76
80.05
23.07
-34.94
-92.44
-149.16
-205.23
-260.37
-313.74
-363.87
-409.83
-450.91
-486.50
-515.74
-537.23
-549.22
-549.96
-538.37
-514.21
-478.67
-433.88
-382.45
-327.02
-269.84
-212.63
-156.66
-102.95
-52.37
-5.90
35.58
71.43
101.35
125.50
144.38
158.69
169.15
176.37
180.75
182.57
182.07
179.51
175.23
169.65
163.18
156.15
148.81
141.30
133.69
126.02
118.33
110.69
103.16
95.80
88.68
81.83
75.25
68.95
62.95
57.25
51.86
46.78
42.03
37.59
33.45
29.61
26.07
22.81
19.83
17.11
14.67
12.48
10.54
8.83
7.35
6.07
4.97
4.05
3.26
2.62
2.09
1.66
1.32
1.04
0.81
0.61
0.41
0.23
0.07
-0.06
-0.13
-0.17
-0.19
-0.21
-0.25
-0.32
-0.42
-0.51
-0.57
-0.58
-0.55
-0.50
-0.49
-0.55
-0.70
-0.91
-1.12
-1.25
-1.27
-1.17
-1.03
-0.97
-1.09
-1.44
-1.97
-2.51
-2.91
-3.03
-2.91
-2.70
-2.64
-2.97
-3.77
-4.90
-6.06
-6.90
-7.17
-6.90
-6.41
-6.12
-6.48
-7.62
-9.35
-11.18
-12.55
-13.09
-12.77
-11.98
-11.24
-11.12
-11.98
-13.97
-16.93
-20.31
-23.07
-23.80
-21.19
-14.55
-4.37
7.62
19.04
27.82
33.08
35.35
36.05
36.64
37.77
39.13
39.77
38.87
36.20
32.38
28.41
25.33
23.74
23.70
24.68
25.69
25.77
23.86
19.48
12.76
4.52
-4.04
-11.73
-17.65
-21.53
-23.51
-23.89
-22.71
-19.67
-14.38
-6.66
2.91
12.90
21.42
26.68
27.68
24.56
18.57
11.45
4.75
-0.66
-4.53
-7.02
-8.29
-8.25
-6.70
-3.43
1.39
7.15
12.77
16.93
18.29
15.88
9.06
-2.32
-17.56
-34.66
-50.16
-59.30
-57.29
-41.13
-11.52
26.62
65.03
94.90
109.90
108.03
91.73
66.23
37.26
9.40
-14.27
-31.89
-41.79
-42.73
-34.60
-19.21
-0.31
17.41
29.67
35.35
34.81
30.63
26.34
25.06
28.31
35.83
46.20
57.56
68.48
78.14
86.60
94.60
103.62
116.05
135.05
163.62
203.22
252.30
305.72
355.90
394.81
416.28
417.56
399.48
365.33
319.20
264.83
205.12
142.63
80.05
20.33
-33.68
-79.91
-117.52
-147.21
-170.85
-191.03
-210.18
-229.81
-250.14
-270.20
-288.50
-303.77
-315.75
-325.38
-334.67
-346.30
-363.34
-388.80
-424.75
-471.13
-524.44
-577.54
-621.02
-645.93
-646.97
-624.38
-583.62
-532.86
-479.59
-428.26
-379.94
-333.70
-288.58
-244.72
-203.18
-164.84
-129.55
-95.88
-61.84
-25.89
12.70
53.92
97.58
143.42
190.71
237.38
279.74
313.19
333.68
339.32
330.97
311.81
285.92
257.03
227.87
200.18
174.88
151.93
129.95
106.06
76.66
38.95
-7.43
-59.74
-112.84
-160.97
-199.34
-224.85
-236.03
-232.40
-213.97
-181.36
-136.15
-81.14
-20.14
42.65
103.36
158.81
206.58
244.70
271.57
286.13
288.53
280.59
265.88
248.99
234.16
224.05
218.97
217.21
216.20
213.96
210.00
205.39
202.05
201.59
204.50
209.74
214.93
216.71
211.34
195.42
166.93
126.38
77.36
26.45
-18.23
-48.94
-60.30
-50.25
-20.22
25.69
81.69
141.11
197.09
243.28
274.82
289.18
286.64
269.93
243.16
210.68
176.33
143.17
113.43
88.24
67.22
48.30
28.11
3.24
-28.43
-66.91
-110.47
-156.78
-204.26
-252.69
-302.58
-353.70
-403.64
-447.44
-478.60
-491.04
-481.22
-449.27
-398.79
-335.59
-265.91
-195.15
-127.45
-65.96
-13.41
27.78
55.92
70.67
73.60
67.93
57.61
46.21
36.11
28.29
22.63
18.55
15.52
13.41
12.50
13.30
16.23
21.31
27.95
34.91
40.46
42.82
40.71
33.92
23.32
10.68
-2.02
-13.10
-21.58
-27.14
-29.88
-30.08
-28.07
-24.25
-19.12
-13.41
-7.90
-3.39
-0.53
0.38
-0.59
-2.90
-5.65
-7.60
-7.56
-4.68
1.18
9.38
18.58
27.18
33.70
37.13
37.06
33.63
27.38
19.09
9.66
0.01
-9.04
-16.95
-23.50
-28.62
-32.15
-33.65
-32.38
-27.79
-19.95
-9.95
0.19
7.94
11.11
8.63
0.95
-9.94
-21.14
-29.87
-34.27
-33.96
-29.87
-23.62
-16.73
-10.14
-4.20
1.05
5.51
8.96
11.37
13.08
14.87
17.51
21.23
25.43
28.87
30.29
29.08
25.52
20.60
15.58
11.52
9.07
8.69
10.71
15.42
22.75
31.93
41.26
48.43
51.20
48.19
39.63
27.28
13.86
2.15
-5.97
-9.89
-10.28
-8.58
-6.40
-5.01
-5.11
-6.66
-9.04
-11.33
-12.61
-12.30
-10.28
-6.84
-2.51
2.20
6.87
11.20
14.91
17.79
19.69
20.55
20.45
19.64
18.49
17.60
17.84
20.16
25.25
33.04
42.30
50.86
56.27
56.83
52.36
44.40
35.75
29.36
27.45
30.81
38.67
48.91
58.35
63.23
59.85
45.49
19.48
-16.18
-56.95
-97.13
-131.72
-158.13
-176.44
-188.21
-194.35
-193.46
-182.04
-156.58
-116.56
-66.23
-14.04
30.23
59.05
69.76
64.93
50.80
34.73
23.09
20.39
29.20
50.45
83.47
125.85
173.49
221.40
265.05
301.75
331.37
355.62
376.49
394.55
408.13
413.86
408.25
389.50
358.31
317.43
270.47
220.55
169.86
119.78
71.27
25.09
-18.32
-59.07
-97.75
-135.12
-171.81
-208.43
-245.69
-284.25
-323.91
-362.58
-395.96
-418.18
-423.89
-410.27
-378.40
-332.87
-280.23
-226.98
-178.10
-136.53
-103.46
-78.99
-62.47
-52.84
-48.67
-48.28
-49.92
-52.01
-53.29
-52.98
-50.88
-47.38
-43.19
-38.97
-34.97
-30.90
-26.10
-20.00
-12.58
-4.51
3.07
8.97
12.40
13.20
11.71
8.54
4.23
-0.95
-6.97
-13.86
-21.24
-28.03
-32.40
-32.29
-26.26
-14.26
2.02
19.57
34.96
45.58
50.38
49.97
46.08
40.77
35.64
31.52
28.47
26.09
23.92
21.66
19.40
17.45
16.21
15.92
16.51
17.55
18.48
18.75
18.13
16.87
15.67
15.45
16.90
20.15
24.59
29.14
32.63
34.46
34.93
35.10
36.40
39.94
46.08
54.26
63.22
71.35
77.26
80.10
79.89
77.40
73.78
69.94
65.97
61.01
53.72
43.34
30.49
17.58
8.27
6.44
14.86
34.10
61.92
93.31
121.33
138.47
138.56
118.38
78.81
24.66
-36.33
-95.43
-144.88
-179.41
-196.95
-198.59
-187.79
-169.34
-148.10
-127.95
-111.19
-98.55
-89.84
-84.56
-82.19
-82.01
-82.78
-82.46
-78.66
-69.52
-54.76
-36.06
-16.82
-1.08
7.97
8.92
2.63
-8.28
-20.44
-30.72
-36.93
-38.06
-34.12
-25.92
-14.73
-1.98
11.00
23.13
33.70
42.21
48.09
50.51
48.44
40.85
27.46
9.41
-10.40
-27.34
-35.76
-30.12
-6.69
34.70
89.39
148.21
199.48
232.47
241.08
225.74
192.82
151.67
110.58
73.51
39.33
3.74
-37.04
-82.70
-127.41
-161.41
-174.65
-160.88
-119.91
-57.40
17.37
94.40
165.32
223.79
265.11
285.77
283.60
258.67
213.93
154.83
87.72
17.89
-51.30
-117.77
-178.94
-230.72
-267.56
-284.44
-279.27
-254.52
-216.89
-175.18
-137.33
-107.94
-87.83
-75.02
-66.76
-61.22
-57.89
-56.95
-58.16
-60.20
-61.01
-58.82
-53.14
-45.30
-37.97
-33.77
-33.92
-37.51
-41.83
-43.65
-40.75
-32.91
-21.97
-11.12
-3.47
-0.99
-3.84
-10.55
-18.64
-25.48
-28.97
-28.00
-22.59
-13.84
-3.69
5.49
11.52
13.06
10.08
3.95
-3.06
-8.61
-11.04
-9.94
-6.05
-0.84
4.20
8.01
10.19
10.96
10.95
11.05
12.16
14.98
19.84
26.46
33.90
40.76
45.48
46.84
44.23
37.79
28.45
17.66
7.24
-0.94
-5.40
-5.37
-1.12
6.02
14.04
20.92
25.27
26.80
26.22
24.85
23.94
24.17
25.53
27.41
28.98
29.58
28.91
27.01
24.26
21.12
18.07
15.46
13.55
12.42
12.02
12.20
12.62
12.87
12.50
11.13
8.57
4.99
0.89
-2.95
-5.71
-6.83
-6.16
-4.09
-1.27
1.59
4.06
6.12
8.07
10.29
12.95
15.91
18.67
20.71
21.71
21.70
21.05
20.18
19.36
18.57
17.55
15.99
13.70
10.70
7.19
3.45
-0.21
-3.49
-6.20
-8.22
-9.59
-10.55
-11.43
-12.58
-14.21
-16.31
-18.58
-20.47
-21.36
-20.68
-18.14
-13.79
-8.00
-1.38
5.41
11.66
16.70
19.85
20.50
18.30
13.57
7.28
1.02
-3.56
-5.25
-3.66
0.66
6.47
12.16
16.07
16.82
13.71
7.00
-1.92
-10.80
-17.27
-19.72
-18.02
-13.53
-8.45
-4.80
-3.60
-4.64
-6.95
-9.44
-11.49
-13.03
-14.28
-15.49
-16.75
-18.11
-19.57
-20.91
-21.55
-20.50
-16.65
-9.44
0.67
12.06
22.58
30.37
34.61
35.58
34.03
30.55
25.20
17.95
9.47
1.68
-2.58
-0.61
8.74
24.16
42.03
57.67
67.04
68.18
61.88
51.32
41.17
35.98
38.82
50.30
68.20
87.95
103.65
109.69
102.53
82.27
53.49
24.66
5.72
4.40
22.67
55.20
90.94
117.37
125.50
113.06
84.38
47.25
8.88
-26.78
-59.01
-88.40
-114.68
-135.89
-149.42
-153.76
-149.66
-139.96
-128.05
-116.35
-105.45
-94.40
-81.69
-66.47
-49.23
-31.74
-16.45
-5.58
-0.30
-0.32
-4.01
-9.03
-13.19
-15.29
-15.46
-14.93
-15.27
-17.58
-21.83
-26.92
-31.25
-33.40
-32.82
-29.87
-25.57
-20.96
-16.68
-12.86
-9.36
-6.04
-3.04
-0.73
0.58
0.89
0.59
0.32
0.61
1.53
2.73
3.69
4.09
4.08
4.20
5.07
7.07
10.14
13.88
17.83
21.60
24.89
27.42
28.75
28.45
26.25
22.32
17.27
11.97
7.17
3.28
0.23
-2.38
-5.00
-8.01
-11.42
-14.86
-17.50
-18.30
-16.34
-11.28
-3.63
5.26
13.59
19.69
22.51
21.85
18.31
13.00
7.20
2.00
-1.87
-4.21
-5.28
-5.72
-6.17
-6.93
-7.75
-7.95
-6.75
-3.74
0.86
6.15
10.90
13.90
14.43
12.34
8.15
2.83
-2.53
-6.96
-9.88
-11.24
-11.52
-11.47
-11.78
-12.76
-14.15
-15.21
-15.03
-13.01
-9.20
-4.43
-0.16
2.08
1.20
-2.82
-8.85
-14.85
-18.62
-18.57
-14.30
-6.71
2.39
11.00
17.57
21.31
22.24
20.88
17.94
14.18
10.20
6.46
3.24
0.59
-1.55
-3.22
-4.26
-4.27
-2.81
0.43
5.34
11.29
17.26
22.13
25.02
25.51
23.72
20.15
15.48
10.42
5.54
1.23
-2.31
-5.08
-7.30
-9.33
-11.52
-14.06
-16.72
-18.83
-19.41
-17.50
-12.68
-5.38
3.08
10.89
16.49
19.22
19.58
18.92
18.76
20.08
22.99
26.85
30.71
33.81
35.81
36.71
36.63
35.53
33.21
29.54
24.66
19.22
14.22
10.70
9.25
9.71
11.24
12.57
12.57
10.62
6.79
1.67
-4.00
-9.46
-14.08
-17.25
-18.40
-17.15
-13.62
-8.58
-3.33
0.74
2.68
2.39
0.50
-1.93
-3.98
-5.18
-5.53
-5.24
-4.39
-2.75
0.07
4.38
10.17
17.04
24.38
31.48
37.68
42.37
45.05
45.56
44.25
42.11
40.54
40.93
44.09
49.99
57.75
66.06
73.63
79.58
83.49
85.43
85.77
85.12
84.25
83.95
84.66
86.23
87.95
89.00
89.14
89.22
90.95
96.05
105.16
117.11
129.02
137.16
138.09
129.45
110.25
80.78
42.18
-3.54
-53.61
-104.82
-154.08
-199.38
-240.70
-280.26
-321.50
-366.95
-415.97
-463.45
-500.57
-517.70
-508.20
-471.18
-412.02
-340.19
-265.55
-195.04
-131.31
-73.36
-18.36
36.55
93.20
151.82
210.81
266.61
314.19
348.30
365.41
365.15
350.40
326.07
297.21
267.52
238.95
212.44
188.63
168.09
150.86
136.10
122.24
107.90
92.76
77.47
62.65
47.48
29.05
3.40
-32.14
-76.39
-123.24
-163.06
-186.04
-186.03
-163.10
-123.45
-77.05
-33.97
-1.34
17.97
24.67
21.28
10.39
-6.07
-26.55
-49.04
-70.76
-88.56
-99.93
-103.99
-101.83
-96.03
-89.50
-84.30
-80.96
-78.72
-76.31
-72.81
-68.18
-63.22
-58.92
-55.77
-53.28
-50.18
-44.94
-36.70
-25.71
-13.48
-2.20
5.97
9.60
8.40
3.10
-4.70
-13.06
-20.03
-24.08
-24.41
-21.08
-14.96
-7.46
-0.14
5.69
9.10
9.64
7.25
2.30
-4.33
-11.24
-16.73
-19.20
-17.71
-12.38
-4.36
4.57
12.59
18.46
21.63
22.19
20.53
17.20
12.86
8.38
4.79
3.03
3.53
5.93
9.04
11.34
11.53
9.15
4.69
-0.62
-5.37
-8.48
-9.43
-8.29
-5.46
-1.54
2.81
6.87
9.91
11.30
10.71
8.36
5.04
1.90
0.09
0.35
2.68
6.34
10.04
12.42
12.41
9.67
4.66
-1.43
-6.98
-10.53
-11.12
-8.62
-3.73
2.28
7.91
11.81
13.08
11.38
7.02
0.88
-5.67
-11.02
-13.72
-12.94
-8.83
-2.53
4.10
9.10
11.03
9.32
4.44
-2.40
-9.66
-15.84
-19.82
-20.89
-18.70
-13.27
-4.92
5.59
17.02
27.66
35.56
39.08
37.54
31.81
24.39
18.82
18.55
25.56
39.52
57.77
76.25
91.04
99.81
102.55
101.37
99.44
99.68
103.67
111.34
121.33
131.76
141.02
148.13
152.76
155.08
155.68
155.50
155.44
155.78
155.48
151.92
141.35
120.37
87.30
42.91
-9.89
-67.61
-127.84
-190.24
-255.71
-324.20
-392.47
-453.21
-496.57
-513.49
-499.43
-456.11
-390.89
-313.56
-232.62
-152.87
-75.14
2.12
80.86
161.79
243.74
323.49
396.03
454.97
493.76
507.50
494.74
458.38
404.63
340.83
273.10
205.25
139.49
78.07
24.23
-18.65
-49.20
-69.81
-86.19
-104.77
-129.03
-157.32
-183.45
-199.88
-201.94
-190.38
-170.94
-151.26
-137.10
-130.03
-127.71
-126.10
-122.19
-115.39
-107.26
-100.17
-95.68
-93.82
-93.43
-92.99
-91.53
-89.22
-86.95
-85.77
-86.14
-87.51
-88.49
-87.50
-83.54
-76.73
-68.21
-59.65
-52.34
-46.56
-41.61
-36.36
-30.04
-22.96
-16.41
-12.13
-11.40
-14.50
-20.56
-27.81
-34.16
-37.78
-37.50
-33.05
-25.06
-14.74
-3.40
7.93
18.68
28.48
36.90
43.15
46.24
45.49
41.08
34.24
26.82
20.63
16.58
14.50
13.39
12.09
9.86
6.58
2.70
-1.12
-4.29
-6.45
-7.56
-7.84
-7.68
-7.32
-6.65
-4.99
-1.31
5.31
14.98
26.60
37.92
46.31
49.68
47.42
40.68
32.01
24.35
20.02
19.87
23.13
27.83
31.63
32.72
30.38
24.97
17.65
9.95
3.42
-0.54
-0.95
2.38
8.43
14.94
18.96
18.02
11.39
0.51
-11.54
-21.51
-27.49
-29.54
-29.15
-27.94
-26.47
-24.08
-19.66
-12.86
-4.93
1.64
4.28
1.72
-5.26
-14.06
-21.46
-24.86
-23.25
-17.30
-8.88
-0.33
6.25
9.48
8.88
4.89
-1.27
-7.97
-13.62
-17.11
-18.04
-16.66
-13.61
-9.72
-5.91
-3.12
-2.24
-3.76
-7.49
-12.37
-16.80
-19.23
-18.88
-16.05
-11.85
-7.54
-3.91
-1.13
1.00
2.51
2.99
1.74
-1.75
-7.29
-14.00
-20.40
-25.08
-27.06
-26.16
-23.29
-20.31
-19.60
-23.02
-30.52
-39.03
-42.81
-35.50
-13.24
22.82
66.10
106.86
136.04
148.73
145.44
130.80
110.66
89.62
70.00
52.61
38.07
27.54
22.34
22.93
28.06
34.98
40.55
42.70
41.32
38.09
35.65
36.34
41.10
49.18
58.63
66.97
72.17
73.17
70.14
64.31
57.79
53.11
52.46
56.84
65.54
76.25
86.11
92.89
95.81
95.41
92.57
87.33
78.41
63.79
41.98
13.37
-19.53
-52.70
-82.09
-104.88
-119.99
-127.87
-129.74
-126.85
-120.15
-110.18
-97.20
-81.58
-64.16
-46.56
-30.95
-19.74
-14.88
-17.15
-25.85
-38.80
-52.99
-65.24
-72.90
-74.29
-68.94
-57.49
-41.53
-23.26
-5.05
11.05
23.71
32.49
37.82
40.67
42.21
43.43
45.04
47.46
50.83
55.07
59.82
64.45
68.08
70.01
70.08
68.99
68.26
69.69
74.53
82.93
93.71
104.96
114.97
123.17
130.17
137.42
146.25
156.99
168.68
179.13
185.42
184.54
174.04
152.32
118.83
74.30
21.23
-35.97
-91.32
-138.43
-172.29
-190.85
-195.56
-190.54
-180.70
-169.88
-159.87
-150.65
-141.58
-132.70
-125.13
-120.51
-119.93
-123.19
-128.76
-134.48
-138.48
-139.68
-137.84
-133.36
-126.81
-118.69
-109.29
-98.80
-87.55
-76.06
-65.10
-55.62
-48.31
-43.29
-40.02
-37.40
-34.23
-29.68
-23.69
-16.93
-10.50
-5.24
-1.32
1.96
5.74
11.12
18.54
27.56
37.12
45.93
53.11
58.51
62.69
66.57
70.81
75.67
80.78
85.52
89.25
91.42
91.39
88.64
83.35
77.07
72.87
74.20
83.07
98.22
114.97
126.75
127.77
115.25
89.94
54.97
14.03
-29.73
-73.64
-114.66
-148.88
-172.30
-182.31
-179.12
-165.91
-147.60
-129.02
-113.51
-102.62
-96.43
-94.21
-94.73
-96.30
-96.75
-93.74
-85.51
-71.61
-53.14
-32.54
-12.76
3.75
15.74
23.22
27.08
28.42
28.01
26.12
22.78
18.15
12.82
7.80
4.28
3.20
4.88
8.84
13.86
18.36
20.86
20.47
17.09
11.40
4.48
-2.45
-8.46
-12.99
-15.87
-17.27
-17.57
-17.21
-16.65
-16.21
-16.04
-16.21
-16.79
-17.99
-20.08
-23.22
-27.17
-31.19
-34.22
-35.33
-34.07
-30.67
-25.84
-20.40
-14.92
-9.67
-4.91
-1.08
1.05
0.71
-2.50
-8.22
-15.23
-21.81
-26.27
-27.47
-25.18
-19.98
-13.00
-5.39
2.00
8.82
15.14
21.22
27.19
32.89
37.84
41.40
42.97
42.13
38.67
32.70
24.62
15.19
5.61
-2.76
-8.63
-11.12
-10.08
-6.08
-0.22
6.22
12.11
16.59
19.17
19.66
18.14
15.03
10.96
6.72
3.06
0.43
-1.06
-1.60
-1.57
-1.40
-1.42
-1.85
-2.70
-3.79
-4.85
-5.69
-6.27
-6.91
-8.06
-10.10
-13.13
-16.85
-20.69
-24.01
-26.17
-26.53
-24.48
-19.48
-11.39
-0.76
11.07
22.25
30.97
35.98
36.91
34.11
28.35
20.51
11.55
2.61
-5.00
-9.95
-11.31
-8.92
-3.46
3.81
11.47
18.32
23.61
26.93
28.23
27.74
25.93
23.52
21.22
19.56
18.76
18.70
19.11
19.74
20.35
20.64
20.24
18.79
16.34
13.39
10.84
9.45
9.38
9.96
10.12
9.00
6.55
3.62
1.45
0.94
2.15
4.22
5.87
6.03
4.27
0.87
-3.45
-7.96
-12.09
-15.49
-18.05
-19.76
-20.88
-22.08
-24.36
-28.70
-35.44
-43.82
-51.86
-56.92
-56.69
-50.28
-38.80
-24.98
-12.17
-3.00
1.50
2.19
1.15
0.75
2.70
7.56
14.80
23.24
31.60
38.98
44.99
49.58
52.78
54.40
53.99
51.09
45.56
37.98
29.68
22.36
17.34
14.77
13.35
10.89
5.55
-2.87
-12.28
-19.05
-19.70
-12.99
-1.04
11.12
17.57
13.80
-1.44
-25.74
-54.12
-80.32
-97.97
-101.41
-86.46
-52.03
-2.05
53.71
101.28
127.07
123.86
94.87
53.65
19.23
8.79
31.54
86.32
163.57
250.00
333.05
403.46
455.76
487.78
499.91
495.06
478.16
455.25
431.72
411.00
393.57
377.43
359.28
335.87
305.30
267.65
225.00
180.76
138.60
101.27
69.87
43.70
20.77
-1.14
-23.82
-47.97
-73.40
-99.46
-125.46
-151.15
-176.97
-203.95
-233.15
-264.88
-298.09
-330.09
-357.08
-375.15
-381.61
-375.88
-359.71
-336.56
-310.44
-284.87
-262.14
-243.20
-227.95
-215.74
-205.73
-197.08
-189.03
-180.84
-171.83
-161.51
-149.77
-137.09
-124.78
-114.49
-107.58
-104.44
-103.92
-103.39
-99.58
-89.71
-72.79
-50.30
-26.07
-5.04
8.38
11.99
6.59
-4.35
-16.07
-24.20
-26.12
-21.33
-11.14
2.20
16.15
28.13
35.43
35.42
26.15
7.37
-18.68
-47.39
-72.87
-89.86
-95.46
-90.03
-76.85
-60.70
-46.20
-36.32
-31.86
-31.61
-33.26
-34.36
-33.06
-28.51
-20.83
-10.84
0.30
11.35
21.21
28.99
34.03
35.94
34.78
31.03
25.68
20.06
15.56
13.28
13.68
16.42
20.53
24.74
27.90
29.36
29.03
27.22
24.39
21.01
17.53
14.43
12.14
10.81
9.99
8.56
5.07
-1.47
-10.81
-21.20
-29.87
-34.13
-32.55
-25.48
-14.80
-2.87
8.55
18.94
28.82
39.01
49.82
60.67
70.24
77.20
80.93
82.03
82.28
84.05
89.45
99.56
114.05
131.33
149.14
165.36
178.60
188.42
195.10
199.37
202.18
204.80
208.72
215.38
225.28
237.17
247.67
251.98
245.42
225.28
191.75
147.70
97.17
43.66
-10.69
-64.76
-117.21
-165.56
-206.27
-236.02
-253.21
-258.75
-255.57
-247.24
-236.55
-224.80
-212.29
-199.20
-186.42
-175.51
-168.02
-164.56
-164.29
-165.16
-164.64
-160.83
-153.00
-141.70
-128.32
-114.28
-100.53
-87.33
-74.53
-61.92
-49.65
-38.26
-28.43
-20.71
-15.23
-11.79
-10.07
-9.84
-11.03
-13.65
-17.63
-22.74
-28.53
-34.33
-39.35
-42.80
-44.03
-42.75
-39.10
-33.61
-27.04
-20.08
-13.20
-6.52
0.06
6.74
13.65
20.64
27.30
32.91
36.56
37.43
35.08
29.84
22.78
15.57
9.91
7.05
7.40
10.51
15.34
20.74
25.88
30.40
34.37
38.12
41.96
46.02
50.20
54.07
56.99
58.08
56.21
50.29
39.49
23.76
4.18
-17.00
-36.86
-52.61
-62.36
-65.62
-63.05
-55.92
-45.49
-32.72
-18.56
-4.29
8.10
16.39
18.83
15.04
6.33
-4.60
-14.69
-21.41
-23.46
-20.91
-14.89
-7.19
0.11
5.07
6.26
3.14
-3.75
-12.85
-22.03
-29.25
-33.16
-33.30
-30.07
-24.40
-17.48
-10.65
-5.23
-2.32
-2.51
-5.57
-10.37
-15.16
-18.12
-17.95
-14.15
-6.97
2.85
14.43
26.87
39.08
49.70
57.16
60.34
59.23
55.47
52.04
52.36
58.80
71.58
88.50
105.83
119.82
128.31
131.54
131.83
132.57
137.07
147.65
165.24
189.08
216.55
243.39
264.39
274.58
270.92
253.15
223.82
186.96
146.23
103.25
57.17
5.91
-51.38
-111.92
-168.65
-211.97
-233.31
-228.91
-201.74
-160.61
-116.83
-79.95
-54.74
-40.83
-34.47
-31.39
-28.79
-25.91
-23.18
-21.09
-19.66
-18.79
-18.86
-20.97
-26.49
-36.46
-50.72
-67.75
-84.99
-99.66
-109.70
-114.34
-114.25
-111.14
-107.10
-103.81
-102.04
-101.47
-100.89
-98.83
-94.28
-87.07
-78.04
-68.60
-60.01
-52.93
-47.30
-42.70
-38.78
-35.55
-33.31
-32.24
-32.02
-31.76
-30.28
-26.66
-20.75
-13.28
-5.64
0.86
5.50
8.38
10.35
12.44
15.35
19.00
22.68
25.30
25.93
24.11
19.94
13.85
6.42
-1.76
-9.99
-17.49
-23.39
-27.08
-28.56
-28.48
-27.72
-26.55
-23.92
-17.50
-4.76
15.41
41.33
68.49
90.88
103.25
103.09
91.41
71.99
49.57
28.11
9.77
-4.94
-16.28
-24.45
-29.25
-30.40
-28.15
-23.64
-18.81
-15.70
-15.62
-18.56
-23.29
-28.02
-31.32
-32.83
-33.19
-33.52
-34.63
-36.45
-38.12
-38.44
-36.65
-32.78
-27.66
-22.45
-18.15
-15.25
-13.67
-12.98
-12.67
-12.27
-11.42
-9.93
-7.92
-6.05
-5.52
-7.76
-13.65
-22.95
-34.02
-44.31
-51.29
-53.52
-51.09
-45.38
-38.31
-31.47
-25.64
-20.96
-17.31
-14.74
-13.50
-13.74
-15.24
-17.19
-18.46
-18.07
-15.67
-11.80
-7.67
-4.63
-3.53
-4.28
-5.94
-7.12
-6.68
-4.23
-0.28
4.06
7.61
9.65
10.16
9.65
8.89
8.47
8.70
9.63
11.23
13.52
16.54
20.29
24.54
28.80
32.44
34.81
35.50
34.38
31.62
27.70
23.32
19.35
16.67
15.96
17.51
21.10
26.08
31.56
36.65
40.68
43.31
44.53
44.54
43.63
42.05
39.95
37.37
34.26
30.56
26.31
21.79
17.49
13.97
11.44
9.73
8.30
6.53
4.25
1.86
0.13
-0.26
0.72
2.33
3.42
3.10
1.30
-1.16
-3.08
-3.54
-2.42
-0.39
1.52
2.49
2.26
1.02
-0.90
-3.35
-6.56
-10.87
-16.30
-22.30
-27.80
-31.64
-33.11
-32.34
-30.34
-28.47
-27.89
-29.15
-32.14
-36.37
-41.33
-46.64
-52.00
-57.06
-61.38
-64.69
-67.12
-69.52
-73.44
-80.69
-92.65
-109.42
-129.44
-149.63
-165.94
-174.38
-172.27
-159.28
-137.79
-112.29
-87.57
-66.69
-49.39
-32.07
-9.33
23.70
69.56
127.99
196.77
272.85
352.84
432.55
506.40
567.74
610.58
631.85
632.94
619.25
597.80
574.30
551.39
528.80
504.86
478.34
449.38
419.02
388.17
356.89
324.51
290.37
254.60
218.32
183.24
150.81
121.60
95.04
69.89
44.88
19.29
-6.73
-32.46
-56.97
-79.62
-100.41
-119.87
-138.92
-158.59
-179.82
-203.37
-229.62
-258.14
-287.40
-314.69
-336.77
-350.82
-355.51
-351.41
-340.58
-325.54
-308.29
-289.92
-270.92
-251.82
-233.55
-217.28
-203.83
-193.11
-184.18
-175.72
-166.75
-157.01
-146.74
-136.30
-125.77
-114.95
-103.61
-91.82
-79.97
-68.64
-58.29
-49.06
-40.87
-33.61
-27.25
-21.91
-17.78
-15.02
-13.83
-14.41
-16.95
-21.40
-27.26
-33.36
-38.11
-40.08
-38.60
-34.28
-28.82
-24.46
-23.11
-25.68
-31.76
-39.72
-47.25
-51.83
-51.50
-45.29
-33.58
-18.12
-1.56
13.09
23.15
26.77
23.27
13.18
-1.80
-18.91
-34.83
-46.36
-51.42
-49.82
-43.35
-35.15
-28.45
-25.36
-26.26
-29.95
-34.33
-37.22
-36.96
-32.62
-24.21
-12.53
0.78
13.51
23.32
28.30
27.58
21.68
12.34
2.15
-6.25
-10.84
-10.97
-7.49
-2.54
1.27
1.84
-1.55
-7.85
-14.51
-18.40
-17.10
-9.82
2.22
16.33
29.46
39.33
45.17
47.61
47.94
47.26
45.95
43.60
39.47
33.04
24.36
14.14
3.61
-5.68
-12.23
-14.95
-13.60
-9.08
-3.39
0.82
1.08
-4.16
-14.98
-29.96
-46.54
-61.55
-71.87
-75.00
-69.72
-56.50
-37.50
-16.02
4.51
21.68
34.74
44.48
52.35
59.23
64.71
67.06
64.24
55.02
39.89
21.24
2.67
-12.05
-20.06
-20.21
-13.21
-1.51
11.33
21.55
25.94
22.68
11.78
-4.84
-23.65
-40.37
-51.00
-52.95
-45.89
-31.96
-15.16
-0.28
8.51
8.86
0.69
-13.73
-30.51
-45.07
-53.36
-52.78
-42.80
-24.87
-1.82
23.05
46.81
67.43
83.85
95.73
103.14
106.32
105.55
101.14
93.41
82.80
70.19
57.11
45.70
38.29
36.54
40.58
48.98
59.29
69.28
78.14
86.57
95.76
105.66
114.10
117.56
113.03
99.93
80.57
58.90
38.19
19.50
1.64
-17.19
-37.49
-57.59
-74.46
-85.42
-89.54
-87.97
-82.95
-76.61
-70.23
-64.31
-59.13
-55.07
-52.36
-50.73
-49.25
-46.44
-40.93
-32.19
-21.05
-9.61
-0.59
3.44
0.80
-8.81
-24.32
-43.55
-63.46
-80.56
-91.40
-93.36
-85.54
-69.29
-47.96
-25.61
-5.49
11.12
24.89
37.24
48.93
59.30
66.73
69.97
69.29
66.52
63.93
62.71
61.98
59.07
50.97
35.96
14.57
-10.57
-35.73
-57.37
-73.21
-82.57
-86.16
-85.45
-82.06
-77.13
-71.16
-64.12
-55.87
-46.44
-36.30
-26.13
-16.53
-7.86
-0.38
5.43
8.52
7.50
1.22
-10.23
-24.86
-38.86
-47.62
-47.30
-36.44
-16.60
8.24
33.20
54.29
69.45
78.64
83.06
84.11
82.76
79.55
75.00
70.00
65.90
64.08
65.46
70.11
77.28
85.82
94.60
102.77
109.64
114.68
117.44
118.09
117.96
119.90
127.45
143.33
167.63
197.01
225.32
245.65
252.74
244.84
223.94
194.46
161.16
127.38
94.45
62.35
30.96
0.95
-26.06
-48.26
-64.41
-74.32
-78.82
-79.22
-77.00
-73.62
-70.80
-70.69
-75.85
-88.24
-108.18
-133.53
-159.83
-181.36
-193.00
-191.85
-178.34
-156.33
-132.10
-112.55
-103.11
-105.96
-119.38
-138.29
-156.21
-167.61
-169.99
-164.68
-156.10
-149.63
-148.96
-154.20
-161.56
-164.92
-158.43
-139.05
-107.70
-68.61
-27.35
11.26
44.42
71.00
90.39
101.33
101.91
90.73
68.42
38.47
6.52
-21.59
-42.09
-54.47
-60.99
-65.08
-69.33
-74.39
-79.16
-81.90
-81.54
-78.32
-73.69
-69.72
-68.35
-70.77
-77.04
-85.69
-93.76
-97.30
-92.53
-77.22
-51.94
-20.38
11.40
36.73
50.32
49.96
37.26
17.20
-3.49
-18.49
-23.97
-19.72
-8.85
3.75
13.50
17.75
16.30
10.73
3.34
-3.78
-9.11
-11.66
-10.95
-7.15
-1.17
5.54
11.51
16.08
19.79
24.04
30.31
39.25
50.26
61.51
70.56
74.95
72.66
62.39
43.95
18.56
-10.82
-39.55
-61.95
-72.73
-68.50
-49.20
-18.47
17.19
50.18
74.04
85.16
83.39
71.45
53.44
33.40
14.35
-1.84
-13.96
-20.97
-21.78
-15.59
-2.37
16.53
38.32
59.00
74.15
80.08
74.91
59.31
36.46
11.28
-10.85
-25.51
-30.22
-24.78
-11.02
7.60
26.54
40.83
46.07
39.73
22.49
-1.34
-24.62
-39.51
-40.10
-24.49
4.57
40.52
74.98
100.24
111.15
106.27
88.04
62.02
35.63
16.21
9.10
16.13
35.21
61.21
87.84
109.77
124.13
130.96
132.66
132.47
133.33
137.05
143.90
152.56
160.35
163.75
159.53
146.47
126.48
104.31
85.52
73.50
67.59
63.36
55.22
39.89
18.37
-4.75
-24.12
-36.90
-44.20
-49.99
-58.45
-71.63
-88.70
-107.12
-124.39
-139.28
-152.00
-163.50
-174.50
-184.95
-193.99
-199.91
-200.63
-194.30
-179.85
-157.58
-129.42
-98.62
-69.02
-44.13
-26.30
-16.42
-13.80
-16.51
-21.71
-26.07
-26.35
-19.99
-5.76
15.83
42.52
70.67
95.99
114.53
123.66
122.82
113.77
100.17
86.53
76.86
73.49
76.47
83.72
92.07
98.56
101.57
101.23
98.95
96.38
94.56
93.55
92.79
91.97
91.58
92.97
97.64
106.42
118.96
133.74
148.42
160.40
167.03
165.71
154.14
130.90
96.41
53.67
8.37
-32.26
-61.48
-75.06
-72.59
-57.16
-34.01
-8.71
14.12
31.22
40.10
38.52
24.65
-2.38
-40.89
-86.15
-131.20
-168.93
-194.17
-204.73
-201.04
-185.07
-159.54
-127.96
-95.18
-67.12
-49.49
-45.41
-53.74
-69.16
-84.44
-93.57
-93.97
-86.55
-74.07
-59.08
-43.08
-26.97
-12.11
-0.65
5.27
4.89
-0.58
-8.38
-15.33
-19.50
-20.85
-20.98
-22.15
-26.25
-34.12
-45.27
-58.00
-69.82
-78.14
-81.15
-78.52
-71.67
-63.37
-56.61
-53.54
-54.71
-59.24
-65.57
-72.41
-79.26
-86.46
-94.66
-104.13
-114.34
-123.93
-131.25
-134.96
-134.62
-130.81
-124.93
-118.44
-112.18
-105.78
-97.87
-86.66
-70.92
-50.68
-27.46
-3.86
17.36
34.23
46.24
54.43
60.84
67.43
75.08
83.04
89.07
90.49
85.30
73.12
55.48
35.33
16.16
1.18
-7.21
-7.77
-0.67
12.23
27.31
39.73
44.62
38.87
22.40
-1.23
-25.85
-44.72
-52.77
-48.14
-32.40
-9.56
15.48
38.29
55.65
65.67
67.55
61.50
48.56
30.81
11.06
-7.43
-21.65
-29.59
-30.80
-26.55
-19.40
-12.28
-7.31
-4.86
-3.44
-0.51
5.92
15.93
27.23
36.19
39.56
36.38
28.58
20.23
15.66
17.65
26.46
40.13
55.59
69.83
80.53
86.21
86.26
81.26
73.43
66.74
65.94
74.67
93.42
118.51
143.12
159.72
163.21
152.63
130.93
103.07
73.69
45.61
19.90
-3.02
-22.36
-36.86
-45.52
-48.69
-48.54
-48.46
-51.90
-60.97
-75.68
-93.98
-112.50
-127.71
-137.12
-140.25
-138.99
-137.32
-140.10
-151.46
-172.89
-202.22
-233.78
-260.12
-274.43
-272.89
-255.81
-226.97
-191.70
-154.54
-117.72
-80.99
-42.84
-2.05
41.58
87.52
135.68
186.86
242.01
300.20
357.16
405.17
435.14
440.01
417.40
370.08
304.11
226.21
142.05
56.82
-23.05
-88.84
-130.96
-142.76
-124.39
-84.37
-37.04
2.91
26.11
31.23
23.69
11.45
0.53
-7.13
-12.98
-19.17
-26.31
-32.77
-35.95
-34.03
-27.12
-17.23
-6.95
1.70
7.70
10.60
9.77
4.15
-7.30
-24.61
-46.17
-68.68
-88.14
-101.00
-105.13
-100.15
-87.07
-67.78
-44.49
-19.36
5.80
29.83
52.16
72.58
90.56
104.86
113.49
114.43
106.56
90.48
68.53
44.07
20.72
1.51
-11.41
-17.13
-16.37
-11.63
-6.97
-6.78
-14.29
-30.33
-53.38
-80.74
-110.40
-142.01
-176.44
-213.97
-252.46
-286.84
-310.28
-316.78
-303.52
-271.91
-226.79
-174.47
-120.62
-68.87
-20.64
24.52
68.15
112.73
161.13
215.93
277.81
344.07
408.01
460.25
491.54
496.20
474.29
431.27
375.65
315.72
256.79
200.46
145.40
89.08
29.67
-32.43
-93.79
-148.30
-188.78
-209.57
-209.28
-192.41
-168.48
-148.83
-142.47
-152.78
-176.92
-207.70
-236.96
-258.38
-268.72
-267.42
-255.44
-234.17
-204.91
-168.92
-127.38
-81.35
-31.20
23.34
82.80
147.02
213.81
278.54
334.85
376.47
399.19
402.06
387.24
358.58
320.03
274.51
224.03
170.67
117.42
68.39
27.69
-2.29
-22.25
-36.23
-50.53
-71.50
-103.48
-147.32
-200.48
-257.86
-313.26
-360.42
-393.83
-409.41
-405.23
-382.26
-344.48
-298.21
-250.28
-206.06
-168.16
-136.49
-109.62
-86.31
-66.40
-50.58
-39.37
-32.25
-27.60
-23.52
-18.87
-13.66
-8.83
-5.33
-3.40
-2.30
-0.80
2.18
7.01
13.32
20.25
26.90
32.57
36.83
39.49
40.62
40.57
39.92
39.23
38.85
38.61
38.00
36.34
33.31
29.14
24.66
21.03
19.14
19.22
20.59
21.91
21.66
18.80
13.03
4.91
-4.65
-14.70
-24.56
-33.54
-40.55
-43.99
-42.21
-34.39
-21.40
-5.83
8.98
20.32
27.32
30.91
33.03
35.29
38.16
41.11
43.28
44.28
44.39
44.10
43.50
41.96
38.56
32.87
25.58
18.54
14.23
14.70
20.71
31.33
44.16
56.14
64.49
67.63
65.50
59.29
50.79
41.67
33.13
26.00
20.97
18.77
19.92
24.40
31.43
39.52
47.09
53.16
57.70
61.63
66.14
72.07
79.42
87.35
94.66
100.35
104.17
106.92
110.38
116.89
128.65
147.00
171.75
200.99
231.33
258.52
278.20
286.88
282.44
264.45
234.04
193.38
144.85
90.34
31.16
-31.21
-93.96
-152.32
-200.15
-231.87
-244.85
-240.79
-225.18
-205.02
-185.96
-170.46
-157.96
-146.51
-134.83
-123.54
-114.80
-111.08
-113.66
-121.96
-133.73
-145.94
-155.66
-160.69
-159.96
-153.42
-141.78
-126.25
-108.37
-89.88
-72.66
-58.54
-48.91
-44.39
-44.45
-47.58
-51.58
-54.12
-53.29
-47.95
-38.00
-24.41
-9.04
5.86
18.28
27.01
31.94
33.83
33.89
33.13
32.13
31.03
29.93
29.08
28.93
29.94
32.21
35.42
38.98
42.34
45.26
47.85
50.28
52.44
53.79
53.50
50.87
45.82
39.12
32.18
26.59
23.50
23.16
24.82
27.07
28.37
27.53
24.18
18.75
12.41
6.79
3.62
4.20
8.92
17.01
26.66
35.73
42.50
46.39
47.96
48.27
48.06
47.16
44.76
40.23
34.07
28.12
24.88
26.23
32.21
40.88
48.95
53.31
52.34
46.56
38.50
31.67
29.42
33.73
44.64
60.24
77.40
92.71
103.42
107.98
106.09
98.41
86.24
71.40
56.16
43.01
34.28
31.39
34.33
41.58
50.66
59.05
65.07
68.34
69.66
70.53
72.41
76.26
82.15
89.20
95.99
101.12
103.81
104.21
103.32
102.34
102.02
102.21
101.93
99.87
94.86
86.23
73.88
58.38
41.02
23.72
8.62
-2.79
-10.47
-16.06
-22.22
-31.21
-43.76
-58.43
-72.68
-84.46
-93.83
-103.57
-118.70
-144.87
-186.29
-243.61
-312.53
-383.77
-444.94
-483.71
-491.35
-464.96
-407.77
-327.81
-236.00
-144.39
-64.75
-6.94
23.25
26.03
8.36
-17.88
-39.87
-48.40
-40.79
-20.69
4.90
29.37
48.71
61.90
69.52
72.35
70.80
65.49
57.82
50.18
45.22
44.74
48.80
55.46
61.52
63.78
60.33
51.27
38.52
25.00
13.33
4.88
-0.71
-5.19
-10.70
-18.71
-29.08
-39.86
-47.94
-50.20
-44.87
-32.45
-15.65
1.45
15.06
23.12
25.91
25.72
25.48
27.36
31.82
37.70
43.17
46.72
47.74
46.36
42.83
37.21
29.89
22.03
15.39
11.46
9.98
8.74
4.74
-3.44
-13.59
-19.54
-13.26
11.59
56.38
116.39
182.57
245.00
296.52
334.45
360.07
376.47
386.15
389.79
386.33
374.26
353.00
323.59
288.59
250.76
212.03
173.00
133.41
92.98
52.14
12.09
-25.88
-61.02
-93.96
-126.76
-162.30
-202.87
-248.44
-295.39
-336.87
-364.91
-373.68
-362.22
-335.06
-300.24
-265.69
-236.12
-211.88
-190.52
-169.51
-148.51
-129.61
-115.72
-108.40
-106.55
-106.92
-105.85
-100.99
-92.11
-80.72
-68.96
-58.52
-50.15
-43.78
-38.99
-35.37
-32.69
-30.87
-29.77
-29.23
-29.06
-29.22
-29.89
-31.52
-34.74
-40.18
-48.10
-58.02
-68.49
-77.26
-81.84
-80.37
-72.36
-58.94
-42.47
-25.80
-11.36
-0.65
5.93
8.86
9.19
8.26
7.37
7.65
9.72
13.50
18.22
22.63
25.48
26.04
24.39
21.43
18.55
17.09
17.79
20.51
24.28
27.79
29.92
30.14
28.63
25.95
22.67
19.10
15.36
11.59
8.17
5.71
4.85
5.97
8.95
13.19
17.83
22.00
25.04
26.63
26.71
25.56
23.67
21.67
20.24
19.92
20.95
23.26
26.45
29.94
33.08
35.35
36.47
36.52
35.96
35.49
35.85
37.52
40.48
44.22
47.88
50.50
51.35
50.10
46.91
42.43
37.71
33.95
32.14
32.74
35.50
39.59
43.92
47.72
50.85
53.87
57.63
62.89
69.77
77.68
85.49
91.89
95.98
97.73
98.32
99.65
103.49
110.14
117.50
121.25
115.99
96.97
61.64
10.55
-52.29
-119.78
-182.83
-232.24
-261.07
-266.80
-252.15
-224.08
-191.03
-159.84
-133.91
-113.34
-96.74
-83.25
-73.40
-68.32
-68.23
-71.41
-74.55
-74.33
-69.14
-59.90
-49.50
-41.48
-38.29
-40.25
-45.52
-51.03
-53.74
-51.76
-44.86
-34.24
-21.91
-9.81
0.64
8.67
14.11
17.11
18.15
17.92
17.22
16.81
17.27
18.75
21.09
23.90
26.80
29.56
32.18
34.79
37.59
40.78
44.60
49.25
54.85
61.25
68.00
74.36
79.59
83.21
85.33
86.70
88.45
91.77
97.34
105.03
113.93
122.55
129.45
133.82
135.92
137.05
139.11
143.92
152.61
165.35
181.47
199.78
218.62
235.73
248.16
252.76
247.13
230.87
206.25
177.52
149.36
125.03
105.25
88.66
73.09
56.82
39.13
19.62
-2.88
-30.69
-66.55
-111.78
-164.40
-218.50
-265.35
-296.18
-305.35
-292.41
-262.20
-223.05
-183.95
-152.00
-130.87
-120.64
-118.38
-119.29
-117.95
-109.55
-91.10
-62.16
-24.87
17.21
60.65
103.36
144.50
183.40
218.22
245.51
261.18
262.39
248.97
223.44
189.55
150.52
108.04
62.73
15.56
-30.89
-72.54
-105.24
-126.82
-138.21
-143.26
-147.03
-153.69
-164.92
-179.70
-194.94
-207.00
-213.13
-212.33
-205.74
-196.17
-187.01
-180.87
-178.46
-178.26
-177.30
-172.67
-162.90
-148.68
-132.48
-117.37
-105.68
-98.17
-93.97
-91.27
-88.23
-83.69
-77.54
-70.49
-63.58
-57.65
-52.89
-48.73
-44.06
-37.64
-28.60
-16.67
-2.27
13.55
29.42
43.90
55.73
63.94
68.00
67.89
63.95
56.87
47.48
36.59
24.83
12.64
0.48
-10.89
-20.39
-26.80
-29.20
-27.33
-21.88
-14.22
-5.99
1.34
6.72
9.51
9.49
6.94
2.97
-0.62
-1.53
2.15
11.17
24.59
40.01
54.43
65.18
70.62
70.17
64.19
53.64
39.91
24.80
10.30
-1.86
-10.65
-16.02
-18.70
-19.57
-19.14
-17.42
-14.32
-10.46
-7.53
-8.00
-13.93
-25.61
-40.92
-55.75
-65.48
-66.86
-59.21
-44.69
-27.30
-11.47
-0.61
3.57
1.21
-6.15
-16.10
-25.91
-32.92
-35.03
-31.28
-22.29
-10.32
1.25
9.08
11.07
7.16
-0.62
-8.99
-14.66
-15.38
-10.53
-0.97
11.47
24.44
35.47
42.22
42.80
36.38
23.76
7.49
-8.67
-20.82
-26.34
-24.73
-17.68
-8.43
-0.67
2.49
-0.95
-11.42
-27.78
-47.31
-66.12
-79.97
-85.43
-80.96
-67.53
-48.25
-27.25
-8.26
6.24
15.18
18.42
16.20
8.87
-2.88
-17.59
-32.99
-46.40
-55.60
-59.79
-59.91
-58.46
-58.46
-62.34
-70.94
-83.11
-95.97
-105.80
-109.17
-104.11
-90.68
-70.84
-47.59
-23.77
-1.03
20.63
42.59
67.15
96.82
133.83
179.35
232.52
289.72
344.50
388.87
415.66
421.02
405.81
375.11
335.97
294.63
254.66
216.79
180.34
145.05
111.98
83.15
60.21
43.25
30.71
20.39
11.16
3.88
1.40
7.06
22.84
48.16
79.90
113.78
146.13
175.18
201.34
226.36
251.95
278.70
305.59
330.20
349.52
360.88
362.67
354.78
338.51
315.99
289.50
260.89
231.41
201.90
173.11
145.84
120.84
98.52
78.69
60.51
42.88
24.97
6.61
-11.54
-28.36
-42.85
-54.73
-64.64
-73.95
-84.15
-96.22
-110.22
-125.40
-140.58
-154.89
-168.16
-181.05
-194.85
-211.06
-231.09
-255.72
-284.69
-316.25
-347.02
-372.41
-387.84
-390.21
-379.29
-358.04
-331.85
-306.78
-287.70
-277.06
-274.84
-279.37
-288.32
-299.46
-310.74
-320.10
-325.32
-324.30
-315.69
-299.61
-277.94
-254.16
-232.21
-215.23
-204.39
-198.42
-194.31
-188.63
-179.20
-166.17
-151.86
-139.48
-131.40
-127.83
-126.82
-125.29
-120.55
-111.37
-98.12
-82.14
-64.85
-47.44
-31.09
-17.36
-8.26
-5.68
-10.53
-22.17
-38.60
-57.26
-76.01
-93.54
-109.14
-121.86
-129.78
-129.96
-119.06
-94.82
-57.39
-10.09
41.11
89.29
128.81
156.98
174.27
183.25
186.64
186.02
181.70
173.85
163.69
153.82
147.25
145.77
148.90
154.22
158.86
161.28
162.05
163.26
166.88
173.32
181.07
187.57
190.80
190.47
188.20
186.56
187.46
190.86
194.64
195.60
191.34
182.06
171.29
164.91
168.71
185.80
214.91
250.59
285.16
311.51
325.23
325.40
313.77
293.14
265.87
233.30
195.92
154.10
108.57
60.57
11.58
-37.00
-84.02
-128.51
-169.51
-205.97
-236.67
-260.25
-275.41
-281.30
-277.86
-266.05
-247.81
-225.65
-201.94
-178.39
-155.74
-133.94
-112.53
-91.19
-69.98
-49.33
-29.93
-12.43
2.70
15.22
24.98
31.90
35.94
37.15
35.84
32.58
28.31
23.97
20.28
17.29
14.36
10.20
3.25
-7.78
-23.46
-43.30
-65.77
-88.57
-109.07
-124.93
-134.42
-136.63
-131.38
-119.09
-100.68
-77.46
-51.20
-23.96
2.06
24.87
43.01
55.63
62.39
63.21
58.27
48.13
34.00
17.82
2.01
-11.22
-20.58
-25.91
-27.96
-27.68
-25.79
-22.81
-19.45
-17.01
-17.07
-20.75
-27.82
-36.40
-43.62
-46.86
-44.91
-38.30
-28.74
-18.00
-7.20
3.25
13.11
21.72
27.92
30.43
28.37
21.46
9.63
-7.44
-30.67
-61.18
-99.33
-143.81
-191.27
-237.12
-277.05
-308.52
-331.29
-346.78
-356.41
-360.33
-357.17
-345.02
-323.28
-293.62
-259.26
-223.31
-187.45
-152.14
-118.07
-87.82
-65.49
-54.64
-55.29
-62.44
-66.98
-59.56
-34.63
6.99
58.75
111.58
157.59
192.23
214.13
223.33
219.89
203.90
176.98
143.71
111.65
89.29
82.67
92.37
112.74
134.57
149.54
154.15
150.89
146.06
145.55
151.42
161.36
170.59
175.20
174.42
170.56
167.06
166.36
168.32
170.80
171.29
168.52
163.10
156.90
151.45
146.59
140.10
128.41
108.44
79.29
43.23
5.12
-29.32
-55.80
-73.00
-82.71
-88.51
-93.81
-100.26
-107.23
-112.63
-114.07
-109.97
-100.07
-85.38
-67.96
-50.70
-36.79
-28.93
-27.84
-31.31
-34.11
-29.44
-11.60
21.48
66.85
117.36
164.17
199.75
220.40
227.32
226.02
224.24
228.99
243.62
266.14
289.57
304.59
303.19
281.68
241.64
188.45
128.73
68.10
10.69
-40.35
-81.91
-111.06
-126.15
-128.23
-121.47
-112.01
-105.83
-106.72
-115.36
-129.74
-146.30
-161.48
-172.77
-179.12
-180.88
-179.26
-175.63
-170.91
-165.16
-157.73
-147.73
-134.65
-118.88
-101.80
-85.45
-71.84
-62.20
-56.53
-53.63
-51.59
-48.56
-43.52
-36.61
-29.07
-22.66
-19.06
-19.26
-23.27
-30.19
-38.51
-46.37
-51.87
-53.34
-49.73
-40.81
-27.43
-11.33
5.22
19.99
31.25
38.02
40.02
37.38
30.39
19.35
4.60
-13.06
-31.95
-49.26
-61.28
-64.35
-56.07
-36.43
-8.19
23.82
54.10
78.23
93.98
101.63
103.30
101.77
99.39
97.45
96.23
95.52
95.12
95.23
96.36
99.21
104.36
112.23
123.09
137.15
154.53
174.85
196.97
218.97
238.52
253.63
263.24
267.27
266.15
260.18
249.20
232.81
211.08
185.14
157.15
129.74
104.92
83.30
63.84
44.41
22.77
-2.34
-30.68
-60.46
-89.10
-114.07
-133.74
-147.89
-158.01
-166.99
-178.58
-196.38
-222.61
-257.00
-296.03
-333.20
-360.43
-370.27
-358.16
-323.81
-270.93
-205.61
-134.03
-61.09
9.86
76.03
134.28
180.97
212.91
228.65
229.14
217.28
196.49
169.38
137.41
101.60
63.62
26.36
-6.55
-32.06
-48.95
-58.29
-62.67
-65.02
-67.56
-71.61
-77.75
-86.31
-97.36
-110.37
-123.96
-136.12
-144.89
-149.34
-150.02
-148.67
-147.30
-147.19
-148.27
-149.31
-148.71
-145.21
-138.34
-128.30
-115.49
-100.57
-84.56
-68.96
-55.64
-46.33
-41.92
-41.76
-43.51
-43.39
-38.07
-26.07
-8.29
12.51
32.99
50.54
64.18
74.55
83.96
93.79
103.54
111.05
113.92
110.95
103.14
93.74
87.34
89.69
103.98
129.99
164.92
205.08
246.87
286.61
320.02
342.09
349.80
340.75
314.52
273.85
224.62
174.03
127.97
89.47
48.17
1.65
-45.21
-84.49
-112.00
-128.98
-139.17
-145.77
-150.19
-152.70
-151.07
-144.33
-133.55
-121.09
-108.95
-97.97
-87.88
-77.86
-66.65
-52.20
-33.97
-13.23
7.44
25.37
38.72
46.81
50.02
49.50
47.40
45.08
42.78
40.16
37.19
34.40
32.47
31.50
30.72
29.22
25.98
20.55
13.52
6.28
0.37
-3.48
-5.75
-7.75
-10.76
-15.59
-22.36
-30.64
-39.55
-47.86
-54.06
-56.45
-53.54
-44.65
-30.30
-12.22
7.17
25.76
42.47
57.44
71.54
85.46
99.00
111.07
120.32
125.85
127.78
126.89
124.02
119.15
111.00
97.36
75.88
45.09
5.38
-40.64
-88.40
-132.18
-166.59
-188.16
-196.54
-194.85
-188.80
-184.64
-186.79
-196.04
-209.12
-219.77
-220.96
-207.22
-176.49
-130.70
-75.29
-17.55
35.38
78.23
108.76
127.59
137.12
139.97
137.77
130.78
118.71
101.91
82.26
62.99
47.75
38.90
36.65
38.95
42.45
43.86
40.88
32.46
18.47
-0.63
-23.76
-48.85
-72.47
-90.25
-98.08
-93.76
-78.32
-56.37
-35.20
-22.75
-24.97
-43.74
-75.92
-114.10
-148.90
-171.89
-178.07
-166.98
-142.08
-108.87
-72.78
-37.56
-4.83
25.10
52.46
77.26
99.07
117.43
132.19
143.84
153.62
163.57
176.22
194.09
218.85
250.54
287.23
325.50
361.54
392.14
415.24
429.79
435.27
431.12
416.70
391.74
356.76
313.37
264.05
211.70
158.99
108.06
60.40
16.86
-22.22
-56.94
-87.90
-115.99
-142.28
-167.58
-192.15
-215.36
-235.77
-251.40
-260.55
-262.37
-257.26
-246.52
-231.90
-214.83
-196.23
-176.52
-156.02
-135.28
-115.04
-96.12
-79.17
-64.60
-52.59
-43.12
-36.06
-31.06
-27.59
-25.06
-22.94
-20.86
-18.63
-16.17
-13.38
-10.16
-6.53
-2.66
1.08
4.20
6.31
7.25
7.07
6.01
4.37
2.36
0.08
-2.50
-5.42
-8.73
-12.48
-16.65
-21.12
-25.64
-29.79
-33.19
-35.55
-36.87
-37.41
-37.60
-37.81
-38.22
-38.82
-39.51
-40.24
-41.19
-42.69
-45.14
-48.70
-53.14
-57.90
-62.19
-65.23
-66.36
-65.12
-61.37
-55.17
-46.98
-37.51
-27.77
-18.89
-11.90
-7.56
-6.15
-7.50
-11.06
-16.17
-22.19
-28.72
-35.57
-42.65
-49.87
-57.05
-63.94
-70.26
-75.76
-80.34
-84.00
-86.96
-89.52
-92.01
-94.64
-97.46
-100.31
-103.05
-105.68
-108.45
-111.74
-115.87
-120.88
-126.49
-132.33
-138.20
-144.38
-151.48
-160.21
-170.93
-183.35
-196.61
-209.71
-222.07
-233.77
-245.25
-256.69
-267.16
-274.32
-274.88
-265.47
-243.87
-209.79
-165.40
-115.37
-66.42
-26.36
-2.36
1.05
-16.21
-49.15
-88.76
-124.75
-149.05
-158.33
-154.47
-142.91
-129.55
-117.94
-108.15
-97.19
-80.76
-54.94
-17.59
30.80
86.66
143.47
192.44
224.08
230.83
209.60
163.61
102.11
37.96
-16.34
-52.19
-66.85
-63.05
-46.59
-23.71
0.92
24.52
45.39
61.91
72.09
74.25
68.09
55.65
40.84
28.03
20.11
17.33
17.48
17.08
13.31
5.21
-6.26
-18.99
-30.97
-41.04
-49.02
-55.05
-58.96
-60.06
-57.55
-51.48
-43.38
-36.36
-34.26
-40.43
-56.36
-80.82
-109.82
-137.28
-156.40
-161.28
-148.39
-117.46
-71.50
-15.81
43.38
100.67
152.41
196.76
233.31
262.30
284.39
300.58
312.12
320.14
325.16
326.70
323.53
314.46
299.35
279.60
257.87
236.98
218.76
203.42
189.83
176.43
162.34
147.77
133.85
122.00
113.17
107.57
104.65
103.57
103.71
104.96
107.58
111.92
117.90
124.88
131.87
138.01
142.93
146.62
149.03
149.46
146.38
137.91
122.73
100.88
74.04
44.86
15.99
-10.54
-34.20
-55.84
-76.99
-99.01
-122.14
-146.02
-170.15
-193.98
-216.55
-236.95
-254.62
-269.49
-282.03
-292.49
-301.00
-307.64
-312.18
-313.22
-309.73
-301.71
-290.04
-275.93
-258.99
-238.75
-215.59
-191.02
-164.58
-136.57
-108.69
-83.24
-62.63
-44.85
-27.55
-9.71
8.57
32.28
64.55
103.58
143.08
174.03
195.97
211.14
222.27
232.46
253.07
291.34
345.01
403.43
451.30
487.42
515.35
539.55
565.24
608.74
681.82
783.86
901.94
1013.68
1110.64
1187.20
1238.32
1186.45
995.35
697.97
378.36
145.71
-10.64
-115.69
-188.65
-247.65
-297.46
-327.65
-331.05
-312.23
-286.30
-274.17
-278.16
-294.13
-316.89
-340.90
-353.93
-348.92
-329.18
-306.72
-298.25
-306.03
-326.67
-354.90
-384.09
-403.14
-404.77
-389.69
-365.84
-345.49
-332.42
-326.79
-327.23
-330.95
-332.50
-327.54
-314.67
-295.17
-272.23
-245.68
-215.19
-181.54
-146.49
-111.58
-78.79
-50.49
-29.03
-16.60
-13.70
-20.40
-36.51
-60.52
-88.56
-114.28
-130.34
-131.13
-115.21
-85.98
-50.04
-14.18
17.14
42.74
63.59
81.00
95.30
105.88
112.10
114.24
113.55
111.62
109.59
107.69
105.40
101.85
96.02
87.13
75.00
60.44
45.25
31.65
21.27
14.34
9.53
4.58
-2.50
-12.36
-23.89
-34.51
-41.23
-41.65
-34.89
-21.77
-4.56
13.93
31.22
45.84
57.46
66.52
73.61
78.83
81.74
81.68
78.35
72.23
64.53
56.73
50.01
44.86
41.15
38.42
36.36
34.95
34.32
34.43
34.85
34.80
33.49
30.53
26.17
21.12
16.19
11.79
7.78
3.62
-1.36
-7.45
-14.41
-21.41
-27.16
-30.17
-29.14
-23.29
-12.51
2.76
21.97
44.85
71.53
101.96
135.05
167.96
196.20
214.70
219.38
208.64
183.98
149.53
110.64
72.27
37.70
7.97
-17.67
-40.97
-63.86
-87.93
-114.52
-144.81
-179.65
-218.79
-260.12
-299.44
-331.29
-350.86
-355.82
-347.06
-327.98
-302.95
-275.93
-250.18
-228.85
-215.39
-212.93
-222.81
-243.10
-268.34
-291.16
-304.72
-304.94
-291.15
-265.09
-229.27
-185.79
-136.18
-82.13
-26.16
28.36
77.95
119.94
153.09
177.57
194.43
204.97
210.24
211.03
207.90
201.40
191.99
180.04
165.83
149.46
130.97
110.50
88.36
65.14
41.70
18.96
-2.34
-21.87
-39.70
-56.15
-71.53
-85.91
-99.33
-112.05
-124.64
-138.10
-153.27
-170.12
-186.91
-200.53
-207.67
-206.29
-196.43
-179.99
-159.86
-138.56
-117.43
-96.27
-74.18
-50.54
-25.59
-0.14
25.58
51.91
79.49
108.22
137.25
164.53
187.37
203.46
212.02
215.09
215.55
215.80
216.14
216.78
217.54
218.19
218.12
216.53
214.57
212.74
210.87
207.09
202.62
199.55
199.73
203.04
207.81
214.96
224.08
232.81
234.77
227.77
212.45
192.57
172.37
155.10
145.20
141.56
137.94
123.53
96.51
62.33
31.21
11.26
-20.62
-76.65
-154.87
-218.96
-264.07
-289.31
-301.72
-302.65
-294.93
-282.77
-265.93
-244.05
-217.21
-189.45
-160.07
-127.80
-91.88
-54.41
-18.62
16.06
50.51
85.40
118.28
150.40
183.64
220.02
259.73
301.63
345.25
387.75
423.86
445.76
449.63
435.54
406.97
368.03
321.65
269.66
211.94
147.96
77.77
4.68
-66.60
-132.12
-190.78
-244.16
-294.91
-345.81
-398.94
-455.64
-515.22
-574.75
-628.81
-670.21
-691.82
-688.95
-661.26
-613.10
-551.93
-485.63
-420.22
-358.88
-302.33
-250.05
-201.18
-154.79
-109.73
-64.65
-18.26
29.90
79.03
127.39
173.07
214.94
253.65
291.62
332.21
377.91
428.49
479.89
524.62
553.95
560.83
542.52
501.33
443.58
377.22
309.33
244.56
184.88
130.02
78.50
28.58
-20.57
-67.92
-109.99
-141.55
-157.63
-156.27
-140.46
-117.89
-98.51
-91.03
-99.89
-124.28
-159.33
-198.16
-233.61
-259.07
-269.01
-259.55
-230.05
-184.54
-132.01
-84.84
-55.57
-53.54
-82.24
-138.52
-213.38
-293.96
-366.22
-417.79
-440.48
-431.76
-394.61
-335.59
-262.07
-179.99
-93.65
-7.40
72.40
136.92
177.51
189.73
177.06
151.06
127.48
119.87
134.28
167.75
210.98
253.90
290.37
319.69
344.82
368.89
392.46
413.12
427.13
431.61
425.97
412.07
393.05
372.05
351.31
331.95
314.17
297.69
282.20
267.55
253.82
240.87
227.97
213.62
196.03
173.92
147.49
118.57
90.10
64.69
43.43
25.24
7.42
-12.99
-37.69
-66.09
-95.35
-121.44
-140.61
-150.72
-151.72
-145.18
-133.43
-118.53
-101.93
-84.69
-67.94
-53.18
-42.16
-36.34
-36.32
-41.65
-50.99
-62.57
-74.54
-85.25
-93.41
-98.30
-99.91
-98.78
-95.84
-91.80
-86.79
-80.21
-71.08
-58.80
-43.62
-26.86
-10.44
3.82
14.93
23.05
29.15
34.42
39.65
44.82
49.25
52.01
52.38
50.04
45.13
38.15
30.17
22.96
19.32
22.75
36.41
61.44
95.51
132.22
162.19
175.72
165.69
129.70
70.49
-5.53
-90.54
-177.26
-259.88
-333.73
-394.63
-438.63
-462.73
-465.91
-449.91
-419.13
-379.26
-335.53
-291.37
-247.75
-203.48
-156.35
-104.58
-48.33
9.61
64.17
109.55
141.13
157.23
159.38
151.40
137.63
121.49
105.00
89.30
75.37
64.25
56.42
50.86
44.61
33.48
13.84
-15.44
-51.85
-89.63
-121.61
-141.69
-147.40
-141.00
-128.77
-118.62
-116.93
-126.04
-143.53
-163.66
-180.02
-188.12
-186.61
-176.79
-161.13
-141.74
-119.67
-95.13
-68.42
-40.58
-13.42
11.15
31.89
48.94
63.55
77.46
91.77
106.22
119.07
127.77
130.15
125.50
115.03
101.57
88.38
77.96
71.25
67.48
64.82
61.25
55.49
47.52
38.55
30.52
25.48
24.80
28.83
36.76
47.00
57.68
67.17
74.44
79.19
81.78
83.04
84.15
86.36
90.70
97.82
107.74
119.88
133.24
146.64
158.88
168.78
175.06
176.17
170.25
155.57
131.10
97.27
56.29
11.92
-31.40
-69.78
-100.93
-124.67
-142.47
-156.35
-167.50
-175.47
-178.44
-174.41
-162.78
-145.37
-126.18
-109.86
-99.72
-96.41
-97.81
-100.38
-101.02
-98.39
-93.08
-86.67
-80.49
-74.66
-68.25
-60.03
-49.45
-37.09
-24.53
-13.54
-5.18
0.81
5.88
12.03
20.76
32.29
45.37
57.83
67.69
74.12
77.83
80.62
84.33
89.98
97.42
105.68
113.78
121.25
128.22
134.99
141.65
147.79
152.91
156.87
160.25
164.19
169.68
176.79
184.21
189.65
190.74
186.28
176.98
165.23
154.04
145.54
139.80
134.57
126.18
111.02
86.85
53.52
12.81
-32.27
-78.08
-120.83
-156.84
-182.87
-196.71
-198.02
-188.78
-173.20
-156.49
-143.33
-136.41
-135.93
-140.17
-146.65
-153.30
-159.00
-163.53
-167.16
-170.23
-173.03
-176.02
-180.02
-186.05
-194.70
-205.28
-215.32
-220.62
-216.42
-199.23
-168.59
-127.90
-83.91
-44.65
-16.78
-3.49
-3.91
-14.13
-29.35
-45.90
-62.12
-78.08
-94.61
-112.03
-129.63
-145.37
-155.87
-156.90
-144.14
-114.32
-66.62
-3.56
68.76
141.42
204.51
249.48
271.37
270.16
250.78
221.69
192.40
170.74
160.80
162.62
173.24
188.35
203.94
216.91
225.31
228.25
225.80
218.78
209.56
201.78
199.22
204.21
215.77
229.38
238.08
234.62
213.63
174.66
122.74
66.89
16.78
-21.32
-46.38
-61.93
-74.13
-89.42
-110.85
-137.41
-164.76
-187.63
-202.68
-208.95
-206.67
-192.41
-163.84
-122.14
-73.40
-25.64
16.08
48.56
69.69
80.41
84.97
84.15
79.92
72.01
57.64
32.97
-5.09
-57.09
-120.91
-193.29
-271.19
-350.31
-424.42
-484.78
-521.94
-529.38
-506.23
-457.99
-394.74
-327.64
-264.45
-207.95
-156.53
-106.56
-55.15
-1.08
55.59
114.10
173.00
230.22
282.32
325.12
355.02
370.55
373.56
368.71
361.42
355.30
350.77
345.26
335.18
318.24
294.66
266.94
238.24
210.57
183.85
156.31
125.65
90.30
50.15
6.64
-37.72
-79.83
-116.38
-144.21
-160.93
-165.47
-158.56
-142.76
-121.82
-99.73
-79.90
-64.84
-56.29
-55.58
-63.72
-80.81
-105.22
-132.86
-157.41
-171.63
-169.48
-148.11
-108.95
-57.31
-0.52
54.38
102.66
142.78
175.71
203.48
227.37
246.90
259.84
263.29
254.98
234.51
203.63
165.76
125.01
85.09
48.66
17.17
-8.81
-29.23
-44.27
-54.21
-59.64
-61.63
-61.71
-61.65
-62.91
-66.17
-71.00
-75.96
-79.15
-79.10
-75.50
-69.47
-63.19
-58.99
-58.45
-61.78
-67.93
-75.18
-81.93
-87.17
-90.51
-91.84
-90.98
-87.58
-81.29
-72.12
-60.77
-48.46
-36.66
-26.58
-18.80
-13.24
-9.31
-6.24
-3.35
-0.22
3.33
7.31
11.56
15.85
19.74
22.58
23.60
22.16
18.11
12.01
5.11
-1.03
-5.14
-6.67
-6.03
-4.25
-2.51
-1.58
-1.59
-2.11
-2.58
-2.63
-2.24
-1.73
-1.49
-1.76
-2.60
-3.88
-5.41
-7.06
-8.78
-10.49
-12.03
-13.04
-12.99
-11.36
-7.84
-2.48
4.22
11.40
18.15
23.69
27.59
29.81
30.52
30.05
28.65
26.52
23.80
20.68
17.34
14.00
10.82
7.90
5.28
2.97
1.00
-0.55
-1.65
-2.36
-2.99
-4.08
-6.34
-10.34
-16.26
-23.68
-31.57
-38.65
-43.83
-46.66
-47.47
-47.24
-47.18
-48.21
-50.68
-54.27
-58.18
-61.46
-63.37
-63.54
-61.98
-58.89
-54.49
-48.95
-42.36
-35.03
-27.55
-20.79
-15.68
-12.86
-12.47
-14.12
-17.09
-20.60
-24.07
-27.13
-29.46
-30.75
-30.63
-28.84
-25.47
-20.96
-16.05
-11.45
-7.60
-4.48
-1.72
1.16
4.47
8.25
12.22
16.01
19.31
21.94
23.82
24.98
25.51
25.56
25.34
25.06
24.93
24.90
24.68
23.76
21.64
18.11
13.45
8.45
4.11
1.35
0.57
1.62
3.89
6.66
9.42
11.91
14.17
16.24
18.03
19.34
19.98
19.86
19.09
17.87
16.41
14.82
13.16
11.45
9.81
8.37
7.24
6.40
5.67
4.85
3.82
2.65
1.51
0.62
0.02
-0.46
-1.12
-2.20
-3.79
-5.80
-8.10
-10.64
-13.32
-15.99
-18.23
-19.49
-19.40
-17.95
-15.72
-13.59
-12.28
-11.95
-12.02
-11.45
-9.25
-5.06
0.73
7.10
12.89
17.23
19.80
20.84
20.98
20.96
21.37
22.55
24.50
26.99
29.61
31.86
33.34
33.77
33.08
31.43
29.11
26.50
23.88
21.45
19.26
17.32
15.55
13.90
12.31
10.75
9.23
7.79
6.54
5.51
4.65
3.77
2.57
0.79
-1.69
-4.72
-7.93
-10.82
-12.92
-13.92
-13.72
-12.47
-10.49
-8.22
-6.06
-4.35
-3.21
-2.59
-2.32
-2.18
-2.05
-1.93
-1.85
-1.79
-1.65
-1.20
-0.22
1.37
3.39
5.49
7.16
8.00
7.77
6.51
4.48
2.08
-0.32
-2.50
-4.41
-6.15
-7.96
-10.02
-12.43
-15.12
-17.89
-20.46
-22.58
-24.16
-25.22
-26.00
-26.76
-27.78
-29.18
-30.90
-32.66
-34.06
-34.66
-34.15
-32.39
-29.46
-25.60
-21.09
-16.26
-11.38
-6.72
-2.53
0.90
3.32
4.56
4.60
3.56
1.74
-0.51
-2.79
-4.72
-5.96
-6.27
-5.59
-4.05
-1.96
0.28
2.32
3.97
5.17
5.92
6.17
5.80
4.67
2.78
0.31
-2.33
-4.67
-6.37
-7.30
-7.56
-7.41
-7.18
-7.12
-7.48
-8.44
-10.06
-12.27
-14.80
-17.23
-19.18
-20.51
-21.36
-22.09
-23.06
-24.45
-26.18
-28.04
-29.83
-31.47
-32.96
-34.19
-34.93
-34.82
-33.65
-31.46
-28.61
-25.58
-22.71
-20.04
-17.39
-14.55
-11.47
-8.42
-5.77
-3.79
-2.49
-1.62
-0.81
0.15
1.26
2.36
3.25
3.91
4.44
5.00
5.59
5.92
5.53
3.95
1.01
-3.00
-7.32
-10.94
-12.92
-12.72
-10.42
-6.64
-2.42
1.21
3.59
4.68
5.04
5.55
7.05
9.87
13.80
18.13
22.07
24.97
26.54
26.73
25.65
23.35
19.79
14.88
8.67
1.38
-6.47
-14.25
-21.40
-27.69
-33.26
-38.66
-44.52
-51.26
-58.75
-66.16
-72.22
-75.53
-75.14
-70.81
-63.07
-52.96
-41.57
-29.68
-17.55
-5.06
7.96
21.33
34.33
45.81
54.54
59.67
61.02
59.16
55.22
50.45
45.87
41.97
38.66
35.39
31.38
25.87
18.41
9.02
-1.55
-11.79
-19.55
-22.53
-19.00
-8.40
8.22
28.47
49.36
68.08
82.75
92.58
97.62
98.30
95.13
88.64
79.55
68.80
57.51
46.79
37.50
30.05
24.48
20.58
18.03
16.51
15.78
15.65
15.90
16.35
16.83
17.21
17.51
17.80
18.18
18.66
19.11
19.24
18.73
17.31
14.88
11.50
7.40
2.90
-1.62
-5.73
-9.03
-11.32
-12.63
-13.30
-13.80
-14.60
-15.90
-17.70
-19.78
-21.96
-24.13
-26.34
-28.66
-31.12
-33.67
-36.24
-38.75
-41.11
-43.09
-44.28
-44.08
-41.94
-37.60
-31.33
-23.90
-16.37
-9.70
-4.44
-0.57
2.27
4.56
6.65
8.57
10.13
11.08
11.27
10.76
9.82
8.82
8.10
7.87
8.26
9.28
10.88
12.86
14.88
16.49
17.22
16.81
15.34
13.20
10.96
9.15
8.01
7.45
7.16
6.88
6.47
6.01
5.64
5.49
5.55
5.64
5.53
5.01
3.88
2.02
-0.63
-3.96
-7.60
-10.89
-12.94
-12.93
-10.49
-5.87
0.03
6.07
11.25
15.16
18.00
20.32
22.62
24.96
26.84
27.43
25.82
21.53
14.61
5.75
-4.03
-13.58
-21.96
-28.51
-32.93
-35.26
-35.85
-35.26
-33.99
-32.17
-29.33
-24.55
-16.86
-5.96
7.32
21.09
33.04
41.31
45.20
45.20
42.55
38.49
33.83
28.86
23.64
18.31
13.13
8.37
4.09
0.11
-3.82
-7.77
-11.54
-14.65
-16.53
-16.77
-15.22
-11.99
-7.41
-1.96
3.83
9.45
14.49
18.79
22.38
25.48
28.28
30.81
33.01
34.78
36.19
37.49
38.95
40.68
42.33
43.25
42.64
39.99
35.28
28.97
21.83
14.65
8.01
2.31
-2.23
-5.44
-7.25
-7.78
-7.46
-6.96
-7.04
-8.33
-11.08
-15.11
-19.97
-25.16
-30.38
-35.55
-40.64
-45.45
-49.47
-51.96
-52.20
-49.89
-45.27
-39.08
-32.15
-25.17
-18.37
-11.63
-4.66
2.74
10.48
18.16
25.09
30.58
34.06
35.35
34.74
32.86
30.54
28.53
27.25
26.76
26.75
26.70
26.03
24.20
20.81
15.73
9.03
1.10
-7.53
-16.32
-24.88
-33.01
-40.72
-48.10
-55.11
-61.43
-66.27
-68.52
-67.17
-61.70
-52.71
-41.93
-31.92
-25.20
-23.40
-26.65
-33.53
-41.75
-49.02
-53.85
-55.80
-55.31
-53.24
-50.43
-47.49
-44.71
-42.08
-39.36
-36.00
-31.26
-24.37
-14.83
-2.67
11.49
26.50
41.10
54.23
65.23
73.90
80.42
85.16
88.59
91.15
93.19
94.91
96.34
97.33
97.59
96.74
94.46
90.52
84.90
77.81
69.70
61.20
53.00
45.61
39.24
33.64
28.12
21.78
13.79
3.67
-8.48
-22.06
-36.04
-49.28
-60.74
-69.59
-75.30
-77.70
-76.96
-73.59
-68.45
-62.50
-56.66
-51.56
-47.48
-44.32
-41.80
-39.67
-37.83
-36.40
-35.52
-35.22
-35.25
-35.10
-34.13
-31.86
-28.12
-23.11
-17.27
-11.09
-4.93
0.99
6.55
11.66
16.21
20.06
23.08
25.16
26.19
26.08
24.76
22.30
18.97
15.24
11.63
8.58
6.26
4.58
3.23
1.85
0.16
-1.91
-4.28
-6.67
-8.71
-9.98
-10.16
-9.06
-6.69
-3.31
0.68
4.81
8.61
11.77
14.20
16.02
17.49
18.81
20.01
20.89
21.08
20.27
18.38
15.62
12.44
9.28
6.41
3.85
1.41
-1.09
-3.78
-6.67
-9.67
-12.63
-15.39
-17.78
-19.69
-21.18
-22.42
-23.73
-25.42
-27.70
-30.51
-33.61
-36.68
-39.47
-41.93
-44.21
-46.47
-48.79
-50.99
-52.74
-53.68
-53.54
-52.22
-49.77
-46.28
-41.81
-36.38
-30.07
-23.06
-15.65
-8.25
-1.29
4.88
9.96
13.72
16.01
16.80
16.24
14.66
12.54
10.44
8.82
8.04
8.21
9.32
11.23
13.67
16.33
18.97
21.38
23.54
25.54
27.48
29.39
31.12
32.42
33.00
32.77
31.87
30.57
29.21
28.00
26.99
26.14
25.39
24.70
24.01
23.19
21.97
20.03
17.11
13.24
8.80
4.47
1.11
-0.57
-0.21
2.13
5.98
10.64
15.47
19.91
23.59
26.20
27.44
27.14
25.26
21.97
17.61
12.62
7.36
2.05
-3.15
-8.17
-12.97
-17.57
-21.97
-26.07
-29.54
-31.77
-32.08
-29.95
-25.34
-18.90
-11.72
-5.02
0.34
4.11
6.61
8.47
10.26
12.23
14.31
16.25
17.83
18.98
19.72
20.04
19.83
18.87
17.07
14.78
12.78
12.16
13.90
18.48
25.56
34.19
43.11
51.34
58.42
64.46
69.95
75.35
80.83
86.19
90.83
93.98
94.80
92.59
86.98
78.12
66.70
53.77
40.55
28.09
17.06
7.64
-0.40
-7.63
-14.70
-22.23
-30.53
-39.57
-48.91
-57.93
-66.03
-72.91
-78.58
-83.31
-87.43
-91.17
-94.61
-97.79
-100.81
-103.79
-106.85
-109.89
-112.49
-113.94
-113.39
-110.22
-104.26
-95.92
-86.06
-75.65
-65.46
-55.84
-46.82
-38.31
-30.32
-23.03
-16.69
-11.40
-7.03
-3.29
0.09
3.15
5.70
7.38
7.85
6.99
5.00
2.31
-0.50
-2.90
-4.58
-5.48
-5.77
-5.73
-5.59
-5.45
-5.32
-5.17
-5.01
-4.88
-4.82
-4.72
-4.30
-3.08
-0.54
3.67
9.50
16.40
23.36
29.20
32.89
33.94
32.52
29.38
25.42
21.37
17.57
13.96
10.36
6.63
2.85
-0.85
-4.43
-8.11
-12.26
-17.33
-23.55
-30.88
-38.98
-47.35
-55.53
-63.18
-70.11
-76.27
-81.68
-86.44
-90.63
-94.42
-97.89
-101.05
-103.73
-105.47
-105.49
-102.69
-95.85
-83.84
-66.11
-42.81
-14.92
15.97
48.08
79.72
109.38
135.64
157.01
171.98
179.40
178.80
170.71
156.46
137.89
116.86
95.06
73.89
54.57
37.94
24.22
12.88
2.86
-6.68
-15.56
-22.14
-23.74
-17.73
-2.93
19.68
47.11
75.32
100.45
119.61
131.11
134.07
128.14
113.42
90.92
62.95
33.09
5.63
-15.51
-27.77
-30.51
-24.84
-12.98
2.52
19.45
36.10
51.24
63.83
72.93
77.60
77.15
71.27
60.23
45.00
27.06
8.12
-10.31
-27.14
-41.80
-54.01
-63.46
-69.58
-71.62
-69.01
-61.74
-50.71
-37.57
-24.32
-12.70
-3.79
2.09
5.26
6.31
5.80
4.23
2.01
-0.45
-2.72
-4.43
-5.39
-5.62
-5.26
-4.48
-3.43
-2.19
-0.90
0.33
1.33
1.94
2.11
1.88
1.29
0.37
-0.93
-2.71
-5.02
-7.78
-10.72
-13.46
-15.68
-17.16
-17.85
-17.80
-17.13
-15.89
-14.10
-11.80
-9.06
-6.08
-3.13
-0.52
1.53
2.87
3.42
3.19
2.23
0.68
-1.18
-3.04
-4.56
-5.54
-5.94
-5.91
-5.77
-5.92
-6.81
-8.90
-12.58
-18.02
-25.08
-33.26
-41.82
-50.05
-57.42
-63.73
-69.00
-73.35
-76.83
-79.45
-81.20
-82.21
-82.66
-82.63
-81.96
-80.21
-76.75
-71.00
-62.75
-52.23
-40.13
-27.32
-14.69
-2.95
7.43
16.24
23.40
28.94
32.96
35.56
36.91
37.25
36.87
36.08
35.15
34.24
33.37
32.51
31.62
30.68
29.71
28.65
27.39
25.79
23.78
21.36
18.69
15.96
13.24
10.49
7.50
4.14
0.39
-3.52
-7.21
-10.23
-12.20
-12.81
-11.89
-9.44
-5.65
-0.84
4.54
10.11
15.62
20.99
26.22
31.19
35.60
38.97
40.81
40.80
39.02
35.89
32.03
28.06
24.43
21.31
18.70
16.54
14.77
13.45
12.65
12.45
12.77
13.41
14.06
14.48
14.62
14.56
14.45
14.41
14.37
14.16
13.58
12.48
10.81
8.56
5.59
1.69
-3.34
-9.54
-16.59
-23.84
-30.36
-35.24
-37.82
-37.88
-35.61
-31.60
-26.57
-21.20
-15.99
-11.16
-6.80
-2.96
0.33
3.03
5.12
6.72
8.05
9.38
10.89
12.55
14.14
15.38
16.08
16.31
16.32
16.42
16.73
17.07
16.99
16.01
13.85
10.57
6.54
2.28
-1.80
-5.44
-8.61
-11.42
-13.99
-16.47
-18.99
-21.58
-24.11
-26.22
-27.44
-27.43
-26.24
-24.39
-22.78
-22.19
-22.84
-24.26
-25.40
-25.26
-23.37
-20.11
-16.44
-13.36
-11.36
-10.20
-9.15
-7.39
-4.56
-0.92
2.74
5.53
6.77
6.30
4.45
1.87
-0.63
-2.32
-2.74
-1.71
0.54
3.34
5.62
6.03
3.25
-3.44
-13.62
-25.53
-36.26
-42.63
-42.27
-34.54
-20.76
-3.66
13.69
28.95
41.03
50.00
56.40
60.75
63.13
63.45
61.69
58.27
53.97
49.75
46.34
44.11
43.00
42.67
42.69
42.79
42.85
42.95
43.22
43.66
44.08
44.06
43.16
41.07
37.72
33.25
27.79
21.43
14.21
6.35
-1.57
-8.62
-13.77
-16.28
-16.04
-13.60
-9.95
-6.12
-2.90
-0.79
-0.10
-1.14
-4.21
-9.40
-16.30
-23.87
-30.65
-35.28
-37.07
-36.34
-34.34
-32.69
-32.66
-34.71
-38.52
-43.27
-48.22
-52.91
-57.18
-60.92
-63.73
-65.02
-64.17
-60.90
-55.42
-48.42
-40.77
-33.26
-26.44
-20.62
-15.89
-12.30
-9.70
-7.83
-6.30
-4.82
-3.42
-2.45
-2.57
-4.49
-8.66
-15.07
-23.23
-32.22
-40.88
-47.97
-52.32
-53.06
-49.96
-43.63
-35.45
-27.05
-19.49
-12.62
-5.03
5.30
19.81
38.44
59.27
79.20
95.08
104.84
108.08
105.78
99.69
91.46
82.42
73.54
65.69
59.68
56.04
54.71
54.88
55.25
54.53
52.07
48.18
43.91
40.49
38.77
38.76
39.70
40.42
39.95
37.78
33.99
29.08
23.70
18.41
13.66
9.77
7.05
5.74
5.95
7.43
9.46
10.92
10.50
7.21
0.64
-8.81
-20.22
-32.43
-44.45
-55.58
-65.41
-73.71
-80.42
-85.57
-89.31
-91.78
-92.85
-92.10
-88.85
-82.47
-72.77
-60.19
-45.82
-31.00
-17.04
-4.82
5.28
13.25
19.29
23.56
26.08
26.80
25.77
23.29
19.95
16.51
13.57
11.38
9.68
7.97
5.78
3.08
0.36
-1.60
-2.06
-0.76
2.01
5.48
8.78
11.33
12.95
13.86
14.45
15.00
15.53
15.81
15.42
13.96
11.18
7.07
1.93
-3.72
-9.24
-14.03
-17.65
-19.88
-20.75
-20.37
-18.90
-16.46
-13.22
-9.40
-5.35
-1.46
1.94
4.79
7.33
9.99
13.24
17.32
22.22
27.64
33.17
38.41
43.11
47.13
50.47
53.16
55.21
56.63
57.31
57.03
55.46
52.22
46.99
39.67
30.42
19.63
7.83
-4.48
-16.83
-28.86
-40.26
-50.79
-60.21
-68.28
-74.79
-79.65
-82.90
-84.78
-85.64
-85.83
-85.62
-85.11
-84.22
-82.75
-80.53
-77.43
-73.39
-68.44
-62.70
-56.39
-49.80
-43.24
-36.94
-30.97
-25.19
-19.36
-13.26
-6.87
-0.44
5.51
10.36
13.60
14.96
14.54
12.64
9.72
6.26
2.65
-0.77
-3.79
-6.28
-8.29
-9.98
-11.57
-13.25
-15.13
-17.19
-19.24
-21.06
-22.37
-22.91
-22.53
-21.22
-19.11
-16.39
-13.13
-9.17
-4.15
2.23
9.98
18.66
27.45
35.48
42.18
47.43
51.41
54.40
56.50
57.63
57.62
56.51
54.54
52.16
49.79
47.59
45.45
43.09
40.32
37.25
34.29
31.99
30.76
30.56
30.89
30.88
29.66
26.69
21.95
15.90
9.18
2.34
-4.33
-10.78
-16.93
-22.45
-26.78
-29.22
-29.36
-27.25
-23.45
-18.76
-13.88
-9.14
-4.55
0.03
4.61
8.92
12.58
15.24
16.77
17.37
17.38
17.13
16.84
16.60
16.45
16.45
16.61
16.91
17.23
17.43
17.39
17.09
16.61
16.05
15.45
14.81
14.07
13.22
12.35
11.58
11.02
10.62
10.17
9.36
7.86
5.49
2.35
-1.18
-4.43
-6.61
-6.96
-4.96
-0.47
6.25
14.58
23.83
33.41
43.00
52.61
62.38
72.39
82.43
92.03
100.62
107.85
113.93
119.71
126.57
135.88
148.52
164.34
182.06
199.45
213.92
223.15
225.65
221.07
210.21
194.80
177.08
159.40
143.63
130.82
121.01
113.27
106.13
98.06
87.99
75.56
61.13
45.60
30.07
15.61
3.09
-6.91
-14.10
-18.47
-20.20
-19.56
-16.92
-12.76
-7.80
-3.15
-0.22
-0.48
-5.03
-14.24
-27.44
-43.07
-59.08
-73.56
-85.19
-93.58
-99.24
-103.26
-106.89
-111.15
-116.62
-123.52
-131.77
-141.33
-152.16
-164.24
-177.36
-191.12
-204.95
-218.32
-230.88
-242.50
-253.21
-262.99
-271.72
-279.12
-284.93
-288.95
-291.16
-291.65
-290.69
-288.75
-286.54
-284.86
-284.37
-285.13
-286.36
-286.45
-283.46
-275.73
-262.42
-243.72
-220.53
-193.92
-164.56
-132.62
-97.93
-60.53
-21.17
18.51
56.24
89.72
117.33
138.39
153.20
162.60
167.49
168.56
166.11
160.35
151.56
140.23
127.06
112.77
98.03
83.39
69.43
56.76
46.10
38.18
33.54
32.36
34.34
38.72
44.34
49.98
54.63
57.73
59.27
59.60
59.17
58.31
57.09
55.41
53.21
50.57
47.71
44.92
42.43
40.27
38.32
36.36
34.16
31.62
28.78
25.86
23.13
20.78
18.84
17.05
15.01
12.24
8.44
3.50
-2.44
-9.12
-16.13
-23.00
-29.16
-34.00
-37.04
-37.98
-36.82
-33.81
-29.38
-23.94
-17.82
-11.29
-4.62
1.67
6.92
10.34
11.34
9.82
6.30
1.77
-2.72
-6.46
-9.43
-12.27
-15.89
-21.00
-27.68
-35.40
-43.23
-50.46
-56.92
-63.12
-69.94
-78.26
-88.47
-100.34
-113.17
-125.97
-137.76
-147.68
-155.04
-159.50
-161.46
-162.36
-164.46
-169.94
-179.53
-191.34
-200.95
-202.66
-191.76
-166.77
-130.37
-88.69
-49.03
-17.42
3.19
13.10
14.97
12.38
8.60
6.18
6.78
11.24
19.46
30.27
41.50
50.51
55.18
54.94
51.44
48.28
49.91
60.01
80.11
108.92
142.73
176.47
205.10
224.75
233.34
230.76
218.66
200.12
179.12
159.80
145.61
138.43
138.27
143.41
151.18
158.97
164.81
167.71
167.67
165.62
163.42
163.61
168.40
178.34
191.18
201.57
202.11
185.54
147.54
88.91
16.16
-59.79
-126.70
-174.53
-198.20
-198.41
-180.53
-151.95
-119.63
-88.42
-60.89
-38.17
-20.91
-9.62
-4.39
-4.28
-7.26
-10.73
-12.55
-11.74
-8.65
-4.47
-0.59
2.20
4.07
6.02
9.50
15.62
24.55
35.13
45.19
52.39
55.16
53.45
48.81
43.66
40.36
40.26
43.35
48.47
53.84
57.78
59.16
57.71
54.21
50.51
49.49
54.58
68.91
94.27
130.02
172.67
217.09
258.05
291.83
317.26
335.50
348.82
359.10
366.36
368.50
362.58
346.47
320.09
285.76
247.58
210.07
177.02
149.94
127.47
106.88
85.21
60.23
31.15
-1.60
-37.09
-74.16
-113.41
-158.43
-212.58
-277.07
-349.89
-424.94
-492.81
-543.28
-567.06
-560.67
-529.52
-481.86
-425.42
-366.42
-308.16
-251.46
-196.22
-140.06
-82.28
-26.57
26.97
82.00
141.03
202.94
261.80
308.20
336.10
341.90
321.89
281.24
231.39
182.64
141.09
107.99
59.61
-14.65
-84.86
-144.22
-203.07
-265.11
-330.81
-396.53
-455.01
-497.61
-514.23
-501.40
-468.23
-425.29
-380.67
-340.19
-305.79
-275.89
-247.39
-214.91
-175.74
-133.57
-90.69
-46.97
-2.62
41.70
84.89
125.87
165.68
205.73
245.27
284.90
325.45
365.18
399.85
424.07
433.36
426.56
405.23
371.58
329.21
281.85
231.97
180.90
129.09
76.34
22.46
-32.34
-86.81
-136.98
-176.57
-199.08
-200.40
-180.80
-145.00
-100.44
-54.55
-12.68
22.63
50.73
71.55
84.84
90.42
88.97
82.65
74.81
68.84
67.00
69.64
75.33
81.56
85.68
85.46
79.22
65.81
44.81
17.01
-15.11
-47.50
-75.49
-95.21
-105.12
-106.48
-102.91
-98.95
-98.35
-102.99
-112.42
-124.39
-135.53
-142.40
-142.24
-133.72
-117.46
-96.19
-74.24
-56.13
-44.96
-41.04
-41.64
-42.04
-37.59
-25.63
-6.58
16.43
39.04
57.44
69.77
76.38
79.37
81.49
85.28
92.38
103.36
117.78
134.32
151.02
165.65
175.98
180.28
177.69
168.48
154.15
137.16
120.27
105.84
95.21
88.33
83.98
80.32
75.55
68.59
59.40
48.84
38.27
28.88
21.21
14.97
9.26
3.09
-4.04
-11.83
-19.36
-25.47
-29.34
-30.80
-30.31
-28.58
-26.23
-23.51
-20.38
-16.75
-12.74
-8.81
-5.59
-3.62
-3.14
-4.11
-6.40
-10.10
-15.51
-22.97
-32.43
-43.14
-53.66
-62.19
-67.20
-67.89
-64.46
-57.88
-49.48
-40.49
-31.71
-23.51
-15.98
-9.31
-4.02
-1.07
-1.67
-6.85
-16.99
-31.56
-49.03
-67.28
-84.13
-98.05
-108.59
-116.97
-125.25
-135.66
-149.88
-168.07
-188.87
-208.86
-223.23
-227.40
-219.00
-198.19
-167.41
-130.35
-90.81
-52.15
-16.46
15.79
45.78
75.13
106.58
142.93
185.36
232.27
278.58
318.87
350.23
373.62
390.54
404.09
417.18
430.46
442.35
447.68
442.98
428.29
406.38
375.53
334.88
285.87
231.44
175.72
117.33
55.34
-9.38
-74.99
-147.80
-231.21
-322.22
-413.25
-494.32
-565.36
-627.74
-682.23
-729.81
-782.27
-846.20
-916.87
-980.16
-1016.94
-1022.43
-998.35
-950.90
-820.30
-589.46
-293.81
3.27
229.59
402.94
541.68
654.49
745.30
811.66
842.91
836.72
801.86
753.01
705.69
660.26
614.02
565.98
517.19
462.24
399.28
332.37
269.04
217.78
176.11
139.88
106.37
74.58
39.98
0.95
-39.86
-77.36
-105.84
-126.82
-143.35
-157.89
-171.99
-188.37
-207.78
-228.15
-245.55
-255.46
-257.08
-251.14
-239.29
-223.99
-208.82
-196.71
-188.82
-184.36
-180.81
-175.85
-167.44
-154.58
-138.07
-120.37
-104.92
-94.84
-91.91
-96.17
-106.22
-120.13
-136.03
-152.41
-167.87
-180.88
-189.90
-193.80
-192.56
-187.33
-180.07
-172.56
-165.50
-158.34
-149.70
-138.38
-124.25
-108.61
-93.68
-81.86
-74.84
-73.10
-75.93
-81.54
-87.25
-89.86
-86.12
-73.64
-51.76
-22.19
11.12
42.88
67.99
82.96
86.73
80.62
67.49
50.62
32.82
15.96
1.00
-11.66
-21.77
-29.04
-33.13
-33.88
-31.49
-26.50
-19.59
-11.17
-1.30
10.18
23.22
37.32
51.62
65.32
78.19
90.63
103.35
116.72
130.29
142.92
153.26
160.53
164.94
167.54
169.68
172.25
175.27
177.86
178.49
175.50
167.35
152.99
132.11
105.37
74.35
41.27
8.34
-22.94
-52.27
-80.32
-108.18
-136.76
-166.40
-197.06
-228.65
-261.17
-294.40
-327.33
-357.69
-382.34
-398.27
-403.99
-400.12
-389.03
-373.55
-355.58
-335.43
-312.25
-285.04
-253.83
-219.87
-185.21
-151.86
-121.04
-93.03
-67.41
-43.64
-21.31
-0.27
19.35
37.19
52.64
65.09
74.00
79.20
80.91
79.83
77.06
74.09
72.60
74.04
79.06
86.96
95.55
101.68
102.33
95.80
82.50
64.89
46.61
31.30
21.62
18.80
22.81
32.77
47.44
65.52
85.83
107.21
128.59
149.09
168.17
185.69
201.70
216.45
229.38
238.76
242.24
238.03
225.95
207.83
186.97
167.34
152.69
144.96
143.73
146.70
150.92
154.03
154.90
153.63
151.33
150.47
152.78
158.45
166.48
175.63
184.92
193.35
199.58
202.53
204.96
209.65
217.76
228.62
240.89
252.96
262.61
267.03
264.76
262.49
265.87
275.20
285.44
290.37
286.00
271.13
246.44
216.04
195.47
195.73
216.88
249.33
282.01
308.07
324.56
330.00
326.61
331.21
356.26
402.57
460.67
519.95
574.40
621.09
657.05
597.36
405.87
117.52
-186.19
-441.31
-627.68
-753.00
-825.10
-867.64
-891.96
-889.42
-854.12
-791.43
-715.60
-643.72
-583.64
-536.50
-501.31
-473.43
-438.53
-387.30
-320.61
-247.87
-179.51
-121.79
-77.85
-49.78
-35.82
-26.49
-14.11
3.00
21.17
36.29
47.89
58.43
70.90
88.74
115.86
152.02
192.51
230.62
261.60
284.54
300.68
311.10
316.50
317.87
315.63
309.83
300.37
287.20
270.33
249.36
223.45
192.26
156.24
116.85
76.61
38.76
6.70
-16.63
-29.45
-31.69
-25.16
-13.20
-0.00
10.49
15.45
13.49
4.61
-10.38
-30.51
-54.83
-82.24
-111.10
-139.04
-163.38
-181.96
-193.94
-200.26
-203.19
-205.38
-208.73
-213.78
-219.92
-225.92
-230.85
-234.23
-235.82
-235.31
-232.13
-225.64
-215.48
-201.73
-184.99
-166.35
-147.16
-128.90
-112.60
-98.32
-84.75
-69.38
-49.35
-22.64
10.68
48.10
85.31
117.75
142.18
157.58
164.81
165.44
160.63
150.61
135.19
114.62
90.24
64.71
41.14
22.01
8.27
-0.81
-7.07
-12.39
-17.99
-24.05
-30.15
-35.88
-41.24
-46.79
-53.20
-60.94
-69.92
-79.62
-89.49
-99.27
-109.19
-119.68
-130.90
-142.32
-152.61
-159.99
-162.78
-159.93
-151.30
-137.70
-120.67
-102.16
-84.10
-67.92
-54.20
-42.61
-32.11
-21.61
-10.53
0.91
11.81
21.20
28.56
34.13
38.68
43.05
47.60
52.12
55.99
58.68
60.09
60.53
60.48
60.22
59.62
58.19
55.49
51.41
46.30
40.78
35.41
30.40
25.51
20.24
14.20
7.35
0.19
-6.29
-10.94
-12.78
-11.26
-6.52
0.65
9.00
17.15
23.97
28.86
31.76
33.11
33.56
33.71
34.02
34.71
35.79
37.13
38.50
39.62
40.17
39.94
38.84
37.02
34.83
32.66
30.70
28.68
25.82
21.14
13.83
3.81
-8.13
-20.69
-32.57
-43.05
-52.22
-60.64
-68.89
-77.12
-85.07
-92.24
-98.24
-102.81
-105.69
-106.44
-104.50
-99.48
-91.50
-81.30
-69.93
-58.35
-47.02
-35.91
-24.80
-13.68
-2.90
6.94
15.34
22.18
27.74
32.49
36.78
40.67
43.95
46.45
48.20
49.62
51.29
53.73
57.19
61.53
66.32
70.84
74.02
74.39
70.30
60.29
43.74
21.31
-5.10
-32.98
-60.06
-85.03
-107.59
-127.98
-146.28
-161.90
-173.66
-180.36
-181.27
-176.45
-166.58
-152.51
-135.02
-114.80
-92.61
-69.53
-47.00
-26.56
-9.47
3.57
12.41
17.32
18.82
17.58
14.46
10.48
6.75
4.16
3.14
3.58
4.92
6.58
8.26
10.09
12.50
15.90
20.39
25.60
30.86
35.46
38.94
41.20
42.38
42.79
42.68
42.22
41.49
40.50
39.15
37.19
34.18
29.70
23.66
16.55
9.57
4.32
2.28
4.23
9.87
17.85
26.32
33.50
38.42
41.13
42.56
43.97
46.31
49.78
53.80
57.35
59.50
59.87
58.82
57.18
55.82
55.24
55.35
55.64
55.52
54.66
53.16
51.38
49.67
48.04
46.03
42.95
38.20
31.70
23.99
16.09
9.01
3.32
-1.05
-4.77
-8.67
-13.33
-18.86
-24.81
-30.52
-35.29
-38.58
-40.00
-39.29
-36.29
-31.01
-23.76
-15.13
-5.91
3.15
11.45
18.63
24.49
28.88
31.64
32.71
32.20
30.44
28.01
25.53
23.52
22.21
21.59
21.48
21.58
21.70
21.72
21.64
21.51
21.32
20.94
20.09
18.44
15.72
11.91
7.28
2.33
-2.36
-6.38
-9.58
-12.08
-14.20
-16.32
-18.78
-21.82
-25.53
-29.76
-34.02
-37.57
-39.45
-38.91
-35.61
-29.85
-22.45
-14.45
-6.75
0.05
5.77
10.43
14.08
16.70
18.19
18.53
17.83
16.45
14.88
13.68
13.26
13.78
15.08
16.80
18.49
19.86
20.82
21.50
22.11
22.70
23.07
22.82
21.53
19.04
15.56
11.57
7.65
4.20
1.34
-1.05
-3.19
-5.26
-7.34
-9.37
-11.23
-12.65
-13.25
-12.48
-9.83
-4.96
2.10
10.84
20.45
30.01
38.83
46.61
53.35
59.17
64.08
67.72
69.51
68.89
65.67
60.16
53.13
45.45
37.77
30.38
23.18
16.06
9.05
2.42
-3.44
-8.19
-11.74
-14.23
-15.95
-17.26
-18.49
-19.86
-21.48
-23.34
-25.28
-27.12
-28.70
-29.95
-30.93
-31.68
-32.19
-32.35
-32.10
-31.47
-30.66
-29.85
-29.09
-28.16
-26.66
-24.26
-20.91
-16.94
-12.90
-9.33
-6.57
-4.79
-4.07
-4.54
-6.40
-9.75
-14.34
-19.48
-24.18
-27.46
-28.78
-28.18
-26.23
-23.69
-21.14
-18.87
-16.87
-15.06
-13.54
-12.52
-12.29
-12.98
-14.41
-16.17
-17.83
-19.15
-20.10
-20.89
-21.69
-22.57
-23.51
-24.44
-25.41
-26.62
-28.26
-30.35
-32.62
-34.43
-34.99
-33.59
-29.79
-23.66
-15.71
-6.72
2.47
11.14
18.78
25.17
30.21
33.97
36.55
38.11
38.77
38.62
37.67
35.95
33.51
30.46
27.00
23.34
19.69
16.15
12.75
9.40
5.99
2.38
-1.53
-5.77
-10.27
-14.81
-19.04
-22.60
-25.19
-26.75
-27.42
-27.59
-27.72
-28.21
-29.33
-31.11
-33.44
-36.05
-38.57
-40.52
-41.31
-40.38
-37.33
-32.07
-25.00
-16.88
-8.61
-0.95
5.72
11.32
15.91
19.49
21.99
23.35
23.85
24.17
25.27
28.08
33.06
40.09
48.56
57.78
67.27
76.87
86.48
95.64
103.24
107.61
106.93
99.90
86.23
66.86
43.56
18.56
-6.16
-29.14
-49.48
-66.71
-80.57
-90.97
-98.07
-102.30
-104.26
-104.51
-103.29
-100.34
-95.14
-87.23
-76.54
-63.67
-49.74
-36.11
-23.92
-13.81
-5.83
0.40
5.39
9.58
13.13
16.03
18.19
19.61
20.47
21.04
21.64
22.41
23.41
24.55
25.73
26.85
27.79
28.36
28.29
27.31
25.25
22.19
18.41
14.30
10.27
6.52
3.02
-0.44
-4.17
-8.48
-13.55
-19.43
-25.93
-32.59
-38.73
-43.47
-46.05
-45.99
-43.37
-38.83
-33.36
-27.99
-23.46
-20.09
-17.90
-16.73
-16.45
-17.05
-18.54
-20.87
-23.82
-26.98
-29.82
-31.78
-32.40
-31.50
-29.16
-25.81
-21.97
-18.14
-14.61
-11.41
-8.48
-5.78
-3.47
-1.87
-1.27
-1.73
-3.01
-4.65
-6.19
-7.41
-8.49
-9.92
-12.30
-16.03
-21.10
-26.97
-32.63
-36.84
-38.48
-36.79
-31.63
-23.44
-13.11
-1.66
9.97
21.07
31.18
39.95
47.12
52.48
55.92
57.52
57.60
56.69
55.37
54.17
53.43
53.26
53.50
53.83
53.90
53.47
52.46
50.97
49.19
47.26
45.15
42.75
39.85
36.37
32.38
28.11
23.83
19.68
15.63
11.45
6.86
1.68
-4.05
-10.03
-15.76
-20.66
-24.13
-25.63
-24.79
-21.52
-16.07
-9.04
-1.27
6.39
13.31
19.24
24.18
28.25
31.49
33.74
34.76
34.41
32.87
30.66
28.47
26.88
26.10
25.91
25.82
25.39
24.42
23.03
21.49
19.98
18.44
16.62
14.19
11.00
7.15
2.93
-1.26
-5.06
-8.28
-10.87
-12.92
-14.62
-16.28
-18.22
-20.78
-24.08
-28.04
-32.22
-35.96
-38.53
-39.26
-37.81
-34.15
-28.63
-21.88
-14.65
-7.64
-1.38
3.84
7.92
10.87
12.72
13.48
13.20
12.04
10.40
8.80
7.79
7.73
8.64
10.16
11.68
12.57
12.50
11.50
9.93
8.19
6.56
4.96
3.06
0.52
-2.77
-6.53
-10.22
-13.32
-15.60
-17.25
-18.77
-20.68
-23.22
-26.33
-29.68
-32.86
-35.53
-37.40
-38.11
-37.16
-34.01
-28.32
-20.17
-10.25
0.33
10.40
19.03
25.82
30.82
34.28
36.44
37.45
37.38
36.42
34.90
33.37
32.41
32.49
33.85
36.38
39.72
43.33
46.64
49.17
50.57
50.67
49.38
46.72
42.75
37.59
31.41
24.46
16.99
9.25
1.48
-6.10
-13.22
-19.69
-25.41
-30.47
-35.17
-40.01
-45.42
-51.60
-58.24
-64.39
-68.71
-69.78
-66.64
-59.21
-48.33
-35.51
-22.44
-10.46
-0.28
7.89
14.13
18.50
20.95
21.47
20.30
18.04
15.56
13.67
12.85
13.10
14.04
15.12
15.85
16.02
15.61
14.77
13.67
12.42
11.07
9.57
7.80
5.62
2.99
-0.07
-3.33
-6.49
-9.21
-11.31
-12.85
-14.08
-15.43
-17.28
-19.87
-23.13
-26.69
-29.93
-32.07
-32.43
-30.61
-26.67
-21.06
-14.54
-7.92
-1.81
3.47
7.86
11.44
14.26
16.25
17.29
17.34
16.52
15.20
13.90
13.05
12.87
13.28
13.97
14.59
14.88
14.81
14.48
14.04
13.59
13.10
12.42
11.42
9.98
8.07
5.76
3.17
0.46
-2.20
-4.60
-6.55
-7.96
-8.88
-9.55
-10.36
-11.70
-13.83
-16.64
-19.61
-21.89
-22.63
-21.25
-17.72
-12.52
-6.47
-0.33
5.37
10.45
14.92
18.83
22.12
24.64
26.24
26.92
26.87
26.44
26.00
25.85
26.09
26.64
27.26
27.67
27.63
27.04
25.94
24.48
22.84
21.11
19.28
17.21
14.76
11.88
8.66
5.30
2.04
-1.00
-3.85
-6.63
-9.50
-12.50
-15.63
-18.79
-21.97
-25.15
-28.32
-31.34
-33.88
-35.51
-35.82
-34.60
-31.93
-28.17
-23.80
-19.24
-14.79
-10.57
-6.66
-3.10
-0.02
2.38
3.98
4.78
5.05
5.24
5.91
7.50
10.21
13.95
18.23
22.28
25.12
25.82
23.79
18.94
11.70
2.79
-7.20
-17.95
-29.35
-41.26
-53.24
-64.42
-73.70
-80.13
-83.15
-82.63
-78.81
-72.03
-62.83
-51.87
-39.97
-27.99
-16.59
-6.12
3.36
11.85
19.24
25.19
29.27
31.23
31.12
29.28
26.26
22.62
18.90
15.60
13.18
12.01
12.24
13.72
15.97
18.38
20.33
21.43
21.58
20.93
19.79
18.45
17.04
15.56
13.86
11.86
9.62
7.46
5.88
5.48
6.57
9.00
11.95
14.05
13.72
9.66
1.34
-10.75
-25.17
-39.98
-53.22
-63.54
-70.33
-73.74
-74.37
-72.98
-70.20
-66.45
-61.94
-56.74
-50.87
-44.36
-37.31
-29.84
-22.14
-14.40
-6.82
0.37
6.97
12.77
17.66
21.61
24.71
27.22
29.42
31.61
33.92
36.17
37.86
38.27
36.71
32.82
26.77
19.24
11.15
3.35
-3.73
-10.14
-16.21
-22.39
-29.00
-36.17
-43.72
-51.02
-56.84
-59.31
-56.38
-46.43
-29.06
-5.49
21.64
49.03
73.66
93.58
108.09
117.48
122.41
123.48
121.15
115.85
108.28
99.51
90.86
83.48
78.04
74.43
71.87
69.33
65.97
61.54
56.40
51.27
46.74
43.00
39.76
36.47
32.67
28.18
23.15
17.84
12.41
6.85
0.99
-5.34
-12.27
-19.90
-28.37
-37.84
-48.49
-60.26
-72.71
-84.96
-95.72
-103.67
-107.72
-107.39
-102.92
-95.22
-85.58
-75.23
-65.01
-55.32
-46.22
-37.71
-30.00
-23.47
-18.48
-15.17
-13.22
-12.01
-10.79
-9.09
-6.82
-4.28
-1.96
-0.23
0.78
1.24
1.45
1.63
1.82
1.83
1.41
0.40
-1.19
-3.15
-5.21
-7.15
-8.93
-10.63
-12.40
-14.41
-16.77
-19.59
-22.92
-26.82
-31.15
-35.52
-39.26
-41.50
-41.45
-38.60
-32.97
-25.07
-15.77
-6.04
3.27
11.55
18.45
23.76
27.42
29.47
30.06
29.48
28.11
26.36
24.59
23.12
22.13
21.68
21.71
22.03
22.42
22.69
22.71
22.36
21.51
19.94
17.40
13.72
8.97
3.49
-2.15
-7.38
-11.82
-15.35
-18.15
-20.41
-22.33
-23.95
-25.26
-26.34
-27.35
-28.43
-29.48
-30.04
-29.35
-26.64
-21.43
-13.81
-4.44
5.67
15.53
24.45
32.18
38.76
44.37
49.06
52.79
55.43
56.91
57.27
56.63
55.07
52.56
48.93
44.03
37.91
30.83
23.26
15.67
8.42
1.59
-4.83
-10.92
-16.72
-22.22
-27.50
-32.73
-38.09
-43.64
-49.19
-54.39
-58.90
-62.51
-65.34
-67.73
-70.09
-72.67
-75.43
-77.97
-79.59
-79.48
-76.91
-71.48
-63.27
-52.88
-41.27
-29.52
-18.52
-8.93
-1.08
4.88
8.92
11.09
11.55
10.66
8.93
6.95
5.25
4.18
3.90
4.30
5.18
6.25
7.29
8.20
8.95
9.53
9.88
9.77
8.92
7.11
4.32
0.82
-2.88
-6.29
-9.10
-11.27
-13.00
-14.55
-16.16
-17.94
-19.87
-21.83
-23.57
-24.62
-24.38
-22.25
-17.83
-11.17
-2.80
6.36
15.35
23.42
30.16
35.46
39.35
41.81
42.75
42.08
39.86
36.43
32.36
28.29
24.73
21.86
19.56
17.45
15.17
12.49
9.44
6.18
2.92
-0.22
-3.30
-6.52
-10.12
-14.27
-19.00
-24.11
-29.21
-33.81
-37.48
-40.00
-41.42
-42.12
-42.65
-43.55
-45.13
-47.37
-49.90
-52.07
-53.15
-52.48
-49.67
-44.64
-37.71
-29.39
-20.34
-11.11
-2.08
6.57
14.81
22.59
29.70
35.72
40.19
42.79
43.71
43.75
44.07
45.85
49.64
55.13
61.24
66.59
70.05
71.13
69.93
66.85
62.27
56.39
49.33
41.39
33.16
25.46
19.06
14.43
11.57
10.12
9.56
9.34
9.01
8.26
6.88
4.85
2.38
-0.05
-1.82
-2.30
-1.07
1.92
6.34
11.60
17.06
22.17
26.56
29.97
32.26
33.25
32.87
31.16
28.39
25.01
21.63
18.84
17.02
16.31
16.57
17.47
18.58
19.51
19.95
19.78
19.07
17.99
16.77
15.47
14.01
12.10
9.46
6.00
1.94
-2.17
-5.71
-8.25
-9.78
-10.73
-11.76
-13.46
-16.07
-19.33
-22.54
-24.71
-24.92
-22.59
-17.71
-10.89
-3.11
4.55
11.35
17.14
22.24
27.26
32.60
38.19
43.49
47.78
50.67
52.44
54.15
57.46
64.15
75.59
92.19
113.20
136.73
160.04
180.17
194.60
201.86
201.86
195.82
185.75
173.80
161.46
149.26
136.75
123.04
107.47
90.08
71.81
54.17
38.59
25.81
15.53
6.65
-2.23
-12.20
-23.74
-36.82
-51.35
-67.47
-85.62
-106.15
-128.70
-151.96
-173.74
-191.71
-204.21
-210.81
-212.35
-210.47
-206.80
-202.45
-197.77
-192.52
-186.29
-178.81
-170.17
-160.77
-151.09
-141.63
-132.71
-124.54
-117.37
-111.47
-107.15
-104.61
-103.79
-104.18
-104.85
-104.70
-102.79
-98.74
-92.81
-85.82
-78.72
-72.22
-66.46
-61.04
-55.25
-48.43
-40.20
-30.62
-20.03
-8.94
2.07
12.49
21.88
29.95
36.59
41.87
46.00
49.22
51.66
53.41
54.51
55.08
55.35
55.68
56.42
57.85
60.06
62.91
66.05
69.01
71.37
72.90
73.69
74.12
74.72
75.99
78.21
81.48
85.72
90.79
96.62
103.15
110.41
118.43
127.28
137.04
147.61
158.56
168.97
177.47
182.58
183.09
178.40
168.68
154.78
138.04
119.91
101.65
83.98
66.93
49.90
32.10
12.95
-7.43
-28.27
-48.39
-66.72
-82.75
-96.48
-108.20
-118.07
-125.96
-131.56
-134.66
-135.46
-134.54
-132.66
-130.43
-128.16
-125.78
-123.12
-120.16
-117.15
-114.59
-112.95
-112.41
-112.66
-112.98
-112.48
-110.52
-106.95
-102.09
-96.56
-90.98
-85.81
-81.40
-78.02
-76.01
-75.70
-77.17
-80.09
-83.63
-86.65
-88.05
-87.10
-83.66
-78.14
-71.24
-63.68
-56.04
-48.64
-41.57
-34.62
-27.26
-18.69
-8.04
5.26
21.13
38.68
56.40
72.69
86.32
96.84
104.40
109.50
112.45
113.23
111.45
106.71
98.92
88.62
76.96
65.45
55.60
48.43
44.29
42.88
43.52
45.48
48.23
51.48
54.99
58.47
61.33
62.77
61.87
57.88
50.49
40.08
27.62
14.50
2.08
-8.81
-18.07
-26.18
-33.82
-41.45
-49.04
-56.23
-62.53
-67.70
-71.83
-75.27
-78.54
-82.15
-86.57
-92.23
-99.44
-108.29
-118.45
-129.11
-139.10
-147.23
-152.60
-154.96
-154.82
-153.26
-151.60
-150.96
-151.90
-154.31
-157.56
-160.74
-162.82
-162.63
-158.75
-149.52
-133.27
-108.91
-76.48
-37.53
5.06
47.71
87.07
120.91
148.43
170.20
187.48
201.56
213.36
223.22
231.15
237.00
240.68
242.15
241.31
238.00
231.95
222.98
211.17
197.02
181.39
165.34
149.82
135.45
122.46
110.85
100.61
91.82
84.69
79.34
75.64
73.18
71.44
70.07
69.11
68.90
69.87
72.20
75.77
80.19
85.05
90.03
94.91
99.44
103.21
105.95
107.73
109.21
111.43
115.18
120.38
125.70
128.99
128.30
122.82
113.37
101.91
90.31
79.20
67.46
52.72
32.63
6.17
-25.73
-60.51
-95.01
-126.61
-153.89
-176.62
-195.24
-210.25
-221.82
-229.78
-233.88
-234.21
-231.28
-226.05
-219.62
-212.88
-206.17
-199.18
-191.10
-181.02
-168.33
-153.14
-136.15
-118.40
-100.78
-83.71
-67.09
-50.66
-34.41
-18.94
-5.39
4.94
11.07
12.83
10.90
6.53
1.05
-4.55
-9.77
-14.60
-19.26
-23.93
-28.67
-33.32
-37.54
-40.89
-42.93
-43.34
-42.04
-39.27
-35.52
-31.50
-27.84
-24.99
-23.09
-21.87
-20.84
-19.38
-16.99
-13.38
-8.48
-2.44
4.50
11.94
19.33
25.88
30.75
33.31
33.45
31.65
28.74
25.36
21.45
16.15
8.15
-3.31
-17.62
-32.45
-44.27
-49.54
-46.07
-33.81
-14.84
7.55
30.05
50.41
67.68
81.89
93.26
101.68
106.71
108.01
105.88
101.42
96.16
91.33
87.16
82.74
76.39
66.39
51.75
32.62
10.36
-12.79
-34.07
-50.71
-60.49
-62.30
-56.50
-44.85
-30.02
-14.61
-0.31
12.45
24.19
35.64
47.01
57.75
66.93
73.86
78.70
82.47
86.58
92.14
99.38
107.53
115.24
121.17
124.43
124.80
122.48
117.75
110.71
101.17
88.86
73.64
55.69
35.53
13.84
-8.60
-31.08
-52.89
-73.37
-91.93
-108.15
-121.90
-133.38
-143.02
-151.42
-159.09
-166.33
-173.14
-179.16
-183.65
-185.58
-183.86
-177.74
-167.13
-152.86
-136.58
-120.20
-105.34
-92.89
-82.82
-74.46
-66.86
-59.00
-50.03
-39.37
-26.86
-13.04
0.81
12.88
21.38
25.23
24.50
20.35
14.46
8.27
2.45
-3.13
-8.94
-15.14
-21.10
-25.38
-26.08
-21.47
-10.59
6.35
27.97
52.07
76.15
98.01
116.12
129.64
138.43
142.68
142.78
139.27
132.86
124.50
115.31
106.39
98.52
92.07
86.95
82.87
79.50
76.60
74.09
71.88
69.82
67.59
64.78
60.91
55.63
48.67
39.97
29.70
18.38
6.82
-3.92
-12.80
-19.10
-22.66
-23.85
-23.42
-22.16
-20.67
-19.23
-17.91
-16.72
-15.74
-15.21
-15.40
-16.51
-18.54
-21.28
-24.42
-27.64
-30.72
-33.53
-35.99
-37.99
-39.30
-39.69
-38.99
-37.25
-34.80
-32.18
-29.97
-28.63
-28.36
-29.02
-30.16
-31.08
-30.93
-28.95
-24.73
-18.36
-10.42
-1.75
6.83
14.83
22.13
28.85
35.10
40.94
46.28
51.03
55.19
58.76
61.61
63.34
63.29
60.72
55.12
46.43
35.04
21.73
7.39
-7.12
-21.01
-33.49
-43.74
-50.98
-54.67
-54.80
-51.96
-47.27
-42.08
-37.61
-34.55
-33.07
-32.88
-33.51
-34.51
-35.48
-36.04
-35.72
-33.99
-30.37
-24.72
-17.35
-9.06
-0.94
5.93
10.89
13.82
15.15
15.63
15.93
16.42
17.08
17.58
17.53
16.71
15.09
12.88
10.35
7.69
5.04
2.45
0.09
-1.81
-2.98
-3.26
-2.67
-1.45
0.07
1.54
2.79
3.70
4.24
4.39
4.15
3.57
2.84
2.30
2.36
3.30
5.14
7.50
9.76
11.29
11.69
10.98
9.56
7.99
6.78
6.24
6.43
7.27
8.60
10.20
11.76
12.81
12.85
11.48
8.60
4.40
-0.65
-6.03
-11.25
-15.89
-19.59
-22.05
-23.07
-22.66
-21.08
-18.77
-16.20
-13.77
-11.66
-9.91
-8.49
-7.40
-6.68
-6.36
-6.39
-6.63
-6.85
-6.82
-6.36
-5.42
-4.01
-2.18
0.01
2.52
5.27
8.09
10.69
12.79
14.18
14.84
14.97
14.82
14.62
14.46
14.33
14.11
13.69
12.98
11.95
10.62
9.07
7.46
6.01
4.95
4.37
4.20
4.23
4.21
4.04
3.73
3.41
3.16
2.94
2.53
1.74
0.50
-0.98
-2.31
-3.13
-3.22
-2.66
-1.76
-0.89
-0.29
-0.01
0.06
0.03
-0.04
-0.18
-0.41
-0.69
-0.85
-0.67
0.04
1.35
3.13
5.06
6.74
7.85
8.28
8.15
7.79
7.51
7.41
7.37
7.01
5.83
3.43
-0.39
-5.42
-11.04
-16.34
-20.31
-22.15
-21.57
-18.75
-14.24
-8.66
-2.57
3.62
9.45
14.34
17.67
19.03
18.42
16.34
13.58
10.84
8.52
6.69
5.25
4.15
3.46
3.32
3.74
4.58
5.55
6.33
6.67
6.47
5.70
4.42
2.74
0.78
-1.34
-3.54
-5.86
-8.47
-11.61
-15.44
-20.00
-25.02
-30.02
-34.41
-37.60
-39.23
-39.22
-37.81
-35.41
-32.46
-29.26
-25.95
-22.55
-19.16
-15.99
-13.29
-11.30
-10.03
-9.25
-8.51
-7.35
-5.41
-2.57
1.04
5.01
8.78
11.73
13.29
13.16
11.31
8.00
3.65
-1.31
-6.53
-11.71
-16.54
-20.71
-23.84
-25.71
-26.29
-25.83
-24.77
-23.60
-22.70
-22.27
-22.47
-23.38
-25.04
-27.25
-29.43
-30.56
-29.45
-25.16
-17.54
-7.36
3.86
14.48
23.37
30.32
35.96
41.18
46.57
52.10
57.23
61.43
64.57
67.00
69.37
72.07
74.98
77.38
78.30
76.89
72.67
65.53
55.46
42.43
26.45
7.86
-12.41
-32.76
-51.26
-66.24
-76.83
-83.22
-86.54
-88.32
-89.92
-92.16
-95.26
-99.09
-103.48
-108.32
-113.40
-118.14
-121.44
-121.97
-118.73
-111.59
-101.56
-90.46
-80.31
-72.60
-67.87
-65.76
-65.37
-65.59
-65.38
-63.77
-59.97
-53.52
-44.52
-33.77
-22.60
-12.35
-3.94
2.47
7.30
11.18
14.45
16.99
18.31
17.92
15.67
11.81
6.95
1.73
-3.29
-7.84
-11.83
-15.27
-18.29
-21.07
-23.81
-26.67
-29.61
-32.24
-33.84
-33.50
-30.40
-24.24
-15.26
-4.29
7.64
19.60
31.01
41.66
51.48
60.36
67.94
73.75
77.40
78.81
78.31
76.61
74.45
72.39
70.58
68.90
67.05
64.80
62.13
59.18
56.12
52.96
49.54
45.56
40.75
35.14
29.03
22.98
17.53
13.04
9.48
6.57
3.85
0.95
-2.34
-6.16
-10.58
-15.76
-21.79
-28.48
-35.16
-40.64
-43.58
-42.89
-38.31
-30.44
-20.56
-10.02
0.20
9.64
18.22
25.77
31.94
36.21
38.28
38.32
36.84
34.46
31.39
27.42
22.08
15.20
7.21
-0.92
-7.91
-12.65
-14.43
-12.92
-8.05
0.03
10.82
23.32
36.04
47.38
55.97
61.18
63.21
62.85
61.11
58.77
56.15
53.08
49.04
43.39
35.69
25.96
14.86
3.68
-5.96
-12.45
-14.68
-12.29
-5.83
3.49
14.14
24.67
34.07
41.84
47.90
52.41
55.52
57.27
57.65
56.68
54.59
51.81
48.88
46.31
44.46
43.46
43.27
43.72
44.53
45.38
45.89
45.73
44.64
42.55
39.53
35.80
31.58
27.06
22.35
17.53
12.69
7.91
3.24
-1.34
-5.94
-10.71
-15.78
-21.20
-26.97
-33.04
-39.24
-45.27
-50.51
-54.07
-55.00
-52.61
-46.82
-38.28
-28.19
-17.95
-8.71
-1.16
4.48
8.25
10.33
10.90
10.23
8.75
7.09
5.93
5.81
6.94
9.12
11.88
14.64
16.94
18.53
19.31
19.31
18.58
17.16
15.07
12.37
9.14
5.46
1.43
-2.84
-7.22
-11.54
-15.70
-19.69
-23.67
-27.91
-32.64
-37.81
-43.03
-47.50
-50.25
-50.45
-47.69
-42.11
-34.34
-25.27
-15.79
-6.63
1.72
8.90
14.69
18.96
21.77
23.41
24.28
24.75
25.00
24.97
24.58
23.87
23.12
22.76
23.13
24.36
26.20
28.24
30.08
31.43
32.15
32.11
31.08
28.81
25.16
20.30
14.69
8.88
3.22
-2.30
-8.11
-14.75
-22.49
-31.02
-39.43
-46.41
-50.67
-51.40
-48.46
-42.43
-34.29
-25.14
-15.80
-6.69
2.06
10.43
18.28
25.24
30.81
34.60
36.56
37.05
36.75
36.34
36.25
36.49
36.69
36.29
34.90
32.44
29.14
25.42
21.56
17.54
12.98
7.40
0.53
-7.43
-15.77
-23.52
-29.88
-34.63
-38.20
-41.51
-45.50
-50.74
-57.15
-64.06
-70.42
-75.21
-77.67
-77.53
-75.02
-70.83
-65.93
-61.40
-58.01
-55.73
-53.54
-49.67
-42.23
-30.14
-13.73
5.18
24.07
40.62
53.62
63.08
69.85
74.85
78.50
80.71
81.17
79.87
77.24
73.96
70.53
66.97
62.80
57.35
50.21
41.49
31.85
22.29
13.71
6.67
1.26
-2.78
-5.96
-8.88
-12.05
-15.89
-20.58
-25.95
-31.47
-36.31
-39.59
-40.66
-39.36
-35.94
-31.04
-25.44
-19.85
-14.79
-10.57
-7.24
-4.72
-2.84
-1.47
-0.52
0.04
0.31
0.50
1.00
2.15
4.11
6.67
9.30
11.39
12.44
12.39
11.43
10.01
8.43
6.74
4.79
2.29
-0.90
-4.71
-8.85
-12.99
-16.87
-20.36
-23.54
-26.52
-29.49
-32.68
-36.38
-40.87
-46.34
-52.61
-59.02
-64.45
-67.68
-67.89
-65.09
-60.21
-54.80
-50.40
-47.99
-47.72
-48.92
-50.55
-51.53
-50.91
-47.98
-42.06
-32.58
-19.13
-1.78
18.75
41.13
63.69
84.88
103.58
119.24
131.66
140.75
146.26
147.77
144.82
137.10
124.66
107.93
87.75
65.23
41.80
19.05
-1.52
-18.71
-31.91
-41.24
-47.43
-51.59
-54.87
-58.20
-62.03
-66.24
-70.15
-72.72
-72.85
-69.82
-63.45
-54.21
-43.07
-31.14
-19.40
-8.52
1.07
9.10
15.31
19.47
21.40
21.06
18.65
14.59
9.46
3.89
-1.64
-6.81
-11.48
-15.56
-18.95
-21.48
-22.98
-23.39
-22.89
-21.87
-20.79
-20.10
-19.98
-20.38
-21.05
-21.66
-21.91
-21.57
-20.60
-19.22
-17.83
-17.09
-17.69
-20.17
-24.59
-30.46
-36.68
-41.86
-44.69
-44.31
-40.59
-34.10
-25.90
-17.18
-8.96
-1.94
3.55
7.43
9.75
10.69
10.50
9.60
8.53
7.85
8.00
9.08
10.88
12.88
14.55
15.49
15.57
14.95
13.91
12.76
11.62
10.44
8.98
6.95
4.15
0.55
-3.66
-8.11
-12.38
-16.16
-19.40
-22.31
-25.33
-28.92
-33.41
-38.83
-44.86
-50.79
-55.70
-58.61
-58.67
-55.48
-49.12
-40.26
-29.94
-19.31
-9.36
-0.73
6.36
11.95
16.17
19.10
20.78
21.31
20.99
20.29
19.81
19.94
20.82
22.27
23.94
25.52
26.81
27.70
28.15
28.08
27.43
26.25
24.60
22.56
20.14
17.22
13.68
9.52
5.01
0.58
-3.43
-6.90
-10.02
-13.16
-16.62
-20.46
-24.37
-27.79
-30.09
-30.64
-29.02
-25.07
-18.91
-11.04
-2.19
6.75
14.89
21.59
26.49
29.52
30.81
30.54
28.87
25.98
22.13
17.65
13.01
8.72
5.16
2.45
0.51
-0.96
-2.24
-3.47
-4.59
-5.48
-6.05
-6.37
-6.61
-6.95
-7.47
-8.12
-8.76
-9.26
-9.55
-9.72
-9.96
-10.54
-11.76
-13.85
-16.77
-20.11
-23.11
-24.77
-24.17
-20.78
-14.65
-6.37
3.10
12.74
21.66
29.27
35.25
39.48
42.00
42.88
42.26
40.35
37.50
34.14
30.75
27.74
25.29
23.40
21.90
20.53
19.12
17.63
16.05
14.41
12.61
10.50
7.91
4.79
1.19
-2.79
-7.07
-11.69
-16.71
-22.14
-27.80
-33.31
-38.20
-42.14
-44.94
-46.59
-47.05
-46.14
-43.56
-39.04
-32.64
-24.84
-16.49
-8.45
-1.36
4.60
9.55
13.68
16.93
19.02
19.54
18.26
15.40
11.62
7.84
4.91
3.43
3.51
4.94
7.20
9.73
11.96
13.48
14.08
13.77
12.67
10.93
8.73
6.20
3.48
0.75
-1.85
-4.35
-6.94
-10.00
-13.82
-18.45
-23.45
-27.95
-30.83
-31.11
-28.27
-22.45
-14.39
-5.19
4.03
12.37
19.29
24.53
28.08
30.01
30.51
29.88
28.47
26.65
24.67
22.60
20.46
18.23
16.00
13.87
11.86
9.89
7.75
5.31
2.51
-0.53
-3.67
-6.82
-9.97
-13.18
-16.47
-19.81
-23.19
-26.75
-30.70
-35.26
-40.43
-45.87
-50.83
-54.40
-55.71
-54.27
-50.10
-43.69
-35.92
-27.70
-19.84
-12.82
-6.82
-1.84
2.21
5.36
7.59
8.89
9.32
9.10
8.52
7.89
7.42
7.24
7.32
7.54
7.70
7.62
7.14
6.15
4.60
2.44
-0.36
-3.78
-7.72
-11.90
-15.95
-19.46
-22.20
-24.25
-26.00
-28.09
-31.05
-35.05
-39.76
-44.38
-47.81
-49.01
-47.31
-42.58
-35.24
-26.19
-16.43
-6.77
2.28
10.62
18.26
25.17
31.16
35.94
39.29
41.29
42.44
43.47
45.17
48.04
52.13
57.02
61.96
66.20
69.19
70.86
71.54
71.80
72.12
72.63
72.97
72.49
70.66
67.33
63.01
58.74
55.81
55.35
57.99
63.65
71.49
80.07
87.62
92.47
93.45
90.19
83.21
73.75
63.33
53.20
43.93
35.17
25.90
14.94
1.57
-14.09
-31.04
-47.85
-63.21
-76.35
-87.11
-95.65
-102.13
-106.56
-108.81
-108.93
-107.27
-104.37
-100.81
-96.96
-92.87
-88.42
-83.41
-77.75
-71.49
-64.83
-58.01
-51.23
-44.53
-37.72
-30.31
-21.74
-11.67
-0.24
11.71
22.90
32.00
38.14
41.19
41.71
40.58
38.57
36.06
33.05
29.27
24.45
18.44
11.27
3.13
-5.57
-14.28
-22.22
-28.51
-32.39
-33.48
-31.89
-28.25
-23.55
-18.82
-14.88
-12.17
-10.84
-10.71
-11.50
-12.78
-14.05
-14.67
-14.07
-12.02
-8.93
-5.89
-4.31
-5.30
-9.11
-14.80
-20.65
-24.84
-26.28
-25.00
-21.95
-18.44
-15.47
-13.38
-11.99
-10.94
-10.13
-9.79
-10.31
-11.89
-14.36
-17.14
-19.53
-20.97
-21.34
-20.90
-20.20
-19.77
-19.97
-20.85
-22.30
-24.12
-26.12
-28.10
-29.74
-30.55
-29.95
-27.37
-22.57
-15.86
-8.07
-0.31
6.39
11.41
14.70
16.64
17.75
18.47
19.08
19.83
21.16
23.72
28.22
35.04
43.99
54.20
64.41
73.42
80.49
85.47
88.60
90.27
90.75
90.21
88.76
86.71
84.53
82.62
81.17
79.97
78.55
76.44
73.44
69.81
66.27
63.68
62.74
63.64
65.99
68.84
70.97
71.20
68.65
62.95
54.38
43.78
32.33
21.27
11.41
2.87
-4.93
-12.93
-21.97
-32.23
-43.10
-53.53
-62.52
-69.61
-75.16
-80.12
-85.63
-92.48
-100.85
-110.19
-119.22
-126.12
-128.80
-125.47
-115.24
-98.56
-77.12
-53.29
-29.34
-6.74
13.94
32.66
49.35
63.59
74.73
82.27
86.27
87.36
86.41
84.07
80.63
76.12
70.83
65.40
60.78
57.73
56.27
55.46
53.69
49.32
41.45
30.38
17.39
4.18
-7.88
-18.31
-27.43
-35.95
-44.23
-51.84
-57.60
-60.12
-58.49
-52.85
-44.36
-34.76
-25.61
-17.87
-11.78
-7.18
-3.98
-2.34
-2.56
-4.77
-8.68
-13.53
-18.37
-22.33
-24.81
-25.53
-24.42
-21.57
-17.28
-12.10
-6.83
-2.43
0.26
0.69
-1.23
-5.21
-10.68
-17.03
-23.70
-30.36
-36.92
-43.48
-50.16
-57.03
-63.96
-70.47
-75.63
-77.92
-75.52
-66.75
-50.81
-28.39
-1.77
25.67
50.48
70.14
83.71
91.68
95.37
96.17
95.15
92.94
89.99
86.72
83.50
80.49
77.61
74.51
70.86
66.43
61.21
55.29
48.83
41.99
34.96
27.93
21.02
14.14
7.06
-0.49
-8.52
-16.67
-24.24
-30.57
-35.31
-38.60
-40.91
-42.61
-43.66
-43.51
-41.34
-36.51
-28.93
-19.23
-8.50
2.03
11.40
19.04
24.85
28.94
31.53
32.73
32.54
30.92
27.85
23.51
18.28
12.71
7.42
2.92
-0.53
-2.98
-4.71
-6.22
-7.98
-10.38
-13.59
-17.54
-21.99
-26.56
-30.90
-34.72
-37.84
-40.14
-41.50
-41.78
-40.84
-38.68
-35.49
-31.73
-28.11
-25.40
-24.22
-24.86
-27.11
-30.25
-33.22
-34.86
-34.30
-31.18
-25.75
-18.74
-11.05
-3.51
3.29
8.98
13.30
16.02
16.99
16.29
14.27
11.53
8.81
6.71
5.54
5.30
5.68
6.30
6.79
6.87
6.43
5.44
3.92
1.95
-0.44
-3.22
-6.32
-9.60
-12.78
-15.48
-17.40
-18.40
-18.74
-18.97
-19.79
-21.76
-25.09
-29.40
-33.91
-37.62
-39.62
-39.39
-36.82
-32.19
-26.01
-18.83
-11.14
-3.37
4.11
10.98
16.97
21.88
25.61
28.15
29.64
30.29
30.42
30.32
30.22
30.23
30.31
30.36
30.26
29.92
29.30
28.35
27.02
25.24
23.00
20.35
17.39
14.23
10.92
7.41
3.60
-0.67
-5.58
-11.26
-17.85
-25.26
-33.11
-40.69
-46.94
-50.82
-51.50
-48.63
-42.42
-33.61
-23.23
-12.46
-2.38
6.15
12.54
16.53
18.13
17.52
14.99
10.92
5.78
0.19
-5.14
-9.58
-12.70
-14.38
-14.84
-14.46
-13.70
-12.93
-12.51
-12.70
-13.71
-15.56
-18.08
-20.87
-23.42
-25.33
-26.53
-27.29
-28.16
-29.66
-32.10
-35.38
-39.01
-42.26
-44.39
-44.80
-43.25
-39.92
-35.34
-30.28
-25.52
-21.67
-18.98
-17.32
-16.30
-15.43
-14.32
-12.82
-10.97
-8.91
-6.73
-4.43
-1.88
1.06
4.48
8.29
12.27
16.12
19.52
22.23
24.12
25.14
25.35
24.79
23.59
21.89
19.83
17.57
15.16
12.58
9.73
6.45
2.66
-1.58
-5.95
-9.77
-12.11
-11.98
-8.64
-1.93
7.54
18.51
29.37
38.67
45.47
49.48
51.00
50.58
48.78
45.97
42.41
38.26
33.77
29.28
25.14
21.63
18.89
16.89
15.47
14.44
13.63
12.86
12.03
10.93
9.38
7.17
4.19
0.47
-3.78
-8.30
-12.77
-17.01
-20.95
-24.62
-28.17
-31.77
-35.56
-39.52
-43.38
-46.55
-48.28
-47.85
-44.84
-39.37
-32.06
-23.87
-15.83
-8.76
-3.10
1.09
3.94
5.64
6.35
6.15
5.14
3.57
1.82
0.37
-0.48
-0.62
-0.29
0.10
0.20
-0.14
-0.80
-1.55
-2.27
-3.12
-4.50
-6.92
-10.67
-15.71
-21.61
-27.76
-33.61
-38.82
-43.43
-47.74
-52.16
-57.10
-62.83
-69.35
-76.42
-83.42
-89.40
-93.23
-93.82
-90.55
-83.42
-73.12
-60.78
-47.55
-34.33
-21.68
-9.86
0.89
10.31
18.08
23.97
28.02
30.62
32.44
34.27
36.82
40.48
45.24
50.68
56.16
61.02
64.80
67.35
68.72
69.03
68.31
66.49
63.49
59.39
54.47
49.20
44.03
39.25
34.89
30.75
26.53
22.00
17.05
11.72
6.21
0.82
-3.99
-7.63
-9.53
-9.18
-6.45
-1.65
4.47
10.97
16.99
21.98
25.79
28.53
30.32
31.19
31.04
29.82
27.71
25.13
22.67
20.85
19.89
19.70
19.92
20.15
20.16
19.86
19.39
18.88
18.45
18.09
17.73
17.26
16.58
15.66
14.48
13.10
11.63
10.22
9.05
8.21
7.74
7.45
7.05
6.23
4.89
3.32
2.23
2.63
5.45
11.26
20.03
31.16
43.56
55.77
66.18
73.19
75.49
72.40
64.17
51.98
37.66
23.18
10.12
-0.59
-8.67
-14.26
-17.65
-19.19
-19.32
-18.63
-17.84
-17.58
-18.27
-19.94
-22.40
-25.33
-28.55
-32.00
-35.72
-39.70
-43.84
-47.96
-51.92
-55.72
-59.48
-63.46
-67.87
-72.78
-78.07
-83.32
-87.96
-91.22
-92.37
-90.83
-86.34
-79.11
-69.73
-59.09
-48.18
-37.81
-28.48
-20.36
-13.42
-7.61
-2.92
0.70
3.46
5.89
8.76
12.81
18.43
25.44
33.16
40.69
47.31
52.69
56.76
59.59
61.06
60.96
59.08
55.47
50.53
44.93
39.33
34.16
29.53
25.31
21.24
17.09
12.71
7.96
2.77
-2.94
-9.03
-15.11
-20.50
-24.38
-26.06
-25.24
-22.15
-17.46
-12.04
-6.67
-1.82
2.37
5.95
9.10
11.87
14.22
16.07
17.39
18.26
18.88
19.52
20.38
21.54
22.87
24.12
24.95
25.15
24.65
23.56
21.98
19.91
17.18
13.50
8.66
2.78
-3.65
-9.87
-15.13
-19.03
-21.60
-23.28
-24.67
-26.18
-27.95
-29.81
-31.49
-32.70
-33.26
-32.99
-31.74
-29.33
-25.68
-20.88
-15.27
-9.30
-3.47
1.83
6.35
9.97
12.61
14.24
14.90
14.76
14.10
13.33
12.78
12.68
13.11
13.98
15.13
16.39
17.58
18.52
19.07
19.07
18.37
16.90
14.70
11.92
8.89
5.90
3.20
0.87
-1.16
-3.04
-4.89
-6.78
-8.70
-10.68
-12.77
-14.92
-16.83
-17.93
-17.51
-15.03
-10.44
-4.28
2.49
8.90
14.31
18.52
21.66
23.97
25.54
26.36
26.47
26.01
25.29
24.64
24.25
24.10
24.06
23.96
23.66
23.05
21.95
20.16
17.56
14.16
10.24
6.16
2.24
-1.43
-4.92
-8.41
-11.92
-15.28
-18.21
-20.55
-22.42
-24.18
-26.36
-29.28
-32.92
-36.84
-40.31
-42.57
-43.01
-41.31
-37.49
-31.83
-24.85
-17.19
-9.51
-2.38
3.73
8.56
12.02
14.17
15.14
15.14
14.37
13.10
11.59
10.14
8.97
8.21
7.87
7.86
8.07
8.40
8.84
9.36
9.87
10.16
9.96
9.02
7.23
4.71
1.75
-1.32
-4.23
-6.94
-9.52
-12.13
-14.88
-17.75
-20.57
-22.99
-24.59
-24.91
-23.67
-20.76
-16.41
-11.10
-5.49
-0.18
4.40
8.12
11.04
13.37
15.23
16.63
17.47
17.62
17.06
15.94
14.47
12.92
11.43
9.98
8.46
6.75
4.88
3.01
1.40
0.30
-0.22
-0.26
-0.09
-0.03
-0.38
-1.30
-2.88
-5.06
-7.73
-10.69
-13.68
-16.41
-18.47
-19.39
-18.69
-16.00
-11.29
-4.96
2.12
9.00
14.87
19.37
22.64
25.07
26.97
28.37
29.04
28.75
27.52
25.79
24.17
23.25
23.26
24.03
25.17
26.35
27.47
28.72
30.37
32.54
35.12
37.82
40.35
42.67
44.93
47.34
49.93
52.40
54.24
54.91
54.06
51.56
47.46
41.94
35.31
28.18
21.53
16.57
14.40
15.56
19.71
25.77
32.25
37.78
41.49
43.02
42.45
39.97
35.87
30.39
23.92
16.97
10.06
3.69
-1.91
-6.72
-10.92
-14.75
-18.38
-21.86
-25.10
-27.93
-30.19
-31.80
-32.87
-33.64
-34.54
-36.01
-38.40
-41.82
-46.10
-50.79
-55.39
-59.50
-62.93
-65.76
-68.21
-70.59
-73.17
-76.14
-79.64
-83.70
-88.20
-92.80
-96.95
-100.00
-101.40
-100.94
-98.84
-95.68
-92.20
-89.05
-86.61
-85.00
-84.25
-84.39
-85.51
-87.64
-90.53
-93.54
-95.74
-96.15
-94.07
-89.31
-82.19
-73.37
-63.65
-53.70
-44.06
-35.07
-26.95
-19.77
-13.47
-7.88
-2.81
1.85
5.98
9.38
11.82
13.20
13.63
13.36
12.68
11.82
10.87
9.84
8.70
7.40
6.00
4.66
3.72
3.55
4.61
7.22
11.48
17.19
23.83
30.74
37.21
42.69
46.77
49.26
50.12
49.50
47.73
45.23
42.49
39.95
37.94
36.61
36.02
36.07
36.65
37.64
38.96
40.62
42.60
44.85
47.12
49.04
50.20
50.29
49.27
47.33
44.68
41.48
37.73
33.27
28.04
22.20
16.09
10.21
4.97
0.51
-3.31
-6.81
-10.46
-14.65
-19.63
-25.34
-31.25
-36.40
-39.57
-39.67
-36.13
-29.27
-20.21
-10.48
-1.50
5.93
11.65
15.94
19.09
21.08
21.65
20.50
17.67
13.69
9.49
6.02
3.96
3.57
4.67
6.88
9.73
12.71
15.33
17.16
17.98
17.84
17.16
16.47
16.21
16.42
16.73
16.54
15.36
13.03
9.84
6.39
3.23
0.70
-1.17
-2.66
-4.13
-5.98
-8.48
-11.71
-15.50
-19.36
-22.58
-24.41
-24.30
-22.06
-17.89
-12.25
-5.60
1.63
9.08
16.30
22.70
27.63
30.59
31.48
30.65
28.79
26.57
24.49
22.72
21.35
20.41
20.07
20.44
21.41
22.60
23.47
23.58
22.79
21.27
19.33
17.10
14.46
11.16
7.18
2.89
-0.96
-3.59
-4.67
-4.56
-4.17
-4.58
-6.54
-10.08
-14.66
-19.36
-23.31
-25.86
-26.64
-25.42
-22.14
-16.87
-9.97
-2.10
5.88
13.20
19.33
24.10
27.57
29.85
30.96
30.78
29.33
26.90
24.10
21.72
20.42
20.41
21.42
22.84
24.05
24.72
24.93
25.00
25.27
25.95
27.07
28.54
30.24
31.85
32.78
32.08
28.64
21.61
10.90
-2.79
-18.02
-33.23
-47.23
-59.34
-69.35
-77.13
-82.34
-84.49
-83.13
-78.21
-70.29
-60.37
-49.52
-38.65
-28.24
-18.56
-9.81
-2.39
3.23
6.66
7.87
7.32
5.75
3.99
2.63
1.96
1.96
2.51
3.49
4.80
6.33
7.88
9.25
10.27
10.81
10.79
10.13
8.78
6.86
4.72
2.97
2.26
3.05
5.28
8.33
11.22
12.94
12.84
10.86
7.53
3.74
0.50
-1.37
-1.39
0.44
3.73
7.82
11.95
15.55
18.27
20.10
21.16
21.65
21.74
21.56
21.19
20.62
19.82
18.67
17.02
14.79
12.00
8.86
5.62
2.58
-0.07
-2.27
-3.98
-5.23
-6.09
-6.63
-7.03
-7.47
-8.10
-8.95
-9.82
-10.41
-10.40
-9.59
-8.09
-6.28
-4.75
-4.04
-4.41
-5.67
-7.13
-7.85
-6.99
-4.17
0.42
6.05
11.84
17.04
21.31
24.64
27.20
29.12
30.38
30.91
30.69
29.91
28.92
28.15
27.90
28.28
29.17
30.31
31.38
32.09
32.25
31.73
30.53
28.64
26.08
22.86
18.94
14.30
8.95
2.93
-3.67
-10.68
-17.86
-24.96
-31.75
-38.01
-43.61
-48.35
-51.94
-53.96
-53.95
-51.63
-47.05
-40.73
-33.60
-26.66
-20.73
-16.20
-13.00
-10.77
-9.08
-7.63
-6.30
-5.16
-4.33
-3.92
-3.91
-4.12
-4.22
-3.85
-2.70
-0.63
2.24
5.58
8.95
11.81
13.73
14.36
13.49
11.11
7.43
2.88
-2.09
-7.03
-11.77
-16.34
-20.98
-25.94
-31.36
-37.16
-43.02
-48.41
-52.78
-55.63
-56.74
-56.19
-54.43
-52.05
-49.61
-47.39
-45.35
-43.20
-40.76
-38.04
-35.24
-32.40
-29.12
-24.45
-17.30
-6.97
6.34
21.46
36.63
50.25
61.37
69.81
75.81
79.49
80.53
78.26
72.07
61.94
48.64
33.72
19.01
6.24
-3.43
-9.55
-12.28
-12.19
-9.94
-6.15
-1.26
4.35
10.30
16.15
21.42
25.69
28.65
30.19
30.28
29.00
26.48
22.95
18.76
14.39
10.36
7.04
4.56
2.73
1.13
-0.64
-2.80
-5.33
-8.01
-10.69
-13.35
-16.04
-18.62
-20.63
-21.40
-20.35
-17.45
-13.28
-8.87
-5.11
-2.38
-0.35
1.61
4.00
6.82
9.62
11.96
13.72
15.31
17.35
20.23
23.83
27.49
30.39
31.89
31.87
30.55
28.39
25.76
22.79
19.42
15.57
11.30
6.85
2.60
-1.07
-3.89
-5.74
-6.66
-6.76
-6.26
-5.39
-4.41
-3.51
-2.90
-2.70
-3.12
-4.44
-6.92
-10.71
-15.67
-21.40
-27.36
-33.11
-38.45
-43.44
-48.10
-52.27
-55.40
-56.78
-55.90
-52.73
-47.83
-42.09
-36.37
-31.14
-26.37
-21.76
-17.03
-12.17
-7.49
-3.44
-0.31
1.97
3.83
5.84
8.40
11.54
14.89
17.86
19.94
20.92
21.00
20.65
20.40
20.61
21.44
22.76
24.38
26.02
27.45
28.43
28.77
28.32
27.03
25.00
22.51
19.94
17.67
16.01
15.20
15.37
16.70
19.35
23.49
29.09
35.90
43.40
50.92
57.81
63.67
68.41
72.17
75.20
77.66
79.54
80.70
80.95
80.07
77.74
73.45
66.58
56.68
43.78
28.76
13.17
-1.16
-12.76
-20.99
-26.06
-28.77
-30.01
-30.48
-30.56
-30.43
-30.09
-29.29
-27.52
-24.18
-18.97
-12.26
-5.17
0.75
4.15
4.29
1.13
-4.99
-13.67
-24.52
-36.95
-49.85
-61.46
-69.78
-73.23
-71.25
-64.64
-55.16
-44.86
-35.44
-27.86
-22.47
-19.34
-18.62
-20.67
-25.75
-33.68
-43.49
-53.55
-61.92
-67.04
-68.24
-65.93
-61.26
-55.56
-49.79
-44.28
-38.85
-33.20
-27.25
-21.17
-15.15
-9.09
-2.56
4.84
13.04
21.10
27.45
30.49
29.35
24.41
17.01
8.91
1.48
-4.63
-9.46
-13.30
-16.27
-18.14
-18.41
-16.56
-12.23
-5.43
3.41
13.38
23.21
31.54
37.22
39.51
38.21
33.51
25.90
16.20
5.58
-4.34
-11.85
-15.63
-15.38
-12.05
-7.46
-3.46
-1.03
0.11
1.16
3.30
6.77
10.53
12.75
11.76
6.99
-0.78
-9.78
-18.15
-24.71
-29.27
-32.39
-34.91
-37.47
-40.38
-43.73
-47.51
-51.59
-55.54
-58.48
-59.23
-56.80
-51.02
-42.85
-34.21
-27.15
-22.95
-21.55
-21.72
-21.74
-20.32
-17.08
-12.44
-6.96
-0.72
7.00
17.42
31.60
49.77
70.96
93.12
113.56
129.57
139.01
140.63
134.27
120.79
101.83
79.48
55.79
32.38
10.14
-10.72
-30.27
-48.36
-64.20
-76.41
-83.51
-84.67
-80.22
-71.67
-61.22
-50.94
-42.18
-35.41
-30.45
-26.92
-24.51
-23.04
-22.28
-21.87
-21.33
-20.23
-18.36
-15.84
-13.00
-10.34
-8.27
-7.08
-6.84
-7.39
-8.45
-9.72
-11.06
-12.61
-14.61
-17.29
-20.54
-23.91
-26.72
-28.35
-28.55
-27.46
-25.52
-23.24
-20.99
-19.01
-17.50
-16.71
-16.88
-18.09
-20.15
-22.53
-24.50
-25.30
-24.37
-21.44
-16.66
-10.57
-3.95
2.38
7.79
11.93
14.81
16.51
17.10
16.58
14.96
12.52
9.88
7.91
7.29
8.23
10.24
12.29
13.30
12.59
10.25
7.10
4.28
2.82
3.24
5.35
8.43
11.45
13.37
13.37
11.11
6.90
1.79
-2.51
-4.11
-1.48
5.91
17.40
31.32
45.53
58.05
67.38
72.60
73.19
68.94
60.01
47.15
31.83
16.13
2.30
-7.89
-13.61
-15.10
-13.35
-9.55
-4.59
1.20
7.81
15.29
23.32
31.22
38.11
43.28
46.56
48.32
49.44
50.88
53.54
57.86
63.88
71.12
78.65
85.25
89.65
90.89
88.56
83.01
75.09
65.90
56.42
47.25
38.78
31.25
24.95
20.30
17.67
17.21
18.75
21.80
25.61
29.36
32.21
33.46
32.65
29.72
24.94
18.88
12.10
5.01
-2.28
-9.84
-17.67
-25.60
-33.25
-40.21
-46.24
-51.38
-55.86
-59.93
-63.57
-66.48
-68.20
-68.38
-67.05
-64.67
-62.01
-59.79
-58.35
-57.50
-56.61
-54.94
-52.10
-48.22
-43.98
-40.28
-37.86
-37.03
-37.61
-39.05
-40.74
-42.26
-43.54
-44.74
-46.22
-48.26
-50.96
-54.22
-57.73
-61.11
-63.91
-65.68
-65.95
-64.32
-60.50
-54.46
-46.52
-37.41
-28.08
-19.55
-12.56
-7.51
-4.36
-2.81
-2.43
-2.78
-3.37
-3.63
-2.91
-0.58
3.75
10.01
17.56
25.43
32.60
38.41
42.72
45.75
47.76
48.79
48.57
46.76
43.31
38.64
33.59
29.04
25.44
22.67
20.11
17.08
13.16
8.46
3.56
-0.78
-3.84
-5.11
-4.42
-1.87
2.18
7.18
12.46
17.36
21.33
24.03
25.37
25.39
24.23
22.01
18.90
15.16
11.24
7.66
4.90
3.21
2.51
2.45
2.56
2.47
2.03
1.30
0.36
-0.81
-2.38
-4.56
-7.46
-10.95
-14.72
-18.36
-21.62
-24.46
-27.01
-29.48
-31.90
-34.07
-35.55
-35.77
-34.22
-30.60
-24.98
-17.75
-9.53
-1.04
7.06
14.28
20.28
24.91
28.16
30.13
31.01
31.05
30.50
29.63
28.72
28.07
27.90
28.28
29.02
29.75
30.00
29.49
28.14
26.16
23.83
21.39
18.90
16.31
13.54
10.55
7.27
3.52
-0.92
-6.28
-12.47
-18.96
-24.76
-28.75
-30.03
-28.26
-23.68
-16.84
-8.33
1.46
12.23
23.47
34.13
42.60
47.08
46.27
39.99
29.39
16.57
3.92
-6.79
-14.80
-20.28
-23.91
-26.30
-27.70
-28.05
-27.25
-25.44
-23.05
-20.63
-18.55
-16.91
-15.56
-14.24
-12.78
-11.21
-9.71
-8.57
-8.07
-8.46
-9.90
-12.50
-16.22
-20.82
-25.92
-30.89
-34.97
-37.44
-37.75
-35.68
-31.48
-25.77
-19.43
-13.27
-7.89
-3.44
0.19
3.27
6.01
8.39
10.26
11.32
11.42
10.60
9.12
7.39
5.79
4.56
3.65
2.84
1.82
0.32
-1.77
-4.34
-7.16
-9.83
-11.93
-13.07
-13.03
-11.81
-9.68
-7.18
-4.96
-3.70
-3.88
-5.68
-8.95
-13.17
-17.54
-21.09
-22.93
-22.41
-19.35
-14.08
-7.32
-0.01
7.06
13.29
18.44
22.45
25.36
27.23
28.10
28.06
27.28
26.00
24.52
23.11
21.91
20.99
20.25
19.62
19.02
18.43
17.92
17.49
17.10
16.59
15.70
14.25
12.16
9.51
6.51
3.43
0.46
-2.35
-5.03
-7.72
-10.55
-13.63
-16.96
-20.40
-23.61
-26.08
-27.23
-26.58
-23.94
-19.52
-13.82
-7.51
-1.12
5.00
10.77
16.20
21.27
25.84
29.73
32.71
34.71
35.76
36.08
35.99
35.82
35.82
36.09
36.42
36.48
35.95
34.67
32.78
30.65
28.69
27.09
25.74
24.31
22.42
19.89
16.77
13.33
9.81
6.30
2.73
-1.10
-5.32
-9.95
-14.88
-19.99
-25.18
-30.44
-35.70
-40.74
-45.12
-48.24
-49.49
-48.48
-45.22
-40.05
-33.64
-26.70
-19.81
-13.34
-7.43
-2.09
2.66
6.75
10.09
12.68
14.65
16.29
17.90
19.72
21.75
23.82
25.69
27.10
27.92
28.17
27.98
27.51
26.94
26.40
25.92
25.43
24.79
23.80
22.29
20.27
17.85
15.26
12.72
10.38
8.28
6.33
4.40
2.32
-0.05
-2.82
-5.98
-9.42
-12.90
-16.11
-18.76
-20.68
-21.88
-22.50
-22.84
-23.28
-24.22
-26.01
-28.93
-33.09
-38.26
-44.00
-49.69
-54.94
-59.74
-64.48
-69.66
-75.41
-81.08
-85.19
-85.92
-81.77
-72.26
-58.22
-41.67
-25.29
-11.85
-3.63
-1.89
-6.43
-15.16
-24.07
-27.75
-20.74
0.71
37.08
85.04
138.27
189.39
232.27
263.65
283.53
294.12
298.24
297.78
293.07
283.40
267.98
246.99
221.77
194.48
167.22
141.28
116.84
93.14
68.98
43.39
16.10
-12.24
-40.20
-65.97
-87.94
-105.35
-118.51
-128.67
-137.38
-145.70
-153.83
-161.11
-166.65
-169.82
-170.59
-169.31
-166.27
-161.25
-153.66
-142.92
-129.02
-112.93
-96.43
-81.65
-70.42
-63.85
-61.93
-63.62
-67.45
-72.14
-76.90
-81.39
-85.25
-87.67
-87.43
-83.13
-74.01
-60.79
-46.07
-33.58
-26.57
-26.07
-30.04
-34.29
-33.84
-24.84
-6.20
20.00
49.59
78.22
102.88
122.41
135.94
143.37
145.27
142.45
135.60
125.39
113.05
100.43
89.73
80.94
74.14
70.51
71.53
77.25
85.76
94.00
98.72
97.78
87.31
66.44
39.08
11.81
-10.39
-26.47
-39.06
-53.18
-73.46
-107.02
-156.50
-216.81
-277.56
-328.52
-362.84
-377.39
-372.62
-326.75
-238.56
-133.59
-46.53
4.07
21.72
21.98
20.71
22.95
28.66
28.95
15.38
-12.39
-46.94
-79.35
-104.58
-118.37
-122.62
-121.74
-115.20
-104.58
-91.81
-79.01
-67.55
-56.73
-46.72
-33.18
-12.39
15.33
47.24
82.05
119.64
158.78
198.25
237.27
274.76
308.22
332.47
341.32
331.57
304.47
264.92
219.54
174.33
133.33
98.48
70.08
47.81
32.12
23.71
22.64
27.90
37.59
49.78
62.72
74.79
83.70
86.52
80.04
61.87
31.54
-9.05
-56.14
-105.32
-152.55
-194.88
-230.45
-258.21
-277.78
-289.69
-295.71
-298.75
-302.12
-308.30
-317.90
-329.29
-339.20
-343.76
-339.88
-326.15
-303.11
-272.93
-238.65
-203.24
-169.04
-137.29
-108.15
-81.04
-55.14
-29.79
-4.84
19.35
42.18
63.24
82.59
100.58
117.39
132.57
144.87
152.62
154.60
150.77
142.45
131.76
120.74
110.46
100.99
91.87
82.86
74.35
67.21
62.22
59.51
58.34
57.43
55.61
52.40
48.20
44.21
41.80
41.99
45.01
50.22
56.44
62.42
67.31
70.87
73.43
75.45
77.19
78.61
79.35
79.11
77.83
75.80
73.48
71.29
69.27
66.94
63.47
57.86
49.34
37.67
23.34
7.62
-7.56
-19.99
-27.69
-29.36
-24.77
-14.72
-0.80
14.99
30.66
44.42
54.83
61.00
62.70
60.35
54.83
47.07
37.58
26.33
12.93
-2.84
-20.43
-38.53
-55.36
-69.32
-79.57
-86.17
-89.77
-91.06
-90.37
-87.62
-82.53
-75.07
-65.63
-54.88
-43.41
-31.32
-18.02
-2.58
15.79
37.31
61.38
86.77
111.88
135.23
155.64
172.33
185.04
194.02
200.11
204.71
209.44
215.40
222.49
229.07
232.23
228.77
216.49
195.14
166.62
134.36
102.04
72.44
46.89
25.49
7.98
-5.72
-15.27
-20.49
-21.92
-21.16
-20.40
-21.55
-25.43
-31.51
-38.43
-44.94
-50.69
-56.39
-63.24
-72.00
-82.32
-92.58
-100.40
-103.69
-101.37
-93.81
-82.56
-69.72
-57.09
-45.71
-35.66
-26.47
-17.68
-9.27
-1.79
3.94
7.23
7.96
6.60
4.02
1.07
-1.72
-4.28
-6.77
-9.38
-12.12
-14.76
-16.96
-18.52
-19.49
-20.32
-21.64
-24.12
-28.21
-33.97
-41.02
-48.53
-55.44
-60.72
-63.71
-64.43
-63.66
-62.68
-62.81
-64.90
-69.00
-74.33
-79.66
-83.76
-85.74
-85.32
-82.74
-78.53
-73.38
-67.91
-62.61
-57.82
-53.76
-50.52
-48.11
-46.48
-45.63
-45.68
-46.74
-48.85
-51.72
-54.78
-57.25
-58.56
-58.63
-57.88
-56.96
-56.19
-55.18
-52.91
-48.18
-40.37
-29.92
-18.22
-6.99
2.49
9.99
16.22
22.32
29.21
37.09
45.32
52.75
58.26
61.26
61.95
61.15
60.01
59.36
59.45
59.89
60.07
59.67
59.00
58.83
60.01
62.86
66.86
70.94
73.97
75.27
74.49
71.29
65.02
54.81
40.31
22.27
2.90
-14.73
-27.80
-34.80
-35.96
-32.89
-27.67
-22.11
-17.43
-14.38
-13.57
-15.44
-20.06
-26.78
-34.22
-40.65
-44.68
-45.69
-44.16
-41.32
-38.67
-37.34
-37.72
-39.43
-41.44
-42.42
-41.14
-36.74
-28.99
-18.35
-6.06
6.08
16.19
22.79
25.35
24.56
22.09
20.07
20.30
23.71
30.19
38.91
48.73
58.64
67.84
75.67
81.55
84.98
85.85
84.62
82.38
80.51
80.31
82.56
87.33
94.05
101.82
109.82
117.62
125.28
133.29
142.23
152.29
162.91
172.78
180.42
184.92
186.73
187.75
190.78
198.38
211.76
230.19
250.99
270.40
284.50
290.15
285.47
270.10
245.20
213.31
177.96
142.95
111.22
83.83
59.55
35.25
7.20
-27.32
-68.95
-116.11
-165.99
-216.00
-264.93
-313.07
-361.31
-409.99
-458.08
-503.17
-542.12
-571.73
-589.14
-592.12
-579.24
-550.23
-506.55
-451.28
-388.44
-321.73
-253.51
-184.67
-115.50
-46.84
19.25
79.62
130.83
169.89
194.51
203.25
195.83
173.97
141.89
106.05
73.35
48.98
34.79
29.52
30.73
37.18
49.85
70.94
101.28
138.07
174.66
202.44
213.91
205.30
177.35
134.28
81.65
24.38
-34.23
-92.49
-149.30
-203.08
-250.87
-288.25
-310.29
-313.08
-295.69
-261.20
-216.47
-170.27
-130.68
-102.84
-88.09
-84.80
-90.19
-101.92
-118.56
-138.94
-161.00
-181.02
-194.00
-195.05
-181.15
-152.37
-111.99
-65.51
-18.96
22.77
56.90
82.96
102.18
116.59
128.04
137.50
144.62
147.74
144.39
132.28
110.37
79.78
43.87
7.35
-25.13
-50.42
-67.52
-77.30
-81.56
-82.06
-80.01
-76.23
-71.44
-66.45
-61.81
-57.51
-52.78
-46.37
-37.39
-25.97
-13.47
-2.09
6.08
10.08
10.67
9.99
10.69
14.69
22.28
31.98
41.28
47.86
50.67
50.36
48.84
48.23
49.94
54.35
61.13
70.10
81.67
96.60
115.09
135.71
155.02
168.12
170.34
159.05
135.01
102.44
67.75
37.48
16.29
5.75
4.21
7.84
12.15
13.66
10.85
4.50
-2.92
-8.18
-8.42
-1.94
11.49
30.68
53.47
77.30
99.71
118.71
133.00
142.12
146.56
147.79
148.01
149.73
155.00
164.73
178.42
194.26
209.86
223.01
232.35
237.56
239.13
237.94
234.72
229.72
222.61
212.58
198.70
180.30
157.38
130.73
101.81
72.53
44.82
20.34
0.20
-15.20
-26.20
-33.86
-39.60
-44.79
-50.32
-56.39
-62.62
-68.39
-73.29
-77.24
-80.53
-83.53
-86.50
-89.47
-92.28
-94.69
-96.42
-97.23
-96.88
-95.12
-91.79
-86.85
-80.50
-73.17
-65.40
-57.76
-50.68
-44.40
-38.94
-34.21
-30.00
-26.17
-22.63
-19.42
-16.65
-14.38
-12.52
-10.86
-9.12
-7.08
-4.70
-2.17
0.23
2.21
3.56
4.20
4.07
3.15
1.43
-1.02
-3.98
-7.12
-10.10
-12.73
-15.03
-17.18
-19.41
-21.84
-24.47
-27.23
-30.02
-32.80
-35.47
-37.81
-39.45
-39.93
-38.94
-36.44
-32.74
-28.39
-23.94
-19.77
-16.00
-12.60
-9.45
-6.50
-3.83
-1.54
0.27
1.59
2.50
3.14
3.68
4.20
4.80
5.49
6.26
7.01
7.64
8.03
8.08
7.82
7.31
6.62
5.80
4.86
3.80
2.70
1.69
0.96
0.63
0.66
0.91
1.08
0.88
0.03
-1.63
-4.20
-7.60
-11.56
-15.64
-19.31
-22.05
-23.51
-23.62
-22.54
-20.57
-18.03
-15.23
-12.37
-9.61
-7.05
-4.72
-2.64
-0.79
0.89
2.45
3.90
5.20
6.28
7.06
7.54
7.78
7.91
8.06
8.25
8.40
8.30
7.81
6.90
5.70
4.48
3.49
2.85
2.51
2.34
2.21
2.11
2.16
2.44
3.00
3.69
4.34
4.76
4.90
4.80
4.54
4.19
3.79
3.41
3.19
3.30
3.97
5.30
7.24
9.61
12.18
14.78
17.31
19.73
21.99
23.87
25.06
25.22
24.16
21.90
18.73
15.07
11.34
7.78
4.45
1.28
-1.80
-4.77
-7.55
-10.09
-12.43
-14.76
-17.31
-20.21
-23.44
-26.80
-30.02
-32.85
-35.13
-36.76
-37.78
-38.26
-38.35
-38.24
-38.09
-37.99
-37.85
-37.50
-36.73
-35.44
-33.77
-32.07
-30.77
-30.19
-30.34
-30.93
-31.43
-31.23
-29.96
-27.51
-24.10
-20.08
-15.79
-11.47
-7.25
-3.22
0.51
3.80
6.54
8.64
10.10
11.02
11.55
11.85
12.12
12.51
13.12
13.97
15.01
16.14
17.22
18.15
18.90
19.43
19.71
19.71
19.37
18.67
17.60
16.20
14.55
12.70
10.69
8.47
5.97
3.13
-0.09
-3.68
-7.56
-11.66
-15.86
-20.05
-24.06
-27.73
-30.85
-33.20
-34.59
-34.92
-34.13
-32.25
-29.37
-25.66
-21.29
-16.46
-11.36
-6.20
-1.19
3.48
7.58
10.95
13.49
15.21
16.22
16.73
17.00
17.25
17.65
18.24
18.95
19.68
20.30
20.66
20.67
20.26
19.42
18.17
16.60
14.83
12.96
11.01
8.93
6.65
4.11
1.38
-1.38
-4.01
-6.39
-8.54
-10.58
-12.64
-14.80
-17.03
-19.29
-21.53
-23.74
-25.87
-27.78
-29.21
-29.83
-29.31
-27.52
-24.51
-20.55
-15.99
-11.20
-6.49
-2.13
1.69
4.83
7.22
8.90
10.03
10.85
11.56
12.31
13.09
13.77
14.21
14.32
14.15
13.84
13.57
13.43
13.39
13.29
12.96
12.31
11.32
10.05
8.54
6.81
4.80
2.48
-0.12
-2.87
-5.61
-8.21
-10.58
-12.72
-14.66
-16.38
-17.90
-19.27
-20.66
-22.28
-24.30
-26.76
-29.44
-31.93
-33.78
-34.64
-34.33
-32.89
-30.46
-27.21
-23.30
-18.88
-14.12
-9.21
-4.41
0.04
3.90
7.01
9.27
10.70
11.38
11.51
11.30
11.00
10.76
10.67
10.73
10.85
10.95
10.90
10.57
9.86
8.67
6.99
4.96
2.88
1.13
0.14
0.10
1.01
2.54
4.23
5.60
6.32
6.20
5.20
3.33
0.65
-2.68
-6.33
-9.85
-12.74
-14.66
-15.54
-15.64
-15.37
-15.08
-14.86
-14.55
-13.86
-12.57
-10.75
-8.68
-6.79
-5.37
-4.44
-3.84
-3.24
-2.43
-1.31
0.08
1.64
3.40
5.41
7.78
10.50
13.44
16.30
18.78
20.66
21.90
22.63
23.12
23.62
24.28
25.10
25.91
26.48
26.59
26.14
25.14
23.68
21.89
19.88
17.68
15.28
12.67
9.89
7.02
4.15
1.38
-1.23
-3.68
-6.05
-8.47
-11.10
-14.12
-17.54
-21.23
-24.79
-27.72
-29.49
-29.74
-28.40
-25.68
-21.96
-17.72
-13.33
-9.16
-5.49
-2.54
-0.42
0.93
1.75
2.36
3.09
4.05
5.15
6.18
6.89
7.16
7.03
6.59
5.89
4.88
3.41
1.36
-1.27
-4.31
-7.50
-10.55
-13.29
-15.71
-17.93
-20.08
-22.22
-24.24
-25.87
-26.85
-27.09
-26.78
-26.40
-26.63
-28.14
-31.46
-36.83
-44.18
-53.01
-62.35
-70.69
-76.21
-77.10
-72.23
-61.52
-46.12
-28.11
-9.88
6.52
19.87
29.81
36.58
40.65
42.44
42.30
40.61
37.93
35.00
32.51
30.83
29.93
29.45
28.96
28.26
27.51
27.04
27.11
27.65
28.28
28.40
27.59
25.80
23.47
21.46
20.83
22.43
26.63
33.05
40.53
47.39
51.92
52.91
49.99
43.68
35.08
25.48
15.95
7.20
-0.50
-7.05
-12.41
-16.46
-19.04
-19.99
-19.37
-17.44
-14.65
-11.53
-8.48
-5.69
-3.09
-0.47
2.45
5.86
9.79
14.09
18.33
21.97
24.48
25.62
25.60
25.07
24.83
25.42
26.81
28.35
29.13
28.47
26.25
22.98
19.48
16.40
14.00
12.16
10.62
9.24
8.11
7.37
7.02
6.76
6.14
4.77
2.64
0.18
-1.87
-2.81
-2.33
-0.63
1.50
3.10
3.33
1.94
-0.67
-3.59
-5.92
-7.22
-7.78
-8.47
-10.21
-13.33
-17.34
-21.01
-22.97
-22.44
-19.62
-15.71
-12.42
-11.19
-12.51
-15.63
-18.82
-20.02
-17.74
-11.79
-3.62
3.85
6.93
2.16
-12.68
-37.58
-69.75
-103.59
-131.70
-146.85
-144.44
-124.44
-91.70
-54.22
-20.16
5.32
21.44
31.13
38.67
47.15
57.11
66.79
73.70
76.11
73.85
68.00
60.11
51.46
42.75
34.19
25.80
17.54
9.48
1.92
-4.59
-9.25
-11.30
-10.31
-6.56
-0.97
5.19
10.83
15.33
18.58
20.68
21.51
20.63
17.44
11.61
3.54
-5.59
-14.20
-20.81
-24.57
-25.37
-23.82
-20.87
-17.58
-14.78
-12.97
-12.26
-12.45
-13.09
-13.72
-13.86
-13.17
-11.36
-8.21
-3.57
2.47
9.44
16.45
22.36
26.15
27.30
25.98
22.91
19.09
15.41
12.48
10.61
9.90
10.40
12.15
15.07
18.90
23.13
27.11
30.25
32.24
33.10
33.18
32.97
32.92
33.33
34.28
35.65
37.25
38.81
40.20
41.36
42.36
43.21
43.84
43.96
43.23
41.37
38.43
34.91
31.63
29.57
29.56
32.05
37.12
44.39
53.18
62.36
70.38
75.27
75.00
68.09
54.29
34.98
12.97
-8.42
-26.42
-39.64
-48.09
-52.47
-53.33
-50.64
-44.14
-34.14
-22.21
-11.07
-3.65
-1.81
-5.49
-12.83
-21.27
-28.79
-34.82
-40.17
-46.29
-54.37
-64.71
-76.65
-88.97
-100.32
-109.63
-116.24
-120.00
-121.25
-120.74
-119.38
-117.91
-116.70
-115.72
-114.80
-113.90
-113.09
-112.37
-111.28
-108.90
-104.21
-96.76
-87.18
-77.00
-67.87
-60.56
-54.47
-48.05
-39.80
-29.36
-17.74
-6.82
1.92
8.23
13.34
19.23
27.59
38.85
51.94
64.78
75.17
81.78
84.56
84.68
83.82
83.36
83.91
85.22
86.45
86.83
85.90
83.70
80.44
76.29
71.20
65.00
57.59
49.14
40.06
30.82
21.77
13.04
4.61
-3.61
-11.63
-19.34
-26.55
-33.04
-38.61
-43.09
-46.37
-48.38
-49.09
-48.53
-46.78
-43.96
-40.19
-35.58
-30.25
-24.36
-18.22
-12.26
-7.06
-3.15
-0.90
-0.33
-1.12
-2.70
-4.48
-5.97
-6.99
-7.60
-8.06
-8.75
-10.03
-12.20
-15.39
-19.53
-24.25
-29.05
-33.45
-37.16
-40.22
-42.98
-45.83
-48.99
-52.26
-55.01
-56.44
-55.78
-52.58
-46.76
-38.68
-28.99
-18.61
-8.61
-0.01
6.52
10.97
14.08
17.15
21.49
27.74
35.35
42.80
48.24
50.45
49.54
46.86
44.32
43.37
44.34
46.46
48.48
49.43
49.15
48.26
47.62
47.77
48.62
49.57
49.84
48.93
46.76
43.65
40.12
36.62
33.45
30.67
28.32
26.45
25.28
24.97
25.49
26.50
27.45
27.85
27.69
27.56
28.45
31.37
36.82
44.56
53.65
62.81
70.89
77.20
81.73
85.02
87.95
91.37
95.73
100.68
104.90
106.28
102.49
91.86
74.22
51.18
25.71
1.11
-20.25
-37.68
-52.06
-64.94
-77.42
-89.42
-99.83
-107.32
-111.09
-111.18
-108.08
-102.12
-93.15
-80.53
-63.33
-40.85
-11.68
24.90
68.52
116.75
164.64
205.42
232.33
240.92
230.40
204.78
170.51
134.64
102.89
78.44
61.86
51.74
46.01
42.55
42.85
49.60
66.45
96.11
138.32
188.93
240.77
285.91
315.86
330.10
328.69
313.38
286.17
248.73
202.88
151.60
99.50
47.23
4.26
-27.91
-51.46
-71.56
-94.34
-124.60
-164.43
-212.68
-272.73
-329.82
-375.57
-401.78
-403.20
-380.32
-340.40
-295.75
-259.55
-250.69
-261.12
-287.03
-321.74
-359.78
-399.39
-442.04
-489.85
-480.91
-486.63
-487.23
-473.78
-440.41
-386.84
-319.03
-246.79
-180.15
-125.41
-93.08
-69.06
-48.46
-28.53
-10.15
3.38
9.44
8.79
6.23
1.07
6.83
24.90
51.89
81.03
105.18
119.79
124.38
122.28
113.96
108.85
108.64
111.64
113.60
109.49
95.42
70.13
35.26
-7.42
-50.08
-87.25
-114.40
-128.69
-129.23
-116.99
-94.26
-63.90
-29.62
6.95
43.50
77.75
107.36
130.33
145.55
153.37
155.48
154.28
151.71
148.45
143.84
136.72
126.67
114.76
103.32
94.79
90.22
88.36
85.99
79.26
65.47
44.32
18.10
-9.32
-33.82
-52.39
-63.71
-67.82
-65.49
-57.50
-44.39
-26.65
-5.24
18.01
40.51
59.49
72.88
80.03
81.88
80.51
78.16
76.30
75.05
73.31
69.38
61.83
50.33
35.92
20.73
7.28
-2.32
-7.02
-7.00
-3.50
1.72
6.84
10.50
12.02
11.39
9.18
6.21
3.34
1.24
0.20
0.08
0.41
0.55
-0.05
-1.63
-3.93
-6.24
-7.69
-7.55
-5.69
-2.67
0.42
2.44
2.66
1.02
-1.92
-5.33
-8.41
-10.63
-11.67
-11.44
-9.93
-7.46
-4.77
-2.86
-2.71
-4.86
-9.08
-14.50
-20.11
-25.04
-29.11
-32.58
-35.77
-38.49
-39.80
-37.99
-30.99
-16.88
6.11
38.65
79.86
126.75
174.25
216.02
246.42
262.59
265.60
260.60
254.21
251.77
255.09
262.07
268.16
268.94
263.27
250.36
232.61
212.41
191.25
169.64
147.60
125.19
102.68
80.27
57.58
34.20
9.65
-15.94
-41.45
-65.13
-85.20
-100.71
-112.28
-122.45
-135.18
-154.78
-183.87
-221.28
-261.02
-292.94
-305.43
-289.57
-243.14
-172.52
-91.76
-18.54
31.49
49.43
35.19
-3.81
-56.59
-112.78
-165.54
-212.35
-253.73
-291.49
-327.71
-364.70
-405.08
-451.35
-503.98
-559.53
-610.26
-646.07
-658.23
-642.88
-602.74
-545.82
-482.01
-419.39
-362.30
-311.47
-265.62
-223.39
-184.05
-147.39
-112.98
-79.90
-47.01
-13.66
19.81
52.23
82.04
108.18
130.64
150.54
169.69
189.98
212.78
238.59
266.93
296.36
324.63
348.99
366.69
375.64
375.06
365.70
349.54
328.96
305.97
281.62
256.06
229.01
200.40
170.88
141.76
114.66
90.93
71.15
55.09
42.07
31.43
23.16
17.91
16.54
19.40
25.67
33.47
40.57
45.46
48.09
49.74
52.17
56.49
62.53
68.91
73.88
76.16
75.44
72.28
67.55
61.83
55.22
47.44
38.28
28.06
17.96
9.89
5.97
7.78
15.45
27.34
40.31
50.79
55.94
54.64
47.67
37.11
25.38
14.27
4.50
-4.15
-12.41
-20.95
-30.05
-39.52
-48.78
-57.06
-63.64
-68.05
-70.21
-70.44
-69.47
-68.17
-67.47
-67.95
-69.55
-71.35
-71.56
-67.94
-58.56
-42.65
-21.07
3.69
28.26
49.46
65.19
74.80
78.82
78.26
74.02
66.75
57.05
45.90
34.78
25.37
19.04
16.36
16.97
19.83
23.72
27.58
30.80
33.19
34.71
35.42
35.33
34.40
32.55
29.79
26.25
22.29
18.52
15.69
14.48
15.28
18.08
22.38
27.46
32.52
36.94
40.33
42.62
43.87
44.20
43.66
42.20
39.67
35.96
31.08
25.27
18.97
12.73
6.98
1.96
-2.34
-6.14
-9.72
-13.32
-17.11
-21.11
-25.17
-28.82
-31.39
-32.09
-30.40
-26.24
-20.12
-12.89
-5.45
1.55
7.75
13.06
17.48
21.15
24.36
27.62
31.45
36.20
41.75
47.53
52.62
56.15
57.49
56.47
53.28
48.51
42.97
37.63
33.26
30.16
27.88
25.46
21.84
16.50
9.72
2.42
-4.44
-10.33
-15.44
-20.34
-25.51
-30.90
-35.91
-39.68
-41.55
-41.38
-39.57
-36.94
-34.47
-33.12
-33.62
-36.24
-40.58
-45.54
-49.56
-51.20
-49.75
-45.50
-39.60
-33.43
-28.03
-23.70
-20.22
-17.26
-14.83
-13.29
-13.00
-14.03
-15.85
-17.58
-18.19
-16.50
-11.11
-0.48
16.42
38.94
63.66
84.37
93.52
85.02
56.95
12.86
-38.91
-87.71
-123.51
-139.42
-132.88
-105.76
-63.56
-13.90
35.12
76.71
106.56
123.32
127.97
122.72
109.99
92.03
71.50
51.69
36.37
28.62
29.35
37.13
49.47
64.94
84.54
110.94
145.92
187.83
230.62
265.75
285.69
287.16
272.18
246.38
215.91
184.84
154.65
125.32
97.17
71.71
51.02
36.41
27.06
19.55
8.56
-11.33
-43.32
-86.25
-133.87
-176.36
-203.32
-207.33
-186.35
-144.04
-88.23
-28.33
26.79
69.99
96.17
102.54
89.17
59.60
20.73
-18.62
-50.35
-69.68
-76.52
-74.78
-70.04
-66.89
-67.07
-69.25
-70.25
-66.83
-57.23
-41.56
-21.43
0.82
22.66
41.55
55.19
62.01
61.83
56.30
48.22
40.15
32.59
23.16
7.53
-18.34
-55.70
-101.65
-149.93
-193.25
-226.03
-246.09
-254.52
-254.30
-248.47
-239.02
-226.85
-212.36
-196.08
-178.78
-161.06
-142.92
-123.62
-101.93
-77.08
-49.47
-20.99
5.25
25.93
38.76
43.34
41.40
36.14
31.13
29.13
31.44
37.74
46.52
55.79
63.78
69.44
72.72
74.38
75.67
77.87
81.96
88.60
98.18
110.87
126.45
143.91
161.17
175.61
185.17
189.77
191.98
196.44
207.80
228.26
256.04
285.60
309.74
322.44
320.85
305.73
280.15
247.57
210.25
169.02
123.86
75.01
23.62
-28.35
-78.76
-126.18
-170.21
-211.60
-251.73
-291.94
-333.28
-376.74
-423.49
-474.79
-531.13
-590.68
-648.32
-695.98
-724.80
-728.24
-704.74
-658.32
-596.89
-529.23
-462.01
-398.53
-339.19
-283.02
-229.08
-176.99
-126.49
-77.08
-27.82
22.16
72.92
123.66
173.11
220.27
265.43
310.20
356.76
406.27
457.23
504.83
541.51
558.98
550.66
513.88
451.12
370.11
282.59
201.88
139.81
103.72
94.70
107.80
134.19
164.24
190.09
206.92
212.77
207.95
194.59
176.62
159.71
150.38
153.94
172.47
203.73
242.08
280.78
314.30
339.54
355.45
361.93
358.92
346.29
324.50
295.08
260.55
223.63
186.28
149.26
112.44
75.62
39.17
4.20
-28.11
-57.40
-84.58
-111.60
-140.58
-172.83
-208.21
-245.39
-282.45
-317.93
-351.50
-384.12
-417.69
-454.70
-497.76
-548.87
-608.34
-673.56
-738.37
-793.86
-830.79
-842.76
-828.63
-792.86
-743.53
-689.08
-635.39
-584.83
-537.17
-491.48
-447.62
-406.40
-368.72
-334.44
-302.10
-269.52
-235.02
-198.32
-160.57
-123.96
-90.51
-61.17
-35.46
-11.77
11.93
37.15
64.31
92.67
120.82
147.35
171.50
193.38
213.87
234.22
255.75
279.60
306.45
336.18
367.46
397.58
422.80
439.31
444.48
437.87
421.38
398.40
372.52
346.34
321.00
296.57
272.83
249.92
228.48
209.43
193.76
182.40
176.44
177.18
185.81
202.95
228.18
259.69
294.42
328.65
358.61
381.15
394.11
396.55
388.76
372.25
349.59
324.02
298.87
276.77
258.93
244.77
231.93
217.08
196.87
169.18
134.06
93.96
53.27
17.26
-9.23
-23.10
-23.87
-14.05
1.51
17.12
28.44
34.06
35.84
37.61
42.59
51.13
59.89
63.46
57.43
41.32
19.54
-0.41
-11.41
-10.21
1.28
17.26
31.07
38.26
38.03
32.58
25.19
18.39
13.36
10.56
10.57
14.54
23.51
37.10
52.81
66.36
73.30
70.73
58.45
38.81
15.33
-9.06
-33.03
-56.99
-82.05
-108.68
-135.83
-160.88
-180.48
-191.86
-193.86
-187.41
-175.12
-160.38
-146.42
-135.67
-129.54
-128.59
-132.64
-140.98
-152.39
-165.24
-177.82
-188.70
-196.96
-202.21
-204.33
-203.21
-198.53
-189.81
-176.92
-160.72
-143.54
-128.99
-121.04
-122.71
-135.14
-157.30
-186.39
-218.65
-250.17
-277.17
-296.21
-304.42
-299.92
-282.22
-252.18
-211.75
-163.47
-110.40
-56.18
-5.09
38.56
71.52
92.87
104.39
109.73
112.66
115.40
118.14
119.67
118.80
115.48
110.84
106.43
103.14
100.74
98.21
94.72
90.28
85.92
83.16
83.20
86.21
91.25
96.60
100.51
101.71
99.71
94.58
86.68
76.30
63.74
49.29
33.47
16.93
0.43
-15.46
-30.56
-45.17
-60.13
-76.45
-94.88
-115.48
-137.34
-158.89
-178.41
-194.75
-207.70
-217.84
-226.18
-233.98
-242.86
-255.10
-273.53
-300.42
-335.82
-376.11
-413.85
-439.51
-444.64
-424.81
-381.15
-319.57
-248.34
-175.11
-104.84
-39.25
22.37
81.99
141.72
203.09
266.60
331.47
395.18
453.37
500.16
529.43
536.59
520.52
484.54
436.00
384.25
337.68
301.05
274.13
252.67
230.56
202.69
166.74
123.25
74.21
21.29
-35.06
-94.72
-156.22
-215.34
-265.26
-298.32
-308.69
-294.60
-258.91
-207.86
-148.73
-87.52
-27.68
29.65
84.32
135.54
180.97
216.63
238.10
241.99
227.53
197.11
155.89
110.41
66.64
28.83
-1.27
-24.11
-41.79
-57.09
-72.48
-88.94
-105.10
-116.84
-117.76
-101.04
-62.24
-2.06
72.27
148.29
212.01
252.69
266.21
255.83
229.52
195.86
160.52
124.99
87.75
46.66
1.06
-47.40
-95.03
-136.78
-167.15
-181.19
-176.05
-152.63
-116.75
-78.13
-47.60
-33.28
-37.84
-58.34
-88.65
-122.93
-158.12
-193.94
-230.94
-268.18
-302.24
-328.35
-342.69
-344.39
-336.13
-322.56
-308.14
-295.19
-283.52
-271.31
-256.75
-239.36
-220.27
-201.61
-185.29
-172.00
-160.86
-149.84
-136.73
-120.15
-100.20
-78.43
-57.24
-39.00
-25.18
-15.92
-10.18
-6.28
-2.64
1.59
6.31
10.77
14.08
15.75
15.93
15.27
14.50
14.08
14.05
14.06
13.72
12.73
10.97
8.44
5.10
0.98
-3.73
-8.54
-12.69
-15.24
-15.35
-12.52
-6.74
1.56
11.57
22.37
33.04
42.85
51.24
57.85
62.40
64.77
64.87
62.85
59.08
54.21
49.09
44.52
40.98
38.52
36.76
35.01
32.59
29.00
24.09
18.09
11.50
4.92
-1.14
-6.43
-11.00
-15.09
-18.96
-22.64
-25.92
-28.51
-30.20
-31.12
-31.64
-32.29
-33.41
-35.03
-36.90
-38.56
-39.56
-39.46
-37.88
-34.48
-29.01
-21.53
-12.43
-2.22
8.80
20.99
35.25
52.62
73.58
97.47
122.47
145.97
165.33
178.52
184.45
183.10
175.54
163.68
150.03
136.90
125.72
116.37
107.32
96.48
82.55
66.04
49.32
35.58
27.31
25.17
27.76
32.48
36.81
39.26
39.67
38.67
37.00
35.13
33.24
31.62
30.97
32.25
36.23
42.92
51.37
59.97
67.18
72.21
75.25
77.32
79.58
82.74
86.70
90.70
93.74
95.17
94.92
93.44
91.29
88.70
85.35
80.49
73.27
63.20
50.40
35.76
20.83
7.57
-2.01
-6.38
-4.96
1.51
10.94
20.38
26.93
28.67
25.28
17.99
8.86
-0.28
-8.60
-16.46
-24.88
-34.79
-46.37
-58.94
-71.26
-81.96
-89.94
-94.37
-94.63
-90.25
-81.12
-67.59
-50.66
-31.75
-12.39
6.15
23.03
37.76
50.13
60.06
67.61
73.13
77.09
80.01
82.21
83.74
84.43
84.10
82.83
81.07
79.70
79.80
82.52
88.67
98.62
112.16
128.53
146.67
165.35
183.53
200.58
216.35
230.96
244.42
256.21
265.17
269.58
267.63
257.88
239.79
214.02
182.67
149.15
117.73
92.81
78.04
75.47
84.92
103.91
128.04
151.97
170.63
180.45
180.08
170.66
