1605522674.00
64.000000
-0.00
-0.00
-0.00
-0.00
-0.00
-0.00
-0.00
-0.00
-0.00
-0.00
0.00
0.01
0.01
-0.00
-0.03
-0.05
-0.05
0.00
0.13
0.36
0.66
1.01
1.37
1.72
2.06
2.40
2.79
3.24
3.80
4.42
5.06
5.67
6.20
6.68
7.15
7.68
8.31
9.14
10.08
11.04
11.90
12.61
13.20
13.81
14.63
15.80
17.56
19.73
22.10
24.40
26.49
28.42
30.48
33.05
36.41
40.96
46.37
52.17
57.81
62.94
67.58
72.14
77.22
83.28
90.90
99.63
108.83
117.70
125.68
132.71
139.19
146.23
152.40
160.02
169.91
182.49
196.83
210.07
217.68
214.58
196.92
163.57
116.99
61.46
1.93
-57.83
-116.11
-173.01
-229.35
-285.63
-341.45
-395.26
-445.49
-490.52
-528.98
-559.69
-581.50
-593.36
-594.41
-584.48
-564.07
-534.68
-497.82
-454.17
-403.14
-343.18
-273.05
-193.29
-107.07
-19.78
62.25
133.76
191.80
235.96
267.53
288.42
300.27
304.31
301.71
293.84
282.43
269.23
255.59
242.14
228.86
215.29
200.96
185.71
169.83
153.96
138.85
125.10
112.92
102.13
92.23
82.72
73.25
63.78
54.63
46.24
38.98
32.94
27.88
23.37
19.00
14.62
10.22
5.97
2.12
-1.13
-3.69
-5.55
-6.72
-7.19
-6.93
-6.04
-4.70
-3.21
-1.92
-1.10
-0.88
-1.26
-2.13
-3.37
-4.84
-6.39
-7.80
-8.83
-9.28
-9.08
-8.35
-7.35
-6.35
-5.58
-5.15
-5.00
-4.98
-4.87
-4.48
-3.77
-2.86
-2.05
-1.65
-1.85
-2.60
-3.59
-4.43
-4.83
-4.73
-4.29
-3.77
-3.37
-3.16
-3.10
-3.13
-3.25
-3.46
-3.70
-3.77
-3.40
-2.36
-0.61
1.62
3.85
5.55
6.36
6.18
5.21
3.80
2.29
0.89
-0.32
-1.32
-2.07
-2.48
-2.48
-2.09
-1.42
-0.70
-0.16
0.11
0.17
0.20
0.41
0.89
1.59
2.31
2.85
3.09
3.05
2.83
2.60
2.47
2.46
2.52
2.53
2.37
1.91
1.08
-0.16
-1.75
-3.48
-5.05
-6.11
-6.38
-5.75
-4.36
-2.54
-0.74
0.68
1.48
1.61
1.17
0.35
-0.71
-1.90
-3.10
-4.24
-5.16
-5.73
-5.83
-5.46
-4.69
-3.75
-2.88
-2.28
-2.04
-2.11
-2.32
-2.48
-2.48
-2.30
-2.09
-2.01
-2.18
-2.60
-3.13
-3.56
-3.75
-3.69
-3.46
-3.26
-3.28
-3.61
-4.25
-5.04
-5.70
-5.92
-5.41
-4.04
-1.84
0.95
3.93
6.66
8.80
10.14
10.63
10.37
9.55
8.41
7.16
6.00
4.94
4.06
3.40
2.94
2.62
2.34
2.03
1.63
1.14
0.63
0.20
-0.06
-0.14
-0.14
-0.23
-0.58
-1.30
-2.34
-3.53
-4.67
-5.59
-6.22
-6.68
-7.12
-7.73
-8.64
-9.85
-11.29
-12.76
-13.99
-14.67
-14.44
-12.96
-10.09
-5.89
-0.79
4.59
9.53
13.47
16.11
17.46
17.75
17.26
16.23
14.80
13.12
11.32
9.61
8.15
7.01
6.14
5.40
4.63
3.77
2.86
2.00
1.28
0.70
0.13
-0.59
-1.63
-3.04
-4.71
-6.41
-7.89
-8.97
-9.60
-9.92
-10.14
-10.55
-11.35
-12.60
-14.14
-15.59
-16.43
-16.11
-14.29
-10.93
-6.37
-1.21
3.88
8.36
11.89
14.40
15.92
16.54
16.34
15.44
14.00
12.26
10.51
9.01
7.92
7.24
6.87
6.64
6.41
6.10
5.75
5.38
5.00
4.52
3.82
2.79
1.45
-0.08
-1.59
-2.92
-3.99
-4.80
-5.45
-6.01
-6.59
-7.30
-8.27
-9.55
-11.07
-12.52
-13.43
-13.29
-11.73
-8.73
-4.59
0.11
4.78
8.91
12.18
14.47
15.74
15.99
15.29
13.76
11.63
9.23
6.95
5.08
3.74
2.88
2.26
1.63
0.83
-0.16
-1.23
-2.24
-3.10
-3.81
-4.46
-5.20
-6.12
-7.25
-8.56
-9.93
-11.22
-12.26
-12.96
-13.33
-13.50
-13.73
-14.27
-15.27
-16.65
-18.05
-18.99
-18.93
-17.56
-14.82
-10.96
-6.43
-1.72
2.73
6.63
9.79
12.11
13.54
14.07
13.80
12.89
11.62
10.30
9.22
8.55
8.31
8.37
8.52
8.54
8.27
7.67
6.85
5.96
5.12
4.36
3.57
2.56
1.17
-0.61
-2.60
-4.51
-6.05
-7.11
-7.79
-8.38
-9.19
-10.47
-12.25
-14.37
-16.50
-18.22
-19.11
-18.75
-16.94
-13.65
-9.19
-4.03
1.21
6.03
10.06
13.17
15.36
16.65
17.07
16.63
15.44
13.71
11.79
10.08
8.89
8.33
8.30
8.52
8.69
8.58
8.13
7.45
6.70
5.99
5.31
4.52
3.44
1.99
0.17
-1.83
-3.78
-5.49
-6.87
-7.96
-8.89
-9.79
-10.81
-12.03
-13.46
-14.97
-16.31
-17.05
-16.78
-15.22
-12.35
-8.44
-4.02
0.37
4.27
7.42
9.72
11.18
11.84
11.75
11.02
9.81
8.38
6.96
5.77
4.93
4.44
4.21
4.10
3.98
3.75
3.40
2.96
2.51
2.07
1.60
1.00
0.17
-0.90
-2.14
-3.37
-4.42
-5.23
-5.87
-6.56
-7.52
-8.92
-10.78
-12.94
-15.07
-16.71
-17.39
-16.74
-14.57
-11.00
-6.37
-1.24
3.82
8.35
12.05
14.80
16.59
17.47
17.50
16.78
15.48
13.81
12.02
10.33
8.88
7.75
6.89
6.21
5.57
4.90
4.14
3.33
2.52
1.71
0.86
-0.12
-1.31
-2.71
-4.20
-5.62
-6.84
-7.81
-8.63
-9.46
-10.48
-11.83
-13.53
-15.45
-17.29
-18.60
-18.86
-17.67
-14.91
-10.82
-5.90
-0.78
4.01
8.19
11.65
14.38
16.33
17.37
17.38
16.36
14.54
12.31
10.17
8.50
7.47
6.97
6.73
6.42
5.82
4.93
3.88
2.87
2.03
1.30
0.50
-0.61
-2.15
-4.09
-6.21
-8.24
-9.99
-11.38
-12.47
-13.43
-14.41
-15.54
-16.94
-18.61
-20.48
-22.30
-23.66
-24.04
-23.04
-20.43
-16.38
-11.37
-6.07
-1.09
3.17
6.60
9.25
11.14
12.20
12.20
10.96
8.50
5.13
1.46
-1.89
-4.43
-5.98
-6.63
-6.62
-6.16
-5.41
-4.42
-3.27
-2.06
-0.98
-0.24
0.01
-0.29
-1.07
-2.19
-3.43
-4.62
-5.63
-6.43
-7.05
-7.60
-8.22
-9.06
-10.22
-11.68
-13.23
-14.45
-14.80
-13.83
-11.35
-7.56
-3.01
1.58
5.51
8.31
9.77
9.94
9.02
7.29
5.09
2.76
0.64
-0.96
-1.85
-1.95
-1.29
-0.02
1.71
3.72
5.86
7.97
9.95
11.68
13.04
13.92
14.26
14.05
13.36
12.31
11.09
9.88
8.84
8.07
7.61
7.40
7.35
7.33
7.22
6.96
6.51
5.85
5.03
4.17
3.49
3.30
3.89
5.35
7.52
9.98
12.25
13.94
14.90
15.19
14.94
14.24
13.06
11.34
9.10
6.49
3.76
1.23
-0.88
-2.49
-3.64
-4.43
-5.00
-5.47
-5.98
-6.60
-7.34
-8.15
-8.93
-9.62
-10.23
-10.84
-11.54
-12.34
-13.14
-13.73
-13.89
-13.51
-12.60
-11.30
-9.82
-8.32
-6.92
-5.67
-4.61
-3.73
-2.92
-1.90
-0.29
2.33
6.17
11.09
16.53
21.69
25.74
28.12
28.71
27.78
25.91
23.70
21.66
20.09
19.11
18.71
18.74
18.97
19.10
18.84
17.94
16.32
14.06
11.43
8.74
6.24
4.05
2.09
0.18
-1.89
-4.21
-6.71
-9.19
-11.39
-13.14
-14.39
-15.20
-15.72
-16.11
-16.48
-16.90
-17.36
-17.73
-17.74
-17.03
-15.23
-12.19
-8.08
-3.39
1.18
5.03
7.81
9.57
10.58
11.18
11.59
11.84
11.91
11.76
11.44
11.03
10.59
10.08
9.40
8.49
7.39
6.24
5.18
4.28
3.48
2.56
1.30
-0.44
-2.72
-5.45
-8.48
-11.64
-14.75
-17.60
-20.06
-22.03
-23.54
-24.71
-25.72
-26.65
-27.43
-27.75
-27.16
-25.20
-21.62
-16.53
-10.41
-3.98
2.06
7.21
11.24
14.24
16.40
17.91
18.91
19.45
19.58
19.36
18.88
18.24
17.47
16.55
15.41
14.03
12.44
10.76
9.14
7.68
6.38
5.15
3.77
2.06
-0.08
-2.58
-5.22
-7.70
-9.80
-11.41
-12.60
-13.61
-14.77
-16.38
-18.62
-21.48
-24.71
-27.84
-30.35
-31.75
-31.79
-30.48
-28.10
-25.07
-21.81
-18.64
-15.76
-13.25
-11.17
-9.53
-8.34
-7.49
-6.84
-6.18
-5.28
-3.98
-2.22
-0.09
2.23
4.50
6.51
8.17
9.53
10.71
11.85
13.00
14.09
14.93
15.37
15.30
14.75
13.81
12.61
11.20
9.60
7.81
5.81
3.65
1.41
-0.84
-2.99
-4.89
-6.37
-7.16
-7.00
-5.73
-3.37
-0.20
3.35
6.80
9.75
11.96
13.40
14.11
14.20
13.74
12.84
11.64
10.27
8.94
7.77
6.85
6.16
5.67
5.33
5.08
4.89
4.71
4.49
4.17
3.69
2.97
1.96
0.67
-0.84
-2.41
-3.82
-4.88
-5.49
-5.73
-5.80
-6.01
-6.61
-7.70
-9.23
-11.00
-12.68
-13.87
-14.17
-13.24
-10.94
-7.41
-3.04
1.62
5.96
9.55
12.15
13.71
14.32
14.14
13.39
12.35
11.29
10.45
9.94
9.73
9.66
9.57
9.35
9.00
8.60
8.24
7.94
7.66
7.32
6.84
6.20
5.39
4.39
3.21
1.81
0.27
-1.33
-2.85
-4.21
-5.42
-6.59
-7.89
-9.45
-11.28
-13.19
-14.83
-15.77
-15.64
-14.23
-11.60
-8.05
-4.03
-0.00
3.64
6.68
8.99
10.51
11.21
11.08
10.15
8.60
6.70
4.77
3.12
1.88
1.06
0.57
0.26
0.02
-0.20
-0.42
-0.65
-0.97
-1.47
-2.24
-3.28
-4.48
-5.64
-6.53
-7.04
-7.19
-7.15
-7.09
-7.19
-7.53
-8.11
-8.94
-10.00
-11.23
-12.41
-13.19
-13.17
-12.03
-9.73
-6.48
-2.67
1.29
5.07
8.52
11.52
13.93
15.60
16.36
16.19
15.20
13.63
11.78
9.92
8.26
6.93
5.99
5.44
5.22
5.18
5.15
4.94
4.41
3.49
2.15
0.48
-1.40
-3.34
-5.22
-6.97
-8.56
-10.02
-11.38
-12.65
-13.90
-15.16
-16.48
-17.81
-18.94
-19.53
-19.18
-17.58
-14.69
-10.78
-6.32
-1.83
2.21
5.56
8.07
9.70
10.48
10.45
9.73
8.52
7.08
5.72
4.66
4.01
3.74
3.70
3.71
3.63
3.42
3.14
2.84
2.52
2.09
1.37
0.27
-1.17
-2.75
-4.20
-5.34
-6.14
-6.73
-7.29
-7.97
-8.85
-9.91
-11.10
-12.35
-13.46
-14.14
-14.01
-12.74
-10.21
-6.59
-2.34
1.97
5.86
9.03
11.40
13.01
13.94
14.26
14.04
13.39
12.48
11.44
10.40
9.42
8.55
7.83
7.31
7.02
6.99
7.13
7.32
7.40
7.23
6.67
5.65
4.20
2.45
0.60
-1.07
-2.35
-3.18
-3.65
-4.03
-4.60
-5.60
-7.11
-9.04
-11.14
-13.05
-14.32
-14.50
-13.31
-10.68
-6.85
-2.32
2.29
6.45
9.79
12.19
13.63
14.15
13.80
12.66
10.93
8.94
7.07
5.61
4.65
4.09
3.72
3.33
2.87
2.38
1.94
1.61
1.34
1.02
0.54
-0.19
-1.15
-2.31
-3.59
-4.90
-6.14
-7.20
-8.00
-8.56
-8.94
-9.34
-9.95
-10.94
-12.33
-13.93
-15.38
-16.17
-15.88
-14.26
-11.34
-7.43
-3.02
1.41
5.44
8.80
11.34
13.00
13.71
13.48
12.40
10.69
8.68
6.72
5.11
3.99
3.33
2.96
2.66
2.28
1.80
1.30
0.91
0.73
0.71
0.74
0.61
0.13
-0.77
-2.05
-3.55
-5.03
-6.28
-7.14
-7.58
-7.67
-7.58
-7.52
-7.73
-8.38
-9.52
-11.01
-12.49
-13.42
-13.30
-11.77
-8.83
-4.80
-0.23
4.24
8.14
11.17
13.28
14.49
14.90
14.58
13.58
12.04
10.20
8.37
6.88
5.94
5.59
5.63
5.76
5.68
5.26
4.54
3.70
2.92
2.27
1.71
1.13
0.40
-0.56
-1.75
-3.12
-4.59
-6.05
-7.36
-8.43
-9.26
-9.91
-10.56
-11.42
-12.58
-13.99
-15.38
-16.35
-16.48
-15.44
-13.16
-9.77
-5.63
-1.18
3.11
6.87
9.79
11.73
12.62
12.50
11.55
10.01
8.20
6.46
5.06
4.13
3.66
3.55
3.64
3.79
3.95
4.07
4.12
4.03
3.67
2.95
1.81
0.34
-1.27
-2.79
-4.01
-4.83
-5.29
-5.53
-5.79
-6.27
-7.14
-8.46
-10.11
-11.85
-13.33
-14.14
-13.93
-12.45
-9.71
-5.96
-1.65
2.70
6.60
9.78
12.11
13.67
14.55
14.86
14.64
13.96
12.90
11.61
10.26
8.99
7.89
6.97
6.21
5.59
5.10
4.73
4.43
4.13
3.71
3.04
2.05
0.74
-0.76
-2.25
-3.55
-4.56
-5.29
-5.87
-6.46
-7.22
-8.25
-9.54
-10.99
-12.43
-13.58
-14.09
-13.63
-11.95
-8.99
-4.98
-0.37
4.27
8.39
11.61
13.77
14.94
15.26
14.92
14.03
12.68
10.98
9.07
7.20
5.57
4.33
3.44
2.77
2.12
1.39
0.57
-0.24
-0.98
-1.68
-2.51
-3.65
-5.15
-6.90
-8.64
-10.11
-11.18
-11.90
-12.46
-13.05
-13.81
-14.74
-15.79
-16.84
-17.71
-18.17
-17.89
-16.59
-14.14
-10.66
-6.52
-2.22
1.78
5.18
7.92
9.99
11.43
12.20
12.37
12.14
11.95
12.42
14.05
17.09
21.37
26.31
31.17
35.25
38.05
39.27
38.79
36.55
32.59
27.04
20.25
12.81
5.41
-1.25
-6.63
-10.54
-13.04
-14.45
-15.22
-15.82
-16.66
-18.04
-20.05
-22.56
-25.13
-27.20
-28.22
-27.81
-25.87
-22.61
-18.41
-13.68
-8.78
-4.00
0.39
4.10
6.83
8.36
8.67
7.93
6.57
5.06
3.88
3.29
3.38
4.03
5.02
6.14
7.20
8.11
8.77
9.11
9.02
8.40
7.18
5.38
3.14
0.66
-1.81
-4.03
-5.89
-7.39
-8.65
-9.85
-11.22
-12.94
-15.07
-17.54
-20.04
-22.09
-23.13
-22.66
-20.50
-16.81
-12.08
-6.98
-2.14
2.00
5.28
7.69
9.35
10.31
10.62
10.31
9.48
8.35
7.22
6.39
6.02
6.09
6.39
6.63
6.52
5.97
5.02
3.90
2.79
1.81
0.94
0.04
-1.03
-2.32
-3.75
-5.15
-6.36
-7.25
-7.86
-8.30
-8.78
-9.47
-10.47
-11.75
-13.12
-14.27
-14.80
-14.32
-12.58
-9.56
-5.49
-0.79
3.99
8.34
11.86
14.32
15.70
16.12
15.79
14.92
13.74
12.45
11.22
10.20
9.56
9.39
9.72
10.39
11.12
11.70
11.95
11.82
11.34
10.63
9.85
9.18
8.71
8.49
8.54
8.75
8.82
8.38
7.15
5.18
2.79
0.47
-1.27
-1.96
-1.42
0.25
2.69
5.49
8.33
10.96
13.21
14.53
14.86
14.76
14.96
15.62
16.17
15.95
15.17
14.48
15.02
17.87
23.30
30.43
37.59
42.58
43.82
40.72
33.62
23.52
11.73
-0.61
-12.58
-23.41
-32.30
-38.39
-40.98
-39.79
-35.06
-27.49
-18.25
-8.82
-0.89
3.83
3.80
-2.17
-14.58
-32.87
-55.11
-78.00
-97.49
-109.69
-112.09
-104.26
-87.92
-66.30
-42.93
-20.71
-1.47
13.83
24.65
30.54
31.17
26.69
18.07
7.06
-4.18
-13.79
-20.70
-24.89
-27.14
-28.49
-29.76
-31.18
-32.43
-32.91
-32.11
-29.93
-26.72
-23.18
-20.04
-17.76
-16.37
-15.55
-14.82
-13.80
-12.38
-10.76
-9.29
-8.34
-8.11
-8.57
-9.45
-10.35
-10.85
-10.67
-9.74
-8.12
-5.95
-3.26
0.06
4.24
9.36
15.26
21.39
26.98
31.31
33.96
34.93
34.55
33.32
31.76
30.29
29.25
28.85
29.11
29.83
30.66
31.20
31.19
30.55
29.34
27.66
25.55
23.02
20.16
17.16
14.34
11.96
10.07
8.43
6.57
4.03
0.54
-3.90
-8.95
-14.08
-18.61
-21.85
-23.24
-22.51
-19.71
-15.33
-10.07
-4.79
-0.29
2.85
4.40
4.50
3.67
2.75
2.63
4.04
7.33
12.35
18.55
25.21
31.67
37.44
42.26
45.99
48.59
50.00
50.21
49.20
47.00
43.65
39.29
34.18
28.71
23.39
18.70
14.98
12.31
10.49
9.11
7.64
5.52
2.30
-2.28
-8.19
-15.03
-21.98
-27.96
-31.97
-33.37
-32.16
-28.93
-24.64
-20.28
-16.54
-13.77
-11.98
-10.99
-10.50
-10.20
-9.78
-8.95
-7.60
-5.76
-3.64
-1.48
0.53
2.36
4.16
6.09
8.27
10.63
12.90
14.59
15.17
14.24
11.71
7.83
3.21
-1.43
-5.47
-8.53
-10.61
-11.98
-13.00
-13.97
-15.01
-16.01
-16.75
-16.99
-16.55
-15.35
-13.41
-10.82
-7.77
-4.55
-1.51
0.93
2.49
3.01
2.63
1.64
0.47
-0.47
-0.89
-0.67
0.20
1.60
3.36
5.26
7.10
8.65
9.78
10.42
10.60
10.47
10.18
9.82
9.44
8.96
8.31
7.47
6.44
5.29
4.04
2.70
1.25
-0.30
-1.78
-2.97
-3.58
-3.41
-2.39
-0.60
1.82
4.64
7.67
10.66
13.38
15.61
17.24
18.27
18.90
19.38
19.86
20.30
20.47
20.10
19.04
17.42
15.60
14.05
13.16
13.18
14.19
16.19
19.12
22.93
27.50
32.57
37.74
42.36
45.65
46.77
45.07
40.31
32.78
23.23
12.63
1.87
-8.35
-17.49
-24.95
-29.99
-31.84
-30.08
-25.02
-17.82
-10.23
-3.96
-0.04
1.43
1.16
0.17
-0.76
-1.47
-2.37
-4.04
-6.82
-10.50
-14.33
-17.35
-18.87
-18.78
-17.61
-16.27
-15.71
-16.56
-18.96
-22.65
-27.09
-31.66
-35.79
-39.02
-41.08
-41.90
-41.58
-40.36
-38.53
-36.37
-34.15
-32.19
-30.80
-30.26
-30.67
-31.77
-33.00
-33.63
-33.02
-30.91
-27.47
-23.21
-18.75
-14.63
-11.18
-8.56
-6.82
-5.97
-5.92
-6.56
-7.69
-9.07
-10.47
-11.66
-12.49
-12.85
-12.68
-11.99
-10.85
-9.35
-7.61
-5.70
-3.73
-1.80
-0.07
1.29
2.12
2.32
1.93
1.07
-0.09
-1.36
-2.62
-3.77
-4.81
-5.83
-6.89
-8.06
-9.29
-10.42
-11.18
-11.30
-10.60
-9.03
-6.70
-3.78
-0.43
3.18
6.93
10.64
14.07
16.90
18.91
19.98
20.18
19.76
19.04
18.36
17.98
17.97
18.28
18.71
19.04
19.07
18.74
18.08
17.17
16.08
14.84
13.40
11.72
9.79
7.69
5.53
3.44
1.47
-0.39
-2.25
-4.28
-6.61
-9.28
-12.10
-14.68
-16.53
-17.18
-16.39
-14.19
-10.89
-6.94
-2.85
0.94
4.10
6.44
7.92
8.66
8.93
9.06
9.31
9.80
10.45
11.11
11.66
12.08
12.42
12.76
13.12
13.41
13.47
13.18
12.49
11.43
10.12
8.69
7.25
5.85
4.54
3.30
2.06
0.73
-0.81
-2.68
-4.92
-7.49
-10.17
-12.61
-14.32
-14.81
-13.74
-11.09
-7.16
-2.57
2.00
5.93
8.88
10.76
11.68
11.82
11.41
10.63
9.66
8.68
7.78
7.01
6.34
5.68
4.98
4.19
3.36
2.56
1.86
1.33
0.95
0.65
0.26
-0.37
-1.32
-2.57
-3.97
-5.28
-6.36
-7.19
-7.97
-8.97
-10.42
-12.34
-14.44
-16.20
-17.07
-16.65
-14.84
-11.89
-8.24
-4.41
-0.79
2.36
4.92
6.81
7.96
8.29
7.77
6.54
4.88
3.20
1.90
1.26
1.33
1.94
2.77
3.50
3.93
4.00
3.76
3.29
2.65
1.85
0.88
-0.24
-1.54
-3.02
-4.75
-6.78
-9.12
-11.62
-14.06
-16.18
-17.77
-18.69
-18.83
-18.07
-16.26
-13.29
-9.21
-4.31
0.92
5.95
10.39
14.14
17.32
20.21
23.02
25.80
28.48
30.91
32.98
34.65
35.93
36.84
37.37
37.49
37.21
36.53
35.43
33.82
31.46
28.09
23.46
17.53
10.51
2.85
-4.84
-11.96
-18.02
-22.75
-26.10
-28.22
-29.36
-29.77
-29.61
-28.83
-27.27
-24.73
-21.09
-16.44
-11.06
-5.37
0.22
5.35
9.74
13.25
15.78
17.30
17.85
17.55
16.56
15.13
13.53
12.05
10.93
10.37
10.34
10.64
10.96
10.95
10.40
9.25
7.58
5.44
2.81
-0.45
-4.47
-9.24
-14.52
-19.91
-24.98
-29.41
-33.14
-36.31
-39.16
-41.93
-44.71
-47.37
-49.59
-50.94
-50.98
-49.41
-46.22
-41.69
-36.33
-30.72
-25.39
-20.65
-16.62
-13.26
-10.49
-8.18
-6.24
-4.53
-2.92
-1.21
0.75
3.06
5.70
8.58
11.54
14.41
17.01
19.23
21.00
22.26
23.00
23.21
22.95
22.34
21.56
20.80
20.21
19.81
19.50
19.09
18.31
16.98
14.99
12.43
9.58
6.83
4.63
3.35
3.18
4.09
5.78
7.81
9.74
11.19
11.94
11.89
11.06
9.53
7.38
4.74
1.77
-1.34
-4.39
-7.11
-9.25
-10.64
-11.17
-10.88
-9.91
-8.48
-6.86
-5.28
-3.93
-2.95
-2.39
-2.26
-2.49
-3.01
-3.67
-4.34
-4.87
-5.16
-5.20
-5.06
-4.91
-4.95
-5.27
-5.83
-6.39
-6.60
-6.11
-4.66
-2.17
1.23
5.25
9.49
13.54
17.00
19.58
21.13
21.61
21.13
19.86
18.02
15.88
13.73
11.86
10.52
9.84
9.81
10.22
10.77
11.11
10.95
10.14
8.70
6.78
4.61
2.38
0.24
-1.74
-3.55
-5.17
-6.59
-7.80
-8.81
-9.71
-10.63
-11.74
-13.18
-14.93
-16.79
-18.36
-19.11
-18.58
-16.55
-13.12
-8.74
-4.00
0.49
4.26
7.05
8.81
9.54
9.36
8.40
6.90
5.15
3.46
2.11
1.24
0.88
0.93
1.21
1.57
1.85
1.97
1.90
1.66
1.31
0.87
0.35
-0.26
-0.99
-1.81
-2.64
-3.39
-3.97
-4.39
-4.78
-5.30
-6.12
-7.31
-8.77
-10.29
-11.53
-12.13
-11.80
-10.32
-7.69
-4.11
0.04
4.25
8.00
10.90
12.77
13.63
13.64
13.00
11.91
10.55
9.09
7.70
6.56
5.78
5.37
5.27
5.34
5.47
5.63
5.83
6.13
6.54
6.94
7.12
6.77
5.64
3.64
0.92
-2.20
-5.28
-8.00
-10.19
-11.93
-13.42
-14.88
-16.49
-18.34
-20.37
-22.45
-24.34
-25.67
-26.01
-25.00
-22.46
-18.52
-13.66
-8.57
-3.92
-0.22
2.29
3.65
4.04
3.73
3.00
2.14
1.41
1.03
1.17
1.89
3.13
4.73
6.47
8.11
9.47
10.45
11.02
11.25
11.21
10.97
10.54
9.89
8.98
7.80
6.38
4.83
3.28
1.85
0.63
-0.36
-1.21
-2.06
-3.09
-4.45
-6.16
-8.11
-10.00
-11.40
-11.87
-11.05
-8.81
-5.27
-0.83
3.92
8.35
11.90
14.23
15.24
15.06
13.94
12.19
10.13
8.05
6.19
4.77
3.94
3.70
3.95
4.46
4.95
5.22
5.19
4.91
4.54
4.22
3.98
3.76
3.38
2.67
1.48
-0.21
-2.31
-4.59
-6.79
-8.66
-10.04
-10.95
-11.55
-12.13
-12.97
-14.25
-15.96
-17.83
-19.36
-19.99
-19.22
-16.81
-12.85
-7.78
-2.29
2.91
7.24
10.39
12.31
13.13
13.03
12.17
10.71
8.84
6.86
5.13
3.98
3.57
3.79
4.34
4.79
4.84
4.40
3.64
2.86
2.33
2.13
2.08
1.86
1.19
-0.04
-1.73
-3.59
-5.31
-6.69
-7.68
-8.36
-8.86
-9.32
-9.87
-10.59
-11.57
-12.78
-14.08
-15.15
-15.56
-14.89
-12.91
-9.62
-5.33
-0.54
4.19
8.35
11.56
13.61
14.44
14.11
12.87
11.01
8.94
6.97
5.36
4.22
3.54
3.27
3.27
3.44
3.67
3.89
4.06
4.17
4.16
3.95
3.43
2.46
1.01
-0.84
-2.85
-4.72
-6.18
-7.08
-7.45
-7.49
-7.50
-7.76
-8.46
-9.67
-11.25
-12.88
-14.12
-14.51
-13.67
-11.47
-8.04
-3.74
0.94
5.47
9.42
12.45
14.38
15.10
14.66
13.29
11.37
9.35
7.62
6.42
5.76
5.46
5.33
5.22
5.12
5.06
5.09
5.24
5.44
5.59
5.57
5.25
4.52
3.31
1.67
-0.23
-2.11
-3.71
-4.87
-5.63
-6.17
-6.81
-7.78
-9.22
-11.02
-12.89
-14.39
-15.05
-14.52
-12.63
-9.49
-5.41
-0.82
3.82
8.15
11.89
14.85
16.89
17.90
17.88
16.94
15.32
13.33
11.33
9.61
8.36
7.64
7.35
7.32
7.31
7.16
6.76
6.12
5.29
4.36
3.35
2.28
1.13
-0.09
-1.33
-2.51
-3.55
-4.40
-5.11
-5.77
-6.54
-7.58
-9.00
-10.82
-12.95
-15.11
-16.92
-17.87
-17.53
-15.66
-12.33
-7.91
-2.98
1.86
6.13
9.57
12.04
13.48
13.81
13.00
11.13
8.48
5.52
2.80
0.80
-0.25
-0.37
0.16
0.97
1.76
2.30
2.56
2.57
2.39
2.03
1.43
0.48
-0.89
-2.68
-4.74
-6.84
-8.77
-10.39
-11.69
-12.76
-13.69
-14.54
-15.31
-16.01
-16.69
-17.37
-18.03
-18.49
-18.36
-17.19
-14.60
-10.54
-5.33
0.39
5.84
10.41
13.72
15.69
16.44
16.16
15.01
13.20
10.93
8.54
6.43
4.97
4.36
4.55
5.25
6.05
6.59
6.71
6.43
5.90
5.30
4.72
4.16
3.56
2.86
2.09
1.27
0.43
-0.43
-1.37
-2.37
-3.37
-4.25
-4.89
-5.27
-5.57
-6.05
-7.01
-8.62
-10.78
-13.15
-15.26
-16.64
-16.98
-16.20
-14.37
-11.72
-8.51
-5.06
-1.70
1.24
3.49
4.82
5.14
4.48
2.99
0.96
-1.29
-3.42
-5.14
-6.22
-6.55
-6.14
-5.14
-3.79
-2.42
-1.34
-0.78
-0.80
-1.28
-1.96
-2.55
-2.84
-2.83
-2.61
-2.37
-2.20
-2.14
-2.13
-2.14
-2.20
-2.37
-2.71
-3.20
-3.73
-4.11
-4.14
-3.69
-2.64
-0.95
1.40
4.34
7.73
11.31
14.76
17.74
19.98
21.29
21.56
20.80
19.13
16.84
14.35
12.16
10.71
10.25
10.82
12.22
14.10
16.08
17.79
18.97
19.48
19.33
18.64
17.61
16.41
15.13
13.71
12.08
10.19
8.12
6.01
4.05
2.31
0.69
-1.01
-3.01
-5.45
-8.31
-11.45
-14.60
-17.44
-19.61
-20.78
-20.75
-19.49
-17.16
-14.10
-10.75
-7.50
-4.63
-2.27
-0.41
1.04
2.20
3.17
4.04
4.91
5.92
7.18
8.75
10.64
12.78
15.04
17.33
19.58
21.78
23.93
25.92
27.56
28.59
28.71
27.71
25.49
22.13
17.78
12.70
7.12
1.29
-4.64
-10.54
-16.33
-21.94
-27.33
-32.39
-36.96
-40.80
-43.56
-44.91
-44.55
-42.40
-38.67
-33.82
-28.49
-23.25
-18.49
-14.35
-10.84
-7.97
-5.80
-4.41
-3.79
-3.71
-3.77
-3.49
-2.52
-0.75
1.63
4.28
6.81
8.91
10.38
11.13
11.20
10.73
9.93
9.03
8.20
7.51
6.92
6.35
5.78
5.25
4.87
4.73
4.83
5.07
5.25
5.18
4.78
4.08
3.22
2.41
1.83
1.69
2.16
3.42
5.57
8.58
12.21
16.02
19.47
22.10
23.64
24.06
23.49
22.13
20.17
17.73
14.92
11.87
8.73
5.66
2.79
0.19
-2.12
-4.16
-5.89
-7.29
-8.28
-8.83
-8.92
-8.62
-8.09
-7.56
-7.33
-7.61
-8.52
-9.98
-11.79
-13.63
-15.27
-16.54
-17.47
-18.16
-18.76
-19.34
-19.90
-20.30
-20.27
-19.54
-17.88
-15.23
-11.80
-8.04
-4.49
-1.64
0.25
1.22
1.53
1.49
1.36
1.15
0.79
0.18
-0.69
-1.64
-2.36
-2.61
-2.29
-1.55
-0.72
-0.11
0.08
-0.14
-0.57
-0.94
-1.07
-0.98
-0.81
-0.75
-0.94
-1.38
-1.95
-2.52
-3.01
-3.40
-3.77
-4.22
-4.80
-5.51
-6.33
-7.21
-8.12
-9.02
-9.83
-10.40
-10.50
-9.86
-8.29
-5.79
-2.54
1.08
4.58
7.54
9.65
10.81
11.08
10.63
9.71
8.55
7.37
6.40
5.77
5.55
5.65
5.92
6.14
6.18
6.02
5.75
5.51
5.39
5.39
5.43
5.35
4.99
4.29
3.29
2.09
0.86
-0.24
-1.11
-1.75
-2.27
-2.85
-3.61
-4.61
-5.70
-6.58
-6.87
-6.29
-4.71
-2.29
0.65
3.66
6.30
8.24
9.30
9.48
8.89
7.70
6.09
4.22
2.19
0.08
-2.01
-3.90
-5.41
-6.31
-6.46
-5.86
-4.67
-3.16
-1.63
-0.32
0.65
1.25
1.54
1.58
1.36
0.88
0.19
-0.61
-1.33
-1.79
-1.94
-1.86
-1.78
-1.96
-2.56
-3.58
-4.85
-6.06
-6.86
-6.94
-6.11
-4.33
-1.77
1.28
4.45
7.39
9.88
11.80
13.12
13.86
14.00
13.56
12.66
11.48
10.27
9.30
8.71
8.53
8.64
8.88
9.09
9.18
9.13
8.93
8.63
8.24
7.74
7.12
6.35
5.40
4.29
3.10
1.94
0.92
0.13
-0.46
-0.94
-1.44
-2.11
-3.01
-4.13
-5.32
-6.34
-6.90
-6.71
-5.57
-3.46
-0.54
2.91
6.46
9.74
12.39
14.19
15.03
14.89
13.85
12.10
9.92
7.66
5.67
4.20
3.35
3.00
2.91
2.79
2.39
1.64
0.55
-0.74
-2.12
-3.50
-4.79
-5.93
-6.87
-7.57
-8.03
-8.27
-8.34
-8.28
-8.16
-8.08
-8.21
-8.70
-9.66
-11.04
-12.58
-13.88
-14.48
-14.05
-12.43
-9.72
-6.23
-2.38
1.40
4.74
7.39
9.21
10.12
10.11
9.22
7.56
5.34
2.87
0.44
-1.69
-3.41
-4.66
-5.46
-5.82
-5.76
-5.33
-4.68
-4.01
-3.50
-3.21
-3.01
-2.71
-2.12
-1.21
-0.10
1.00
1.87
2.36
2.40
1.91
0.82
-0.91
-3.26
-6.03
-8.86
-11.28
-12.83
-13.22
-12.40
-10.50
-7.84
-4.82
-1.86
0.66
2.39
3.11
2.70
1.21
-1.18
-4.12
-7.19
-9.97
-12.11
-13.41
-13.88
-13.68
-13.08
-12.37
-11.76
-11.32
-11.04
-10.84
-10.69
-10.64
-10.82
-11.34
-12.21
-13.37
-14.62
-15.74
-16.61
-17.16
-17.45
-17.62
-17.82
-18.18
-18.75
-19.44
-20.01
-20.00
-18.90
-16.25
-11.89
-6.03
0.71
7.48
13.44
17.98
20.82
22.00
21.84
20.74
19.19
17.63
16.43
15.84
16.00
16.86
18.25
19.84
21.29
22.27
22.63
22.41
21.84
21.15
20.51
19.83
18.86
17.26
14.82
11.56
7.73
3.72
-0.14
-3.68
-6.91
-9.92
-12.80
-15.57
-18.06
-19.96
-20.85
-20.31
-18.10
-14.21
-8.98
-3.01
2.97
8.32
12.63
15.77
17.77
18.78
18.91
18.28
17.03
15.41
13.69
12.15
10.96
10.14
9.59
9.18
8.78
8.39
8.02
7.71
7.44
7.14
6.70
6.05
5.19
4.17
3.09
2.06
1.09
0.14
-0.94
-2.32
-4.20
-6.72
-9.86
-13.43
-17.03
-20.06
-21.89
-22.01
-20.23
-16.75
-12.14
-7.16
-2.48
1.43
4.38
6.41
7.64
8.19
8.15
7.65
6.85
5.96
5.23
4.81
4.73
4.89
5.13
5.26
5.22
5.05
4.82
4.60
4.35
3.93
3.19
2.06
0.61
-0.98
-2.45
-3.61
-4.39
-4.86
-5.13
-5.37
-5.75
-6.40
-7.41
-8.76
-10.26
-11.58
-12.30
-12.05
-10.66
-8.25
-5.20
-2.02
0.75
2.73
3.72
3.72
2.92
1.57
-0.02
-1.55
-2.76
-3.46
-3.57
-3.14
-2.33
-1.36
-0.42
0.39
1.05
1.65
2.29
2.98
3.62
4.01
3.93
3.26
2.05
0.50
-1.09
-2.43
-3.33
-3.72
-3.69
-3.37
-2.93
-2.59
-2.49
-2.75
-3.32
-3.94
-4.19
-3.58
-1.76
1.36
5.47
10.02
14.38
18.00
20.57
22.03
22.48
22.15
21.29
20.16
19.02
18.09
17.55
17.45
17.69
18.02
18.11
17.68
16.51
14.58
11.97
8.86
5.48
2.02
-1.35
-4.53
-7.46
-10.11
-12.49
-14.57
-16.35
-17.81
-18.94
-19.81
-20.51
-21.21
-22.04
-23.11
-24.39
-25.72
-26.72
-26.97
-26.05
-23.74
-20.11
-15.50
-10.44
-5.47
-0.98
2.78
5.70
7.69
8.66
8.57
7.52
5.83
3.97
2.48
1.82
2.17
3.38
5.05
6.67
7.82
8.27
8.09
7.49
6.72
5.91
5.06
4.03
2.71
1.07
-0.72
-2.43
-3.80
-4.70
-5.12
-5.17
-5.08
-5.08
-5.39
-6.17
-7.42
-8.91
-10.24
-10.86
-10.26
-8.16
-4.64
-0.14
4.64
9.00
12.39
14.54
15.45
15.29
14.34
12.86
11.12
9.35
7.71
6.31
5.17
4.26
3.52
2.91
2.37
1.86
1.30
0.63
-0.23
-1.30
-2.56
-3.99
-5.50
-7.02
-8.46
-9.74
-10.83
-11.76
-12.66
-13.67
-14.95
-16.59
-18.50
-20.47
-22.12
-22.97
-22.55
-20.48
-16.65
-11.23
-4.75
2.12
8.70
14.43
18.99
22.23
24.14
24.75
24.16
22.58
20.27
17.57
14.80
12.14
9.70
7.47
5.47
3.70
2.22
0.99
-0.09
-1.28
-2.88
-5.12
-8.09
-11.65
-15.46
-19.16
-22.44
-25.15
-27.31
-29.04
-30.49
-31.75
-32.81
-33.53
-33.65
-32.83
-30.76
-27.23
-22.32
-16.39
-10.04
-3.94
1.38
5.68
8.98
11.47
13.30
14.51
15.06
14.94
14.27
13.33
12.47
11.95
11.84
12.03
12.31
12.51
12.63
12.73
12.90
13.14
13.29
13.18
12.64
11.69
10.44
9.07
7.69
6.36
5.00
3.51
1.81
-0.16
-2.40
-4.85
-7.31
-9.41
-10.70
-10.70
-9.16
-6.13
-2.05
2.41
6.55
9.85
12.15
13.51
14.16
14.30
14.02
13.36
12.37
11.19
10.04
9.20
8.89
9.16
9.93
10.97
11.98
12.71
12.96
12.64
11.72
10.28
8.42
6.33
4.17
2.16
0.40
-1.06
-2.33
-3.58
-5.02
-6.80
-8.98
-11.48
-14.14
-16.64
-18.53
-19.31
-18.54
-15.98
-11.76
-6.33
-0.43
5.20
9.94
13.44
15.61
16.53
16.38
15.36
13.73
11.78
9.88
8.34
7.36
6.98
7.02
7.24
7.40
7.40
7.22
6.94
6.63
6.24
5.67
4.78
3.48
1.77
-0.25
-2.44
-4.71
-6.98
-9.24
-11.49
-13.72
-15.91
-18.04
-20.05
-21.84
-23.23
-23.90
-23.53
-21.81
-18.71
-14.46
-9.60
-4.77
-0.52
2.87
5.33
6.99
7.99
8.42
8.35
7.87
7.18
6.54
6.20
6.22
6.53
6.93
7.22
7.34
7.39
7.54
7.96
8.68
9.57
10.39
10.85
10.70
9.84
8.33
6.35
4.17
2.08
0.26
-1.23
-2.42
-3.46
-4.54
-5.83
-7.41
-9.24
-11.11
-12.61
-13.25
-12.59
-10.42
-6.87
-2.39
2.36
6.74
10.25
12.63
13.85
13.98
13.13
11.42
8.95
5.86
2.35
-1.31
-4.81
-7.85
-10.19
-11.69
-12.34
-12.20
-11.37
-10.01
-8.27
-6.35
-4.48
-2.83
-1.49
-0.46
0.34
1.02
1.61
2.12
2.52
2.78
2.87
2.71
2.15
1.05
-0.63
-2.69
-4.66
-5.89
-5.84
-4.35
-1.75
1.26
3.91
5.64
6.32
6.15
5.49
4.61
3.58
2.39
1.06
-0.26
-1.30
-1.81
-1.72
-1.20
-0.54
-0.07
0.06
-0.14
-0.50
-0.86
-1.12
-1.27
-1.41
-1.65
-2.05
-2.64
-3.35
-4.11
-4.86
-5.60
-6.37
-7.20
-8.10
-9.03
-9.86
-10.38
-10.37
-9.59
-7.85
-5.03
-1.14
3.61
8.82
13.97
18.51
22.00
24.17
24.98
24.50
22.97
20.70
18.07
15.48
13.27
11.64
10.62
10.07
9.80
9.65
9.55
9.55
9.73
10.20
10.94
11.86
12.76
13.46
13.79
13.74
13.44
13.10
12.92
12.94
13.05
12.95
12.28
10.80
8.49
5.59
2.58
0.02
-1.61
-2.02
-1.26
0.36
2.29
3.91
4.74
4.49
3.16
0.94
-1.89
-5.02
-8.20
-11.21
-13.86
-16.09
-17.98
-19.72
-21.55
-23.53
-25.38
-26.53
-26.28
-24.13
-20.00
-14.28
-7.68
-0.95
5.30
10.71
15.03
18.09
19.69
19.67
18.00
14.83
10.49
5.32
-0.40
-6.53
-12.93
-19.37
-25.36
-30.21
-33.18
-33.74
-31.83
-27.88
-22.71
-17.27
-12.41
-8.68
-6.37
-5.50
-5.89
-7.21
-9.01
-10.75
-11.96
-12.30
-11.69
-10.28
-8.41
-6.47
-4.76
-3.39
-2.33
-1.44
-0.61
0.09
0.42
-0.00
-1.49
-4.17
-7.88
-12.20
-16.59
-20.61
-24.01
-26.76
-28.99
-30.91
-32.73
-34.54
-36.31
-37.76
-38.47
-37.90
-35.61
-31.41
-25.47
-18.28
-10.56
-3.00
3.81
9.57
14.13
17.54
19.89
21.31
21.95
21.94
21.50
20.80
20.04
19.32
18.65
17.98
17.19
16.22
15.08
13.85
12.59
11.34
10.04
8.68
7.25
5.85
4.59
3.58
2.86
2.39
2.07
1.78
1.43
0.93
0.15
-1.01
-2.63
-4.63
-6.73
-8.46
-9.28
-8.74
-6.67
-3.23
1.06
5.50
9.36
12.04
13.21
12.79
10.97
8.10
4.64
1.07
-2.20
-4.86
-6.72
-7.73
-7.96
-7.61
-6.94
-6.20
-5.60
-5.23
-5.10
-5.17
-5.42
-5.81
-6.32
-6.85
-7.26
-7.37
-7.06
-6.33
-5.34
-4.33
-3.54
-3.12
-3.06
-3.20
-3.29
-3.02
-2.11
-0.35
2.38
6.06
10.49
15.30
20.00
24.05
26.99
28.57
28.81
27.93
26.32
24.43
22.65
21.24
20.29
19.75
19.44
19.12
18.63
17.87
16.86
15.72
14.59
13.55
12.63
11.73
10.67
9.19
7.02
4.01
0.15
-4.37
-9.17
-13.76
-17.70
-20.73
-22.77
-23.99
-24.60
-24.79
-24.53
-23.64
-21.84
-18.97
-15.06
-10.42
-5.49
-0.79
3.31
6.60
9.02
10.62
11.48
11.65
11.22
10.28
8.97
7.47
5.93
4.50
3.31
2.41
1.81
1.47
1.28
1.15
0.96
0.63
0.14
-0.55
-1.44
-2.52
-3.75
-5.02
-6.23
-7.26
-8.09
-8.81
-9.55
-10.48
-11.69
-13.10
-14.47
-15.38
-15.37
-14.06
-11.32
-7.33
-2.57
2.32
6.77
10.39
13.05
14.77
15.64
15.72
15.08
13.85
12.28
10.69
9.39
8.55
8.17
8.12
8.17
8.16
8.00
7.69
7.23
6.61
5.77
4.69
3.36
1.86
0.31
-1.17
-2.50
-3.68
-4.76
-5.81
-6.89
-8.04
-9.31
-10.75
-12.36
-13.99
-15.31
-15.85
-15.08
-12.70
-8.76
-3.72
1.67
6.63
10.58
13.29
14.80
15.27
14.92
13.89
12.33
10.45
8.54
6.93
5.88
5.47
5.53
5.76
5.80
5.45
4.67
3.60
2.43
1.32
0.27
-0.80
-1.99
-3.34
-4.80
-6.21
-7.46
-8.48
-9.30
-10.02
-10.72
-11.45
-12.28
-13.26
-14.40
-15.61
-16.62
-17.01
-16.34
-14.34
-11.11
-7.04
-2.79
1.08
4.20
6.49
8.10
9.18
9.81
9.99
9.70
9.02
8.18
7.47
7.15
7.39
8.14
9.25
10.44
11.50
12.30
12.80
13.06
13.17
13.20
13.13
12.91
12.47
11.73
10.69
9.31
7.60
5.52
3.07
0.33
-2.53
-5.33
-7.85
-9.98
-11.61
-12.63
-12.84
-11.94
-9.68
-5.95
-1.01
4.57
10.02
14.61
17.88
19.71
20.22
19.69
18.38
16.55
14.44
12.36
10.66
9.65
9.44
9.94
10.83
11.72
12.27
12.29
11.73
10.60
8.96
6.75
3.87
0.21
-4.30
-9.56
-15.24
-20.87
-25.95
-30.12
-33.29
-35.63
-37.45
-39.03
-40.55
-41.98
-43.18
-43.93
-43.94
-42.88
-40.44
-36.42
-30.85
-24.12
-16.82
-9.69
-3.31
1.99
6.14
9.31
11.70
13.43
14.59
15.24
15.50
15.54
15.52
15.49
15.34
14.87
13.93
12.52
10.84
9.21
7.93
7.14
6.76
6.56
6.32
5.87
5.21
4.41
3.55
2.64
1.65
0.50
-0.83
-2.33
-3.93
-5.54
-6.99
-8.07
-8.50
-7.99
-6.34
-3.56
0.06
4.03
7.82
11.00
13.34
14.75
15.23
14.79
13.48
11.46
9.03
6.62
4.63
3.30
2.65
2.46
2.45
2.42
2.31
2.17
2.14
2.27
2.48
2.58
2.34
1.63
0.43
-1.08
-2.65
-4.02
-5.02
-5.63
-5.96
-6.17
-6.44
-6.90
-7.65
-8.66
-9.76
-10.67
-10.99
-10.39
-8.70
-6.04
-2.77
0.60
3.60
5.92
7.42
8.10
8.02
7.21
5.73
3.74
1.56
-0.38
-1.67
-2.04
-1.56
-0.53
0.55
1.28
1.47
1.19
0.75
0.45
0.48
0.79
1.23
1.55
1.63
1.50
1.28
1.14
1.17
1.35
1.53
1.55
1.21
0.37
-0.99
-2.82
-4.88
-6.84
-8.22
-8.61
-7.70
-5.49
-2.25
1.55
5.36
8.73
11.37
13.19
14.18
14.39
13.84
12.58
10.74
8.56
6.40
4.61
3.44
2.95
2.94
3.09
3.06
2.67
1.94
1.05
0.20
-0.50
-1.08
-1.68
-2.43
-3.42
-4.62
-5.89
-7.07
-8.03
-8.69
-9.06
-9.24
-9.38
-9.65
-10.23
-11.19
-12.52
-14.07
-15.52
-16.39
-16.22
-14.64
-11.60
-7.35
-2.46
2.41
6.70
10.09
12.48
13.94
14.56
14.43
13.62
12.27
10.65
9.05
7.79
7.04
6.81
6.93
7.14
7.22
7.05
6.66
6.12
5.56
5.02
4.47
3.80
2.89
1.72
0.33
-1.15
-2.56
-3.81
-4.86
-5.72
-6.44
-7.05
-7.53
-7.86
-8.08
-8.28
-8.62
-9.23
-10.09
-10.93
-11.28
-10.56
-8.28
-4.28
1.21
7.61
14.10
19.83
24.03
26.19
26.05
23.68
19.45
14.02
8.22
2.91
-1.23
-3.84
-4.91
-4.76
-3.88
-2.80
-1.91
-1.44
-1.47
-1.88
-2.53
-3.26
-3.94
-4.50
-4.94
-5.32
-5.71
-6.23
-6.93
-7.77
-8.67
-9.45
-9.99
-10.21
-10.11
-9.84
-9.57
-9.52
-9.83
-10.52
-11.44
-12.24
-12.45
-11.59
-9.35
-5.71
-1.00
4.21
9.28
13.69
17.13
19.51
20.88
21.32
20.90
19.73
17.98
15.94
14.02
12.60
11.95
12.16
13.08
14.37
15.60
16.38
16.49
15.91
14.78
13.34
11.79
10.18
8.46
6.51
4.23
1.61
-1.30
-4.39
-7.54
-10.64
-13.61
-16.38
-18.94
-21.35
-23.78
-26.35
-29.14
-31.93
-34.27
-35.58
-35.35
-33.39
-29.91
-25.48
-20.79
-16.44
-12.77
-9.86
-7.60
-5.87
-4.54
-3.47
-2.50
-1.39
0.13
2.30
5.17
8.63
12.37
16.03
19.31
22.09
24.43
26.48
28.37
30.09
31.46
32.20
32.03
30.80
28.50
25.23
21.13
16.34
11.01
5.31
-0.61
-6.59
-12.56
-18.48
-24.27
-29.70
-34.28
-37.40
-38.48
-37.27
-33.94
-29.12
-23.66
-18.38
-13.89
-10.47
-8.18
-6.94
-6.60
-6.98
-7.83
-8.83
-9.63
-9.89
-9.36
-7.94
-5.72
-2.99
-0.17
2.27
3.93
4.62
4.36
3.33
1.79
-0.08
-2.15
-4.31
-6.39
-8.17
-9.44
-10.06
-10.11
-9.87
-9.75
-10.13
-11.29
-13.33
-16.14
-19.39
-22.54
-24.95
-26.10
-25.66
-23.53
-19.80
-14.80
-9.00
-2.97
2.74
7.68
11.52
14.16
15.95
17.47
19.17
21.08
22.74
23.59
23.19
21.58
19.33
17.55
17.38
19.47
23.63
28.96
34.23
38.17
39.63
36.64
27.83
13.56
-3.50
-19.36
-30.39
-34.28
-30.77
-21.56
-9.85
1.15
9.27
14.02
16.31
17.63
19.18
21.20
23.03
23.73
23.04
21.48
19.95
19.24
18.94
18.27
16.53
13.51
9.69
6.22
4.31
4.60
6.78
9.71
12.02
12.62
11.10
7.79
3.82
0.62
-0.82
-0.38
1.17
2.58
2.66
1.15
-1.79
-5.29
-8.21
-9.70
-9.57
-8.26
-6.50
-5.07
-4.73
-6.33
-10.32
-16.66
-24.86
-33.98
-42.64
-49.40
-53.19
-53.71
-51.77
-48.21
-43.58
-37.94
-31.00
-22.39
-12.15
-1.03
10.86
21.16
27.32
28.60
26.43
23.03
20.08
17.97
16.33
14.71
12.80
10.93
9.54
8.81
8.75
9.10
9.35
9.06
7.94
5.86
3.14
0.15
-2.89
-5.97
-9.03
-12.14
-15.34
-18.68
-22.12
-24.00
-22.86
-18.25
-12.59
-6.71
-0.64
6.27
14.09
22.60
31.44
39.81
46.49
49.91
47.48
37.41
20.22
-1.03
-22.16
-39.54
-51.04
-55.92
-54.47
-47.41
-35.91
-21.59
-6.55
6.91
16.85
22.20
23.09
20.69
16.81
13.14
10.64
9.31
8.54
7.51
5.77
3.42
0.97
-0.72
-0.61
2.14
7.87
15.88
24.21
30.20
31.54
27.36
18.80
8.65
-0.02
-5.28
-7.12
-7.06
-7.02
-8.08
-10.12
-12.26
-13.77
-14.78
-16.05
-18.21
-21.06
-23.37
-23.60
-20.90
-15.86
-9.79
-4.44
-0.92
0.74
1.47
2.44
4.36
7.03
9.60
11.08
10.81
8.80
5.75
2.73
0.76
0.51
2.15
5.37
9.54
13.82
17.43
19.82
20.75
20.31
18.88
16.89
14.74
12.56
10.31
7.88
5.26
2.63
0.25
-1.68
-3.17
-4.31
-5.32
-6.45
-7.89
-9.70
-11.81
-14.01
-15.99
-17.33
-17.57
-16.38
-13.69
-9.80
-5.42
-1.49
0.98
1.21
-1.22
-6.25
-13.37
-21.69
-30.00
-37.05
-41.75
-43.40
-41.84
-37.50
-31.20
-23.91
-16.53
-9.67
-3.61
1.63
6.11
9.89
12.96
15.26
16.77
17.58
17.89
17.90
17.77
17.52
17.06
16.28
15.14
13.67
11.94
10.03
7.91
5.58
3.00
0.25
-2.52
-5.15
-7.51
-9.52
-11.24
-12.77
-14.28
-15.96
-17.88
-19.98
-21.94
-23.25
-23.29
-21.62
-18.11
-13.07
-7.15
-1.12
4.39
9.00
12.60
15.25
17.05
18.04
18.25
17.75
16.71
15.40
14.11
13.11
12.54
12.40
12.56
12.79
12.85
12.56
11.80
10.62
9.10
7.37
5.51
3.54
1.44
-0.77
-3.01
-5.11
-6.90
-8.28
-9.29
-10.12
-11.03
-12.20
-13.64
-15.13
-16.24
-16.51
-15.57
-13.34
-9.97
-5.88
-1.55
2.62
6.31
9.35
11.62
13.11
13.81
13.82
13.30
12.47
11.56
10.72
10.05
9.54
9.17
8.91
8.76
8.71
8.77
8.92
9.09
9.20
9.12
8.81
8.25
7.49
6.64
5.78
5.01
4.39
3.95
3.70
3.55
3.34
2.92
2.14
1.00
-0.35
-1.64
-2.51
-2.64
-1.87
-0.19
2.19
4.92
7.58
9.76
11.22
11.89
11.87
11.38
10.61
9.70
8.72
7.69
6.71
5.88
5.27
4.90
4.68
4.46
4.13
3.65
3.08
2.51
2.00
1.55
1.08
0.51
-0.18
-1.00
-1.86
-2.70
-3.41
-3.95
-4.29
-4.48
-4.61
-4.82
-5.24
-5.90
-6.78
-7.73
-8.55
-9.03
-8.96
-8.23
-6.80
-4.74
-2.25
0.36
2.76
4.64
5.83
6.35
6.35
6.06
5.69
5.35
5.05
4.75
4.47
4.30
4.39
4.82
5.52
6.31
6.91
7.12
6.88
6.28
5.50
4.67
3.83
2.91
1.83
0.58
-0.77
-2.06
-3.17
-4.05
-4.71
-5.19
-5.54
-5.80
-6.02
-6.30
-6.71
-7.28
-7.89
-8.25
-8.02
-6.91
-4.82
-1.87
1.64
5.36
8.95
12.19
14.96
17.26
19.14
20.72
22.15
23.53
24.90
26.20
27.26
27.87
27.80
26.95
25.34
23.15
20.68
18.27
16.20
14.60
13.45
12.62
11.84
10.88
9.52
7.63
5.20
2.34
-0.71
-3.67
-6.28
-8.45
-10.21
-11.71
-13.13
-14.60
-16.14
-17.71
-19.19
-20.42
-21.17
-21.12
-19.94
-17.43
-13.64
-8.96
-4.03
0.43
3.86
5.97
6.77
6.42
5.11
3.00
0.20
-3.07
-6.52
-9.76
-12.39
-14.17
-15.10
-15.40
-15.38
-15.30
-15.24
-15.10
-14.68
-13.81
-12.49
-10.89
-9.33
-8.15
-7.60
-7.79
-8.65
-10.03
-11.65
-13.29
-14.72
-15.81
-16.56
-17.03
-17.33
-17.56
-17.77
-17.94
-18.03
-17.96
-17.59
-16.79
-15.41
-13.35
-10.58
-7.21
-3.39
0.66
4.72
8.62
12.19
15.31
17.91
19.95
21.45
22.45
22.94
22.89
22.17
20.67
18.35
15.22
11.46
7.35
3.31
-0.21
-2.78
-4.11
-4.18
-3.23
-1.66
0.08
1.72
3.12
4.34
5.45
6.47
7.31
7.75
7.52
6.38
4.21
1.04
-2.93
-7.39
-12.06
-16.69
-21.04
-24.79
-27.60
-29.10
-29.00
-27.23
-24.00
-19.82
-15.35
-11.12
-7.44
-4.37
-1.82
0.34
2.21
3.88
5.28
6.49
7.72
9.30
11.51
14.33
17.42
20.28
22.50
23.53
23.24
21.96
20.35
19.04
18.26
17.90
17.68
17.40
16.32
14.04
10.82
7.53
5.08
3.79
3.33
2.99
2.12
-0.71
-6.27
-14.09
-22.67
-30.42
-36.51
-41.21
-45.37
-49.90
-56.99
-68.24
-83.76
-102.12
-121.33
-139.72
-156.76
-172.69
-178.40
-167.91
-141.63
-106.52
-70.31
-37.00
-7.02
19.72
42.43
59.72
69.08
69.57
62.92
53.29
45.57
43.72
49.37
61.98
79.29
96.74
109.58
114.55
110.89
97.77
78.98
59.34
42.68
30.85
23.07
17.18
11.97
7.56
4.78
4.71
7.41
12.20
18.20
24.33
30.00
34.27
36.43
36.30
34.58
31.82
28.11
23.24
16.94
9.49
1.86
-4.39
-7.83
-7.60
-4.09
1.23
6.53
10.55
12.73
13.25
12.86
12.44
12.68
13.60
14.35
13.82
11.18
6.33
-0.03
-6.63
-12.33
-16.54
-18.98
-20.61
-23.17
-28.40
-37.28
-49.48
-63.21
-75.58
-83.20
-83.26
-74.84
-59.24
-39.64
-20.07
-4.28
5.30
7.98
5.07
-0.76
-6.62
-10.06
-9.37
-3.77
6.46
20.13
33.33
41.43
42.29
37.05
28.58
19.67
12.11
6.65
2.75
-0.11
-1.91
-2.32
-1.23
1.08
4.12
7.32
10.30
12.63
13.90
13.86
12.51
9.95
6.37
2.02
-2.67
-7.38
-11.99
-16.46
-20.50
-23.51
-24.81
-23.89
-20.62
-15.18
-8.12
-0.37
7.09
13.54
18.71
22.51
24.83
25.40
24.14
21.08
16.44
10.79
5.11
0.62
-1.63
-1.19
1.72
6.66
12.98
19.66
25.64
30.17
32.97
34.20
34.20
31.29
24.86
16.03
6.81
-1.08
-6.89
-10.63
-12.71
-13.59
-13.54
-12.12
-8.42
-2.00
6.78
16.91
27.01
35.70
41.87
44.83
41.92
32.86
18.88
2.15
-15.10
-30.89
-43.65
-52.37
-58.05
-60.96
-60.94
-58.19
-53.28
-47.05
-40.50
-34.62
-30.39
-27.62
-26.19
-25.26
-23.71
-20.51
-15.01
-6.96
3.65
16.74
31.92
47.21
59.14
64.10
60.44
49.19
33.30
16.47
2.09
-7.56
-11.89
-11.56
-8.00
-2.92
2.11
6.05
8.45
9.33
8.77
6.62
2.73
-2.72
-9.15
-15.55
-20.73
-23.74
-24.17
-22.35
-19.24
-16.05
-13.24
-10.92
-9.10
-7.84
-7.39
-7.85
-9.14
-10.82
-12.13
-12.30
-11.03
-8.76
-6.49
-5.31
-5.65
-7.21
-9.01
-9.87
-9.08
-6.83
-4.08
-2.06
-1.34
-1.28
-0.32
3.40
11.46
23.73
38.97
55.54
72.20
85.92
93.13
89.79
73.54
46.09
13.97
-13.18
-26.54
-22.28
-4.13
20.16
42.08
55.69
59.32
55.06
46.46
36.14
22.99
7.37
-9.90
-27.51
-43.31
-54.83
-60.35
-59.87
-56.57
-53.18
-51.59
-52.63
-55.89
-60.02
-63.45
-65.27
-65.62
-63.90
-60.34
-55.15
-48.54
-40.73
-31.92
-22.44
-12.74
-3.42
4.97
11.97
17.41
21.35
24.15
26.46
28.99
32.24
36.26
40.75
45.12
48.91
51.90
54.10
55.68
56.71
56.92
55.82
52.77
47.21
38.93
28.09
15.22
1.18
-13.08
-26.59
-38.53
-48.30
-55.73
-60.92
-64.15
-65.65
-65.40
-63.10
-58.34
-50.88
-40.91
-29.15
-16.66
-4.57
6.24
15.28
22.35
27.41
30.36
31.06
29.42
25.61
20.11
13.70
7.27
1.64
-2.58
-5.08
-5.77
-4.70
-2.01
2.12
7.41
13.46
19.70
25.46
30.13
33.25
34.69
34.70
33.80
32.65
31.84
31.64
31.88
31.88
30.56
26.78
19.76
9.50
-3.02
-15.99
-27.28
-35.06
-38.34
-37.16
-32.44
-25.54
-17.82
-10.33
-3.67
1.85
6.13
9.16
10.97
11.68
11.52
10.88
10.17
9.75
9.79
10.28
11.05
11.91
12.78
13.78
15.20
17.33
20.34
24.11
28.21
32.11
35.26
37.41
38.56
38.99
39.06
39.08
39.12
39.06
38.64
37.52
35.48
32.38
28.24
23.20
17.51
11.58
5.89
0.96
-2.84
-5.42
-7.12
-8.60
-10.62
-13.75
-18.09
-23.26
-28.54
-33.19
-36.70
-38.90
-39.83
-39.66
-38.49
-36.43
-33.64
-30.44
-27.25
-24.51
-22.48
-21.18
-20.42
-19.91
-19.42
-18.89
-18.41
-18.13
-18.21
-18.73
-19.68
-21.00
-22.54
-24.14
-25.63
-26.87
-27.83
-28.57
-29.20
-29.89
-30.75
-31.82
-33.04
-34.29
-35.33
-35.85
-35.42
-33.62
-30.09
-24.71
-17.68
-9.53
-1.00
7.11
14.16
19.79
23.90
26.58
27.96
28.15
27.20
25.21
22.38
19.05
15.71
12.82
10.71
9.45
8.84
8.50
8.04
7.14
5.79
4.13
2.51
1.21
0.35
-0.17
-0.67
-1.54
-3.00
-5.05
-7.43
-9.74
-11.64
-12.95
-13.73
-14.24
-14.77
-15.48
-16.45
-17.65
-18.97
-20.24
-21.11
-21.07
-19.58
-16.30
-11.20
-4.71
2.38
9.20
15.03
19.59
22.95
25.36
27.03
28.11
28.69
28.78
28.38
27.52
26.40
25.16
23.64
21.39
17.91
12.81
5.85
-3.02
-13.52
-24.84
-36.04
-46.60
-56.45
-65.66
-74.24
-82.18
-89.63
-96.75
-103.44
-109.92
-117.16
-126.24
-137.25
-148.63
-157.47
-160.42
-154.39
-136.83
-106.81
-65.76
-16.87
36.17
90.04
141.92
187.12
217.00
225.29
213.17
187.61
156.31
124.84
96.43
72.52
53.25
38.25
26.98
19.52
15.48
13.96
13.99
14.84
15.86
16.81
16.74
15.36
13.07
10.34
7.42
4.24
0.67
-3.32
-7.70
-12.18
-15.90
-17.93
-18.20
-16.96
-15.15
-13.66
-13.11
-13.66
-15.06
-16.52
-17.05
-16.09
-13.57
-9.85
-5.36
-0.48
4.53
9.51
14.45
19.32
23.84
27.52
29.69
29.90
28.06
24.55
20.19
16.17
13.68
13.50
15.66
19.49
23.81
27.43
29.52
29.76
28.31
25.69
22.52
19.46
17.00
15.40
14.58
14.11
13.39
11.95
9.61
6.45
2.54
-2.30
-8.50
-16.46
-26.03
-36.38
-46.05
-53.47
-57.53
-58.01
-55.51
-51.14
-46.03
-41.01
-36.41
-32.05
-27.43
-21.84
-14.64
-5.52
5.22
16.58
26.97
34.58
37.97
36.56
30.96
22.78
14.18
7.13
2.92
1.93
3.80
7.73
12.75
17.80
21.90
24.17
24.14
21.94
18.28
14.09
10.13
6.59
3.18
-0.64
-5.29
-10.85
-17.08
-23.49
-29.59
-35.03
-39.59
-43.03
-45.17
-45.93
-45.38
-43.62
-40.69
-36.60
-31.47
-25.53
-18.92
-11.78
-4.35
2.95
9.60
15.06
18.84
20.72
20.84
20.01
19.39
20.00
22.42
26.64
32.24
38.42
44.31
47.56
46.48
41.19
33.74
26.49
20.65
16.22
12.54
9.16
5.98
3.34
1.58
0.32
-1.14
-3.28
-5.86
-8.18
-9.18
-8.11
-4.86
-0.14
4.71
7.99
8.07
4.14
-3.93
-14.35
-23.81
-29.16
-29.03
-24.29
-17.13
-10.56
-5.52
-2.45
-1.27
-1.74
-3.63
-6.79
-10.60
-14.04
-15.75
-13.55
-6.76
3.25
13.53
20.97
23.75
21.74
16.15
8.89
1.85
-3.91
-7.97
-10.34
-11.30
-11.20
-10.34
-9.03
-7.66
-6.71
-6.86
-8.68
-11.78
-15.18
-17.56
-17.76
-15.31
-10.50
-4.27
2.14
7.74
12.16
15.48
18.03
20.10
21.77
22.96
23.61
23.69
23.31
22.80
22.19
21.67
21.33
21.15
21.07
21.04
21.11
21.35
21.82
22.34
22.57
22.02
20.26
17.20
13.09
8.54
4.20
0.59
-2.10
-4.00
-5.41
-6.69
-8.08
-9.67
-11.34
-12.86
-13.89
-14.07
-13.08
-10.77
-7.27
-2.99
1.42
5.33
8.32
10.29
11.47
12.26
12.97
13.66
14.16
14.21
13.62
12.39
10.70
8.79
6.84
4.90
2.92
0.82
-1.44
-3.85
-6.40
-9.11
-11.99
-15.07
-18.27
-21.42
-24.30
-26.70
-28.56
-29.96
-31.13
-32.29
-33.60
-35.07
-36.63
-38.13
-39.38
-40.09
-39.85
-38.17
-34.63
-29.09
-21.85
-13.67
-5.58
1.45
6.76
10.16
11.82
12.07
11.21
9.43
6.91
3.89
0.76
-2.01
-4.08
-5.32
-5.87
-5.99
-5.91
-5.74
-5.44
-4.96
-4.38
-3.92
-3.92
-4.75
-6.60
-9.41
-12.89
-16.59
-20.02
-22.82
-24.84
-26.14
-27.01
-27.80
-28.84
-30.20
-31.71
-32.85
-33.00
-31.55
-28.11
-22.71
-15.80
-8.09
-0.41
6.53
12.26
16.56
19.39
20.81
20.99
20.13
18.54
16.55
14.53
12.75
11.35
10.33
9.62
9.12
8.80
8.57
8.33
7.84
6.83
5.05
2.49
-0.60
-3.80
-6.63
-8.81
-10.30
-11.32
-12.20
-13.22
-14.50
-15.94
-17.21
-17.79
-17.10
-14.62
-10.09
-3.64
4.16
12.43
20.23
26.75
31.57
34.62
36.03
36.04
34.83
32.55
29.41
25.69
21.77
18.07
14.96
12.61
11.04
10.06
9.44
8.90
8.30
7.53
6.57
5.43
4.09
2.54
0.78
-1.16
-3.19
-5.23
-7.22
-9.14
-11.09
-13.17
-15.40
-17.60
-19.30
-19.84
-18.55
-15.06
-9.45
-2.36
5.21
12.21
17.79
21.54
23.51
24.00
23.44
22.24
20.68
19.03
17.45
16.07
14.98
14.19
13.68
13.34
13.02
12.50
11.63
10.28
8.49
6.39
4.21
2.15
0.32
-1.29
-2.79
-4.33
-5.98
-7.76
-9.65
-11.69
-13.99
-16.60
-19.43
-22.07
-23.84
-24.04
-22.21
-18.42
-13.30
-7.82
-2.99
0.53
2.50
3.12
2.74
1.78
0.50
-0.90
-2.27
-3.48
-4.44
-5.08
-5.42
-5.56
-5.63
-5.81
-6.19
-6.75
-7.36
-7.77
-7.75
-7.13
-5.93
-4.30
-2.50
-0.85
0.43
1.21
1.46
1.28
0.70
-0.28
-1.67
-3.32
-4.90
-5.83
-5.55
-3.66
-0.15
4.49
9.46
13.92
17.30
19.40
20.40
20.59
20.26
19.62
18.74
17.64
16.34
15.04
13.98
13.41
13.43
13.96
14.91
16.00
16.85
17.12
16.76
16.02
15.28
14.81
14.66
15.11
16.06
17.09
17.73
17.78
17.41
16.90
16.43
16.05
16.41
17.77
19.96
22.55
25.23
28.00
30.94
34.06
37.44
41.96
47.86
54.23
59.18
60.57
57.04
48.30
35.31
14.96
-11.38
-38.73
-61.36
-76.49
-84.76
-88.06
-87.48
-83.92
-77.73
-68.60
-57.07
-44.35
-31.55
-20.15
-10.28
-1.47
6.57
13.80
20.35
25.84
29.53
30.73
29.20
25.47
20.37
14.75
9.52
5.85
4.51
5.57
8.40
12.04
15.56
18.16
19.25
18.65
16.61
13.66
10.47
7.81
6.37
6.59
8.47
11.50
14.89
17.66
19.08
18.92
17.46
15.18
12.57
9.91
7.39
4.99
2.18
-1.54
-6.37
-12.09
-18.24
-24.35
-29.98
-34.66
-38.29
-41.53
-45.19
-49.81
-55.41
-61.66
-68.24
-74.75
-80.60
-82.16
-77.14
-66.06
-52.29
-39.53
-29.79
-23.20
-19.73
-17.67
-16.03
-14.95
-14.89
-15.96
-17.60
-18.29
-17.06
-13.46
-7.56
-0.11
7.44
13.80
18.29
21.08
22.81
24.09
25.37
26.99
28.98
30.99
32.69
33.83
34.29
33.93
32.43
29.51
25.13
19.53
13.20
6.92
1.64
-1.75
-2.72
-1.37
1.63
5.25
8.33
9.92
9.56
7.41
4.12
0.64
-2.19
-3.82
-4.21
-3.70
-2.82
-2.02
-1.47
-1.08
-0.65
-0.15
0.17
-0.17
-1.62
-4.35
-8.17
-12.65
-17.33
-21.89
-26.16
-30.05
-33.38
-35.91
-37.34
-37.56
-36.75
-35.35
-33.87
-32.64
-31.65
-30.56
-28.80
-25.70
-20.90
-14.59
-7.44
-0.38
5.78
10.55
13.96
16.32
18.38
20.70
23.40
26.17
28.53
30.14
30.81
30.78
30.37
30.42
31.56
33.92
37.11
40.38
43.05
44.44
44.50
43.34
42.04
41.70
43.03
46.34
51.39
57.79
64.76
71.89
73.99
67.56
52.41
32.26
12.33
-3.93
-13.63
-18.74
-21.11
-22.07
-21.47
-18.88
-15.14
-10.78
-6.52
-2.88
-0.41
1.04
1.70
2.47
3.88
4.21
2.16
-2.82
-9.92
-17.73
-24.02
-28.30
-30.07
-29.43
-27.05
-23.46
-19.48
-15.84
-13.19
-11.80
-11.81
-12.92
-14.97
-17.85
-21.13
-24.42
-27.40
-30.03
-32.33
-34.45
-35.11
-33.38
-29.23
-23.49
-17.44
-12.11
-8.05
-5.28
-3.56
-2.46
-1.83
-1.70
-2.01
-2.65
-3.36
-3.89
-4.04
-3.73
-2.96
-1.97
-1.12
-0.45
0.20
1.05
2.30
3.97
5.90
7.82
9.33
10.13
10.21
9.82
9.44
9.48
10.15
11.35
12.73
13.83
14.24
13.86
12.62
10.84
9.02
7.65
7.08
7.34
8.16
9.13
9.84
10.05
9.76
9.08
8.19
7.23
6.33
5.60
5.15
5.07
5.32
5.68
5.78
5.14
3.33
0.11
-4.52
-10.27
-16.60
-22.77
-27.94
-31.39
-32.70
-31.95
-29.74
-27.01
-24.72
-23.56
-23.72
-24.92
-26.65
-28.42
-29.89
-30.95
-31.54
-31.61
-31.02
-29.63
-27.32
-24.14
-20.22
-15.80
-11.13
-6.42
-1.86
2.42
6.32
9.70
12.44
14.39
15.44
15.60
15.06
14.10
13.06
12.16
11.50
11.04
10.70
10.47
10.36
10.45
10.75
11.21
11.67
11.97
11.98
11.65
11.01
10.10
8.97
7.68
6.31
4.95
3.73
2.73
1.94
1.21
0.35
-0.83
-2.37
-4.06
-5.51
-6.28
-6.04
-4.74
-2.57
0.05
2.73
5.14
7.13
8.67
9.78
10.44
10.64
10.33
9.53
8.32
6.87
5.35
3.96
2.82
1.94
1.30
0.82
0.47
0.23
0.14
0.19
0.36
0.58
0.76
0.81
0.66
0.33
-0.16
-0.70
-1.20
-1.63
-1.99
-2.37
-2.85
-3.48
-4.18
-4.81
-5.14
-5.00
-4.29
-3.08
-1.50
0.26
2.03
3.69
5.15
6.33
7.14
7.55
7.55
7.22
6.70
6.14
5.66
5.28
4.99
4.73
4.49
4.29
4.22
4.34
4.70
5.24
5.84
6.34
6.59
6.51
6.16
5.65
5.17
4.86
4.74
4.72
4.64
4.39
3.91
3.28
2.64
2.13
1.90
2.10
2.89
4.43
6.81
9.93
13.53
17.16
20.39
22.94
24.76
25.94
26.71
27.18
27.39
27.26
26.68
25.64
24.15
22.32
20.21
17.85
15.19
12.16
8.73
4.91
0.79
-3.50
-7.86
-12.26
-16.68
-21.10
-25.43
-29.44
-32.83
-35.25
-36.50
-36.50
-35.36
-33.33
-30.71
-27.86
-25.03
-22.45
-20.14
-17.95
-15.58
-12.64
-8.89
-4.36
0.61
5.49
9.74
13.05
15.43
17.10
18.31
19.20
19.72
19.72
19.15
18.17
17.13
16.47
16.46
17.11
18.14
19.14
19.80
20.08
20.29
20.89
22.23
24.23
26.31
27.50
26.88
24.00
19.11
13.17
7.49
3.33
1.57
2.67
6.66
13.24
21.73
31.05
39.76
46.32
49.61
49.33
46.08
41.13
35.85
31.10
27.00
23.09
18.76
13.75
8.27
2.92
-1.73
-5.44
-8.35
-10.86
-13.33
-15.89
-18.40
-20.61
-22.36
-23.71
-24.85
-26.03
-27.36
-28.72
-29.88
-30.56
-30.64
-30.23
-29.63
-29.24
-29.41
-30.30
-31.87
-33.96
-36.36
-38.93
-41.57
-44.21
-46.74
-48.95
-50.59
-51.38
-51.09
-49.59
-46.89
-43.12
-38.53
-33.46
-28.27
-23.31
-18.83
-14.98
-11.77
-9.12
-6.97
-5.24
-3.93
-3.01
-2.41
-1.97
-1.52
-0.91
-0.08
0.90
1.91
2.85
3.70
4.47
5.20
5.80
6.13
6.04
5.52
4.75
4.06
3.77
4.03
4.67
5.27
5.25
4.15
1.80
-1.62
-5.62
-9.55
-12.77
-14.79
-15.29
-14.25
-11.87
-8.55
-4.80
-1.13
2.13
4.86
7.14
9.08
10.71
11.90
12.42
12.16
11.23
9.98
8.87
8.30
8.41
9.08
9.92
10.49
10.41
9.56
8.01
6.08
4.15
2.55
1.46
0.82
0.42
-0.02
-0.68
-1.64
-2.80
-4.01
-5.15
-6.15
-7.06
-7.93
-8.77
-9.55
-10.17
-10.60
-10.92
-11.42
-12.50
-14.58
-17.81
-22.02
-26.59
-30.58
-32.90
-32.64
-29.29
-22.99
-14.54
-5.22
3.57
10.74
15.77
18.79
20.36
21.21
21.87
22.60
23.42
24.29
25.15
25.93
26.49
26.51
25.55
23.17
19.17
13.70
7.30
0.79
-5.00
-9.43
-12.24
-13.60
-14.00
-14.09
-14.53
-15.80
-18.10
-21.31
-24.95
-28.30
-30.57
-31.10
-29.55
-26.03
-21.02
-15.19
-9.28
-3.86
0.68
4.15
6.49
7.75
8.08
7.75
7.10
6.53
6.35
6.72
7.56
8.60
9.39
9.51
8.68
6.85
4.25
1.22
-1.88
-4.80
-7.48
-9.95
-12.28
-14.47
-16.50
-18.30
-19.89
-21.39
-23.00
-24.89
-27.09
-29.31
-30.99
-31.40
-29.85
-25.98
-19.90
-12.15
-3.58
4.96
12.80
19.58
25.21
29.70
33.06
35.15
35.80
34.85
32.32
28.36
23.29
17.49
11.37
5.31
-0.28
-4.98
-8.39
-10.27
-10.66
-9.90
-8.63
-7.53
-7.14
-7.70
-9.09
-10.94
-12.80
-14.26
-15.03
-14.95
-13.98
-12.11
-9.41
-6.01
-2.10
2.14
6.53
11.00
15.51
20.01
24.38
28.44
32.00
34.97
37.48
39.84
42.42
45.39
48.63
51.67
53.94
54.97
54.69
53.38
51.57
49.71
47.95
46.07
43.56
39.93
34.85
28.39
20.94
13.08
5.39
-1.69
-7.96
-13.45
-18.32
-22.71
-26.71
-30.30
-33.45
-36.14
-38.42
-40.38
-42.06
-43.39
-44.27
-44.58
-44.27
-43.34
-41.83
-39.68
-36.82
-33.14
-28.65
-23.50
-18.03
-12.64
-7.73
-3.59
-0.40
1.77
2.96
3.34
3.20
2.86
2.63
2.69
3.06
3.69
4.46
5.29
6.09
6.82
7.40
7.73
7.74
7.38
6.66
5.56
4.09
2.26
0.13
-2.15
-4.43
-6.60
-8.68
-10.78
-13.01
-15.27
-17.25
-18.44
-18.38
-16.85
-13.98
-10.25
-6.25
-2.53
0.60
3.08
5.00
6.52
7.73
8.69
9.39
9.84
10.06
10.10
10.06
10.02
10.01
10.00
9.88
9.53
8.87
7.84
6.48
4.86
3.11
1.39
-0.10
-1.21
-1.83
-2.04
-2.11
-2.42
-3.31
-4.97
-7.27
-9.83
-12.17
-13.83
-14.54
-14.23
-12.94
-10.78
-7.90
-4.44
-0.57
3.56
7.84
12.14
16.33
20.13
23.14
24.90
25.12
23.84
21.53
18.97
17.03
16.36
17.20
19.31
22.05
24.59
26.18
26.32
24.89
22.10
18.38
14.21
10.00
6.10
2.83
0.51
-0.62
-0.48
0.66
2.19
3.26
3.12
1.32
-2.14
-6.80
-11.92
-16.66
-20.29
-22.30
-22.40
-20.56
-16.94
-11.85
-5.77
0.68
6.79
11.76
14.91
15.82
14.55
11.64
8.04
4.78
2.66
2.04
2.76
4.35
6.19
7.79
8.81
9.06
8.47
6.94
4.44
1.05
-3.02
-7.37
-11.49
-14.94
-17.40
-18.76
-19.20
-19.05
-18.73
-18.66
-19.17
-20.42
-22.37
-24.74
-27.01
-28.53
-28.71
-27.18
-23.99
-19.61
-14.76
-10.17
-6.28
-3.17
-0.59
1.80
4.29
6.94
9.66
12.27
14.55
16.31
17.39
17.68
17.23
16.34
15.53
15.44
16.56
19.00
22.36
25.82
28.41
29.30
28.08
24.82
20.03
14.53
9.18
4.75
1.73
0.21
-0.13
0.02
-0.23
-1.73
-4.94
-9.78
-15.57
-21.15
-25.33
-27.13
-26.13
-22.47
-16.75
-9.70
-2.04
5.67
12.98
19.43
24.55
27.93
29.42
29.24
27.93
26.26
24.85
24.05
23.85
23.98
24.08
23.85
23.06
21.56
19.21
15.93
11.69
6.65
1.18
-4.24
-9.11
-13.06
-15.91
-17.78
-18.99
-20.03
-21.39
-23.38
-26.01
-28.95
-31.55
-33.08
-32.91
-30.72
-26.66
-21.32
-15.52
-10.17
-5.93
-3.15
-1.83
-1.65
-2.23
-3.16
-4.16
-5.06
-5.76
-6.22
-6.38
-6.22
-5.72
-4.91
-3.88
-2.73
-1.57
-0.45
0.68
1.90
3.28
4.81
6.38
7.78
8.79
9.26
9.06
8.11
6.31
3.54
-0.25
-4.97
-10.33
-15.86
-20.94
-24.93
-27.30
-27.67
-25.94
-22.26
-17.06
-10.94
-4.56
1.48
6.71
10.74
13.36
14.47
14.17
12.81
10.94
9.23
8.25
8.34
9.51
11.47
13.74
15.82
17.29
17.91
17.63
16.54
14.89
12.96
11.09
9.57
8.61
8.35
8.82
9.91
11.39
12.86
13.89
14.05
13.09
11.04
8.24
5.28
2.80
1.32
1.10
2.08
3.98
6.41
9.03
11.53
13.70
15.30
16.06
15.71
14.03
10.96
6.70
1.66
-3.54
-8.22
-11.74
-13.65
-13.74
-12.15
-9.28
-5.67
-1.85
1.81
5.11
7.95
10.21
11.63
11.88
10.69
7.96
3.92
-0.92
-5.96
-10.62
-14.55
-17.65
-20.14
-22.38
-24.73
-27.42
-30.35
-33.12
-35.11
-35.65
-34.26
-30.85
-25.71
-19.50
-12.98
-6.89
-1.76
2.21
5.11
7.22
8.85
10.19
11.28
12.01
12.23
11.83
10.79
9.15
7.05
4.69
2.37
0.45
-0.74
-1.03
-0.47
0.66
1.92
2.86
3.18
2.70
1.40
-0.64
-3.28
-6.34
-9.61
-12.80
-15.64
-17.86
-19.26
-19.69
-19.10
-17.50
-15.01
-11.90
-8.52
-5.25
-2.43
-0.18
1.59
3.13
4.72
6.53
8.54
10.56
12.34
13.74
14.77
15.55
16.21
16.79
17.16
17.06
16.28
14.78
12.83
10.91
9.60
9.32
10.20
12.03
14.39
16.85
19.08
20.85
21.97
22.16
21.08
18.39
13.93
7.86
0.60
-7.25
-15.10
-22.52
-29.22
-35.04
-39.90
-43.70
-46.28
-47.49
-47.16
-45.17
-41.60
-36.71
-31.00
-25.07
-19.42
-14.25
-9.45
-4.66
0.49
6.08
11.88
17.33
21.78
24.70
25.82
25.24
23.31
20.55
17.52
14.65
12.25
10.50
9.55
9.55
10.69
13.17
17.03
22.03
27.52
32.55
35.97
36.78
34.40
28.96
21.41
13.28
6.33
2.00
0.97
3.04
7.30
12.52
17.52
21.46
23.82
24.31
22.78
19.19
13.74
6.92
-0.48
-7.56
-13.54
-18.00
-20.92
-22.61
-23.51
-23.96
-24.12
-24.01
-23.62
-23.01
-22.35
-21.84
-21.63
-21.75
-22.06
-22.37
-22.53
-22.48
-22.23
-21.85
-21.43
-21.08
-20.98
-21.29
-22.08
-23.25
-24.42
-25.09
-24.71
-22.97
-19.90
-15.88
-11.49
-7.36
-3.98
-1.58
-0.16
0.44
0.49
0.25
-0.10
-0.44
-0.75
-1.00
-1.14
-1.11
-0.94
-0.71
-0.57
-0.66
-0.98
-1.41
-1.76
-1.91
-1.87
-1.79
-1.86
-2.15
-2.55
-2.80
-2.69
-2.15
-1.42
-0.94
-1.19
-2.47
-4.74
-7.51
-10.06
-11.57
-11.45
-9.47
-5.85
-1.12
4.02
8.87
12.85
15.48
16.44
15.56
12.95
9.09
4.75
0.92
-1.49
-1.95
-0.43
2.56
6.13
9.31
11.32
11.83
11.01
9.47
8.04
7.42
7.92
9.35
11.05
12.21
12.14
10.49
7.27
2.75
-2.70
-8.63
-14.60
-20.16
-24.87
-28.41
-30.57
-31.33
-30.75
-28.90
-25.93
-22.03
-17.50
-12.70
-8.01
-3.73
-0.05
2.92
5.04
6.23
6.52
6.06
5.23
4.45
4.07
4.23
4.89
5.93
7.31
9.13
11.56
14.69
18.44
22.58
26.74
30.60
33.90
36.45
38.15
38.94
38.82
37.90
36.33
34.28
31.81
28.86
25.28
20.95
15.92
10.49
5.07
0.17
-3.86
-6.84
-8.79
-9.84
-10.16
-9.88
-9.21
-8.35
-7.56
-7.05
-6.84
-6.76
-6.47
-5.64
-4.10
-1.94
0.51
2.81
4.48
5.16
4.59
2.71
-0.35
-4.16
-8.08
-11.37
-13.40
-13.90
-12.96
-11.06
-8.90
-7.16
-6.37
-6.81
-8.46
-11.06
-14.23
-17.48
-20.37
-22.51
-23.65
-23.65
-22.51
-20.34
-17.34
-13.71
-9.62
-5.17
-0.45
4.37
9.03
13.09
16.08
17.64
17.65
16.33
14.21
12.00
10.38
9.81
10.39
11.88
13.82
15.68
17.07
17.81
17.89
17.38
16.31
14.66
12.42
9.61
6.35
2.83
-0.76
-4.30
-7.76
-11.15
-14.47
-17.66
-20.54
-22.85
-24.31
-24.61
-23.56
-21.10
-17.44
-12.95
-8.11
-3.35
1.07
5.06
8.61
11.65
14.04
15.56
16.07
15.63
14.53
13.18
11.95
11.04
10.48
10.18
10.01
9.86
9.66
9.35
8.85
8.11
7.03
5.59
3.78
1.67
-0.69
-3.20
-5.82
-8.54
-11.37
-14.27
-17.14
-19.79
-21.99
-23.54
-24.27
-24.07
-22.90
-20.79
-17.85
-14.31
-10.45
-6.55
-2.80
0.73
4.10
7.36
10.46
13.16
15.17
16.18
16.08
14.94
13.04
10.73
8.35
6.19
4.49
3.43
3.12
3.55
4.54
5.70
6.60
6.83
6.17
4.60
2.34
-0.33
-3.10
-5.79
-8.28
-10.55
-12.68
-14.78
-17.02
-19.50
-22.18
-24.74
-26.68
-27.38
-26.41
-23.66
-19.44
-14.35
-9.03
-3.92
0.83
5.40
10.08
15.18
20.82
26.96
33.38
39.69
45.40
49.91
52.63
53.05
50.94
46.43
40.02
32.53
24.86
17.88
12.20
8.13
5.70
4.74
4.89
5.69
6.52
6.73
5.69
3.00
-1.44
-7.35
-14.17
-21.16
-27.59
-32.80
-36.34
-37.98
-37.74
-35.91
-32.96
-29.49
-26.10
-23.26
-21.26
-20.16
-19.80
-19.82
-19.77
-19.13
-17.51
-14.73
-10.82
-6.05
-0.83
4.39
9.16
13.06
15.80
17.23
17.40
16.59
15.14
13.40
11.55
9.68
7.80
5.97
4.32
2.95
1.82
0.64
-1.05
-3.72
-7.55
-12.30
-17.32
-21.70
-24.59
-25.49
-24.34
-21.46
-17.38
-12.65
-7.64
-2.65
2.07
6.20
9.40
11.39
12.16
11.92
11.05
9.89
8.58
7.02
5.06
2.70
0.24
-1.73
-2.57
-1.83
0.59
4.41
9.15
14.34
19.61
24.76
29.62
34.01
37.58
39.95
40.77
39.90
37.51
34.08
30.23
26.60
23.63
21.47
20.01
18.90
17.73
16.15
13.88
10.83
7.05
2.73
-1.83
-6.31
-10.43
-13.99
-16.94
-19.29
-21.12
-22.48
-23.38
-23.86
-23.97
-23.81
-23.52
-23.18
-22.83
-22.43
-21.96
-21.39
-20.77
-20.18
-19.69
-19.37
-19.24
-19.34
-19.66
-20.15
-20.76
-21.40
-21.97
-22.38
-22.53
-22.25
-21.36
-19.64
-16.94
-13.22
-8.58
-3.30
2.32
7.94
13.29
18.07
21.99
24.77
26.21
26.26
25.11
23.13
20.76
18.43
16.44
14.94
13.96
13.46
13.33
13.39
13.35
12.82
11.48
9.10
5.76
1.78
-2.35
-6.13
-9.19
-11.37
-12.60
-12.90
-12.31
-10.92
-8.98
-6.93
-5.26
-4.30
-4.04
-4.07
-3.69
-2.27
0.45
4.16
8.15
11.57
13.78
14.52
13.91
12.30
10.07
7.53
4.90
2.38
0.16
-1.62
-2.90
-3.74
-4.32
-4.89
-5.67
-6.79
-8.28
-10.11
-12.12
-14.12
-15.91
-17.31
-18.22
-18.68
-18.81
-18.74
-18.59
-18.40
-18.20
-18.01
-17.88
-17.79
-17.59
-16.99
-15.57
-12.93
-8.91
-3.69
2.16
7.87
12.67
16.03
17.73
17.95
17.14
15.87
14.68
13.89
13.58
13.52
13.30
12.53
10.95
8.59
5.75
2.89
0.50
-1.06
-1.66
-1.43
-0.70
0.05
0.35
-0.10
-1.33
-2.99
-4.56
-5.44
-5.27
-4.08
-2.28
-0.59
0.25
-0.31
-2.35
-5.51
-8.94
-11.62
-12.61
-11.35
-7.84
-2.65
3.29
8.92
13.37
16.16
17.20
16.82
15.57
14.05
12.75
11.91
11.44
10.96
10.02
8.32
5.89
3.19
0.97
-0.06
0.45
2.35
4.96
7.33
8.62
8.33
6.41
3.20
-0.67
-4.54
-7.81
-10.04
-11.07
-11.08
-10.54
-10.16
-10.58
-12.16
-14.80
-18.00
-21.01
-23.12
-23.88
-23.17
-21.14
-18.15
-14.63
-11.00
-7.63
-4.83
-2.81
-1.66
-1.37
-1.80
-2.73
-3.79
-4.63
-4.87
-4.24
-2.63
-0.07
3.25
7.08
11.18
15.36
19.45
23.26
26.62
29.35
31.31
32.44
32.84
32.73
32.41
32.13
32.06
32.20
32.40
32.49
32.31
31.79
30.90
29.60
27.82
25.40
22.20
18.17
13.48
8.44
3.52
-0.90
-4.56
-7.40
-9.52
-11.07
-12.21
-13.02
-13.57
-13.97
-14.32
-14.72
-15.22
-15.87
-16.74
-17.95
-19.59
-21.61
-23.80
-25.78
-27.11
-27.51
-27.00
-25.82
-24.31
-22.71
-21.09
-19.48
-17.87
-16.29
-14.80
-13.45
-12.23
-11.04
-9.71
-8.21
-6.63
-5.15
-3.92
-3.06
-2.68
-2.78
-3.09
-3.07
-2.20
-0.18
2.97
6.83
10.78
14.17
16.68
18.55
20.54
23.23
26.79
30.94
35.15
38.89
41.79
42.32
39.19
32.07
21.68
9.46
-3.02
-14.35
-23.43
-29.63
-32.82
-34.09
-33.64
-31.55
-28.06
-23.48
-18.23
-12.83
-7.97
-3.76
-1.01
-0.08
-0.82
-2.56
-4.45
-5.77
-6.21
-6.21
-6.14
-6.35
-6.78
-7.27
-7.72
-8.09
-8.42
-8.84
-9.47
-10.13
-10.82
-11.42
-11.89
-12.32
-12.89
-13.80
-15.21
-17.22
-19.74
-22.67
-25.67
-28.39
-30.60
-32.22
-33.41
-34.47
-35.70
-37.30
-39.27
-41.29
-42.80
-43.22
-42.09
-39.29
-35.01
-29.69
-23.95
-18.47
-13.86
-10.52
-8.59
-7.92
-8.14
-8.74
-9.20
-9.14
-8.35
-6.73
-4.22
-0.76
3.59
8.63
14.01
19.37
24.43
29.13
33.57
38.20
43.41
49.33
55.72
62.07
67.82
72.52
75.93
78.06
79.46
80.69
81.97
83.06
83.44
82.65
80.56
77.33
73.35
69.73
67.37
66.54
66.77
67.18
67.00
65.79
63.31
59.39
54.83
50.52
47.20
45.28
45.00
46.62
50.17
55.08
55.36
46.96
29.41
6.61
-15.95
-34.43
-47.72
-56.68
-63.11
-69.23
-75.03
-79.40
-81.24
-80.39
-77.76
-75.01
-72.77
-71.93
-73.40
-76.60
-80.30
-83.13
-84.29
-83.59
-81.27
-77.73
-71.10
-61.33
-49.60
-37.92
-27.88
-20.10
-14.50
-10.71
-8.27
-6.84
-6.44
-6.57
-6.52
-5.70
-4.14
-2.02
0.23
2.26
3.80
4.59
4.77
4.72
4.79
5.06
5.43
5.63
5.56
5.24
4.48
3.32
1.91
0.33
-1.48
-3.68
-6.39
-9.49
-12.63
-15.39
-17.34
-18.21
-17.93
-16.68
-14.77
-12.60
-10.49
-8.69
-7.33
-6.36
-5.54
-4.57
-3.16
-1.19
1.26
3.99
6.79
9.53
12.21
14.84
17.42
19.85
21.98
23.67
24.79
25.28
25.08
24.21
22.72
20.76
18.54
16.32
14.32
12.64
11.27
10.02
8.64
6.90
4.75
2.33
0.02
-1.67
-2.30
-1.66
0.15
2.77
5.73
8.62
11.20
13.40
15.21
16.55
17.29
17.30
16.53
15.15
13.48
11.85
10.50
9.41
8.43
7.34
5.99
4.42
2.77
1.22
-0.15
-1.35
-2.51
-3.73
-5.04
-6.33
-7.49
-8.42
-9.12
-9.67
-10.21
-10.85
-11.59
-12.37
-13.06
-13.56
-13.73
-13.45
-12.60
-11.04
-8.72
-5.71
-2.24
1.34
4.65
7.43
9.55
11.04
11.97
12.39
12.34
11.85
11.04
10.11
9.33
8.89
8.84
9.02
9.15
9.00
8.42
7.46
6.23
4.85
3.40
1.87
0.29
-1.32
-2.85
-4.26
-5.53
-6.70
-7.84
-9.00
-10.15
-11.21
-12.06
-12.64
-12.92
-12.91
-12.59
-11.87
-10.62
-8.75
-6.30
-3.43
-0.44
2.36
4.75
6.63
8.05
9.08
9.73
9.97
9.76
9.11
8.16
7.16
6.33
5.86
5.72
5.81
5.92
5.91
5.68
5.28
4.78
4.24
3.67
3.06
2.33
1.48
0.54
-0.42
-1.33
-2.18
-3.02
-3.95
-5.07
-6.38
-7.81
-9.13
-10.08
-10.40
-9.94
-8.70
-6.78
-4.42
-1.88
0.58
2.76
4.54
5.83
6.59
6.84
6.61
5.97
5.07
4.05
3.13
2.49
2.27
2.47
2.95
3.48
3.81
3.79
3.39
2.76
2.10
1.56
1.21
0.95
0.65
0.17
-0.52
-1.33
-2.11
-2.71
-3.07
-3.25
-3.41
-3.73
-4.27
-4.95
-5.48
-5.51
-4.74
-3.09
-0.68
2.15
5.00
7.57
9.70
11.43
12.83
13.94
14.73
15.08
14.90
14.24
13.26
12.22
11.37
10.82
10.52
10.34
10.12
9.79
9.41
9.09
8.94
8.95
8.97
8.76
8.09
6.88
5.20
3.30
1.40
-0.34
-1.93
-3.46
-5.09
-6.92
-9.01
-11.37
-14.02
-16.86
-19.68
-22.06
-23.53
-23.71
-22.47
-20.05
-16.93
-13.65
-10.61
-7.96
-5.71
-3.82
-2.30
-1.25
-0.74
-0.72
-0.99
-1.25
-1.22
-0.80
-0.08
0.73
1.41
1.85
2.05
2.09
2.03
1.85
1.48
0.87
0.02
-0.96
-1.96
-2.86
-3.61
-4.23
-4.73
-5.15
-5.54
-5.97
-6.54
-7.32
-8.32
-9.44
-10.45
-11.10
-11.10
-10.30
-8.70
-6.42
-3.76
-1.06
1.36
3.26
4.52
5.19
5.37
5.22
4.85
4.29
3.56
2.67
1.66
0.64
-0.26
-0.92
-1.30
-1.43
-1.40
-1.28
-1.15
-1.05
-1.01
-1.08
-1.34
-1.83
-2.52
-3.34
-4.18
-4.95
-5.58
-6.09
-6.51
-6.89
-7.30
-7.77
-8.32
-8.89
-9.32
-9.35
-8.73
-7.29
-5.05
-2.24
0.81
3.76
6.36
8.50
10.15
11.28
11.83
11.80
11.24
10.31
9.24
8.23
7.40
6.79
6.35
6.01
5.72
5.41
5.04
4.54
3.92
3.20
2.42
1.61
0.74
-0.22
-1.28
-2.35
-3.33
-4.12
-4.73
-5.21
-5.67
-6.14
-6.56
-6.79
-6.71
-6.25
-5.40
-4.20
-2.68
-0.88
1.11
3.17
5.10
6.73
7.95
8.75
9.19
9.32
9.19
8.78
8.12
7.26
6.32
5.39
4.52
3.70
2.94
2.24
1.68
1.31
1.17
1.21
1.29
1.24
0.90
0.18
-0.90
-2.23
-3.63
-4.89
-5.89
-6.59
-7.07
-7.51
-8.06
-8.80
-9.72
-10.76
-11.82
-12.79
-13.52
-13.78
-13.26
-11.69
-8.88
-4.89
-0.01
5.30
10.52
15.09
18.55
20.57
21.08
20.29
18.70
16.91
15.48
14.67
14.37
14.23
13.82
12.81
11.03
8.53
5.48
2.14
-1.25
-4.48
-7.34
-9.66
-11.40
-12.55
-13.16
-13.17
-12.38
-10.57
-7.77
-4.42
-1.42
-0.04
-1.39
-5.80
-12.46
-19.56
-24.97
-27.13
-25.46
-20.40
-13.08
-4.82
3.37
10.88
17.46
22.94
27.15
30.07
31.93
32.83
32.40
29.96
25.12
18.44
11.41
5.77
2.03
0.32
0.26
1.23
2.67
4.25
5.77
7.66
9.64
11.18
11.92
11.67
10.54
8.88
7.13
5.56
4.10
2.21
-0.71
-5.03
-10.81
-17.67
-24.79
-31.10
-35.55
-37.48
-36.88
-34.23
-30.32
-25.99
-21.93
-18.53
-15.90
-13.99
-12.71
-12.06
-12.01
-12.44
-13.17
-13.94
-14.52
-14.74
-14.56
-14.05
-13.42
-12.83
-12.39
-12.12
-11.97
-11.85
-11.69
-11.47
-11.20
-10.94
-10.71
-10.49
-10.25
-9.94
-9.59
-9.34
-9.37
-9.87
-10.97
-12.58
-14.45
-16.11
-17.06
-16.82
-15.12
-11.94
-7.53
-2.38
2.94
7.90
12.14
15.47
17.89
19.49
20.38
20.69
20.56
20.22
19.91
19.82
20.03
20.44
20.83
21.00
20.83
20.34
19.62
18.71
17.55
15.97
13.81
11.05
7.81
4.36
0.98
-2.17
-5.09
-7.85
-10.61
-13.48
-16.52
-19.80
-23.32
-26.96
-30.40
-33.11
-34.49
-34.06
-31.64
-27.48
-22.09
-16.06
-9.91
-3.98
1.51
6.35
10.34
13.32
15.26
16.31
16.78
16.95
17.00
16.92
16.61
15.94
14.92
13.60
12.12
10.58
9.00
7.34
5.53
3.51
1.24
-1.29
-4.02
-6.80
-9.41
-11.60
-13.27
-14.47
-15.44
-16.54
-18.04
-20.07
-22.44
-24.74
-26.45
-27.09
-26.42
-24.35
-21.06
-16.86
-12.13
-7.16
-2.17
2.64
7.08
10.98
14.40
17.49
20.40
23.24
26.05
28.83
31.48
33.95
36.17
38.52
41.24
44.35
47.47
50.14
52.04
52.98
53.07
52.48
51.93
51.95
52.54
53.26
53.59
53.32
52.44
51.29
50.15
49.91
51.12
53.72
56.99
60.11
62.44
63.50
63.24
56.85
42.09
20.31
-3.86
-25.65
-42.45
-53.07
-59.57
-63.63
-66.41
-67.99
-68.42
-67.99
-67.37
-66.97
-66.73
-66.38
-65.38
-63.44
-59.95
-54.69
-48.02
-40.88
-34.13
-28.38
-24.06
-21.25
-19.84
-19.14
-18.32
-16.75
-14.13
-10.03
-4.13
3.56
12.70
22.56
32.50
41.95
50.42
55.51
55.33
49.55
39.80
28.57
17.74
8.20
0.20
-6.37
-11.64
-15.44
-17.71
-18.49
-18.23
-17.64
-17.50
-18.39
-20.55
-23.93
-27.20
-29.23
-29.38
-27.85
-25.42
-23.05
-21.35
-20.40
-19.83
-18.98
-17.41
-15.11
-12.68
-10.46
-8.70
-7.39
-6.36
-5.36
-4.17
-2.83
-1.60
-0.81
-0.65
-1.06
-1.64
-1.92
-1.31
0.62
3.94
8.28
13.03
17.53
21.27
24.02
25.79
26.73
26.97
26.50
25.28
23.28
20.61
17.47
14.16
11.02
8.34
6.29
4.91
4.15
3.88
3.94
4.15
4.30
4.17
3.57
2.43
0.78
-1.15
-3.07
-4.74
-6.07
-7.14
-8.15
-9.23
-10.39
-11.54
-12.57
-13.47
-14.27
-15.02
-15.63
-15.84
-15.27
-13.57
-10.53
-6.11
-0.40
6.31
13.45
20.04
24.70
26.02
23.10
16.13
6.55
-3.34
-11.16
-15.27
-15.32
-12.16
-7.29
-2.26
1.83
4.48
5.64
5.54
4.49
2.84
0.97
-0.76
-2.03
-2.71
-2.80
-2.51
-2.13
-1.99
-2.35
-3.32
-4.87
-6.77
-8.74
-10.55
-12.06
-13.26
-14.21
-14.88
-15.08
-14.58
-13.12
-10.60
-7.15
-3.06
1.27
5.46
9.18
12.18
14.29
15.45
15.66
15.07
13.91
12.43
10.88
9.41
8.09
6.95
6.01
5.24
4.63
4.16
3.77
3.44
3.12
2.74
2.27
1.62
0.74
-0.39
-1.68
-3.00
-4.17
-5.06
-5.68
-6.11
-6.52
-7.04
-7.80
-8.85
-10.14
-11.54
-12.85
-13.82
-14.17
-13.68
-12.27
-10.07
-7.37
-4.54
-1.95
0.08
1.28
1.50
0.68
-1.11
-3.75
-7.00
-10.49
-13.77
-16.46
-18.25
-18.91
-18.27
-16.32
-13.29
-9.59
-5.48
-1.19
2.99
6.67
9.50
11.32
12.16
12.33
12.28
12.97
15.19
19.15
24.38
30.04
35.34
39.76
43.06
45.30
47.24
49.67
53.04
57.27
62.02
66.92
71.66
75.92
75.99
69.45
56.43
39.80
23.21
9.19
-1.26
-8.09
-11.75
-12.81
-11.58
-8.36
-3.84
0.87
4.67
6.91
7.64
7.45
7.11
7.63
9.94
13.93
18.51
22.15
23.44
21.58
16.44
8.54
-0.87
-10.43
-19.12
-26.44
-32.32
-36.97
-40.77
-44.13
-47.43
-50.71
-53.70
-55.95
-56.90
-56.00
-52.92
-47.67
-40.64
-32.55
-24.20
-16.32
-9.52
-4.23
-0.61
1.41
2.09
1.80
0.93
-0.22
-1.41
-2.50
-3.38
-3.98
-4.27
-4.32
-4.26
-4.26
-4.40
-4.59
-4.61
-4.24
-3.37
-2.07
-0.65
0.56
1.30
1.49
1.25
0.85
0.51
0.34
0.26
-0.03
-0.87
-2.59
-5.30
-8.85
-12.79
-16.45
-19.03
-19.83
-18.41
-14.71
-9.11
-2.38
4.49
10.55
15.10
17.82
18.76
18.30
16.93
15.10
13.12
11.09
9.02
6.88
4.67
2.46
0.33
-1.66
-3.59
-5.56
-7.70
-9.99
-12.29
-14.41
-16.25
-17.91
-19.82
-22.52
-26.49
-31.87
-38.32
-45.00
-50.86
-54.96
-56.84
-56.73
-55.50
-54.43
-54.80
-57.45
-62.54
-69.32
-76.22
-81.14
-81.85
-76.62
-64.74
-46.81
-24.71
-1.10
21.34
40.48
55.24
65.51
71.89
75.26
76.51
76.37
75.34
73.82
72.04
70.13
68.08
65.78
63.09
59.85
56.01
51.60
46.75
41.61
36.31
30.89
25.34
19.66
13.94
8.37
3.12
-1.72
-6.25
-10.77
-15.72
-21.50
-28.36
-36.25
-44.73
-52.91
-59.51
-63.06
-62.37
-56.87
-47.00
-34.11
-20.16
-7.08
3.68
11.46
16.32
18.75
19.40
18.94
18.04
17.37
17.55
18.92
21.41
24.46
27.23
28.96
29.26
28.23
26.35
24.22
22.23
20.46
18.68
16.54
13.81
10.46
6.71
2.95
-0.38
-2.98
-4.79
-6.01
-7.07
-8.48
-10.61
-13.58
-17.09
-20.52
-22.99
-23.65
-21.93
-17.71
-11.43
-3.98
3.54
10.07
14.89
17.71
18.70
18.33
17.26
16.11
15.39
15.38
16.11
17.31
18.57
19.37
19.32
18.20
16.11
13.34
10.35
7.52
5.04
2.81
0.52
-2.26
-5.83
-10.30
-15.49
-21.06
-26.67
-32.06
-37.15
-41.97
-46.62
-51.11
-55.34
-59.03
-61.76
-63.01
-62.27
-59.21
-53.80
-46.43
-37.81
-28.87
-20.45
-13.12
-7.04
-2.08
2.05
5.47
7.98
9.09
8.11
4.42
-2.27
-11.76
-23.40
-36.13
-48.69
-59.82
-68.41
-73.70
-75.38
-73.59
-68.93
-62.27
-54.58
-46.74
-39.36
-32.82
-27.22
-22.58
-18.91
-16.31
-15.00
-15.17
-16.85
-19.69
-22.90
-25.35
-25.85
-23.54
-18.11
-9.92
0.18
11.13
21.94
31.87
40.43
47.32
52.38
55.53
56.82
56.46
54.81
52.32
49.37
46.18
42.77
39.05
34.94
30.50
26.04
21.98
18.71
16.51
15.38
15.14
15.51
16.21
17.00
17.63
17.89
17.59
16.70
15.30
13.63
11.95
10.47
9.33
8.65
8.58
9.35
11.15
14.08
18.04
22.79
28.08
33.76
39.75
45.95
52.06
57.51
61.52
63.43
62.99
60.48
56.69
52.61
49.07
46.50
44.82
43.61
42.32
40.56
38.18
35.24
31.87
28.14
24.01
19.43
14.46
9.34
4.53
0.49
-2.41
-4.07
-4.71
-4.76
-4.75
-5.20
-6.52
-8.94
-12.39
-16.49
-20.60
-23.86
-25.53
-25.20
-22.94
-19.32
-15.17
-11.25
-7.96
-5.21
-2.50
0.78
4.87
9.38
13.20
14.97
13.60
8.90
1.70
-6.43
-13.82
-19.33
-22.68
-24.29
-24.84
-24.90
-24.67
-24.16
-23.40
-22.63
-22.22
-22.47
-23.44
-24.84
-26.21
-27.08
-27.25
-26.78
-26.02
-25.32
-24.91
-24.73
-24.42
-23.41
-21.20
-17.50
-12.40
-6.29
0.23
6.53
12.13
16.78
20.44
23.27
25.57
27.68
29.93
32.47
35.30
38.24
41.01
43.41
45.29
46.57
47.21
47.04
45.90
43.68
40.48
36.56
32.31
28.06
23.92
19.74
15.27
10.29
4.75
-1.21
-7.28
-13.16
-18.61
-23.48
-27.68
-31.08
-33.54
-34.92
-35.06
-33.97
-31.79
-28.81
-25.28
-21.37
-17.22
-12.95
-8.70
-4.59
-0.73
2.79
5.89
8.57
10.86
12.74
14.12
14.87
15.03
14.65
13.83
12.58
11.07
9.45
7.84
6.19
4.37
2.51
0.74
-0.92
-2.78
-4.76
-6.58
-8.01
-8.98
-9.65
-9.73
-9.19
-8.29
-7.95
-8.14
-8.26
-7.54
-5.52
-2.15
3.24
10.80
19.96
28.84
36.73
43.64
49.93
55.80
61.38
67.92
76.22
86.05
95.15
102.51
107.77
111.03
112.25
104.13
83.39
52.46
24.56
2.20
-15.44
-31.31
-46.15
-60.01
-72.58
-82.35
-88.49
-91.47
-93.78
-96.51
-99.93
-103.72
-107.63
-111.21
-112.90
-111.30
-105.66
-96.75
-84.70
-69.79
-52.81
-35.27
-18.91
-4.78
6.24
12.86
13.41
8.62
1.35
-4.98
-8.16
-7.56
-3.60
2.45
8.93
14.68
19.25
22.60
24.79
25.88
26.10
25.82
25.37
24.36
22.58
19.93
16.34
11.78
6.39
0.82
-4.08
-7.48
-8.94
-8.33
-6.12
-3.19
-0.43
0.96
0.33
-2.09
-5.43
-8.82
-11.61
-13.56
-14.72
-15.20
-15.44
-15.06
-13.62
-11.02
-7.39
-3.05
1.50
5.66
8.95
11.09
12.08
12.14
11.49
10.53
9.79
9.69
10.43
12.08
14.62
18.02
21.89
25.13
26.64
25.70
22.21
16.54
9.42
1.58
-6.52
-14.88
-24.11
-34.22
-44.20
-52.34
-56.93
-56.86
-51.94
-42.91
-28.86
-11.86
4.01
15.24
20.71
21.33
18.80
14.70
10.26
6.23
2.52
-0.96
-4.11
-6.71
-8.63
-9.76
-10.01
-9.29
-7.74
-5.95
-4.34
-2.93
-1.51
0.05
1.60
2.78
3.15
2.39
0.31
-2.77
-6.07
-8.71
-10.03
-9.78
-8.03
-5.09
-1.37
2.58
6.31
9.53
12.12
14.09
15.48
16.38
16.88
17.01
16.73
16.04
14.98
13.62
11.96
9.93
7.42
4.40
1.01
-2.51
-5.79
-8.45
-10.34
-11.24
-11.11
-10.13
-8.65
-7.12
-5.93
-5.29
-5.18
-5.38
-5.57
-5.53
-5.20
-4.66
-4.05
-3.49
-2.99
-2.47
-1.80
-0.84
0.54
2.37
4.66
7.33
10.19
12.98
15.33
16.89
17.38
16.60
14.49
11.11
6.62
1.31
-4.41
-10.03
-15.03
-18.99
-21.70
-23.16
-23.61
-23.35
-22.69
-21.91
-21.20
-20.71
-20.63
-21.09
-22.13
-23.64
-25.36
-26.93
-27.97
-28.15
-27.29
-25.43
-22.76
-19.52
-15.98
-12.32
-8.65
-4.92
-1.00
3.27
7.90
12.73
17.57
22.07
25.88
28.75
30.73
32.10
33.26
34.34
35.19
35.69
35.68
34.98
33.54
31.55
29.45
27.68
26.37
25.38
24.73
24.22
23.44
22.01
20.06
18.47
18.44
20.76
25.56
32.54
40.64
48.30
54.26
58.39
62.04
67.17
75.58
83.63
87.30
83.53
70.73
47.95
14.43
-29.05
-78.33
-125.32
-159.03
-171.35
-158.08
-120.88
-67.40
-9.00
42.92
80.07
94.46
85.34
60.09
29.44
1.91
-18.64
-32.10
-39.94
-43.53
-43.68
-40.37
-34.22
-26.50
-19.58
-15.47
-14.72
-16.24
-18.05
-18.46
-16.29
-11.73
-6.20
-1.70
0.32
-0.37
-2.72
-5.10
-6.11
-4.80
-1.20
3.73
8.56
12.15
13.98
14.29
13.71
12.92
12.53
12.70
13.20
13.61
13.66
13.38
12.96
12.59
12.17
11.36
9.70
6.83
2.82
-1.75
-5.98
-9.00
-10.34
-10.09
-8.78
-7.07
-5.47
-4.15
-3.06
-2.02
-0.92
0.22
1.26
2.05
2.46
2.40
1.82
0.68
-0.97
-3.03
-5.29
-7.59
-9.75
-11.68
-13.26
-14.37
-14.84
-14.61
-13.78
-12.66
-11.72
-11.36
-11.80
-12.93
-14.44
-15.86
-16.82
-17.11
-16.73
-15.81
-14.61
-13.36
-12.29
-11.50
-10.97
-10.59
-10.23
-9.76
-9.10
-8.29
-7.39
-6.48
-5.64
-4.96
-4.55
-4.48
-4.78
-5.37
-6.05
-6.48
-6.36
-5.43
-3.62
-1.09
1.85
4.76
7.31
9.27
10.61
11.43
11.89
12.12
12.19
12.09
11.79
11.30
10.72
10.21
9.93
10.01
10.44
11.11
11.83
12.42
12.77
12.86
12.74
12.48
12.11
11.65
11.07
10.40
9.65
8.87
8.08
7.24
6.32
5.28
4.09
2.82
1.59
0.58
-0.08
-0.28
-0.08
0.35
0.82
1.12
1.20
1.12
1.03
1.03
1.17
1.37
1.54
1.63
1.68
1.81
2.11
2.60
3.20
3.76
4.18
4.43
4.58
4.70
4.84
4.99
5.08
5.05
4.84
4.45
3.88
3.13
2.22
1.18
0.07
-1.02
-2.02
-2.93
-3.84
-4.86
-6.11
-7.59
-9.23
-10.80
-12.03
-12.64
-12.43
-11.36
-9.54
-7.22
-4.73
-2.42
-0.51
0.88
1.77
2.27
2.52
2.62
2.68
2.77
2.93
3.22
3.62
4.08
4.45
4.63
4.57
4.31
3.98
3.74
3.69
3.80
3.93
3.90
3.53
2.80
1.78
0.68
-0.22
-0.73
-0.74
-0.33
0.27
0.68
0.47
-0.69
-2.92
-6.07
-9.69
-13.21
-16.09
-18.01
-18.92
-19.08
-18.88
-18.67
-18.62
-18.76
-18.99
-19.23
-19.49
-19.85
-20.35
-20.91
-21.32
-21.27
-20.58
-19.21
-17.37
-15.36
-13.47
-11.81
-10.40
-9.15
-8.01
-7.03
-6.26
-5.79
-5.63
-5.70
-5.90
-6.09
-6.18
-6.10
-5.82
-5.40
-4.95
-4.60
-4.44
-4.39
-4.26
-3.74
-2.57
-0.61
2.09
5.28
8.66
11.89
14.71
16.91
18.35
18.98
18.83
18.07
16.91
15.55
14.10
12.51
10.62
8.32
5.61
2.59
-0.52
-3.52
-6.29
-8.82
-11.11
-13.19
-15.04
-16.60
-17.80
-18.55
-18.76
-18.36
-17.34
-15.80
-13.97
-12.16
-10.69
-9.75
-9.24
-8.81
-7.92
-6.09
-3.06
1.12
6.10
11.39
16.56
21.31
25.54
29.21
32.29
34.64
36.10
36.51
35.78
33.98
31.29
27.98
24.35
20.70
17.25
14.12
11.32
8.81
6.53
4.42
2.45
0.60
-1.21
-3.02
-4.86
-6.64
-8.18
-9.32
-9.93
-10.06
-9.93
-9.78
-9.82
-10.12
-10.63
-11.19
-11.65
-11.83
-11.58
-10.76
-9.25
-7.09
-4.44
-1.61
1.05
3.25
4.91
6.07
6.86
7.41
7.72
7.76
7.45
6.80
5.93
5.05
4.37
4.04
4.13
4.60
5.36
6.24
7.07
7.72
8.08
8.13
7.87
7.35
6.60
5.65
4.54
3.33
2.10
0.90
-0.28
-1.56
-3.14
-5.21
-7.83
-10.88
-14.05
-16.87
-18.87
-19.67
-19.15
-17.38
-14.64
-11.29
-7.66
-4.06
-0.72
2.15
4.37
5.84
6.57
6.74
6.62
6.51
6.63
7.02
7.62
8.27
8.83
9.21
9.41
9.47
9.45
9.39
9.20
8.77
7.98
6.84
5.47
4.12
2.99
2.17
1.49
0.66
-0.61
-2.49
-4.90
-7.60
-10.25
-12.55
-14.21
-15.04
-14.89
-13.75
-11.80
-9.43
-7.10
-5.19
-3.85
-2.92
-2.15
-1.32
-0.44
0.23
0.36
-0.31
-1.79
-3.83
-6.06
-8.11
-9.77
-10.95
-11.75
-12.28
-12.68
-13.06
-13.50
-14.03
-14.65
-15.36
-16.15
-17.03
-17.97
-18.93
-19.79
-20.47
-20.88
-21.03
-20.97
-20.82
-20.73
-20.76
-20.92
-21.02
-20.72
-19.62
-17.37
-13.84
-9.24
-4.03
1.21
6.00
10.05
13.33
15.86
17.67
18.69
18.82
18.12
16.84
15.40
14.26
13.76
13.96
14.69
15.66
16.62
17.50
18.37
19.37
20.55
21.81
22.90
23.55
23.55
22.90
21.71
20.19
18.52
16.77
14.95
13.05
11.11
9.15
7.24
5.39
3.57
1.77
0.11
-1.18
-1.78
-1.43
-0.08
2.05
4.53
6.90
8.80
10.12
10.92
11.36
11.57
11.59
11.35
10.80
9.92
8.82
7.66
6.65
5.95
5.67
5.79
6.18
6.63
6.96
7.05
6.90
6.59
6.23
5.87
5.50
5.06
4.50
3.83
3.07
2.24
1.23
-0.10
-1.94
-4.34
-7.19
-10.23
-13.13
-15.66
-17.69
-19.27
-20.46
-21.32
-21.85
-22.00
-21.72
-21.04
-20.11
-19.12
-18.26
-17.62
-17.16
-16.77
-16.25
-15.44
-14.20
-12.47
-10.27
-7.70
-4.96
-2.26
0.19
2.28
3.97
5.27
6.21
6.77
6.91
6.62
5.95
5.00
3.90
2.76
1.62
0.42
-0.90
-2.37
-3.92
-5.49
-6.96
-8.24
-9.26
-9.89
-9.99
-9.38
-7.98
-5.81
-3.08
-0.10
2.84
5.47
7.67
9.36
10.50
11.07
11.02
10.35
9.11
7.45
5.53
3.56
1.79
0.38
-0.53
-0.96
-0.98
-0.80
-0.61
-0.58
-0.79
-1.23
-1.88
-2.68
-3.52
-4.29
-4.86
-5.15
-5.17
-5.00
-4.80
-4.73
-4.89
-5.30
-5.86
-6.41
-6.73
-6.49
-5.42
-3.35
-0.36
3.20
6.91
10.33
13.13
15.13
16.28
16.64
16.33
15.51
14.43
13.64
13.64
14.70
16.66
19.06
21.19
22.35
22.06
20.20
17.29
14.05
11.11
8.87
7.61
7.54
8.85
11.51
15.26
19.84
24.69
29.06
32.25
33.89
34.02
32.83
30.42
24.66
14.82
2.20
-10.37
-20.17
-25.82
-27.34
-25.53
-21.52
-16.47
-11.16
-6.48
-3.38
-2.66
-4.34
-7.51
-10.55
-11.84
-10.58
-7.07
-2.85
-0.12
-0.64
-4.91
-11.97
-19.85
-26.65
-30.80
-31.29
-27.87
-21.06
-12.09
-2.75
4.95
9.01
8.59
4.26
-2.30
-9.06
-14.40
-17.57
-18.64
-18.16
-16.76
-15.00
-12.89
-10.41
-7.57
-4.44
-1.16
2.03
4.79
6.77
7.76
7.86
7.39
6.80
6.48
6.58
7.04
7.64
8.14
8.39
8.33
7.83
6.87
5.53
4.12
3.09
3.09
4.17
5.71
6.63
5.97
3.51
-0.19
-4.06
-7.08
-8.77
-9.42
-9.63
-9.98
-10.88
-11.92
-12.47
-11.90
-9.86
-6.48
-2.36
2.01
6.20
10.07
13.71
17.25
20.65
23.54
25.33
24.76
21.71
16.96
11.75
7.41
4.76
3.76
3.84
4.24
4.42
4.34
4.02
3.25
1.69
-1.15
-5.44
-11.23
-18.52
-27.11
-36.37
-44.08
-48.12
-47.36
-42.32
-34.76
-26.80
-20.16
-16.51
-14.93
-14.23
-13.52
-12.27
-10.30
-7.67
-4.09
0.14
4.47
8.46
11.52
13.12
13.04
11.53
9.35
7.40
6.37
6.72
8.70
12.09
16.33
20.84
25.05
28.65
31.38
32.96
33.20
32.20
30.04
26.91
23.05
17.94
11.84
5.64
0.45
-2.80
-3.69
-2.65
-1.01
-0.11
-1.13
-4.50
-9.94
-16.65
-23.66
-29.63
-33.64
-35.23
-34.40
-31.47
-26.85
-21.02
-14.52
-7.75
-0.93
5.78
12.21
18.07
22.87
26.15
27.68
27.57
26.31
24.56
22.84
21.33
19.92
18.26
16.00
12.90
8.81
3.73
-2.23
-8.92
-16.05
-23.23
-29.94
-35.59
-39.69
-41.94
-42.42
-41.58
-40.15
-38.88
-38.24
-38.21
-38.34
-37.97
-36.50
-33.70
-29.66
-24.74
-19.31
-13.64
-7.85
-2.05
3.56
8.67
12.95
16.21
18.44
19.80
20.53
20.80
20.68
20.20
19.42
18.45
17.48
16.62
15.91
15.22
14.35
13.13
11.47
9.43
7.16
4.81
2.50
0.20
-2.13
-4.59
-7.25
-10.07
-12.87
-15.30
-16.86
-17.04
-15.50
-12.23
-7.55
-2.08
3.53
8.78
13.43
17.44
20.84
23.63
25.74
27.12
27.83
28.08
28.15
28.25
28.43
28.54
28.30
27.38
25.55
22.71
18.88
14.18
8.81
2.96
-3.10
-9.09
-14.70
-19.71
-23.98
-27.52
-30.44
-32.92
-35.10
-37.12
-39.02
-40.74
-42.13
-42.83
-42.38
-40.36
-36.54
-31.10
-24.55
-17.61
-10.95
-4.99
0.16
4.57
8.33
11.44
13.81
15.35
16.07
16.14
15.80
15.31
14.83
14.43
14.13
13.93
13.83
13.82
13.90
14.04
14.20
14.32
14.28
13.99
13.39
12.47
11.29
9.97
8.58
7.18
5.71
4.09
2.33
0.56
-0.91
-1.65
-1.28
0.36
3.18
6.81
10.76
14.53
17.81
20.44
22.43
23.81
24.60
24.78
24.33
23.27
21.73
19.87
17.85
15.87
14.03
12.43
11.13
10.11
9.33
8.74
8.24
7.75
7.21
6.60
5.92
5.19
4.46
3.79
3.22
2.76
2.33
1.88
1.25
0.29
-1.08
-2.74
-4.33
-5.34
-5.24
-3.70
-0.67
3.52
8.18
12.52
15.88
17.92
18.64
18.17
16.72
14.52
11.70
8.19
3.93
-1.00
-6.27
-11.42
-16.04
-19.80
-22.33
-23.38
-22.91
-21.15
-18.57
-15.77
-13.38
-11.77
-11.70
-12.79
-13.45
-11.87
-7.42
-0.99
5.67
10.90
13.87
14.69
14.25
13.53
13.03
12.64
12.04
11.00
9.38
7.09
3.95
-0.30
-5.80
-12.31
-19.58
-26.73
-32.65
-36.51
-38.11
-37.84
-36.35
-34.06
-31.10
-27.34
-22.54
-16.64
-9.95
-3.09
3.31
8.01
10.28
10.06
7.81
4.36
0.55
-2.97
-5.82
-7.89
-9.24
-9.93
-10.07
-9.85
-9.48
-9.14
-8.89
-8.77
-8.41
-7.48
-5.71
-3.10
0.03
3.14
5.69
7.29
7.82
7.45
6.46
5.26
4.17
3.40
3.06
3.16
3.61
4.28
5.07
5.83
6.51
7.13
7.56
7.72
7.59
7.21
6.71
6.26
5.94
5.71
5.41
4.88
4.11
3.24
2.50
2.03
1.73
1.28
0.32
-1.36
-3.64
-6.02
-7.81
-8.42
-7.53
-5.19
-1.83
1.97
5.59
8.55
10.63
11.82
12.30
12.27
11.88
11.19
10.27
9.20
8.13
7.30
6.90
6.99
7.41
7.89
8.19
8.17
7.85
7.37
6.88
6.44
6.04
5.50
4.68
3.49
1.94
0.10
-1.94
-4.07
-6.20
-8.23
-10.23
-12.24
-14.20
-15.93
-17.19
-17.74
-17.44
-16.36
-14.74
-13.16
-12.12
-11.89
-12.39
-13.37
-14.51
-15.55
-16.39
-17.03
-17.81
-18.92
-20.22
-21.30
-21.66
-21.12
-20.00
-19.10
-17.81
-16.14
-14.38
-12.96
-12.05
-11.49
-11.00
-10.20
-8.67
-5.96
-2.01
2.99
8.45
13.57
17.55
19.91
20.71
20.56
20.34
20.60
21.56
22.99
24.37
25.27
25.35
24.56
23.04
20.92
17.95
13.68
7.66
-0.16
-9.14
-18.01
-25.15
-29.07
-28.91
-24.83
-17.74
-9.04
-0.15
7.88
14.35
19.01
21.93
23.44
23.38
22.07
19.97
17.13
13.80
10.07
5.94
1.55
-2.72
-6.37
-8.95
-10.78
-12.06
-12.94
-13.61
-14.15
-14.54
-14.77
-14.92
-14.65
-13.89
-12.61
-10.83
-8.58
-5.90
-2.80
0.66
4.29
7.86
11.10
13.87
16.06
17.63
18.65
19.36
20.03
20.89
21.45
21.17
19.65
16.75
12.69
7.94
3.09
-1.41
-5.36
-8.82
-12.03
-15.12
-18.21
-21.28
-24.15
-26.54
-28.19
-28.92
-28.69
-28.06
-26.64
-24.15
-20.31
-14.96
-8.23
-0.62
7.07
13.92
19.23
22.73
24.55
25.07
24.61
23.27
21.13
18.42
15.66
13.47
12.07
11.70
12.20
13.05
13.30
12.31
10.09
7.17
4.15
1.43
-0.94
-3.21
-5.79
-9.16
-13.06
-16.34
-17.62
-16.11
-12.05
-6.61
-1.65
0.79
-1.26
-8.43
-19.45
-31.72
-42.30
-48.39
-47.72
-38.96
-20.04
6.24
32.09
49.42
54.53
48.67
36.12
21.96
10.23
2.87
-0.83
-2.61
-3.85
-5.17
-6.58
-7.84
-8.75
-9.43
-10.32
-12.25
-15.41
-19.04
-21.84
-23.04
-22.24
-19.88
-16.87
-14.24
-12.80
-12.55
-12.70
-12.22
-10.55
-7.87
-4.97
-2.90
-2.48
-4.14
-7.48
-11.41
-14.64
-16.19
-15.64
-13.20
-9.43
-4.94
-0.61
3.02
5.68
7.30
7.93
7.69
6.88
5.96
5.50
5.89
7.38
9.81
12.84
16.00
18.93
21.39
23.18
24.03
23.58
21.53
17.79
12.53
6.28
-0.26
-6.32
-11.27
-14.75
-16.69
-17.22
-16.60
-15.22
-13.48
-11.82
-10.42
-9.43
-8.98
-9.12
-9.71
-10.31
-10.40
-9.41
-7.00
-2.77
3.26
10.62
18.42
25.80
32.13
36.99
40.34
42.24
43.38
44.35
45.29
45.90
45.85
45.05
43.64
42.02
40.59
40.45
42.36
46.41
51.87
57.61
62.54
65.66
66.49
60.52
46.12
25.71
4.55
-12.93
-25.29
-32.70
-37.75
-42.01
-46.12
-49.33
-50.86
-50.46
-48.56
-45.83
-42.82
-39.86
-36.96
-34.11
-30.73
-26.42
-21.36
-16.27
-11.91
-8.70
-6.74
-5.80
-5.80
-6.34
-7.19
-8.32
-9.81
-11.56
-13.38
-14.98
-16.25
-17.58
-19.24
-21.19
-23.04
-24.37
-24.79
-24.67
-24.11
-23.37
-22.73
-22.20
-21.55
-20.52
-18.94
-16.18
-12.05
-6.73
-1.00
4.06
7.64
9.48
9.87
9.54
9.81
11.97
16.85
24.44
34.06
44.78
55.66
65.65
70.97
68.37
56.99
39.47
20.42
3.91
-7.79
-14.42
-17.23
-18.13
-18.25
-17.76
-16.12
-12.86
-8.16
-2.87
1.78
4.62
4.95
3.13
0.15
-3.31
-6.26
-8.23
-9.23
-9.52
-9.31
-8.61
-7.17
-4.94
-2.17
0.44
2.01
2.10
1.07
-0.13
-0.56
0.42
2.80
6.07
9.64
13.06
16.10
18.67
20.73
22.00
22.06
20.56
17.42
12.96
7.76
2.46
-2.35
-6.40
-9.69
-12.48
-15.09
-17.68
-20.24
-22.59
-24.46
-25.57
-25.72
-24.87
-23.11
-20.76
-18.35
-16.65
-16.45
-18.29
-22.10
-27.05
-31.79
-34.90
-35.43
-33.21
-28.78
-23.09
-16.94
-10.80
-4.76
1.13
6.61
11.08
13.75
14.05
11.90
7.84
2.82
-2.17
-6.49
-9.98
-12.86
-15.44
-17.89
-20.07
-21.66
-22.34
-22.05
-21.06
-19.84
-18.88
-18.49
-18.63
-19.00
-19.17
-18.86
-17.98
-16.68
-15.27
-14.06
-13.25
-12.91
-12.91
-13.05
-13.00
-12.41
-10.92
-8.30
-4.49
0.31
5.74
11.31
16.54
21.04
24.58
27.06
28.48
28.89
28.40
27.16
25.43
23.50
21.68
20.21
19.20
18.59
18.23
17.93
17.51
16.90
16.09
15.13
14.05
12.92
11.76
10.61
9.53
8.57
7.75
7.02
6.28
5.38
4.22
2.79
1.24
-0.19
-1.15
-1.27
-0.28
1.93
5.22
9.23
13.42
17.23
20.21
22.13
23.01
23.03
22.42
21.34
19.91
18.19
16.33
14.46
12.75
11.23
9.80
8.24
6.28
3.75
0.62
-3.02
-6.98
-11.09
-15.23
-19.31
-23.26
-27.02
-30.47
-33.54
-36.19
-38.46
-40.48
-42.39
-44.32
-46.27
-48.10
-49.55
-50.32
-50.18
-49.10
-47.19
-44.71
-41.93
-39.03
-36.07
-33.01
-29.76
-26.22
-22.30
-17.89
-12.87
-7.12
-0.55
6.81
14.81
23.19
31.62
39.74
47.26
53.93
59.60
64.13
67.50
69.72
70.86
71.05
70.43
69.12
67.18
64.61
61.41
57.64
53.43
48.95
44.36
39.71
35.02
30.31
25.71
21.51
18.06
15.63
14.27
13.75
13.70
13.73
13.56
13.12
12.45
11.58
10.52
9.23
7.71
6.03
4.38
2.97
1.94
1.30
0.90
0.57
0.16
-0.39
-1.07
-1.87
-2.78
-3.84
-5.06
-6.42
-7.84
-9.26
-10.63
-12.01
-13.46
-15.05
-16.75
-18.49
-20.13
-21.57
-22.75
-23.59
-23.91
-23.48
-22.03
-19.44
-15.84
-11.62
-7.32
-3.42
-0.22
2.25
4.06
5.29
5.94
5.94
5.23
3.94
2.32
0.75
-0.47
-1.23
-1.54
-1.57
-1.47
-1.35
-1.22
-1.11
-1.02
-1.04
-1.25
-1.69
-2.34
-3.09
-3.81
-4.39
-4.82
-5.16
-5.52
-5.98
-6.55
-7.15
-7.69
-8.05
-8.15
-7.91
-7.25
-6.13
-4.55
-2.62
-0.57
1.35
2.86
3.80
4.17
4.09
3.74
3.31
2.89
2.50
2.07
1.60
1.10
0.68
0.43
0.41
0.54
0.71
0.77
0.63
0.33
-0.04
-0.34
-0.50
-0.49
-0.40
-0.30
-0.29
-0.42
-0.71
-1.16
-1.75
-2.42
-3.11
-3.72
-4.14
-4.26
-3.99
-3.29
-2.22
-0.86
0.62
2.07
3.34
4.37
5.12
5.57
5.72
5.54
5.06
4.30
3.39
2.45
1.63
1.02
0.66
0.54
0.57
0.64
0.68
0.64
0.52
0.34
0.14
-0.09
-0.38
-0.79
-1.35
-2.05
-2.80
-3.45
-3.92
-4.18
-4.31
-4.48
-4.82
-5.39
-6.08
-6.67
-6.87
-6.47
-5.39
-3.75
-1.80
0.18
1.94
3.35
4.38
5.05
5.41
5.47
5.27
4.85
4.27
3.66
3.13
2.80
2.74
2.93
3.34
3.88
4.47
5.05
5.58
5.99
6.24
6.26
6.03
5.54
4.84
4.00
3.07
2.08
1.03
-0.08
-1.27
-2.53
-3.89
-5.36
-6.99
-8.70
-10.36
-11.68
-12.36
-12.19
-11.11
-9.30
-7.14
-5.04
-3.37
-2.28
-1.78
-1.73
-1.98
-2.42
-3.02
-3.74
-4.51
-5.21
-5.70
-5.87
-5.73
-5.37
-4.96
-4.65
-4.49
-4.45
-4.46
-4.45
-4.42
-4.41
-4.48
-4.65
-4.91
-5.18
-5.36
-5.40
-5.32
-5.20
-5.20
-5.45
-6.03
-6.84
-7.71
-8.39
-8.69
-8.49
-7.79
-6.66
-5.17
-3.41
-1.48
0.44
2.10
3.27
3.79
3.65
3.03
2.15
1.26
0.50
-0.03
-0.34
-0.44
-0.36
-0.17
0.08
0.28
0.38
0.36
0.24
0.05
-0.20
-0.57
-1.10
-1.81
-2.65
-3.50
-4.22
-4.75
-5.09
-5.32
-5.55
-5.85
-6.25
-6.72
-7.18
-7.54
-7.73
-7.62
-7.12
-6.16
-4.71
-2.86
-0.77
1.37
3.35
5.05
6.37
7.31
7.88
8.10
8.05
7.75
7.31
6.80
6.33
5.97
5.78
5.72
5.73
5.72
5.60
5.35
4.97
4.48
3.87
3.08
2.04
0.70
-0.91
-2.65
-4.30
-5.67
-6.64
-7.25
-7.63
-8.00
-8.53
-9.31
-10.34
-11.51
-12.63
-13.44
-13.69
-13.19
-11.86
-9.76
-7.15
-4.34
-1.67
0.64
2.48
3.83
4.73
5.16
5.13
4.62
3.76
2.70
1.72
1.03
0.74
0.81
1.06
1.30
1.41
1.39
1.35
1.41
1.59
1.82
1.91
1.70
1.11
0.25
-0.72
-1.59
-2.30
-2.84
-3.34
-3.91
-4.60
-5.37
-6.14
-6.84
-7.34
-7.56
-7.34
-6.54
-5.05
-2.86
-0.05
3.17
6.55
9.78
12.59
14.74
16.12
16.73
16.71
16.31
15.81
15.44
15.40
15.73
16.40
17.20
17.84
17.94
17.23
15.60
13.16
10.23
7.14
4.11
1.20
-1.63
-4.42
-7.15
-9.68
-11.88
-13.65
-15.02
-16.06
-16.88
-17.55
-18.14
-18.72
-19.36
-20.07
-20.77
-21.21
-21.10
-20.15
-18.28
-15.57
-12.28
-8.68
-4.94
-1.20
2.44
5.77
8.49
10.26
10.94
10.61
9.63
8.47
7.53
7.01
6.89
7.00
7.17
7.28
7.29
7.18
6.94
6.56
6.02
5.35
4.57
3.69
2.70
1.58
0.32
-1.03
-2.39
-3.68
-4.84
-5.89
-6.88
-7.89
-8.99
-10.24
-11.55
-12.77
-13.55
-13.51
-12.38
-10.08
-6.85
-3.16
0.47
3.59
6.03
7.75
8.84
9.36
9.33
8.76
7.76
6.52
5.30
4.32
3.70
3.38
3.26
3.19
3.13
3.08
3.10
3.18
3.25
3.16
2.79
2.08
1.10
-0.05
-1.23
-2.37
-3.38
-4.23
-4.89
-5.37
-5.75
-6.20
-6.90
-7.93
-9.19
-10.33
-10.91
-10.52
-8.97
-6.33
-2.93
0.76
4.28
7.26
9.51
10.95
11.63
11.66
11.18
10.37
9.39
8.40
7.51
6.75
6.13
5.58
5.11
4.73
4.47
4.32
4.21
4.01
3.62
3.00
2.23
1.40
0.64
-0.03
-0.64
-1.24
-1.86
-2.45
-2.93
-3.24
-3.43
-3.60
-3.90
-4.37
-4.91
-5.26
-5.13
-4.25
-2.55
-0.19
2.51
5.14
7.35
8.93
9.85
10.21
10.18
9.94
9.55
9.02
8.32
7.45
6.50
5.59
4.88
4.40
4.07
3.72
3.20
2.47
1.61
0.78
0.08
-0.47
-0.97
-1.59
-2.47
-3.64
-5.02
-6.44
-7.71
-8.73
-9.49
-10.14
-10.84
-11.73
-12.80
-13.85
-14.57
-14.62
-13.73
-11.81
-8.94
-5.39
-1.48
2.45
6.08
9.14
11.47
12.94
13.52
13.25
12.30
10.94
9.47
8.13
7.07
6.34
5.84
5.46
5.07
4.58
3.91
3.02
1.91
0.61
-0.80
-2.29
-3.83
-5.44
-7.16
-8.92
-10.61
-12.07
-13.17
-13.88
-14.26
-14.40
-14.36
-14.18
-13.83
-13.28
-12.45
-11.27
-9.62
-7.37
-4.49
-1.08
2.58
6.16
9.31
11.84
13.69
14.94
15.66
15.91
15.67
14.95
13.83
12.47
11.13
10.02
9.22
8.70
8.29
7.83
7.22
6.50
5.79
5.23
4.85
4.56
4.17
3.50
2.48
1.17
-0.23
-1.53
-2.60
-3.45
-4.15
-4.83
-5.59
-6.46
-7.43
-8.46
-9.51
-10.48
-11.20
-11.45
-11.02
-9.76
-7.68
-4.97
-1.93
1.08
3.73
5.82
7.21
7.90
7.93
7.38
6.37
5.06
3.67
2.46
1.66
1.38
1.58
2.04
2.49
2.64
2.40
1.78
0.97
0.19
-0.41
-0.80
-1.10
-1.52
-2.22
-3.24
-4.46
-5.61
-6.41
-6.70
-6.48
-5.95
-5.38
-5.05
-5.14
-5.70
-6.67
-7.89
-9.11
-10.02
-10.30
-9.66
-8.02
-5.48
-2.33
1.06
4.31
7.12
9.33
10.83
11.65
11.83
11.52
10.90
10.16
9.46
8.89
8.42
7.98
7.50
6.92
6.26
5.57
4.95
4.44
4.09
3.86
3.69
3.46
3.05
2.38
1.44
0.29
-0.92
-2.05
-2.98
-3.67
-4.15
-4.51
-4.83
-5.26
-5.85
-6.65
-7.58
-8.45
-8.97
-8.86
-7.97
-6.33
-4.15
-1.72
0.66
2.82
4.66
6.12
7.11
7.53
7.29
6.44
5.16
3.78
2.60
1.83
1.48
1.45
1.53
1.57
1.48
1.26
0.93
0.53
0.09
-0.34
-0.69
-0.91
-1.00
-1.08
-1.29
-1.77
-2.52
-3.39
-4.17
-4.66
-4.84
-4.86
-4.99
-5.50
-6.51
-7.97
-9.58
-10.94
-11.63
-11.34
-9.99
-7.75
-4.91
-1.83
1.17
3.88
6.14
7.85
8.91
9.26
8.96
8.14
7.01
5.82
4.74
3.88
3.28
2.91
2.74
2.72
2.75
2.72
2.55
2.24
1.82
1.37
0.89
0.34
-0.37
-1.29
-2.35
-3.36
-4.15
-4.61
-4.80
-4.89
-5.11
-5.56
-6.20
-6.90
-7.54
-8.06
-8.44
-8.63
-8.49
-7.81
-6.39
-4.25
-1.60
1.19
3.74
5.79
7.27
8.20
8.65
8.62
8.10
7.14
5.86
4.51
3.29
2.38
1.79
1.46
1.29
1.21
1.19
1.25
1.34
1.40
1.33
1.01
0.39
-0.52
-1.62
-2.77
-3.80
-4.59
-5.11
-5.42
-5.65
-5.97
-6.50
-7.31
-8.36
-9.48
-10.39
-10.76
-10.33
-8.98
-6.81
-4.10
-1.21
1.54
3.96
5.96
7.49
8.49
8.85
8.52
7.60
6.33
5.08
4.17
3.75
3.75
3.94
4.05
3.88
3.44
2.83
2.23
1.78
1.46
1.17
0.72
0.01
-0.96
-2.03
-3.04
-3.86
-4.46
-4.97
-5.54
-6.26
-7.17
-8.21
-9.26
-10.23
-10.95
-11.24
-10.90
-9.76
-7.77
-5.08
-2.00
1.10
3.91
6.25
8.08
9.36
10.10
10.25
9.83
8.94
7.78
6.59
5.55
4.75
4.15
3.69
3.29
2.96
2.71
2.56
2.45
2.28
1.94
1.33
0.44
-0.68
-1.86
-2.93
-3.76
-4.28
-4.54
-4.68
-4.88
-5.27
-5.92
-6.80
-7.76
-8.57
-8.96
-8.65
-7.47
-5.41
-2.60
0.69
4.15
7.49
10.47
12.90
14.62
15.49
15.45
14.56
12.99
11.01
8.88
6.83
5.01
3.48
2.29
1.38
0.69
0.10
-0.52
-1.34
-2.44
-3.83
-5.39
-6.91
-8.17
-8.98
-9.33
-9.37
-9.33
-9.43
-9.78
-10.37
-11.14
-12.08
-13.21
-14.50
-15.80
-16.71
-16.73
-15.43
-12.73
-8.90
-4.50
-0.16
3.66
6.73
9.05
10.70
11.74
12.23
12.20
11.71
10.88
9.87
8.85
8.00
7.40
7.09
6.96
6.83
6.53
5.96
5.16
4.30
3.54
2.93
2.38
1.71
0.77
-0.45
-1.81
-3.12
-4.19
-4.99
-5.62
-6.27
-7.07
-8.09
-9.24
-10.35
-11.18
-11.51
-11.14
-9.97
-8.00
-5.33
-2.21
1.08
4.18
6.80
8.74
9.95
10.48
10.44
9.92
9.05
7.88
6.57
5.29
4.26
3.65
3.50
3.67
3.92
3.99
3.74
3.19
2.46
1.68
0.90
0.08
-0.82
-1.82
-2.88
-3.87
-4.73
-5.47
-6.17
-6.90
-7.72
-8.60
-9.48
-10.36
-11.21
-11.99
-12.54
-12.57
-11.74
-9.87
-7.00
-3.46
0.27
3.76
6.73
9.15
11.05
12.46
13.32
13.49
12.94
11.75
10.19
8.62
7.32
6.44
5.92
5.62
5.38
5.11
4.80
4.52
4.31
4.14
3.86
3.33
2.45
1.22
-0.20
-1.62
-2.86
-3.84
-4.60
-5.21
-5.72
-6.15
-6.50
-6.82
-7.20
-7.73
-8.41
-9.10
-9.50
-9.27
-8.18
-6.22
-3.54
-0.49
2.59
5.34
7.55
9.07
9.82
9.84
9.22
8.12
6.77
5.39
4.17
3.24
2.64
2.33
2.19
2.10
1.95
1.66
1.22
0.63
-0.14
-1.09
-2.23
-3.54
-4.93
-6.30
-7.56
-8.70
-9.76
-10.87
-12.13
-13.62
-15.35
-17.20
-18.99
-20.44
-21.24
-21.01
-19.40
-16.12
-11.06
-4.24
4.06
13.38
23.14
32.77
41.79
49.91
56.95
62.86
67.56
70.91
72.80
73.19
72.18
69.99
66.92
63.25
59.20
54.97
50.77
46.86
43.47
40.68
38.33
35.96
32.99
28.87
23.35
16.57
9.05
1.47
-5.52
-11.50
-16.37
-20.37
-23.91
-27.50
-31.52
-36.17
-41.37
-46.77
-51.81
-55.83
-58.29
-58.83
-57.39
-54.25
-49.88
-44.86
-39.75
-35.06
-31.13
-28.24
-26.48
-25.82
-26.06
-26.88
-27.94
-28.96
-29.82
-30.60
-31.48
-32.54
-33.64
-34.32
-34.01
-32.24
-28.95
-24.56
-19.81
-15.53
-12.29
-10.26
-9.29
-9.09
-9.39
-9.98
-10.66
-11.20
-11.36
-11.06
-10.46
-9.90
-9.77
-10.22
-11.05
-11.80
-11.96
-11.19
-9.42
-6.79
-3.53
0.19
4.28
8.62
12.97
16.84
19.64
20.77
19.95
17.29
13.31
8.80
4.42
0.60
-2.50
-4.84
-6.23
-6.24
-4.43
-0.66
4.57
10.20
14.93
17.79
18.57
17.82
16.56
15.78
15.96
16.93
18.00
18.31
17.26
14.75
11.24
7.52
4.50
2.83
2.86
4.50
7.42
11.12
15.08
18.86
22.09
24.41
25.48
25.02
22.95
19.48
15.17
10.82
7.22
4.85
3.63
2.98
2.10
0.40
-2.21
-5.25
-8.04
-10.03
-11.18
-11.88
-12.74
-14.20
-16.30
-18.60
-20.57
-21.87
-22.68
-23.54
-25.06
-27.47
-30.41
-32.99
-34.21
-33.34
-30.15
-24.85
-17.80
-9.28
0.48
11.11
21.87
31.61
39.06
43.27
43.90
41.35
36.42
30.03
22.94
15.67
8.57
2.05
-3.45
-7.49
-9.74
-10.13
-8.84
-6.31
-3.16
-0.09
2.20
3.19
2.64
0.66
-2.29
-5.59
-8.59
-10.86
-12.21
-12.67
-12.50
-12.02
-11.59
-11.50
-11.89
-12.68
-13.52
-13.89
-13.27
-11.31
-8.01
-3.72
0.96
5.41
9.11
11.76
13.22
13.51
12.80
11.39
9.70
8.21
7.33
7.19
7.60
8.03
7.81
6.38
3.54
-0.46
-4.99
-9.27
-12.66
-14.87
-16.02
-16.49
-16.63
-16.66
-16.55
-16.23
-15.71
-15.24
-15.19
-15.86
-17.34
-19.38
-21.51
-23.12
-23.73
-23.04
-21.07
-18.05
-14.41
-10.58
-6.90
-3.46
-0.05
3.80
8.63
14.80
22.22
30.30
37.95
43.94
47.22
47.25
44.22
39.00
32.85
27.06
22.58
19.83
18.71
18.79
19.48
20.27
20.78
20.75
20.01
18.42
15.90
12.50
8.41
3.95
-0.49
-4.63
-8.33
-11.61
-14.54
-17.08
-19.03
-20.09
-20.01
-18.82
-16.89
-14.91
-13.62
-13.54
-14.69
-16.58
-18.33
-19.03
-18.02
-15.13
-10.64
-5.22
0.30
5.13
8.73
10.91
11.86
12.13
12.42
13.34
15.18
17.74
20.36
22.16
22.29
20.32
16.35
10.99
5.17
-0.16
-4.26
-6.80
-7.89
-7.95
-7.54
-7.13
-6.94
-6.98
-7.06
-6.92
-6.40
-5.45
-4.18
-2.78
-1.46
-0.32
0.69
1.77
3.21
5.22
7.86
10.94
13.99
16.41
17.61
17.24
15.30
12.17
8.47
4.91
2.08
0.31
-0.36
-0.12
0.68
1.61
2.23
2.08
0.79
-1.93
-6.10
-11.45
-17.42
-23.29
-28.35
-32.13
-34.51
-35.69
-36.15
-36.43
-36.95
-37.95
-39.41
-41.12
-42.76
-43.98
-44.41
-43.76
-41.78
-38.45
-33.95
-28.74
-23.49
-18.83
-15.20
-12.64
-10.79
-8.97
-6.52
-2.98
1.68
7.09
12.63
17.61
21.52
24.07
25.30
25.59
25.57
26.02
27.64
30.74
35.11
40.00
44.36
47.30
48.41
47.84
46.11
43.73
40.89
37.33
32.56
26.17
18.15
8.92
-0.74
-10.00
-18.12
-24.56
-28.95
-31.05
-30.72
-28.03
-23.29
-17.12
-10.30
-3.69
2.02
6.42
9.40
11.14
11.93
12.13
12.06
11.94
11.90
11.93
11.90
11.57
10.67
9.00
6.52
3.38
-0.09
-3.55
-6.68
-9.36
-11.55
-13.34
-14.77
-15.88
-16.69
-17.23
-17.63
-18.02
-18.52
-19.12
-19.72
-20.14
-20.20
-19.78
-18.77
-17.08
-14.63
-11.41
-7.52
-3.24
1.04
4.94
8.19
10.74
12.72
14.32
15.62
16.59
17.07
16.91
16.10
14.87
13.58
12.61
12.21
12.35
12.79
13.18
13.27
12.93
12.21
11.26
10.23
9.20
8.22
7.25
6.21
5.02
3.62
2.00
0.27
-1.41
-2.86
-3.99
-4.87
-5.61
-6.30
-6.80
-6.81
-6.01
-4.27
-1.86
0.58
2.31
2.85
2.26
1.10
0.23
0.39
1.86
4.38
7.33
9.99
11.81
12.48
11.95
10.32
7.77
4.61
1.28
-1.69
-3.70
-4.34
-3.45
-1.27
1.68
4.69
7.11
8.54
8.90
8.40
7.44
6.34
5.26
4.19
3.02
1.72
0.40
-0.64
-1.05
-0.49
1.29
4.36
8.56
13.43
18.29
22.25
24.49
24.51
22.29
18.30
13.35
8.27
3.72
0.08
-2.54
-4.16
-4.85
-4.71
-3.84
-2.41
-0.61
1.33
3.22
4.80
5.84
6.09
5.37
3.63
1.00
-2.23
-5.62
-8.75
-11.25
-12.96
-13.89
-14.18
-14.00
-13.42
-12.46
-11.08
-9.33
-7.42
-5.61
-4.15
-3.05
-2.14
-1.12
0.24
1.96
3.91
5.85
7.63
9.21
10.69
12.18
13.80
15.55
17.40
19.21
20.77
21.85
22.30
22.06
21.22
19.87
18.00
15.46
11.96
7.24
1.28
-5.68
-13.07
-20.26
-26.69
-32.06
-36.35
-39.76
-42.53
-44.84
-46.72
-48.07
-48.82
-49.01
-48.84
-48.57
-48.33
-48.00
-47.23
-45.58
-42.75
-38.75
-33.87
-28.53
-23.11
-17.85
-12.84
-8.17
-3.98
-0.49
2.13
3.81
4.67
4.96
5.00
5.04
5.23
5.62
6.18
6.83
7.48
8.03
8.39
8.53
8.44
8.14
7.64
6.96
6.11
5.14
4.18
3.35
2.73
2.33
2.04
1.71
1.17
0.33
-0.82
-2.14
-3.40
-4.27
-4.48
-3.85
-2.38
-0.27
2.16
4.59
6.78
8.62
10.11
11.22
11.88
12.02
11.61
10.76
9.71
8.73
7.98
7.50
7.20
6.98
6.79
6.65
6.59
6.58
6.46
6.07
5.30
4.17
2.88
1.68
0.76
0.17
-0.15
-0.32
-0.44
-0.61
-0.88
-1.32
-1.93
-2.63
-3.25
-3.53
-3.24
-2.27
-0.66
1.41
3.68
5.91
7.92
9.58
10.79
11.49
11.68
11.41
10.82
10.08
9.35
8.73
8.28
7.96
7.70
7.40
7.00
6.47
5.84
5.16
4.47
3.79
3.09
2.33
1.47
0.53
-0.47
-1.49
-2.49
-3.49
-4.48
-5.47
-6.41
-7.24
-7.92
-8.39
-8.59
-8.41
-7.71
-6.39
-4.43
-1.97
0.73
3.36
5.66
7.52
8.93
9.99
10.79
11.40
11.80
11.98
11.96
11.82
11.70
11.71
11.90
12.22
12.56
12.78
12.77
12.51
12.04
11.45
10.77
10.03
9.19
8.24
7.21
6.17
5.19
4.30
3.50
2.74
1.95
1.09
0.15
-0.82
-1.76
-2.57
-3.10
-3.21
-2.77
-1.75
-0.23
1.56
3.38
4.98
6.25
7.17
7.78
8.16
8.36
8.42
8.36
8.22
8.01
7.74
7.36
6.90
6.39
5.93
5.66
5.70
6.13
6.91
7.94
9.11
10.38
11.79
13.50
15.69
18.47
21.75
25.18
28.23
30.24
30.61
28.90
24.95
18.95
11.48
3.49
-3.85
-9.52
-12.88
-13.86
-12.93
-10.80
-8.15
-5.43
-2.78
-0.26
2.11
4.23
6.00
7.28
7.79
7.14
4.84
0.58
-5.46
-12.49
-19.16
-23.99
-25.81
-24.09
-18.95
-11.02
-1.13
9.79
20.78
30.83
38.96
44.37
46.62
45.66
41.83
35.69
27.81
18.71
8.82
-1.48
-11.72
-21.38
-29.77
-36.11
-39.71
-40.13
-37.44
-32.23
-25.54
-18.52
-12.14
-6.96
-3.08
-0.37
1.38
2.24
2.23
1.44
0.14
-1.24
-2.24
-2.55
-2.18
-1.36
-0.45
0.26
0.72
1.04
1.42
1.93
2.44
2.65
2.23
0.99
-1.04
-3.57
-6.21
-8.62
-10.63
-12.26
-13.66
-14.95
-16.19
-17.37
-18.46
-19.54
-20.67
-21.94
-23.22
-24.23
-24.54
-23.82
-21.97
-19.18
-15.89
-12.63
-9.87
-7.96
-7.15
-7.64
-9.49
-12.64
-16.77
-21.27
-25.35
-28.22
-29.31
-28.49
-26.02
-22.50
-18.59
-14.83
-11.50
-8.61
-6.02
-3.55
-1.11
1.30
3.61
5.70
7.40
8.50
8.78
8.09
6.42
4.01
1.26
-1.38
-3.51
-4.93
-5.60
-5.61
-5.09
-4.20
-3.13
-2.12
-1.43
-1.27
-1.73
-2.72
-4.08
-5.59
-7.11
-8.52
-9.77
-10.72
-11.19
-10.99
-10.02
-8.34
-6.16
-3.79
-1.50
0.53
2.23
3.68
4.98
6.31
7.80
9.50
11.40
13.38
15.26
16.85
17.97
18.46
18.17
17.01
14.94
12.02
8.39
4.29
-0.03
-4.40
-8.66
-12.67
-16.19
-18.88
-20.37
-20.36
-18.80
-15.93
-12.22
-8.21
-4.32
-0.77
2.41
5.26
7.73
9.69
10.97
11.51
11.46
11.14
10.89
10.90
11.09
11.22
11.05
10.56
9.97
9.68
9.98
10.92
12.22
13.43
14.10
14.05
13.43
12.63
12.04
11.85
11.91
11.71
10.67
8.27
4.29
-1.08
-7.31
-13.66
-19.30
-23.49
-25.71
-25.72
-23.63
-19.84
-14.91
-9.38
-3.60
2.35
8.43
14.55
20.26
24.87
27.63
28.08
26.30
22.90
18.82
14.90
11.66
9.21
7.38
5.99
4.96
4.35
4.24
4.51
4.83
4.69
3.60
1.33
-1.95
-5.72
-9.31
-12.13
-13.91
-14.76
-15.04
-15.24
-15.73
-16.76
-18.40
-20.59
-23.18
-25.83
-28.11
-29.52
-29.63
-28.23
-25.39
-21.45
-16.90
-12.25
-7.94
-4.33
-1.62
0.08
0.81
0.73
0.12
-0.67
-1.32
-1.62
-1.47
-0.94
-0.22
0.47
0.97
1.31
1.66
2.27
3.38
5.09
7.29
9.71
12.01
13.90
15.17
15.71
15.46
14.41
12.53
9.73
5.92
1.01
-4.98
-11.81
-19.00
-25.77
-31.16
-34.25
-34.38
-31.35
-25.62
-18.26
-10.68
-4.27
0.02
1.90
1.80
0.52
-1.13
-2.64
-3.91
-5.08
-6.36
-7.85
-9.54
-11.41
-13.56
-16.13
-19.26
-22.86
-26.57
-29.82
-32.06
-32.97
-32.53
-31.07
-29.06
-27.02
-25.22
-23.74
-22.39
-20.82
-18.65
-15.62
-11.67
-6.97
-1.85
3.29
8.17
12.68
16.89
21.07
25.49
30.44
36.10
42.52
49.58
56.97
64.19
70.67
75.80
79.11
80.27
79.13
75.70
70.16
62.93
54.58
45.78
37.16
29.14
21.87
15.28
9.16
3.32
-2.38
-7.99
-13.46
-18.71
-23.55
-27.77
-31.11
-33.29
-34.04
-33.18
-30.65
-26.69
-21.90
-17.24
-13.81
-12.55
-13.86
-17.40
-22.16
-26.78
-30.05
-31.25
-30.38
-27.96
-24.74
-21.31
-17.95
-14.61
-11.14
-7.43
-3.62
-0.02
2.99
5.19
6.59
7.40
7.93
8.42
8.94
9.40
9.66
9.61
9.27
8.74
8.13
7.44
6.55
5.26
3.44
1.20
-1.16
-3.21
-4.66
-5.45
-5.89
-6.45
-7.63
-9.72
-12.66
-16.04
-19.20
-21.43
-22.13
-20.99
-18.08
-13.79
-8.75
-3.60
1.14
5.13
8.21
10.30
11.32
11.27
10.28
8.68
6.96
5.64
5.05
5.27
6.10
7.18
8.19
8.95
9.38
9.53
9.39
8.93
8.10
6.89
5.39
3.77
2.21
0.80
-0.47
-1.73
-3.13
-4.80
-6.74
-8.85
-10.89
-12.57
-13.48
-13.21
-11.38
-7.86
-2.89
2.86
8.39
12.71
15.16
15.65
14.67
13.07
11.69
11.06
11.36
12.40
13.81
15.22
16.31
16.94
17.10
16.96
16.79
16.82
17.17
17.74
18.16
17.97
16.71
14.18
10.47
6.03
1.53
-2.31
-4.96
-6.18
-6.10
-5.17
-3.95
-3.01
-2.71
-3.21
-4.39
-5.98
-7.56
-8.74
-9.21
-8.83
-7.70
-6.09
-4.35
-2.77
-1.52
-0.57
0.17
0.83
1.52
2.29
3.18
4.24
5.52
7.01
8.57
9.95
10.80
10.84
9.96
8.32
6.27
4.27
2.69
1.78
1.56
1.93
2.74
3.81
4.96
5.95
6.51
6.40
5.51
3.89
1.78
-0.51
-2.71
-4.56
-5.89
-6.51
-6.26
-5.01
-2.79
0.22
3.64
7.05
10.07
12.47
14.17
15.19
15.56
15.27
14.29
12.61
10.33
7.68
4.95
2.43
0.31
-1.38
-2.74
-3.86
-4.82
-5.62
-6.28
-6.86
-7.50
-8.39
-9.64
-11.20
-12.84
-14.21
-14.97
-14.87
-13.81
-11.85
-9.22
-6.29
-3.60
-1.80
-1.45
-2.76
-5.41
-8.50
-10.72
-10.81
-7.97
-2.22
5.65
14.37
22.58
29.16
33.40
34.96
33.75
29.92
23.87
16.26
7.99
0.14
-6.33
-10.77
-13.02
-13.40
-12.57
-11.30
-10.26
-9.80
-9.93
-10.38
-10.77
-10.75
-10.17
-9.07
-7.70
-6.44
-5.67
-5.68
-6.66
-8.55
-11.15
-14.06
-16.85
-19.09
-20.44
-20.63
-19.51
-16.96
-13.01
-7.81
-1.68
4.91
11.42
17.35
22.25
25.82
27.92
28.56
27.94
26.33
24.11
21.59
19.00
16.45
13.96
11.59
9.37
7.39
5.66
4.13
2.63
1.00
-0.88
-3.02
-5.34
-7.78
-10.26
-12.78
-15.26
-17.55
-19.42
-20.64
-21.12
-20.91
-20.26
-19.43
-18.65
-17.99
-17.38
-16.64
-15.55
-13.87
-11.38
-7.99
-3.73
1.15
6.20
10.94
14.87
17.73
19.41
19.96
19.56
18.44
16.88
15.26
13.90
13.09
12.91
13.25
13.84
14.39
14.68
14.63
14.24
13.56
12.49
10.91
8.61
5.45
1.41
-3.40
-8.69
-14.09
-19.20
-23.66
-27.20
-29.73
-31.37
-32.39
-33.16
-33.99
-34.96
-35.84
-36.20
-35.49
-33.35
-29.70
-24.83
-19.26
-13.47
-7.79
-2.29
3.05
8.23
13.06
17.22
20.34
22.20
22.82
22.51
21.70
20.85
20.21
19.84
19.63
19.37
18.86
18.00
16.76
15.12
13.10
10.67
7.84
4.70
1.45
-1.61
-4.15
-5.96
-7.04
-7.62
-8.07
-8.82
-10.16
-12.11
-14.44
-16.73
-18.47
-19.25
-18.87
-17.28
-14.68
-11.35
-7.68
-4.03
-0.74
1.94
3.85
4.92
5.14
4.65
3.71
2.78
2.37
2.93
4.63
7.27
10.27
12.92
14.56
14.83
13.70
11.39
8.30
4.75
0.95
-3.01
-7.07
-11.13
-14.94
-18.19
-20.52
-21.76
-21.97
-21.45
-20.66
-20.04
-19.89
-20.25
-20.95
-21.68
-22.04
-21.62
-20.05
-17.04
-12.50
-6.62
0.16
7.13
13.54
18.71
22.19
23.83
23.80
22.45
20.30
17.92
15.78
14.27
13.53
13.53
14.11
15.00
15.94
16.73
17.23
17.36
17.13
16.57
15.75
14.73
13.52
12.06
10.28
8.16
5.81
3.50
1.63
0.58
0.62
1.81
4.02
6.93
10.24
13.71
17.28
20.94
24.74
28.54
32.09
35.03
37.06
38.05
38.04
37.17
35.41
32.61
28.42
22.66
15.40
7.18
-1.12
-8.53
-14.31
-18.12
-20.01
-20.32
-19.44
-17.74
-15.52
-13.07
-10.77
-8.97
-8.00
-7.97
-8.74
-9.91
-11.00
-11.64
-11.65
-11.19
-10.58
-10.25
-10.58
-11.77
-13.84
-16.59
-19.64
-22.45
-24.45
-25.16
-24.34
-22.10
-18.82
-15.06
-11.36
-8.06
-5.28
-3.01
-1.20
0.14
0.96
1.25
1.09
0.62
0.07
-0.39
-0.67
-0.80
-0.81
-0.77
-0.66
-0.49
-0.28
-0.13
-0.19
-0.64
-1.56
-2.96
-4.68
-6.52
-8.27
-9.80
-11.06
-12.10
-13.00
-13.90
-14.87
-16.00
-17.25
-18.46
-19.33
-19.50
-18.63
-16.57
-13.40
-9.50
-5.42
-1.73
1.09
2.80
3.37
2.97
1.86
0.39
-1.04
-2.05
-2.25
-1.36
0.71
3.83
7.61
11.53
15.09
17.96
20.10
21.63
22.78
23.61
24.02
23.72
22.46
20.16
17.00
13.39
9.75
6.43
3.50
0.84
-1.79
-4.61
-7.76
-11.21
-14.78
-18.13
-20.84
-22.46
-22.66
-21.32
-18.64
-15.09
-11.21
-7.52
-4.38
-1.92
-0.11
1.10
1.80
2.01
1.82
1.34
0.79
0.42
0.43
0.88
1.66
2.54
3.25
3.65
3.74
3.66
3.55
3.50
3.40
3.07
2.29
0.95
-0.89
-3.03
-5.17
-7.08
-8.59
-9.64
-10.26
-10.55
-10.68
-10.87
-11.29
-11.96
-12.72
-13.17
-12.84
-11.41
-8.85
-5.52
-2.03
1.07
3.49
5.29
6.77
8.26
9.87
11.41
12.58
13.08
12.81
11.87
10.46
8.75
6.86
4.82
2.67
0.47
-1.69
-3.72
-5.56
-7.15
-8.46
-9.42
-10.02
-10.30
-10.35
-10.31
-10.23
-10.03
-9.55
-8.64
-7.30
-5.74
-4.41
-3.81
-4.35
-6.15
-8.96
-12.21
-15.13
-17.01
-17.32
-15.91
-12.99
-9.03
-4.64
-0.35
3.48
6.72
9.37
11.54
13.30
14.68
15.67
16.22
16.26
15.69
14.40
12.29
9.40
5.94
2.30
-1.10
-4.01
-6.47
-8.86
-11.70
-15.45
-20.24
-25.88
-31.87
-37.57
-42.44
-46.05
-48.16
-48.67
-47.69
-45.53
-42.69
-39.75
-37.18
-35.14
-33.39
-31.43
-28.67
-24.63
-19.19
-12.52
-5.09
2.53
9.82
16.39
22.03
26.69
30.43
33.31
35.37
36.63
37.18
37.15
36.74
36.15
35.48
34.73
33.82
32.67
31.25
29.64
27.93
26.15
24.28
22.25
20.03
17.69
15.40
13.36
11.73
10.53
9.63
8.80
7.79
6.43
4.66
2.63
0.58
-1.14
-2.23
-2.51
-1.96
-0.73
0.92
2.72
4.43
5.86
6.89
7.48
7.68
7.58
7.30
6.94
6.55
6.17
5.81
5.46
5.17
4.93
4.71
4.41
3.94
3.27
2.41
1.49
0.63
-0.08
-0.65
-1.17
-1.68
-2.18
-2.58
-2.77
-2.69
-2.37
-1.92
-1.47
-1.12
-0.89
-0.73
-0.54
-0.22
0.36
1.35
2.89
5.05
7.73
10.68
13.57
16.04
17.90
19.07
19.61
19.61
19.16
18.30
17.14
15.82
14.54
13.50
12.80
12.38
12.02
11.47
10.54
9.20
7.60
5.97
4.50
3.26
2.18
1.14
0.06
-0.99
-1.86
-2.38
-2.51
-2.36
-2.16
-2.17
-2.54
-3.30
-4.34
-5.45
-6.39
-6.92
-6.90
-6.28
-5.11
-3.56
-1.86
-0.24
1.12
2.11
2.74
3.05
3.08
2.93
2.62
2.20
1.73
1.26
0.88
0.70
0.77
1.08
1.52
1.88
1.98
1.65
0.90
-0.14
-1.27
-2.30
-3.14
-3.79
-4.35
-4.89
-5.47
-6.01
-6.44
-6.68
-6.75
-6.75
-6.80
-6.99
-7.21
-7.26
-6.85
-5.78
-4.09
-1.98
0.18
2.05
3.43
4.28
4.71
4.84
4.80
4.61
4.25
3.68
2.92
2.03
1.13
0.35
-0.21
-0.53
-0.60
-0.49
-0.27
-0.03
0.17
0.24
0.13
-0.18
-0.69
-1.34
-2.05
-2.71
-3.20
-3.44
-3.42
-3.19
-2.92
-2.78
-2.91
-3.27
-3.67
-3.81
-3.40
-2.32
-0.65
1.33
3.28
4.87
5.92
6.42
6.50
6.35
6.16
6.00
5.82
5.48
4.86
3.92
2.75
1.58
0.63
0.03
-0.22
-0.26
-0.27
-0.39
-0.66
-1.08
-1.58
-2.14
-2.74
-3.39
-4.03
-4.57
-4.94
-5.08
-5.03
-4.87
-4.78
-4.87
-5.20
-5.66
-6.02
-6.01
-5.40
-4.08
-2.17
0.05
2.25
4.12
5.50
6.35
6.75
6.84
6.78
6.67
6.60
6.57
6.53
6.44
6.23
5.85
5.28
4.51
3.54
2.39
1.15
-0.07
-1.12
-1.90
-2.39
-2.69
-2.90
-3.14
-3.44
-3.79
-4.15
-4.52
-4.88
-5.28
-5.72
-6.24
-6.82
-7.42
-7.95
-8.26
-8.18
-7.58
-6.43
-4.85
-3.08
-1.38
0.05
1.10
1.75
2.06
2.07
1.86
1.49
1.06
0.69
0.48
0.51
0.73
1.07
1.41
1.67
1.82
1.90
1.96
2.03
2.06
1.99
1.70
1.14
0.33
-0.62
-1.55
-2.31
-2.82
-3.08
-3.18
-3.23
-3.35
-3.61
-4.03
-4.57
-5.10
-5.49
-5.60
-5.31
-4.58
-3.44
-2.00
-0.45
0.97
2.07
2.75
3.00
2.90
2.56
2.08
1.52
0.97
0.54
0.36
0.50
0.91
1.42
1.77
1.77
1.41
0.83
0.29
-0.07
-0.24
-0.36
-0.63
-1.11
-1.74
-2.36
-2.81
-3.02
-3.01
-2.90
-2.81
-2.84
-3.05
-3.46
-4.05
-4.73
-5.36
-5.76
-5.74
-5.21
-4.17
-2.76
-1.17
0.33
1.55
2.34
2.69
2.69
2.47
2.18
1.93
1.71
1.47
1.17
0.79
0.37
-0.01
-0.32
-0.57
-0.81
-1.08
-1.35
-1.54
-1.54
-1.32
-0.90
-0.44
-0.09
0.07
0.04
-0.09
-0.20
-0.20
-0.13
-0.11
-0.27
-0.77
-1.64
-2.77
-3.94
-4.86
-5.24
-4.95
-3.99
-2.50
-0.75
1.04
2.69
4.13
5.32
6.25
6.87
7.11
6.93
6.36
5.50
4.49
3.49
2.64
1.99
1.57
1.34
1.24
1.22
1.26
1.37
1.56
1.81
2.05
2.15
1.97
1.48
0.71
-0.17
-0.99
-1.63
-2.09
-2.53
-3.07
-3.83
-4.78
-5.76
-6.53
-6.84
-6.55
-5.61
-4.15
-2.40
-0.62
0.98
2.28
3.24
3.90
4.25
4.31
4.09
3.66
3.17
2.79
2.64
2.70
2.86
2.95
2.84
2.52
2.10
1.70
1.43
1.30
1.25
1.16
0.94
0.53
-0.06
-0.75
-1.46
-2.10
-2.67
-3.20
-3.72
-4.24
-4.74
-5.19
-5.62
-6.05
-6.50
-6.90
-7.05
-6.71
-5.71
-4.11
-2.18
-0.35
1.03
1.79
2.01
1.93
1.80
1.78
1.89
2.09
2.26
2.36
2.38
2.34
2.28
2.19
2.09
1.95
1.80
1.67
1.61
1.64
1.71
1.74
1.62
1.26
0.63
-0.20
-1.10
-1.88
-2.43
-2.70
-2.78
-2.82
-3.01
-3.44
-4.11
-4.84
-5.40
-5.56
-5.18
-4.25
-2.90
-1.28
0.44
2.13
3.68
4.97
5.83
6.16
5.91
5.17
4.17
3.19
2.48
2.13
2.07
2.13
2.15
2.06
1.86
1.65
1.48
1.38
1.32
1.28
1.21
1.08
0.82
0.38
-0.27
-1.10
-2.01
-2.84
-3.46
-3.82
-3.99
-4.12
-4.38
-4.86
-5.55
-6.32
-6.97
-7.31
-7.22
-6.64
-5.63
-4.31
-2.81
-1.26
0.25
1.63
2.80
3.66
4.15
4.26
4.04
3.60
3.09
2.64
2.36
2.25
2.28
2.34
2.35
2.26
2.07
1.82
1.53
1.17
0.70
0.06
-0.74
-1.64
-2.51
-3.22
-3.75
-4.18
-4.62
-5.16
-5.82
-6.55
-7.26
-7.93
-8.56
-9.12
-9.49
-9.45
-8.77
-7.34
-5.28
-2.93
-0.69
1.13
2.40
3.22
3.79
4.26
4.67
4.93
4.96
4.76
4.41
4.06
3.79
3.58
3.31
2.85
2.14
1.26
0.41
-0.24
-0.61
-0.73
-0.79
-0.94
-1.28
-1.81
-2.45
-3.10
-3.73
-4.34
-4.96
-5.60
-6.24
-6.86
-7.45
-7.99
-8.40
-8.57
-8.32
-7.49
-6.03
-4.00
-1.61
0.85
3.10
4.94
6.27
7.10
7.46
7.43
7.08
6.51
5.86
5.25
4.78
4.47
4.29
4.17
4.00
3.74
3.37
2.92
2.41
1.84
1.19
0.44
-0.41
-1.34
-2.28
-3.16
-3.93
-4.57
-5.13
-5.65
-6.21
-6.83
-7.52
-8.28
-9.04
-9.63
-9.85
-9.44
-8.22
-6.17
-3.46
-0.45
2.43
4.85
6.64
7.80
8.43
8.70
8.68
8.46
8.10
7.67
7.24
6.85
6.51
6.17
5.79
5.31
4.78
4.26
3.84
3.61
3.56
3.63
3.69
3.58
3.19
2.50
1.59
0.60
-0.30
-0.98
-1.42
-1.68
-1.85
-2.10
-2.53
-3.22
-4.13
-5.12
-5.97
-6.41
-6.20
-5.22
-3.53
-1.34
1.00
3.16
4.87
6.01
6.60
6.73
6.49
5.96
5.17
4.17
3.12
2.22
1.64
1.49
1.70
2.07
2.36
2.43
2.24
1.91
1.57
1.28
1.05
0.78
0.39
-0.15
-0.84
-1.64
-2.49
-3.32
-4.07
-4.68
-5.10
-5.33
-5.42
-5.49
-5.63
-5.84
-6.04
-6.02
-5.56
-4.52
-2.90
-0.83
1.43
3.61
5.48
6.87
7.72
8.02
7.81
7.19
6.26
5.17
4.11
3.22
2.63
2.36
2.34
2.42
2.42
2.26
1.95
1.61
1.36
1.25
1.21
1.07
0.69
-0.01
-0.91
-1.86
-2.69
-3.31
-3.73
-4.01
-4.26
-4.59
-5.10
-5.87
-6.90
-8.04
-8.99
-9.38
-8.86
-7.34
-4.96
-2.09
0.80
3.33
5.27
6.54
7.16
7.22
6.81
6.06
5.16
4.29
3.57
3.09
2.82
2.68
2.55
2.35
2.06
1.71
1.34
1.06
0.89
0.79
0.66
0.37
-0.17
-0.94
-1.80
-2.58
-3.11
-3.33
-3.31
-3.23
-3.27
-3.56
-4.13
-4.90
-5.70
-6.26
-6.36
-5.85
-4.73
-3.15
-1.35
0.39
1.86
2.93
3.65
4.11
4.39
4.47
4.25
3.65
2.64
1.36
0.03
-1.06
-1.75
-2.10
-2.36
-2.82
-3.68
-4.93
-6.41
-7.86
-8.93
-9.45
-9.58
-9.68
-10.14
-11.20
-12.85
-14.93
-17.10
-18.75
-19.44
-19.14
-18.22
-17.09
-16.02
-15.04
-13.86
-12.02
-8.42
-2.24
6.71
17.84
30.17
42.54
53.86
63.16
69.80
74.26
77.28
79.51
81.28
82.75
83.98
84.83
84.94
79.84
67.28
48.28
26.66
6.33
-10.52
-23.23
-31.95
-37.17
-40.17
-41.21
-40.57
-38.95
-37.42
-36.86
-37.64
-39.59
-42.35
-44.48
-44.57
-41.99
-37.08
-30.97
-24.94
-19.80
-15.74
-12.38
-9.16
-5.39
-0.80
4.29
9.20
13.16
15.66
16.41
15.40
12.81
9.06
4.72
0.31
-3.71
-6.89
-8.82
-9.18
-7.81
-4.82
-0.56
4.34
9.15
13.14
15.82
16.96
16.60
14.89
12.07
8.40
4.21
-0.12
-4.15
-7.52
-10.00
-11.56
-12.34
-12.64
-12.77
-13.02
-13.62
-14.65
-16.02
-17.50
-18.67
-19.12
-18.53
-16.81
-14.11
-10.76
-7.11
-3.45
-0.01
3.01
5.30
6.53
6.44
4.95
2.34
-0.89
-4.13
-6.80
-8.53
-9.16
-8.71
-7.41
-5.62
-3.80
-2.44
-1.87
-2.19
-3.23
-4.67
-6.23
-7.82
-9.50
-11.44
-13.69
-16.11
-18.37
-20.05
-20.85
-20.69
-19.74
-18.33
-16.72
-14.97
-12.88
-10.02
-6.00
-0.65
5.83
12.88
19.71
25.57
29.87
32.33
32.91
31.85
29.50
26.39
23.07
20.06
17.67
15.90
14.42
12.73
10.29
6.81
2.37
-2.59
-7.41
-11.48
-14.39
-16.08
-16.69
-16.57
-16.11
-15.69
-15.67
-16.36
-17.95
-20.46
-23.73
-27.39
-31.02
-34.24
-36.79
-38.62
-39.78
-40.40
-40.59
-40.36
-39.63
-38.23
-35.91
-32.46
-27.81
-22.05
-15.48
-8.56
-1.79
4.39
9.68
13.99
17.36
19.94
21.88
23.25
24.08
24.32
23.93
22.92
21.28
19.08
16.42
13.48
10.55
7.97
6.02
4.85
4.37
4.31
4.34
4.19
3.75
3.09
2.36
1.73
1.32
1.18
1.33
1.76
2.42
3.29
4.36
5.70
7.45
9.78
12.83
16.56
20.76
24.97
28.66
31.31
32.62
32.57
31.36
29.33
26.78
23.93
20.84
17.51
13.97
10.38
7.03
4.30
2.50
1.74
1.87
2.49
3.13
3.34
2.77
1.30
-1.05
-4.09
-7.45
-10.62
-13.03
-14.22
-14.00
-12.56
-10.44
-8.35
-6.93
-6.56
-7.27
-8.76
-10.58
-12.25
-13.38
-13.76
-13.34
-12.24
-10.66
-8.81
-6.82
-4.72
-2.35
0.49
3.98
8.16
12.78
17.35
21.21
23.78
24.73
24.08
22.15
19.47
16.56
13.84
11.60
10.04
9.27
9.31
10.03
11.14
12.22
12.82
12.59
11.37
9.26
6.54
3.53
0.49
-2.48
-5.39
-8.33
-11.30
-14.24
-17.03
-19.65
-22.28
-25.19
-28.63
-32.57
-36.60
-39.98
-41.90
-41.76
-39.43
-35.21
-29.68
-23.54
-17.34
-11.53
-6.41
-2.21
0.92
2.96
4.05
4.47
4.56
4.59
4.70
4.88
5.00
4.92
4.58
3.99
3.23
2.38
1.47
0.53
-0.47
-1.49
-2.52
-3.49
-4.33
-4.95
-5.23
-5.03
-4.24
-2.85
-1.00
0.98
2.67
3.67
3.81
3.23
2.39
1.90
2.29
3.81
6.31
9.29
12.08
14.09
14.97
14.77
13.87
12.76
11.93
11.61
11.77
12.14
12.33
12.02
11.04
9.42
7.30
4.92
2.53
0.40
-1.23
-2.13
-2.19
-1.48
-0.27
1.06
2.14
2.73
2.74
2.28
1.47
0.45
-0.75
-2.15
-3.72
-5.39
-7.01
-8.37
-9.26
-9.48
-8.90
-7.44
-5.18
-2.33
0.74
3.66
6.13
8.03
9.45
10.53
11.38
11.96
12.07
11.47
10.01
7.72
4.86
1.88
-0.69
-2.43
-3.06
-2.57
-1.18
0.76
2.86
4.77
6.27
7.24
7.67
7.64
7.30
6.81
6.33
5.92
5.55
5.07
4.26
2.96
1.05
-1.43
-4.22
-6.93
-9.00
-9.92
-9.28
-7.01
-3.37
1.12
5.81
10.12
13.65
16.20
17.72
18.23
17.77
16.43
14.39
11.98
9.61
7.73
6.66
6.56
7.29
8.46
9.53
9.89
9.02
6.61
2.64
-2.62
-8.60
-14.64
-20.07
-24.43
-27.51
-29.37
-30.26
-30.43
-30.15
-29.57
-28.85
-28.12
-27.48
-27.03
-26.75
-26.57
-26.33
-25.87
-25.08
-23.91
-22.30
-20.13
-17.26
-13.51
-8.83
-3.35
2.62
8.57
13.96
18.30
21.28
22.79
22.96
22.14
20.79
19.38
18.24
17.44
16.83
16.14
15.19
13.98
12.61
11.25
9.89
8.32
6.30
3.70
0.65
-2.47
-5.18
-7.18
-8.41
-9.05
-9.35
-9.50
-9.55
-9.47
-9.24
-8.84
-8.22
-7.26
-5.76
-3.53
-0.50
3.14
7.01
10.64
13.62
15.76
17.03
17.61
17.67
17.33
16.63
15.51
13.89
11.76
9.19
6.41
3.78
1.72
0.59
0.55
1.55
3.28
5.28
7.05
8.17
8.41
7.69
6.13
3.89
1.21
-1.64
-4.34
-6.58
-8.09
-8.83
-9.03
-9.13
-9.63
-10.74
-12.23
-13.49
-13.71
-12.31
-9.12
-4.48
0.96
6.46
11.40
15.36
18.02
19.23
18.90
17.12
14.21
10.61
6.88
3.50
0.84
-0.91
-1.77
-1.96
-1.84
-1.79
-2.10
-2.84
-3.82
-4.68
-5.07
-4.79
-3.92
-2.75
-1.66
-0.99
-0.90
-1.37
-2.25
-3.32
-4.41
-5.40
-6.24
-6.92
-7.40
-7.63
-7.51
-6.96
-5.95
-4.59
-3.05
-1.55
-0.28
0.68
1.34
1.74
1.92
1.86
1.49
0.77
-0.28
-1.55
-2.85
-3.98
-4.76
-5.09
-4.99
-4.58
-4.08
-3.74
-3.83
-4.51
-5.81
-7.60
-9.67
-11.71
-13.44
-14.67
-15.28
-15.29
-14.82
-14.08
-13.27
-12.60
-12.20
-12.17
-12.52
-13.12
-13.68
-13.72
-12.74
-10.38
-6.58
-1.65
3.84
9.30
14.23
18.30
21.32
23.13
23.60
22.71
20.64
17.78
14.67
11.88
9.85
8.88
9.06
10.30
12.32
14.69
16.84
18.20
18.34
17.13
14.82
11.95
9.24
7.34
6.70
7.43
9.35
12.03
14.93
17.45
18.95
18.84
16.70
12.49
6.66
0.14
-5.94
-10.57
-13.26
-14.11
-13.67
-12.67
-11.66
-10.86
-10.27
-9.81
-9.45
-9.28
-9.36
-9.62
-9.81
-9.59
-8.64
-6.92
-4.63
-2.21
-0.18
1.06
1.35
0.78
-0.36
-1.68
-2.83
-3.50
-3.57
-3.05
-2.06
-0.85
0.25
0.91
0.87
-0.05
-1.92
-4.68
-8.15
-11.97
-15.65
-18.61
-20.31
-20.44
-19.01
-16.42
-13.28
-10.24
-7.77
-6.03
-4.86
-3.97
-3.05
-1.96
-0.68
0.70
2.12
3.59
5.14
6.80
8.51
10.07
11.27
11.94
12.07
11.89
11.81
12.29
13.73
16.30
19.86
23.97
28.02
31.37
33.47
33.91
32.44
28.97
23.61
16.71
8.88
0.91
-6.41
-12.46
-16.90
-19.70
-21.00
-21.05
-20.11
-18.46
-16.37
-14.13
-11.96
-9.97
-8.16
-6.41
-4.66
-2.92
-1.29
0.06
1.04
1.63
1.92
2.06
2.22
2.52
3.02
3.72
4.54
5.36
6.05
6.47
6.51
6.13
5.40
4.46
3.45
2.53
1.74
1.03
0.30
-0.60
-1.77
-3.26
-5.10
-7.23
-9.55
-11.82
-13.67
-14.67
-14.49
-13.02
-10.49
-7.36
-4.23
-1.53
0.52
2.00
3.10
4.04
4.93
5.77
6.51
7.08
7.47
7.70
7.81
7.83
7.76
7.60
7.30
6.83
6.18
5.39
4.54
3.68
2.86
2.03
1.10
-0.06
-1.50
-3.16
-4.87
-6.37
-7.51
-8.23
-8.70
-9.15
-9.83
-10.89
-12.33
-14.03
-15.77
-17.26
-18.18
-18.19
-17.06
-14.71
-11.34
-7.37
-3.37
0.14
2.87
4.79
6.07
6.93
7.47
7.66
7.41
6.67
5.52
4.17
2.86
1.76
0.96
0.40
-0.05
-0.52
-1.07
-1.71
-2.36
-2.96
-3.45
-3.85
-4.28
-4.86
-5.71
-6.88
-8.27
-9.76
-11.23
-12.63
-13.99
-15.41
-16.92
-18.48
-19.98
-21.26
-22.15
-22.56
-22.40
-21.59
-20.07
-17.86
-15.03
-11.81
-8.50
-5.43
-2.83
-0.76
0.87
2.23
3.48
4.69
5.82
6.81
7.64
8.37
9.05
9.73
10.33
10.74
10.85
10.65
10.25
9.75
9.19
8.48
7.45
5.98
4.11
2.05
0.13
-1.39
-2.41
-3.02
-3.46
-3.97
-4.66
-5.53
-6.44
-7.20
-7.59
-7.45
-6.65
-5.17
-3.08
-0.54
2.21
4.91
7.36
9.39
10.94
12.00
12.57
12.67
12.34
11.64
10.70
9.67
8.71
7.94
7.36
6.89
6.37
5.69
4.84
3.93
3.13
2.56
2.16
1.76
1.10
0.02
-1.48
-3.21
-4.94
-6.46
-7.68
-8.66
-9.49
-10.27
-11.05
-11.83
-12.60
-13.31
-13.85
-14.06
-13.71
-12.61
-10.68
-8.02
-4.89
-1.61
1.51
4.26
6.51
8.26
9.49
10.25
10.60
10.65
10.48
10.22
9.94
9.67
9.40
9.13
8.84
8.52
8.17
7.75
7.24
6.63
5.91
5.06
4.07
2.94
1.71
0.41
-0.88
-2.06
-3.08
-3.94
-4.67
-5.38
-6.17
-7.14
-8.30
-9.59
-10.81
-11.69
-11.95
-11.37
-9.89
-7.60
-4.75
-1.65
1.41
4.23
6.70
8.76
10.35
11.42
11.88
11.75
11.11
10.15
9.13
8.22
7.53
7.03
6.60
6.16
5.67
5.17
4.72
4.37
4.09
3.79
3.41
2.88
2.24
1.55
0.86
0.20
-0.49
-1.28
-2.21
-3.27
-4.43
-5.68
-6.98
-8.31
-9.52
-10.35
-10.49
-9.70
-7.90
-5.29
-2.22
0.91
3.77
6.19
8.11
9.50
10.29
10.45
10.05
9.22
8.20
7.17
6.27
5.53
4.93
4.46
4.13
3.93
3.84
3.77
3.62
3.29
2.73
1.97
1.08
0.20
-0.53
-1.00
-1.18
-1.12
-0.98
-0.92
-1.11
-1.65
-2.59
-3.89
-5.47
-7.08
-8.37
-8.91
-8.37
-6.60
-3.81
-0.43
2.98
5.98
8.32
9.98
11.04
11.59
11.67
11.27
10.38
9.04
7.40
5.63
3.92
2.45
1.29
0.49
0.02
-0.18
-0.19
-0.10
-0.01
-0.04
-0.27
-0.78
-1.54
-2.46
-3.38
-4.19
-4.80
-5.25
-5.66
-6.18
-6.96
-8.06
-9.43
-10.89
-12.14
-12.86
-12.76
-11.69
-9.71
-7.03
-3.97
-0.87
2.01
4.53
6.60
8.19
9.23
9.68
9.52
8.83
7.77
6.53
5.34
4.33
3.55
3.01
2.67
2.48
2.45
2.55
2.78
3.05
3.29
3.42
3.35
3.03
2.42
1.52
0.36
-0.95
-2.29
-3.56
-4.67
-5.61
-6.42
-7.19
-8.00
-8.91
-9.86
-10.64
-10.99
-10.59
-9.22
-6.92
-3.92
-0.67
2.40
4.95
6.90
8.30
9.23
9.74
9.78
9.30
8.35
7.13
5.94
5.08
4.71
4.75
4.95
5.03
4.85
4.42
3.92
3.52
3.28
3.11
2.83
2.27
1.39
0.30
-0.79
-1.66
-2.25
-2.65
-3.04
-3.64
-4.63
-6.03
-7.75
-9.52
-10.93
-11.54
-10.97
-9.07
-5.97
-2.04
2.19
6.23
9.73
12.51
14.53
15.83
16.46
16.51
16.10
15.39
14.56
13.78
13.12
12.61
12.24
12.00
11.86
11.82
11.87
12.01
12.23
12.55
12.94
13.40
13.88
14.34
14.70
14.88
14.80
14.42
13.72
12.78
11.65
10.38
8.93
7.19
5.09
2.66
0.11
-2.27
-4.16
-5.37
-5.85
-5.63
-4.72
-3.15
-0.90
1.95
5.16
8.34
10.93
12.38
12.20
10.10
6.06
0.40
-6.28
-13.17
-19.50
-24.68
-28.45
-30.80
-31.90
-31.89
-30.86
-28.84
-25.95
-22.39
-18.45
-14.36
-10.27
-6.18
-2.10
1.92
5.64
8.70
10.70
11.34
10.53
8.44
5.47
2.17
-0.86
-3.10
-4.20
-4.10
-2.98
-1.24
0.69
2.42
3.71
4.51
4.84
4.75
4.25
3.28
1.83
-0.06
-2.19
-4.25
-5.88
-6.75
-6.62
-5.42
-3.24
-0.32
2.92
6.01
8.50
10.08
10.72
10.64
10.29
10.13
10.45
11.12
11.65
11.28
9.30
5.40
-0.30
-7.26
-14.80
-22.31
-29.40
-35.76
-41.02
-44.71
-46.33
-45.59
-42.59
-37.84
-32.07
-26.03
-20.25
-14.99
-10.36
-6.37
-3.05
-0.42
1.56
3.02
4.19
5.31
6.61
8.19
10.02
11.89
13.45
14.24
13.87
12.12
9.06
5.06
0.73
-3.27
-6.38
-8.30
-9.04
-8.89
-8.32
-7.81
-7.74
-8.28
-9.44
-11.05
-12.92
-14.84
-16.64
-18.16
-19.21
-19.60
-19.19
-17.99
-16.14
-13.88
-11.44
-8.92
-6.27
-3.41
-0.25
3.15
6.60
9.82
12.55
14.59
15.93
16.70
17.19
17.73
18.63
20.01
21.80
23.78
25.59
26.91
27.49
27.18
25.97
23.92
21.19
18.00
14.65
11.41
8.48
5.91
3.62
1.43
-0.85
-3.40
-6.30
-9.61
-13.27
-17.18
-21.13
-24.76
-27.61
-29.28
-29.53
-28.40
-26.19
-23.36
-20.33
-17.38
-14.66
-12.22
-10.11
-8.43
-7.20
-6.31
-5.51
-4.40
-2.63
-0.06
3.21
6.84
10.35
13.30
15.31
16.12
15.54
13.50
10.10
5.68
0.80
-3.86
-7.74
-10.53
-12.29
-13.28
-13.83
-14.07
-14.00
-13.54
-12.68
-11.56
-10.43
-9.48
-8.65
-7.71
-6.34
-4.31
-1.60
1.64
5.17
8.75
12.19
15.31
17.94
19.95
21.31
22.15
22.68
23.05
23.30
23.38
23.16
22.65
21.97
21.31
20.80
20.43
20.03
19.46
18.63
17.60
16.48
15.30
13.95
12.20
9.78
6.51
2.47
-2.04
-6.57
-10.69
-14.15
-16.95
-19.29
-21.49
-23.74
-26.02
-28.02
-29.20
-28.97
-26.89
-22.80
-16.95
-9.89
-2.44
4.52
10.20
14.11
16.13
16.50
15.80
14.72
13.89
13.66
14.07
14.87
15.65
16.06
15.90
15.21
14.09
12.71
11.14
9.36
7.29
4.85
2.01
-1.16
-4.48
-7.74
-10.71
-13.18
-15.01
-16.13
-16.56
-16.37
-15.70
-14.75
-13.76
-12.96
-12.48
-12.34
-12.38
-12.28
-11.69
-10.29
-7.92
-4.59
-0.55
3.77
7.89
11.36
13.87
15.27
15.59
14.98
13.66
11.83
9.68
7.30
4.71
1.91
-1.05
-4.06
-6.84
-9.01
-10.23
-10.23
-8.98
-6.75
-4.03
-1.44
0.42
1.12
0.48
-1.39
-4.11
-7.10
-9.74
-11.43
-11.80
-10.79
-8.70
-6.13
-3.83
-2.44
-2.25
-3.16
-4.76
-6.48
-7.83
-8.54
-8.50
-7.73
-6.26
-4.17
-1.63
1.09
3.64
5.71
7.18
8.16
8.96
9.90
11.22
12.95
14.98
17.13
19.22
21.11
22.67
23.75
24.13
23.57
21.86
18.94
14.87
9.93
4.50
-0.93
-5.86
-9.81
-12.40
-13.38
-12.70
-10.60
-7.57
-4.34
-1.65
-0.09
0.12
-0.85
-2.48
-4.17
-5.40
-5.96
-5.91
-5.50
-5.00
-4.59
-4.35
-4.23
-4.19
-4.28
-4.63
-5.42
-6.80
-8.81
-11.40
-14.37
-17.37
-20.00
-21.88
-22.74
-22.53
-21.32
-19.36
-17.03
-14.70
-12.66
-11.01
-9.66
-8.43
-7.09
-5.27
-2.85
-0.11
2.35
3.91
4.15
2.88
0.22
-3.61
-7.81
-11.70
-14.94
-17.41
-18.95
-19.31
-18.26
-15.67
-11.59
-5.42
3.13
13.81
25.74
38.02
49.94
61.02
71.12
80.32
89.81
100.32
111.43
121.55
128.82
131.84
129.98
123.60
107.56
81.09
48.32
15.98
-11.08
-31.40
-45.56
-55.85
-63.38
-68.67
-71.18
-70.96
-68.17
-64.03
-59.70
-55.75
-52.21
-48.77
-45.25
-40.93
-35.63
-29.79
-24.37
-20.05
-16.96
-14.86
-13.25
-11.76
-9.70
-6.66
-2.76
1.37
5.00
7.63
8.98
9.14
8.25
6.88
5.55
4.53
3.77
3.08
2.36
1.55
0.72
-0.21
-1.18
-2.08
-2.83
-3.41
-3.90
-4.30
-4.65
-4.95
-5.44
-6.28
-7.37
-8.40
-9.08
-9.25
-8.87
-8.20
-7.68
-8.09
-10.01
-13.52
-18.23
-23.38
-28.19
-31.94
-34.40
-33.84
-29.93
-24.07
-18.56
-14.96
-13.20
-13.11
-13.32
-13.10
-12.32
-11.57
-11.38
-11.31
-10.99
-10.20
-8.99
-7.59
-6.50
-6.16
-6.97
-8.95
-11.58
-14.14
-15.92
-16.52
-15.85
-14.17
-11.87
-9.38
-6.92
-4.37
-1.46
2.12
6.46
11.51
16.94
22.28
27.07
30.99
34.00
36.24
37.98
39.39
40.53
41.25
41.30
40.45
38.58
35.69
31.97
27.67
23.09
18.53
14.30
10.66
7.78
5.67
4.20
3.14
2.32
1.65
1.14
0.99
1.35
2.15
3.08
3.70
3.67
2.83
1.24
-0.89
-3.10
-4.96
-6.25
-6.97
-7.27
-7.35
-7.38
-7.55
-7.95
-8.19
-7.74
-6.28
-3.83
-0.81
2.29
5.07
7.30
9.01
10.97
14.04
18.90
25.62
33.76
42.55
51.02
58.07
60.01
54.13
40.19
20.84
-0.10
-19.79
-36.73
-50.20
-59.79
-66.00
-68.60
-67.42
-62.89
-56.14
-48.65
-41.44
-34.79
-28.43
-21.15
-12.64
-3.55
4.68
11.37
16.04
18.60
19.41
18.25
15.45
11.63
7.49
3.65
0.60
-1.44
-2.31
-1.99
-0.75
0.99
2.65
3.80
4.20
3.90
3.06
1.95
0.86
0.06
-0.19
0.27
1.51
3.47
5.94
8.51
10.80
12.55
13.65
14.21
14.37
14.40
14.65
15.58
17.62
21.03
25.76
31.44
37.44
42.98
47.42
50.35
51.65
51.41
49.88
47.39
44.29
40.90
37.48
34.14
30.87
27.63
24.35
21.07
17.92
15.07
12.64
10.68
9.03
7.44
5.60
3.41
0.94
-1.57
-3.85
-5.75
-7.27
-8.69
-10.41
-12.74
-15.71
-19.00
-21.98
-24.02
-24.60
-23.47
-20.84
-17.34
-13.75
-10.72
-8.66
-7.62
-7.51
-7.81
-7.63
-6.44
-4.49
-2.78
-2.92
-6.48
-14.19
-25.78
-39.27
-51.30
-59.41
-62.92
-62.86
-61.38
-60.92
-63.43
-70.65
-83.06
-99.14
-117.15
-135.09
-150.25
-159.85
-161.98
-156.27
-144.87
-130.42
-114.05
-96.91
-79.97
-63.48
-47.57
-32.57
-13.57
9.99
29.57
43.69
55.11
64.97
73.64
80.78
85.78
88.19
87.26
83.34
78.11
72.46
66.50
60.35
54.05
47.81
41.59
35.04
28.45
23.22
20.04
18.56
18.21
18.41
18.77
19.16
19.26
19.18
19.68
21.01
22.89
25.00
27.11
29.07
30.77
31.84
32.16
31.92
31.10
29.51
27.13
24.13
20.82
17.47
14.22
11.40
9.49
8.79
9.32
10.99
13.54
16.50
19.27
20.00
17.67
12.66
6.64
1.45
-1.78
-2.87
-2.41
-1.24
0.20
1.77
3.60
5.88
8.53
11.46
14.42
16.95
18.41
17.44
13.44
6.41
-3.14
-14.26
-25.34
-34.47
-39.98
-40.98
-37.53
-30.45
-21.23
-11.03
-2.33
2.72
3.50
1.01
-3.17
-7.82
-12.12
-15.73
-18.56
-21.09
-23.04
-23.98
-23.65
-22.08
-19.60
-16.58
-13.38
-10.24
-7.34
-4.32
-1.21
1.72
3.96
4.95
4.43
2.57
-0.03
-2.59
-4.22
-4.41
-3.13
-0.85
1.72
3.98
5.58
6.54
7.05
7.46
7.99
8.67
9.41
10.03
10.43
10.64
10.81
11.12
11.75
12.75
14.07
15.54
16.88
17.80
18.02
17.33
15.64
13.01
9.61
5.72
1.63
-2.44
-6.39
-10.21
-13.92
-17.51
-20.75
-23.32
-24.79
-24.85
-23.43
-20.77
-17.35
-13.72
-10.32
-7.47
-5.25
-3.57
-2.24
-1.01
0.39
2.27
4.93
8.48
12.76
17.40
21.92
25.93
29.26
31.98
34.38
36.71
38.93
40.61
41.11
39.95
37.03
32.64
27.38
21.90
16.78
12.15
7.86
3.58
-0.90
-5.73
-10.97
-16.67
-22.75
-28.29
-32.05
-33.08
-31.59
-28.92
-26.57
-25.50
-25.82
-26.84
-27.45
-27.05
-25.70
-24.07
-22.97
-22.97
-24.10
-25.83
-27.51
-27.45
-24.34
-17.34
-6.24
8.33
24.75
40.40
51.46
54.98
50.55
40.06
26.82
14.09
3.91
-3.35
-8.54
-12.71
-16.23
-18.72
-19.70
-19.03
-17.11
-14.67
-12.35
-10.48
-8.97
-7.50
-5.74
-3.73
-1.91
-0.81
-0.82
-1.96
-3.80
-5.61
-6.68
-6.64
-5.48
-3.66
-1.74
-0.12
1.11
2.14
3.23
4.57
6.10
7.55
8.50
8.58
7.60
5.68
3.08
0.52
-1.38
-2.29
-2.29
-1.78
-1.19
-0.66
0.02
1.24
3.25
5.85
8.35
9.93
9.95
8.38
5.81
3.16
1.22
0.30
0.14
0.13
-0.28
-1.34
-2.92
-4.55
-5.72
-6.09
-5.64
-4.45
-2.66
-0.28
2.74
6.53
10.45
13.63
15.07
14.13
10.93
6.29
1.33
-2.98
-5.99
-7.24
-6.43
-3.29
2.38
10.48
20.12
29.54
36.24
38.00
33.76
24.06
10.68
-4.73
-19.43
-30.57
-35.55
-33.91
-27.58
-19.30
-11.17
-4.24
0.98
4.25
5.33
4.17
1.19
-3.04
-7.48
-10.90
-12.41
-11.71
-8.99
-4.79
0.19
5.24
9.95
14.09
17.77
21.03
23.46
23.25
18.69
9.48
-2.59
-14.30
-22.44
-25.15
-22.66
-17.00
-10.97
-6.78
-5.22
-5.73
-7.20
-8.72
-9.77
-10.60
-11.42
-12.33
-13.05
-12.96
-11.47
-8.52
-4.81
-1.21
1.56
3.28
4.22
5.00
6.51
9.49
14.04
18.43
20.77
19.70
15.02
8.10
-0.30
-9.19
-17.34
-23.40
-26.34
-25.43
-20.52
-12.27
-2.25
7.32
13.63
15.07
13.33
10.22
7.04
4.04
1.44
-0.83
-3.04
-5.23
-7.04
-8.10
-8.51
-8.45
-8.11
-7.51
-6.71
-5.77
-4.67
-3.16
-1.18
0.82
2.31
2.95
2.72
1.83
0.59
-0.67
-1.49
-1.71
-1.65
-1.69
-1.93
-2.07
-1.65
-0.25
2.32
6.34
11.69
17.82
23.90
29.20
33.28
35.90
37.06
37.00
36.55
36.55
37.46
39.21
41.45
43.69
45.33
45.87
42.70
35.08
24.77
15.01
8.06
4.22
2.66
1.75
0.44
-1.71
-4.34
-7.08
-9.71
-12.48
-15.51
-18.57
-21.12
-22.53
-22.37
-20.40
-16.99
-13.09
-10.09
-8.77
-9.04
-10.40
-12.35
-14.74
-17.48
-20.64
-24.33
-28.84
-33.87
-38.67
-42.63
-45.55
-47.68
-49.29
-50.57
-51.61
-52.77
-53.81
-53.89
-52.05
-47.56
-40.00
-29.39
-16.47
-0.44
15.64
27.19
31.69
30.28
26.14
22.11
19.55
18.24
17.19
15.31
12.77
10.80
10.62
12.46
15.43
18.09
19.17
18.17
15.19
11.26
7.64
5.05
3.34
1.81
-0.05
-2.26
-4.30
-5.71
-6.10
-5.41
-4.16
-2.90
-2.17
-2.14
-2.65
-3.34
-4.02
-4.55
-4.79
-4.63
-3.98
-2.83
-1.22
0.67
2.58
4.14
5.08
5.30
4.88
4.04
2.96
1.76
0.47
-0.96
-2.60
-4.40
-6.20
-7.71
-8.64
-8.81
-8.17
-7.05
-5.77
-4.67
-3.93
-3.58
-3.46
-3.38
-3.18
-2.87
-2.56
-2.45
-2.71
-3.38
-4.33
-5.27
-5.81
-5.61
-4.45
-2.27
0.82
4.58
8.70
12.87
16.80
20.24
23.00
24.98
26.10
26.31
25.60
24.01
21.64
18.72
15.59
12.60
10.06
8.11
6.73
5.71
4.85
4.00
3.11
2.25
1.49
0.83
0.15
-0.69
-1.87
-3.47
-5.47
-7.72
-9.94
-11.69
-12.50
-11.98
-9.88
-6.29
-1.61
3.51
8.36
12.29
14.82
15.62
14.56
11.66
7.20
1.76
-3.83
-8.66
-11.92
-13.18
-12.44
-10.18
-7.13
-4.11
-1.80
-0.59
-0.53
-1.43
-2.89
-4.49
-5.87
-6.84
-7.39
-7.67
-7.90
-8.24
-8.79
-9.46
-10.01
-10.09
-9.30
-7.40
-4.34
-0.35
4.12
8.55
12.46
15.53
17.65
18.84
19.25
19.00
18.22
16.96
15.24
13.06
10.41
7.31
3.82
0.10
-3.66
-7.21
-10.36
-12.98
-15.00
-16.40
-17.18
-17.32
-16.88
-16.00
-14.92
-13.93
-13.27
-13.03
-13.11
-13.21
-13.00
-12.13
-10.45
-7.94
-4.77
-1.12
2.79
6.75
10.56
13.91
16.47
17.86
17.82
16.33
13.64
10.25
6.78
3.85
1.91
1.20
1.69
3.19
5.38
7.87
10.36
12.61
14.54
16.10
17.25
17.85
17.72
16.70
14.67
11.67
7.90
3.74
-0.34
-3.87
-6.33
-7.27
-6.40
-3.70
0.54
5.75
11.33
16.68
21.23
24.59
26.55
27.14
26.47
24.81
22.53
20.19
18.24
16.80
15.80
15.07
14.45
13.80
13.02
12.15
11.42
10.97
10.60
9.85
8.23
5.29
0.68
-5.71
-14.72
-25.62
-36.42
-45.08
-50.45
-52.30
-50.95
-47.08
-41.66
-35.83
-30.86
-27.03
-24.45
-22.89
-21.87
-20.85
-19.55
-17.98
-16.33
-14.55
-12.34
-9.48
-5.85
-1.44
3.58
8.87
14.10
19.08
22.99
25.12
25.11
23.16
19.85
15.71
11.04
6.01
0.83
-4.21
-8.61
-11.98
-14.42
-16.11
-17.23
-17.81
-17.76
-16.92
-15.22
-12.69
-9.57
-6.18
-2.99
-0.36
1.58
2.88
3.68
4.03
3.98
3.54
2.70
1.53
0.18
-1.14
-2.22
-2.91
-3.15
-2.97
-2.47
-1.78
-1.09
-0.54
-0.22
-0.17
-0.43
-0.93
-1.58
-2.21
-2.68
-2.92
-2.93
-2.85
-2.91
-3.33
-4.19
-5.38
-6.51
-7.05
-6.50
-4.54
-1.14
3.37
8.45
13.48
17.92
21.43
23.83
25.09
25.21
24.27
22.42
19.88
16.96
14.00
11.25
8.90
6.95
5.39
4.18
3.27
2.65
2.24
1.87
1.40
0.69
-0.29
-1.48
-2.76
-4.04
-5.27
-6.44
-7.56
-8.61
-9.58
-10.47
-11.35
-12.30
-13.35
-14.36
-15.01
-14.87
-13.56
-10.88
-6.95
-2.16
3.00
8.02
12.53
16.34
19.33
21.42
22.56
22.72
22.01
20.64
18.92
17.20
15.73
14.60
13.76
13.01
12.14
10.98
9.42
7.52
5.40
3.23
1.15
-0.83
-2.74
-4.72
-6.84
-9.11
-11.37
-13.43
-15.15
-16.51
-17.66
-18.88
-20.41
-22.42
-24.85
-27.42
-29.69
-31.12
-31.27
-29.87
-26.95
-22.79
-17.93
-12.92
-8.27
-4.28
-1.11
1.18
2.63
3.25
3.16
2.56
1.80
1.28
1.35
2.19
3.77
5.87
8.27
10.85
13.62
16.69
20.13
23.84
27.51
30.67
32.79
33.43
32.39
29.75
25.81
21.06
15.98
10.99
6.37
2.16
-1.71
-5.42
-9.15
-13.05
-17.19
-21.51
-25.82
-29.76
-32.88
-34.71
-34.89
-33.30
-30.13
-25.82
-20.96
-16.13
-11.71
-7.88
-4.64
-1.90
0.40
2.21
3.42
3.97
3.88
3.36
2.72
2.22
2.01
2.01
2.02
1.83
1.36
0.69
0.04
-0.41
-0.61
-0.65
-0.73
-0.99
-1.44
-1.96
-2.41
-2.69
-2.84
-3.01
-3.35
-3.99
-4.89
-5.94
-7.00
-7.99
-8.88
-9.67
-10.26
-10.44
-9.90
-8.36
-5.70
-2.02
2.35
6.97
11.40
15.31
18.47
20.77
22.14
22.57
22.10
20.91
19.27
17.52
16.01
14.95
14.38
14.19
14.10
13.88
13.41
12.70
11.90
11.16
10.55
10.00
9.40
8.62
7.66
6.59
5.51
4.51
3.62
2.81
2.07
1.42
0.86
0.39
-0.08
-0.62
-1.24
-1.75
-1.77
-0.87
1.26
4.63
8.94
13.64
18.10
21.70
23.92
24.33
22.68
19.06
14.04
8.58
3.87
0.87
-0.01
0.96
3.03
5.30
7.05
7.89
7.72
6.53
4.32
1.16
-2.77
-7.17
-11.69
-16.09
-20.31
-24.42
-28.41
