1592945172.00
64.000000
-0.00
-0.00
-0.00
-0.00
-0.00
-0.00
-0.00
-0.00
-0.00
-0.00
0.00
0.01
0.01
-0.00
-0.03
-0.05
-0.05
0.00
0.13
0.36
0.66
1.01
1.37
1.72
2.06
2.40
2.79
3.24
3.80
4.42
5.06
5.66
6.20
6.68
7.15
7.68
8.31
9.14
10.09
11.04
11.88
12.56
13.14
13.76
14.65
15.96
17.91
20.32
22.90
25.38
27.58
29.57
31.68
34.32
37.81
42.54
48.15
54.10
59.83
64.97
69.58
74.14
79.34
85.71
93.76
103.00
112.62
121.73
129.77
136.75
143.30
150.75
157.77
166.64
177.95
191.79
206.97
220.57
228.25
225.36
208.53
176.87
132.76
80.05
23.07
-34.94
-92.44
-149.16
-205.23
-260.37
-313.74
-363.87
-409.83
-450.91
-486.50
-515.74
-537.23
-549.22
-549.96
-538.37
-514.21
-478.67
-433.88
-382.45
-327.02
-269.84
-212.63
-156.66
-102.95
-52.37
-5.90
35.58
71.43
101.35
125.50
144.38
158.69
169.15
176.37
180.75
182.57
182.07
179.51
175.23
169.65
163.18
156.15
148.81
141.30
133.69
126.02
118.33
110.69
103.16
95.80
88.68
81.83
75.25
68.95
62.95
57.25
51.86
46.78
42.03
37.59
33.45
29.61
26.07
22.81
19.83
17.11
14.67
12.48
10.54
8.83
7.35
6.07
4.97
4.05
3.27
2.62
2.09
1.65
1.30
1.01
0.79
0.61
0.47
0.37
0.29
0.23
0.18
0.16
0.14
0.14
0.14
0.16
0.18
0.20
0.23
0.27
0.31
0.35
0.40
0.44
0.49
0.53
0.58
0.64
0.69
0.75
0.81
0.88
0.95
1.04
1.14
1.26
1.38
1.51
1.63
1.74
1.84
1.93
2.05
2.21
2.42
2.70
3.02
3.37
3.72
4.05
4.36
4.68
5.05
5.49
6.02
6.62
7.26
7.90
8.51
9.09
9.68
10.33
11.10
12.00
12.96
13.91
14.72
15.36
15.81
16.11
16.35
16.52
16.51
16.08
14.95
12.80
9.49
5.03
-0.32
-6.18
-12.12
-17.85
-23.25
-28.41
-33.51
-38.69
-43.90
-48.90
-53.29
-56.68
-58.85
-59.82
-59.99
-60.10
-61.00
-63.48
-67.80
-73.23
-78.14
-80.32
-77.65
-68.90
-54.45
-36.32
-17.89
-2.82
6.19
8.35
5.14
-0.17
-3.65
-2.21
5.43
18.31
33.75
48.23
58.58
62.87
60.82
53.77
44.23
35.13
28.85
26.61
28.28
32.60
38.11
43.54
48.29
52.51
56.70
61.59
67.82
75.44
83.37
89.17
89.22
80.31
61.61
35.40
6.50
-19.35
-37.71
-47.20
-47.95
-41.79
-31.07
-17.80
-3.77
9.15
19.14
25.09
27.57
28.97
32.20
39.14
49.45
60.61
68.88
70.91
64.87
50.77
30.25
5.83
-19.35
-42.04
-59.60
-70.75
-76.21
-79.20
-84.51
-96.86
-118.92
-149.30
-182.32
-210.46
-228.61
-236.67
-239.86
-245.46
-258.31
-277.67
-297.54
-310.67
-313.04
-306.36
-296.34
-288.42
-283.88
-278.71
-266.35
-241.97
-205.74
-163.24
-122.83
-91.81
-73.22
-64.92
-61.17
-55.75
-44.59
-27.26
-5.99
16.42
38.65
61.25
85.53
111.92
138.33
160.51
173.79
175.38
166.11
150.57
135.41
126.33
125.44
130.12
134.42
132.52
122.12
106.21
91.96
87.32
97.51
123.32
161.93
208.89
259.52
308.94
351.62
381.66
394.52
389.27
369.49
341.96
313.93
290.47
273.62
263.24
258.60
258.88
262.70
267.12
267.79
260.41
243.01
217.19
187.59
159.72
137.52
122.24
112.71
106.45
101.17
95.49
89.15
82.62
76.41
70.68
65.16
59.32
52.83
45.92
39.54
35.19
34.36
38.02
46.06
57.09
68.51
76.96
79.14
72.63
56.55
31.72
0.04
-36.40
-76.03
-117.93
-161.29
-204.58
-245.32
-280.73
-308.84
-329.28
-342.86
-350.19
-350.25
-340.65
-319.56
-288.26
-252.17
-218.98
-194.82
-180.82
-172.43
-162.28
-144.85
-119.71
-91.54
-66.83
-50.00
-41.43
-38.17
-36.74
-35.25
-33.64
-32.51
-31.58
-29.47
-24.64
-16.83
-7.44
1.16
7.02
10.00
11.89
15.31
21.74
30.34
37.87
40.17
34.47
21.07
3.66
-12.21
-21.53
-21.85
-13.87
-0.50
14.99
30.29
44.16
55.45
62.20
61.90
53.05
36.83
17.53
0.79
-9.29
-12.59
-13.16
-17.00
-28.51
-48.20
-72.69
-96.87
-116.68
-130.65
-139.60
-144.93
-147.28
-146.32
-141.71
-134.20
-125.80
-118.80
-114.52
-112.26
-109.39
-102.52
-88.75
-66.79
-37.24
-2.36
34.66
70.60
103.01
130.48
152.52
169.03
179.75
184.13
181.81
173.34
160.65
146.53
133.48
122.45
112.56
101.86
88.91
74.08
59.42
47.45
39.34
34.10
29.20
22.37
13.29
4.04
-2.14
-2.93
1.51
8.58
14.65
16.92
14.59
8.78
1.46
-5.78
-12.27
-17.88
-22.34
-24.72
-23.91
-19.33
-11.82
-3.67
2.25
3.71
0.17
-7.14
-15.91
-23.71
-28.80
-30.55
-29.39
-26.52
-23.47
-21.68
-22.04
-24.56
-28.51
-32.89
-36.95
-40.40
-43.23
-45.34
-46.24
-45.42
-43.00
-40.23
-39.24
-41.99
-49.00
-58.60
-67.43
-71.74
-68.99
-58.91
-43.31
-25.18
-7.36
8.35
21.29
31.63
39.76
45.88
49.99
52.11
52.53
51.90
50.97
50.43
50.61
51.27
51.68
50.89
48.18
43.32
36.79
29.60
22.89
17.41
13.29
10.08
7.11
3.87
0.22
-3.64
-7.45
-11.22
-15.25
-19.97
-25.55
-31.68
-37.63
-42.56
-46.08
-48.76
-52.06
-57.87
-67.48
-80.84
-96.30
-111.24
-123.28
-131.49
-136.72
-141.01
-146.35
-153.50
-161.69
-169.28
-174.93
-178.64
-181.93
-187.02
-195.72
-208.67
-225.16
-243.59
-262.08
-279.05
-293.42
-304.41
-311.28
-313.13
-308.94
-297.77
-279.00
-252.60
-219.33
-180.62
-138.39
-94.68
-51.20
-8.97
31.82
71.62
111.22
151.37
192.56
234.89
277.97
320.78
361.44
397.16
424.62
440.90
444.81
437.86
423.99
408.17
394.35
383.89
375.44
366.34
354.54
339.78
323.44
307.20
291.70
276.01
258.44
237.86
214.73
190.96
168.92
150.11
134.49
120.63
106.65
91.29
74.52
57.53
42.14
29.93
21.55
16.41
12.95
9.47
4.96
-0.40
-5.39
-8.41
-8.41
-5.42
-0.55
4.65
9.04
12.38
15.31
18.83
23.51
29.05
34.57
39.16
42.77
46.38
51.64
60.14
72.51
87.96
104.50
119.70
131.71
140.02
145.76
151.16
158.47
168.77
181.15
192.83
200.21
200.52
193.17
180.19
165.22
151.87
141.92
134.57
126.95
115.55
97.77
73.06
42.64
8.71
-26.61
-61.96
-96.43
-129.08
-158.40
-182.49
-199.82
-210.15
-214.90
-216.79
-218.64
-222.17
-227.33
-232.49
-235.48
-234.79
-230.19
-222.75
-214.11
-205.62
-197.80
-190.27
-182.27
-173.28
-163.35
-153.05
-143.02
-133.55
-124.39
-114.89
-104.54
-93.36
-82.07
-71.89
-63.93
-58.78
-56.24
-55.42
-55.28
-55.02
-54.43
-53.67
-52.88
-51.82
-49.63
-45.28
-38.07
-28.10
-16.28
-3.91
8.12
19.62
31.26
44.04
58.54
74.49
90.55
104.68
114.89
119.84
119.29
113.84
104.42
91.60
75.40
55.48
31.75
4.96
-23.20
-50.63
-75.51
-96.94
-115.06
-130.72
-144.62
-156.74
-166.13
-171.29
-171.20
-166.00
-157.34
-147.90
-140.11
-134.99
-131.67
-128.02
-122.13
-113.72
-104.45
-96.90
-92.83
-91.90
-91.58
-88.71
-81.36
-70.01
-57.30
-46.42
-39.34
-35.88
-33.98
-31.19
-26.25
-19.76
-13.75
-10.38
-10.53
-13.34
-16.63
-18.21
-17.05
-13.82
-10.39
-8.75
-9.93
-13.59
-18.21
-21.93
-23.44
-22.52
-19.94
-16.93
-14.35
-12.31
-10.07
-6.59
-1.33
5.27
11.80
16.52
18.34
17.40
15.19
13.75
14.78
18.72
24.66
30.93
36.05
39.46
41.89
44.92
50.10
58.14
68.54
79.82
90.31
98.86
105.50
111.39
118.31
127.87
140.88
157.14
175.63
194.87
213.40
229.78
242.65
250.71
253.02
249.75
242.99
236.90
236.78
246.90
268.15
296.74
324.98
343.99
347.29
333.18
304.93
268.85
231.21
195.98
164.22
135.22
108.15
83.22
61.62
44.61
32.42
23.84
16.52
7.98
-3.49
-18.31
-35.59
-53.72
-71.20
-87.29
-102.34
-117.72
-135.20
-156.21
-181.20
-209.39
-239.06
-268.33
-295.81
-321.20
-345.36
-369.85
-396.45
-426.91
-463.00
-506.20
-556.92
-613.24
-669.95
-719.03
-751.73
-761.66
-747.39
-712.97
-666.26
-615.68
-567.32
-523.72
-484.66
-448.93
-415.91
-385.91
-359.43
-336.29
-315.20
-294.29
-272.13
-248.36
-223.79
-200.01
-178.45
-159.66
-143.17
-127.64
-111.50
-93.61
-73.60
-51.95
-29.67
-7.78
13.01
32.54
51.07
69.13
87.16
105.37
123.70
141.78
159.12
175.19
189.60
202.14
212.93
222.43
231.39
240.64
250.91
262.63
275.82
290.37
306.11
323.09
341.64
362.27
385.56
412.26
443.42
480.31
523.67
572.61
623.66
670.71
706.22
723.38
718.23
690.61
643.85
583.31
514.81
443.61
374.10
309.93
254.07
208.58
174.22
150.38
135.22
126.23
120.84
116.90
112.94
108.24
102.44
95.26
86.18
74.79
61.25
46.99
34.77
27.83
28.35
35.97
47.39
57.59
61.98
58.64
49.36
38.84
32.46
33.81
43.11
57.25
71.34
80.68
82.36
75.66
61.41
41.11
16.23
-11.91
-41.93
-72.47
-102.55
-131.98
-161.33
-191.11
-220.60
-247.20
-266.99
-276.43
-274.16
-261.88
-243.60
-223.66
-204.88
-187.73
-171.14
-154.06
-136.71
-120.73
-108.14
-99.83
-94.85
-90.74
-85.08
-77.17
-68.87
-64.34
-68.24
-83.50
-109.53
-141.77
-172.80
-194.67
-201.42
-190.90
-164.76
-127.21
-82.79
-34.43
17.20
73.17
135.15
204.29
280.20
360.28
439.45
510.37
564.67
594.96
597.23
572.30
525.60
465.17
398.70
331.39
265.48
201.39
139.56
81.39
28.80
-17.20
-57.62
-95.29
-133.66
-174.88
-219.01
-264.52
-309.45
-352.68
-393.37
-429.87
-459.26
-478.00
-483.78
-477.19
-461.86
-442.79
-423.76
-405.04
-383.51
-354.41
-313.80
-260.34
-195.07
-119.87
-35.88
56.67
157.01
261.53
362.60
449.60
512.04
543.18
542.73
517.19
477.00
432.54
390.47
352.55
317.37
282.69
247.84
214.22
183.94
158.05
135.58
113.88
90.18
63.10
33.30
3.31
-23.87
-46.39
-64.55
-81.01
-99.31
-122.35
-150.80
-182.70
-214.75
-244.02
-269.73
-293.29
-316.97
-342.06
-368.30
-394.41
-419.48
-443.24
-464.77
-481.04
-487.02
-478.56
-455.97
-426.13
-400.12
-387.34
-389.55
-398.40
-398.90
-376.46
-324.18
-246.03
-155.02
-67.85
0.28
38.60
42.01
10.85
-49.09
-127.02
-208.98
-280.90
-332.41
-359.16
-363.01
-349.96
-327.49
-301.98
-277.85
-257.67
-242.69
-233.19
-228.31
-226.06
-223.26
-216.70
-204.28
-185.90
-163.52
-140.07
-118.26
-99.12
-81.61
-63.03
-40.29
-11.15
24.70
65.54
108.45
150.19
188.49
222.61
253.32
282.49
312.74
347.05
388.12
437.08
491.86
546.37
591.16
616.03
613.67
582.55
527.62
457.96
383.22
310.01
240.60
173.84
107.24
38.75
-32.90
-108.51
-188.42
-271.52
-353.89
-428.41
-486.28
-520.12
-526.92
-509.51
-475.44
-433.93
-392.64
-355.87
-324.63
-298.08
-275.10
-254.96
-237.26
-221.34
-206.17
-190.69
-174.42
-157.75
-141.74
-127.73
-116.55
-108.18
-101.80
-96.14
-90.06
-83.03
-75.27
-67.62
-61.07
-56.31
-53.37
-51.65
-50.22
-48.16
-45.00
-40.71
-35.73
-30.56
-25.49
-20.45
-15.02
-8.68
-1.09
7.75
17.48
27.63
37.86
48.12
58.72
70.10
82.55
95.97
110.10
124.39
138.27
151.50
164.30
177.46
191.85
208.05
225.95
245.14
264.82
284.24
303.00
321.29
339.91
360.06
383.11
410.14
442.05
478.15
515.53
549.27
573.78
584.77
580.88
564.29
539.83
514.75
494.37
480.03
469.06
456.84
439.68
416.40
388.44
358.66
333.10
315.33
304.99
298.27
290.74
280.24
267.51
255.11
245.74
246.58
262.22
293.22
336.02
385.09
434.80
479.52
513.28
530.56
535.23
532.85
528.29
523.56
518.72
513.80
509.26
505.74
459.95
350.40
183.59
-6.88
-182.59
-320.93
-417.76
-479.43
-514.98
-532.24
-529.32
-506.83
-468.37
-421.60
-375.54
-336.69
-307.66
-288.24
-277.07
-267.75
-252.54
-229.34
-201.34
-173.87
-150.95
-134.07
-122.72
-115.37
-107.01
-93.99
-75.86
-55.17
-35.65
-20.11
-9.64
-4.03
-2.43
-2.15
-1.20
0.78
2.70
2.86
0.03
-6.21
-15.60
-27.53
-40.62
-53.62
-65.87
-77.10
-87.15
-95.68
-102.10
-105.61
-105.47
-101.12
-92.21
-78.79
-61.27
-40.39
-17.15
7.27
31.64
54.79
75.76
93.89
108.76
120.34
128.84
134.75
138.58
140.80
141.74
141.51
140.00
136.88
131.71
124.01
113.32
99.38
82.18
62.03
39.52
15.60
-8.66
-32.05
-53.46
-71.94
-86.75
-97.49
-103.99
-106.25
-104.49
-99.07
-90.49
-79.40
-66.59
-52.93
-39.36
-26.67
-15.56
-6.45
0.42
4.98
7.11
6.58
3.01
-4.05
-14.82
-29.23
-46.70
-66.31
-86.98
-107.87
-128.59
-149.30
-170.83
-193.77
-217.94
-242.18
-264.76
-283.83
-298.61
-309.43
-317.58
-325.32
-334.69
-346.60
-360.55
-375.32
-389.37
-402.24
-414.45
-427.43
-444.21
-467.76
-500.36
-543.08
-595.35
-653.62
-711.92
-761.64
-793.57
-803.86
-792.90
-764.71
-725.07
-679.77
-631.91
-584.14
-537.09
-490.47
-450.25
-421.42
-404.82
-396.35
-389.53
-376.53
-356.19
-329.89
-300.01
-278.72
-274.95
-289.71
-316.09
-344.29
-363.00
-371.13
-370.67
-364.30
-366.96
-389.86
-434.56
-493.12
-554.36
-605.13
-644.88
-675.99
-625.35
-458.90
-191.97
117.57
407.12
608.20
738.51
822.93
881.24
927.31
962.37
982.76
990.18
993.33
1002.65
1024.41
1048.06
1060.96
1056.48
1025.76
967.10
886.52
795.41
705.30
627.50
563.10
510.87
469.47
430.97
388.95
341.24
290.33
240.26
196.24
158.17
125.15
99.63
76.12
50.50
21.15
-10.60
-42.53
-71.73
-97.74
-120.38
-139.39
-156.24
-172.06
-187.55
-202.10
-215.07
-225.57
-233.46
-238.47
-240.03
-237.64
-229.84
-219.60
-207.91
-195.48
-182.79
-170.06
-157.25
-144.23
-131.15
-117.96
-104.96
-91.98
-79.20
-66.91
-55.27
-44.26
-33.63
-23.10
-12.33
-1.33
10.00
21.34
32.26
42.57
52.55
62.98
74.84
88.95
105.47
124.12
143.87
163.51
182.26
200.21
218.35
238.13
260.81
286.79
315.52
345.66
375.65
404.49
432.14
459.45
487.87
519.21
555.40
598.13
647.73
701.96
755.17
798.99
824.54
825.59
801.08
755.44
696.78
633.54
571.68
513.62
459.09
407.01
357.07
309.93
266.56
227.20
191.11
157.01
124.07
92.53
63.68
39.36
20.86
8.31
0.52
-4.63
-9.32
-15.03
-22.19
-30.23
-38.19
-45.31
-51.47
-57.27
-63.67
-71.47
-80.87
-91.36
-101.94
-111.63
-120.04
-127.55
-135.07
-143.51
-153.23
-163.68
-173.62
-181.64
-186.92
-189.62
-191.06
-193.08
-197.36
-204.70
-214.73
-226.48
-238.72
-251.12
-264.27
-279.61
-298.70
-322.76
-352.21
-386.55
-424.24
-462.51
-497.44
-523.95
-537.08
-533.65
-514.16
-483.52
-450.40
-424.62
-413.83
-420.96
-443.98
-477.96
-517.97
-560.84
-604.91
-647.94
-685.33
-710.12
-715.51
-698.18
-660.40
-609.60
-554.78
-503.08
-457.21
-415.99
-376.66
-337.54
-299.11
-263.37
-232.03
-205.14
-181.19
-157.85
-133.55
-108.20
-83.43
-61.45
-43.84
-30.63
-20.13
-9.75
2.86
18.64
36.72
55.10
71.57
84.95
95.43
104.45
114.11
126.77
144.83
170.18
202.89
239.48
272.17
290.47
285.28
253.58
201.22
141.72
91.09
61.49
57.15
74.64
106.14
143.51
180.35
211.56
231.79
234.79
215.23
171.73
109.15
38.39
-26.75
-73.86
-95.79
-92.18
-68.82
-34.65
1.61
34.10
60.68
82.00
99.72
114.86
127.50
137.66
146.68
157.19
171.57
189.99
209.48
225.09
232.65
231.29
223.82
214.85
207.65
202.39
196.54
187.12
173.52
158.64
147.73
145.63
154.17
170.83
189.32
201.92
202.33
188.17
162.37
132.99
110.91
106.00
122.88
158.35
201.99
239.83
259.26
253.24
221.90
171.39
110.95
49.94
-4.11
-46.69
-76.59
-95.50
-107.05
-114.72
-119.49
-118.73
-107.48
-81.83
-42.54
3.67
46.66
77.84
94.19
98.59
96.54
91.47
82.35
65.33
38.18
4.08
-28.44
-49.83
-55.27
-47.81
-36.94
-33.16
-42.19
-62.31
-86.32
-105.91
-115.66
-114.69
-105.58
-92.11
-77.53
-64.02
-52.78
-43.91
-36.27
-27.83
-16.84
-3.61
8.67
15.47
13.82
4.93
-5.89
-12.22
-10.66
-3.10
4.65
7.08
2.93
-3.79
-6.52
-0.43
14.77
35.06
54.82
69.97
79.20
83.50
84.78
84.78
84.69
85.05
85.64
85.28
82.37
75.81
66.18
55.77
47.41
42.58
40.17
37.16
30.64
20.27
9.08
2.13
4.11
17.12
39.89
68.66
98.60
125.01
144.03
152.73
149.35
133.77
108.40
78.62
52.25
37.25
38.64
55.85
82.49
109.04
127.43
135.04
135.64
136.63
144.50
161.19
183.67
206.76
227.15
245.80
266.80
293.88
326.77
360.05
385.33
395.36
387.44
364.44
333.09
300.52
271.40
246.68
224.49
202.11
177.98
152.53
127.78
105.92
88.13
73.99
61.90
49.95
36.88
22.57
7.90
-5.96
-18.09
-28.36
-37.47
-46.56
-56.73
-68.66
-82.38
-97.50
-113.50
-129.99
-146.87
-164.29
-182.53
-201.81
-222.32
-244.08
-266.87
-290.37
-314.21
-338.21
-362.80
-389.15
-418.53
-451.13
-485.28
-517.55
-544.23
-563.07
-573.89
-577.69
-574.88
-564.14
-542.91
-509.33
-464.11
-410.93
-354.77
-299.33
-245.53
-191.84
-136.15
-77.43
-16.22
46.04
107.74
166.78
219.42
259.66
280.30
275.21
241.98
183.65
108.62
29.10
-41.78
-92.78
-117.15
-113.75
-86.98
-45.45
0.16
39.11
62.82
66.56
50.56
19.75
-17.80
-54.01
-83.53
-104.74
-119.14
-128.88
-134.82
-136.18
-131.81
-121.84
-108.10
-93.44
-79.83
-67.74
-56.47
-45.42
-34.42
-23.22
-10.56
6.19
30.15
63.71
107.48
159.80
216.80
272.26
318.15
346.06
349.61
326.75
281.06
220.67
155.83
95.37
44.09
2.08
-34.69
-72.20
-115.38
-165.67
-219.61
-268.86
-302.54
-311.96
-294.24
-253.71
-200.03
-144.04
-94.35
-54.98
-26.10
-5.93
7.41
15.52
20.18
23.46
27.88
33.63
39.05
40.95
35.90
20.69
-7.41
-50.24
-107.59
-175.71
-248.56
-316.61
-369.06
-396.98
-396.76
-371.17
-327.47
-272.81
-210.79
-144.65
-77.16
-13.16
40.54
76.54
89.60
79.56
52.49
34.70
47.59
99.48
179.30
265.43
339.63
394.09
430.03
453.06
468.74
477.06
477.31
468.03
450.18
427.25
403.64
382.73
366.19
353.69
341.04
326.53
308.35
287.07
265.30
246.05
231.44
222.23
217.92
215.88
213.38
207.94
198.95
187.45
175.03
163.17
152.76
144.11
136.39
128.40
119.01
107.66
94.44
79.81
64.23
48.05
31.44
14.06
-4.83
-26.04
-50.31
-77.70
-107.54
-138.38
-168.30
-195.63
-219.41
-240.22
-259.01
-277.89
-298.62
-321.84
-346.74
-371.48
-394.12
-413.48
-430.66
-446.00
-462.17
-482.14
-508.39
-541.58
-579.67
-617.82
-648.46
-665.28
-659.06
-626.94
-570.22
-494.05
-406.24
-316.20
-233.86
-166.50
-119.94
-88.11
-67.14
-54.00
-48.51
-52.65
-67.98
-93.38
-121.75
-145.96
-150.19
-131.71
-95.55
-50.60
-3.48
44.86
95.85
177.58
254.10
326.45
383.54
414.50
413.84
383.52
330.72
261.45
182.71
98.45
24.46
-32.28
-67.50
-80.80
-75.55
-40.70
20.26
92.74
143.96
177.92
202.01
227.10
258.71
299.78
350.51
405.07
455.99
494.24
519.04
527.10
518.52
497.11
469.33
441.05
413.29
385.48
356.20
328.61
302.58
277.41
251.84
224.82
195.64
163.24
128.78
95.30
68.27
49.86
39.48
34.20
30.39
24.97
15.95
3.89
-8.59
-17.91
-22.71
-24.16
-25.56
-30.76
-42.58
-61.75
-86.43
-112.99
-137.72
-158.99
-177.91
-197.92
-223.73
-259.87
-309.21
-371.57
-442.46
-512.89
-570.59
-603.05
-602.01
-567.58
-510.01
-447.23
-398.44
-376.54
-382.67
-405.98
-428.72
-434.08
-412.83
-365.90
-302.31
-234.29
-172.19
-121.62
-82.92
-52.53
-25.35
3.35
36.42
74.16
114.34
152.96
185.45
208.09
219.05
218.71
210.26
199.54
194.42
202.58
228.40
269.92
317.82
358.01
377.96
372.98
349.38
322.05
306.97
312.86
336.81
366.48
387.46
391.21
378.89
358.89
340.27
326.60
314.08
294.85
262.54
216.46
161.79
105.66
52.49
1.08
-54.13
-118.78
-193.51
-272.08
-343.50
-397.63
-430.43
-445.73
-452.56
-459.90
-471.35
-483.91
-490.65
-485.90
-469.07
-444.98
-420.72
-401.20
-387.23
-375.84
-362.95
-346.09
-325.44
-302.85
-280.11
-257.27
-231.66
-199.65
-158.01
-105.58
-44.01
22.54
88.65
149.76
203.53
251.52
296.74
342.91
393.32
449.74
511.13
572.91
627.19
663.65
673.34
649.18
589.88
501.53
397.00
292.00
200.40
130.73
76.07
31.74
-7.80
-45.55
-80.83
-109.96
-130.21
-141.98
-147.70
-151.69
-154.69
-155.91
-152.49
-141.88
-122.78
-96.66
-69.27
-46.37
-31.92
-26.00
-27.44
-32.72
-43.37
-59.53
-80.16
-103.34
-126.93
-149.03
-165.68
-176.48
-179.13
-170.83
-148.83
-112.08
-63.48
-6.93
54.51
119.17
176.88
218.43
238.05
236.25
218.24
190.33
156.80
120.75
83.90
46.69
10.61
-22.33
-50.70
-74.56
-90.79
-103.78
-116.56
-130.88
-147.62
-165.86
-183.41
-198.43
-210.12
-218.66
-225.27
-229.99
-232.21
-230.47
-227.48
-223.05
-216.78
-208.63
-199.09
-189.42
-180.03
-171.18
-163.10
-155.79
-148.36
-140.38
-131.79
-122.82
-114.18
-106.09
-98.76
-92.45
-87.41
-83.18
-79.55
-76.38
-73.53
-71.02
-68.61
-66.09
-63.41
-60.69
-57.79
-54.71
-51.43
-47.78
-43.54
-38.36
-31.95
-24.30
-15.66
-6.30
3.50
13.67
24.51
36.60
50.56
66.69
84.75
103.90
123.01
141.05
157.57
172.88
187.90
203.77
221.23
240.28
260.12
279.66
298.00
314.93
331.04
347.45
365.40
386.07
410.55
439.68
473.47
510.20
545.79
574.13
588.75
585.26
563.32
526.97
482.98
437.95
395.89
357.45
321.25
286.10
252.49
222.38
197.53
177.63
159.82
140.04
115.40
86.03
55.16
27.51
6.75
-6.25
-13.40
-17.97
-22.55
-27.83
-32.78
-35.86
-36.25
-34.33
-31.36
-28.37
-25.67
-22.80
-19.05
-14.16
-8.56
-2.95
2.31
7.60
14.05
22.95
35.11
50.52
68.40
87.50
106.41
123.60
137.53
146.87
150.61
148.33
140.11
126.30
107.33
83.63
56.03
26.10
-3.92
-31.74
-56.00
-76.84
-95.76
-114.39
-133.18
-150.88
-165.03
-173.27
-174.62
-169.76
-160.59
-149.29
-137.60
-126.74
-117.88
-112.50
-112.29
-118.53
-131.28
-149.18
-169.62
-189.56
-206.44
-218.73
-225.91
-228.00
-225.06
-216.83
-203.02
-183.91
-161.06
-137.47
-116.74
-101.72
-93.15
-89.35
-86.96
-82.66
-74.78
-63.76
-51.53
-39.88
-29.31
-18.89
-7.20
6.39
20.83
33.76
42.66
46.25
45.17
41.68
38.50
37.42
38.46
39.91
39.34
34.98
26.65
15.87
5.04
-3.95
-10.88
-17.32
-25.83
-38.53
-55.84
-76.25
-97.11
-115.98
-131.64
-144.24
-154.39
-162.05
-166.14
-165.09
-158.13
-146.46
-133.33
-123.02
-119.12
-122.99
-133.47
-147.66
-162.25
-174.74
-183.87
-189.18
-190.35
-186.72
-177.38
-161.79
-140.36
-114.74
-87.54
-61.47
-38.51
-19.43
-3.97
8.56
18.55
25.76
29.73
30.33
28.25
25.08
22.68
22.48
25.09
30.24
37.11
44.73
52.17
58.66
63.62
66.73
67.88
67.10
64.25
58.94
50.64
39.17
25.27
10.97
-0.66
-6.47
-4.49
5.00
19.34
34.37
46.18
52.82
55.09
55.78
57.84
62.55
68.78
73.89
75.50
73.03
67.86
62.04
56.73
51.47
45.00
36.81
28.19
21.93
20.73
25.46
34.43
44.22
51.40
54.07
52.21
47.03
40.00
32.24
24.54
17.64
12.17
8.39
5.83
3.45
0.32
-3.74
-8.06
-11.75
-14.50
-16.94
-20.26
-25.16
-31.17
-36.85
-40.80
-42.89
-44.48
-47.37
-52.10
-56.81
-57.67
-50.90
-34.97
-11.81
13.95
37.13
54.15
64.20
68.52
68.76
65.53
58.01
44.91
25.81
2.03
-23.66
-48.17
-69.35
-86.59
-100.39
-111.36
-119.37
-123.49
-122.78
-117.52
-109.96
-104.00
-103.65
-111.08
-125.28
-142.09
-155.63
-160.59
-154.25
-137.14
-112.30
-83.44
-53.37
-23.38
6.21
34.83
60.80
81.52
94.53
98.86
95.71
88.02
79.22
71.84
66.79
63.55
60.90
57.84
53.97
49.51
45.12
41.43
38.73
36.75
34.67
31.55
27.02
21.76
17.52
16.30
19.00
24.62
30.46
33.45
31.81
25.83
17.57
9.47
2.92
-2.24
-7.18
-13.01
-19.88
-26.94
-32.97
-37.15
-39.63
-41.41
-43.79
-47.67
-53.08
-59.16
-64.48
-67.74
-68.47
-67.38
-66.10
-66.05
-67.16
-67.50
-64.12
-55.08
-41.06
-25.47
-12.67
-5.39
-3.20
-3.10
-1.77
2.08
6.80
9.10
6.59
-0.38
-8.73
-14.42
-14.76
-9.68
-1.46
6.86
13.04
16.40
17.70
18.43
20.09
23.58
28.86
34.94
40.36
43.88
45.32
45.81
47.42
52.24
61.29
74.13
89.18
104.63
119.18
132.38
144.39
155.22
164.33
170.58
172.92
171.25
167.10
163.59
164.65
173.44
190.92
215.15
241.89
266.47
285.69
298.89
307.53
313.44
316.95
316.33
308.54
291.14
263.72
228.05
186.92
142.56
95.84
46.74
-4.37
-55.77
-104.59
-148.18
-185.53
-218.03
-249.02
-282.13
-319.62
-361.27
-404.40
-444.96
-478.92
-503.63
-518.61
-525.36
-526.73
-525.84
-524.86
-524.12
-521.86
-514.88
-500.02
-475.59
-442.15
-402.12
-358.36
-312.90
-266.37
-218.70
-170.27
-122.53
-77.54
-36.70
0.16
34.60
68.19
101.01
131.06
155.13
170.66
177.16
176.46
171.49
164.84
157.71
149.92
140.70
129.38
115.93
101.02
85.83
71.80
60.25
52.01
47.15
45.10
44.96
45.88
47.22
48.58
49.55
49.59
48.09
44.53
38.77
31.07
21.94
11.94
1.53
-8.85
-18.52
-26.47
-31.31
-31.69
-26.80
-16.90
-3.63
10.26
21.65
28.08
28.73
24.62
18.26
12.57
9.70
10.25
13.25
16.92
19.68
20.99
21.37
21.91
23.46
25.97
28.66
30.61
31.54
32.14
33.75
37.56
43.69
50.97
57.41
61.17
61.54
59.24
56.10
54.24
55.14
59.08
65.16
71.81
77.62
81.96
85.04
87.54
89.74
91.01
89.76
84.19
73.17
57.01
37.46
17.17
-1.36
-16.55
-28.01
-36.03
-41.00
-42.86
-41.19
-35.60
-26.31
-14.42
-1.60
10.49
20.86
29.34
36.54
43.32
50.32
57.72
65.43
73.47
82.29
92.73
105.65
121.35
139.21
157.54
174.36
188.34
199.92
211.85
228.74
255.66
295.98
349.56
411.99
475.46
530.98
570.94
591.05
590.96
573.37
542.46
502.42
456.69
408.11
359.32
313.10
272.09
238.06
211.25
190.07
171.81
153.71
134.14
113.25
92.64
74.38
59.44
46.83
33.41
15.07
-11.68
-48.00
-91.98
-139.12
-184.16
-223.01
-254.08
-278.76
-300.23
-322.02
-346.66
-375.08
-406.18
-436.69
-461.29
-473.67
-468.76
-445.10
-406.69
-362.61
-324.42
-302.22
-300.84
-317.79
-343.60
-365.13
-370.39
-353.00
-314.45
-262.65
-207.45
-155.36
-106.84
-57.65
-3.13
57.62
120.17
177.43
224.23
260.05
288.40
312.95
333.76
346.29
344.31
324.39
288.66
244.29
199.95
162.27
134.03
114.57
101.48
92.15
84.08
74.79
61.99
44.01
20.26
-8.22
-39.01
-69.32
-97.01
-121.40
-143.53
-165.71
-190.72
-220.56
-255.38
-292.80
-327.98
-354.90
-368.14
-364.48
-343.76
-308.97
-265.41
-219.58
-177.98
-145.86
-125.91
-117.07
-114.58
-111.25
-100.26
-78.09
-46.06
-9.71
24.23
51.08
69.99
83.16
93.55
102.48
109.02
111.01
106.82
96.80
83.10
68.68
55.91
45.97
38.93
34.31
31.41
29.46
27.49
24.24
18.48
9.57
-2.10
-15.03
-27.03
-35.71
-39.34
-37.79
-32.76
-27.50
-25.27
-27.74
-33.99
-41.09
-45.83
-46.73
-44.95
-43.35
-44.44
-48.72
-54.24
-57.95
-57.97
-54.85
-51.37
-50.77
-54.73
-62.44
-71.17
-77.55
-79.00
-74.65
-65.48
-54.10
-44.02
-38.51
-39.22
-45.16
-53.01
-58.81
-60.24
-58.15
-56.07
-57.99
-65.56
-76.72
-86.74
-91.00
-88.01
-80.20
-72.30
-68.74
-71.61
-80.34
-93.11
-108.41
-125.62
-144.62
-164.58
-183.49
-198.48
-206.95
-207.35
-199.85
-186.13
-168.61
-149.97
-132.53
-117.46
-104.09
-89.87
-71.42
-46.63
-16.70
13.68
37.76
50.12
49.71
40.72
31.11
28.86
38.04
56.98
79.31
97.24
105.77
104.95
99.45
95.58
97.69
105.90
116.32
123.46
123.27
115.18
101.73
86.54
72.43
60.68
51.62
46.18
46.71
56.20
76.13
104.37
134.57
158.32
168.81
164.70
151.59
139.90
139.90
156.37
185.48
215.98
233.96
229.09
199.39
152.07
100.33
57.45
31.55
23.43
28.42
40.74
57.43
79.27
108.27
143.52
178.70
203.55
208.94
192.18
159.44
122.98
94.93
81.13
78.94
79.70
74.06
56.97
29.64
-1.84
-29.67
-47.52
-52.37
-44.74
-28.17
-8.20
8.78
16.97
12.78
-3.80
-28.94
-56.19
-78.88
-92.61
-96.84
-94.58
-90.60
-88.75
-90.19
-93.19
-94.57
-91.76
-84.40
-74.31
-64.02
-55.08
-47.10
-38.16
-26.29
-11.01
5.89
20.86
30.06
30.97
23.33
9.23
-7.86
-24.36
-37.76
-47.17
-53.10
-56.75
-59.16
-60.56
-60.31
-57.26
-50.76
-41.37
-31.29
-23.62
-21.11
-24.86
-33.64
-44.24
-52.86
-56.78
-55.43
-50.33
-44.04
-39.04
-36.86
-38.02
-42.41
-49.83
-60.21
-73.24
-88.07
-103.13
-116.29
-125.35
-128.62
-125.51
-116.81
-104.59
-91.55
-80.18
-71.99
-67.24
-65.34
-65.72
-68.39
-73.92
-82.70
-93.88
-105.26
-113.86
-117.44
-115.93
-111.70
-108.48
-109.10
-113.81
-119.96
-123.43
-121.05
-112.52
-100.78
-90.57
-85.97
-88.33
-95.62
-103.22
-105.61
-98.30
-79.22
-49.35
-12.14
27.96
67.14
103.50
136.90
167.74
195.37
217.22
229.65
229.98
218.38
198.43
175.65
155.10
139.20
127.24
116.68
105.24
92.34
79.36
68.59
61.70
58.84
58.47
58.25
56.39
52.75
48.88
47.13
49.13
54.64
61.27
65.63
65.12
59.33
50.29
41.24
34.85
32.01
31.81
32.66
33.74
35.54
39.43
46.09
54.29
60.96
62.42
56.54
44.12
28.80
15.50
7.99
7.16
10.88
15.29
16.88
14.06
7.61
-0.05
-6.41
-10.05
-11.17
-11.15
-11.55
-13.29
-16.18
-19.18
-21.01
-20.99
-19.40
-17.29
-15.73
-15.16
-15.14
-14.57
-12.47
-8.69
-4.03
0.21
3.07
4.40
4.75
4.78
4.54
3.20
-0.45
-7.11
-16.14
-25.56
-32.78
-35.77
-34.11
-29.17
-23.39
-19.02
-17.01
-16.70
-16.31
-14.05
-9.13
-2.20
5.03
10.62
13.48
13.69
12.33
10.75
9.79
9.34
8.56
6.59
3.20
-1.00
-4.87
-7.33
-7.97
-7.30
-6.46
-6.66
-8.53
-11.85
-15.70
-18.92
-20.67
-20.92
-20.37
-20.10
-21.02
-23.31
-26.40
-29.18
-30.77
-30.95
-30.30
-29.67
-29.39
-28.85
-26.77
-22.04
-14.66
-6.05
1.59
6.41
8.09
7.94
8.17
10.48
15.04
20.40
24.35
25.17
22.54
17.55
12.04
7.53
4.58
2.58
0.31
-3.38
-8.89
-15.70
-22.53
-28.00
-31.31
-32.72
-33.37
-34.60
-37.10
-40.39
-43.08
-43.70
-41.80
-38.38
-35.51
-35.11
-37.77
-42.32
-46.27
-47.01
-43.06
-34.61
-23.23
-10.95
0.76
11.42
21.47
31.64
42.17
52.45
61.14
66.82
68.86
67.86
65.60
64.19
65.05
68.15
71.98
74.39
73.80
69.99
64.18
58.28
53.69
50.58
47.96
44.51
39.54
33.55
27.91
23.96
22.07
21.26
19.75
16.00
9.61
1.57
-6.27
-12.26
-15.90
-17.99
-20.00
-23.03
-26.91
-30.11
-30.41
-26.15
-17.18
-5.23
6.79
15.97
20.58
20.57
17.33
12.84
8.67
5.31
2.29
-1.28
-5.91
-11.36
-16.67
-20.77
-23.26
-24.71
-26.43
-29.56
-34.30
-39.57
-43.41
-44.12
-41.25
-36.08
-31.05
-28.52
-29.61
-33.74
-39.01
-43.32
-45.57
-46.02
-46.00
-46.94
-49.53
-53.38
-57.43
-60.65
-62.79
-64.36
-66.21
-68.68
-71.01
-71.49
-68.16
-59.84
-46.89
-31.25
-15.68
-2.60
7.02
13.89
19.90
26.85
35.29
44.13
51.21
54.61
53.85
50.15
45.91
43.29
43.06
44.45
45.84
45.99
44.83
43.31
42.56
42.93
43.70
43.61
41.85
38.82
35.91
34.65
35.69
38.18
40.07
39.16
34.22
25.68
15.34
5.45
-2.38
-7.89
-12.07
-16.28
-21.26
-26.35
-29.60
-28.76
-22.36
-10.72
4.08
19.02
31.34
39.68
44.37
46.83
48.55
50.06
50.49
48.15
41.68
31.18
18.61
7.08
-0.49
-2.77
-0.73
2.92
5.18
4.26
0.41
-4.42
-7.84
-8.40
-6.39
-3.39
-1.34
-1.20
-2.41
-3.41
-2.63
0.22
3.69
5.25
2.62
-4.85
-15.73
-27.28
-36.83
-43.25
-47.40
-51.38
-57.17
-65.33
-74.78
-83.57
-90.14
-94.27
-97.24
-100.96
-106.90
-115.29
-125.03
-134.37
-141.73
-146.52
-149.40
-151.91
-155.61
-161.16
-167.80
-173.60
-176.55
-175.89
-173.01
-170.90
-172.47
-178.26
-185.58
-189.62
-186.19
-174.28
-156.77
-138.57
-123.75
-113.29
-105.17
-96.18
-84.11
-68.83
-51.75
-34.38
-17.38
-0.61
16.17
32.96
49.75
67.06
85.86
106.59
128.12
147.58
161.66
168.52
169.14
166.76
165.10
166.30
170.16
174.98
179.13
182.18
184.85
188.01
191.61
194.41
194.65
191.12
183.96
174.53
164.73
155.99
148.74
142.39
135.85
128.17
118.98
108.50
97.37
86.19
75.30
64.66
53.99
43.25
32.82
23.42
15.89
10.66
7.40
5.05
2.26
-1.87
-7.13
-12.06
-14.35
-11.91
-3.92
8.64
23.16
36.61
46.78
53.21
57.20
60.90
65.99
72.77
80.11
86.22
89.68
90.27
89.14
88.12
88.92
92.32
97.90
104.44
110.64
115.72
119.68
122.69
124.43
123.74
118.97
109.21
95.28
79.99
66.98
58.66
54.42
50.57
42.15
25.97
2.79
-22.72
-44.46
-58.36
-64.74
-67.96
-73.59
-84.82
-100.36
-115.06
-122.91
-120.65
-109.66
-95.15
-83.14
-76.97
-75.73
-75.02
-70.05
-58.78
-43.43
-28.99
-19.80
-16.18
-13.40
-3.91
18.67
55.72
102.52
150.13
189.08
212.74
218.56
207.43
182.26
147.15
107.03
67.57
33.94
9.15
-7.48
-19.91
-33.16
-50.53
-71.85
-93.91
-112.67
-125.50
-132.42
-135.21
-135.69
-134.43
-130.65
-123.38
-112.67
-100.00
-87.40
-76.27
-66.42
-56.34
-44.32
-29.85
-14.11
0.69
12.64
21.36
28.11
34.77
42.61
51.77
61.69
71.94
82.45
93.05
102.58
108.45
107.57
97.98
80.27
57.76
35.09
16.22
2.68
-6.70
-14.74
-24.23
-36.49
-50.89
-65.29
-76.95
-83.49
-83.90
-79.02
-71.51
-65.01
-62.66
-65.81
-73.32
-81.95
-88.06
-89.34
-86.01
-80.57
-76.19
-74.87
-76.04
-76.87
-74.17
-66.50
-55.38
-44.68
-38.49
-38.80
-44.01
-49.64
-50.46
-43.07
-27.67
-7.83
11.47
26.11
34.60
38.07
38.90
39.05
39.09
38.41
36.35
33.04
29.51
26.75
24.52
21.11
14.47
4.01
-8.04
-17.14
-18.35
-9.04
9.35
31.41
49.81
58.34
54.42
39.87
19.97
1.01
-12.26
-18.04
-17.61
-14.15
-10.99
-10.14
-11.69
-14.21
-15.89
-15.63
-13.49
-10.22
-6.58
-2.78
1.48
6.37
11.44
15.57
17.52
16.78
13.97
10.58
8.11
7.32
7.80
8.38
7.89
5.84
2.58
-0.98
-3.86
-5.43
-5.67
-5.08
-4.33
-3.95
-4.13
-4.73
-5.63
-7.00
-9.55
-14.21
-21.54
-31.09
-41.16
-49.38
-53.65
-53.19
-48.91
-42.98
-37.80
-34.84
-34.21
-34.87
-35.43
-34.92
-33.25
-31.02
-29.08
-28.00
-27.84
-28.20
-28.43
-27.81
-25.74
-21.84
-16.04
-8.69
-0.50
7.72
15.40
22.35
28.69
34.58
39.98
44.66
48.22
50.36
50.94
49.83
46.67
41.06
32.94
23.22
13.90
7.45
5.68
8.60
14.17
19.17
20.71
17.60
10.60
1.68
-7.17
-14.74
-20.61
-24.63
-26.48
-25.91
-23.37
-20.35
-18.83
-20.09
-23.81
-27.89
-29.60
-27.06
-20.26
-11.06
-2.00
4.91
8.92
10.49
10.66
10.70
11.80
14.79
19.69
25.40
29.89
31.19
28.61
23.70
19.62
19.54
24.66
33.24
41.34
45.04
42.39
34.18
22.88
10.93
-0.12
-9.50
-16.17
-18.45
-14.99
-6.31
4.27
11.52
11.12
2.22
-11.66
-24.42
-30.66
-28.38
-19.40
-7.43
4.55
15.71
26.84
38.70
50.47
59.84
64.29
62.83
56.86
49.54
44.06
42.10
43.07
44.80
44.82
41.72
35.85
28.78
22.22
17.03
12.72
7.99
1.75
-6.00
-14.01
-20.47
-24.16
-25.15
-24.77
-24.72
-25.97
-28.21
-29.89
-29.17
-24.92
-17.40
-8.25
0.36
6.75
10.44
12.37
14.09
16.65
19.81
22.02
21.35
16.73
8.77
-0.33
-7.88
-12.21
-13.48
-13.55
-14.73
-18.43
-24.38
-30.75
-35.31
-36.75
-35.26
-32.38
-29.91
-28.90
-29.11
-29.26
-28.02
-24.80
-20.15
-15.29
-11.30
-8.39
-5.88
-2.74
1.48
6.11
9.62
10.45
8.19
4.08
0.63
0.49
5.10
13.86
24.37
33.64
39.43
41.27
40.28
38.44
37.22
36.78
36.03
33.41
28.15
20.81
13.17
7.35
4.53
4.24
4.60
3.35
-0.88
-7.90
-16.09
-23.42
-28.60
-31.84
-34.52
-38.29
-43.77
-50.08
-55.22
-57.04
-54.67
-49.06
-42.78
-38.76
-38.89
-43.08
-49.48
-55.33
-58.54
-58.62
-56.80
-55.11
-55.14
-57.13
-59.96
-61.81
-61.29
-58.29
-53.99
-50.20
-48.31
-48.54
-49.94
-50.81
-49.77
-46.47
-41.61
-36.47
-31.86
-27.61
-22.66
-15.74
-6.39
4.53
15.12
23.22
27.50
27.94
25.57
21.93
18.27
15.10
12.30
9.43
6.15
2.41
-1.56
-5.31
-8.44
-10.87
-12.96
-15.58
-19.69
-25.81
-33.44
-40.94
-46.13
-47.31
-44.18
-38.04
-31.00
-24.89
-20.21
-16.04
-10.83
-3.56
5.63
15.47
24.43
31.58
37.01
41.59
46.13
50.87
55.49
59.39
62.46
65.01
67.35
69.17
69.29
66.32
59.56
49.55
37.96
27.02
18.71
14.45
14.86
19.48
26.13
30.39
26.46
9.41
-21.65
-61.53
-100.06
-126.20
-133.15
-121.60
-98.69
-73.60
-52.33
-35.28
-19.11
-1.16
16.93
29.08
28.80
14.10
-9.80
-32.54
-44.48
-42.34
-31.05
-20.63
-20.09
-32.10
-52.31
-72.84
-87.96
-97.64
-106.69
-120.57
-141.23
-165.82
-189.39
-208.71
-224.58
-240.73
-260.20
-282.15
-301.25
-310.37
-304.60
-283.95
-253.24
-219.55
-188.88
-164.19
-145.04
-129.01
-113.45
-96.53
-77.67
-57.40
-36.92
-17.68
-0.64
14.18
27.90
42.53
60.33
83.01
111.04
143.30
177.13
208.83
234.14
249.21
251.68
241.60
222.00
198.55
178.31
167.56
169.53
183.21
203.95
225.79
244.50
259.57
273.92
291.47
314.11
339.97
364.32
382.41
392.38
396.00
397.26
399.58
403.49
406.52
404.54
393.58
371.25
337.39
294.38
247.20
202.52
166.47
141.70
125.47
110.64
89.53
58.79
21.80
-13.53
-40.10
-56.76
-69.12
-85.68
-111.93
-146.72
-183.76
-216.36
-241.94
-262.93
-283.26
-303.95
-321.20
-328.37
-320.43
-297.61
-265.68
-232.93
-206.13
-188.04
-177.63
-171.92
-167.95
-163.44
-156.71
-146.60
-133.25
-118.57
-106.33
-100.45
-102.79
-111.28
-119.88
-120.82
-107.86
-79.18
-38.38
6.76
46.95
74.67
86.62
84.46
73.80
61.98
55.28
56.89
66.26
80.15
94.82
107.49
116.94
122.95
125.32
123.59
117.62
108.47
98.71
91.48
88.75
90.28
93.91
97.24
99.36
101.32
105.22
112.22
121.29
129.56
134.04
133.59
129.72
125.54
123.84
125.24
127.77
128.03
123.32
113.33
100.41
88.24
79.68
75.05
71.85
66.26
55.40
39.39
21.59
7.15
0.55
3.30
13.20
25.59
35.76
41.32
43.07
44.17
48.25
57.61
72.50
91.52
112.61
133.82
153.29
168.81
177.53
176.31
162.67
135.79
96.87
48.69
-5.63
-63.64
-123.72
-184.28
-242.68
-294.69
-335.19
-359.80
-366.97
-358.90
-340.73
-318.37
-296.05
-274.95
-253.78
-230.65
-205.14
-179.06
-155.48
-136.96
-124.13
-115.34
-107.77
-98.83
-87.35
-73.78
-59.56
-46.19
-34.53
-24.60
-15.94
-8.06
-0.85
5.33
9.81
12.07
12.06
10.37
8.03
6.27
6.00
7.51
10.43
13.81
16.27
16.32
12.59
4.31
-8.36
-24.07
-40.16
-53.09
-59.33
-56.51
-44.41
-25.05
-2.16
20.17
38.73
51.93
59.54
62.26
60.95
56.77
51.78
49.25
53.02
65.71
86.57
110.26
128.11
131.73
117.55
89.55
58.02
34.71
26.77
33.17
45.55
53.07
47.81
27.50
-5.21
-45.90
-90.69
-136.38
-178.70
-211.03
-225.20
-214.43
-176.50
-115.68
-42.19
30.81
90.74
129.10
143.57
138.67
123.82
109.75
104.21
109.05
120.35
131.55
137.81
138.84
138.40
141.05
148.55
158.40
165.41
165.20
156.69
142.24
125.44
108.51
90.89
70.26
44.84
15.59
-13.47
-36.95
-50.73
-53.99
-49.46
-41.93
-35.87
-33.51
-34.54
-36.87
-38.09
-36.70
-32.63
-26.98
-21.31
-16.79
-13.64
-11.08
-7.83
-2.96
3.45
10.24
15.70
18.52
18.54
16.84
15.21
15.03
16.37
17.87
17.36
13.19
5.13
-5.35
-15.75
-23.89
-29.01
-32.03
-34.94
-39.45
-45.93
-53.12
-58.68
-60.41
-57.31
-49.98
-40.24
-30.22
-21.48
-14.60
-9.20
-4.55
-0.14
3.97
7.20
8.95
8.99
7.74
6.09
4.84
4.06
2.89
-0.16
-6.43
-16.36
-29.27
-43.74
-58.40
-72.70
-86.92
-101.61
-116.72
-131.15
-142.96
-150.23
-152.05
-149.14
-143.57
-137.86
-133.78
-131.65
-130.28
-127.73
-122.23
-113.18
-101.31
-88.24
-75.65
-64.35
-54.08
-43.68
-32.04
-18.80
-4.76
8.56
19.74
28.31
34.92
41.02
47.89
55.81
63.89
70.50
74.35
75.18
73.92
72.16
71.23
71.49
72.25
72.26
70.65
67.47
63.76
61.04
60.47
62.12
64.94
67.20
67.52
65.56
62.17
59.02
57.51
58.00
59.52
60.24
58.56
53.95
47.21
40.02
33.97
29.66
26.44
22.94
17.97
11.41
4.33
-1.48
-4.44
-4.03
-1.10
2.60
5.42
6.60
6.57
6.53
7.61
9.98
12.77
14.52
14.21
12.01
9.32
8.19
10.10
15.18
22.12
28.76
33.26
34.96
34.55
33.62
33.79
35.81
39.39
43.42
46.69
48.59
49.25
49.42
49.93
51.05
52.37
52.91
51.77
48.70
44.41
40.36
38.15
38.58
41.10
43.91
44.88
42.84
38.40
34.13
33.37
38.48
49.42
63.38
75.90
82.81
82.10
74.69
63.82
53.16
45.05
39.40
34.14
26.75
15.82
2.24
-11.22
-21.61
-27.49
-29.79
-31.09
-33.69
-38.13
-42.82
-45.42
-44.87
-42.59
-41.95
-46.08
-55.81
-69.05
-82.05
-91.70
-97.42
-101.43
-107.27
-117.61
-132.83
-151.18
-170.21
-188.24
-205.06
-221.32
-237.12
-250.97
-260.02
-261.53
-254.28
-239.61
-221.41
-204.77
-194.26
-192.12
-197.34
-206.27
-213.81
-215.07
-206.82
-188.87
-164.47
-139.47
-120.15
-110.39
-109.28
-111.13
-108.35
-95.71
-73.60
-48.04
-26.95
-14.98
-10.00
-3.93
12.10
41.59
79.74
115.61
138.42
143.58
135.01
122.29
114.83
116.91
126.25
136.77
143.08
143.69
141.16
139.81
142.60
149.35
157.06
161.93
161.62
156.28
148.37
141.38
138.07
139.42
144.39
150.57
155.30
156.88
155.16
151.39
147.29
143.94
141.10
137.47
131.59
122.90
112.34
101.95
93.70
88.42
85.36
82.73
78.90
73.30
66.67
60.47
55.68
52.16
48.64
43.50
35.95
26.76
18.30
13.61
14.95
22.77
35.47
50.07
63.30
72.59
76.59
75.11
68.72
58.42
45.39
30.95
16.55
3.65
-6.36
-12.32
-13.70
-10.95
-5.53
0.52
5.46
8.81
11.73
16.30
24.15
35.16
47.29
57.59
63.97
66.11
65.40
63.52
60.83
55.75
45.58
28.19
3.56
-25.98
-56.89
-86.04
-112.14
-135.96
-159.35
-183.89
-209.69
-235.32
-258.62
-277.84
-292.64
-304.05
-313.55
-321.75
-327.55
-328.30
-321.18
-304.63
-279.47
-248.73
-216.44
-185.90
-158.45
-133.48
-109.34
-84.66
-59.31
-34.36
-11.23
9.21
27.17
43.50
58.98
73.73
86.90
97.10
103.07
104.11
100.42
92.91
83.00
72.30
62.05
52.68
43.69
33.95
22.53
9.53
-3.71
-15.11
-22.98
-27.13
-28.98
-30.86
-34.68
-40.90
-48.48
-55.51
-60.48
-62.97
-63.71
-63.87
-64.16
-64.46
-63.91
-61.46
-56.69
-50.18
-43.19
-36.97
-31.75
-26.49
-19.31
-8.50
6.27
23.51
40.50
54.55
64.41
70.73
75.57
81.19
88.65
97.27
105.04
109.76
110.37
107.46
103.04
99.48
98.29
99.41
101.42
102.39
101.20
98.21
95.27
94.80
98.38
105.84
115.08
122.86
126.30
124.21
117.88
110.64
106.49
108.28
116.36
128.18
139.19
144.33
139.50
122.45
92.90
52.25
3.43
-49.27
-100.15
-142.97
-172.25
-184.93
-181.59
-166.54
-146.46
-128.40
-117.57
-115.97
-122.09
-131.73
-140.00
-143.29
-140.64
-133.75
-125.80
-119.78
-116.99
-116.62
-116.27
-112.93
-103.65
-86.19
-59.44
-24.17
16.48
57.45
92.95
118.44
132.03
134.48
128.14
115.33
97.54
75.98
52.54
30.42
13.63
5.71
8.54
21.94
43.95
71.47
100.43
125.83
142.34
145.97
136.17
116.75
94.82
77.73
69.65
69.76
73.14
73.72
67.69
55.10
39.19
24.15
12.76
5.07
-1.09
-8.79
-20.37
-36.28
-54.86
-72.77
-86.22
-92.49
-91.18
-84.68
-77.18
-72.98
-74.51
-81.56
-91.54
-100.97
-106.78
-107.06
-101.21
-89.83
-74.84
-59.81
-50.01
-51.54
-69.30
-104.48
-152.65
-204.21
-247.15
-271.61
-273.69
-256.69
-228.97
-199.43
-173.13
-149.46
-123.57
-89.87
-45.53
8.13
66.81
125.72
181.97
234.95
285.05
331.66
371.95
401.32
415.19
411.30
391.17
359.79
323.86
289.36
259.59
234.48
211.59
187.98
161.98
134.18
106.89
83.03
64.65
52.17
44.47
39.64
36.08
33.22
31.57
32.18
35.74
41.83
48.83
54.53
57.25
56.69
54.12
51.80
51.78
54.69
59.42
63.52
64.39
60.52
51.86
39.59
24.91
8.02
-12.13
-37.17
-68.10
-104.20
-142.95
-180.75
-214.19
-241.13
-260.89
-273.82
-280.43
-280.77
-274.52
-261.48
-242.39
-219.32
-195.45
-174.09
-157.57
-146.32
-138.86
-132.51
-124.60
-113.74
-100.22
-85.67
-72.05
-60.63
-51.48
-43.71
-36.30
-28.89
-22.07
-17.00
-14.62
-15.00
-17.30
-20.14
-22.38
-23.65
-24.41
-25.53
-27.60
-30.54
-33.61
-35.87
-36.78
-36.61
-36.42
-37.49
-40.64
-45.64
-51.33
-56.02
-58.44
-58.40
-56.98
-55.93
-56.78
-59.93
-64.43
-68.55
-70.68
-70.40
-68.70
-67.51
-68.48
-71.86
-76.08
-78.29
-75.69
-67.04
-53.21
-36.71
-20.40
-6.09
6.03
17.04
28.31
40.48
53.07
64.84
74.63
82.08
87.89
93.53
100.65
110.29
122.46
136.00
149.10
160.32
169.44
177.73
187.28
199.48
213.94
228.31
239.46
245.22
245.60
242.58
238.69
235.25
231.24
223.62
208.79
184.27
149.87
107.79
61.78
15.80
-27.18
-65.94
-100.96
-133.49
-164.35
-192.99
-217.57
-236.19
-248.52
-256.57
-263.95
-273.75
-286.43
-298.91
-305.74
-302.11
-286.91
-263.85
-239.83
-221.34
-211.12
-206.96
-203.29
-194.44
-177.49
-153.04
-124.07
-93.85
-64.63
-37.46
-13.00
7.68
23.21
32.72
36.77
37.59
38.09
40.31
44.60
49.49
52.59
51.84
46.46
37.36
26.69
16.69
8.29
0.53
-9.21
-23.48
-42.79
-64.58
-83.79
-94.78
-93.38
-78.59
-52.92
-21.44
10.08
36.99
56.67
68.41
72.76
70.96
64.79
57.02
51.27
51.48
60.52
78.83
103.93
130.98
154.43
170.13
176.60
175.11
168.40
159.17
149.07
138.89
128.97
119.66
111.18
103.39
95.63
86.80
75.97
62.80
47.72
31.90
16.82
4.04
-5.36
-11.01
-13.48
-14.06
-14.36
-15.58
-18.10
-21.23
-23.63
-24.19
-22.71
-20.16
-18.12
-17.80
-19.40
-22.07
-24.56
-26.12
-26.98
-28.18
-30.79
-34.87
-38.96
-40.33
-36.31
-25.81
-10.30
6.34
19.34
25.18
23.22
15.79
6.77
-0.54
-5.04
-7.96
-11.72
-18.14
-27.30
-37.50
-46.43
-52.39
-54.97
-54.93
-53.39
-51.12
-48.22
-44.43
-39.37
-32.70
-24.01
-12.83
0.80
15.86
30.17
41.18
47.04
47.67
44.93
41.50
39.30
38.44
37.35
34.26
28.73
22.21
17.24
15.74
17.58
20.68
22.26
20.72
16.55
11.98
9.48
10.16
12.88
14.79
12.85
5.63
-5.75
-17.95
-26.74
-28.89
-23.68
-13.30
-1.97
5.93
7.96
4.74
-0.13
-1.86
3.16
15.44
32.16
48.78
61.44
68.85
72.46
74.83
77.33
79.06
77.39
70.18
57.73
43.25
31.33
25.40
25.80
29.70
32.93
32.42
27.77
21.08
15.51
13.41
15.03
18.49
20.79
19.37
13.43
4.26
-5.39
-12.49
-15.24
-13.62
-9.16
-3.83
0.96
4.88
8.66
13.25
19.09
25.87
32.74
39.11
45.02
51.09
58.09
66.42
75.76
85.22
93.84
101.03
106.81
111.50
115.20
117.31
116.48
111.15
100.38
84.53
65.36
45.41
27.17
12.39
1.73
-5.10
-9.20
-12.08
-15.24
-19.82
-26.02
-33.05
-39.51
-44.15
-46.73
-48.16
-49.92
-53.14
-57.88
-63.13
-67.73
-71.18
-73.99
-77.08
-80.76
-84.13
-85.36
-82.78
-76.10
-66.86
-57.73
-51.12
-47.85
-46.87
-46.13
-43.94
-40.10
-36.11
-34.30
-36.59
-43.41
-53.60
-64.94
-75.27
-83.45
-89.67
-95.00
-100.56
-106.69
-112.57
-116.59
-117.15
-113.56
-106.50
-97.79
-89.60
-83.45
-79.60
-77.08
-74.25
-69.78
-63.38
-56.01
-49.43
-45.19
-43.87
-44.65
-45.75
-45.37
-42.66
-38.13
-33.38
-29.98
-28.58
-28.45
-28.08
-26.26
-22.94
-19.34
-17.28
-18.18
-22.36
-28.90
-35.96
-41.44
-43.59
-41.70
-36.50
-30.00
-24.82
-22.82
-23.98
-26.13
-25.92
-20.59
-9.60
5.24
21.01
35.52
48.58
61.49
75.41
89.83
102.16
109.02
108.10
99.60
86.10
71.08
57.24
45.55
35.47
26.21
17.57
10.21
5.09
2.69
2.63
4.06
6.23
8.98
12.46
16.56
20.58
23.25
23.47
21.00
16.63
11.74
7.54
4.54
2.73
1.93
2.07
3.33
5.66
8.71
11.96
15.18
18.93
24.16
31.53
40.70
50.26
58.59
64.79
69.26
73.50
79.17
87.06
96.51
105.52
111.49
112.23
107.08
97.74
88.05
82.85
86.02
98.54
117.84
138.72
155.85
166.52
171.76
175.15
179.99
186.72
192.51
193.14
185.97
171.77
154.07
136.78
121.96
109.05
96.15
81.95
66.76
51.99
38.41
24.69
7.43
-17.24
-51.37
-93.70
-139.89
-184.22
-221.83
-250.60
-271.63
-288.51
-305.53
-325.52
-347.94
-368.08
-378.12
-370.31
-340.65
-291.16
-229.62
-166.22
-109.07
-60.77
-17.80
26.95
80.26
144.80
217.59
290.61
353.38
395.93
411.41
397.43
356.12
293.13
215.82
131.14
44.20
-42.27
-127.56
-212.07
-296.46
-380.79
-463.55
-541.09
-607.59
-656.19
-681.23
-680.44
-656.20
-614.59
-563.34
-509.35
-457.24
-409.35
-366.64
-329.55
-298.11
-271.59
-248.25
-225.60
-201.42
-174.73
-146.24
-117.91
-92.15
-70.61
-53.47
-39.46
-26.44
-12.29
4.20
22.98
42.80
61.91
78.82
93.02
105.17
116.78
129.62
144.91
162.88
182.73
203.01
222.24
239.51
254.75
268.69
282.52
297.64
315.23
335.88
359.04
382.75
403.82
418.53
423.71
417.68
400.67
374.57
342.27
306.98
271.86
239.69
212.58
191.66
176.86
167.15
161.17
157.76
156.28
156.40
157.54
158.58
158.22
155.74
151.48
146.68
142.67
139.99
138.01
135.45
131.25
125.32
118.68
113.02
109.99
110.61
114.84
121.54
128.80
134.55
137.49
137.46
135.37
132.36
128.55
122.23
110.19
89.19
57.85
17.97
-25.76
-67.50
-102.60
-129.15
-148.02
-161.71
-172.62
-181.95
-189.57
-194.70
-196.86
-196.16
-193.05
-187.71
-179.69
-167.95
-151.38
-129.18
-101.28
-68.50
-32.68
3.18
35.30
59.99
74.86
79.76
76.64
68.41
57.52
45.23
32.13
19.25
8.92
4.25
7.39
17.87
32.28
45.71
54.15
56.34
53.93
50.10
47.58
47.37
48.98
51.38
54.09
57.51
62.54
70.04
80.71
95.28
114.72
140.03
171.81
209.56
251.23
293.29
331.13
359.75
374.73
373.21
355.25
324.62
288.33
254.99
231.85
221.72
221.79
225.27
225.41
219.64
211.07
206.38
211.09
225.32
242.81
253.79
250.17
229.75
196.87
159.45
124.25
93.71
65.61
35.65
0.87
-38.23
-78.09
-114.23
-143.85
-167.11
-186.96
-207.65
-232.68
-263.09
-297.24
-331.60
-362.57
-388.04
-408.31
-425.94
-444.45
-466.90
-495.10
-529.58
-569.83
-614.23
-659.62
-700.76
-730.73
-742.46
-731.01
-695.49
-639.41
-569.37
-492.54
-414.60
-338.86
-266.78
-199.18
-137.02
-81.30
-32.43
10.61
50.63
91.68
137.68
190.32
247.03
300.20
338.85
352.60
336.24
292.33
230.24
162.10
97.79
42.06
-4.48
-42.36
-70.56
-86.70
-89.60
-81.86
-69.80
-60.06
-55.35
-51.96
-41.33
-14.73
32.39
98.62
178.50
266.04
356.78
447.41
533.70
608.87
664.38
692.95
691.95
664.84
619.75
566.13
511.29
458.80
408.78
360.06
312.08
265.72
222.89
185.44
154.25
129.08
109.07
93.35
81.55
74.00
71.30
73.68
80.63
90.79
101.58
110.59
117.21
121.31
122.98
122.83
121.46
119.10
115.45
109.29
99.62
87.18
72.94
57.87
43.25
30.24
19.55
11.41
4.23
-3.08
-8.25
-9.62
-6.95
-0.26
9.73
21.31
31.94
34.62
24.32
5.69
-17.70
-45.69
-77.27
-111.57
-148.47
-188.85
-242.46
-315.40
-394.82
-471.29
-543.40
-609.09
-667.10
-717.73
-762.85
-818.72
-896.58
-979.12
-1055.82
-1128.89
-1197.10
-1255.85
-1298.34
-1317.85
-1328.07
-1340.61
-1335.12
-1304.08
-1259.28
-1207.67
-1150.79
-1086.62
-903.11
-552.31
-212.36
41.61
238.08
380.18
475.55
536.80
578.36
611.57
624.09
604.94
577.32
554.99
530.19
500.46
467.36
433.71
400.23
351.03
273.89
185.24
95.56
-3.06
-111.50
-222.59
-323.54
-402.02
-459.89
-503.12
-525.98
-484.71
-372.95
-211.68
-38.93
113.38
230.96
309.03
350.30
367.82
372.66
362.21
340.15
312.67
286.90
267.70
254.43
244.60
238.61
237.23
235.67
229.39
218.23
204.93
191.98
179.98
168.05
155.17
140.99
122.38
98.33
70.45
42.05
16.12
-5.85
-23.71
-37.84
-48.60
-58.02
-67.16
-75.87
-83.17
-88.19
-90.76
-91.24
-90.15
-87.93
-85.52
-83.37
-81.34
-78.87
-75.44
-70.76
-64.79
-57.66
-49.55
-40.69
-31.32
-21.54
-11.51
-1.31
8.93
19.15
29.21
38.95
48.20
56.72
64.34
70.89
76.24
80.37
83.27
85.01
85.72
85.52
84.58
83.04
81.08
78.89
76.64
74.46
72.49
70.76
69.29
68.07
67.08
66.30
65.79
65.60
65.80
66.43
67.42
68.64
69.91
71.03
71.96
72.82
73.80
75.20
77.22
79.87
82.98
86.28
89.53
92.70
96.08
100.12
105.31
111.89
119.73
128.38
137.19
145.69
153.83
162.09
171.26
182.20
195.42
210.90
228.15
246.65
266.03
286.25
307.65
330.53
355.10
381.68
411.00
444.02
480.99
520.29
557.73
587.12
602.03
597.91
573.42
530.37
472.47
404.11
329.78
254.38
183.42
122.41
75.23
42.40
20.53
3.68
-13.96
-35.43
-60.02
-84.25
-104.23
-117.66
-125.04
-129.43
-134.87
-144.78
-160.70
-181.86
-205.39
-227.39
-244.19
-253.39
-254.79
-250.42
-244.01
-239.68
-240.02
-244.31
-247.94
-243.48
-223.64
-184.92
-130.06
-68.22
-12.14
26.51
41.77
35.90
18.54
2.64
-0.80
13.23
42.69
80.54
118.35
149.58
171.02
182.25
183.92
176.31
159.06
132.01
96.23
54.60
11.29
-29.36
-63.89
-90.22
-107.73
-116.97
-119.51
-117.21
-111.49
-102.46
-88.94
-69.00
-41.26
-6.09
33.62
72.91
106.28
129.68
142.27
146.82
148.51
152.57
161.93
176.28
192.94
208.98
223.10
236.15
249.93
265.12
279.72
289.13
287.99
272.47
241.91
198.93
148.33
95.32
44.12
-3.11
-46.54
-88.28
-131.21
-177.33
-226.20
-274.30
-316.13
-346.20
-361.31
-361.55
-349.83
-330.15
-305.84
-278.82
-250.21
-221.46
-195.09
-174.54
-163.05
-162.69
-173.86
-195.44
-225.48
-261.49
-300.39
-338.40
-371.23
-394.94
-407.01
-407.09
-397.02
-379.90
-358.98
-336.88
-315.41
-295.81
-278.94
-265.29
-254.93
-247.40
-241.80
-236.73
-230.23
-219.80
-202.68
-176.78
-141.81
-100.07
-56.11
-15.09
19.33
46.46
68.59
89.43
111.82
136.40
161.64
185.27
205.79
223.22
238.58
252.77
265.44
274.98
279.41
277.76
270.95
261.50
252.44
245.82
241.80
238.74
234.30
226.65
215.51
202.08
188.39
176.26
166.28
157.61
148.42
137.01
122.75
106.47
90.16
76.06
65.46
58.22
52.91
47.69
41.33
33.71
25.84
19.05
14.11
10.81
8.10
4.85
0.75
-3.46
-6.19
-5.92
-2.25
3.64
9.30
12.20
10.95
6.04
-0.43
-5.72
-7.96
-6.96
-4.23
-1.98
-1.89
-4.28
-8.01
-11.31
-12.83
-12.41
-11.10
-10.45
-11.51
-14.26
-17.62
-20.13
-20.90
-20.10
-18.94
-18.88
-20.67
-23.85
-26.94
-28.14
-26.45
-22.37
-17.66
-14.46
-14.11
-16.37
-19.49
-21.12
-19.65
-15.11
-9.10
-3.95
-1.35
-1.53
-3.21
-4.36
-3.50
-0.48
3.47
6.52
7.35
5.90
3.37
1.57
1.84
4.35
8.08
11.38
13.01
12.78
11.48
10.44
10.45
11.18
11.32
9.25
4.16
-3.42
-11.77
-18.85
-23.43
-25.70
-27.07
-29.22
-33.06
-38.16
-43.03
-45.91
-45.78
-42.81
-38.08
-32.89
-27.94
-23.03
-17.42
-10.39
-2.01
6.66
13.92
18.16
18.70
16.12
11.94
7.97
5.38
4.20
3.48
1.90
-1.29
-5.83
-10.50
-13.73
-14.53
-13.01
-10.31
-8.04
-7.26
-8.06
-9.47
-10.14
-9.13
-6.64
-3.95
-2.92
-4.99
-10.48
-18.39
-26.82
-34.06
-39.45
-43.60
-48.00
-53.87
-61.31
-69.14
-75.30
-78.09
-76.94
-72.58
-66.49
-59.82
-52.85
-44.94
-35.16
-23.19
-9.94
2.59
12.03
16.81
16.88
13.85
10.31
8.60
9.67
12.76
15.89
17.19
15.95
13.06
10.51
10.11
12.39
16.34
19.89
21.18
19.37
14.95
9.28
3.71
-1.12
-5.53
-10.41
-16.55
-24.10
-32.39
-40.09
-45.92
-49.24
-50.35
-50.32
-50.21
-50.39
-50.19
-48.09
-42.65
-33.48
-21.72
-9.70
0.26
6.96
10.98
14.26
18.97
26.13
35.11
43.92
50.42
53.48
53.48
52.00
50.76
50.67
51.42
51.91
51.20
49.32
47.35
46.98
49.49
54.93
62.05
68.91
74.05
77.26
79.61
82.75
87.76
94.36
101.02
105.78
107.44
106.33
104.11
103.02
104.73
109.71
117.36
126.75
137.50
150.06
165.36
184.02
205.53
227.99
248.78
265.38
276.53
282.46
284.45
283.89
281.32
276.00
266.04
249.10
223.23
187.67
143.35
93.01
40.72
-9.15
-53.18
-89.84
-119.55
-143.90
-164.40
-181.43
-194.19
-201.68
-203.83
-202.23
-199.65
-198.74
-200.75
-204.96
-209.34
-211.89
-211.80
-209.81
-207.63
-206.79
-207.70
-209.42
-210.14
-208.25
-203.23
-195.90
-187.95
-180.97
-175.61
-171.18
-166.15
-159.12
-149.77
-139.12
-129.05
-121.12
-115.76
-111.95
-107.90
-102.21
-94.79
-86.88
-80.29
-76.21
-74.52
-73.83
-72.39
-69.28
-64.97
-61.16
-59.69
-61.56
-66.32
-72.34
-77.73
-81.39
-83.51
-85.30
-88.14
-92.76
-98.77
-105.05
-110.37
-114.26
-117.23
-120.43
-125.00
-131.18
-138.14
-144.04
-146.82
-145.07
-138.71
-129.00
-117.96
-107.31
-97.70
-88.44
-78.05
-65.39
-50.51
-34.81
-20.31
-8.49
0.53
8.02
15.69
24.47
33.76
41.68
46.23
46.58
43.73
40.12
38.38
39.91
44.22
49.30
52.84
53.52
51.58
48.47
45.70
43.67
41.45
37.32
30.08
20.10
9.31
0.33
-4.93
-6.39
-5.84
-6.00
-9.08
-15.61
-24.21
-32.26
-37.05
-37.03
-32.37
-24.82
-16.72
-9.82
-4.42
0.73
7.78
18.68
34.22
53.80
75.78
98.36
119.93
139.39
155.73
167.74
174.04
173.58
166.26
153.41
137.64
122.11
109.46
100.74
95.06
90.16
83.49
73.61
60.89
47.22
34.95
25.59
19.03
13.89
8.55
2.33
-4.14
-9.39
-12.18
-12.47
-11.49
-10.92
-11.88
-14.04
-15.73
-14.67
-9.07
1.51
15.91
31.94
47.19
59.90
69.37
75.99
80.89
85.22
89.61
93.78
96.58
96.73
93.53
87.64
80.90
75.44
72.42
71.24
69.85
66.11
59.30
50.74
42.99
37.82
34.52
29.78
19.52
1.69
-21.84
-45.56
-62.86
-69.48
-65.63
-55.54
-45.00
-38.13
-35.80
-35.98
-35.85
-33.87
-30.72
-28.45
-28.91
-32.38
-37.29
-41.10
-41.41
-37.19
-29.13
-19.33
-10.38
-4.38
-2.26
-3.64
-7.21
-11.35
-14.62
-16.02
-15.06
-11.70
-6.50
-0.58
4.70
8.12
9.12
7.98
5.79
4.29
5.55
11.44
22.97
39.54
58.46
75.40
85.80
86.89
79.18
66.41
54.00
46.49
45.51
49.30
53.73
54.23
47.61
32.90
11.63
-13.01
-37.07
-56.87
-69.98
-75.56
-74.33
-67.98
-58.55
-47.95
-38.03
-30.57
-27.17
-28.65
-34.48
-42.51
-49.45
-52.18
-49.01
-40.34
-28.30
-15.48
-3.64
7.23
18.67
32.44
48.99
66.56
81.59
90.39
91.09
84.75
74.95
65.92
60.28
57.78
55.61
50.36
39.95
24.90
7.90
-7.79
-20.02
-28.58
-34.68
-39.67
-43.87
-46.37
-45.56
-40.36
-31.12
-19.61
-8.20
1.29
8.40
13.95
19.30
25.32
31.67
36.95
39.48
38.24
33.58
26.99
20.50
15.65
12.87
11.28
9.18
4.83
-2.77
-13.50
-26.18
-39.18
-51.08
-61.11
-69.27
-75.83
-80.92
-84.30
-85.21
-82.82
-76.64
-66.85
-54.39
-40.79
-27.73
-16.75
-8.93
-4.76
-4.25
-7.01
-12.49
-19.89
-28.26
-36.50
-43.48
-48.28
-50.63
-50.90
-49.98
-48.74
-47.55
-46.09
-43.53
-39.11
-32.87
-25.70
-18.92
-13.34
-8.49
-2.65
6.42
20.01
37.38
55.66
70.93
79.98
81.85
78.11
71.92
66.19
62.18
59.10
55.04
48.45
39.19
28.40
17.68
7.94
-1.03
-10.08
-19.66
-29.13
-36.95
-41.65
-42.83
-41.70
-40.38
-40.69
-43.11
-46.43
-48.54
-47.67
-43.19
-35.87
-27.19
-18.58
-10.78
-3.64
3.47
11.27
20.08
29.54
38.50
45.36
48.60
47.61
43.11
36.97
31.53
28.45
28.02
29.22
30.56
31.16
31.33
32.29
35.23
40.19
45.61
48.80
47.21
39.80
27.74
14.16
2.98
-2.68
-1.84
4.07
11.85
18.04
20.35
18.43
13.75
8.61
4.93
3.49
3.84
4.81
5.31
4.73
3.13
0.98
-1.21
-2.94
-3.61
-2.38
1.59
8.68
18.27
28.63
37.33
42.19
42.15
37.56
29.69
19.91
9.03
-2.87
-15.97
-30.11
-44.53
-57.96
-69.11
-77.07
-81.50
-82.62
-81.33
-79.11
-77.76
-78.66
-81.98
-86.17
-88.46
-86.08
-77.93
-65.40
-51.87
-40.95
-34.67
-32.52
-31.93
-29.90
-24.46
-15.31
-3.26
10.69
25.75
40.98
54.74
64.66
68.46
65.40
56.99
46.82
38.96
36.17
39.07
46.35
55.91
66.01
75.62
84.14
91.01
95.61
97.84
98.54
99.23
101.18
104.31
106.85
106.08
99.88
88.02
72.38
55.94
41.16
28.73
17.67
6.27
-6.63
-21.02
-36.06
-50.95
-65.56
-80.31
-95.40
-110.07
-122.44
-130.17
-131.48
-126.07
-115.33
-101.85
-88.45
-77.31
-69.39
-64.26
-60.43
-56.06
-49.91
-42.08
-34.24
-28.93
-28.36
-33.01
-41.02
-48.66
-51.84
-47.84
-36.30
-19.16
0.46
19.78
37.31
52.71
66.10
77.10
84.34
86.22
81.93
72.66
61.82
53.43
49.72
49.25
47.29
38.39
19.87
-6.17
-33.56
-55.46
-67.96
-71.69
-70.39
-67.39
-62.60
-52.10
-30.93
2.99
46.25
90.44
125.70
144.98
146.80
135.81
120.75
111.02
113.51
130.20
157.69
189.07
216.84
235.88
244.84
245.48
240.60
231.97
219.47
201.91
178.42
149.64
117.62
84.63
51.91
19.21
-14.57
-50.04
-86.47
-121.63
-152.56
-176.79
-193.10
-201.83
-204.62
-203.76
-201.48
-199.26
-197.55
-196.16
-194.81
-193.76
-193.92
-196.21
-200.61
-205.48
-207.80
-204.42
-193.60
-175.84
-153.52
-129.57
-106.20
-84.37
-64.38
-46.95
-33.60
-26.06
-25.09
-29.38
-35.83
-40.81
-41.82
-38.58
-32.93
-27.81
-26.05
-29.46
-38.51
-52.39
-69.39
-87.46
-104.66
-119.55
-131.22
-139.08
-142.73
-142.01
-137.42
-130.64
-124.46
-121.95
-125.14
-133.75
-145.06
-154.69
-158.33
-153.19
-138.76
-116.45
-88.58
-57.45
-24.73
8.38
40.97
71.97
100.21
124.67
144.77
160.55
172.55
181.60
188.55
194.08
198.52
201.87
203.81
203.92
201.83
197.28
190.17
180.31
167.29
150.55
129.80
105.64
79.88
55.34
35.02
20.98
13.55
11.35
12.08
13.71
15.20
16.68
18.91
22.48
27.37
32.94
38.35
43.08
47.14
50.86
54.55
58.08
60.86
62.13
61.36
58.72
54.96
51.08
47.70
44.61
40.88
35.42
27.85
19.06
11.02
6.01
5.47
9.23
15.49
21.61
25.22
25.24
22.16
17.65
13.70
11.57
11.31
11.96
12.20
11.29
9.47
7.77
7.32
8.42
10.06
10.38
7.48
0.61
-9.34
-20.04
-28.77
-33.59
-34.09
-31.37
-27.26
-23.24
-19.80
-16.35
-11.79
-5.49
2.17
9.75
15.41
17.79
16.59
12.50
6.65
-0.22
-8.01
-16.86
-26.60
-36.17
-43.92
-48.55
-49.98
-49.83
-50.80
-55.32
-64.27
-76.26
-88.21
-96.69
-99.38
-96.07
-88.77
-80.77
-75.37
-74.64
-78.62
-85.43
-91.97
-95.15
-93.09
-85.66
-74.24
-60.86
-47.12
-33.54
-19.57
-4.31
12.60
30.37
47.16
60.81
69.66
73.09
71.60
66.28
58.20
48.18
36.89
25.40
15.42
9.06
8.07
12.80
21.67
31.56
39.11
42.19
40.87
37.25
34.33
34.52
38.56
45.32
52.43
57.14
57.22
51.45
40.01
24.50
7.84
-6.46
-15.38
-17.77
-15.25
-11.92
-12.83
-21.80
-39.80
-64.57
-91.65
-116.20
-134.53
-144.84
-147.14
-142.85
-134.40
-124.97
-117.93
-115.89
-119.48
-126.50
-132.22
-130.92
-118.22
-92.83
-57.10
-15.87
25.40
62.25
91.94
113.03
124.80
127.09
120.89
109.15
96.62
88.83
89.98
101.10
119.37
138.98
153.19
156.44
145.72
120.98
84.69
41.06
-4.82
-47.78
-83.24
-107.77
-119.31
-117.08
-101.48
-74.13
-38.05
2.48
42.52
77.69
105.24
124.55
136.72
143.42
145.90
144.56
139.48
131.42
122.40
115.43
113.42
117.98
128.59
142.82
157.20
168.34
173.66
171.58
161.39
143.14
117.77
87.19
54.20
21.89
-7.35
-32.46
-53.80
-72.66
-90.32
-107.45
-123.85
-138.72
-151.04
-159.95
-164.80
-165.38
-161.99
-155.48
-147.10
-138.04
-128.91
-119.61
-109.53
-98.18
-85.73
-73.08
-61.45
-51.66
-43.70
-36.86
-30.20
-23.32
-16.64
-11.26
-8.26
-8.04
-10.07
-13.08
-15.73
-17.20
-17.47
-17.10
-16.76
-16.69
-16.60
-16.05
-14.71
-12.85
-11.19
-10.56
-11.37
-13.26
-15.11
-15.41
-12.81
-6.73
2.39
13.17
23.82
32.78
39.35
43.80
47.20
50.74
55.03
59.60
63.04
63.64
60.25
53.00
43.40
33.75
26.15
21.66
19.93
19.64
19.31
18.05
15.97
13.86
12.54
12.30
12.78
13.38
13.76
14.17
15.34
17.91
21.83
26.13
29.24
29.74
27.19
22.45
17.50
14.59
15.24
19.65
26.67
34.40
41.11
45.79
48.35
49.28
49.07
47.91
45.62
42.08
37.51
32.54
28.00
24.49
21.97
19.83
17.17
13.31
8.15
2.17
-3.82
-9.09
-13.39
-16.98
-20.53
-24.70
-29.84
-35.81
-42.04
-47.76
-52.42
-55.94
-58.75
-61.47
-64.48
-67.50
-69.69
-70.05
-68.10
-64.19
-59.42
-54.99
-51.68
-49.44
-47.60
-45.49
-42.97
-40.52
-38.67
-37.35
-35.39
-30.87
-22.03
-8.34
8.96
27.21
43.54
56.11
64.78
70.87
76.12
81.56
87.02
91.16
92.25
88.94
80.71
68.09
52.62
36.60
22.66
13.00
8.67
9.05
11.87
14.01
12.74
6.77
-3.30
-15.28
-26.36
-34.07
-37.18
-35.89
-31.59
-26.26
-21.79
-19.44
-19.63
-22.01
-25.76
-29.86
-33.45
-35.92
-36.99
-36.71
-35.27
-32.91
-29.73
-25.71
-20.85
-15.39
-9.98
-5.48
-2.63
-1.58
-1.77
-2.23
-2.17
-1.57
-1.16
-1.83
-3.70
-5.71
-5.97
-2.94
3.55
12.13
20.65
27.79
33.99
41.37
52.30
67.48
84.72
99.24
105.41
99.15
79.51
48.78
11.48
-27.32
-63.13
-92.58
-113.49
-124.94
-127.46
-122.89
-113.83
-102.49
-89.61
-74.14
-53.77
-26.44
8.48
49.86
95.63
144.18
195.60
251.74
314.83
385.45
460.57
533.18
593.80
633.45
646.93
634.66
602.33
558.41
510.87
464.66
421.31
380.23
340.66
303.01
268.63
238.76
213.33
190.68
168.43
144.67
118.90
92.05
65.97
42.33
21.86
4.12
-12.09
-28.06
-44.58
-61.67
-78.80
-95.26
-110.62
-124.87
-138.22
-150.77
-162.24
-171.98
-179.37
-184.26
-187.22
-189.60
-193.06
-199.10
-208.67
-222.21
-239.89
-262.03
-289.40
-323.10
-364.44
-414.77
-475.31
-546.56
-627.30
-713.29
-796.83
-867.78
-916.10
-935.14
-924.01
-887.68
-834.90
-774.67
-713.45
-654.09
-596.74
-540.72
-485.99
-433.39
-383.90
-337.67
-293.79
-250.76
-207.46
-163.81
-120.62
-79.10
-39.84
-2.57
33.52
68.81
102.47
132.32
155.42
169.22
172.46
165.63
150.75
130.88
109.45
89.65
73.85
63.31
58.19
57.97
62.19
70.73
83.91
102.05
125.08
152.39
182.78
214.52
245.22
271.79
291.11
300.99
301.38
294.74
285.11
276.40
270.81
268.30
267.29
265.97
263.37
259.58
255.27
251.04
247.15
243.55
240.03
236.38
232.28
227.31
220.89
212.38
201.22
186.93
169.46
149.48
128.60
109.14
93.28
82.26
75.96
73.33
73.24
75.02
78.32
82.38
85.53
85.24
79.22
66.67
49.17
30.27
14.25
4.36
1.63
4.67
10.52
16.00
18.93
18.68
16.01
12.37
8.85
5.41
0.86
-6.43
-17.34
-31.11
-45.34
-57.06
-64.30
-67.10
-67.39
-67.63
-69.24
-71.65
-72.72
-70.02
-62.26
-49.98
-35.14
-20.14
-6.70
4.58
14.21
23.38
33.49
45.49
59.47
74.27
87.77
97.53
101.88
100.57
94.57
84.94
71.66
53.43
28.68
-2.57
-37.38
-70.09
-94.37
-105.98
-104.73
-94.43
-80.92
-69.20
-61.43
-56.69
-52.44
-46.58
-38.77
-30.41
-23.46
-19.11
-17.02
-15.62
-13.01
-8.23
-1.59
5.46
11.24
14.81
16.34
16.95
18.05
20.51
24.25
28.32
31.45
32.61
31.51
28.60
24.88
21.40
18.96
17.84
17.89
18.71
19.87
21.14
22.49
23.89
25.06
25.31
23.71
19.49
12.37
2.76
-8.48
-20.47
-32.67
-44.86
-56.87
-68.22
-78.04
-85.38
-89.87
-92.08
-93.43
-95.55
-99.47
-105.05
-111.09
-115.80
-117.62
-115.70
-110.07
-101.48
-90.93
-79.42
-67.70
-56.32
-45.63
-35.94
-27.48
-20.45
-15.08
-11.53
-9.86
-9.88
-11.09
-12.95
-15.06
-17.47
-20.74
-25.64
-32.76
-42.10
-52.87
-63.76
-73.35
-80.59
-84.79
-85.30
-81.20
-71.30
-54.76
-32.03
-5.36
21.46
44.46
61.17
71.56
77.82
82.92
88.68
94.77
99.12
99.62
95.87
89.93
85.36
85.16
89.87
97.09
102.71
103.25
97.85
88.78
80.24
75.84
76.66
80.67
83.84
82.46
75.09
63.14
50.01
39.09
32.11
28.59
26.47
23.70
19.58
15.07
12.18
12.66
16.84
23.36
29.76
33.76
34.19
31.38
26.67
21.60
17.19
13.77
11.26
9.74
9.67
11.85
17.01
25.31
36.06
47.75
58.49
66.66
71.49
73.28
73.12
72.37
71.86
71.61
70.76
68.20
63.28
56.17
47.81
39.42
31.86
25.35
19.66
14.52
10.04
6.72
5.18
5.72
7.92
10.69
12.63
12.57
10.11
5.75
0.64
-3.98
-7.37
-9.69
-11.80
-14.79
-19.21
-24.69
-29.92
-33.33
-33.90
-31.77
-28.22
-25.02
-23.52
-23.99
-25.64
-27.17
-27.64
-27.00
-26.05
-25.87
-27.01
-29.17
-31.27
-32.05
-30.83
-27.86
-24.12
-20.79
-18.50
-17.06
-15.58
-13.02
-8.84
-3.38
2.28
6.84
9.45
10.08
9.54
9.09
9.77
11.95
15.20
18.51
20.85
21.49
20.20
17.03
11.93
4.51
-5.89
-19.77
-36.91
-56.08
-75.18
-91.88
-104.48
-112.46
-116.58
-118.33
-119.17
-119.91
-120.53
-120.38
-118.73
-115.19
-109.80
-102.83
-94.33
-84.01
-71.27
-55.73
-37.73
-18.61
-0.56
14.08
23.76
28.27
28.83
27.50
26.27
26.25
27.45
29.11
30.36
30.73
30.30
29.44
28.29
26.42
22.91
16.79
7.73
-3.58
-15.41
-25.53
-32.03
-34.09
-32.21
-27.80
-22.42
-17.11
-12.13
-7.24
-2.28
2.38
5.92
7.49
6.91
4.81
2.50
1.34
2.12
4.87
8.98
13.66
18.27
22.49
26.11
28.86
30.26
29.72
26.85
21.70
15.05
8.38
3.53
2.11
4.79
10.85
18.29
24.49
27.30
25.92
21.21
15.24
10.19
7.29
6.33
5.97
4.71
1.80
-2.39
-6.65
-9.73
-11.14
-11.37
-11.59
-12.92
-15.77
-19.58
-23.11
-25.10
-25.00
-23.19
-20.80
-18.95
-18.10
-17.78
-16.90
-14.49
-10.42
-5.75
-2.29
-1.63
-4.30
-9.33
-14.61
-17.94
-18.14
-15.51
-11.57
-7.97
-5.57
-3.99
-1.92
1.94
7.93
15.14
21.87
26.61
28.89
29.39
29.34
29.58
29.85
28.96
25.53
19.02
10.15
0.72
-7.35
-12.91
-16.14
-18.26
-20.77
-24.54
-29.41
-34.46
-38.61
-41.28
-42.67
-43.50
-44.52
-45.99
-47.64
-48.94
-49.42
-48.99
-47.88
-46.34
-44.37
-41.56
-37.35
-31.32
-23.60
-14.93
-6.51
0.40
5.00
7.27
8.00
8.42
9.71
12.43
16.33
20.55
24.08
26.37
27.57
28.40
29.67
31.56
33.36
33.75
31.46
26.11
18.64
10.88
4.81
1.58
1.10
2.44
4.56
7.15
10.64
15.70
22.46
30.14
37.23
42.18
44.10
42.87
38.85
32.67
25.20
17.87
12.54
11.01
13.90
19.95
26.14
28.89
25.77
16.56
3.09
-12.13
-27.61
-43.61
-61.47
-82.15
-104.83
-126.81
-144.72
-156.08
-160.29
-158.40
-151.86
-141.63
-127.93
-111.08
-92.57
-75.13
-61.46
-52.15
-44.64
-34.14
-16.27
10.07
41.71
72.76
97.86
115.06
126.47
136.49
148.98
165.01
182.69
198.77
210.43
216.21
215.65
208.47
194.42
174.02
149.29
123.94
102.23
87.24
79.69
77.81
78.47
78.68
76.62
71.58
63.47
52.18
37.66
20.35
1.68
-15.97
-30.15
-39.62
-45.17
-49.25
-54.79
-63.43
-74.47
-85.12
-92.13
-93.65
-90.36
-85.12
-81.39
-81.45
-85.35
-91.12
-96.00
-97.67
-95.01
-88.01
-77.35
-63.86
-48.31
-31.43
-13.96
3.26
19.35
33.57
45.55
55.61
64.68
74.01
84.44
95.81
106.83
115.55
120.33
120.58
116.99
110.94
103.56
95.05
84.74
71.72
55.75
37.86
20.25
5.59
-4.10
-8.38
-8.65
-7.41
-7.15
-9.11
-12.77
-16.41
-18.23
-17.55
-15.21
-13.12
-13.13
-16.08
-21.43
-27.72
-33.56
-38.33
-42.32
-46.38
-51.08
-56.37
-61.49
-65.47
-67.72
-68.46
-68.59
-69.26
-71.22
-74.45
-78.22
-81.50
-83.48
-83.94
-83.23
-82.07
-81.10
-80.69
-80.74
-80.84
-80.40
-78.88
-75.86
-71.13
-64.56
-56.18
-46.14
-34.73
-22.37
-9.62
2.92
14.65
25.05
33.79
40.73
46.03
49.97
52.89
54.99
56.30
56.81
56.61
56.14
56.09
57.11
59.39
62.53
65.59
67.62
68.11
67.20
65.54
63.81
62.26
60.58
58.14
54.44
49.43
43.61
37.76
32.53
28.16
24.43
20.96
17.47
13.98
10.79
8.23
6.41
4.98
3.26
0.54
-3.58
-8.95
-15.00
-21.06
-26.81
-32.50
-38.68
-45.77
-53.50
-60.75
-65.89
-67.48
-64.96
-58.95
-51.00
-42.89
-35.84
-30.13
-25.22
-20.19
-14.40
-7.78
-0.79
5.82
11.55
16.32
20.32
23.75
26.44
27.78
26.91
23.16
16.45
7.37
-3.08
-13.80
-24.06
-33.59
-42.47
-50.89
-58.85
-66.08
-72.10
-76.45
-78.96
-79.93
-80.12
-80.42
-81.46
-83.31
-85.37
-86.75
-86.67
-84.92
-81.89
-78.31
-74.74
-71.20
-67.18
-61.94
-55.01
-46.62
-37.62
-29.13
-22.03
-16.57
-12.31
-8.39
-4.06
0.91
6.14
10.81
14.20
15.98
16.41
16.08
15.51
14.86
13.94
12.42
10.37
8.39
7.57
9.06
13.45
20.40
28.73
36.80
43.31
47.73
50.50
52.63
55.09
58.25
61.72
64.57
65.87
65.13
62.45
58.36
53.45
48.10
42.44
36.63
31.17
26.83
24.48
24.59
26.82
30.02
32.58
33.10
30.99
26.65
21.26
16.25
12.71
10.99
10.66
10.77
10.26
8.39
4.96
0.44
-4.31
-8.39
-11.20
-12.60
-12.75
-11.84
-9.85
-6.52
-1.64
4.58
11.42
17.88
23.18
27.17
30.36
33.47
36.90
40.18
42.21
41.74
38.08
31.56
23.35
14.86
7.11
0.26
-6.30
-13.59
-22.51
-33.55
-46.70
-61.40
-76.69
-91.41
-104.43
-115.02
-123.01
-128.83
-133.14
-136.40
-138.70
-139.79
-139.59
-138.26
-136.10
-132.99
-127.79
-118.23
-101.68
-76.35
-42.40
-2.27
39.99
80.01
114.53
142.19
163.53
180.41
195.04
209.19
223.88
239.35
255.36
271.53
287.58
303.35
318.98
334.93
352.13
371.62
393.65
416.70
436.78
447.96
443.96
420.85
379.25
324.68
265.88
211.71
168.24
137.41
117.60
105.43
97.56
91.44
85.04
76.22
62.51
41.67
12.70
-23.47
-63.95
-104.82
-142.40
-174.33
-199.91
-219.83
-235.33
-247.43
-256.29
-261.17
-260.91
-254.74
-243.00
-227.39
-210.58
-195.42
-183.93
-176.77
-173.22
-171.53
-169.73
-166.18
-160.06
-151.59
-141.92
-132.84
-126.43
-124.65
-129.14
-141.11
-161.12
-188.77
-222.17
-257.73
-290.49
-315.14
-327.56
-326.12
-312.13
-289.13
-261.49
-232.99
-206.03
-181.58
-159.83
-140.78
-124.43
-110.70
-99.16
-88.90
-78.78
-67.79
-55.40
-41.85
-27.93
-14.63
-2.63
7.98
17.68
27.12
36.64
45.98
54.34
60.83
64.90
66.67
66.71
65.77
64.32
62.43
59.88
56.53
52.56
48.59
45.42
43.75
43.88
45.59
48.38
51.70
55.26
59.05
63.30
68.22
73.74
79.51
84.91
89.40
92.75
95.16
97.17
99.33
101.88
104.48
106.32
106.60
105.19
102.93
101.55
103.01
108.54
117.87
129.13
139.54
146.51
148.59
145.78
139.13
129.90
118.83
105.86
90.44
72.01
50.44
26.23
0.34
-25.96
-51.33
-74.48
-94.18
-109.33
-119.10
-123.07
-121.36
-114.72
-104.49
-92.41
-80.31
-69.66
-61.12
-54.47
-48.76
-42.74
-35.54
-27.02
-17.81
-8.96
-1.54
3.73
6.51
6.67
4.04
-1.62
-10.46
-22.14
-35.68
-49.60
-62.34
-72.80
-80.70
-86.47
-90.80
-94.10
-96.18
-96.37
-93.97
-88.76
-81.34
-72.93
-64.89
-58.10
-52.59
-47.77
-42.92
-37.75
-32.72
-28.91
-27.39
-28.72
-32.59
-37.99
-43.59
-48.22
-51.29
-52.85
-53.53
-54.23
-55.89
-59.27
-64.72
-72.10
-80.87
-90.23
-99.28
-107.17
-113.08
-116.28
-116.10
-112.10
-104.15
-92.59
-78.19
-61.89
-44.31
-25.32
-3.92
21.37
51.54
86.24
123.43
159.93
192.55
219.18
239.25
253.35
262.22
265.82
263.12
252.56
233.06
204.65
168.59
126.87
81.52
34.46
-12.32
-56.24
-93.96
-121.87
-137.06
-138.41
-127.28
-107.24
-83.10
-59.47
-39.45
-24.15
-12.83
-3.82
4.56
13.24
22.37
31.53
40.33
48.72
56.92
65.02
72.58
78.54
81.72
81.72
79.50
77.25
77.42
81.55
89.33
98.58
106.18
109.46
107.39
100.76
91.77
82.93
76.02
71.59
68.96
66.87
64.19
60.49
56.14
52.02
48.89
46.85
45.29
43.13
39.41
33.71
26.23
17.57
8.36
-0.94
-10.03
-18.74
-27.00
-35.01
-43.26
-52.07
-61.03
-68.52
-71.92
-68.56
-56.91
-37.47
-12.70
13.96
39.29
61.11
78.32
90.38
97.02
98.20
94.37
86.51
75.78
62.95
48.28
31.91
14.56
-2.14
-16.02
-25.38
-29.99
-31.28
-31.73
-33.58
-37.78
-43.90
-50.60
-56.63
-61.40
-65.00
-67.80
-69.97
-71.32
-71.34
-69.51
-65.59
-59.77
-52.75
-45.49
-38.98
-33.80
-29.98
-26.94
-23.85
-20.10
-15.74
-11.52
-8.52
-7.61
-8.97
-11.94
-15.35
-18.01
-19.35
-19.55
-19.35
-19.50
-20.38
-21.76
-23.01
-23.50
-23.05
-22.00
-21.07
-20.91
-21.68
-22.97
-23.99
-23.97
-22.70
-20.59
-18.48
-17.13
-16.72
-16.62
-15.66
-12.66
-7.10
0.59
9.13
16.97
22.97
26.76
28.79
29.89
30.67
31.25
31.24
30.17
27.86
24.63
21.24
18.45
16.63
15.58
14.72
13.45
11.58
9.46
7.86
7.52
8.74
11.16
13.92
16.11
17.18
17.18
16.74
16.62
17.27
18.67
20.33
21.71
22.52
22.88
23.18
23.75
24.52
25.01
24.58
22.83
19.93
16.66
14.09
13.17
14.23
16.92
20.33
23.42
25.49
26.34
26.36
26.19
26.44
27.36
28.79
30.34
31.61
32.44
32.99
33.62
34.70
36.40
38.65
41.25
43.98
46.73
49.55
52.53
55.66
58.79
61.58
63.66
64.69
64.51
63.17
60.78
57.39
52.78
46.56
38.45
28.74
18.53
9.59
3.60
1.33
2.06
3.90
4.81
3.71
1.09
-1.41
-2.11
-0.48
2.36
4.25
3.15
-1.72
-9.64
-18.88
-27.80
-35.71
-43.08
-50.88
-59.82
-69.61
-79.05
-86.52
-90.80
-91.72
-90.12
-87.42
-85.03
-83.93
-84.65
-87.40
-92.23
-98.97
-107.12
-115.85
-124.16
-131.14
-136.31
-139.55
-141.00
-141.02
-140.12
-138.98
-138.26
-138.30
-138.72
-138.38
-135.76
-129.83
-120.55
-108.98
-96.61
-84.44
-72.48
-59.96
-46.02
-30.56
-14.54
0.47
12.97
22.06
27.43
29.01
26.73
20.57
10.98
-0.75
-12.51
-22.00
-27.50
-28.43
-25.49
-20.15
-14.17
-8.98
-5.44
-3.65
-3.00
-2.40
-0.62
3.15
8.97
16.14
23.52
30.14
35.55
39.94
43.84
47.78
52.10
56.88
62.06
67.51
72.92
77.74
81.17
82.37
80.69
75.96
68.64
59.85
51.14
44.11
39.85
38.44
38.93
39.61
38.72
35.14
28.71
20.11
10.53
1.11
-7.25
-13.93
-18.57
-21.01
-21.38
-20.15
-17.95
-15.40
-12.95
-10.87
-9.36
-8.54
-8.36
-8.42
-8.04
-6.51
-3.61
0.20
3.91
6.48
7.48
7.34
7.06
7.55
9.14
11.33
13.19
13.94
13.44
12.29
11.49
11.93
13.90
16.98
20.29
22.94
24.40
24.71
24.32
23.77
23.35
23.03
22.51
21.57
20.19
18.64
17.26
16.31
15.75
15.33
14.76
13.85
12.71
11.69
11.25
11.73
13.16
15.19
17.34
19.28
21.11
23.34
26.54
30.83
35.60
39.73
42.18
42.69
41.94
41.25
41.85
44.16
47.73
51.60
54.92
57.52
59.70
61.95
64.46
66.99
69.05
70.16
70.11
69.00
67.12
64.92
62.80
61.08
59.79
58.68
57.31
55.31
52.58
49.43
46.43
43.99
42.21
40.66
38.72
35.87
32.08
27.89
24.27
22.20
22.14
23.73
25.66
26.14
23.48
16.80
6.35
-6.66
-20.62
-34.20
-46.65
-57.77
-67.56
-75.83
-82.21
-86.37
-88.46
-89.24
-89.82
-91.11
-93.31
-95.87
-97.71
-97.94
-96.34
-93.44
-90.20
-87.34
-85.01
-82.65
-79.47
-75.06
-69.80
-64.78
-61.34
-60.25
-61.33
-63.46
-65.12
-65.16
-63.33
-60.30
-57.10
-54.39
-51.98
-48.90
-43.92
-36.39
-26.75
-16.39
-6.99
0.37
5.62
9.58
13.19
16.81
19.88
21.38
20.52
17.50
13.46
9.98
8.32
8.88
11.25
14.64
18.35
21.75
24.17
24.81
23.14
19.43
14.90
11.29
9.99
11.25
14.10
17.00
18.76
19.05
18.29
16.99
15.30
13.13
10.76
9.19
9.79
13.27
18.67
23.40
24.39
19.70
9.48
-4.22
-18.72
-32.22
-44.49
-56.48
-69.09
-82.12
-93.95
-102.29
-105.30
-102.50
-94.86
-84.18
-72.13
-59.59
-46.64
-32.98
-18.41
-3.19
11.95
26.13
38.46
48.26
54.97
58.25
58.21
55.61
51.92
48.86
47.77
48.95
51.52
53.84
54.46
52.81
49.25
44.69
39.85
35.02
30.28
25.98
23.11
23.02
26.55
33.33
41.60
48.85
53.05
53.50
51.09
47.67
44.85
43.24
42.27
40.81
37.93
33.47
28.02
22.44
17.33
12.67
7.90
2.28
-4.68
-13.00
-22.14
-31.25
-39.55
-46.62
-52.53
-57.61
-62.17
-66.08
-68.70
-69.12
-66.74
-61.74
-55.19
-48.70
-43.63
-40.62
-39.36
-39.02
-38.89
-38.73
-38.83
-39.50
-40.73
-42.07
-42.86
-42.77
-42.02
-41.32
-41.34
-42.22
-43.37
-43.79
-42.70
-40.18
-37.30
-35.68
-36.56
-39.97
-44.41
-47.43
-46.70
-41.09
-31.25
-19.24
-7.42
2.69
10.94
18.26
25.90
34.59
44.28
54.37
64.27
73.54
81.83
88.48
92.52
92.89
89.05
81.40
71.26
60.28
49.85
40.66
32.88
26.50
21.60
18.37
16.69
15.98
15.23
13.35
9.79
4.90
-0.07
-3.48
-3.99
-1.21
4.01
9.89
14.40
16.02
14.28
9.73
3.64
-2.57
-7.66
-10.68
-10.92
-7.95
-1.94
6.04
13.98
19.58
21.10
18.20
12.15
5.12
-0.88
-4.92
-7.37
-9.20
-11.05
-12.55
-12.36
-8.90
-1.41
9.51
22.04
34.01
43.96
51.81
58.67
65.91
73.96
81.99
88.30
91.58
91.87
90.72
90.09
90.82
91.77
90.35
84.15
72.62
57.67
42.62
30.35
21.79
15.84
10.71
5.51
0.83
-2.04
-2.44
-1.14
-0.06
-1.18
-5.60
-13.29
-23.54
-35.43
-47.88
-59.23
-67.16
-69.34
-64.54
-53.53
-38.99
-24.22
-11.60
-1.73
6.14
12.82
18.08
20.74
19.64
14.89
8.24
2.57
0.45
2.89
9.07
16.92
24.42
30.57
35.79
41.35
48.40
57.04
66.00
73.15
76.43
74.93
69.29
61.33
53.19
46.30
40.84
35.89
30.12
22.56
13.03
2.13
-9.09
-19.55
-28.50
-35.55
-40.67
-44.09
-46.20
-47.45
-48.14
-48.43
-48.41
-48.29
-48.45
-49.35
-51.26
-53.97
-56.77
-58.74
-59.16
-57.90
-55.35
-52.19
-48.95
-45.77
-42.45
-38.79
-34.82
-30.97
-27.75
-25.40
-23.72
-22.06
-19.77
-16.60
-12.95
-9.68
-7.65
-7.21
-7.93
-8.73
-8.43
-6.36
-2.70
1.58
5.33
7.83
9.15
9.99
11.21
13.21
15.68
17.81
18.76
18.30
16.93
15.59
15.05
15.43
16.08
16.03
14.55
11.64
7.90
4.16
0.84
-2.31
-6.11
-11.39
-18.41
-26.63
-34.92
-42.18
-47.98
-52.70
-57.22
-62.31
-68.00
-73.34
-76.73
-76.57
-72.01
-63.46
-52.56
-41.59
-32.69
-27.05
-24.59
-24.27
-24.67
-24.77
-24.28
-23.53
-23.01
-22.75
-22.25
-20.70
-17.57
-13.04
-8.04
-3.80
-1.19
-0.18
0.14
1.10
3.80
8.52
14.58
20.76
25.84
29.27
31.24
32.53
34.01
36.19
39.01
41.95
44.34
45.65
45.71
44.67
42.84
40.52
37.81
34.56
30.46
25.24
18.86
11.62
4.05
-3.28
-10.11
-16.64
-23.32
-30.55
-38.27
-45.84
-52.32
-56.94
-59.49
-60.42
-60.39
-59.83
-58.73
-56.84
-54.08
-50.95
-48.43
-47.50
-48.53
-50.76
-52.56
-52.17
-48.56
-42.03
-34.12
-26.75
-21.19
-17.24
-13.33
-7.34
2.01
14.15
26.63
36.03
39.31
34.55
21.10
-0.69
-29.34
-61.76
-92.71
-115.33
-122.84
-110.84
-79.16
-32.03
23.45
79.52
129.65
169.27
195.87
208.95
210.00
202.31
190.07
176.90
164.43
152.00
137.85
120.84
101.52
81.75
63.25
46.20
28.95
9.34
-13.55
-38.31
-61.78
-80.56
-92.70
-98.41
-99.50
-98.21
-96.14
-93.75
-90.68
-86.38
-80.65
-74.02
-67.64
-63.00
-61.46
-63.45
-67.95
-72.37
-73.39
-68.34
-56.55
-39.76
-21.31
-4.53
8.66
18.22
25.32
31.21
36.34
40.25
42.17
41.73
39.30
35.78
32.20
29.33
27.49
26.75
26.93
27.65
28.40
28.65
27.75
24.70
17.90
5.55
-13.20
-36.87
-61.05
-79.08
-84.25
-72.51
-44.29
-4.74
37.67
73.71
95.54
97.84
78.01
35.98
-25.68
-101.16
-181.24
-254.17
-308.18
-334.38
-329.21
-295.29
-240.40
-175.05
-109.66
-52.43
-8.18
21.74
38.97
47.26
51.34
55.48
62.40
72.73
85.46
98.81
111.18
121.12
127.01
126.89
118.79
102.08
78.49
52.34
29.09
13.03
5.36
4.36
7.14
12.01
19.52
31.81
50.54
75.13
102.37
127.84
147.89
160.90
167.26
168.26
164.93
157.65
146.75
133.35
119.71
108.65
102.63
102.81
108.89
119.27
131.53
142.96
151.19
154.79
153.53
148.29
140.56
131.49
121.18
108.44
91.43
68.58
39.45
5.05
-32.40
-70.18
-105.84
-137.57
-164.19
-184.97
-199.39
-207.08
-207.94
-202.25
-190.73
-174.50
-155.02
-134.02
-113.29
-94.47
-78.65
-66.29
-57.30
-51.30
-48.01
-47.26
-48.84
-52.11
-55.81
-58.37
-58.54
-56.15
-52.32
-49.11
-48.52
-51.49
-57.42
-64.39
-70.11
-72.84
-72.15
-68.76
-63.97
-58.89
-53.94
-48.93
-43.56
-37.99
-32.92
-29.25
-27.41
-26.94
-26.55
-24.85
-21.10
-15.69
-9.94
-5.25
-2.32
-0.78
0.51
2.73
6.34
10.93
15.42
18.82
20.68
21.30
21.42
21.85
23.11
25.33
28.37
31.94
35.76
39.67
43.65
47.82
52.37
57.50
63.37
70.14
78.01
87.13
97.46
108.42
118.76
126.91
131.46
131.85
128.69
123.44
117.85
113.11
109.48
106.43
103.14
99.03
93.85
87.60
80.26
71.69
61.78
50.82
39.65
29.49
21.27
15.03
9.53
2.39
-9.00
-26.28
-49.06
-74.62
-98.64
-116.45
-124.41
-120.83
-106.17
-82.60
-53.30
-21.79
8.45
34.39
53.86
65.93
70.96
70.33
65.75
58.69
50.00
40.04
29.21
18.33
8.73
1.94
-0.83
0.91
6.62
14.93
24.12
32.75
40.19
46.92
54.30
63.94
76.64
91.57
106.21
116.97
120.65
115.80
103.53
87.20
71.24
59.53
54.28
55.53
61.43
68.93
74.40
74.42
66.39
49.15
23.36
-8.86
-44.96
-83.44
-124.72
-170.62
-222.52
-279.02
-334.60
-380.48
-407.38
-409.13
-385.07
-339.93
-281.61
-218.15
-155.72
-98.57
-50.40
-14.97
4.49
7.31
-2.82
-18.41
-30.98
-34.88
-29.68
-19.51
-10.33
-6.93
-11.59
-24.72
-45.94
-74.30
-107.41
-140.44
-166.66
-179.55
-175.71
-156.38
-126.56
-92.37
-58.14
-25.26
7.25
40.82
75.64
110.08
141.41
166.96
184.89
194.60
195.96
188.83
172.84
148.26
117.23
84.11
54.15
30.71
12.92
-4.17
-26.30
-55.32
-86.35
-109.09
-113.25
-94.51
-57.52
-13.57
25.15
51.07
63.03
64.04
57.16
43.06
20.80
-9.12
-42.35
-70.84
-85.75
-81.59
-58.85
-23.73
14.46
47.15
69.31
80.40
83.44
82.87
82.25
82.96
84.08
83.39
78.96
70.33
58.92
47.25
37.64
31.04
26.80
23.40
19.73
15.89
13.24
13.49
17.53
24.72
33.23
41.09
47.39
52.69
58.58
66.41
76.14
86.07
93.61
96.75
95.27
90.99
86.80
85.12
86.41
88.85
89.13
84.08
72.16
54.20
33.03
12.41
-4.33
-15.12
-19.47
-18.15
-12.56
-4.17
5.83
16.59
27.38
37.29
45.19
49.92
50.81
48.10
43.05
37.38
32.40
28.27
23.87
17.58
8.28
-3.85
-17.27
-30.01
-40.74
-49.47
-57.15
-64.75
-72.18
-78.12
-80.73
-78.90
-73.37
-66.57
-61.51
-60.17
-62.31
-65.67
-67.28
-65.30
-60.14
-54.17
-50.20
-49.69
-51.91
-54.45
-54.88
-52.31
-47.94
-44.32
-43.56
-45.96
-49.74
-52.14
-50.96
-45.81
-38.11
-30.10
-23.50
-18.64
-14.48
-9.50
-2.66
5.95
15.19
23.43
29.45
33.08
35.27
37.57
41.36
46.93
53.33
58.69
61.30
60.61
57.63
54.39
52.78
53.41
55.28
56.43
55.24
51.47
46.47
42.43
41.06
42.71
46.04
48.80
48.84
45.06
37.65
27.72
16.55
4.95
-7.01
-19.74
-33.63
-48.47
-63.35
-76.92
-87.95
-95.93
-101.28
-105.12
-108.65
-112.56
-116.71
-120.38
-122.71
-123.27
-122.40
-121.00
-120.10
-120.32
-121.54
-123.10
-124.05
-123.59
-121.37
-117.48
-112.33
-106.39
-100.04
-93.41
-86.41
-78.77
-70.31
-61.08
-51.45
-41.92
-32.89
-24.40
-16.04
-7.27
2.16
11.86
20.80
27.77
32.04
33.73
33.91
34.03
35.16
37.45
40.13
42.03
42.33
41.02
39.00
37.54
37.67
39.67
43.01
46.73
49.88
51.83
52.41
51.73
50.03
47.51
44.33
40.62
36.60
32.47
28.53
24.97
21.88
19.19
16.79
14.72
13.43
13.69
16.41
22.16
30.75
41.04
51.20
59.40
64.41
65.93
64.58
61.38
57.21
52.46
46.95
40.20
31.84
21.90
10.98
0.09
-9.76
-17.99
-24.61
-30.08
-34.77
-38.58
-40.81
-40.47
-37.04
-30.91
-23.35
-16.00
-10.12
-6.09
-3.52
-1.84
-0.79
-0.63
-1.74
-4.17
-7.29
-10.08
-11.63
-11.74
-11.07
-10.80
-11.88
-14.41
-17.45
-19.37
-18.57
-14.13
-6.22
3.90
14.42
23.52
29.98
33.41
34.23
33.41
32.06
30.99
30.55
30.68
31.27
32.45
34.75
38.82
44.85
52.15
59.14
64.00
65.50
63.54
59.15
53.79
48.53
43.55
38.33
32.30
25.41
18.31
12.00
7.18
3.82
1.15
-1.86
-5.88
-10.75
-15.49
-18.73
-19.34
-17.02
-12.40
-6.84
-1.76
1.98
4.25
5.61
6.81
8.24
9.79
10.89
10.96
9.80
7.72
5.48
3.87
3.24
3.39
3.60
3.10
1.49
-1.05
-3.85
-6.06
-7.10
-6.87
-5.68
-3.98
-2.12
-0.34
1.23
2.33
2.56
1.48
-1.19
-5.37
-10.53
-15.96
-21.02
-25.54
-30.09
-35.86
-44.13
-55.53
-69.48
-84.13
-96.89
-105.47
-108.85
-107.70
-103.92
-99.60
-95.92
-92.55
-87.85
-79.59
-65.97
-46.37
-21.56
6.44
35.04
61.70
84.54
102.53
115.32
122.86
125.20
122.52
115.25
104.24
90.69
75.88
60.76
45.75
30.89
16.19
2.02
-10.79
-21.13
-28.14
-31.67
-32.36
-31.50
-30.47
-30.23
-30.95
-31.97
-32.05
-30.09
-25.68
-19.37
-12.49
-6.51
-2.49
-0.59
-0.19
-0.16
0.61
3.07
7.91
15.59
26.11
38.68
51.57
62.21
68.00
67.35
60.52
49.72
38.19
28.89
23.27
20.88
19.88
18.26
14.96
10.34
5.89
3.29
3.53
6.31
10.25
13.41
14.22
12.10
7.59
2.13
-2.76
-6.19
-8.22
-9.86
-12.37
-16.68
-22.91
-30.41
-38.07
-44.92
-50.48
-54.79
-58.16
-60.82
-62.70
-63.44
-62.58
-59.87
-55.56
-50.35
-45.28
-41.29
-38.85
-37.77
-37.24
-36.28
-34.19
-30.83
-26.66
-22.31
-18.26
-14.52
-10.85
-7.16
-3.80
-1.59
-1.31
-3.14
-6.28
-9.13
-10.00
-7.92
-3.26
2.44
7.19
9.64
9.72
8.60
7.92
8.75
10.86
12.84
12.88
9.76
3.49
-4.75
-13.26
-20.63
-26.24
-30.02
-31.95
-31.51
-27.67
-19.36
-6.09
11.64
32.26
53.73
74.12
92.09
106.94
118.40
126.40
130.91
132.12
130.62
127.48
124.04
121.31
119.60
118.24
116.01
111.92
106.11
100.21
96.97
99.08
107.81
122.26
139.58
156.06
168.54
175.44
176.94
174.38
169.42
163.31
156.61
149.34
141.14
131.42
119.32
103.81
84.10
60.28
33.77
7.26
-16.12
-34.20
-46.99
-57.15
-69.21
-87.96
-116.61
-155.71
-202.94
-253.77
-302.34
-342.35
-367.54
-372.64
-354.33
-312.40
-250.12
-173.44
-88.77
-0.63
89.50
182.10
276.84
369.91
453.34
517.14
553.32
559.43
539.76
503.23
459.51
415.36
373.29
332.61
292.00
251.55
213.06
178.81
149.90
125.18
101.69
76.08
46.23
12.06
-24.49
-60.63
-94.14
-124.41
-152.59
-180.80
-210.92
-243.50
-277.65
-311.89
-345.32
-377.98
-409.91
-439.85
-464.07
-476.77
-471.81
-445.09
-395.74
-325.91
-239.52
-141.28
-36.88
66.02
157.53
226.95
265.97
271.99
249.42
207.98
158.61
109.28
62.93
18.20
-27.84
-76.99
-128.54
-179.91
-228.38
-272.65
-313.37
-352.47
-392.20
-434.50
-480.76
-531.84
-587.68
-646.29
-702.92
-750.32
-780.42
-787.11
-768.70
-728.67
-674.30
-613.86
-553.86
-497.67
-445.92
-397.90
-352.84
-310.40
-270.28
-231.77
-193.70
-154.99
-115.22
-74.91
-35.10
3.06
39.03
72.96
105.44
137.00
167.68
196.94
223.92
247.91
268.79
287.40
305.36
324.61
346.39
370.42
394.40
414.46
426.20
426.41
414.38
392.41
365.07
337.69
314.57
297.60
285.75
275.69
263.14
244.48
218.01
184.43
146.35
107.25
70.18
37.02
8.40
-15.74
-35.36
-50.00
-58.89
-61.62
-58.59
-50.98
-40.06
-26.35
-9.14
13.20
42.31
78.70
120.80
164.75
205.16
236.49
254.67
258.45
249.78
233.11
213.74
195.83
181.08
168.57
155.71
139.88
119.72
95.59
69.03
41.99
16.14
-7.25
-27.19
-42.94
-54.33
-62.27
-68.84
-76.81
-88.57
-104.97
-124.88
-145.51
-163.58
-176.50
-183.15
-183.82
-179.54
-171.36
-160.01
-145.93
-129.43
-110.77
-90.18
-68.04
-45.26
-23.67
-6.02
4.83
7.15
1.54
-8.81
-18.96
-24.09
-21.29
-10.52
5.83
24.15
40.65
51.98
55.53
49.88
35.32
14.22
-9.46
-31.23
-47.22
-54.91
-52.96
-40.33
-15.70
22.21
73.32
134.89
201.32
265.42
320.51
362.37
389.74
403.32
404.40
393.98
372.92
342.69
305.83
265.68
225.47
187.13
150.87
115.70
80.57
45.39
11.42
-19.27
-44.81
-64.30
-78.25
-88.10
-95.36
-100.88
-104.62
-105.98
-104.45
-100.09
-93.76
-86.75
-80.13
-74.17
-68.21
-61.02
-51.63
-40.00
-27.47
-16.31
-8.92
-6.60
-8.82
-13.19
-16.44
-15.89
-10.91
-3.26
3.70
6.73
4.35
-2.36
-10.48
-16.85
-19.79
-19.89
-19.31
-20.30
-23.77
-28.82
-33.51
-36.31
-37.19
-37.74
-40.08
-45.50
-53.58
-62.30
-69.10
-72.19
-71.27
-67.56
-62.89
-58.81
-55.87
-53.59
-50.92
-47.04
-41.90
-36.25
-31.28
-27.94
-26.55
-26.64
-27.28
-27.54
-26.88
-25.18
-22.47
-18.61
-13.19
-5.77
3.71
14.59
25.52
34.86
41.27
44.18
43.83
41.08
36.91
32.04
26.67
20.64
13.72
5.95
-2.31
-10.54
-18.35
-25.89
-33.84
-43.07
-54.05
-66.33
-78.55
-88.76
-95.18
-96.92
-94.26
-88.45
-81.06
-73.26
-65.46
-57.33
-48.35
-38.37
-27.99
-18.42
-10.97
-6.42
-4.66
-4.67
-4.95
-4.13
-1.51
2.70
7.60
12.03
15.02
16.13
15.57
13.86
11.37
7.99
3.12
-4.06
-14.06
-26.65
-40.94
-55.81
-70.44
-84.70
-98.91
-113.26
-127.19
-139.24
-147.40
-150.07
-146.65
-137.63
-124.04
-106.55
-85.12
-59.24
-28.77
5.13
39.88
72.13
99.05
119.37
133.61
143.49
150.99
157.62
164.13
170.84
177.85
185.15
192.37
198.77
203.32
205.15
203.92
200.02
194.38
188.11
182.07
176.79
172.58
169.61
167.80
166.70
165.46
163.03
158.63
152.04
143.64
133.92
122.85
109.58
92.71
71.29
45.79
18.44
-7.38
-28.67
-44.24
-55.01
-63.11
-70.14
-76.16
-79.94
-80.35
-77.98
-75.54
-76.66
-83.77
-96.45
-111.36
-123.94
-130.73
-130.99
-126.68
-120.88
-115.78
-111.63
-107.04
-100.46
-91.65
-82.27
-75.21
-73.06
-76.68
-84.66
-93.92
-101.06
-103.82
-101.77
-96.05
-88.45
-80.35
-72.21
-63.73
-54.51
-44.61
-34.76
-26.11
-19.71
-15.95
-14.36
-13.70
-12.52
-9.68
-4.82
1.50
8.11
13.76
17.66
19.74
20.65
21.39
22.87
25.56
29.50
34.44
40.17
46.67
53.99
62.00
70.13
77.35
82.63
85.51
86.74
88.16
91.93
99.29
109.53
120.04
127.44
129.16
124.38
113.90
99.29
82.01
63.15
43.77
25.20
8.98
-3.72
-12.63
-18.29
-21.42
-22.30
-20.58
-15.93
-8.87
-1.18
4.76
7.13
5.70
1.66
-3.48
-9.07
-15.77
-25.00
-37.84
-54.21
-72.77
-91.60
-109.12
-124.59
-137.97
-149.43
-158.86
-165.89
-170.27
-172.40
-173.33
-174.11
-174.80
-173.75
-167.90
-153.85
-129.26
-94.11
-51.17
-5.58
36.12
67.52
83.87
83.46
68.38
44.15
18.09
-2.88
-14.25
-14.83
-6.21
8.64
26.86
46.38
65.80
83.86
99.08
110.14
116.56
119.23
120.41
122.87
128.68
138.13
149.46
159.73
166.27
168.15
166.54
163.52
160.23
155.65
146.87
130.83
106.39
75.25
41.18
7.84
-23.09
-52.33
-81.64
-111.60
-140.22
-163.47
-177.51
-181.21
-177.37
-171.44
-168.79
-171.81
-178.72
-184.69
-184.73
-176.60
-161.93
-145.03
-130.14
-118.87
-109.63
-99.09
-84.51
-65.61
-44.72
-25.30
-10.12
0.02
6.22
10.43
14.44
19.04
23.94
28.21
31.00
32.33
33.44
36.42
43.13
53.87
66.76
78.25
84.75
84.29
77.30
66.08
53.37
40.87
28.75
16.29
3.05
-10.12
-21.22
-27.88
-28.46
-22.76
-12.05
1.50
15.51
28.13
38.55
47.02
54.53
62.13
70.18
78.14
84.89
89.52
92.03
93.62
96.11
101.02
108.67
117.92
126.67
132.98
136.01
136.40
135.83
135.95
137.18
138.20
136.45
129.42
116.23
98.36
78.94
60.94
45.35
30.29
11.89
-13.60
-47.71
-88.80
-132.81
-175.10
-212.21
-242.19
-263.74
-275.07
-273.82
-258.46
-230.36
-194.97
-160.59
-135.06
-122.07
-119.17
-119.09
-113.88
-99.40
-77.58
-55.06
-38.87
-32.19
-32.72
-34.47
-31.69
-22.22
-8.30
5.38
14.90
19.41
21.19
23.85
29.85
39.12
49.16
56.48
58.40
54.21
45.43
35.10
26.37
21.33
20.14
21.17
22.03
20.88
17.36
12.65
8.57
6.45
6.38
7.24
7.56
6.40
3.91
1.18
-0.44
0.04
2.69
6.71
10.76
13.50
14.26
13.41
12.51
13.93
20.02
32.14
50.05
71.77
94.20
114.16
129.27
138.40
141.39
138.31
128.99
112.98
90.10
61.18
28.43
-5.01
-36.11
-62.96
-85.13
-103.12
-117.43
-127.99
-134.22
-135.59
-132.28
-125.32
-116.15
-106.06
-95.96
-86.47
-78.21
-71.72
-67.17
-64.07
-61.08
-56.64
-49.71
-40.34
-29.59
-18.84
-9.07
-0.54
7.07
14.19
21.04
27.48
33.10
37.49
40.40
41.80
41.93
41.19
40.07
38.85
37.53
35.84
33.46
30.26
26.53
22.81
19.68
17.43
15.99
15.11
14.63
14.57
14.95
15.63
16.15
15.91
14.49
11.93
8.72
5.56
2.92
0.91
-0.60
-1.74
-2.36
-2.07
-0.48
2.43
6.30
10.56
14.88
19.42
24.87
32.13
41.69
53.22
65.45
76.63
85.20
90.52
93.07
94.12
94.97
96.17
97.24
96.91
93.80
86.99
76.29
62.11
45.17
26.34
6.64
-12.79
-30.71
-45.93
-57.40
-64.26
-66.04
-63.15
-57.15
-50.69
-46.61
-46.84
-51.42
-58.72
-66.63
-73.91
-80.88
-88.74
-98.06
-107.55
-114.13
-114.25
-105.89
-89.67
-68.40
-45.46
-23.09
-1.74
19.29
40.56
61.33
79.37
91.95
97.13
94.78
86.71
75.82
64.72
54.68
45.32
35.31
23.51
10.02
-3.70
-15.38
-23.04
-25.91
-24.77
-21.51
-18.32
-16.74
-17.15
-18.89
-20.74
-21.56
-20.91
-19.12
-17.00
-15.31
-14.34
-13.87
-13.35
-12.39
-11.09
-10.05
-10.04
-11.51
-14.29
-17.52
-20.06
-20.99
-20.14
-17.97
-15.31
-12.70
-9.91
-5.99
0.31
9.71
21.88
35.40
48.24
58.45
64.83
67.04
65.61
61.51
55.87
49.75
44.01
39.20
35.48
32.58
29.79
26.26
21.18
14.08
4.88
-6.23
-18.90
-32.59
-46.44
-59.41
-70.56
-79.54
-87.00
-94.42
-103.32
-114.12
-125.15
-132.87
-133.33
-124.29
-106.81
-84.99
-63.99
-47.42
-35.57
-25.79
-14.65
-0.36
16.00
31.27
42.24
47.46
47.81
45.51
42.46
39.12
34.66
28.04
19.23
9.66
1.76
-2.15
-1.03
4.51
12.51
20.64
27.21
31.82
35.39
39.46
45.18
52.60
60.53
67.17
70.92
70.90
67.09
59.98
50.23
38.60
26.14
14.20
4.24
-2.70
-6.36
-7.45
-7.32
-7.32
-8.31
-10.43
-13.24
-16.10
-18.43
-19.86
-20.27
-19.76
-18.59
-17.14
-15.74
-14.67
-13.96
-13.48
-13.09
-12.84
-12.95
-13.64
-14.93
-16.40
-17.34
-17.07
-15.39
-12.74
-10.00
-7.96
-6.75
-5.76
-3.85
-0.03
5.99
13.61
21.57
28.58
33.84
37.25
39.41
41.24
43.64
47.17
51.92
57.60
63.63
69.40
74.47
78.66
81.99
84.46
85.80
85.56
83.33
79.19
73.93
68.66
64.11
59.85
54.12
44.65
29.87
10.06
-12.57
-34.99
-55.01
-72.38
-88.45
-104.67
-120.90
-134.85
-143.07
-143.09
-135.15
-122.32
-108.96
-98.36
-91.20
-85.70
-79.09
-69.59
-57.40
-44.37
-32.70
-23.72
-17.38
-12.70
-8.50
-4.16
0.15
3.72
5.75
5.78
3.89
0.76
-2.53
-4.96
-6.08
-6.32
-6.85
-9.03
-13.62
-20.34
-27.88
-34.51
-38.89
-40.51
-39.72
-37.21
-33.58
-29.07
-23.50
-16.71
-8.86
-0.52
7.46
14.37
19.94
24.46
28.61
33.09
38.13
43.38
47.96
51.03
52.32
52.49
52.92
55.04
59.48
65.68
72.00
76.51
77.75
75.27
69.61
61.76
52.49
42.06
30.39
17.57
4.28
-8.16
-18.17
-24.56
-26.98
-26.03
-22.94
-18.98
-14.90
-10.53
-4.86
3.58
15.97
32.61
52.54
73.82
94.15
111.68
125.55
135.77
142.64
146.05
145.13
138.66
125.89
107.45
85.61
63.66
44.55
29.62
18.03
7.52
-3.97
-16.79
-28.89
-36.77
-37.37
-29.85
-16.23
-0.30
14.41
26.32
36.16
45.82
56.59
68.12
78.66
86.50
91.37
94.83
99.51
107.52
119.25
133.18
146.59
156.95
162.81
164.14
161.95
157.53
151.71
144.35
134.37
120.30
101.09
76.95
49.62
21.77
-4.17
-27.17
-47.95
-68.22
-89.19
-110.37
-129.37
-143.10
-149.52
-148.90
-143.79
-137.75
-133.73
-132.89
-134.65
-137.59
-140.55
-143.19
-145.79
-148.50
-150.81
-151.60
-149.73
-144.82
-137.60
-129.68
-122.66
-117.27
-112.92
-108.11
-101.23
-91.57
-79.77
-67.62
-57.15
-49.70
-45.36
-43.13
-41.59
-39.67
-37.15
-34.55
-32.68
-31.99
-32.21
-32.53
-32.06
-30.47
-28.32
-26.90
-27.56
-30.92
-36.34
-42.04
-45.82
-46.06
-42.54
-36.59
-30.46
-26.24
-24.85
-25.65
-26.81
-26.21
-22.54
-15.77
-7.11
1.74
9.39
15.33
19.87
23.65
26.97
29.46
30.32
28.85
25.01
19.52
13.60
8.31
4.03
0.49
-2.79
-5.91
-8.23
-8.70
-6.47
-1.59
4.80
10.86
14.94
16.20
15.00
12.41
9.61
7.13
4.61
0.94
-5.12
-14.22
-25.93
-38.71
-50.36
-58.78
-62.72
-62.14
-57.98
-51.49
-43.48
-34.04
-22.78
-9.43
5.54
20.83
34.81
46.34
55.19
62.00
67.68
72.62
76.39
77.85
75.82
69.79
60.20
48.30
35.66
23.57
12.62
2.68
-6.78
-16.21
-25.62
-34.42
-41.74
-46.77
-49.25
-49.58
-48.65
-47.40
-46.33
-45.24
-43.46
-40.28
-35.61
-30.19
-25.35
-22.40
-21.87
-23.21
-24.98
-25.47
-23.59
-19.27
-13.45
-7.51
-2.64
0.42
1.42
0.29
-3.01
-8.45
-15.72
-24.05
-32.21
-38.90
-43.01
-43.96
-41.91
-37.65
-32.51
-27.98
-25.24
-24.76
-26.05
-27.85
-28.85
-28.29
-26.40
-24.16
-22.56
-21.90
-21.47
-20.00
-16.57
-11.31
-5.47
-0.76
1.68
1.93
1.26
1.39
3.45
7.41
12.26
16.70
20.16
23.05
26.52
31.61
38.36
45.60
51.40
54.11
53.21
49.63
45.30
42.25
41.72
43.77
47.46
51.47
54.66
56.42
56.63
55.53
53.34
50.11
45.75
40.11
33.35
26.07
19.33
14.23
11.54
11.29
12.89
15.52
18.74
22.75
28.12
35.36
44.22
53.46
61.33
66.24
67.56
65.88
62.70
59.67
57.77
56.87
56.01
53.99
50.08
44.40
37.77
31.14
24.86
18.34
10.29
-0.52
-14.49
-30.74
-47.35
-62.09
-73.42
-81.22
-86.66
-91.57
-97.38
-104.36
-111.54
-117.34
-120.65
-121.66
-121.76
-122.65
-125.32
-129.16
-132.25
-132.27
-127.79
-119.15
-108.27
-97.80
-89.84
-85.13
-82.94
-81.72
-80.06
-77.40
-74.14
-71.23
-69.35
-68.46
-67.60
-65.45
-61.16
-54.89
-47.80
-41.37
-36.43
-32.74
-29.11
-24.26
-17.74
-10.30
-3.48
1.21
3.14
2.90
1.80
1.22
1.82
3.29
4.66
4.99
3.83
1.47
-1.29
-3.58
-4.91
-5.42
-5.58
-5.78
-5.86
-5.04
-2.26
3.17
11.11
20.41
29.44
36.81
42.01
45.47
48.21
51.20
54.79
58.43
61.03
61.43
59.09
54.38
48.51
42.98
38.86
36.39
34.89
33.27
30.74
27.26
23.65
21.05
20.22
20.96
22.19
22.45
20.75
17.09
12.46
8.33
5.82
5.14
5.51
5.63
4.39
1.38
-2.98
-7.75
-12.06
-15.48
-18.11
-20.21
-21.85
-22.56
-21.53
-18.02
-11.87
-3.83
4.68
12.10
17.43
20.62
22.51
24.28
26.78
30.03
33.28
35.51
36.13
35.33
34.08
33.61
34.65
37.05
39.82
41.67
41.74
40.03
37.38
34.92
33.40
32.69
31.89
29.81
25.74
19.86
13.29
7.61
4.07
2.99
3.63
4.60
4.65
3.21
0.61
-2.25
-4.57
-6.11
-7.20
-8.38
-9.81
-11.07
-11.25
-9.47
-5.41
0.42
6.92
12.81
17.20
19.86
21.19
21.82
22.23
22.38
21.77
19.75
16.09
11.30
6.59
3.45
2.87
4.92
8.67
12.68
15.79
17.56
18.34
18.91
19.76
20.68
20.80
18.98
14.57
7.74
-0.44
-8.43
-14.82
-18.91
-20.77
-21.00
-20.26
-18.86
-16.75
-13.73
-9.97
-6.23
-3.74
-3.72
-6.66
-11.96
-18.07
-23.05
-25.39
-24.63
-21.42
-17.06
-12.75
-9.12
-6.05
-3.02
0.34
3.85
6.83
8.43
8.25
6.70
4.89
4.18
5.49
8.84
13.38
17.85
21.37
23.86
26.05
29.00
33.34
38.84
44.42
48.73
50.84
50.76
49.41
48.16
48.10
49.51
51.74
53.60
54.02
52.50
49.30
45.22
41.07
37.24
33.56
29.56
24.84
19.49
14.18
9.90
7.45
7.01
7.97
9.18
9.53
8.44
6.15
3.53
1.54
0.68
0.79
1.18
1.21
0.71
0.15
0.35
1.92
4.75
8.02
10.48
11.25
10.22
8.12
6.12
5.08
5.06
5.39
5.12
3.79
1.84
0.44
0.87
3.68
8.20
12.75
15.40
14.89
11.25
5.77
0.39
-3.04
-3.55
-1.16
3.30
8.78
14.51
20.28
26.39
33.26
41.01
49.23
57.09
63.79
68.95
72.86
76.26
79.82
83.53
86.58
87.60
85.57
80.38
73.09
65.53
59.40
55.35
52.71
49.80
44.93
37.22
27.12
16.13
6.03
-1.97
-7.71
-11.98
-15.86
-20.13
-24.96
-29.96
-34.70
-39.11
-43.54
-48.55
-54.41
-60.74
-66.50
-70.44
-71.59
-69.79
-65.76
-60.80
-56.12
-52.34
-49.26
-46.13
-42.25
-37.59
-32.93
-29.56
-28.45
-29.80
-32.89
-36.57
-39.99
-42.92
-45.61
-48.12
-49.75
-49.08
-44.67
-35.91
-23.64
-9.99
2.50
11.83
17.23
19.05
18.31
16.00
12.72
8.63
3.66
-2.20
-8.68
-15.19
-21.00
-25.42
-28.12
-29.40
-30.17
-31.67
-34.87
-39.87
-45.78
-50.98
-53.83
-53.36
-49.62
-43.55
-36.46
-29.53
-23.58
-19.05
-16.25
-15.58
-17.56
-22.62
-30.65
-40.86
-51.73
-61.39
-68.14
-71.07
-70.18
-66.20
-60.01
-52.11
-42.52
-31.03
-17.83
-3.83
9.35
20.04
27.18
30.79
31.83
31.81
32.08
33.34
35.62
38.45
41.32
44.02
46.70
49.76
53.46
57.60
61.33
63.38
62.54
58.18
50.52
40.43
28.99
16.98
4.70
-7.82
-20.31
-31.98
-41.56
-47.72
-49.76
-48.00
-43.73
-38.73
-34.49
-31.66
-29.96
-28.42
-26.07
-22.48
-17.96
-13.33
-9.39
-6.40
-3.95
-1.16
2.77
7.97
13.78
18.95
22.34
23.49
22.79
21.28
20.06
19.66
19.96
20.31
20.10
19.12
17.71
16.53
16.13
16.60
17.57
18.50
19.10
19.60
20.69
23.23
27.71
33.88
40.78
47.04
51.55
53.95
54.75
55.12
56.24
58.66
62.06
65.45
67.82
68.71
68.52
68.30
69.14
71.51
74.98
78.46
80.84
81.63
81.15
80.30
80.03
80.70
82.01
83.22
83.67
83.23
82.24
81.22
80.29
78.77
75.25
68.09
56.29
40.09
21.05
1.63
-15.78
-29.69
-39.89
-47.14
-52.46
-56.33
-58.59
-58.64
-56.26
-52.16
-48.03
-45.89
-47.10
-51.59
-57.80
-63.35
-66.15
-65.35
-61.60
-56.55
-51.91
-48.58
-46.40
-44.44
-41.83
-38.39
-34.83
-32.43
-32.25
-34.60
-38.83
-43.58
-47.49
-49.76
-50.49
-50.47
-50.59
-51.29
-52.18
-52.33
-50.72
-47.05
-41.99
-36.98
-33.52
-32.36
-33.15
-34.54
-34.97
-33.59
-30.65
-27.42
-25.40
-25.53
-27.72
-31.02
-34.26
-36.64
-38.10
-39.11
-40.25
-41.73
-43.20
-43.97
-43.27
-40.71
-36.35
-30.68
-24.26
-17.43
-10.15
-2.02
7.36
17.98
29.18
39.67
48.02
53.28
55.28
54.77
52.93
50.77
48.74
46.67
44.08
40.60
36.20
31.10
25.49
19.31
12.28
4.15
-4.93
-14.21
-22.53
-28.64
-31.66
-31.45
-28.55
-23.98
-18.79
-13.72
-9.07
-4.75
-0.54
3.60
7.39
10.32
11.97
12.34
11.99
11.84
12.74
14.93
17.86
20.36
21.22
19.77
16.22
11.56
7.12
3.93
2.30
1.83
1.86
1.99
2.54
4.43
8.68
15.67
24.71
34.19
42.30
47.84
50.80
52.28
53.81
56.44
60.22
64.28
67.45
69.02
69.11
68.44
67.78
67.23
66.14
63.44
58.38
51.13
42.84
35.17
29.43
25.84
23.42
20.44
15.28
7.25
-3.08
-14.18
-24.23
-32.02
-37.44
-41.50
-45.69
-51.12
-57.83
-64.71
-70.00
-72.23
-70.95
-66.89
-61.52
-56.21
-51.56
-47.27
-42.47
-36.53
-29.53
-22.37
-16.28
-12.14
-10.09
-9.38
-8.95
-8.01
-6.51
-5.08
-4.60
-5.49
-7.41
-9.33
-10.05
-8.92
-6.18
-2.85
-0.09
1.44
1.96
2.37
3.67
6.24
9.52
12.23
13.06
11.54
8.33
5.04
3.42
4.39
7.56
11.42
14.18
14.61
12.56
8.81
4.41
-0.06
-4.88
-10.87
-18.85
-28.91
-40.26
-51.50
-61.20
-68.58
-73.75
-77.53
-80.85
-84.22
-87.50
-89.97
-90.80
-89.52
-86.28
-81.70
-76.54
-71.27
-65.95
-60.23
-53.75
-46.43
-38.60
-30.75
-23.10
-15.18
-5.88
6.10
21.45
39.59
58.57
75.68
88.55
96.14
99.10
99.36
99.10
99.75
101.37
102.92
102.98
100.68
96.28
91.29
87.90
88.18
93.24
102.91
115.82
130.09
144.01
156.63
167.87
178.04
187.38
195.76
202.80
208.33
212.66
216.47
220.27
223.63
224.90
221.63
211.85
195.30
173.85
150.83
129.29
110.35
92.50
72.24
45.57
9.83
-35.37
-87.77
-142.96
-195.20
-238.40
-267.19
-278.22
-271.42
-250.36
-221.62
-192.64
-169.20
-153.90
-146.08
-143.05
-141.54
-138.69
-131.75
-117.95
-94.50
-59.97
-16.12
31.74
76.27
111.15
133.55
144.97
148.72
147.38
140.74
125.85
99.55
61.15
13.96
-35.95
-81.96
-120.26
-149.46
-168.49
-177.46
-178.11
-173.70
-167.47
-164.24
-164.24
-167.01
-172.57
-181.79
-196.54
-216.80
-243.09
-275.79
-315.01
-359.72
-407.43
-452.99
-488.90
-507.32
-502.82
-474.75
-427.37
-368.31
-305.56
-245.53
-191.56
-144.43
-103.75
-68.91
-39.38
-13.94
9.47
33.53
59.95
88.82
118.54
146.64
171.02
191.09
208.25
225.34
245.51
270.85
301.66
336.07
370.22
399.39
419.03
426.68
422.76
410.71
395.19
379.81
365.24
348.90
326.54
294.71
252.91
204.29
154.57
109.99
75.32
52.72
41.51
38.81
40.47
42.38
41.73
37.65
31.27
24.66
19.49
15.78
11.77
5.04
-5.58
-18.86
-31.59
-39.79
-41.09
-35.88
-27.60
-21.02
-20.13
-26.24
-37.51
-50.13
-60.31
-66.41
-69.66
-73.31
-80.43
-91.96
-105.94
-118.31
-124.94
-123.49
-114.51
-100.89
-86.31
-73.60
-63.96
-57.17
-52.63
-50.36
-51.41
-57.42
-69.56
-87.45
-108.71
-129.09
-143.41
-146.88
-136.74
-113.54
-81.42
-47.08
-17.44
2.92
13.68
18.56
23.42
33.19
49.50
70.45
91.86
109.76
122.02
128.55
130.41
129.23
127.25
127.67
134.12
149.05
171.64
196.96
217.43
226.02
219.58
199.86
172.00
141.52
111.86
84.07
58.26
35.33
17.44
6.61
2.93
3.35
2.82
-3.72
-18.87
-41.68
-68.27
-93.53
-113.35
-125.81
-131.33
-131.61
-128.37
-122.33
-113.07
-99.78
-82.42
-62.32
-42.07
-24.41
-11.08
-2.24
3.23
6.66
8.55
8.30
4.81
-2.37
-12.20
-22.15
-29.18
-31.19
-28.08
-21.78
-15.28
-11.18
-10.62
-13.11
-17.11
-21.17
-24.65
-27.89
-31.72
-36.74
-42.81
-49.06
-54.18
-57.04
-57.08
-54.53
-50.18
-45.03
-39.77
-34.50
-28.70
-21.76
-13.49
-4.51
3.93
10.56
14.72
16.70
17.50
18.08
18.68
18.69
17.20
13.82
9.28
5.23
3.54
5.19
9.76
15.58
20.65
23.68
24.69
24.79
25.45
27.51
30.68
33.59
34.60
32.70
28.04
21.89
15.94
11.46
8.65
6.57
3.73
-1.11
-8.34
-17.33
-26.75
-35.18
-41.74
-46.24
-49.08
-50.78
-51.62
-51.55
-50.34
-47.92
-44.68
-41.37
-38.85
-37.63
-37.55
-37.84
-37.40
-35.39
-31.65
-26.80
-21.98
-18.28
-16.22
-15.49
-15.14
-14.10
-11.83
-8.59
-5.33
-3.04
-2.21
-2.48
-2.78
-1.99
0.36
3.83
7.22
9.31
9.53
8.23
6.43
5.14
4.67
4.47
3.46
0.78
-3.59
-8.71
-13.07
-15.47
-15.66
-14.51
-13.59
-14.35
-17.43
-22.35
-27.93
-32.85
-36.44
-38.77
-40.41
-41.65
-42.16
-40.90
-36.71
-29.13
-18.93
-8.07
1.08
6.88
9.15
9.19
9.04
10.29
13.19
16.59
18.68
18.18
15.16
11.06
7.89
7.08
8.68
11.43
13.53
13.82
12.42
10.54
9.62
10.42
12.36
13.87
13.19
9.47
3.22
-3.81
-9.56
-12.57
-12.73
-11.19
-9.81
-10.16
-12.86
-17.34
-22.11
-25.34
-25.56
-22.13
-15.46
-6.72
2.73
11.84
20.29
28.14
35.37
41.34
44.79
44.62
40.71
34.49
28.57
25.61
26.97
32.02
38.56
44.06
47.01
47.45
46.67
46.22
47.10
49.48
52.90
56.79
60.75
64.55
67.95
70.52
71.60
70.60
67.38
62.48
56.97
52.10
48.74
47.02
46.19
45.06
42.58
38.40
33.06
27.73
23.63
21.38
20.72
20.64
19.92
17.75
14.12
9.68
5.29
1.44
-2.19
-6.52
-12.53
-20.66
-30.41
-40.45
-49.15
-55.13
-57.75
-57.20
-54.29
-49.97
-45.03
-39.88
-34.53
-28.80
-22.65
-16.41
-10.77
-6.48
-3.99
-3.10
-3.09
-3.13
-2.77
-2.10
-1.54
-1.27
-0.94
0.23
2.97
7.38
12.68
17.61
20.99
22.44
22.50
22.27
22.75
24.27
26.28
27.66
27.38
24.98
20.90
16.16
11.95
8.98
7.20
5.81
3.81
0.62
-3.54
-7.76
-10.88
-12.25
-12.16
-11.73
-12.30
-14.67
-18.60
-22.95
-26.27
-27.65
-27.24
-26.14
-25.80
-27.12
-29.91
-33.00
-34.84
-34.37
-31.73
-28.30
-26.04
-26.46
-29.79
-34.90
-39.80
-42.81
-43.20
-41.24
-37.55
-32.27
-24.77
-14.13
-0.11
16.11
31.90
44.05
49.72
46.98
34.85
13.17
-17.07
-53.11
-90.04
-121.60
-142.07
-148.40
-141.46
-125.35
-105.34
-85.70
-68.58
-54.14
-41.65
-30.24
-19.10
-7.46
5.15
18.11
29.09
34.76
32.58
22.86
9.17
-3.36
-11.04
-13.77
-14.89
-18.77
-27.64
-40.12
-52.28
-60.37
-63.29
-63.11
-63.42
-66.85
-73.39
-80.51
-84.74
-83.61
-76.54
-64.80
-50.52
-35.65
-21.35
-7.82
5.39
18.79
32.41
45.47
56.37
63.36
65.36
62.80
57.75
53.08
51.24
53.01
57.05
60.60
60.89
56.63
48.62
39.31
31.47
26.80
25.21
25.20
24.85
23.05
19.95
16.66
14.45
13.89
14.56
15.33
15.11
13.48
10.96
8.69
7.84
8.91
11.51
14.44
16.31
16.22
14.16
11.02
8.08
6.46
6.52
7.76
9.14
9.71
9.07
7.61
6.25
5.85
6.66
8.06
8.90
8.14
5.52
1.93
-0.99
-1.63
0.62
4.96
9.50
12.27
12.22
9.74
6.38
3.83
2.87
2.96
2.63
0.58
-3.43
-8.33
-12.21
-13.45
-11.62
-7.69
-3.48
-0.61
0.28
-0.25
-0.79
0.14
3.40
8.97
16.03
23.33
29.71
34.41
37.28
38.62
38.80
37.95
35.86
32.33
27.59
22.65
19.04
18.18
20.49
24.91
29.22
31.06
29.15
23.92
17.31
11.72
8.75
8.52
9.90
11.37
12.01
12.02
12.55
14.97
19.99
27.15
35.09
42.35
48.26
53.42
59.25
66.91
76.09
84.71
89.76
88.95
82.09
71.24
59.46
48.76
38.81
27.11
10.65
-11.95
-39.21
-67.30
-91.66
-109.05
-118.55
-121.36
-119.53
-114.67
-107.25
-96.90
-83.19
-66.51
-48.30
-30.78
-15.89
-4.50
4.11
11.77
20.52
31.48
44.24
57.12
67.97
75.19
78.63
79.58
80.33
83.05
88.90
97.61
107.81
117.65
125.54
130.74
133.35
134.03
133.49
132.19
130.44
128.71
127.81
128.53
131.53
137.08
144.77
153.64
162.35
169.75
175.24
178.75
179.36
175.71
166.00
148.41
121.71
85.87
42.63
-4.64
-51.74
-96.89
-140.06
-182.80
-227.36
-275.60
-328.25
-383.77
-437.50
-482.10
-512.00
-522.43
-510.09
-473.74
-415.38
-341.52
-262.88
-192.21
-141.25
-121.26
-137.03
-185.11
-254.74
-332.01
-404.98
-466.57
-514.44
-525.67
-485.20
-391.51
-260.76
-118.89
11.56
118.21
198.29
255.05
294.06
317.84
328.19
327.23
318.35
305.53
291.85
278.91
267.44
257.56
247.14
234.52
219.25
202.11
184.88
168.56
152.98
137.47
121.15
102.65
81.59
58.36
34.23
10.37
-12.95
-36.31
-56.58
-74.62
-92.47
-111.55
-131.49
-149.11
-158.89
-155.11
-134.58
-98.81
-54.71
-11.67
21.97
41.92
49.00
47.54
42.50
37.06
32.00
26.20
19.11
11.46
4.81
0.52
-1.21
-1.41
-1.76
-3.75
-8.06
-13.84
-19.40
-22.96
-23.47
-20.93
-16.31
-10.98
-6.22
-2.79
-0.60
1.00
2.72
4.90
7.44
9.75
11.05
10.74
8.57
4.85
0.17
-4.84
-9.77
-14.30
-18.47
-22.56
-26.91
-31.76
-37.17
-43.05
-49.22
-55.47
-61.32
-66.56
-71.20
-75.52
-79.87
-84.56
-89.69
-95.11
-100.45
-104.79
-107.49
-108.29
-107.28
-104.77
-100.84
-95.03
-85.94
-74.79
-61.25
-45.08
-26.46
-6.17
14.73
35.21
54.75
73.37
91.60
110.65
131.65
155.47
182.47
212.10
242.38
269.81
289.95
298.63
293.90
276.46
249.65
218.21
186.52
157.33
131.45
108.38
87.48
68.81
52.87
40.00
29.83
21.14
12.38
2.45
-8.69
-19.88
-29.01
-33.84
-32.73
-25.29
-12.59
2.92
18.14
30.24
37.66
40.67
41.12
41.51
43.77
48.43
54.62
60.70
65.32
68.01
69.20
69.67
70.04
70.60
71.64
73.84
78.29
86.01
96.96
109.48
120.43
126.20
124.23
114.01
97.27
77.11
56.65
37.90
21.47
7.07
-5.67
-16.58
-25.00
-30.35
-32.74
-33.23
-33.47
-34.96
-38.46
-43.77
-50.11
-56.77
-63.77
-71.93
-82.27
-95.31
-110.25
-124.99
-136.89
-143.85
-145.31
-142.47
-137.59
-132.81
-129.05
-125.72
-121.22
-113.90
-102.99
-88.94
-73.07
-56.89
-41.42
-26.94
-13.12
0.46
13.94
26.91
38.52
47.85
54.31
57.86
58.98
58.37
56.55
53.66
49.49
43.85
36.91
29.35
22.13
16.21
12.09
9.65
8.29
7.32
6.32
5.27
4.42
4.06
4.23
4.56
4.42
3.18
0.56
-3.17
-7.29
-10.80
-12.87
-13.11
-11.75
-9.49
-7.26
-5.82
-5.58
-6.49
-8.18
-10.23
-12.42
-14.79
-17.55
-20.82
-24.48
-28.11
-31.23
-33.55
-35.16
-36.47
-37.86
-39.41
-40.73
-41.18
-40.28
-38.07
-35.13
-32.32
-30.28
-29.12
-28.39
-27.39
-25.62
-23.03
-20.09
-17.48
-15.73
-14.89
-14.56
-14.02
-12.70
-10.46
-7.63
-4.93
-2.99
-2.06
-1.92
-2.00
-1.78
-1.04
0.01
0.94
1.37
1.16
0.46
-0.44
-1.37
-2.37
-3.67
-5.50
-7.89
-10.61
-13.23
-15.26
-16.41
-16.75
-16.69
-16.78
-17.38
-18.49
-19.65
-20.20
-19.60
-17.86
-15.55
-13.61
-12.84
-13.47
-15.01
-16.48
-16.86
-15.64
-12.97
-9.56
-6.22
-3.50
-1.52
-0.05
1.12
2.02
2.53
2.54
2.22
2.06
2.60
4.11
6.43
8.95
10.97
12.03
12.14
11.68
11.15
10.82
10.56
9.93
8.38
5.62
1.84
-2.31
-5.89
-8.10
-8.63
-7.88
-6.72
-6.10
-6.53
-7.80
-9.11
-9.50
-8.40
-6.05
-3.37
-1.66
-1.93
-4.47
-8.75
-13.68
-18.08
-21.20
-22.96
-23.80
-24.26
-24.66
-24.95
-24.83
-24.21
-23.41
-23.02
-23.47
-24.57
-25.54
-25.45
-23.88
-21.33
-19.19
-19.02
-21.85
-27.61
-35.21
-43.03
-49.55
-53.78
-55.48
-54.96
-52.85
-49.81
-46.28
-42.42
-38.12
-33.23
-27.79
-22.11
-16.71
-11.98
-7.96
-4.29
-0.42
4.16
9.64
15.89
22.64
29.61
36.69
43.87
51.13
58.36
65.33
71.73
77.27
81.79
85.32
88.10
90.49
92.79
95.04
96.94
97.95
97.54
95.55
92.32
88.55
84.88
81.48
77.93
73.45
67.44
59.98
51.87
44.26
37.98
33.05
28.66
23.66
17.24
9.53
1.44
-5.75
-11.12
-14.55
-16.65
-18.34
-20.27
-22.45
-24.42
-25.51
-25.36
-24.11
-22.29
-20.55
-19.26
-18.39
-17.59
-16.47
-14.85
-12.96
-11.30
-10.46
-10.74
-12.08
-14.00
-15.84
-17.04
-17.42
-17.20
-16.92
-17.07
-17.85
-19.11
-20.40
-21.33
-21.83
-22.21
-22.97
-24.38
-26.22
-27.76
-28.07
-26.53
-23.22
-18.91
-14.76
-11.70
-10.05
-9.46
-9.15
-8.42
-6.97
-5.07
-3.30
-2.22
-2.02
-2.47
-3.01
-3.14
-2.70
-2.02
-1.82
-2.83
-5.45
-9.54
-14.48
-19.55
-24.24
-28.41
-32.22
-35.78
-38.87
-40.85
-40.82
-38.17
-33.01
-26.46
-20.42
-16.92
-17.31
-21.72
-28.89
-36.76
-43.31
-47.30
-48.64
-48.00
-46.28
-43.93
-40.76
-36.21
-29.85
-21.89
-13.24
-5.06
1.79
7.28
12.20
17.75
24.75
33.20
42.16
50.31
56.65
60.94
63.63
65.29
65.97
64.90
61.02
53.73
43.65
32.62
23.09
17.10
15.43
17.46
21.61
26.15
29.83
32.16
33.24
33.34
32.54
30.67
27.52
23.16
18.27
14.08
12.05
13.14
17.12
22.38
26.43
27.15
24.24
20.03
18.88
25.36
41.52
65.38
91.08
111.39
120.81
118.11
106.58
91.90
79.51
72.30
70.53
73.24
79.66
89.36
101.22
112.16
116.85
110.16
88.80
53.46
8.72
-38.72
-82.47
-118.50
-145.69
-165.66
-180.00
-190.52
-197.94
-201.81
-200.54
-191.81
-173.38
-143.51
-102.08
-48.05
17.95
93.55
173.53
249.32
310.20
346.23
351.84
327.13
280.64
223.21
164.85
111.43
64.01
20.62
-21.00
-54.71
-86.51
-113.58
-135.62
-154.64
-174.40
-198.95
-231.44
-273.56
-325.32
-386.11
-451.18
-514.40
-567.82
-603.38
-615.35
-602.24
-567.28
-516.90
-459.02
-398.44
-338.26
-279.70
-223.45
-170.45
-121.76
-77.72
-37.12
2.24
44.03
90.41
141.26
193.78
243.03
283.61
311.52
325.41
326.50
318.29
304.32
286.90
266.63
242.98
215.47
184.75
152.82
122.42
96.12
75.15
59.13
46.35
34.43
20.99
4.15
-17.16
-42.95
-71.67
-99.97
-123.11
-136.09
-135.36
-120.34
-93.72
-60.50
-25.98
5.94
33.61
57.02
76.77
93.12
106.03
115.80
123.65
131.48
140.94
152.33
164.21
173.92
178.88
177.61
170.24
158.19
143.52
128.24
113.96
101.70
91.80
83.97
77.50
71.54
65.55
59.59
54.21
50.05
47.37
45.85
44.73
43.24
40.94
37.89
34.41
30.76
27.05
23.23
19.38
15.81
12.96
11.23
10.75
11.22
12.07
12.72
12.86
12.48
11.67
10.41
8.34
4.81
-0.79
-8.63
-17.99
-27.31
-34.56
-37.79
-35.84
-28.75
-17.77
-4.95
7.72
18.96
28.58
37.44
46.79
57.53
69.71
82.41
94.12
103.37
109.22
111.47
110.42
106.45
99.77
90.47
78.71
65.06
50.47
36.14
23.07
11.75
2.01
-6.78
-15.26
-23.74
-32.00
-39.29
-44.82
-48.18
-49.62
-49.98
-50.31
-51.35
-53.21
-55.38
-57.12
-58.14
-58.79
-59.95
-62.41
-66.39
-71.36
-76.30
-80.33
-83.25
-85.55
-88.06
-91.34
-95.25
-99.16
-102.35
-104.56
-106.23
-108.20
-111.15
-114.98
-118.68
-120.62
-119.16
-113.27
-102.98
-89.30
-73.91
-58.66
-45.10
-34.18
-26.10
-20.36
-16.06
-12.21
-8.21
-3.99
-0.14
2.46
3.04
1.31
-2.40
-7.22
-11.96
-15.41
-16.58
-14.82
-9.97
-2.58
5.99
13.61
17.94
17.45
12.34
4.94
-0.92
-1.44
5.38
18.71
35.09
49.93
59.40
61.77
57.78
49.95
41.31
34.55
31.52
33.34
40.33
51.99
66.76
82.04
94.57
101.41
101.03
94.20
83.82
73.84
67.48
65.72
66.92
67.85
65.59
59.07
49.42
38.95
29.57
21.68
14.30
6.12
-3.27
-13.01
-21.64
-28.30
-33.44
-38.54
-45.20
-53.86
-63.34
-71.12
-74.40
-71.40
-62.20
-48.83
-34.70
-23.33
-17.21
-16.92
-21.15
-27.36
-32.85
-35.52
-34.41
-29.43
-21.18
-10.47
1.82
14.76
27.41
38.87
48.33
55.13
58.90
59.60
57.65
53.72
48.66
43.19
37.62
31.78
25.11
17.01
7.09
-4.48
-16.97
-29.21
-39.88
-47.80
-52.29
-53.29
-51.44
-47.85
-43.69
-39.75
-36.12
-32.10
-26.34
-17.22
-3.33
16.06
40.67
69.10
99.01
127.73
152.97
173.49
189.44
202.16
213.37
224.12
233.82
239.88
238.30
225.19
198.28
157.94
107.23
50.60
-7.76
-65.37
-122.00
-179.38
-240.05
-305.84
-376.22
-447.26
-511.78
-560.86
-586.56
-584.66
-556.21
-507.11
-445.63
-379.39
-313.18
-248.52
-184.89
-121.49
-58.46
2.96
60.94
113.68
159.57
197.08
224.66
241.19
246.48
241.63
229.04
211.80
192.82
174.22
157.18
142.32
130.06
120.81
114.78
111.73
110.82
110.88
110.99
110.85
110.76
111.07
111.58
111.34
108.99
103.56
95.05
84.57
73.80
64.22
56.55
50.61
45.60
40.49
34.47
27.29
19.38
11.85
6.17
3.57
4.43
7.94
12.36
15.85
17.24
16.53
14.57
12.22
9.65
5.92
-0.46
-10.67
-24.72
-41.22
-57.81
-71.96
-81.99
-87.45
-89.22
-88.84
-87.89
-87.38
-87.47
-87.68
-87.40
-86.34
-84.78
-83.23
-81.99
-80.68
-78.27
-73.51
-65.75
-55.45
-44.15
-33.82
-25.95
-20.96
-18.09
-16.11
-14.08
-11.84
-9.99
-9.24
-9.72
-10.65
-10.55
-8.00
-2.42
5.55
14.24
21.80
27.04
29.87
31.26
32.49
34.41
36.97
39.38
40.77
40.77
39.86
39.08
39.36
40.84
42.74
43.74
42.79
39.67
35.15
30.53
26.84
24.28
22.15
19.34
15.09
9.45
3.29
-2.10
-5.69
-7.23
-7.25
-6.79
-6.72
-7.37
-8.48
-9.38
-9.55
-8.87
-7.77
-6.91
-6.77
-7.31
-8.00
-8.08
-7.01
-4.79
-2.01
0.45
1.82
1.86
0.87
-0.44
-1.43
-1.84
-1.93
-2.23
-3.19
-4.80
-6.55
-7.68
-7.65
-6.49
-4.86
-3.72
-3.80
-5.18
-7.30
-9.18
-10.05
-9.66
-8.46
-7.35
-7.19
-8.41
-10.86
-13.77
-16.23
-17.48
-17.28
-15.90
-13.93
-11.92
-10.07
-8.23
-6.07
-3.50
-0.87
1.08
1.65
0.61
-1.58
-3.88
-5.18
-4.90
-3.24
-1.08
0.60
1.19
0.72
-0.22
-0.95
-1.15
-0.91
-0.68
-0.83
-1.44
-2.23
-2.72
-2.56
-1.85
-1.07
-0.84
-1.57
-3.17
-5.07
-6.44
-6.54
-5.15
-2.71
-0.15
1.50
1.69
0.60
-0.89
-1.62
-0.58
2.46
6.89
11.63
15.71
18.73
21.01
23.17
25.58
28.51
31.66
34.61
37.12
39.40
42.00
45.34
49.28
52.92
55.92
58.10
59.75
61.44
63.83
67.28
71.63
76.15
79.75
82.83
86.16
90.59
96.53
103.76
111.55
118.98
125.32
130.27
135.95
144.72
158.17
176.14
196.59
216.64
233.81
247.16
246.13
225.06
183.57
127.41
65.67
6.38
-45.95
-89.96
-125.69
-153.56
-172.36
-181.66
-182.53
-177.60
-170.17
-162.91
-157.00
-152.32
-148.21
-142.91
-135.58
-126.43
-116.56
-107.21
-99.06
-91.98
-85.46
-79.26
-72.92
-66.47
-60.22
-54.46
-49.17
-44.09
-38.92
-33.69
-29.00
-25.24
-22.61
-20.82
-19.23
-17.26
-14.48
-11.34
-8.60
-7.08
-7.11
-8.40
-10.23
-11.79
-12.52
-12.36
-11.71
-11.07
-10.82
-10.98
-11.18
-10.89
-9.65
-7.43
-4.63
-1.91
0.11
1.17
1.53
2.03
3.84
7.97
14.78
23.74
33.45
42.25
48.78
52.56
54.01
54.22
54.26
54.87
56.29
58.51
61.46
65.20
69.77
74.92
80.34
84.96
87.52
87.10
83.64
77.86
71.17
64.95
59.96
56.05
52.15
46.98
39.66
30.15
19.21
8.06
-2.23
-11.07
-18.47
-24.80
-30.44
-35.72
-40.87
-46.30
-52.75
-61.13
-72.20
-86.00
-101.69
-117.56
-131.56
-141.96
-147.98
-149.84
-148.48
-144.94
-139.82
-133.06
-124.09
-112.28
-97.53
-80.52
-62.56
-45.17
-29.52
-16.07
-4.42
6.31
17.01
28.07
39.09
49.14
57.14
62.30
64.42
63.74
60.74
55.82
49.32
41.70
33.82
26.86
22.15
20.61
22.38
26.72
32.34
38.00
43.09
47.76
52.84
59.22
67.34
76.85
86.78
95.96
103.58
109.45
113.95
117.57
120.48
122.52
123.31
122.82
121.49
119.98
118.57
116.66
112.67
104.72
91.50
72.95
50.49
26.33
2.72
-18.85
-37.98
-55.19
-71.36
-87.14
-102.62
-117.22
-129.91
-139.70
-146.07
-149.20
-149.83
-148.80
-146.61
-143.32
-138.56
-132.10
-124.27
-116.02
-108.68
-103.29
-100.00
-97.93
-95.52
-91.21
-84.39
-75.61
-66.22
-57.52
-49.93
-42.80
-34.89
-25.35
-14.50
-3.89
4.42
8.98
9.68
7.69
4.70
1.93
-0.53
-3.56
-8.43
-15.79
-25.25
-35.30
-43.85
-48.94
-49.48
-45.52
-38.23
-29.40
-20.83
-13.66
-8.16
-3.76
0.43
5.05
10.19
15.40
20.15
24.22
27.90
31.64
35.46
38.55
39.37
36.37
28.80
17.20
3.20
-11.25
-24.76
-36.96
-48.40
-59.90
-71.94
-84.48
-97.31
-110.60
-125.18
-142.19
-162.22
-184.40
-206.19
-224.10
-235.13
-238.12
-234.36
-226.80
-218.34
-210.05
-200.52
-186.66
-165.49
-136.02
-100.04
-61.48
-24.82
6.55
31.05
48.70
60.14
65.84
65.89
60.65
51.50
41.18
33.10
30.00
32.71
39.74
48.11
54.92
58.73
60.03
60.51
61.79
64.48
68.16
72.00
75.67
79.61
84.76
91.84
100.81
110.86
120.80
129.55
136.31
140.54
141.91
140.29
135.88
129.27
121.23
112.53
103.65
94.86
86.37
78.49
71.51
65.42
59.66
53.15
44.74
34.06
22.21
11.66
5.47
6.01
13.80
27.19
43.06
58.18
70.73
80.90
90.54
101.96
116.46
133.34
150.01
163.00
169.35
167.70
158.61
143.94
125.80
105.67
84.21
61.70
38.67
16.28
-4.02
-21.24
-35.38
-47.41
-58.66
-69.86
-80.50
-88.99
-93.36
-92.21
-85.52
-74.79
-62.55
-51.60
-44.07
-40.74
-40.96
-43.11
-45.47
-47.22
-48.71
-51.06
-55.23
-61.09
-67.11
-70.99
-70.79
-66.05
-58.08
-49.40
-42.61
-39.30
-39.55
-42.16
-45.42
-48.01
-49.51
-50.30
-51.01
-51.93
-52.61
-51.97
-48.99
-43.41
-36.11
-28.79
-23.13
-19.89
-18.51
-17.38
-14.86
-10.17
-3.87
2.50
7.27
9.56
9.68
8.91
8.68
9.79
11.98
14.14
15.05
14.09
11.52
8.41
5.94
4.83
5.05
6.01
7.03
7.88
8.93
10.93
14.48
19.56
25.42
30.88
34.92
37.14
37.93
38.18
38.76
40.03
41.68
43.01
43.36
42.55
40.93
39.08
37.40
35.78
33.60
30.09
24.86
18.18
10.89
4.11
-1.30
-5.12
-7.75
-9.99
-12.58
-15.87
-19.77
-23.83
-27.49
-30.29
-32.01
-32.61
-32.21
-31.00
-29.22
-27.09
-24.71
-22.06
-18.91
-14.91
-9.69
-3.07
4.75
13.20
21.43
28.62
34.18
38.04
40.63
42.77
45.34
48.95
53.58
58.41
61.99
62.77
59.76
53.01
43.88
34.69
28.00
25.80
28.78
36.09
45.65
54.84
61.53
64.94
65.89
66.24
67.70
70.78
74.43
76.77
76.41
73.61
70.19
68.42
69.34
71.92
73.42
71.12
63.89
52.91
40.82
29.96
21.02
12.83
3.53
-7.90
-20.77
-32.94
-42.12
-47.20
-48.86
-49.10
-50.05
-52.89
-57.46
-62.54
-66.69
-68.94
-68.94
-66.90
-63.22
-58.32
-52.58
-46.33
-39.80
-33.17
-26.56
-20.11
-14.05
-8.52
-3.45
1.51
6.85
12.71
18.50
22.82
24.03
21.16
14.59
6.09
-2.04
-8.24
-12.41
-15.80
-19.93
-25.49
-31.79
-37.12
-39.90
-39.62
-37.14
-34.19
-32.25
-31.84
-32.57
-33.81
-35.38
-37.82
-41.99
-48.44
-56.86
-66.27
-75.48
-83.47
-89.70
-93.81
-95.42
-93.86
-88.23
-77.74
-62.02
-41.37
-16.88
9.51
35.27
57.63
74.30
84.18
87.73
86.78
83.74
80.69
78.78
78.11
78.34
79.28
81.22
84.79
90.39
97.71
105.66
112.79
118.05
121.16
122.61
123.16
123.17
122.31
119.70
114.41
106.10
95.11
82.29
68.57
54.55
40.45
26.25
11.98
-2.03
-15.25
-27.00
-36.61
-43.64
-48.04
-50.26
-51.31
-52.49
-55.10
-59.97
-67.19
-76.03
-85.45
-94.47
-102.53
-109.48
-115.27
-119.70
-122.24
-122.37
-120.05
-116.04
-111.77
-108.67
-107.42
-107.51
-107.46
-105.51
-100.62
-92.87
-83.43
-73.72
-64.69
-56.43
-48.34
-39.87
-31.12
-23.07
-17.17
-14.52
-15.18
-18.00
-21.07
-22.47
-21.12
-17.10
-11.50
-5.74
-0.95
2.42
4.62
6.14
7.31
8.00
7.69
5.85
2.31
-2.58
-7.99
-13.01
-17.09
-20.12
-22.45
-24.48
-26.39
-28.05
-29.07
-29.10
-27.98
-25.77
-22.63
-18.48
-12.93
-5.31
4.98
18.13
33.61
50.37
67.13
83.06
98.07
112.77
128.18
145.01
163.28
182.00
199.43
213.50
222.41
224.89
220.49
209.39
192.15
169.46
142.14
111.06
77.38
42.54
8.09
-24.58
-54.62
-81.86
-106.76
-130.21
-153.12
-176.33
-200.52
-226.19
-253.53
-282.18
-311.09
-338.45
-362.04
-379.70
-389.59
-390.55
-382.11
-364.58
-339.08
-307.31
-271.24
-232.68
-192.86
-152.51
-112.31
-73.36
-37.34
-6.20
18.77
37.65
52.03
64.27
76.35
88.87
100.86
110.42
115.79
116.15
111.89
104.24
94.72
84.58
74.63
65.36
57.09
50.16
44.86
41.28
39.11
37.72
36.31
34.34
31.83
29.37
27.92
28.31
30.71
34.51
38.57
41.80
43.67
44.44
45.16
47.10
51.24
57.93
66.67
76.51
86.44
95.85
104.67
113.10
121.00
127.50
131.04
130.04
123.76
112.90
99.55
86.31
75.16
66.75
60.40
54.91
49.42
43.98
39.38
36.45
35.30
35.14
34.56
32.31
27.92
21.85
15.11
8.66
2.70
-3.39
-10.73
-20.22
-31.78
-44.23
-55.54
-63.71
-67.65
-67.63
-65.06
-61.77
-59.19
-57.86
-57.57
-57.89
-58.82
-60.98
-65.26
-72.04
-80.61
-89.15
-95.21
-96.73
-92.94
-84.57
-73.45
-61.62
-50.42
-40.06
-29.82
-18.78
-6.62
5.96
17.53
26.66
32.69
36.07
38.10
40.19
43.11
46.63
49.71
51.27
50.76
48.50
45.49
42.87
41.29
40.68
40.35
39.56
37.94
35.64
33.17
30.92
28.84
26.43
23.14
19.01
14.86
12.10
12.12
15.50
21.72
29.39
36.89
43.14
47.84
51.30
53.98
56.12
57.61
58.15
57.65
56.34
54.71
53.26
52.26
51.58
50.78
49.19
46.10
41.07
34.09
25.74
17.12
9.57
4.21
1.53
1.19
2.22
3.45
3.90
3.21
1.51
-0.84
-3.63
-7.05
-11.46
-17.06
-23.53
-30.01
-35.44
-39.12
-41.13
-42.33
-43.79
-46.20
-49.37
-52.38
-54.17
-54.26
-53.05
-51.59
-50.76
-50.69
-50.45
-48.60
-43.91
-36.22
-26.53
-16.59
-7.92
-1.20
3.98
8.64
13.62
18.97
23.83
26.98
27.56
25.66
22.29
19.00
17.12
17.25
19.16
22.04
25.04
27.60
29.56
31.04
32.11
32.61
32.11
30.15
26.53
21.57
16.08
11.13
7.62
5.82
5.25
4.88
3.69
1.12
-2.60
-6.56
-9.63
-10.99
-10.49
-8.63
-6.27
-4.03
-2.09
-0.10
2.52
6.04
10.18
14.11
16.83
17.74
16.95
15.33
14.01
13.83
14.91
16.71
18.53
20.01
21.43
23.56
27.11
32.21
38.14
43.69
47.80
50.17
51.35
52.43
54.33
57.19
60.34
62.73
63.61
63.12
62.17
62.03
63.52
66.58
70.28
73.30
74.72
74.48
73.29
72.18
71.84
72.19
72.46
71.68
69.31
65.54
61.29
57.71
55.56
54.70
54.04
52.01
47.20
39.13
28.49
17.00
6.70
-0.70
-4.44
-4.86
-3.08
-0.52
1.61
2.62
2.30
0.55
-2.82
-8.25
-16.16
-26.63
-39.16
-52.74
-66.19
-78.73
-90.16
-100.88
-111.33
-121.59
-131.14
-139.10
-144.81
-148.23
-149.99
-150.88
-151.13
-150.11
-146.48
-138.91
-126.98
-111.67
-95.21
-80.28
-68.92
-61.83
-58.30
-56.70
-55.35
-53.23
-50.17
-46.56
-42.80
-38.99
-34.90
-30.29
-25.26
-20.41
-16.57
-14.34
-13.53
-13.06
-11.28
-6.70
1.26
11.81
23.01
32.55
38.82
41.71
42.58
43.71
46.97
52.81
59.95
65.98
68.69
67.33
63.20
59.15
58.29
62.53
72.00
85.26
100.41
116.17
132.36
149.79
169.84
194.16
224.64
263.19
310.82
366.35
425.24
479.82
521.22
542.35
540.53
518.33
482.19
439.60
396.43
355.80
318.51
284.52
254.10
228.05
207.16
191.38
179.63
170.26
161.93
154.25
147.97
144.48
144.95
149.69
157.78
167.36
176.20
182.39
184.83
183.33
178.31
170.36
159.82
146.63
130.48
111.13
88.72
63.96
38.04
12.34
-11.92
-33.95
-53.53
-70.89
-86.46
-100.72
-113.97
-126.27
-137.57
-147.68
-156.45
-163.75
-169.48
-173.57
-176.02
-176.93
-176.49
-175.01
-172.78
-170.04
-166.90
-163.34
-159.26
-154.59
-149.38
-143.84
-138.27
-133.03
-128.29
-124.03
-120.01
-115.93
-111.61
-107.21
-103.22
-100.28
-98.92
-99.19
-100.51
-101.78
-101.75
-99.61
-95.46
-90.45
-86.44
-85.31
-88.15
-94.79
-103.88
-113.61
-122.76
-131.50
-141.62
-155.86
-176.72
-205.10
-239.62
-277.10
-313.69
-346.54
-374.97
-400.61
-426.74
-456.93
-494.04
-539.38
-591.79
-647.28
-698.84
-737.25
-753.00
-739.66
-697.21
-633.52
-562.49
-499.19
-453.90
-428.12
-414.77
-402.25
-380.26
-344.13
-295.46
-239.50
-181.24
-122.83
-63.48
-1.71
62.51
126.57
186.57
239.78
286.85
332.43
383.24
444.90
517.95
595.93
666.73
716.48
735.09
720.11
677.05
616.34
549.07
483.89
426.61
381.34
351.38
338.62
341.64
354.57
368.16
373.18
364.09
341.06
308.81
273.42
239.42
208.34
179.65
152.59
127.37
105.01
86.23
70.42
55.58
39.31
19.75
-3.47
-28.92
-54.21
-77.04
-96.26
-112.43
-127.61
-144.40
-164.86
-189.50
-217.06
-245.28
-271.87
-295.67
-317.26
-338.62
-362.57
-392.13
-430.03
-478.19
-536.82
-603.39
-671.96
-733.90
-780.04
-803.71
-803.20
-782.11
-747.68
-707.64
-667.48
-629.40
-593.12
-557.68
-522.83
-489.30
-457.97
-428.92
-401.10
-372.87
-343.04
-311.56
-279.59
-249.04
-221.60
-198.01
-177.82
-159.75
-142.24
-124.26
-105.63
-87.06
-69.69
-54.56
-42.07
-31.96
-23.37
-15.32
-7.16
1.29
9.70
17.48
24.09
29.34
33.37
36.63
39.59
42.59
45.73
48.89
51.79
54.20
56.02
57.25
58.04
58.53
58.85
59.06
59.18
59.19
59.11
58.95
58.76
58.59
58.50
58.51
58.65
58.93
59.31
59.81
60.37
60.97
61.57
62.14
62.65
63.08
63.40
63.61
63.70
63.68
63.55
63.33
63.03
62.67
62.26
61.82
61.34
60.83
60.29
59.70
59.06
58.39
57.69
57.00
56.33
55.67
55.01
54.32
53.60
52.86
52.12
51.47
50.94
50.59
50.44
50.49
50.70
51.05
51.56
52.28
53.26
54.57
56.22
58.18
60.33
62.52
64.63
66.63
68.59
70.69
73.12
75.99
79.27
82.78
86.29
89.61
92.73
95.88
99.48
103.94
109.50
116.13
123.45
130.97
138.28
145.31
152.38
160.11
169.17
179.94
192.39
206.06
220.30
234.56
248.63
262.64
277.05
292.53
309.94
330.22
354.02
381.01
409.32
435.36
454.60
462.99
458.47
441.85
416.43
386.62
356.29
327.66
301.24
276.62
253.40
231.71
211.88
193.90
177.07
160.21
142.40
123.64
104.99
88.15
74.58
64.65
57.48
51.33
44.46
35.89
25.71
14.82
4.35
-4.85
-12.49
-18.66
-23.51
-26.98
-28.79
-28.61
-26.42
-22.69
-18.25
-14.00
-10.42
-7.42
-4.41
-0.70
4.00
9.36
14.54
18.60
21.05
21.96
21.98
21.87
22.09
22.59
22.93
22.63
21.52
19.87
18.30
17.41
17.42
17.96
18.26
17.45
15.08
11.30
6.89
2.92
0.24
-0.95
-1.15
-1.31
-2.27
-4.36
-7.17
-9.82
-11.44
-11.67
-10.88
-9.91
-9.63
-10.46
-12.23
-14.24
-15.72
-16.28
-16.06
-15.61
-15.64
-16.56
-18.47
-21.09
-24.13
-27.46
-31.07
-34.90
-38.43
-40.70
-40.62
-37.45
-31.34
-23.49
-15.75
-9.92
-7.02
-6.92
-8.54
-10.28
-10.70
-8.91
-4.77
1.22
8.26
15.46
22.13
27.93
32.74
36.52
39.25
40.82
41.27
40.92
40.43
40.55
41.76
43.90
46.12
47.18
46.11
42.70
37.64
32.21
27.71
24.86
23.65
23.57
24.14
25.22
27.23
30.81
36.40
43.91
52.63
61.56
69.91
77.40
84.34
91.48
99.41
108.29
117.73
126.93
135.10
141.72
146.63
149.80
151.07
150.02
146.02
138.48
127.17
112.29
94.37
73.96
51.34
26.33
-1.52
-32.59
-66.73
-102.96
-139.36
-173.37
-202.36
-224.26
-237.92
-243.21
-240.83
-232.00
-218.24
-201.09
-181.95
-161.89
-141.47
-120.77
-99.47
-77.19
-53.87
-29.94
-6.30
15.91
35.68
52.43
66.23
77.66
87.59
96.80
105.64
113.92
121.13
126.79
130.71
132.92
133.51
132.39
129.37
124.34
117.62
110.03
102.82
97.32
94.55
94.98
98.33
103.51
108.71
111.67
110.21
102.86
89.18
69.73
45.65
18.10
-11.93
-43.66
-76.20
-108.57
-139.85
-169.46
-197.45
-224.27
-250.38
-275.77
-299.73
-321.17
-338.93
-352.14
-360.23
-362.75
-359.16
-348.77
-330.80
-304.60
-269.93
-227.20
-177.79
-124.30
-70.49
-20.68
21.19
52.68
73.48
85.53
92.31
97.59
104.42
114.34
127.25
141.74
155.65
166.62
172.52
171.72
163.38
147.71
126.17
101.39
76.63
55.05
38.67
27.57
19.91
12.68
3.24
-9.29
-23.43
-36.00
-43.67
-44.47
-38.69
-28.83
-18.63
-11.78
-11.21
-18.59
-34.07
-55.95
-80.28
-101.17
-112.69
-111.36
-98.06
-78.09
-59.15
-47.74
-45.61
-48.58
-47.74
-34.51
-5.04
37.84
85.63
127.82
156.30
168.51
168.20
164.16
165.44
177.91
202.61
236.19
272.89
306.56
331.82
344.98
344.82
330.81
303.07
263.00
213.91
161.05
110.68
68.19
30.54
-2.05
-27.59
-43.75
-50.12
-48.73
-42.51
-33.47
-22.81
-11.52
1.04
14.72
28.00
38.53
44.27
44.21
38.39
25.57
8.65
-9.41
-26.35
-41.06
-53.81
-65.56
-77.21
-89.03
-103.57
-121.96
-143.58
-166.34
-188.01
-207.61
-225.40
-242.07
-257.89
-277.07
-301.52
-330.74
-361.38
-389.51
-413.17
-432.77
-450.05
-466.67
-489.56
-522.50
-566.40
-617.99
-672.79
-728.15
-783.85
-841.05
-862.47
-826.53
-733.34
-606.86
-475.56
-355.53
-248.32
-148.41
-51.21
42.71
116.58
165.09
186.79
186.61
173.57
156.38
140.69
128.84
121.33
113.97
103.62
89.59
74.56
62.23
54.65
51.81
52.55
55.96
59.00
60.53
60.22
59.41
59.88
62.72
68.28
76.87
89.20
104.71
123.20
143.77
165.56
187.71
209.46
230.62
251.81
274.19
298.03
322.69
345.93
364.82
376.73
380.39
376.64
368.38
359.89
355.65
359.29
372.17
392.53
415.08
431.80
434.17
416.57
379.09
328.51
276.13
233.52
207.78
198.69
199.16
198.38
186.45
158.27
115.38
65.15
17.83
-17.15
-34.27
-33.23
-18.31
3.92
27.12
46.84
60.87
68.75
71.11
69.35
65.68
63.05
64.49
72.08
85.95
104.09
123.07
139.14
149.24
151.57
145.93
133.74
117.83
101.58
87.81
77.49
69.21
59.82
45.96
25.82
0.15
-28.09
-55.26
-78.81
-98.61
-116.99
-137.54
-163.40
-195.78
-233.62
-274.05
-313.76
-350.38
-383.19
-413.33
-443.31
-476.16
-514.19
-557.67
-603.72
-646.27
-677.17
-688.65
-675.96
-639.05
-582.54
-513.66
-439.50
-364.83
-291.44
-219.05
-146.90
-74.87
-3.77
65.06
130.33
190.82
245.17
291.79
329.25
356.95
375.41
386.35
391.81
393.31
391.41
386.09
377.51
366.77
356.00
347.71
343.66
344.16
348.25
354.40
361.51
369.38
378.33
388.47
399.10
408.82
416.01
419.41
418.33
412.26
400.48
381.88
355.52
321.26
280.37
235.41
189.56
145.78
106.18
71.89
43.39
20.65
3.24
-9.76
-19.72
-28.27
-36.78
-45.93
-55.70
-65.69
-75.52
-85.43
-96.28
-109.36
-125.87
-146.37
-170.63
-197.78
-226.68
-256.37
-286.40
-316.81
-347.96
-380.68
-416.02
-455.01
-497.93
-543.41
-587.62
-624.53
-647.25
-650.15
-630.90
-591.28
-536.62
-473.87
-409.55
-348.44
-293.45
-246.32
-208.11
-179.07
-157.81
-140.91
-123.52
-101.27
-72.26
-38.06
-3.03
27.80
50.93
65.75
74.04
78.69
82.26
85.87
89.16
90.71
88.82
82.29
71.33
57.85
45.21
37.09
36.12
42.78
55.35
70.72
85.76
98.54
108.45
115.78
120.78
122.90
120.99
113.90
101.38
84.69
66.41
49.72
37.36
30.71
29.69
33.32
40.62
51.24
65.32
82.82
102.71
122.69
139.63
150.48
153.26
147.51
134.31
116.01
95.70
76.59
61.29
51.29
46.43
44.84
43.36
38.50
27.75
10.84
-9.71
-28.85
-40.18
-37.79
-17.76
20.39
72.90
131.92
187.28
229.71
254.00
260.84
255.57
244.73
232.01
216.13
192.08
154.83
103.15
40.97
-24.38
-86.11
-141.32
-191.65
-241.37
-294.60
-353.35
-417.26
-484.17
-550.51
-611.41
-660.78
-692.58
-702.56
-689.95
-658.15
-613.45
-562.70
-511.14
-461.55
-414.76
-370.88
-330.26
-293.49
-260.69
-230.88
-202.04
-171.96
-139.24
-103.99
-67.65
-32.46
-0.36
27.72
52.13
74.33
96.22
119.50
145.03
172.64
201.32
229.72
256.82
282.38
307.10
332.33
359.49
389.55
422.85
459.36
499.07
541.97
587.43
633.30
675.42
708.35
727.28
730.12
718.47
696.46
668.41
636.42
599.96
557.50
509.25
458.75
412.12
375.04
349.48
332.17
315.82
292.64
257.86
211.68
158.59
104.90
55.84
13.71
-22.27
-54.82
-87.05
-121.14
-157.97
-197.69
-240.05
-284.31
-328.08
-366.30
-391.78
-397.61
-381.15
-346.98
-306.73
-275.02
-262.86
-272.13
-294.03
-313.21
-315.04
-292.29
-247.26
-188.59
-125.36
-62.44
0.04
63.42
125.89
180.68
218.04
230.02
214.87
178.29
130.18
79.52
30.49
