1594313953.00
64.000000
-0.00
-0.00
-0.00
-0.00
-0.00
-0.00
-0.00
-0.00
-0.00
-0.00
0.00
0.01
0.01
-0.00
-0.03
-0.05
-0.05
0.00
0.13
0.36
0.66
1.01
1.37
1.72
2.06
2.40
2.79
3.24
3.80
4.42
5.06
5.66
6.20
6.68
7.15
7.68
8.31
9.14
10.09
11.04
11.88
12.56
13.14
13.76
14.65
15.96
17.91
20.32
22.90
25.38
27.58
29.57
31.68
34.32
37.81
42.54
48.15
54.10
59.83
64.97
69.58
74.14
79.34
85.71
93.76
103.00
112.62
121.73
129.77
136.75
143.30
150.75
157.77
166.64
177.95
191.79
206.97
220.57
228.25
225.36
208.53
176.87
132.76
80.05
23.07
-34.95
-92.44
-149.16
-205.22
-260.34
-313.70
-363.84
-409.84
-450.99
-486.69
-516.04
-537.62
-549.68
-550.44
-538.85
-514.69
-479.19
-434.46
-383.12
-327.79
-270.68
-213.49
-157.48
-103.74
-53.17
-6.79
34.50
70.09
99.76
123.73
142.55
156.91
167.43
174.61
178.72
180.02
178.82
175.56
170.77
164.97
158.54
151.64
144.22
136.20
127.58
118.54
109.46
100.77
92.74
85.40
78.44
71.45
64.04
56.15
48.04
40.25
33.28
27.39
22.46
18.08
13.78
9.23
4.26
-1.23
-7.31
-13.83
-20.06
-24.50
-25.22
-20.58
-10.21
4.55
20.97
35.94
47.15
53.72
56.14
55.51
52.80
48.53
42.93
36.43
29.83
24.27
20.60
19.07
19.08
19.52
19.12
17.13
13.70
9.96
7.50
7.61
10.47
14.87
18.70
19.96
17.80
12.97
7.38
3.02
0.92
0.75
1.21
0.92
-0.74
-3.36
-5.96
-7.59
-7.87
-7.09
-5.85
-4.72
-3.99
-3.58
-3.29
-2.91
-2.45
-2.00
-1.76
-1.92
-2.53
-3.54
-4.78
-5.99
-6.92
-7.38
-7.25
-6.54
-5.37
-3.93
-2.44
-1.05
0.18
1.30
2.43
3.66
4.99
6.32
7.46
8.29
8.81
9.13
9.42
9.78
10.21
10.63
10.98
11.27
11.63
12.18
12.95
13.76
14.34
14.41
13.81
12.59
10.92
8.97
6.84
4.57
2.04
-0.79
-3.79
-6.77
-9.50
-11.78
-13.53
-14.75
-15.54
-16.00
-16.20
-16.16
-15.87
-15.34
-14.60
-13.67
-12.62
-11.46
-10.17
-8.73
-7.16
-5.55
-4.07
-2.85
-1.99
-1.49
-1.23
-1.10
-1.00
-0.90
-0.82
-0.78
-0.82
-0.92
-1.04
-1.15
-1.20
-1.18
-1.09
-0.92
-0.73
-0.55
-0.37
-0.18
0.07
0.41
0.80
1.17
1.42
1.47
1.30
0.99
0.62
0.26
-0.02
-0.22
-0.33
-0.35
-0.25
-0.06
0.18
0.34
0.28
-0.03
-0.64
-1.54
-2.63
-3.73
-4.61
-5.04
-4.86
-4.03
-2.59
-0.73
1.38
3.60
5.81
7.96
9.98
11.83
13.46
14.84
15.96
16.83
17.48
17.92
18.15
18.17
17.94
17.43
16.65
15.64
14.52
13.47
12.64
12.11
11.83
11.61
11.19
10.37
9.04
7.32
5.44
3.66
2.17
0.99
-0.02
-1.04
-2.24
-3.66
-5.22
-6.80
-8.25
-9.54
-10.67
-11.71
-12.69
-13.65
-14.62
-15.62
-16.68
-17.78
-18.84
-19.71
-20.18
-20.12
-19.49
-18.38
-17.02
-15.69
-14.59
-13.84
-13.37
-13.05
-12.74
-12.41
-12.10
-11.90
-11.82
-11.74
-11.48
-10.89
-9.93
-8.76
-7.61
-6.69
-6.11
-5.83
-5.71
-5.61
-5.42
-5.12
-4.74
-4.40
-4.20
-4.27
-4.67
-5.38
-6.34
-7.42
-8.48
-9.45
-10.28
-10.97
-11.58
-12.18
-12.87
-13.77
-14.94
-16.35
-17.84
-19.12
-19.89
-19.87
-18.90
-16.98
-14.31
-11.18
-7.94
-4.84
-2.00
0.59
3.05
5.50
8.02
10.49
12.67
14.32
15.39
16.08
16.69
17.50
18.58
19.87
20.97
21.45
21.12
20.20
19.20
18.69
19.02
20.16
21.91
23.48
23.91
22.61
19.80
16.45
13.78
12.78
13.72
16.58
20.01
22.01
20.97
16.72
10.65
5.26
3.17
6.13
15.19
28.25
40.43
45.99
40.60
23.01
-4.90
-39.01
-73.74
-100.23
-112.29
-110.60
-102.22
-96.09
-97.85
-107.55
-119.87
-128.86
-123.45
-96.23
-46.88
18.04
87.33
149.09
194.44
219.98
215.15
179.60
123.47
62.63
10.74
-26.68
-51.61
-69.53
-85.28
-100.51
-110.99
-110.75
-98.26
-73.87
-41.28
-5.89
26.82
52.79
70.51
78.77
80.18
78.18
74.58
68.72
59.51
47.18
33.84
22.55
16.64
17.60
23.79
31.88
38.32
41.15
40.09
35.47
27.54
16.69
3.90
-9.76
-22.81
-33.88
-41.88
-46.47
-48.49
-48.62
-47.30
-44.38
-39.77
-33.91
-27.85
-22.94
-20.26
-20.31
-22.81
-26.83
-30.76
-33.00
-32.60
-29.64
-25.15
-20.39
-16.78
-15.27
-15.91
-17.52
-18.25
-16.67
-12.59
-7.25
-2.13
0.84
0.14
-4.31
-11.15
-17.34
-19.83
-16.73
-8.02
5.66
21.53
34.64
39.63
33.18
15.92
-7.04
-27.02
-34.00
-18.61
22.11
82.35
149.38
208.26
246.93
259.50
247.00
206.68
145.76
78.69
19.48
-25.59
-57.58
-79.81
-94.15
-100.83
-100.18
-92.65
-81.21
-70.57
-64.55
-64.28
-68.05
-72.54
-74.90
-73.92
-68.79
-60.63
-51.87
-44.79
-40.76
-40.23
-43.37
-50.11
-59.27
-66.86
-67.50
-56.43
-32.29
2.55
41.25
74.97
96.37
102.60
96.64
84.77
72.10
63.66
60.69
61.83
64.81
67.02
65.35
56.23
36.24
4.55
-34.76
-73.33
-100.95
-110.15
-100.19
-77.67
-53.43
-37.47
-34.29
-41.35
-51.49
-56.69
-51.81
-36.40
-14.38
9.06
28.62
40.86
45.04
42.34
35.17
26.15
17.40
10.33
6.09
5.58
9.17
15.95
23.37
28.09
27.46
21.11
11.58
3.10
-0.61
1.19
5.63
7.92
4.01
-7.45
-24.64
-43.72
-60.75
-72.79
-79.47
-82.65
-84.76
-87.27
-90.26
-92.92
-94.41
-94.63
-93.34
-90.91
-87.73
-83.09
-75.03
-61.23
-40.21
-11.58
24.49
67.10
113.64
159.25
197.31
221.14
226.80
215.85
196.39
172.59
155.91
156.39
173.91
196.86
209.37
200.18
167.08
116.07
57.32
1.96
-42.90
-75.17
-96.04
-107.89
-112.88
-112.36
-107.28
-98.79
-88.03
-77.59
-70.67
-69.05
-71.81
-75.92
-78.00
-76.03
-70.44
-63.11
-57.04
-54.42
-55.04
-55.84
-52.73
-42.89
-26.37
-6.32
12.68
26.34
32.20
30.27
22.87
13.11
3.53
-4.32
-9.95
-13.40
-15.01
-15.24
-14.47
-12.65
-9.88
-6.54
-2.93
0.64
3.84
6.26
7.39
6.55
3.87
-0.84
-8.03
-17.25
-27.67
-38.43
-48.50
-56.49
-60.70
-58.21
-47.84
-31.16
-10.40
11.16
29.56
41.56
45.64
39.94
26.97
10.40
-6.05
-16.12
-13.90
3.97
37.72
84.72
140.12
199.71
256.44
300.64
325.90
328.78
309.03
270.43
220.05
155.77
88.42
37.89
1.59
-28.00
-55.81
-85.41
-118.74
-156.08
-195.79
-231.96
-258.43
-270.33
-262.07
-232.12
-185.64
-132.66
-83.98
-46.72
-20.75
-2.96
9.27
18.31
23.14
19.76
4.73
-21.59
-54.06
-83.32
-101.33
-103.33
-86.98
-53.59
-7.51
46.22
103.38
160.44
213.74
256.22
280.42
281.99
260.52
219.25
164.44
103.30
41.38
-18.57
-78.45
-138.36
-193.83
-237.63
-264.30
-272.17
-263.90
-245.34
-223.84
-209.20
-206.23
-213.03
-223.43
-231.26
-231.25
-219.64
-195.11
-140.27
-59.33
25.32
92.65
137.65
164.61
178.22
179.43
167.16
141.62
103.53
59.00
15.76
-19.17
-45.42
-66.40
-84.86
-99.07
-104.51
-100.07
-86.79
-67.69
-41.49
-13.02
13.19
36.15
59.93
87.80
116.50
138.49
145.41
133.65
102.35
55.29
0.78
-46.76
-74.69
-77.53
-56.17
-15.01
43.17
112.81
185.83
252.15
305.84
340.59
349.55
329.37
265.37
166.85
61.64
-18.17
-76.30
-121.39
-160.07
-194.94
-224.75
-244.19
-244.41
-222.08
-181.94
-133.72
-80.69
-23.99
34.74
92.28
144.06
185.79
210.95
212.82
175.98
105.29
23.96
-42.77
-83.87
-102.25
-108.03
-108.27
-106.09
-102.53
-93.89
-78.36
-56.68
-32.78
-9.28
13.46
33.66
48.18
54.92
56.81
57.29
57.43
55.98
51.76
44.76
36.32
28.23
22.22
20.56
23.74
30.20
37.34
43.10
45.71
43.47
34.78
19.26
-0.85
-21.38
-37.77
-46.92
-48.00
-42.91
-35.26
-28.83
-26.26
-28.29
-34.37
-43.08
-53.00
-61.98
-68.05
-69.51
-65.31
-55.11
-39.70
-21.69
-5.51
3.09
-0.56
-17.36
-42.58
-66.86
-80.28
-77.45
-60.63
-38.21
-20.34
-12.81
-14.30
-17.67
-14.87
-1.83
19.34
42.00
59.49
68.44
70.71
71.46
75.64
85.24
98.98
113.98
125.05
130.33
130.13
126.49
120.77
112.28
98.74
78.19
50.29
16.27
-21.52
-61.00
-99.18
-133.13
-160.68
-180.82
-193.49
-199.46
-200.22
-196.88
-189.05
-172.23
-140.02
-88.07
-17.54
64.13
144.57
209.47
247.03
242.47
192.21
109.82
21.39
-48.60
-86.47
-89.65
-63.46
-18.29
32.27
75.27
99.88
99.56
74.27
31.90
-13.63
-47.91
-62.12
-56.52
-38.57
-19.58
-7.71
-6.56
-13.49
-21.08
-21.73
-12.28
4.93
24.57
40.45
50.06
55.18
59.08
62.91
63.66
55.70
34.99
3.02
-32.41
-61.50
-76.19
-73.91
-58.46
-38.02
-21.15
-12.84
-12.83
-16.77
-19.27
-17.13
-10.88
-3.81
0.23
-0.92
-6.56
-13.91
-19.64
-21.41
-18.80
-13.15
-6.56
-1.09
2.17
3.32
3.22
2.88
2.94
3.52
4.28
4.81
4.88
4.53
3.94
3.16
2.03
0.30
-2.14
-5.06
-7.93
-10.01
-10.60
-9.31
-6.29
-2.18
2.15
5.96
8.94
11.21
13.19
15.30
17.65
19.97
21.70
22.31
21.53
19.61
17.16
15.00
13.77
13.66
14.38
15.28
15.67
15.20
13.94
12.22
10.36
8.36
5.87
2.47
-2.03
-7.31
-12.60
-16.92
-19.58
-20.34
-19.53
-17.82
-15.84
-13.94
-12.11
-10.05
-7.44
-4.13
-0.25
3.83
7.62
10.65
12.63
13.46
13.26
12.27
10.89
9.53
8.65
8.59
9.58
11.55
14.22
17.09
19.54
21.07
21.39
20.55
18.97
17.19
15.67
14.65
14.05
13.52
12.64
11.09
8.82
6.02
3.06
0.32
-1.96
-3.67
-4.98
-6.13
-7.37
-8.70
-9.75
-10.03
-8.96
-6.21
-1.72
4.10
10.46
16.24
20.35
22.02
20.77
16.82
11.16
5.49
1.61
0.96
4.00
10.47
19.58
29.95
40.46
50.38
59.50
67.54
74.14
78.91
82.23
85.52
90.13
97.31
107.24
119.03
130.60
141.14
149.32
153.93
154.17
148.89
137.96
120.13
96.67
69.89
42.35
15.51
-11.00
-32.87
-49.46
-61.56
-70.80
-78.66
-86.57
-95.42
-105.44
-115.92
-125.52
-133.85
-140.97
-147.56
-154.63
-163.45
-175.22
-190.79
-210.03
-231.28
-251.89
-267.72
-274.52
-269.45
-252.60
-227.10
-198.01
-170.36
-147.44
-130.67
-119.54
-112.67
-108.70
-106.60
-105.47
-104.12
-100.96
-94.06
-81.84
-63.38
-39.01
-10.74
17.94
42.98
61.28
71.91
76.39
77.59
78.04
78.63
78.36
75.46
69.04
60.04
50.96
44.46
41.80
42.03
42.42
39.71
31.53
17.44
-0.83
-19.77
-35.24
-43.63
-43.06
-34.00
-19.32
-3.23
10.10
18.03
20.27
18.58
15.77
14.26
15.11
17.76
20.80
22.81
23.17
22.01
19.76
16.46
11.53
4.08
-6.32
-18.93
-31.86
-42.92
-50.69
-55.33
-58.61
-62.93
-70.08
-80.34
-92.24
-103.08
-109.79
-109.79
-101.48
-84.54
-60.26
-31.61
-2.90
21.58
39.25
50.53
58.33
65.98
74.51
81.35
81.46
70.61
48.63
20.49
-5.92
-23.97
-31.87
-33.36
-35.15
-43.05
-58.86
-79.92
-100.99
-116.96
-124.75
-124.01
-116.45
-104.63
-90.73
-75.76
-59.19
-39.19
-13.43
19.91
61.19
108.87
159.74
209.37
252.55
283.85
298.62
294.44
272.88
240.07
205.45
178.58
165.61
166.97
177.72
190.34
198.25
198.29
190.80
178.01
162.07
144.09
124.65
104.83
86.66
72.24
62.29
55.09
46.90
33.89
14.42
-9.76
-34.10
-53.37
-64.01
-65.51
-60.15
-51.57
-43.01
-36.30
-31.78
-28.96
-27.27
-26.48
-26.50
-27.06
-27.54
-27.16
-25.36
-22.18
-18.31
-14.74
-12.34
-11.39
-11.62
-12.42
-13.21
-13.70
-13.88
-13.94
-14.07
-14.39
-14.96
-15.79
-16.90
-18.20
-19.58
-20.93
-22.29
-23.87
-26.00
-28.92
-32.62
-36.67
-40.34
-42.83
-43.49
-42.07
-38.68
-33.67
-27.49
-20.49
-12.92
-4.98
3.06
10.77
17.62
23.10
26.93
29.16
30.12
30.25
29.84
28.93
27.38
25.07
22.09
18.81
15.70
13.08
11.03
9.31
7.60
5.67
3.49
1.20
-1.06
-3.25
-5.40
-7.63
-10.01
-12.58
-15.28
-18.02
-20.68
-23.09
-25.05
-26.40
-27.09
-27.15
-26.67
-25.73
-24.30
-22.33
-19.78
-16.73
-13.42
-10.08
-6.92
-3.98
-1.17
1.64
4.54
7.52
10.45
13.17
15.54
17.56
19.30
20.87
22.34
23.67
24.72
25.37
25.57
25.43
25.13
24.89
24.83
24.91
25.01
24.96
24.61
23.94
22.95
21.69
20.17
18.43
16.52
14.54
12.54
10.51
8.36
5.97
3.36
0.71
-1.69
-3.63
-5.06
-6.15
-7.21
-8.56
-10.38
-12.71
-15.46
-18.42
-21.23
-23.38
-24.35
-23.77
-21.63
-18.33
-14.55
-10.96
-7.98
-5.72
-4.07
-2.92
-2.21
-2.02
-2.36
-3.13
-4.13
-5.10
-5.84
-6.30
-6.50
-6.51
-6.39
-6.13
-5.67
-4.99
-4.06
-2.94
-1.72
-0.51
0.58
1.45
2.04
2.35
2.42
2.30
2.02
1.58
0.92
-0.00
-1.18
-2.59
-4.15
-5.82
-7.58
-9.43
-11.38
-13.40
-15.45
-17.43
-19.20
-20.59
-21.42
-21.53
-20.84
-19.41
-17.38
-14.97
-12.31
-9.50
-6.53
-3.41
-0.20
2.94
5.86
8.41
10.53
12.20
13.43
14.19
14.47
14.29
13.81
13.27
12.91
12.86
13.05
13.27
13.27
12.88
12.14
11.20
10.26
9.43
8.69
7.92
6.98
5.81
4.44
2.96
1.48
0.05
-1.31
-2.63
-3.95
-5.31
-6.71
-8.12
-9.54
-10.96
-12.46
-14.07
-15.84
-17.71
-19.51
-21.02
-21.99
-22.26
-21.75
-20.48
-18.52
-16.04
-13.24
-10.40
-7.84
-5.91
-4.86
-4.69
-5.13
-5.64
-5.64
-4.72
-2.85
-0.36
2.28
4.78
7.19
9.86
13.14
17.10
21.42
25.56
28.95
31.21
32.12
31.59
29.55
26.03
21.31
15.97
10.72
6.19
2.63
-0.12
-2.36
-4.33
-5.95
-6.94
-7.01
-6.07
-4.34
-2.33
-0.61
0.33
0.12
-1.35
-4.02
-7.61
-11.66
-15.60
-18.84
-20.86
-21.37
-20.33
-17.96
-14.72
-11.14
-7.72
-4.77
-2.39
-0.50
1.07
2.42
3.57
4.48
5.16
5.69
6.22
6.93
7.94
9.26
10.78
12.34
13.72
14.71
15.11
14.81
13.79
12.15
10.13
8.05
6.36
5.47
5.70
7.08
9.33
11.85
13.89
14.89
14.64
13.36
11.59
9.92
8.73
8.05
7.68
7.31
6.69
5.76
4.65
3.62
2.95
2.80
3.09
3.49
3.56
3.01
1.90
0.65
-0.09
0.21
1.80
4.47
7.73
11.02
13.89
16.09
17.51
18.05
17.63
16.24
13.99
11.14
8.10
5.28
2.98
1.26
-0.04
-1.28
-2.85
-5.01
-7.81
-11.07
-14.46
-17.64
-20.30
-22.22
-23.18
-23.02
-21.63
-19.07
-15.56
-11.54
-7.51
-3.92
-1.05
0.99
2.27
2.90
3.03
2.74
2.15
1.41
0.74
0.38
0.49
1.13
2.16
3.38
4.63
5.86
7.20
8.72
10.31
11.58
11.95
10.86
8.12
3.96
-1.00
-6.00
-10.38
-13.73
-15.83
-16.66
-16.22
-14.63
-12.12
-9.02
-5.74
-2.60
0.24
2.77
5.10
7.22
8.95
9.90
9.58
7.58
3.82
-1.46
-7.72
-14.29
-20.52
-25.88
-29.91
-32.17
-32.22
-29.78
-24.81
-17.74
-9.42
-1.01
6.32
11.57
14.11
13.70
10.47
4.86
-2.36
-10.17
-17.42
-23.06
-26.43
-27.40
-26.39
-24.16
-21.61
-19.47
-18.06
-17.31
-16.73
-15.57
-13.05
-8.58
-1.95
6.51
16.08
25.75
34.52
41.56
46.35
48.60
48.24
45.38
40.32
33.56
25.83
17.90
10.43
3.82
-1.96
-7.23
-12.45
-17.95
-23.68
-29.26
-34.05
-37.52
-39.43
-39.98
-39.63
-38.88
-38.01
-36.93
-35.28
-32.56
-28.42
-22.71
-15.59
-7.41
1.31
10.05
18.25
25.42
31.13
35.09
37.15
37.40
36.17
33.97
31.40
28.96
26.95
25.42
24.26
23.27
22.33
21.35
20.33
19.24
18.06
16.75
15.29
13.71
12.04
10.31
8.51
6.62
4.62
2.45
0.09
-2.50
-5.30
-8.21
-11.08
-13.78
-16.25
-18.58
-20.95
-23.56
-26.43
-29.30
-31.68
-33.01
-32.93
-31.47
-29.02
-26.17
-23.44
-21.05
-18.87
-16.52
-13.67
-10.18
-6.18
-1.99
2.04
5.62
8.61
10.95
12.67
13.81
14.51
14.93
15.21
15.36
15.26
14.70
13.50
11.68
9.40
6.96
4.58
2.30
0.02
-2.38
-4.95
-7.57
-10.14
-12.58
-15.00
-17.52
-20.17
-22.67
-24.49
-24.98
-23.66
-20.47
-15.84
-10.54
-5.37
-0.89
2.80
5.97
9.07
12.42
16.06
19.62
22.54
24.27
24.52
23.45
21.52
19.38
17.57
16.35
15.66
15.19
14.60
13.70
12.49
11.08
9.62
8.20
6.94
6.16
6.26
7.67
10.57
14.91
20.48
27.26
35.61
46.13
58.98
73.27
86.99
97.76
103.94
105.48
103.74
100.30
95.57
88.38
76.85
60.11
39.85
20.29
6.63
2.66
9.03
23.05
39.89
54.33
61.98
59.76
46.22
21.94
-10.04
-44.31
-74.60
-95.99
-107.17
-111.11
-113.48
-119.38
-130.31
-143.10
-151.53
-149.81
-135.71
-111.67
-83.32
-56.45
-34.39
-17.20
-2.75
11.14
25.00
37.36
45.88
48.88
46.38
40.03
32.12
24.55
18.07
12.37
6.63
0.25
-6.75
-13.62
-19.22
-22.57
-23.22
-21.56
-18.62
-15.67
-13.66
-12.91
-12.94
-12.90
-11.96
-9.74
-6.52
-3.16
-0.70
0.02
-1.23
-4.03
-7.42
-10.39
-12.26
-12.93
-12.89
-12.89
-13.56
-15.17
-17.57
-20.30
-22.98
-25.44
-27.76
-30.17
-32.85
-35.82
-38.93
-41.84
-44.11
-45.38
-45.37
-44.03
-41.52
-38.22
-34.67
-31.41
-28.88
-27.25
-26.49
-26.47
-26.98
-27.69
-28.16
-27.89
-26.37
-23.23
-18.29
-11.84
-4.67
2.27
8.24
13.01
16.87
20.35
24.04
28.38
33.24
37.85
41.35
43.33
44.06
44.25
44.61
45.60
47.56
50.21
52.67
54.07
54.15
53.31
52.24
51.40
51.21
52.43
55.43
59.80
64.26
67.02
65.83
58.25
42.15
14.45
-22.94
-63.22
-98.16
-122.56
-134.99
-135.85
-125.76
-105.89
-78.10
-45.38
-12.41
15.22
32.60
37.19
29.66
14.52
-3.48
-18.57
-25.30
-21.00
-6.95
12.30
31.16
45.35
53.19
54.91
52.21
47.16
41.02
34.17
26.72
18.17
9.11
0.12
-9.81
-21.52
-35.24
-49.94
-63.07
-71.20
-71.11
-63.30
-48.10
-27.91
-6.45
12.40
26.05
34.15
37.43
37.87
37.74
38.51
39.89
40.71
39.69
36.18
30.46
23.41
16.04
9.16
3.38
-1.07
-3.33
-2.75
0.20
4.10
7.45
9.10
8.90
7.00
3.53
-1.24
-6.38
-11.08
-14.65
-16.72
-17.38
-17.10
-16.59
-16.51
-17.11
-18.25
-19.49
-20.38
-20.46
-19.53
-17.73
-15.52
-13.42
-11.79
-10.68
-9.81
-8.91
-7.56
-5.52
-2.92
-0.41
1.21
1.41
0.27
-1.46
-3.02
-3.65
-2.94
-1.02
1.42
3.68
5.39
6.45
6.76
5.17
0.47
-8.08
-20.06
-33.87
-47.33
-58.85
-68.59
-74.73
-77.43
-77.05
-72.64
-61.54
-41.75
-14.58
14.59
38.77
53.21
57.02
53.98
49.40
47.36
48.15
50.16
51.94
53.68
57.21
63.32
72.26
81.94
89.38
92.17
89.90
84.20
77.28
72.42
70.83
74.17
81.72
91.93
102.92
113.12
121.53
127.92
132.89
135.92
140.00
146.70
157.14
171.20
187.14
201.59
210.40
210.06
196.78
173.16
141.88
106.57
70.34
35.04
1.20
-31.17
-49.28
-67.18
-81.50
-91.70
-98.46
-103.82
-110.38
-120.37
-134.79
-153.31
-176.73
-201.55
-225.97
-247.75
-264.30
-273.44
-274.53
-269.19
-260.91
-254.91
-251.47
-249.42
-245.08
-234.26
-214.69
-187.43
-156.59
-127.50
-105.36
-90.65
-81.85
-75.59
-68.59
-59.44
-49.33
-41.60
-40.00
-47.12
-61.84
-80.98
-100.41
-116.87
-129.16
-137.78
-143.59
-146.44
-145.01
-137.31
-122.82
-103.53
-83.70
-68.46
-61.57
-63.81
-72.56
-83.02
-90.34
-91.49
-86.15
-75.99
-63.16
-48.68
-31.87
-10.97
15.42
46.96
81.21
114.25
142.10
162.31
174.64
180.70
182.75
182.53
180.84
177.84
173.75
169.25
165.21
162.02
158.99
154.55
147.15
136.45
123.75
111.55
102.16
96.40
93.18
90.22
85.33
77.70
68.14
58.24
49.20
41.05
32.70
22.69
10.36
-3.65
-17.44
-28.02
-32.10
-26.74
-9.47
21.37
65.92
121.88
183.41
241.08
284.20
303.83
296.21
265.12
221.38
178.83
148.76
135.14
133.53
135.35
131.96
118.06
92.96
59.38
20.64
-21.47
-67.28
-117.03
-167.08
-211.05
-243.44
-262.44
-270.63
-273.10
-273.90
-274.32
-271.36
-256.45
-220.73
-160.88
-81.51
6.03
87.43
150.29
185.83
180.16
129.85
49.85
-32.10
-90.98
-115.06
-107.67
-77.64
-35.30
8.42
46.65
77.12
97.08
107.16
111.64
111.80
111.53
112.09
110.96
106.64
99.44
89.74
77.05
60.24
38.89
15.24
-7.72
-28.10
-44.53
-56.37
-65.00
-72.59
-80.78
-90.04
-99.19
-103.36
-102.04
-96.36
-87.69
-77.36
-66.25
-54.89
-44.28
-35.06
-27.80
-23.25
-21.16
-20.38
-20.01
-19.55
-18.68
-17.90
-17.51
-17.86
-20.27
-25.13
-32.24
-41.39
-52.04
-63.82
-78.02
-95.66
-116.02
-133.67
-143.81
-141.95
-126.87
-103.26
-75.46
-50.11
-31.60
-19.69
-10.56
0.11
14.65
31.82
49.16
63.93
73.20
76.64
76.49
76.06
78.25
85.86
102.05
127.65
162.87
203.57
242.46
270.67
280.02
265.69
228.46
163.41
80.93
1.10
-59.71
-97.19
-117.58
-130.48
-142.40
-153.77
-160.78
-157.19
-140.23
-114.07
-83.71
-54.53
-31.44
-17.56
-13.14
-17.31
-27.67
-42.68
-61.16
-81.78
-97.66
-103.11
-97.10
-81.67
-61.64
-41.46
-23.22
-8.45
2.39
10.32
16.95
24.48
37.48
59.80
93.92
134.63
176.46
214.74
246.81
271.58
276.71
257.73
219.37
173.02
129.25
93.86
67.37
46.92
28.03
6.79
-16.22
-38.18
-55.85
-67.45
-73.01
-74.48
-75.00
-76.76
-80.20
-82.56
-81.04
-74.83
-65.63
-56.24
-49.13
-45.19
-43.70
-43.06
-40.84
-35.67
-27.95
-19.53
-12.36
-8.14
-7.68
-10.74
-16.42
-23.04
-29.29
-34.79
-40.10
-46.12
-53.58
-62.52
-72.27
-81.81
-89.97
-95.91
-99.27
-99.77
-96.99
-90.26
-79.00
-63.34
-44.54
-24.79
-6.54
8.36
19.25
26.60
31.46
34.67
36.48
36.53
34.28
29.61
23.05
15.74
9.13
4.49
2.67
3.96
8.06
14.23
21.48
28.78
35.32
40.62
44.50
46.97
48.05
47.75
46.07
43.18
39.43
35.32
31.34
27.79
24.75
22.12
19.77
17.64
15.75
14.16
12.86
11.69
10.36
8.63
6.33
3.49
0.28
-3.04
-6.26
-9.29
-12.10
-14.68
-16.98
-18.89
-20.29
-21.05
-21.09
-20.36
-18.86
-16.63
-13.81
-10.65
-7.44
-4.49
-1.99
0.03
1.66
3.06
4.32
5.45
6.34
6.83
6.81
6.25
5.25
4.00
2.73
1.66
0.88
0.37
0.01
-0.33
-0.69
-1.05
-1.31
-1.41
-1.38
-1.31
-1.31
-1.39
-1.50
-1.61
-1.84
-2.40
-3.43
-4.77
-5.94
-6.48
-6.52
-7.14
-10.25
-17.72
-30.21
-46.50
-63.65
-78.01
-86.52
-87.57
-81.04
-67.85
-49.36
-27.15
-3.17
20.16
40.28
55.09
63.71
66.76
66.02
63.60
61.04
58.76
56.09
51.69
44.31
33.54
20.34
6.92
-3.95
-10.04
-10.60
-6.66
-0.46
5.66
10.29
13.32
15.45
17.41
19.25
20.25
19.45
16.36
11.36
5.61
0.44
-3.24
-5.29
-6.22
-6.86
-7.87
-9.43
-11.27
-12.82
-13.54
-13.21
-12.02
-10.54
-9.46
-9.38
-10.55
-12.81
-15.65
-18.44
-20.57
-21.57
-21.14
-19.06
-15.22
-9.61
-2.40
5.98
14.92
23.67
31.53
37.74
41.46
41.75
37.75
28.97
15.60
-1.40
-20.40
-39.32
-56.15
-69.34
-77.95
-81.67
-80.75
-75.94
-68.49
-59.97
-51.88
-45.42
-41.26
-39.31
-38.72
-38.14
-36.22
-32.14
-25.78
-17.08
-6.08
7.08
22.37
40.02
60.49
83.92
109.60
135.61
159.92
179.93
192.68
195.82
189.09
174.99
157.82
141.89
129.80
123.19
121.35
120.77
116.26
103.08
79.06
45.46
6.97
-29.05
-52.38
-54.28
-31.59
11.82
66.98
123.24
171.17
204.32
208.09
175.34
112.58
38.21
-28.82
-78.24
-108.90
-124.93
-132.00
-134.90
-135.78
-132.39
-122.17
-103.89
-77.73
-44.86
-7.62
30.55
65.89
97.10
122.93
141.81
152.40
154.32
148.48
136.56
120.41
101.37
80.87
59.52
36.41
9.49
-23.30
-62.73
-107.68
-155.10
-200.48
-238.37
-263.97
-274.85
-271.74
-258.20
-239.14
-219.11
-200.92
-185.19
-171.00
-157.39
-144.68
-134.67
-129.77
-131.64
-140.15
-153.47
-168.92
-184.01
-197.07
-207.24
-213.87
-216.13
-213.16
-204.41
-190.14
-171.47
-150.22
-128.33
-107.45
-88.77
-73.22
-61.61
-54.66
-52.73
-55.38
-61.06
-67.09
-70.06
-66.70
-54.79
-33.86
-5.27
28.53
65.11
103.05
142.08
182.11
221.93
258.47
287.36
304.59
308.40
300.33
284.65
266.56
250.07
236.70
225.70
215.19
203.68
190.86
177.53
164.72
152.89
141.61
130.02
117.49
104.18
91.06
79.46
70.15
62.78
55.74
46.81
34.10
17.06
-3.16
-24.11
-43.03
-57.82
-67.62
-72.74
-74.03
-72.30
-68.07
-61.74
-53.98
-46.00
-39.38
-35.56
-35.20
-37.85
-42.15
-46.40
-49.18
-49.71
-47.90
-43.95
-38.15
-30.72
-21.95
-12.38
-2.89
5.44
11.54
14.67
14.60
11.58
6.32
-0.26
-7.09
-13.15
-17.61
-20.00
-20.27
-18.75
-16.00
-12.63
-9.14
-5.98
-3.54
-2.26
-2.51
-4.45
-7.83
-11.88
-15.47
-17.45
-17.03
-14.08
-9.14
-3.25
2.37
6.64
8.87
8.90
7.13
4.41
1.92
0.84
2.19
6.52
13.81
23.46
34.48
45.66
55.84
64.22
70.51
74.97
78.32
81.38
84.70
88.13
90.64
90.38
85.22
73.44
54.51
29.54
1.22
-26.85
-51.18
-69.39
-80.76
-86.23
-87.79
-87.66
-87.53
-88.14
-89.34
-90.38
-90.37
-88.70
-85.24
-80.38
-74.86
-69.56
-65.29
-62.66
-62.06
-63.63
-67.27
-72.63
-79.09
-85.87
-92.19
-97.52
-101.72
-105.01
-107.76
-110.23
-112.26
-113.37
-112.95
-110.79
-107.22
-103.09
-99.12
-95.20
-90.02
-81.29
-66.69
-44.93
-16.38
16.97
52.27
86.57
117.39
142.88
161.70
173.21
177.66
176.38
171.55
165.54
159.97
155.15
150.12
143.38
133.88
121.57
107.45
92.96
79.49
68.06
59.31
53.76
51.74
53.01
56.40
59.72
60.26
55.83
45.64
30.75
13.69
-2.29
-14.19
-19.91
-18.54
-10.40
3.01
19.06
34.43
45.89
51.19
49.67
42.32
31.29
19.09
7.94
-0.55
-5.55
-6.71
-4.01
2.28
11.55
22.74
34.22
43.96
49.80
49.94
43.80
32.49
18.51
4.72
-7.00
-16.49
-25.14
-34.92
-47.56
-63.06
-79.23
-92.31
-98.18
-93.80
-78.00
-51.83
-18.45
16.48
46.18
64.37
66.98
53.45
27.07
-5.81
-37.76
-62.65
-78.44
-86.58
-90.23
-92.54
-95.41
-99.51
-105.08
-112.70
-117.60
-116.44
-108.54
-96.02
-81.45
-65.42
-47.14
-26.33
-4.29
16.57
33.13
42.74
47.18
49.55
52.66
57.63
63.47
67.86
68.51
63.62
52.97
38.13
22.56
10.09
3.95
6.08
16.66
33.98
54.11
72.01
82.89
83.32
72.10
50.28
20.74
-12.75
-46.24
-76.51
-101.22
-119.09
-130.03
-134.99
-135.43
-132.67
-127.42
-119.48
-108.01
-92.08
-71.44
-46.94
-20.38
6.01
30.25
50.76
66.48
76.94
82.09
82.12
77.50
69.17
58.52
47.09
35.98
25.46
15.38
5.44
-4.49
-14.25
-23.52
-32.18
-38.04
-40.25
-40.34
-40.95
-43.70
-48.52
-54.38
-60.25
-65.30
-70.62
-74.31
-74.00
-67.50
-53.68
-33.27
-8.74
16.73
40.57
60.33
74.20
81.28
81.84
76.93
68.07
57.18
46.56
38.59
35.04
36.66
42.44
50.02
56.48
59.41
57.75
52.06
44.17
36.19
29.83
25.68
23.40
22.15
21.15
19.98
18.57
16.87
14.68
11.72
7.89
3.46
-0.77
-3.78
-4.74
-3.42
-0.37
3.44
7.25
10.85
14.48
18.42
22.61
26.60
29.88
32.17
33.57
34.31
34.49
33.66
30.99
25.85
18.24
9.00
-0.98
-11.43
-23.13
-36.70
-51.57
-65.81
-76.92
-83.14
-84.00
-80.59
-74.91
-68.94
-63.51
-58.64
-53.89
-48.91
-44.07
-40.04
-37.59
-37.20
-39.26
-43.26
-48.40
-53.15
-54.93
-52.07
-42.54
-25.98
-4.25
18.64
38.71
52.43
58.25
57.47
52.29
45.47
39.46
36.06
36.39
42.54
56.01
77.06
104.29
132.24
153.78
163.14
158.83
137.45
103.98
66.56
29.03
-1.16
-21.14
-33.87
-44.21
-54.52
-64.34
-71.18
-74.14
-75.82
-75.64
-73.58
-69.36
-62.46
-53.06
-42.69
-32.97
-26.28
-22.74
-21.47
-21.78
-22.27
-21.16
-17.22
-10.51
-1.64
7.37
15.16
22.37
29.50
36.94
44.59
51.39
55.43
55.27
49.25
38.25
26.66
19.74
23.04
40.87
74.58
121.36
174.83
224.47
260.49
277.40
273.38
250.95
215.65
173.78
128.01
89.39
61.20
36.96
16.21
-1.39
-16.55
-30.87
-46.63
-66.18
-90.56
-120.73
-154.92
-188.09
-215.23
-232.34
-237.63
-232.08
-219.46
-204.97
-195.04
-194.09
-202.49
-218.64
-239.44
-261.41
-281.41
-297.33
-308.06
-314.15
-316.36
-313.89
-306.44
-294.42
-278.72
-260.01
-238.45
-213.65
-185.45
-153.66
-116.45
-73.53
-27.00
19.62
63.21
101.93
135.01
162.13
183.31
201.92
220.32
238.24
253.41
263.76
268.46
267.86
263.23
256.24
252.10
253.90
260.59
268.70
276.16
283.65
293.57
308.13
304.40
270.31
212.89
150.17
94.72
50.25
15.94
-10.42
-31.02
-47.55
-56.93
-57.14
-49.95
-40.13
-32.06
-28.27
-29.27
-34.07
-40.93
-44.64
-41.27
-30.23
-14.11
3.14
16.64
21.60
13.28
-10.20
-43.60
-77.91
-103.94
-115.73
-112.03
-96.70
-76.92
-58.56
-47.94
-45.01
-45.93
-46.09
-42.42
-33.44
-19.24
-1.83
17.23
35.14
49.66
58.57
60.17
53.62
39.86
21.28
1.32
-16.23
-28.47
-33.67
-32.18
-26.50
-20.43
-16.76
-15.97
-16.10
-13.55
-4.90
12.18
37.88
72.99
113.94
155.53
192.23
219.09
232.51
230.62
213.78
184.24
145.46
100.71
53.15
5.38
-40.31
-81.49
-115.57
-140.11
-153.71
-156.75
-151.67
-141.54
-128.95
-115.20
-100.27
-83.65
-65.18
-45.70
-26.98
-11.27
-0.27
5.27
5.46
1.05
-6.78
-16.64
-26.87
-35.67
-41.50
-43.29
-40.84
-35.05
-27.68
-21.01
-17.08
-17.10
-21.07
-27.78
-35.19
-41.11
-43.99
-43.23
-39.35
-33.79
-28.56
-25.47
-25.36
-27.77
-30.95
-32.65
-30.90
-24.91
-15.44
-4.70
4.79
11.24
14.21
14.44
13.02
11.03
9.11
7.51
6.08
4.84
4.11
4.05
4.36
3.64
1.05
-3.12
-7.68
-11.85
-15.18
-17.73
-20.11
-23.20
-28.87
-37.27
-46.81
-55.32
-62.67
-69.51
-76.46
-83.94
-92.08
-102.87
-116.47
-131.17
-144.68
-157.49
-170.35
-183.18
-195.19
-205.30
-215.06
-223.73
-228.04
-223.88
-211.03
-190.42
-163.35
-131.54
-80.58
-14.38
50.18
94.24
124.58
149.27
172.42
195.04
216.79
236.56
250.41
257.12
258.43
257.31
253.12
244.41
230.24
210.54
186.26
157.45
127.07
100.21
81.94
73.02
72.21
77.82
88.48
103.39
120.68
139.40
159.04
178.97
196.78
210.25
217.93
218.90
212.22
196.38
171.15
138.32
101.62
64.89
31.64
4.19
-16.48
-30.76
-40.18
-46.76
-52.51
-58.94
-66.78
-75.30
-82.68
-86.55
-85.20
-78.50
-67.90
-55.64
-43.72
-33.48
-25.75
-21.87
-22.63
-28.01
-37.22
-49.01
-61.84
-74.30
-85.45
-95.04
-104.73
-115.31
-126.45
-137.48
-148.27
-159.03
-169.85
-180.55
-190.88
-202.90
-217.18
-232.63
-247.80
-261.90
-274.35
-284.05
-289.21
-287.80
-280.84
-267.90
-247.32
-218.44
-183.01
-144.33
-105.53
-68.62
-17.17
47.76
111.94
161.29
191.51
205.45
207.97
203.71
196.25
187.94
177.06
163.39
148.71
135.25
124.09
115.26
108.44
103.12
98.69
92.31
83.17
72.62
62.64
54.34
47.89
42.99
39.09
35.59
30.58
23.62
15.83
8.84
3.68
0.65
-0.46
-0.17
1.09
2.01
2.25
2.47
3.69
6.56
11.10
16.75
22.54
27.41
30.47
31.62
31.50
31.14
31.42
32.89
35.76
39.87
44.56
48.82
51.07
49.56
43.18
32.21
18.59
5.32
-4.73
-10.09
-10.74
-8.03
-3.79
0.56
4.46
8.19
12.39
17.80
22.74
27.08
31.39
36.44
42.55
49.14
54.80
57.58
55.59
47.86
35.48
21.36
9.27
2.73
3.82
13.05
29.27
50.05
72.75
92.11
102.68
101.22
88.56
68.41
45.27
22.81
3.73
-13.04
-28.41
-43.23
-58.64
-75.81
-95.61
-115.40
-132.13
-143.71
-149.35
-149.40
-145.05
-137.61
-127.55
-114.39
-97.47
-72.93
-43.22
-16.27
-0.29
1.75
-6.87
-19.60
-30.28
-35.43
-35.04
-31.65
-27.87
-24.78
-21.96
-18.65
-14.75
-11.46
-11.01
-16.26
-27.25
-41.12
-52.05
-53.32
-40.45
-13.48
22.60
59.52
86.90
99.19
97.13
86.23
72.94
61.70
54.06
49.73
48.95
51.44
57.52
66.51
75.74
80.67
77.24
63.74
41.67
14.76
-12.79
-37.43
-57.14
-70.98
-78.86
-80.07
-73.46
-58.58
-36.34
-7.57
25.18
59.41
93.71
127.08
155.28
173.96
181.44
179.70
172.38
161.95
148.27
133.07
111.75
81.43
41.92
-4.70
-55.46
-107.92
-156.91
-196.58
-221.87
-230.34
-221.41
-197.33
-162.50
-122.74
-84.11
-51.83
-30.05
-21.41
-27.17
-42.41
-60.35
-73.39
-76.73
-70.14
-56.74
-40.93
-26.33
-15.44
-8.54
-5.23
-4.17
-3.29
0.16
8.83
23.62
42.67
61.22
75.58
82.58
81.44
73.80
62.63
50.69
39.38
28.96
19.15
10.66
4.12
-0.26
-3.36
-6.94
-12.75
-21.81
-32.32
-42.22
-48.70
-50.57
-48.74
-45.98
-45.95
-51.87
-65.47
-85.84
-109.81
-130.87
-142.28
-139.14
-119.64
-85.75
-42.46
3.62
46.54
81.43
107.40
124.95
135.19
140.11
141.92
143.22
146.42
154.19
159.84
159.35
151.69
138.79
123.88
109.18
96.58
87.69
86.89
92.04
100.38
106.98
106.27
95.60
74.93
46.56
11.35
-27.17
-64.97
-94.63
-110.76
-118.67
-120.38
-116.38
-102.91
-80.41
-51.33
-20.23
8.71
31.23
43.64
44.91
35.48
17.10
-7.09
-31.82
-52.17
-64.76
-69.17
-67.67
-62.37
-55.17
-48.08
-42.45
-37.66
-32.46
-25.55
-16.02
-4.54
7.78
18.67
23.71
19.20
5.12
-15.40
-37.91
-57.83
-73.50
-85.16
-94.31
-104.66
-118.64
-135.18
-151.22
-164.13
-171.88
-175.86
-178.85
-169.92
-145.51
-112.87
-83.83
-64.90
-59.90
-58.47
-52.27
-36.55
-10.04
27.51
71.84
118.18
159.78
186.56
194.36
186.33
170.03
151.83
133.38
114.41
95.78
79.55
67.35
60.41
57.35
55.80
53.84
49.49
41.38
29.43
14.63
-0.87
-13.07
-18.43
-15.13
-4.12
10.53
23.57
31.47
33.88
33.18
32.85
34.33
36.08
34.79
27.66
14.82
-1.25
-16.12
-25.85
-28.52
-25.06
-18.41
-11.68
-6.82
-4.06
-2.65
-1.78
-1.61
-3.04
-7.04
-13.75
-22.20
-30.98
-38.90
-45.71
-51.86
-57.82
-63.33
-67.29
-68.57
-67.04
-64.19
-62.42
-63.73
-68.47
-75.01
-80.60
-82.78
-80.62
-73.65
-63.52
-52.41
-42.11
-33.52
-26.91
-22.46
-20.51
-21.46
-25.21
-31.01
-37.18
-41.70
-42.78
-39.43
-31.52
-19.61
-4.50
12.97
31.66
50.17
66.70
79.29
86.26
86.81
81.44
71.78
60.05
48.15
37.15
27.04
17.12
6.77
-3.90
-13.82
-21.32
-24.87
-23.73
-18.12
-8.90
2.84
16.10
29.98
43.53
55.71
65.49
72.10
75.24
75.17
72.49
68.00
62.41
56.30
50.03
43.85
38.07
33.13
29.74
28.69
30.48
34.73
39.92
43.68
43.58
38.28
28.19
15.38
2.62
-7.83
-15.11
-19.86
-23.58
-27.67
-32.77
-38.62
-44.42
-49.43
-53.32
-56.13
-57.99
-58.71
-57.65
-53.92
-46.82
-36.28
-23.04
-8.48
5.84
18.66
29.35
37.93
44.78
50.32
54.72
57.85
59.42
59.19
57.18
53.72
49.39
44.81
40.49
36.72
33.48
30.60
27.86
25.14
22.50
20.08
18.03
16.39
15.01
13.66
12.14
10.41
8.61
7.01
5.78
4.89
3.98
2.52
-0.06
-4.13
-9.73
-16.47
-23.67
-30.49
-36.11
-39.93
-41.59
-41.05
-38.52
-34.40
-29.22
-23.49
-17.59
-11.72
-5.97
-0.42
4.67
8.84
11.60
12.68
12.23
10.86
9.32
8.18
7.56
7.16
6.42
4.94
2.66
0.08
-1.86
-1.99
0.69
6.58
15.16
24.85
33.41
38.56
38.89
34.30
26.01
15.99
6.12
-2.33
-8.99
-14.13
-18.31
-22.12
-26.00
-30.25
-35.00
-40.17
-45.43
-50.20
-53.76
-55.48
-54.98
-52.23
-47.56
-41.55
-34.93
-28.41
-22.52
-17.51
-13.26
-9.42
-5.53
-1.24
3.58
8.78
14.01
18.88
22.99
26.06
27.96
28.75
28.63
27.92
26.89
25.73
24.46
23.01
21.23
19.05
16.55
13.99
11.73
10.03
8.98
8.40
7.95
7.24
6.06
4.54
3.14
2.49
3.15
5.34
8.82
13.03
17.38
21.55
25.55
29.59
33.90
38.51
43.37
48.53
54.27
60.82
67.99
74.92
80.34
83.22
83.53
82.48
81.96
83.52
87.46
92.74
97.91
102.39
107.24
114.46
125.36
138.66
149.91
152.68
141.04
112.10
67.13
11.08
-49.20
-106.79
-155.95
-192.44
-213.55
-218.33
-208.07
-186.61
-159.66
-133.16
-111.35
-95.47
-84.05
-74.43
-64.65
-54.53
-45.35
-38.68
-35.05
-33.66
-32.97
-31.74
-29.81
-27.95
-27.04
-27.15
-27.39
-26.33
-23.08
-17.97
-12.47
-8.55
-7.60
-9.86
-14.36
-19.47
-23.58
-25.70
-25.63
-23.80
-20.97
-17.84
-14.88
-12.17
-9.59
-6.94
-4.18
-1.57
0.39
1.11
0.22
-2.20
-5.58
-9.05
-11.72
-13.07
-12.97
-11.62
-9.39
-6.68
-3.91
-1.57
-0.25
-0.45
-2.36
-5.57
-9.19
-12.09
-13.43
-13.03
-11.42
-9.58
-8.44
-8.51
-9.69
-11.47
-13.18
-14.29
-14.53
-13.83
-12.22
-9.75
-6.58
-2.97
0.61
3.63
5.69
6.64
6.63
5.98
5.05
4.07
3.12
2.19
1.25
0.29
-0.63
-1.47
-2.19
-2.78
-3.27
-3.72
-4.24
-4.93
-5.87
-7.05
-8.36
-9.64
-10.74
-11.69
-12.68
-13.99
-15.85
-18.30
-21.13
-23.88
-26.00
-26.97
-26.50
-24.54
-21.34
-17.23
-12.59
-7.72
-2.87
1.77
5.97
9.56
12.43
14.64
16.31
17.62
18.66
19.40
19.75
19.64
19.12
18.35
17.47
16.60
15.70
14.70
13.59
12.42
11.30
10.27
9.19
7.80
5.93
3.66
1.36
-0.36
-1.01
-0.45
1.05
2.92
4.52
5.46
5.61
5.09
4.03
2.50
0.44
-2.20
-5.32
-8.63
-11.66
-13.92
-15.11
-15.09
-13.92
-11.86
-9.21
-6.29
-3.38
-0.64
1.90
4.35
6.94
9.87
13.15
16.54
19.66
22.16
23.82
24.61
24.60
24.03
23.23
22.69
23.12
25.24
29.29
34.71
39.87
42.74
42.24
38.77
34.23
31.31
32.08
36.84
44.04
50.47
52.87
49.98
42.55
32.95
24.29
19.07
18.24
20.98
24.31
24.43
18.79
5.78
-15.14
-43.09
-75.61
-108.43
-135.35
-150.63
-150.56
-134.24
-106.39
-76.83
-57.19
-53.93
-68.52
-92.29
-110.28
-115.42
-103.72
-76.12
-36.85
11.60
64.41
117.24
166.94
204.87
221.79
214.82
188.12
150.06
109.54
73.25
45.12
26.18
14.49
6.33
0.27
-4.34
-7.65
-9.58
-10.31
-10.10
-9.63
-9.20
-9.59
-10.59
-12.02
-13.95
-16.46
-19.68
-23.38
-27.17
-30.80
-34.12
-36.57
-38.01
-38.63
-38.63
-38.00
-36.37
-33.27
-28.53
-22.37
-15.08
-7.30
0.16
6.57
11.45
14.68
16.38
16.84
16.37
15.35
14.11
12.93
12.05
11.60
11.63
12.02
12.56
12.99
13.15
12.99
12.57
11.98
11.30
10.64
10.09
9.70
9.40
9.03
8.36
7.14
5.31
2.96
0.37
-2.18
-4.46
-6.43
-8.15
-9.78
-11.41
-13.08
-14.75
-16.33
-17.73
-18.79
-19.34
-19.20
-18.26
-16.50
-14.05
-11.13
-7.96
-4.74
-1.60
1.36
4.04
6.30
8.03
9.12
9.52
9.31
8.69
7.91
7.18
6.64
6.25
5.89
5.39
4.69
3.83
2.95
2.16
1.51
0.93
0.31
-0.45
-1.32
-2.23
-3.07
-3.83
-4.56
-5.37
-6.32
-7.37
-8.43
-9.44
-10.35
-11.24
-12.19
-13.27
-14.46
-15.65
-16.73
-17.55
-18.03
-18.10
-17.69
-16.69
-15.04
-12.74
-9.91
-6.79
-3.66
-0.79
1.66
3.63
5.16
6.29
7.09
7.55
7.64
7.38
6.84
6.10
5.31
4.56
3.85
3.15
2.37
1.46
0.45
-0.57
-1.54
-2.41
-3.21
-4.05
-5.02
-6.16
-7.47
-8.88
-10.31
-11.70
-13.04
-14.33
-15.56
-16.73
-17.88
-19.02
-20.25
-21.63
-23.19
-24.90
-26.60
-28.11
-29.21
-29.73
-29.62
-28.90
-27.59
-25.73
-23.31
-20.31
-16.85
-13.09
-9.31
-5.75
-2.57
0.24
2.72
4.95
6.90
8.45
9.55
10.22
10.59
10.83
11.07
11.28
11.35
11.16
10.71
10.07
9.39
8.75
8.14
7.45
6.59
5.52
4.29
3.00
1.70
0.37
-1.07
-2.70
-4.54
-6.48
-8.37
-10.11
-11.66
-13.13
-14.74
-16.61
-18.80
-21.12
-23.27
-24.88
-25.66
-25.44
-24.22
-22.12
-19.31
-15.98
-12.30
-8.42
-4.48
-0.60
3.05
6.36
9.26
11.75
13.88
15.73
17.32
18.62
19.54
20.00
19.98
19.56
18.87
18.09
17.30
16.51
15.63
14.58
13.37
12.10
10.87
9.77
8.71
7.54
6.08
4.27
2.20
0.08
-1.87
-3.57
-5.04
-6.44
-7.94
-9.66
-11.61
-13.74
-15.94
-18.06
-19.95
-21.39
-22.17
-22.15
-21.24
-19.47
-16.95
-13.80
-10.14
-6.11
-1.91
2.25
6.08
9.33
11.86
13.61
14.73
15.40
15.83
16.16
16.41
16.52
16.35
15.80
14.82
13.47
11.88
10.23
8.66
7.24
5.91
4.57
3.12
1.48
-0.33
-2.21
-4.04
-5.69
-7.11
-8.34
-9.51
-10.77
-12.21
-13.84
-15.55
-17.25
-18.90
-20.51
-22.11
-23.57
-24.66
-25.01
-24.32
-22.51
-19.79
-16.55
-13.12
-9.62
-5.96
-2.01
2.17
6.24
9.68
12.10
13.51
14.31
15.16
16.56
18.65
21.14
23.49
25.21
26.05
26.09
25.55
24.66
23.55
22.25
20.72
18.95
16.99
14.90
12.73
10.50
8.21
5.91
3.68
1.66
-0.09
-1.57
-2.88
-4.20
-5.67
-7.37
-9.31
-11.45
-13.71
-16.04
-18.34
-20.47
-22.19
-23.25
-23.42
-22.54
-20.61
-17.75
-14.19
-10.11
-5.70
-1.07
3.67
8.35
12.75
16.61
19.71
21.94
23.37
24.18
24.65
25.03
25.45
25.91
26.28
26.37
26.06
25.32
24.26
23.06
21.83
20.61
19.36
17.97
16.42
14.74
12.99
11.27
9.56
7.84
6.04
4.14
2.16
0.18
-1.73
-3.54
-5.27
-7.02
-8.92
-11.11
-13.60
-16.26
-18.76
-20.71
-21.71
-21.51
-20.12
-17.72
-14.59
-10.98
-7.07
-2.94
1.33
5.63
9.80
13.64
16.97
19.66
21.61
22.78
23.20
22.98
22.36
21.60
20.91
20.39
19.97
19.49
18.77
17.69
16.26
14.56
12.70
10.75
8.80
6.88
5.02
3.22
1.49
-0.20
-1.84
-3.45
-5.02
-6.55
-8.09
-9.66
-11.30
-13.05
-14.93
-16.98
-19.22
-21.58
-23.88
-25.75
-26.79
-26.60
-25.02
-22.17
-18.39
-14.11
-9.71
-5.39
-1.21
2.87
6.87
10.73
14.33
17.49
20.06
21.93
23.05
23.49
23.37
22.88
22.20
21.43
20.59
19.62
18.46
17.09
15.58
14.03
12.53
11.15
9.82
8.46
6.96
5.27
3.40
1.41
-0.59
-2.54
-4.41
-6.22
-8.05
-9.95
-11.98
-14.15
-16.46
-18.91
-21.52
-24.22
-26.88
-29.24
-30.95
-31.69
-31.28
-29.75
-27.33
-24.37
-21.14
-17.79
-14.27
-10.43
-6.20
-1.62
3.05
7.48
11.34
14.46
16.82
18.56
19.84
20.80
21.51
22.01
22.35
22.58
22.77
22.96
23.15
23.27
23.20
22.85
22.12
21.03
19.61
17.96
16.16
14.28
12.38
10.49
8.57
6.56
4.32
1.73
-1.27
-4.62
-8.14
-11.62
-14.88
-17.84
-20.55
-23.00
-25.11
-26.66
-27.35
-26.95
-25.37
-22.71
-19.16
-14.97
-10.32
-5.39
-0.34
4.64
9.29
13.35
16.64
19.06
20.70
21.71
22.29
22.61
22.71
22.52
21.89
20.77
19.18
17.31
15.37
13.54
11.90
10.44
9.14
8.02
7.10
6.40
5.84
5.23
4.36
3.05
1.29
-0.77
-2.85
-4.67
-6.06
-7.02
-7.70
-8.31
-9.05
-10.08
-11.46
-13.15
-15.03
-16.85
-18.27
-18.96
-18.69
-17.51
-15.69
-13.64
-11.67
-9.93
-8.35
-6.77
-5.10
-3.36
-1.67
-0.10
1.38
2.85
4.38
5.98
7.58
9.08
10.39
11.48
12.28
12.73
12.76
12.36
11.62
10.73
9.90
9.28
8.93
8.78
8.69
8.51
8.14
7.51
6.70
5.81
4.95
4.20
3.55
2.93
2.27
1.50
0.59
-0.44
-1.57
-2.80
-4.18
-5.78
-7.61
-9.62
-11.66
-13.43
-14.63
-15.01
-14.47
-13.09
-11.10
-8.78
-6.36
-3.97
-1.66
0.57
2.68
4.60
6.26
7.63
8.76
9.70
10.47
11.01
11.21
10.99
10.34
9.33
8.11
6.80
5.48
4.12
2.65
0.99
-0.91
-3.04
-5.32
-7.57
-9.58
-11.11
-12.05
-12.38
-12.29
-12.02
-11.80
-11.75
-11.85
-11.96
-11.98
-11.93
-11.94
-12.20
-12.80
-13.61
-14.28
-14.32
-13.38
-11.51
-9.31
-7.68
-7.44
-8.68
-10.53
-11.41
-9.54
-3.62
6.71
20.85
37.30
53.95
68.15
76.90
77.42
68.01
49.08
23.52
-3.83
-27.64
-43.74
-50.26
-47.79
-38.59
-25.45
-11.01
2.57
13.59
20.75
23.31
21.43
16.27
9.74
3.96
0.49
-0.11
1.86
5.39
9.33
12.73
15.03
16.09
16.02
15.08
13.49
11.45
9.10
6.54
3.93
1.52
-0.42
-1.65
-2.09
-1.88
-1.39
-1.06
-1.17
-1.71
-2.38
-2.74
-2.48
-1.55
-0.20
1.26
2.62
3.88
5.18
6.63
8.08
9.17
9.41
8.48
6.42
3.62
0.69
-1.80
-3.48
-4.30
-4.42
-4.13
-3.70
-3.33
-3.19
-3.45
-4.20
-5.44
-7.00
-8.57
-9.81
-10.48
-10.60
-10.37
-10.08
-10.01
-10.26
-10.82
-11.58
-12.44
-13.31
-14.14
-14.87
-15.42
-15.73
-15.78
-15.62
-15.38
-15.11
-14.81
-14.36
-13.62
-12.51
-11.07
-9.49
-8.02
-6.85
-6.04
-5.52
-5.13
-4.73
-4.30
-3.88
-3.57
-3.43
-3.48
-3.65
-3.87
-4.07
-4.22
-4.35
-4.52
-4.76
-5.10
-5.49
-5.85
-6.13
-6.32
-6.44
-6.56
-6.73
-6.97
-7.26
-7.50
-7.63
-7.61
-7.43
-7.15
-6.83
-6.51
-6.12
-5.54
-4.54
-2.94
-0.70
1.99
4.72
6.90
8.08
8.08
7.10
5.75
4.72
4.63
5.74
8.00
11.07
14.50
17.88
20.80
22.88
23.78
23.23
21.18
17.79
13.48
8.74
4.08
-0.17
-3.80
-6.74
-9.00
-10.67
-11.98
-13.17
-14.50
-16.13
-18.01
-19.90
-21.41
-22.08
-21.43
-19.14
-15.12
-9.70
-3.60
2.08
6.25
8.02
7.03
3.50
-1.85
-8.10
-14.36
-19.96
-24.54
-27.92
-30.15
-31.35
-31.84
-32.06
-32.55
-33.79
-35.93
-38.69
-41.30
-42.66
-41.72
-37.76
-30.67
-20.93
-9.49
2.61
14.44
25.46
35.51
44.69
53.20
61.05
67.89
73.05
75.71
75.23
71.53
65.05
56.54
46.62
35.51
22.94
8.51
-7.76
-25.09
-41.74
-55.33
-63.34
-63.66
-55.16
-37.93
-13.45
15.52
45.35
72.14
92.59
104.70
108.08
103.82
93.97
80.95
66.94
53.63
42.16
33.06
26.38
21.67
18.20
15.19
12.14
8.96
5.92
3.53
2.24
2.27
3.46
5.38
7.49
9.36
10.69
11.19
10.76
9.56
7.87
6.01
4.09
2.06
-0.37
-3.55
-8.11
-14.14
-21.02
-27.64
-33.09
-37.15
-40.37
-43.66
-47.94
-54.24
-62.81
-73.00
-83.68
-93.69
-102.03
-107.72
-109.71
-107.49
-102.08
-95.08
-87.93
-81.48
-75.94
-70.96
-65.80
-59.57
-47.80
-29.47
-7.48
13.10
28.64
37.95
41.15
38.68
31.41
20.46
7.09
-6.28
-16.39
-20.16
-15.93
-4.04
13.80
35.18
57.83
78.71
94.98
104.88
108.07
105.52
98.93
88.28
76.81
65.83
54.43
40.97
25.05
8.28
-6.41
-17.32
-23.60
-25.82
-26.50
-28.50
-33.80
-42.14
-51.34
-56.84
-56.49
-50.44
-40.76
-32.03
-25.59
-21.11
-16.70
-10.18
-0.57
10.95
22.01
30.33
34.60
35.53
34.57
33.81
34.84
37.98
42.34
46.96
51.41
55.64
59.75
62.91
63.57
60.03
51.58
39.13
25.42
13.80
6.67
4.41
5.19
6.24
5.32
1.76
-3.49
-8.60
-11.93
-12.83
-11.66
-9.47
-7.26
-5.53
-4.21
-2.88
-1.12
1.18
3.66
5.65
6.58
6.34
5.33
4.18
3.26
2.54
1.62
0.12
-2.09
-4.78
-7.55
-10.25
-13.15
-16.76
-21.43
-27.00
-32.73
-37.86
-41.53
-42.99
-41.73
-37.78
-31.74
-24.77
-18.23
-13.31
-11.32
-12.58
-16.33
-21.17
-25.83
-29.73
-32.89
-35.50
-37.47
-39.59
-42.24
-45.44
-49.05
-53.05
-57.53
-62.32
-66.78
-69.86
-72.20
-74.44
-76.79
-78.91
-80.40
-81.49
-83.37
-88.08
-88.73
-82.14
-68.87
-52.43
-35.99
-20.65
-6.38
6.86
19.04
30.30
39.24
44.88
46.80
45.02
39.68
31.23
21.09
11.12
5.49
6.57
15.04
29.37
45.99
60.47
69.11
70.68
67.24
63.00
61.25
63.55
69.27
76.40
82.90
87.93
90.71
91.48
90.82
88.53
84.48
79.24
74.40
72.08
73.73
79.06
86.09
91.87
93.61
90.16
82.12
71.01
58.23
44.55
30.46
16.94
5.46
-2.62
-7.15
-10.01
-14.91
-25.77
-44.63
-70.14
-97.45
-119.82
-131.22
-128.69
-113.40
-90.09
-64.70
-41.78
-23.09
-7.88
5.65
18.49
29.92
38.01
40.58
37.62
31.65
26.31
23.95
24.34
24.98
22.83
16.26
4.88
-9.08
-22.22
-32.13
-38.90
-44.37
-50.26
-56.67
-61.99
-65.91
-67.64
-66.31
-61.61
-54.64
-47.59
-43.08
-43.53
-50.65
-67.50
-93.45
-123.94
-152.00
-171.82
-180.81
-180.00
-173.24
-149.45
-109.15
-63.87
-27.20
-3.71
9.78
17.88
23.17
26.02
26.23
19.88
8.82
-3.38
-12.94
-18.36
-20.61
-21.70
-22.96
-25.20
-31.26
-41.10
-54.74
-70.69
-86.51
-99.29
-106.37
-106.44
-101.17
-96.28
-97.17
-106.68
-123.42
-143.49
-162.74
-178.43
-188.57
-192.29
-189.60
-179.90
-163.03
-140.73
-117.91
-101.33
-96.18
-100.37
-107.45
-110.18
-103.32
-85.38
-58.82
-28.85
-0.75
22.63
47.00
77.90
116.17
157.79
197.55
231.55
258.10
277.81
293.15
315.88
353.89
406.82
468.24
531.96
594.01
650.96
697.90
728.31
746.69
755.84
754.62
741.80
722.15
705.10
699.17
707.52
659.70
524.58
326.91
122.89
-47.98
-175.08
-264.56
-327.27
-372.99
-408.33
-425.46
-419.27
-394.15
-362.29
-335.45
-321.46
-323.34
-339.47
-364.49
-382.53
-382.10
-362.25
-332.87
-301.91
-274.74
-253.00
-235.49
-219.90
-199.18
-170.63
-138.06
-109.08
-89.19
-79.94
-79.52
-84.87
-93.70
-101.96
-107.03
-107.92
-104.15
-94.45
-77.95
-55.39
-27.79
0.88
27.63
50.70
69.61
84.69
96.85
106.83
115.45
123.77
132.72
143.00
154.07
163.95
169.97
170.27
164.66
154.51
141.18
123.97
99.98
65.52
19.36
-34.83
-88.20
-129.56
-150.15
-147.93
-129.21
-105.94
-90.75
-91.89
-110.29
-139.88
-170.60
-192.82
-201.16
-196.36
-184.34
-172.91
-167.96
-170.94
-178.64
-185.47
-186.65
-180.50
-168.66
-154.20
-138.99
-121.83
-98.87
-66.24
-23.55
23.65
64.78
88.19
86.36
59.85
17.71
-26.02
-58.50
-73.42
-73.15
-66.23
-62.06
-65.64
-75.64
-86.15
-90.55
-85.07
-69.78
-46.87
-18.00
16.98
59.14
108.09
159.83
206.80
240.30
254.46
249.22
230.73
208.49
190.84
181.37
177.87
174.46
165.34
148.03
124.24
98.43
75.20
57.12
44.28
35.29
28.87
24.95
24.70
29.22
38.31
49.90
60.59
66.96
66.93
60.46
49.44
36.69
24.79
15.19
7.83
1.52
-5.31
-13.77
-23.97
-34.96
-45.18
-53.23
-58.47
-61.32
-62.99
-64.78
-67.40
-70.62
-73.46
-74.74
-73.62
-69.91
-63.75
-55.31
-44.51
-31.21
-15.74
0.58
15.61
27.03
33.50
35.33
34.47
33.63
34.92
39.02
45.04
51.25
56.13
59.01
60.10
60.03
59.20
57.50
54.53
50.03
44.25
37.94
32.00
27.06
23.16
19.87
16.54
12.76
8.55
4.44
1.13
-0.85
-1.35
-0.73
0.43
1.55
2.30
2.64
2.72
2.70
2.59
2.28
1.66
0.73
-0.33
-1.20
-1.58
-1.35
-0.67
0.07
0.42
0.11
-0.75
-1.67
-2.03
-1.39
0.19
2.12
3.56
3.78
2.53
0.10
-2.76
-5.31
-7.10
-8.12
-8.78
-9.57
-10.92
-12.88
-15.20
-17.36
-18.79
-18.93
-17.35
-13.90
-8.64
-2.27
3.60
6.62
4.47
-3.85
-17.15
-32.06
-44.26
-50.32
-49.18
-42.37
-32.95
-23.88
-16.76
-11.61
-7.67
-4.37
-1.82
-0.59
-0.92
-2.33
-3.70
-3.79
-1.99
1.43
5.51
8.87
10.30
9.33
6.49
3.05
0.63
0.50
2.97
7.29
11.93
15.26
16.23
14.74
11.61
8.16
5.56
4.48
4.93
6.37
8.03
8.98
8.32
5.23
-0.71
-9.30
-19.40
-29.01
-35.85
-38.04
-35.06
-28.09
-19.65
-12.75
-9.82
-11.87
-18.06
-25.90
-31.85
-32.32
-24.78
-8.78
13.55
37.90
58.99
72.36
75.76
69.81
57.38
42.24
27.51
14.89
4.63
-3.80
-10.93
-16.77
-20.99
-23.38
-24.34
-25.16
-27.60
-33.10
-41.90
-52.60
-62.43
-68.23
-67.66
-60.18
-47.22
-31.59
-16.35
-3.89
4.62
9.23
10.68
9.97
8.05
5.71
3.60
2.24
1.96
2.87
4.76
7.15
9.42
10.99
11.47
10.88
9.61
8.28
7.57
7.90
9.41
11.98
15.43
19.63
24.45
29.51
33.95
36.43
35.51
30.31
21.00
8.97
-3.58
-14.27
-21.29
-23.76
-21.80
-16.26
-8.47
0.15
8.21
14.61
18.61
19.86
18.49
15.00
10.19
5.09
0.63
-2.63
-4.71
-6.32
-8.48
-12.04
-17.07
-22.78
-27.92
-31.56
-33.78
-35.65
-38.55
-43.15
-48.70
-53.16
-54.29
-50.98
-44.05
-35.99
-29.68
-26.89
-27.36
-29.12
-29.63
-27.18
-21.64
-14.26
-6.82
-0.74
3.35
5.47
5.84
4.60
1.84
-2.17
-6.72
-10.75
-13.15
-13.14
-10.48
-5.49
1.19
8.80
16.62
24.14
31.04
37.27
43.01
48.62
54.49
60.88
67.86
75.30
82.87
90.07
96.14
100.01
100.39
96.03
86.22
71.32
52.97
33.85
16.76
3.57
-5.61
-12.43
-19.44
-28.65
-40.36
-52.82
-62.96
-67.77
-65.69
-57.18
-44.26
-29.47
-14.72
-0.95
11.51
22.26
30.33
34.41
33.52
27.77
18.53
7.90
-2.26
-11.24
-19.50
-28.03
-37.39
-47.15
-56.11
-63.06
-67.60
-70.21
-71.61
-71.92
-70.29
-65.31
-55.98
-42.70
-27.48
-13.27
-2.75
2.72
3.41
0.92
-2.66
-5.38
-5.90
-3.52
1.84
9.69
18.99
28.32
36.14
41.27
43.27
42.48
39.86
36.56
33.55
31.44
30.56
31.09
33.04
36.16
39.73
42.58
43.43
41.36
36.35
29.32
21.78
15.23
10.62
8.13
7.37
7.79
8.91
10.39
11.85
12.73
12.39
10.27
6.10
0.06
-7.26
-14.99
-22.19
-27.97
-31.74
-33.31
-32.98
-31.48
-29.65
-28.15
-27.30
-27.14
-27.70
-29.18
-31.85
-35.70
-40.11
-43.91
-45.86
-45.46
-43.44
-41.60
-42.03
-45.97
-53.02
-61.11
-67.24
-68.74
-64.29
-54.30
-40.69
-26.10
-13.04
-3.22
2.69
5.01
4.82
3.56
2.63
3.08
5.46
9.80
15.63
22.19
28.67
34.35
38.87
42.19
44.67
46.82
49.18
52.16
55.99
60.66
65.96
71.43
76.37
79.93
81.19
79.41
74.34
66.42
56.73
46.76
37.91
30.97
25.82
21.32
15.85
7.85
-3.45
-17.64
-33.21
-47.97
-59.77
-67.07
-69.25
-66.63
-60.22
-51.43
-41.80
-32.75
-25.38
-20.23
-17.23
-15.77
-15.02
-14.42
-14.00
-14.33
-16.15
-19.77
-24.66
-29.60
-33.30
-35.17
-35.66
-36.03
-37.43
-39.98
-42.38
-42.41
-37.99
-28.45
-15.00
-0.32
12.44
20.87
24.02
22.42
17.60
11.43
5.56
1.19
-1.08
-1.23
0.28
2.60
4.82
6.34
7.09
7.62
8.85
11.62
16.33
22.76
30.15
37.52
43.97
48.91
52.14
53.81
54.38
54.48
54.74
55.39
56.00
55.27
51.39
42.91
29.85
14.31
0.27
-7.76
-6.60
4.01
21.07
39.44
53.94
61.41
61.61
56.66
49.43
41.85
34.24
25.90
16.30
5.96
-3.80
-11.80
-18.08
-23.98
-31.07
-39.97
-50.18
-61.20
-73.96
-91.01
-114.69
-144.32
-174.22
-194.75
-196.27
-174.07
-131.26
-77.79
-25.95
14.94
41.69
56.70
64.89
70.05
73.16
73.12
68.90
61.26
53.01
47.70
47.68
52.96
61.00
68.09
70.93
68.05
60.08
49.33
38.64
30.19
24.79
21.85
19.96
17.77
14.64
10.96
7.76
6.05
6.07
6.99
7.23
5.23
0.38
-6.60
-13.93
-19.60
-22.40
-22.39
-20.54
-17.94
-14.99
-11.16
-5.54
2.39
12.14
22.33
31.33
38.14
42.73
45.77
47.97
49.40
49.38
46.88
41.13
32.15
20.77
8.33
-3.86
-14.77
-23.84
-30.93
-36.19
-39.95
-42.63
-44.56
-45.77
-45.90
-44.33
-40.68
-35.24
-29.23
-24.44
-22.49
-23.99
-28.16
-33.10
-36.72
-37.62
-35.65
-31.73
-27.16
-22.91
-19.26
-15.88
-12.36
-8.53
-4.61
-0.95
2.29
5.30
8.51
12.28
16.53
20.68
23.85
25.29
24.78
22.75
20.14
17.96
16.96
17.40
19.04
21.34
23.67
25.63
27.06
28.08
28.83
29.32
29.20
27.84
24.55
18.99
11.43
2.85
-5.44
-12.29
-17.17
-20.30
-22.46
-24.53
-27.04
-30.01
-32.96
-35.25
-36.29
-35.76
-33.67
-30.27
-25.93
-21.02
-15.86
-10.64
-5.56
-0.88
3.04
5.81
7.26
7.66
7.73
8.38
10.26
13.43
17.26
20.74
23.01
23.72
23.09
21.61
19.60
16.99
13.39
8.49
2.43
-4.10
-10.09
-14.63
-17.26
-18.07
-17.46
-15.91
-13.69
-10.89
-7.56
-3.87
-0.13
3.25
5.85
7.34
7.45
5.99
2.93
-1.42
-6.32
-10.72
-13.54
-14.11
-12.38
-8.87
-4.39
0.23
4.30
7.33
8.93
8.95
7.57
5.37
3.11
1.35
0.09
-1.30
-3.79
-8.16
-14.48
-22.03
-29.43
-35.12
-37.83
-36.90
-32.52
-25.63
-17.74
-10.55
-5.47
-3.11
-3.21
-4.77
-6.43
-7.06
-6.00
-3.21
0.85
5.45
9.83
13.26
15.22
15.49
14.14
11.61
8.57
5.73
3.72
2.92
3.42
5.09
7.78
11.38
15.91
21.37
27.64
34.20
40.20
44.49
46.04
44.16
38.79
30.53
20.48
10.04
0.58
-6.84
-11.64
-13.88
-14.14
-13.43
-12.81
-13.08
-14.58
-17.12
-20.15
-23.01
-25.19
-26.46
-26.86
-26.66
-26.11
-25.33
-24.20
-22.42
-19.70
-15.97
-11.55
-7.10
-3.46
-1.44
-1.54
-3.91
-8.25
-13.86
-19.66
-24.50
-27.40
-27.96
-26.52
-23.93
-21.20
-18.92
-17.05
-14.97
-11.91
-7.38
-1.39
5.66
13.20
20.74
27.84
34.03
38.67
41.01
40.46
36.98
31.26
24.62
18.61
14.51
12.92
13.59
15.67
18.10
20.02
21.10
21.50
21.72
22.24
23.25
24.53
25.52
25.61
24.43
22.05
18.92
15.67
12.87
10.74
9.17
7.71
5.76
2.68
-2.09
-8.79
-17.25
-26.71
-35.98
-43.62
-48.50
-50.08
-48.59
-44.83
-39.82
-34.46
-29.32
-24.75
-20.97
-18.30
-17.02
-17.30
-18.97
-21.55
-24.36
-26.75
-28.22
-28.45
-27.22
-24.33
-19.59
-12.82
-3.92
7.06
19.76
33.44
46.93
58.76
67.48
71.98
71.80
67.17
58.88
47.94
35.30
21.77
8.06
-5.09
-16.94
-26.84
-34.39
-39.52
-42.38
-43.16
-41.97
-38.88
-34.05
-27.90
-21.19
-14.91
-10.02
-7.07
-6.01
-6.22
-6.74
-6.72
-5.73
-3.82
-1.32
1.42
4.28
7.39
10.85
14.57
18.13
20.90
22.32
22.17
20.62
18.22
15.55
13.09
11.03
9.32
7.79
6.28
4.68
3.00
1.28
-0.42
-2.11
-3.85
-5.70
-7.72
-9.86
-11.97
-13.86
-15.32
-16.24
-16.59
-16.45
-15.96
-15.26
-14.40
-13.31
-11.83
-9.78
-7.10
-3.87
-0.35
3.13
6.29
8.97
11.15
12.86
14.11
14.85
14.98
14.54
13.65
12.64
11.81
11.35
11.21
11.12
10.72
9.72
8.05
5.90
3.58
1.44
-0.31
-1.62
-2.59
-3.40
-4.17
-5.00
-5.91
-6.92
-8.02
-9.18
-10.37
-11.50
-12.50
-13.29
-13.81
-14.09
-14.16
-14.04
-13.72
-13.13
-12.17
-10.76
-8.87
-6.58
-4.01
-1.33
1.29
3.70
5.77
7.45
8.72
9.65
10.35
10.94
11.49
11.95
12.24
12.25
11.93
11.33
10.56
9.73
8.90
8.06
7.21
6.37
5.60
4.95
4.44
3.99
3.51
2.89
2.08
1.08
-0.05
-1.27
-2.53
-3.85
-5.25
-6.78
-8.47
-10.28
-12.15
-13.94
-15.42
-16.41
-16.75
-16.39
-15.36
-13.77
-11.78
-9.56
-7.28
-5.10
-3.10
-1.32
0.29
1.78
3.21
4.55
5.67
6.42
6.67
6.41
5.74
4.86
3.98
3.23
2.68
2.30
2.03
1.81
1.63
1.48
1.33
1.16
0.89
0.49
-0.07
-0.79
-1.64
-2.60
-3.64
-4.73
-5.83
-6.92
-8.00
-9.11
-10.29
-11.57
-12.89
-14.09
-14.94
-15.24
-14.83
-13.70
-11.96
-9.74
-7.23
-4.54
-1.76
1.02
3.73
6.29
8.57
10.47
11.89
12.84
13.32
13.39
13.13
12.58
11.84
10.99
10.09
9.23
8.46
7.78
7.18
6.60
5.95
5.14
4.13
2.90
1.49
0.00
-1.46
-2.81
-4.01
-5.12
-6.17
-7.23
-8.32
-9.46
-10.67
-12.00
-13.44
-14.93
-16.30
-17.30
-17.67
-17.26
-16.06
-14.23
-11.98
-9.53
-7.00
-4.42
-1.82
0.78
3.29
5.58
7.52
9.04
10.10
10.76
11.06
11.05
10.77
10.25
9.54
8.63
7.54
6.26
4.81
3.23
1.63
0.13
-1.13
-2.07
-2.70
-3.08
-3.38
-3.77
-4.41
-5.40
-6.75
-8.35
-10.04
-11.62
-12.97
-14.05
-14.94
-15.73
-16.51
-17.26
-17.87
-18.15
-17.93
-17.05
-15.46
-13.21
-10.40
-7.25
-3.97
-0.78
2.15
4.73
6.96
8.92
10.66
12.24
13.67
14.92
15.95
16.69
17.09
17.10
16.72
16.05
15.23
14.46
13.84
13.37
12.84
12.00
10.61
8.59
6.07
3.32
0.67
-1.65
-3.50
-4.89
-5.86
-6.45
-6.69
-6.64
-6.40
-6.16
-6.07
-6.16
-6.28
-6.14
-5.43
-4.01
-1.97
0.39
2.66
4.60
6.12
7.40
8.68
10.15
11.90
13.83
15.83
17.72
19.40
20.76
21.72
22.21
22.15
21.53
20.40
18.85
17.06
15.21
13.49
11.99
10.76
9.75
8.85
7.96
7.01
5.97
4.87
3.70
2.45
1.10
-0.39
-1.98
-3.63
-5.23
-6.66
-7.86
-8.85
-9.73
-10.65
-11.72
-12.91
-14.07
-14.98
-15.35
-15.02
-13.92
-12.12
-9.77
-7.06
-4.15
-1.16
1.73
4.39
6.66
8.40
9.57
10.22
10.48
10.53
10.50
10.46
10.34
10.06
9.52
8.71
7.71
6.67
5.72
4.96
4.37
3.88
3.34
2.63
1.68
0.48
-0.90
-2.37
-3.82
-5.16
-6.38
-7.49
-8.53
-9.55
-10.56
-11.51
-12.30
-12.79
-12.83
-12.32
-11.21
-9.56
-7.51
-5.26
-2.98
-0.79
1.30
3.34
5.35
7.28
9.02
10.44
11.44
12.04
12.32
12.40
12.38
12.25
11.99
11.57
10.99
10.32
9.62
8.90
8.18
7.42
6.60
5.74
4.87
4.00
3.17
2.36
1.53
0.60
-0.47
-1.68
-2.93
-4.12
-5.18
-6.14
-7.10
-8.17
-9.37
-10.59
-11.60
-12.13
-12.02
-11.27
-9.94
-8.18
-6.09
-3.73
-1.15
1.55
4.24
6.77
9.03
10.97
12.60
13.96
15.01
15.70
15.92
15.62
14.82
13.65
12.32
11.07
10.08
9.40
9.00
8.73
8.40
7.83
6.87
5.47
3.68
1.66
-0.33
-2.08
-3.46
-4.53
-5.44
-6.39
-7.51
-8.77
-10.11
-11.40
-12.58
-13.63
-14.52
-15.21
-15.60
-15.64
-15.28
-14.55
-13.49
-12.11
-10.38
-8.28
-5.84
-3.17
-0.47
2.00
4.07
5.66
6.81
7.64
8.26
8.78
9.21
9.53
9.70
9.67
9.45
9.04
8.50
7.86
7.18
6.48
5.81
5.18
4.62
4.07
3.51
2.89
2.21
1.44
0.60
-0.34
-1.39
-2.54
-3.75
-4.96
-6.12
-7.23
-8.34
-9.49
-10.73
-11.96
-13.01
-13.65
-13.69
-13.04
-11.73
-9.91
-7.75
-5.39
-2.88
-0.23
2.53
5.28
7.84
9.98
11.58
12.63
13.24
13.53
13.57
13.34
12.78
11.84
10.61
9.29
8.10
7.19
6.55
6.04
5.49
4.80
3.95
3.01
2.16
1.54
1.24
1.19
1.25
1.22
0.95
0.38
-0.43
-1.28
-1.97
-2.43
-2.74
-3.06
-3.55
-4.27
-5.22
-6.29
-7.11
-7.33
-6.79
-5.62
-4.06
-2.36
-0.66
1.03
2.90
5.58
9.53
14.64
20.19
25.26
29.16
31.73
33.25
34.39
36.45
40.29
45.71
51.53
56.32
59.15
59.89
58.97
57.08
55.68
55.71
57.17
59.25
61.18
62.56
63.12
62.17
53.48
33.75
5.08
-25.46
-50.59
-66.67
-74.15
-76.05
-76.09
-77.11
-79.36
-81.72
-83.01
-82.92
-81.90
-80.54
-79.10
-77.48
-75.27
-71.58
-66.07
-59.39
-53.04
-48.52
-46.69
-47.45
-49.69
-51.43
-49.81
-42.60
-29.54
-12.92
3.31
15.37
21.49
22.67
21.93
22.73
26.85
33.56
40.36
44.65
45.14
42.12
36.76
30.22
23.46
17.31
12.85
11.10
12.62
16.85
22.21
26.61
28.34
26.92
22.99
17.97
13.29
9.77
7.31
5.23
2.40
-2.17
-8.80
-16.96
-25.21
-31.85
-35.48
-35.90
-34.13
-32.01
-31.27
-32.80
-36.26
-40.70
-45.29
-49.57
-52.95
-53.85
-49.77
-38.56
-20.44
0.85
19.20
29.37
30.43
26.79
25.77
32.76
47.24
62.39
68.82
60.04
36.36
4.76
-24.98
-45.12
-52.95
-50.53
-42.07
-31.27
-20.00
-8.72
2.34
12.20
19.23
22.00
20.07
14.50
7.53
1.90
0.04
3.22
11.21
22.38
34.34
44.82
52.46
57.04
59.17
59.52
58.60
56.70
53.98
50.77
47.57
44.99
43.38
42.70
42.52
42.25
41.41
39.76
37.36
34.44
31.32
28.27
25.39
22.61
19.61
16.00
11.39
5.61
-1.31
-9.31
-18.57
-29.66
-43.51
-61.17
-83.44
-110.43
-141.00
-172.45
-200.41
-219.55
-224.81
-213.13
-184.86
-144.26
-98.57
-56.09
-23.92
-6.36
-4.28
-15.60
-36.15
-60.75
-84.11
-101.77
-110.92
-110.93
-103.18
-90.19
-74.31
-56.67
-37.11
-15.04
9.31
34.05
55.81
70.94
76.95
73.59
63.17
50.01
39.45
36.78
46.36
70.76
109.99
160.93
217.54
271.90
315.98
343.48
351.07
338.70
308.90
265.46
212.17
152.03
87.36
20.57
-44.83
-103.83
-150.73
-180.85
-192.51
-188.05
-173.19
-154.86
-138.58
-126.62
-118.02
-110.19
-101.09
-90.36
-79.11
-68.50
-58.45
-47.42
-33.32
-15.01
6.94
30.23
51.57
67.72
76.18
75.70
66.51
50.43
30.82
12.08
-1.68
-8.11
-7.44
-2.22
4.01
8.31
9.11
6.64
2.24
-2.79
-7.94
-13.39
-19.30
-25.24
-30.18
-33.47
-34.71
-33.79
-31.03
-27.32
-23.85
-21.64
-21.28
-23.04
-27.70
-35.48
-45.46
-55.93
-65.32
-72.48
-76.68
-77.44
-74.68
-69.97
-65.07
-61.15
-58.82
-58.67
-60.94
-64.93
-68.69
-62.80
-42.54
-11.58
21.22
48.85
68.34
79.63
84.16
84.10
81.48
76.71
70.03
62.37
55.28
49.96
46.80
45.52
45.42
45.63
44.61
41.61
37.21
32.91
29.94
28.71
28.85
29.68
30.51
30.33
28.75
26.09
23.31
21.33
20.93
22.58
26.17
30.58
33.41
32.46
25.93
14.22
-0.23
-13.76
-22.94
-25.82
-22.57
-15.38
-7.37
-1.68
-0.60
-5.41
-15.54
-28.88
-42.35
-52.74
-57.62
-55.91
-48.01
-35.24
-19.73
-4.07
9.01
17.50
21.19
22.16
24.60
32.90
48.73
68.99
86.22
91.42
78.45
47.08
3.67
-41.21
-76.37
-94.01
-91.97
-73.54
-45.17
-13.40
17.14
43.81
65.04
78.96
82.51
72.49
47.70
10.46
-33.33
-75.73
-109.49
-129.65
-134.15
-123.30
-99.31
-65.81
-28.08
7.38
33.71
44.22
33.42
0.74
-48.15
-102.60
-149.65
-177.82
-180.18
-155.83
-109.30
-48.10
20.04
88.30
150.40
199.37
227.38
227.64
197.70
142.24
73.54
7.94
-40.11
-63.38
-63.57
-48.95
-29.60
-12.92
-1.64
5.26
10.06
14.04
16.82
17.22
14.69
10.04
5.19
1.93
0.98
1.74
2.74
2.61
0.70
-2.84
-7.45
-12.60
-17.95
-23.22
-27.93
-31.41
-33.13
-33.17
-32.23
-31.27
-30.82
-30.41
-29.07
-25.98
-20.91
-14.30
-6.84
0.91
8.81
16.87
25.17
32.95
38.71
41.05
39.22
33.61
25.45
16.67
9.46
6.37
8.83
16.53
27.68
39.50
49.06
54.23
54.61
51.69
48.83
48.59
51.23
55.01
56.90
54.14
45.74
33.37
16.38
-0.99
-11.87
-10.75
3.07
24.43
46.82
61.61
62.37
47.33
21.41
-6.49
-28.82
-36.99
-25.90
3.83
45.89
88.02
116.45
123.87
111.69
86.92
58.23
34.52
16.76
4.44
-3.57
-8.73
-11.90
-13.74
-14.69
-14.98
-14.87
-15.25
-16.96
-20.77
-26.48
-32.37
-36.58
-38.62
-39.18
-40.01
-43.03
-48.60
-55.60
-62.20
-66.88
-69.74
-72.62
-77.39
-84.79
-94.41
-104.82
-114.71
-123.09
-128.78
-130.04
-125.10
-112.23
-91.23
-64.82
-38.46
-18.66
-10.28
-14.21
-27.08
-43.36
-56.88
-63.10
-60.43
-50.01
-34.40
-16.07
3.60
27.22
53.32
77.59
95.48
104.57
105.07
99.58
90.63
80.32
70.15
60.18
50.22
40.35
30.80
21.87
14.00
7.74
3.68
2.11
2.32
3.42
4.62
5.25
4.79
3.05
0.18
-3.21
-6.23
-8.29
-8.82
-7.53
-4.61
-0.84
2.76
5.31
6.60
7.03
7.07
7.08
7.07
6.69
5.62
3.84
1.80
0.27
-0.06
0.84
2.28
3.14
2.51
0.17
-3.31
-6.80
-8.93
-8.75
-6.28
-2.75
-0.15
0.01
-2.75
-7.73
-13.43
-18.06
-20.31
-20.12
-18.71
-17.93
-18.68
-21.02
-24.82
-30.67
-39.63
-51.18
-64.20
-76.46
-85.71
-90.75
-92.89
-94.92
-98.76
-102.76
-103.71
-94.92
-72.25
-36.81
6.69
51.32
90.76
117.90
129.16
128.07
121.90
120.42
123.10
126.07
125.41
119.32
108.95
94.60
79.29
65.51
53.71
42.11
29.58
15.96
2.35
-9.23
-16.27
-16.61
-10.27
0.19
10.41
16.85
17.39
11.76
1.50
-10.56
-21.04
-27.78
-30.50
-30.49
-29.11
-27.28
-25.38
-23.26
-20.54
-16.58
-11.03
-4.17
3.08
9.57
14.02
15.27
12.66
6.38
-2.35
-11.64
-19.81
-25.75
-28.82
-28.44
-23.89
-14.68
-1.09
15.32
31.87
44.88
51.13
49.15
40.26
28.26
17.82
12.76
14.92
24.30
38.95
56.00
72.28
84.97
92.13
92.40
85.28
69.54
48.05
27.09
12.35
4.90
1.93
0.41
-0.69
-0.02
5.16
17.28
34.34
53.90
71.52
82.42
83.99
76.51
62.65
46.02
29.65
14.24
-2.07
-18.83
-36.93
-56.87
-78.74
-102.42
-127.56
-153.18
-177.60
-198.37
-212.69
-218.77
-216.01
-205.60
-190.31
-173.68
-158.98
-148.41
-142.70
-141.21
-142.82
-145.94
-149.16
-151.54
-152.89
-153.60
-154.38
-155.78
-157.72
-160.06
-162.51
-164.81
-166.73
-168.17
-168.99
-168.61
-165.84
-158.00
-142.77
-119.02
-87.12
-48.43
-4.78
41.73
89.23
135.59
179.78
219.26
250.06
268.81
275.02
271.63
263.00
253.54
245.39
241.10
240.84
242.80
245.36
248.26
252.05
255.91
258.78
259.23
260.27
264.37
271.08
277.95
282.07
281.50
274.78
263.41
227.15
161.91
82.14
10.13
-39.60
-65.68
-70.83
-68.87
-70.67
-83.09
-104.47
-130.02
-158.35
-185.94
-208.69
-221.07
-222.46
-215.56
-203.64
-186.78
-160.65
-124.95
-83.67
-42.73
-8.13
15.34
27.51
31.51
33.58
38.40
46.29
55.05
61.59
63.90
61.25
55.41
49.31
46.62
49.60
57.60
68.31
78.78
85.98
87.47
82.36
71.13
55.51
37.77
19.87
3.59
-9.82
-20.15
-27.71
-32.36
-33.03
-27.87
-14.70
8.24
41.58
84.00
131.31
177.71
216.92
243.68
254.85
250.67
235.08
215.11
198.63
189.24
187.67
192.20
199.00
202.33
196.40
178.35
150.23
118.49
86.02
55.05
26.64
-0.26
-29.50
-65.53
-109.65
-158.64
-206.73
-257.12
-313.58
-376.20
-440.51
-501.26
-554.81
-599.11
-633.53
-658.75
-686.41
-724.04
-769.95
-814.72
-850.04
-873.71
-888.21
-897.57
-840.28
-689.40
-468.09
-233.90
-33.00
118.25
223.40
293.27
338.87
368.84
378.89
367.06
339.80
310.22
291.37
289.29
303.43
328.96
359.32
380.44
383.25
363.39
329.06
291.17
256.91
229.24
208.62
194.74
182.11
166.91
148.89
131.30
116.52
104.51
94.50
86.36
80.96
76.86
72.71
67.86
62.77
56.93
48.74
37.36
22.25
4.76
-13.43
-29.95
-42.36
-48.84
-49.64
-47.15
-44.61
-44.85
-48.93
-55.92
-63.42
-68.73
-70.03
-67.43
-62.84
-58.79
-57.49
-59.87
-65.64
-73.93
-84.03
-95.74
-109.20
-124.31
-140.00
-154.48
-166.17
-174.37
-179.56
-183.09
-186.77
-192.39
-201.26
-213.54
-227.79
-240.67
-247.68
-244.83
-230.37
-205.75
-175.06
-143.04
-112.82
-84.65
-56.25
-24.26
13.93
59.03
109.47
161.79
211.49
254.06
286.12
306.53
316.99
321.34
324.21
329.18
337.31
346.91
354.46
356.40
350.69
337.43
318.37
295.80
271.30
245.34
217.63
187.98
156.98
126.13
97.13
70.75
46.41
22.56
-2.17
-27.83
-52.76
-74.09
-88.99
-95.86
-94.71
-87.02
-74.98
-60.88
-46.65
-33.75
-23.12
-15.10
-9.38
-5.05
-0.95
4.00
10.42
18.28
26.91
35.23
42.02
46.17
46.96
44.06
37.61
28.24
16.97
5.06
-6.36
-16.56
-25.34
-32.77
-38.83
-43.11
-44.88
-43.55
-39.19
-32.77
-25.82
-19.77
-15.29
-12.07
-9.27
-6.16
-2.65
0.73
3.31
4.71
5.21
5.56
6.66
9.10
12.96
17.82
22.89
27.21
29.94
30.62
29.36
26.75
23.70
21.16
19.73
19.50
19.91
19.84
18.06
13.87
7.34
-0.54
-8.32
-14.67
-18.99
-21.76
-24.14
-27.33
-31.51
-35.97
-39.59
-41.43
-41.07
-38.68
-34.99
-31.10
-28.26
-26.95
-27.66
-30.92
-37.03
-45.30
-53.45
-57.94
-54.98
-41.84
-16.88
18.39
59.14
98.58
130.38
150.87
159.68
158.90
151.53
141.85
132.88
125.98
121.32
118.89
118.93
121.41
125.06
117.28
89.93
42.75
-15.80
-74.07
-122.89
-157.30
-175.93
-180.28
-173.99
-160.35
-143.08
-125.80
-111.33
-100.97
-94.29
-90.01
-87.23
-85.83
-85.22
-84.79
-84.28
-83.98
-84.07
-84.04
-82.65
-78.45
-70.41
-57.89
-41.68
-24.03
-8.06
3.39
8.81
8.02
2.02
-7.40
-17.59
-26.43
-31.72
-32.73
-30.73
-28.58
-29.50
-35.37
-45.16
-54.95
-59.67
-55.50
-42.14
-23.03
-3.82
10.05
15.51
13.05
6.08
-0.44
-1.74
4.95
19.52
38.86
57.81
70.92
74.87
69.49
57.95
45.59
37.56
36.86
43.31
53.96
64.28
70.31
69.07
59.14
41.26
18.56
-3.62
-18.96
-22.21
-11.36
11.95
41.99
71.16
93.00
104.63
107.34
105.14
101.97
94.53
79.79
55.83
24.27
-9.74
-39.89
-61.36
-72.83
-76.62
-76.98
-76.80
-77.05
-76.56
-73.58
-67.29
-58.64
-49.91
-43.68
-41.50
-42.61
-45.02
-46.30
-44.95
-40.85
-35.21
-30.11
-27.65
-29.19
-34.31
-41.60
-48.03
-50.73
-47.85
-39.26
-26.67
-13.00
-1.26
6.78
10.90
12.33
12.71
13.32
14.63
16.28
17.63
18.27
18.30
18.13
18.18
18.43
18.56
18.03
16.47
13.84
10.48
7.05
4.26
2.78
2.84
4.63
8.16
13.31
19.80
27.15
34.67
41.53
46.89
50.18
51.33
50.71
49.02
46.88
44.61
41.99
38.46
33.39
26.37
17.49
7.26
-3.57
-14.19
-23.89
-32.12
-38.47
-42.64
-44.55
-44.33
-42.41
-39.44
-36.17
-33.23
-30.99
-29.51
-28.62
-28.09
-27.82
-27.93
-28.71
-30.41
-33.07
-36.44
-40.04
-43.36
-46.03
-48.02
-49.52
-50.89
-52.44
-54.32
-56.46
-58.60
-60.33
-61.25
-61.05
-59.59
-56.94
-53.34
-49.09
-44.39
-39.28
-33.60
-27.05
-19.38
-10.49
-0.60
9.78
19.96
29.26
37.22
43.69
48.88
53.17
56.98
60.54
63.88
66.86
69.25
70.87
71.67
71.64
70.79
68.99
65.97
61.38
54.91
46.55
36.69
26.13
15.91
7.01
0.04
-4.93
-8.29
-10.64
-12.53
-14.32
-16.10
-17.79
-19.21
-20.15
-20.51
-20.21
-19.21
-17.48
-15.13
-12.34
-9.41
-6.59
-4.01
-1.65
0.70
3.43
6.82
10.80
14.85
18.29
20.64
21.89
22.27
22.24
22.43
23.25
24.52
25.67
26.21
26.19
26.31
27.06
28.85
32.21
37.46
44.15
51.11
57.20
61.79
65.13
67.46
69.52
73.41
81.57
95.02
112.17
128.84
139.06
136.65
116.41
76.81
22.24
-38.72
-97.12
-146.46
-183.58
-207.91
-213.49
-196.52
-162.14
-121.26
-83.02
-51.80
-28.39
-11.34
1.52
11.37
17.93
17.32
7.82
-8.61
-26.93
-40.77
-44.54
-35.56
-15.52
8.95
28.57
37.87
37.57
32.55
28.04
26.76
28.20
29.82
28.84
24.12
17.36
11.64
9.38
11.04
15.46
20.94
26.04
29.85
31.62
30.89
26.85
18.41
5.07
-12.12
-30.22
-46.34
-57.83
-63.67
-64.41
-61.72
-57.54
-53.20
-49.03
-44.67
-39.62
-33.44
-26.15
-18.03
-9.56
-1.44
5.53
10.72
13.74
14.60
13.87
12.29
10.59
9.40
9.07
9.63
10.90
12.49
13.29
12.71
10.52
7.06
3.18
-0.03
-1.57
-0.88
1.92
5.95
9.89
12.09
11.23
6.94
0.22
-6.72
-11.31
-11.76
-7.98
-1.63
4.51
7.91
7.37
3.52
-1.71
-6.15
-8.29
-7.83
-5.43
-2.30
0.33
1.62
1.37
0.21
-0.44
1.25
6.74
16.42
29.22
42.91
55.00
63.89
69.43
72.66
75.04
77.54
80.32
82.77
83.81
81.87
74.56
58.92
32.62
-3.75
-45.04
-81.90
-104.04
-104.97
-85.80
-55.51
-27.02
-11.02
-11.04
-22.43
-35.77
-42.46
-39.12
-28.38
-16.04
-7.00
-2.53
-0.50
1.96
5.53
7.74
4.33
-7.75
-27.76
-50.69
-69.26
-77.25
-72.31
-56.81
-36.38
-17.23
-3.51
3.79
6.37
7.06
8.23
10.86
14.57
18.19
20.52
20.83
19.05
15.68
11.59
7.75
4.90
3.30
2.48
1.39
-1.17
-5.85
-12.20
-18.60
-22.91
-23.50
-20.30
-15.17
-11.11
-10.92
-15.74
-24.41
-33.84
-40.23
-40.38
-32.73
-17.83
1.66
21.46
36.51
42.32
36.62
20.68
-0.58
-19.90
-30.07
-26.60
-9.27
17.60
46.34
67.98
74.93
63.59
36.06
-0.11
-34.34
-57.08
-63.65
-55.84
-40.36
-24.85
-13.89
-7.25
-1.80
4.81
11.21
12.62
4.36
-14.06
-37.08
-55.18
-59.70
-47.66
-23.49
3.28
22.93
30.20
26.03
15.87
5.78
-0.76
-3.84
-5.73
-8.44
-12.19
-15.44
-16.37
-14.35
-10.51
-7.18
-6.40
-8.79
-13.26
-17.68
-19.96
-18.94
-14.66
-8.12
-0.71
6.28
11.92
15.73
17.61
17.83
16.94
15.65
14.59
14.15
14.40
15.09
15.89
16.46
16.65
16.43
15.87
15.05
13.97
12.70
11.30
9.91
8.62
7.43
6.26
4.95
3.36
1.48
-0.60
-2.72
-4.75
-6.60
-8.26
-9.72
-10.97
-11.93
-12.53
-12.61
-12.11
-10.99
-9.34
-7.36
-5.29
-3.40
-1.81
-0.50
0.65
1.85
3.21
4.76
6.37
7.92
9.27
10.33
11.09
11.58
11.83
11.94
11.98
12.01
12.09
12.20
12.35
12.50
12.65
12.75
12.71
12.38
11.59
10.18
8.09
5.41
2.33
-0.88
-3.95
-6.65
-8.86
-10.57
-11.85
-12.84
-13.70
-14.55
-15.40
-16.17
-16.71
-16.84
-16.41
-15.36
-13.71
-11.50
-8.84
-5.85
-2.71
0.37
3.17
5.54
7.40
8.77
9.74
10.37
10.70
10.70
10.35
9.69
8.86
8.04
7.38
6.90
6.57
6.29
6.01
5.74
5.54
5.41
5.27
4.93
4.22
3.06
1.53
-0.17
-1.83
-3.29
-4.51
-5.52
-6.40
-7.21
-8.02
-8.94
-10.08
-11.50
-13.14
-14.76
-16.00
-16.49
-15.98
-14.41
-11.91
-8.77
-5.32
-1.85
1.41
4.32
6.81
8.89
10.59
11.98
13.09
13.90
14.37
14.48
14.24
13.73
13.07
12.38
11.74
11.19
10.71
10.23
9.67
8.92
7.93
6.71
5.35
4.02
2.83
1.84
1.02
0.24
-0.63
-1.70
-2.95
-4.37
-5.89
-7.52
-9.29
-11.22
-13.25
-15.20
-16.80
-17.77
-17.95
-17.33
-16.08
-14.41
-12.50
-10.42
-8.12
-5.51
-2.58
0.59
3.78
6.76
9.29
11.25
12.63
13.45
13.76
13.59
12.89
11.66
9.95
7.91
5.80
3.91
2.48
1.63
1.36
1.52
1.97
2.50
2.95
3.13
2.84
1.93
0.35
-1.79
-4.24
-6.66
-8.77
-10.44
-11.77
-12.98
-14.37
-16.11
-18.12
-20.12
-21.69
-22.46
-22.22
-21.02
-19.01
-16.37
-13.16
-9.34
-4.92
-0.03
4.95
9.51
13.14
15.50
16.47
16.22
15.02
13.23
11.19
9.24
7.64
6.59
6.11
6.09
6.36
6.74
7.20
7.78
8.49
9.17
9.46
8.87
7.01
3.86
-0.17
-4.34
-7.89
-10.28
-11.34
-11.24
-10.27
-8.72
-6.90
-5.21
-4.14
-4.24
-5.85
-8.87
-12.69
-16.38
-18.96
-19.80
-18.71
-15.99
-12.19
-7.84
-3.34
1.10
5.38
9.37
12.94
15.87
17.99
19.20
19.58
19.40
19.07
19.01
19.55
20.79
22.59
24.62
26.49
27.88
28.65
28.95
29.09
29.46
30.31
31.64
33.19
34.59
35.57
36.17
36.69
37.52
38.87
40.67
42.58
44.24
45.47
46.24
46.50
46.01
44.34
41.18
36.75
31.91
27.89
25.48
24.37
23.06
19.47
12.11
1.04
-11.87
-23.63
-31.41
-33.64
-30.64
-24.16
-16.64
-10.22
-6.18
-4.86
-6.00
-9.12
-13.76
-19.48
-25.66
-31.39
-35.51
-36.85
-34.65
-29.00
-20.74
-11.35
-2.31
5.31
11.15
15.38
18.46
20.90
22.93
24.64
25.96
26.86
27.34
27.45
27.19
26.49
25.39
23.69
21.24
17.90
13.77
9.25
5.03
1.79
0.04
0.16
1.53
2.90
2.55
-1.11
-8.98
-20.96
-36.20
-53.54
-71.85
-91.03
-109.99
-126.83
-139.41
-146.09
-146.29
-140.74
-133.51
-125.40
-116.09
-104.03
-87.11
-63.56
-32.82
3.89
42.35
77.19
104.06
120.37
126.42
125.03
120.54
117.40
118.71
125.25
135.40
145.92
152.35
150.56
137.63
112.33
75.25
28.83
-22.67
-73.21
-115.69
-143.85
-153.91
-145.82
-123.24
-92.31
-59.61
-30.33
-7.35
8.12
15.16
12.62
-0.22
-22.12
-48.76
-73.07
-87.47
-86.88
-70.83
-43.66
-12.43
16.09
37.74
51.38
57.72
57.64
51.42
39.17
21.83
1.87
-17.11
-31.70
-39.87
-41.42
-37.70
-30.77
-22.53
-14.26
-6.77
-0.57
3.96
6.60
7.35
6.44
4.18
0.81
-3.64
-9.15
-15.53
-22.24
-28.38
-32.97
-35.27
-35.06
-32.65
-28.74
-24.14
-19.51
-15.29
-11.63
-8.49
-5.72
-3.10
-0.45
2.30
5.16
7.98
10.59
12.80
14.52
15.72
16.38
16.50
16.06
15.10
13.78
12.37
11.18
10.48
10.29
10.41
10.43
9.96
8.78
6.93
4.72
2.49
0.53
-1.06
-2.28
-3.19
-3.72
-3.82
-3.48
-2.93
-2.61
-2.98
-4.28
-6.32
-8.49
-9.99
-10.19
-8.87
-6.27
-2.95
0.50
3.69
6.52
9.07
11.43
13.62
15.51
16.99
18.05
18.84
19.67
20.87
22.62
24.88
27.38
29.74
31.61
32.80
33.40
33.72
34.18
35.12
36.66
38.53
40.15
40.79
39.82
37.08
32.92
28.07
23.34
19.20
15.57
11.96
7.72
2.54
-3.47
-9.77
-15.69
-20.71
-24.78
-28.47
-33.09
-40.68
-53.73
-74.49
-103.87
-140.35
-179.46
-214.28
-237.14
-241.84
-225.63
-190.10
-140.66
-84.88
-30.31
17.20
54.30
80.03
94.97
100.43
97.95
89.27
76.44
61.75
47.38
34.85
24.72
16.58
9.63
3.33
-2.15
-5.95
-7.15
-5.37
-1.12
4.36
9.60
13.56
15.92
17.06
17.64
18.25
19.12
20.13
20.94
21.22
20.77
19.57
17.78
15.64
13.49
11.69
10.53
10.16
10.52
11.36
12.33
13.18
13.77
14.16
14.49
14.94
15.57
16.38
17.25
18.06
18.68
19.05
19.26
19.45
19.80
20.39
21.17
21.98
22.61
22.94
23.00
22.90
22.75
22.54
22.13
21.29
19.85
17.74
14.96
11.60
7.68
3.22
-1.79
-7.24
-12.91
-18.51
-23.70
-28.18
-31.73
-34.23
-35.61
-35.90
-35.19
-33.68
-31.59
-29.17
-26.59
-23.93
-21.21
-18.40
-15.45
-12.36
-9.20
-6.06
-3.05
-0.25
2.30
4.57
6.52
8.03
8.99
9.35
9.29
9.25
9.77
11.25
13.70
16.66
19.38
21.12
21.52
20.75
19.33
17.89
16.98
16.83
17.47
18.71
20.16
21.33
21.71
21.08
19.74
18.51
18.31
19.66
22.18
24.71
25.86
24.82
21.88
18.25
15.33
13.86
13.42
12.71
10.36
5.79
-0.27
-6.03
-9.31
-8.49
-3.28
4.99
13.46
18.41
16.45
5.89
-12.03
-32.85
-49.94
-56.71
-49.26
-28.15
1.54
32.04
55.82
68.17
68.50
59.67
46.27
32.65
21.72
14.67
11.46
11.38
13.44
16.46
19.14
20.15
18.46
13.68
6.27
-2.49
-10.84
-17.15
-20.52
-21.15
-20.23
-19.36
-19.83
-21.95
-24.99
-27.53
-28.25
-26.56
-22.75
-17.77
-12.72
-8.37
-5.00
-2.51
-0.66
0.74
1.83
2.74
3.66
4.75
6.02
7.24
7.99
7.95
7.09
5.92
5.27
5.90
7.98
10.87
13.23
13.60
11.01
5.40
-2.27
-10.46
-17.53
-22.31
-24.35
-24.01
-22.19
-20.08
-18.79
-19.07
-21.17
-24.75
-29.05
-33.12
-36.08
-37.32
-36.57
-33.95
-29.88
-25.02
-20.09
-15.77
-12.47
-10.29
-9.00
-8.17
-7.34
-6.18
-4.59
-2.72
-0.86
0.70
1.75
2.25
2.33
2.25
2.26
2.54
3.08
3.69
4.04
3.86
3.07
1.88
0.67
-0.18
-0.50
-0.50
-0.65
-1.40
-2.88
-4.73
-6.22
-6.62
-5.57
-3.37
-0.85
0.97
1.33
0.02
-2.50
-5.25
-6.97
-6.34
-2.24
5.90
17.83
32.41
47.96
62.86
76.15
87.95
99.27
111.46
125.55
141.73
159.21
176.33
190.87
200.56
203.76
200.21
191.52
180.88
171.99
167.47
167.62
170.36
172.19
169.91
161.84
148.11
130.00
108.91
85.86
61.44
36.28
11.27
-12.83
-36.16
-60.20
-87.47
-120.17
-158.38
-198.67
-234.12
-256.12
-257.58
-236.10
-195.70
-145.92
-98.60
-63.68
-45.94
-44.16
-52.87
-65.40
-76.63
-84.21
-88.01
-88.78
-86.97
-82.56
-75.48
-66.38
-56.75
-48.41
-42.70
-39.78
-38.55
-37.17
-33.91
-27.95
-19.77
-10.92
-3.36
1.45
3.09
2.38
0.82
-0.11
0.46
2.45
5.15
7.68
9.43
10.25
10.40
10.20
9.90
9.61
9.32
9.08
8.95
9.00
9.28
9.81
10.65
11.89
13.59
15.68
17.98
20.25
22.37
24.49
27.01
30.40
35.02
40.86
47.53
54.39
60.80
66.25
70.63
74.19
77.41
80.84
84.70
88.69
91.99
93.26
90.92
83.36
69.34
48.36
21.11
-10.38
-43.16
-74.01
-100.44
-121.31
-137.01
-149.08
-159.38
-169.25
-178.89
-187.25
-192.42
-192.41
-185.98
-173.18
-155.24
-133.96
-110.93
-87.17
-63.49
-41.08
-22.09
-9.19
-4.43
-7.98
-17.63
-29.53
-39.77
-45.78
-46.72
-42.89
-34.69
-22.11
-5.12
15.59
37.91
58.74
74.98
84.77
87.99
85.73
79.47
70.11
57.66
41.56
21.31
-2.95
-30.09
-58.00
-83.69
-103.74
-115.04
-115.60
-105.45
-87.12
-65.33
-45.82
-33.76
-32.33
-42.05
-61.02
-85.62
-111.12
-132.08
-142.87
-139.01
-119.06
-86.30
-48.64
-16.32
2.22
3.87
-8.34
-27.64
-47.69
-65.68
-82.36
-99.26
-115.02
-123.86
-117.46
-89.57
-40.58
20.56
78.28
115.77
121.30
92.88
39.11
-23.85
-78.22
-110.72
-116.09
-96.79
-59.78
-12.35
40.08
93.60
143.97
185.36
211.23
216.88
201.79
170.06
128.78
85.15
44.20
8.21
-22.37
-47.82
-68.18
-83.09
-91.79
-93.09
-85.41
-67.49
-39.71
-5.32
29.66
58.44
76.31
83.01
82.69
81.46
83.91
90.80
99.23
105.13
106.27
103.63
100.38
99.35
100.84
102.30
100.20
92.36
79.44
64.41
50.78
40.65
34.05
29.51
25.37
20.96
16.81
14.12
13.80
15.81
19.01
21.63
22.05
19.47
14.34
8.08
2.44
-1.35
-3.18
-3.96
-5.13
-7.86
-12.49
-18.47
-24.86
-30.81
-35.99
-40.62
-45.20
-50.22
-55.85
-61.83
-67.51
-72.09
-74.86
-75.52
-74.35
-72.06
-69.51
-67.28
-65.44
-63.50
-60.73
-56.54
-50.72
-43.56
-35.62
-27.54
-19.72
-12.18
-4.61
3.49
12.45
22.18
32.12
41.39
49.22
55.21
59.53
62.75
65.46
68.09
70.68
72.98
74.68
75.43
74.91
72.84
68.95
62.99
54.90
44.79
33.01
20.11
6.81
-6.17
-18.27
-29.18
-38.89
-47.42
-54.70
-60.29
-63.49
-63.57
-60.14
-53.40
-44.15
-33.53
-22.66
-12.49
-3.68
3.33
8.38
11.64
13.74
15.64
18.35
22.40
27.54
32.73
36.55
37.81
36.13
31.94
26.24
20.10
14.23
8.94
4.35
0.54
-2.32
-4.12
-4.93
-5.01
-4.77
-4.59
-4.62
-4.85
-5.14
-5.36
-5.42
-5.31
-5.01
-4.54
-4.03
-3.76
-4.09
-5.33
-7.47
-10.10
-12.52
-14.04
-14.36
-13.78
-13.15
-13.38
-15.07
-18.17
-21.99
-25.58
-28.08
-29.05
-28.47
-26.59
-23.73
-20.21
-16.32
-12.35
-8.66
-5.51
-3.02
-1.08
0.53
2.11
3.85
5.80
7.89
10.00
11.97
13.67
14.95
15.69
15.83
15.42
14.65
13.80
13.13
12.77
12.67
12.63
12.40
11.85
10.97
9.93
8.88
7.91
7.01
6.06
4.95
3.63
2.16
0.63
-0.85
-2.18
-3.37
-4.50
-5.68
-7.02
-8.55
-10.12
-11.47
-12.28
-12.31
-11.48
-9.90
-7.79
-5.39
-2.96
-0.74
1.10
2.49
3.56
4.57
5.84
7.51
9.48
11.42
12.93
13.79
14.05
13.97
13.82
13.73
13.61
13.32
12.75
11.92
10.96
10.00
9.10
8.28
7.50
6.71
5.90
5.04
4.10
3.08
2.01
0.91
-0.15
-1.16
-2.17
-3.18
-4.19
-5.09
-5.84
-6.49
-7.23
-8.29
-9.74
-11.34
-12.59
-12.89
-11.93
-9.83
-7.11
-4.44
-2.27
-0.64
0.79
2.43
4.47
6.73
8.79
10.22
10.87
10.91
10.73
10.73
11.08
11.71
12.40
12.90
13.07
12.85
12.24
11.29
10.09
8.81
7.66
6.82
6.31
6.01
5.66
5.02
3.98
2.59
0.99
-0.64
-2.17
-3.50
-4.56
-5.33
-5.87
-6.37
-7.05
-8.08
-9.49
-11.02
-12.28
-12.84
-12.43
-11.01
-8.74
-5.93
-2.88
0.13
2.95
5.54
7.94
10.25
12.56
14.88
17.14
19.19
20.89
22.11
22.74
22.69
21.86
20.14
17.49
14.03
9.98
5.72
1.66
-1.90
-4.79
-7.03
-8.72
-9.98
-10.83
-11.23
-11.15
-10.64
-9.90
-9.25
-8.99
-9.31
-10.19
-11.48
-12.91
-14.20
-15.12
-15.57
-15.51
-15.03
-14.32
-13.56
-12.86
-12.16
-11.21
-9.78
-7.71
-5.11
-2.22
0.67
3.41
5.99
8.50
10.94
13.24
15.20
16.64
17.46
17.71
17.55
17.16
16.72
16.33
16.01
15.66
15.10
14.15
12.74
11.01
9.24
7.76
6.72
5.99
5.23
4.04
2.19
-0.23
-2.88
-5.27
-7.03
-8.04
-8.49
-8.77
-9.29
-10.29
-11.76
-13.52
-15.33
-17.03
-18.46
-19.28
-18.83
-16.29
-11.22
-3.98
3.98
10.73
14.67
15.50
14.36
13.28
13.97
16.90
21.13
25.13
27.88
29.63
31.75
35.79
42.36
50.68
58.91
65.17
68.50
69.09
67.81
65.28
61.19
54.28
43.11
27.17
7.57
-12.93
-30.61
-42.15
-45.70
-41.55
-31.91
-20.09
-9.34
-1.89
1.57
1.86
0.75
0.31
2.20
7.26
15.37
25.44
35.77
44.50
50.26
52.59
52.10
49.97
47.37
44.74
41.70
37.43
31.42
24.03
16.54
10.62
7.44
7.21
9.27
12.65
16.76
21.76
28.29
36.78
46.91
57.43
66.40
71.70
71.38
63.60
46.68
19.74
-16.10
-56.47
-93.86
-119.45
-126.26
-112.13
-80.83
-40.54
-0.52
32.20
54.45
66.49
70.25
67.69
60.31
49.62
37.81
27.59
21.42
20.32
23.47
28.60
33.05
34.51
31.64
24.05
12.11
-3.36
-21.09
-39.44
-56.61
-70.97
-81.56
-88.28
-91.89
-93.49
-93.83
-92.91
-89.93
-83.80
-73.98
-61.09
-47.03
-34.39
-25.42
-21.03
-20.35
-21.18
-21.04
-18.23
-12.54
-5.06
2.49
8.62
12.65
14.72
15.23
14.37
11.89
7.40
0.93
-6.76
-14.29
-20.17
-23.50
-24.37
-23.72
-22.84
-22.75
-23.75
-25.41
-26.87
-27.29
-26.18
-23.58
-19.91
-15.75
-11.66
-7.99
-4.96
-2.67
-1.17
-0.44
-0.34
-0.66
-1.09
-1.44
-1.67
-1.96
-2.60
-3.80
-5.56
-7.61
-9.46
-10.58
-10.49
-8.94
-5.91
-1.73
2.98
7.41
10.89
13.16
14.56
16.01
18.53
22.82
28.82
35.68
42.15
47.21
50.53
52.63
54.64
57.87
63.31
71.28
81.29
91.91
100.88
105.22
101.83
88.48
64.91
33.48
-1.16
-33.28
-57.91
-72.20
-75.93
-70.96
-60.03
-45.88
-30.78
-16.75
-5.76
0.28
-0.07
-7.16
-19.97
-36.32
-53.59
-69.50
-82.63
-92.55
-99.45
-103.69
-105.38
-104.17
-99.50
-90.99
-78.83
-64.00
-48.05
-32.68
-19.24
-8.42
-0.11
6.24
11.22
15.05
17.26
16.76
12.31
3.21
-10.03
-25.50
-40.34
-51.53
-56.88
-55.53
-47.84
-34.99
-18.43
0.28
19.39
36.81
50.39
58.55
61.00
59.14
55.83
54.46
57.73
66.67
80.21
95.65
109.68
119.60
124.45
125.20
124.29
124.34
126.81
131.10
134.58
133.44
123.94
103.76
72.80
33.62
-8.75
-47.65
-76.23
-89.23
-84.66
-64.52
-34.18
-0.51
30.52
55.42
73.33
84.59
88.85
84.22
68.19
39.93
2.25
-37.96
-71.68
-91.04
-92.25
-76.64
-49.47
-17.44
13.64
39.70
58.33
67.78
66.59
53.90
29.91
-4.11
-46.29
-94.76
-147.49
-201.39
-251.53
-291.32
-314.11
-315.69
-296.22
-260.49
-216.14
-170.93
-130.30
-96.50
-69.17
-46.82
-27.99
-11.59
3.30
17.79
32.78
48.35
63.16
74.59
79.84
77.06
66.43
50.21
31.82
14.66
1.06
-7.99
-12.42
-12.52
-8.65
-1.49
7.58
16.35
22.30
23.54
19.63
11.64
1.52
-9.08
-19.58
-30.56
-43.02
-57.39
-72.90
-87.90
-100.68
-110.36
-117.06
-121.22
-122.61
-119.59
-109.26
-88.44
-55.23
-10.44
41.80
94.59
139.91
170.81
183.39
177.68
157.18
126.99
92.04
55.82
20.36
-12.91
-42.15
-64.86
-78.53
-81.88
-75.93
-63.53
-48.13
-32.42
-17.66
-4.03
8.80
21.04
32.95
44.72
57.41
72.81
92.49
116.46
142.38
165.83
181.70
185.70
174.38
146.50
103.51
49.80
-7.68
-60.55
-101.00
-124.06
-129.06
-120.66
-105.95
-91.43
-80.90
-75.33
-74.18
-76.91
-83.70
-88.19
-85.99
-75.84
-60.45
-43.86
-28.65
-15.40
-3.82
6.46
15.41
21.77
24.67
24.29
21.78
18.39
14.70
10.82
7.59
7.19
11.50
21.17
34.64
47.93
56.13
55.82
46.44
30.46
11.78
-6.60
-22.71
-34.56
-39.18
-32.99
-14.02
16.67
53.35
87.39
110.44
118.14
111.80
97.08
79.70
65.99
57.94
54.00
51.43
47.91
42.57
36.05
29.75
25.25
24.36
27.99
36.14
47.33
58.38
64.20
60.06
43.44
15.46
-18.50
-51.14
-75.48
-87.11
-85.35
-72.95
-54.63
-35.41
-19.43
-8.37
-2.32
-0.08
-0.20
-1.92
-5.86
-13.71
-27.16
-46.31
-67.75
-85.79
-94.20
-88.73
-68.82
-37.82
-1.60
34.35
62.45
79.34
85.61
84.60
80.59
77.19
76.18
76.75
76.59
70.88
56.34
31.97
-0.20
-35.64
-68.89
-95.34
-112.31
-119.12
-117.13
-108.27
-95.62
-83.34
-75.92
-76.72
-86.53
-103.11
-119.32
-128.23
-124.61
-107.54
-80.76
-51.02
-25.15
-7.54
1.08
3.22
2.75
3.64
8.33
17.38
29.85
44.01
57.99
70.14
79.03
83.86
84.60
82.04
77.58
72.89
69.50
68.50
70.44
75.02
82.12
91.27
101.62
111.73
119.89
124.97
127.22
128.36
130.25
135.27
144.32
156.44
168.54
176.40
176.34
166.42
146.64
117.53
81.52
41.27
-0.59
-42.55
-84.41
-126.85
-170.82
-210.76
-252.22
-292.10
-324.13
-340.35
-334.72
-305.78
-257.08
-195.92
-130.78
-63.99
-3.49
42.89
73.70
92.32
102.27
105.21
102.34
95.77
88.23
82.86
82.48
88.62
100.34
114.57
127.36
136.08
137.58
129.80
113.07
91.21
70.48
56.76
53.05
58.39
68.72
79.05
85.89
88.66
89.51
90.86
92.65
92.44
86.51
72.39
50.37
23.70
-2.97
-25.24
-40.54
-48.36
-49.49
-45.42
-38.07
-30.10
-25.00
-26.60
-37.83
-59.51
-89.66
-123.65
-155.62
-180.17
-194.36
-198.70
-196.95
-194.70
-197.05
-206.55
-222.22
-240.32
-255.76
-263.92
-262.15
-250.25
-230.38
-206.41
-182.87
-163.93
-152.52
-149.46
-153.21
-160.01
-164.76
-162.34
-149.26
-124.94
-92.12
-56.03
-22.52
4.02
22.10
33.19
40.58
47.72
56.89
68.79
82.95
98.37
113.98
128.65
141.14
150.07
154.34
153.56
148.39
140.45
131.80
124.29
118.95
115.86
114.20
112.81
110.59
106.95
101.87
95.79
89.38
83.24
77.91
73.83
71.40
70.83
72.01
74.38
76.91
78.38
77.73
74.42
68.49
60.45
50.96
40.58
29.75
18.84
8.39
-0.90
-8.34
-13.63
-16.96
-18.86
-19.77
-19.66
-18.08
-14.45
-8.69
-1.55
5.47
10.68
12.80
11.38
6.79
0.01
-7.70
-15.09
-21.04
-24.61
-25.21
-22.75
-17.65
-10.76
-3.10
4.43
11.12
16.44
20.05
21.77
21.64
20.05
17.64
15.17
13.23
12.14
11.77
11.70
11.36
10.28
8.24
5.38
2.07
-1.21
-4.05
-6.28
-7.95
-9.24
-10.40
-11.53
-12.66
-13.63
-14.32
-14.64
-14.68
-14.61
-14.69
-15.11
-15.99
-17.38
-19.34
-21.97
-25.36
-29.44
-33.94
-38.34
-42.01
-44.36
-45.01
-43.86
-41.10
-37.17
-32.76
-28.77
-26.15
-25.72
-27.86
-32.35
-38.38
-44.72
-50.10
-53.48
-54.28
-52.51
-48.64
-43.46
-37.77
-32.06
-26.44
-20.68
-14.48
-7.77
-0.86
5.66
11.23
15.52
18.58
20.64
21.94
22.47
22.13
20.86
18.93
16.96
15.81
16.17
18.28
21.71
25.53
28.62
30.13
29.87
28.35
26.46
25.08
24.64
25.04
25.76
26.30
26.48
26.53
26.89
27.84
29.30
30.73
31.41
30.80
28.86
26.12
23.45
21.74
21.47
22.54
24.27
25.72
25.98
24.60
21.66
17.67
13.41
9.54
6.48
4.32
2.94
2.08
1.40
0.60
-0.55
-2.11
-3.91
-5.61
-6.76
-6.99
-6.17
-4.41
-2.02
0.69
3.48
6.28
9.09
11.88
14.54
16.88
18.74
20.14
21.21
22.15
23.08
23.93
24.52
24.63
24.25
23.64
23.22
23.44
24.47
26.14
27.98
29.47
30.24
30.27
29.87
29.58
29.96
31.30
33.50
35.84
37.17
36.05
31.22
21.98
8.50
-8.18
-26.42
-44.37
-60.41
-73.33
-82.43
-87.40
-88.30
-85.50
-79.69
-71.81
-62.93
-54.01
-45.76
-38.47
-32.09
-26.28
-20.68
-15.06
-9.50
-4.34
-0.05
3.00
4.75
5.45
5.57
5.54
5.58
5.66
5.66
5.45
5.06
4.59
4.08
3.43
2.43
0.83
-1.47
-4.30
-7.30
-10.00
-12.03
-13.17
-13.40
-12.88
-11.85
-10.60
-9.44
-8.68
-8.59
-9.29
-10.65
-12.28
-13.59
-14.01
-13.12
-10.89
-7.55
-3.51
0.87
5.39
10.05
14.93
20.03
25.21
30.11
34.34
37.56
39.63
40.61
40.75
40.31
39.50
38.47
37.31
36.20
35.36
35.00
35.21
35.80
36.37
36.40
35.54
33.69
31.06
27.97
24.69
21.32
17.79
14.10
10.35
6.79
3.71
1.29
-0.50
-1.86
-3.02
-4.24
-5.73
-7.64
-10.05
-12.87
-15.87
-18.65
-20.78
-22.00
-22.26
-21.75
-20.78
-19.62
-18.37
-16.99
-15.26
-13.03
-10.18
-6.78
-3.06
0.66
4.00
6.69
8.56
9.66
10.13
10.21
10.05
9.79
9.46
9.09
8.70
8.36
8.11
7.98
7.93
7.84
7.64
7.30
6.92
6.70
6.84
7.45
8.52
9.86
11.19
12.21
12.69
12.48
11.49
9.66
6.96
3.39
-0.88
-5.50
-9.97
-13.70
-16.24
-17.40
-17.39
-16.68
-15.88
-15.48
-15.67
-16.26
-16.82
-16.83
-15.90
-13.88
-10.92
-7.34
-3.58
-0.06
2.89
5.05
6.33
6.80
6.65
6.17
5.69
5.47
5.69
6.38
7.45
8.71
9.91
10.78
11.05
10.57
9.30
7.39
5.13
2.83
0.79
-0.84
-2.04
-2.90
-3.57
-4.17
-4.75
-5.29
-5.74
-6.09
-6.37
-6.71
-7.27
-8.18
-9.45
-10.96
-12.51
-13.92
-15.12
-16.13
-16.94
-17.46
-17.40
-16.49
-14.59
-11.86
-8.71
-5.63
-3.04
-1.07
0.36
1.52
2.66
3.94
5.45
7.14
8.92
10.58
11.87
12.60
12.68
12.22
11.50
10.84
10.48
10.48
10.77
11.18
11.58
11.91
12.15
12.27
12.17
11.66
10.57
8.83
6.59
4.15
1.93
0.23
-0.85
-1.46
-1.98
-2.80
-4.21
-6.22
-8.62
-11.04
-13.20
-14.99
-16.55
-18.18
-20.13
-22.44
-24.81
-26.69
-27.50
-26.98
-25.36
-23.36
-21.97
-22.02
-23.80
-26.89
-30.36
-33.14
-34.66
-35.06
-35.21
-36.15
-38.50
-42.17
-46.47
-50.57
-53.96
-56.41
-57.28
-55.03
-47.56
-33.51
-13.75
8.28
27.81
41.23
48.03
50.89
53.62
58.42
64.37
68.20
66.95
60.45
51.84
45.86
45.92
52.09
61.19
68.87
71.96
69.78
63.66
55.61
47.11
38.59
29.92
21.19
13.20
7.19
4.30
4.87
8.23
12.89
17.10
19.45
19.29
16.75
12.61
7.90
3.64
0.50
-1.28
-1.95
-2.06
-2.21
-2.91
-4.38
-6.60
-9.33
-12.28
-15.10
-17.54
-19.42
-20.75
-21.69
-22.57
-23.75
-25.39
-27.36
-29.22
-30.26
-29.80
-27.34
-22.77
-16.40
-8.87
-1.01
6.40
12.82
18.02
22.03
25.08
27.43
29.40
31.32
33.57
36.54
40.58
45.85
52.17
59.09
66.13
72.99
79.63
86.17
92.72
99.21
105.26
110.10
112.54
111.11
104.36
91.29
71.83
46.98
18.83
-10.15
-37.92
-63.37
-86.19
-106.34
-123.58
-137.31
-146.80
-151.56
-152.26
-151.15
-151.33
-155.23
-163.09
-172.64
-180.06
-181.71
-175.23
-161.04
-142.40
-123.62
-107.44
-93.50
-78.99
-60.73
-36.85
-6.03
31.79
75.17
120.94
164.29
198.89
217.75
215.53
191.83
154.87
118.64
96.95
97.39
118.95
153.28
188.54
213.96
213.54
179.88
119.63
50.67
-10.30
-56.18
-88.00
-109.59
-123.95
-132.44
-134.01
-127.82
-115.13
-99.48
-84.58
-72.50
-63.44
-56.69
-51.38
-45.67
-38.37
-29.97
-22.75
-19.25
-20.66
-26.37
-34.34
-41.99
-46.44
-46.07
-41.40
-34.76
-28.73
-24.73
-22.84
-22.37
-22.58
-22.71
-22.36
-21.55
-20.52
-19.31
-17.70
-15.56
-13.16
-11.27
-10.63
-11.59
-13.87
-16.71
-19.14
-20.30
-19.69
-17.13
-12.75
-6.94
-0.55
5.23
9.09
10.33
9.52
8.63
10.36
16.62
27.09
38.89
47.73
50.05
44.91
34.66
23.88
16.90
15.44
17.83
20.15
18.59
12.00
2.38
-6.41
-10.99
-10.16
-4.98
2.49
10.56
18.24
24.91
29.38
29.71
24.12
12.10
-4.94
-24.06
-42.06
-56.60
-65.96
-68.89
-64.34
-51.96
-32.98
-11.03
8.21
18.90
17.47
5.07
-12.87
-28.69
-35.27
-28.86
-10.81
12.60
32.06
38.59
28.06
2.77
-29.24
-57.24
-72.04
-69.57
-51.99
-24.43
2.53
21.75
31.81
35.63
37.16
38.56
39.40
37.86
32.73
24.55
16.27
11.27
11.38
16.01
22.59
27.92
29.68
27.32
22.06
16.54
13.27
13.39
16.35
20.67
24.97
28.84
32.74
37.38
42.24
45.71
45.51
39.92
29.13
15.26
1.02
-11.67
-22.28
-30.77
-36.62
-38.34
-34.50
-25.14
-12.96
-2.52
1.85
-1.65
-10.87
-21.33
-29.21
-33.52
-35.46
-36.69
-37.34
-35.85
-30.51
-21.30
-10.85
-2.24
2.17
2.52
1.39
2.39
8.35
19.92
35.43
51.68
65.00
72.31
71.96
64.12
50.60
34.32
18.46
5.56
-2.98
-6.77
-6.11
-1.51
6.47
17.01
28.70
39.64
47.93
52.39
53.01
50.92
47.57
44.21
41.21
37.81
32.48
23.78
11.45
-3.11
-17.18
-27.58
-31.93
-29.55
-21.57
-10.26
1.82
12.59
20.59
25.02
25.74
23.44
19.60
16.07
14.48
15.51
18.71
22.90
26.98
30.53
33.86
37.34
40.67
42.68
41.89
37.45
29.72
20.20
10.62
2.04
-5.61
-13.16
-21.27
-29.85
-37.84
-43.95
-47.37
-48.42
-48.37
-48.78
-50.73
-54.26
-58.48
-62.08
-64.05
-64.09
-62.65
-60.48
-58.25
-56.18
-54.13
-51.76
-48.87
-45.59
-42.32
-39.60
-37.88
-37.28
-37.43
-37.56
-36.67
-33.85
-28.60
-20.97
-11.56
-1.24
9.19
19.19
28.47
36.84
43.99
49.50
52.99
54.32
53.76
51.82
49.04
45.64
41.45
36.11
29.31
21.15
12.15
3.24
-4.66
-10.94
-15.54
-18.99
-22.13
-25.74
-30.07
-34.76
-38.95
-41.73
-42.61
-41.80
-40.05
-38.40
-37.70
-38.36
-40.34
-43.34
-46.98
-50.99
-55.05
-58.77
-61.59
-62.92
-62.35
-59.78
-55.54
-50.18
-44.25
-38.08
-31.76
-25.23
-18.58
-12.10
-6.28
-1.60
1.73
3.81
4.95
5.37
5.02
3.64
0.91
-3.18
-8.32
-13.97
-19.78
-25.97
-33.31
-42.64
-54.06
-66.26
-76.71
-82.61
-82.39
-76.81
-69.00
-62.90
-61.47
-65.18
-72.16
-79.47
-84.57
-85.79
-81.63
-70.03
-48.68
-17.17
20.83
56.86
80.17
82.55
62.90
28.53
-8.05
-35.20
-47.38
-46.52
-38.84
-29.44
-18.54
-1.72
26.21
66.52
114.25
159.69
192.86
207.98
205.42
190.61
170.58
150.68
133.15
117.78
103.69
90.89
80.55
74.21
72.59
74.79
78.44
80.70
79.38
73.77
64.85
54.86
46.28
40.88
39.05
39.77
41.04
40.90
38.00
32.09
23.80
14.25
4.33
-5.71
-16.44
-28.86
-43.75
-60.88
-78.64
-94.37
-105.34
-110.07
-109.12
-105.03
-100.84
-98.37
-96.98
-93.68
-84.23
-64.75
-33.08
10.26
61.69
114.75
161.01
191.62
199.55
181.62
139.71
80.45
13.38
-51.70
-107.24
-149.26
-177.12
-192.13
-195.89
-189.50
-173.84
-150.62
-123.24
-96.75
-76.46
-65.85
-64.76
-69.39
-73.72
-72.16
-61.74
-42.83
-18.12
9.18
37.21
65.92
96.07
127.54
158.36
185.26
205.59
218.99
227.75
235.27
243.44
250.77
252.62
243.56
220.22
182.82
134.49
79.38
21.10
-37.53
-93.18
-141.05
-175.51
-192.56
-192.31
-179.60
-161.66
-144.63
-131.12
-120.01
-108.70
-96.05
-83.77
-75.67
-75.44
-84.61
-101.85
-123.49
-144.85
-160.97
-166.87
-157.89
-130.70
-85.44
-27.78
30.90
76.13
95.40
83.42
45.01
-5.95
-51.80
-78.01
-78.86
-58.98
-30.58
-7.83
-1.32
-14.82
-45.32
-85.70
-127.83
-164.79
-191.55
-204.60
-201.19
-179.11
-137.70
-79.13
-9.56
61.11
121.03
159.98
173.17
163.60
141.40
120.06
111.31
120.55
145.21
176.27
202.11
213.12
205.15
180.67
147.26
114.63
91.14
81.33
85.08
98.22
114.34
126.79
130.33
122.35
103.25
75.94
44.76
14.28
-11.18
-27.67
-31.67
-20.72
4.99
40.76
76.85
100.52
100.76
73.25
23.25
-35.93
-88.22
-120.84
-128.10
-111.20
-75.23
-26.05
30.95
90.04
143.95
184.08
202.44
194.25
159.58
103.02
32.32
-43.44
-114.87
-172.72
-208.35
-215.09
-190.20
-136.72
-63.93
14.20
82.35
127.80
143.59
129.93
93.51
44.63
-6.36
-52.10
-89.45
-118.66
-141.31
-158.36
-169.67
-174.90
-174.72
-171.24
-167.05
-163.42
-158.91
-149.64
-130.84
-99.28
-54.70
0.27
61.20
123.14
181.03
229.74
264.19
279.91
274.09
246.38
198.94
136.13
64.11
-9.38
-75.54
-125.79
-153.73
-157.22
-139.13
-106.54
-68.35
-32.89
-6.63
5.91
1.95
-19.10
-54.52
-97.70
-139.36
-170.46
-185.83
-186.07
-176.89
-165.98
-159.83
-161.77
-171.96
-188.36
-207.70
-225.81
-237.61
-237.51
-220.70
-184.92
-132.12
-68.93
-5.80
45.43
74.92
78.24
58.54
26.29
-3.41
-15.81
-1.89
38.24
95.00
152.64
194.55
208.94
192.42
150.74
96.31
43.73
4.71
-15.49
-18.79
-12.11
-3.20
3.18
6.73
10.26
16.72
26.71
38.12
47.95
54.75
60.14
67.93
81.53
101.38
124.08
143.66
154.21
152.72
140.33
121.68
103.12
90.41
86.92
92.83
105.57
121.13
135.71
146.82
153.51
155.49
152.02
141.24
120.51
87.89
43.82
-8.07
-61.41
-108.96
-144.92
-166.58
-174.75
-173.01
-166.17
-158.80
-153.95
-152.27
-152.20
-151.24
-147.92
-143.24
-140.74
-144.60
-157.02
-176.07
-195.52
-207.22
-204.91
-187.25
-158.31
-125.14
-93.72
-66.25
-40.83
-13.37
19.77
59.79
105.31
153.29
200.35
244.04
281.46
308.80
322.19
319.66
302.61
275.53
244.39
214.58
191.27
176.69
170.35
170.14
173.81
179.23
183.85
184.62
178.94
168.71
156.66
144.65
133.03
121.97
112.32
105.42
101.92
100.45
100.76
99.76
92.98
78.35
59.88
46.84
48.77
70.21
84.94
74.18
35.85
-16.27
-66.46
-104.46
-126.13
-132.69
-129.02
-121.42
-110.21
-97.94
-88.34
-85.79
-92.77
-108.84
-131.62
-158.00
-185.26
-209.07
-222.65
-223.00
-211.27
-191.20
-167.62
-145.03
-126.04
-110.44
-93.59
-70.41
-38.64
0.12
41.78
81.36
114.52
138.57
152.35
156.78
153.97
146.59
138.00
131.93
131.22
136.25
144.30
150.22
148.48
136.76
116.81
93.43
71.92
55.48
43.88
34.01
21.49
1.64
-26.30
-59.81
-95.76
-132.67
-170.85
-211.37
-254.16
-297.95
-342.16
-382.86
-414.74
-434.63
-443.38
-444.74
-442.59
-438.10
-430.28
-418.88
-399.76
-367.48
-319.75
-259.39
-192.66
-125.86
-62.36
14.50
98.79
172.34
222.45
249.08
258.60
257.70
252.59
251.82
257.99
267.52
277.30
284.86
286.81
279.22
259.47
218.64
162.69
106.14
60.64
31.84
18.56
15.31
16.03
13.76
7.93
-0.12
-11.27
-28.97
-53.96
-83.75
-115.30
-140.27
-153.85
-153.81
-140.85
-120.14
-99.43
-83.48
-72.40
-62.85
-49.93
-30.11
-1.71
34.46
73.67
104.41
118.62
118.11
110.28
101.47
93.79
86.82
79.51
71.15
62.25
55.01
51.37
51.36
53.17
54.12
52.43
47.69
40.77
33.36
27.93
26.39
28.97
34.32
39.93
43.05
40.96
31.94
16.16
-3.48
-22.56
-37.08
-44.96
-46.76
-44.37
-40.17
-35.88
-31.94
-27.56
-21.94
-15.33
-9.13
-4.89
-3.26
-3.69
-4.64
-4.51
-2.21
2.16
7.23
10.83
11.07
7.06
-0.97
-11.74
-23.26
-33.15
-39.22
-39.02
-32.77
-23.21
-14.46
-10.28
-12.26
-19.10
-27.19
-32.37
-31.94
-25.84
-16.12
-5.51
3.76
11.40
17.70
22.98
27.01
29.12
28.55
25.20
19.96
14.38
10.02
7.61
6.88
6.65
5.49
2.31
-3.02
-9.67
-16.32
-21.67
-24.94
-25.34
-22.58
-16.80
-8.73
0.27
8.39
13.87
15.73
14.19
10.64
6.90
4.33
3.35
3.52
4.10
4.62
4.99
5.19
4.87
3.27
-0.29
-5.81
-12.34
-18.45
-22.93
-25.48
-26.67
-27.41
-28.14
-28.45
-27.23
-23.41
-16.63
-7.56
2.31
11.29
18.04
21.95
23.22
22.90
22.61
24.19
29.06
37.51
48.34
59.05
66.79
69.41
66.46
59.40
51.22
45.40
44.81
50.70
62.10
75.81
86.99
90.71
83.67
65.68
39.87
11.65
-13.42
-31.81
-43.13
-49.84
-55.70
-64.05
-76.40
-92.19
-109.26
-124.76
-136.10
-141.69
-141.32
-136.12
-127.98
-118.63
-109.02
-99.11
-88.45
-76.85
-64.87
-53.48
-43.54
-35.12
-27.32
-18.85
-8.81
2.76
14.92
26.41
36.41
44.83
52.17
59.13
66.21
73.63
81.42
89.51
97.56
104.81
109.99
111.58
108.37
100.02
87.42
72.61
58.35
47.46
42.16
43.46
50.92
62.53
75.01
84.51
87.59
82.28
68.68
48.76
25.47
1.44
-21.74
-43.43
-63.04
-79.19
-89.63
-92.10
-85.88
-72.92
-57.77
-46.00
-41.93
-46.66
-57.65
-70.05
-78.88
-81.14
-76.74
-67.87
-57.57
-48.17
-40.41
-33.52
-26.00
-16.73
-5.73
5.70
15.53
21.95
24.31
23.44
21.28
19.90
20.46
22.68
25.11
26.05
24.57
20.98
16.54
12.56
9.70
7.67
5.66
3.02
-0.18
-3.24
-5.27
-5.60
-4.09
-0.90
3.77
9.89
17.55
26.71
36.89
47.11
56.04
62.31
64.88
63.26
57.84
50.15
42.90
39.56
43.29
55.66
75.64
99.55
121.98
137.64
143.03
137.51
123.05
103.15
81.20
59.40
38.39
17.83
-2.61
-22.40
-40.05
-53.70
-62.12
-65.54
-65.84
-65.90
-68.32
-74.43
-83.86
-94.85
-105.10
-112.58
-116.07
-115.39
-111.16
-104.45
-96.34
-87.62
-78.62
-69.42
-59.98
-50.42
-41.05
-32.19
-24.02
-16.46
-9.36
-2.72
3.16
7.69
10.32
10.90
9.75
7.58
5.19
3.26
2.26
2.37
3.49
5.17
6.69
7.30
6.51
4.36
1.48
-1.16
-2.68
-2.72
-1.64
-0.28
0.38
-0.32
-2.57
-6.08
-10.27
-14.53
-18.30
-21.18
-22.86
-23.15
-21.93
-19.23
-15.18
-10.11
-4.51
1.10
6.30
10.90
14.97
18.61
21.81
24.39
26.10
26.86
26.89
26.57
26.16
25.53
24.15
21.49
17.39
12.42
7.64
4.08
2.18
1.53
1.12
-0.02
-2.32
-5.45
-8.58
-10.95
-12.24
-12.72
-13.08
-14.04
-15.99
-18.90
-22.31
-25.51
-27.69
-28.17
-26.63
-23.24
-18.75
-14.33
-11.12
-9.91
-10.73
-12.95
-15.50
-17.34
-17.76
-16.46
-13.48
-8.95
-3.03
4.05
11.86
19.63
26.41
31.29
33.77
33.96
32.53
30.34
28.01
25.76
23.51
21.33
19.79
19.95
22.82
28.64
36.36
43.87
48.95
50.34
48.30
44.12
39.01
33.12
25.59
15.44
2.81
-10.54
-21.83
-28.67
-30.28
-27.71
-23.04
-18.11
-13.61
-9.28
-4.60
0.35
4.62
6.90
6.20
2.45
-3.48
-10.07
-15.64
-18.93
-19.49
-17.83
-15.18
-12.94
-11.96
-12.01
-11.80
-9.66
-4.50
3.56
13.09
22.04
28.62
31.91
31.94
29.49
25.89
23.04
23.45
29.85
44.21
66.24
92.46
116.53
131.13
130.62
113.38
82.46
44.29
6.09
-26.70
-51.83
-69.91
-82.93
-92.71
-100.18
-105.80
-110.47
-115.99
-124.69
-138.10
-155.69
-174.50
-190.09
-198.32
-196.88
-186.16
-168.63
-147.60
-125.97
-105.41
-86.33
-68.18
-49.87
-30.44
-9.57
12.12
33.19
52.01
67.55
79.81
89.51
97.25
102.72
104.67
101.82
94.01
82.87
71.32
62.18
56.86
54.87
54.44
53.71
51.59
47.93
43.11
37.81
33.15
30.92
33.43
42.56
58.34
77.99
96.26
107.25
106.83
94.41
73.13
48.45
25.92
9.46
0.70
-0.63
4.12
13.07
23.96
34.26
41.45
43.72
40.65
33.39
24.12
15.04
7.49
1.73
-2.71
-6.20
-8.54
-8.95
-6.56
-1.09
6.76
15.36
22.46
25.58
22.50
11.64
-7.44
-33.85
-65.21
-98.02
-128.34
-152.67
-168.70
-175.78
-174.82
-167.79
-157.11
-144.93
-132.69
-121.06
-110.18
-99.92
-90.01
-79.88
-68.50
-54.64
-37.35
-16.60
6.49
29.97
51.78
70.48
85.37
96.27
103.09
105.72
104.31
99.63
93.21
86.87
81.95
78.77
76.67
74.65
72.04
68.84
65.49
62.50
60.08
58.20
56.69
55.46
54.45
53.49
52.13
49.72
45.82
40.75
35.98
33.94
37.29
47.73
64.91
86.11
106.89
122.52
129.60
127.10
116.25
99.50
79.13
56.31
31.10
3.27
-26.74
-57.26
-85.79
-109.83
-128.04
-140.81
-150.10
-158.45
-167.71
-177.98
-187.48
-193.33
-192.98
-185.36
-171.37
-153.37
-133.95
-114.93
-96.85
-79.20
-61.12
-42.09
-22.19
-2.06
17.41
35.20
50.39
62.21
70.35
75.12
77.29
77.90
77.67
76.72
74.47
69.92
61.98
49.86
33.64
14.84
-3.21
-15.59
-16.96
-3.28
26.33
68.68
116.97
162.55
197.23
215.36
214.84
197.03
165.69
125.49
80.57
33.53
-14.72
-64.07
-113.82
-161.53
-202.96
-233.32
-249.41
-250.96
-240.68
-222.74
-200.87
-177.09
-151.95
-125.73
-99.68
-76.18
-57.75
-45.52
-38.47
-33.92
-28.91
-21.82
-12.82
-3.25
5.40
12.43
17.80
21.43
22.41
19.09
10.17
-3.76
-19.37
-30.83
-31.47
-16.27
15.95
61.50
112.63
159.66
193.83
209.74
206.65
188.08
160.10
128.87
98.43
69.70
41.08
10.45
-22.84
-56.87
-87.69
-111.34
-125.84
-131.99
-132.49
-130.07
-125.85
-119.11
-108.51
-93.77
-76.60
-59.95
-46.22
-35.75
-26.55
-15.57
-0.78
17.52
36.71
53.22
64.23
68.85
68.14
64.27
59.43
54.95
51.10
47.33
42.77
36.81
29.58
22.35
17.57
18.34
27.29
45.13
69.67
95.88
117.36
128.61
127.24
114.73
95.67
75.64
58.98
47.62
41.26
38.59
38.41
40.15
43.52
47.87
51.92
54.10
53.12
48.60
41.02
31.29
20.03
7.37
-6.77
-22.02
-37.23
-50.72
-61.10
-68.19
-73.21
-78.40
-86.00
-97.40
-112.78
-131.30
-151.42
-171.15
-187.98
-199.02
-201.57
-194.18
-177.49
-154.39
-129.08
-105.44
-85.50
-69.02
-54.08
-38.45
-20.79
-1.16
19.17
38.33
54.48
66.09
72.12
72.16
66.69
57.34
46.92
38.99
36.85
42.44
55.52
73.61
92.79
109.08
119.73
123.87
122.09
115.59
105.40
92.41
77.99
64.69
56.21
56.33
67.05
87.20
112.26
135.63
150.73
152.95
140.66
115.06
79.16
36.65
-8.86
-53.87
-94.92
-128.83
-153.29
-167.55
-172.70
-171.13
-165.70
-158.51
-150.17
-140.02
-127.20
-111.74
-95.16
-79.85
-67.56
-58.82
-52.45
-45.76
-35.58
-19.84
1.55
26.35
51.08
72.73
88.63
96.91
97.39
91.78
82.75
73.15
64.95
59.32
57.63
59.79
63.99
67.63
68.05
62.88
51.43
35.24
19.37
12.01
19.58
42.61
75.14
106.54
125.09
122.79
97.08
44.16
-24.35
-85.43
-121.11
-127.79
-111.88
-85.84
-55.91
-28.08
-8.66
-2.67
-12.56
-39.04
-76.80
-115.21
-141.89
-146.89
-127.44
-82.24
-23.68
28.39
60.92
74.02
75.01
70.89
65.45
58.98
51.11
42.35
35.08
32.05
34.70
42.11
51.48
59.07
60.88
54.04
37.56
14.05
-11.26
-32.60
-46.26
-51.77
-51.36
-48.64
-46.51
-46.57
-46.87
-44.77
-38.85
-29.91
-20.32
-12.45
-7.55
-5.47
-5.34
-5.82
-5.89
-5.13
-3.69
-1.87
0.11
2.08
3.82
5.04
5.68
5.83
5.69
5.33
4.65
3.53
2.00
0.41
-0.62
-0.36
1.40
4.28
7.42
9.81
10.68
9.76
7.28
3.85
0.17
-3.20
-5.91
-7.93
-9.47
-10.93
-12.75
-15.12
-17.89
-20.46
-22.01
-21.79
-19.53
-15.50
-10.52
-5.57
-1.52
1.15
2.47
2.83
2.81
3.01
3.78
5.18
6.94
8.61
9.73
10.03
9.45
8.16
6.41
4.49
2.62
1.02
-0.07
-0.52
-0.32
0.34
1.09
1.56
1.48
0.73
-0.67
-2.68
-5.22
-8.15
-11.25
-14.12
-16.35
-17.70
-18.18
-18.12
-17.99
-18.27
-19.19
-20.75
-22.69
-24.60
-25.98
-26.26
-24.95
-21.78
-16.84
-10.64
-3.97
2.36
7.79
12.14
15.59
18.46
20.89
22.71
23.56
23.08
21.19
18.21
14.87
11.98
10.22
9.78
10.43
11.54
12.48
12.83
12.55
11.92
11.34
11.05
11.06
11.17
11.12
10.74
9.98
8.93
7.67
6.28
4.78
3.23
1.69
0.27
-1.02
-2.19
-3.29
-4.29
-4.98
-4.97
-3.84
-1.33
2.42
6.87
11.23
14.70
16.75
17.30
16.62
15.18
13.45
11.72
10.13
8.80
7.88
7.50
7.74
8.47
9.39
10.13
10.39
10.02
9.13
7.91
6.63
5.48
4.57
3.92
3.43
2.96
2.35
1.45
0.16
-1.54
-3.59
-5.83
-8.06
-10.11
-11.91
-13.53
-15.18
-17.14
-19.60
-22.53
-25.56
-28.08
-29.44
-29.13
-26.99
-23.16
-17.95
-11.69
-4.69
2.75
10.21
17.11
22.77
26.59
28.30
28.05
26.44
24.28
22.37
21.23
21.00
21.48
22.21
22.63
22.26
20.80
18.27
14.96
11.34
7.89
4.91
2.51
0.63
-0.80
-1.76
-2.26
-2.37
-2.38
-2.68
-3.63
-5.33
-7.61
-10.20
-12.99
-16.12
-19.90
-24.47
-29.57
-34.45
-38.20
-40.15
-40.17
-38.62
-36.16
-33.25
-29.99
-26.15
-21.39
-15.58
-8.99
-2.15
4.28
9.78
14.00
16.81
18.14
18.15
17.18
15.79
14.59
13.94
13.74
13.40
12.25
9.84
6.47
3.23
1.50
2.33
5.79
10.80
15.48
18.09
17.36
13.38
7.43
1.44
-2.83
-4.63
-4.43
-3.73
-3.95
-6.39
-11.18
-17.43
-23.80
-29.09
-32.76
-34.99
-36.55
-37.94
-39.84
-41.96
-42.94
-40.40
-31.41
-13.32
15.21
50.90
92.06
133.25
168.49
192.32
200.78
192.19
167.34
129.22
82.48
33.04
-13.81
-53.40
-82.54
-99.77
-105.34
-100.94
-89.32
-73.79
-57.32
-42.88
-32.52
-27.33
-27.60
-32.74
-41.45
-51.64
-60.63
-65.30
-63.32
-53.68
-37.50
-18.08
-0.17
11.45
13.44
4.97
-12.00
-33.51
-54.48
-69.89
-75.78
-69.86
-52.06
-24.59
8.28
41.06
68.21
85.59
91.53
87.02
74.96
58.89
41.79
25.44
10.62
-2.20
-12.34
-18.73
-20.57
-17.99
-12.53
-6.79
-3.56
-4.73
-10.64
-20.33
-32.09
-44.30
-55.83
-65.84
-73.48
-77.60
-77.05
-71.20
-60.55
-46.88
-32.81
-20.94
-12.98
-9.22
-8.73
-9.93
-11.42
-12.39
-12.67
-12.34
-11.37
-9.49
-6.37
-1.93
3.46
9.03
14.10
18.38
22.18
26.16
30.84
36.15
41.28
45.09
46.62
45.65
42.86
39.49
36.80
35.45
35.25
35.36
34.78
32.99
30.34
27.94
27.17
29.05
33.70
40.16
46.70
51.34
52.34
48.49
39.14
24.20
4.18
-19.57
-44.76
-68.36
-87.15
-98.47
-100.90
-94.50
-80.63
-61.38
-39.13
-16.09
5.77
24.85
40.07
50.98
57.88
61.67
63.52
64.50
65.27
65.98
66.31
65.64
63.20
58.30
50.60
40.23
27.99
15.28
3.83
-4.68
-9.12
-9.26
-5.77
-0.03
6.32
11.79
15.36
16.47
14.89
10.54
3.43
-6.28
-18.02
-30.72
-42.82
-52.65
-58.86
-60.85
-58.89
-54.01
-47.56
-40.78
-34.48
-28.87
-23.65
-18.13
-11.40
-2.51
9.20
23.79
40.38
57.10
71.44
80.96
84.06
80.47
71.30
58.56
44.49
31.01
19.47
10.69
5.06
2.57
2.68
4.20
5.36
4.19
-0.84
-10.16
-22.92
-37.15
-50.47
-60.87
-67.34
-69.98
-69.66
-67.53
-64.47
-60.95
-57.11
-52.98
-48.63
-44.13
-39.43
-34.38
-28.72
-22.35
-15.42
-8.38
-1.83
3.72
7.97
10.83
12.25
12.06
10.00
5.99
0.38
-5.91
-11.72
-16.07
-18.60
-19.71
-20.22
-20.96
-22.31
-24.20
-26.28
-28.25
-29.96
-31.34
-32.18
-32.14
-30.76
-27.71
-22.88
-16.36
-8.38
0.75
10.60
20.55
29.82
37.54
43.00
45.78
45.89
43.72
40.06
35.95
32.51
30.72
31.11
33.67
37.86
42.83
47.64
51.40
53.45
53.27
50.67
45.79
39.29
32.19
25.69
20.71
17.58
15.93
14.81
13.17
10.37
6.43
1.99
-2.05
-4.98
-6.65
-7.47
-8.08
-9.05
-10.57
-12.51
-14.54
-16.40
-18.07
-19.81
-22.02
-25.05
-28.97
-33.42
-37.64
-40.61
-41.49
-39.81
-35.72
-29.85
-23.07
-16.15
-9.60
-3.65
1.63
6.21
10.01
13.02
15.33
17.14
18.80
20.61
22.71
24.90
26.68
27.45
26.83
24.87
22.12
19.41
17.47
16.64
16.76
17.31
17.68
17.38
16.19
14.17
11.63
9.07
7.12
6.26
6.60
7.78
8.99
9.26
7.92
4.83
0.53
-3.98
-7.50
-8.95
-7.60
-3.20
4.00
13.13
22.82
31.44
37.49
39.94
38.52
33.68
26.37
17.73
8.79
0.32
-7.16
-13.35
-18.04
-21.10
-22.41
-21.93
-19.71
-16.00
-11.36
-6.59
-2.60
-0.13
0.48
-0.59
-2.78
-5.33
-7.63
-9.37
-10.58
-11.44
-12.17
-12.88
-13.66
-14.69
-16.27
-18.71
-22.08
-25.95
-29.29
-30.71
-28.95
-23.41
-14.48
-3.40
8.10
18.43
26.46
31.71
34.21
34.33
32.60
29.61
25.93
22.10
18.57
15.67
13.57
12.31
11.71
11.42
10.99
9.88
7.71
4.26
-0.33
-5.62
-10.96
-15.61
-18.96
-20.64
-20.59
-19.02
-16.33
-13.02
-9.60
-6.55
-4.25
-2.96
-2.74
-3.47
-4.98
-7.13
-10.02
-13.85
-18.81
-24.72
-30.95
-36.53
-40.46
-42.09
-41.33
-38.56
-34.36
-29.23
-23.38
-16.86
-9.77
-2.41
4.64
10.75
15.41
18.48
20.17
20.92
21.23
21.46
21.82
22.34
22.87
23.17
22.93
21.91
19.99
17.32
14.20
11.00
7.97
5.15
2.43
-0.32
-3.14
-5.85
-8.25
-10.16
-11.65
-12.99
-14.47
-16.37
-18.79
-21.76
-25.26
-29.19
-33.40
-37.54
-41.17
-43.76
-44.86
-44.20
-41.79
-37.84
-32.65
-26.46
-19.48
-11.96
-4.22
3.33
10.23
15.98
20.22
22.79
23.84
23.83
23.16
22.27
21.54
21.20
21.18
21.25
21.17
20.87
20.42
19.62
18.35
16.75
15.10
13.66
12.48
11.50
10.57
9.61
8.10
5.86
3.36
1.36
0.32
0.09
-0.04
-0.91
-3.10
-7.44
-13.93
-21.42
-28.21
-33.11
-36.29
-39.31
-44.73
-49.74
-52.77
-53.95
-53.88
-51.99
-47.10
-38.98
-28.95
-19.00
-10.78
-5.92
-5.06
-7.23
-9.95
-9.87
-3.70
10.51
32.29
58.00
83.05
102.38
112.79
113.92
107.73
97.17
84.95
73.00
62.56
54.15
48.09
44.65
43.53
43.41
42.19
37.83
28.93
16.17
1.27
-13.48
-26.01
-35.29
-41.70
-46.61
-51.49
-56.99
-62.57
-66.95
-68.92
-67.81
-63.74
-57.45
-49.73
-40.98
-31.10
-19.80
-7.07
6.54
20.02
32.22
42.09
48.83
51.91
51.12
46.62
38.99
29.15
18.40
8.19
0.07
-4.57
-4.72
-0.12
8.49
19.38
30.23
38.97
44.43
46.64
46.52
45.18
43.29
40.82
37.22
31.86
24.33
14.50
2.33
-12.24
-29.15
-47.81
-66.77
-83.79
-96.48
-103.22
-103.84
-99.50
-91.94
-82.52
-71.55
-58.47
-42.65
-24.22
-4.43
14.81
31.73
45.45
56.07
64.32
70.92
76.23
80.34
83.27
85.08
85.73
84.82
81.50
74.85
64.42
50.82
35.70
21.25
9.34
0.83
-4.62
-8.20
-11.28
-14.92
-19.64
-25.44
-32.04
-39.09
-46.20
-53.05
-59.48
-65.54
-71.52
-77.83
-84.71
-92.08
-99.40
-105.84
-110.54
-112.94
-112.81
-110.27
-105.53
-98.86
-90.67
-81.65
-72.77
-64.95
-58.62
-53.32
-47.85
-40.86
-31.71
-20.91
-9.93
-0.51
6.20
10.15
12.14
13.28
14.35
15.57
16.71
17.34
17.04
15.42
12.32
7.89
2.75
-2.12
-5.79
-7.84
-8.50
-8.33
-7.71
-6.39
-3.65
1.22
8.39
17.30
26.94
36.39
45.03
52.51
58.41
61.96
62.39
59.41
53.87
47.89
44.38
46.08
54.42
68.97
87.43
106.34
122.05
131.73
134.05
129.29
119.03
105.51
90.81
76.44
63.08
50.83
39.50
28.83
18.66
8.85
-0.61
-9.56
-17.56
-23.88
-27.72
-28.57
-26.53
-22.50
-17.92
-14.32
-12.85
-14.01
-17.59
-22.86
-28.82
-34.45
-38.99
-42.06
-43.82
-44.82
-45.81
-47.49
-50.30
-54.35
-59.44
-65.17
-70.92
-76.03
-79.85
-81.94
-82.19
-80.79
-78.01
-73.96
-68.46
-61.19
-52.18
-42.10
-32.40
-24.91
-21.18
-21.78
-26.03
-32.29
-38.57
-43.15
-44.78
-42.62
-36.02
-24.71
-9.15
9.19
27.95
44.58
57.34
65.96
71.58
75.89
79.97
83.58
85.32
83.56
77.63
68.29
57.39
46.83
37.70
30.08
23.28
16.63
9.97
3.77
-1.25
-4.48
-5.70
-5.05
-2.83
0.59
4.85
9.56
14.49
19.65
25.39
32.01
39.46
47.00
53.29
57.00
57.54
55.45
52.19
49.47
48.47
49.20
50.63
51.07
48.96
43.36
34.25
22.53
9.77
-2.28
-12.27
-19.97
-26.50
-33.92
-44.25
-58.26
-74.84
-91.52
-105.64
-115.63
-121.45
-124.01
-124.05
-121.50
-115.68
-106.31
-94.51
-82.76
-73.84
-69.30
-68.54
-69.10
-68.05
-63.52
-55.51
-45.43
-34.98
-25.06
-15.40
-5.09
6.62
19.59
32.83
44.89
54.52
61.07
64.61
65.70
65.22
64.00
62.66
61.43
60.18
58.69
56.79
54.55
52.06
49.31
46.04
41.87
36.63
30.55
24.33
18.74
14.35
11.25
9.10
7.47
6.04
4.78
3.72
2.90
2.23
1.45
0.22
-1.77
-4.70
-8.45
-12.36
-15.38
-16.23
-13.92
-8.11
0.69
11.27
21.99
31.29
38.22
42.60
45.09
46.72
48.41
50.45
52.47
53.76
53.78
52.58
50.73
48.99
47.88
47.49
47.61
48.02
48.71
49.72
50.89
51.65
51.17
48.79
44.54
39.27
34.36
30.93
29.27
28.70
27.94
25.87
22.07
16.92
11.22
5.61
0.29
-4.98
-10.51
-16.31
-21.89
-26.29
-28.29
-26.80
-21.17
-11.51
1.21
15.39
29.28
41.36
50.75
57.04
59.99
59.35
54.83
46.44
34.70
20.81
6.36
-7.02
-17.96
-25.59
-29.65
-30.72
-30.24
-30.24
-32.78
-39.11
-49.08
-61.17
-73.09
-82.79
-89.24
-92.63
-93.96
-94.38
-94.61
-94.85
-95.12
-95.58
-96.71
-99.14
-103.26
-108.88
-115.20
-121.14
-125.76
-128.69
-130.21
-130.98
-131.60
-132.37
-133.09
-133.31
-132.65
-131.01
-128.76
-126.66
-125.57
-126.22
-128.98
-133.68
-139.55
-145.31
-149.30
-149.76
-145.34
-135.56
-121.22
-104.28
-87.33
-72.63
-61.24
-52.53
-44.55
-34.88
-21.62
-4.11
17.14
40.91
65.88
91.00
115.32
137.72
156.68
170.41
177.34
176.77
169.19
156.31
140.56
124.27
109.05
95.58
83.60
72.44
61.65
51.54
43.10
37.46
35.41
36.99
41.77
48.92
57.48
66.54
75.29
82.88
88.48
91.39
91.37
89.19
85.99
82.85
80.42
78.95
78.28
77.82
76.79
74.42
71.34
68.39
66.05
64.54
64.15
65.08
67.03
69.13
70.30
71.83
74.85
79.02
82.78
84.55
83.12
77.62
67.77
54.21
41.83
34.70
33.39
35.39
37.85
39.03
38.48
36.87
35.44
39.53
52.16
71.62
93.49
114.80
135.70
158.27
184.71
188.90
157.77
100.73
39.49
-11.39
-48.11
-72.25
-87.36
-97.82
-107.88
-116.26
-120.95
-121.70
-119.69
-115.80
-110.76
-105.95
-103.33
-104.13
-105.20
-103.29
-97.66
-89.90
-81.94
-75.05
-69.90
-66.73
-65.34
-63.25
-58.46
-51.19
-42.98
-35.12
-28.23
-22.54
-18.19
-15.32
-13.10
-11.09
-9.74
-9.84
-11.66
-14.73
-17.95
-20.21
-20.77
-19.18
-15.75
-11.58
-8.01
-5.48
-4.19
-3.72
-3.18
-1.73
0.97
4.48
7.73
9.57
9.35
7.22
4.08
1.04
-1.26
-2.90
-4.63
-7.49
-12.47
-20.24
-30.91
-43.77
-57.05
-68.14
-74.21
-73.20
-64.96
-51.47
-36.47
-24.04
-17.07
-16.31
-20.35
-26.47
-32.00
-35.18
-35.45
-33.11
-28.88
-23.55
-17.86
-12.62
-8.53
-6.13
-5.37
-5.34
-4.51
-1.38
4.74
13.31
22.73
31.06
36.57
38.41
37.12
34.42
32.48
33.07
37.00
43.92
52.67
61.12
66.94
68.87
67.33
64.10
61.42
61.13
64.03
69.92
76.82
81.81
82.75
79.30
72.66
64.83
58.01
54.23
55.29
60.88
68.45
74.37
74.95
66.94
48.20
18.41
-22.84
-67.37
-103.08
-122.83
-127.64
-122.54
-112.31
-100.07
-87.74
-76.59
-67.25
-60.81
-58.07
-58.24
-59.03
-57.94
-53.82
-47.45
-40.76
-35.64
-34.03
-36.98
-43.45
-50.04
-52.32
-46.81
-32.68
-12.11
10.45
29.56
40.88
43.06
38.19
30.86
26.41
27.86
35.71
47.09
56.10
55.96
42.24
15.48
-18.13
-49.03
-68.32
-71.32
-59.71
-39.95
-19.64
-3.99
5.76
11.54
15.77
19.45
21.95
21.87
18.36
12.24
5.71
1.27
0.72
4.07
9.77
15.50
18.91
18.60
14.94
9.97
4.57
0.35
-1.73
-1.62
-0.20
0.97
0.29
-2.86
-7.92
-13.45
-17.46
-18.30
-14.73
-6.01
8.09
24.91
40.58
51.49
56.43
56.45
53.28
48.58
43.59
38.87
34.34
29.94
25.99
23.05
21.67
21.86
23.12
24.62
25.68
26.25
27.15
29.35
32.68
35.20
33.80
25.84
10.89
-8.57
-28.05
-42.81
-49.81
-49.20
-44.04
-38.64
-36.52
-39.23
-46.85
-58.21
-71.66
-84.77
-94.11
-95.49
-85.10
-61.53
-27.42
10.41
42.70
60.46
60.19
44.61
20.82
-3.21
-21.97
-34.13
-40.66
-43.25
-42.83
-39.10
-31.64
-20.89
-8.73
2.03
8.92
11.02
9.19
5.43
1.93
0.15
0.37
1.97
4.04
5.64
5.85
3.67
-1.75
-10.44
-21.15
-31.51
-38.89
-41.58
-39.59
-34.45
-28.26
-22.51
-17.76
-13.37
-8.23
-1.83
5.18
11.25
14.89
15.43
13.37
9.93
6.33
3.07
-0.09
-3.72
-8.10
-12.87
-17.11
-19.80
-20.13
-17.69
-12.58
-5.31
3.33
12.37
20.85
28.03
33.49
37.22
39.61
41.14
42.11
42.53
42.17
40.76
38.30
35.07
31.62
28.52
26.13
24.44
23.18
21.95
20.45
18.55
16.20
13.38
10.04
6.19
2.06
-1.86
-4.94
-6.70
-7.14
-6.84
-6.74
-7.70
-10.05
-13.45
-17.10
-20.22
-22.44
-24.00
-25.48
-27.48
-30.14
-32.96
-34.85
-34.59
-31.22
-24.51
-15.06
-4.12
6.77
16.31
23.69
28.78
31.92
33.64
34.43
34.56
34.15
33.27
32.03
30.61
29.25
28.11
27.26
26.64
26.09
25.40
24.37
22.86
20.76
18.05
14.85
11.35
7.78
4.33
1.14
-1.77
-4.39
-6.73
-8.83
-10.79
-12.79
-14.96
-17.22
-19.25
-20.53
-20.61
-19.39
-17.29
-15.03
-13.23
-12.00
-10.84
-8.87
-5.35
-0.07
6.43
13.20
19.23
23.85
26.86
28.46
29.02
28.93
28.51
28.00
27.60
27.44
27.50
27.46
26.68
24.36
19.96
13.57
6.17
-0.57
-4.89
-5.71
-3.15
1.44
6.07
8.96
9.18
6.91
3.10
-1.17
-5.11
-8.42
-11.16
-13.52
-15.65
-17.67
-19.74
-22.03
-24.61
-27.38
-29.89
-31.49
-31.49
-29.47
-25.48
-19.99
-13.71
-7.40
-1.63
3.36
7.52
10.96
13.80
16.16
18.12
19.74
21.09
22.18
22.88
23.00
22.34
20.85
18.70
16.22
13.88
11.99
10.73
10.10
9.91
9.83
9.49
8.53
6.70
4.02
0.78
-2.48
-5.18
-6.94
-7.70
-7.77
-7.64
-7.80
-8.58
-10.08
-12.25
-14.86
-17.62
-20.06
-21.61
-21.66
-19.90
-16.60
-12.74
-9.74
-8.85
-10.55
-14.11
-17.85
-19.84
-18.73
-14.34
-7.69
-0.29
6.51
11.95
15.88
18.42
19.72
19.82
18.85
17.00
14.75
12.70
11.21
10.22
9.38
8.33
6.93
5.26
3.29
1.18
-0.82
-2.59
-4.28
-6.04
-8.02
-10.16
-12.20
-14.03
-15.21
-15.16
-13.92
-12.53
-12.65
-16.01
-23.43
-34.30
-47.02
-58.61
-65.72
-66.05
-59.30
-46.79
-30.92
-14.27
4.26
22.24
35.68
42.29
43.02
39.71
34.96
30.33
26.15
21.78
17.03
12.02
7.87
6.02
7.10
10.60
14.96
18.54
20.55
20.99
20.81
21.04
21.62
21.21
18.21
11.78
2.48
-7.95
-17.66
-25.12
-29.43
-30.50
-28.83
-25.12
-19.91
-13.53
-6.21
1.53
8.78
14.34
16.95
15.67
10.36
1.80
-8.55
-19.12
-28.71
-36.46
-41.58
-43.22
-40.50
-33.00
-21.26
-7.08
6.92
18.21
25.28
28.04
27.61
25.60
23.35
21.49
19.86
17.93
15.27
11.87
8.22
5.02
2.91
2.22
2.84
4.11
5.10
5.07
3.82
1.78
-0.25
-1.46
-1.38
-0.08
1.53
2.21
0.97
-2.38
-7.26
-12.68
-17.51
-20.78
-21.98
-21.96
-22.36
-24.50
-28.32
-32.30
-34.34
-32.71
-26.95
-18.28
-10.38
-7.29
-11.01
-19.96
-29.90
-36.56
-37.70
-33.65
-26.43
-19.99
-17.87
-21.91
-32.06
-47.98
-70.03
-98.02
-129.00
-147.91
-138.99
-96.83
-33.92
26.78
66.06
76.57
63.43
39.97
20.87
14.68
21.93
37.56
55.50
71.38
82.85
89.03
89.94
85.91
76.46
61.13
40.73
18.39
-1.38
-14.97
-20.87
-19.92
-15.64
-12.13
-13.60
-22.03
-35.79
-50.13
-59.15
-58.03
-44.79
-21.85
4.44
25.91
36.16
33.31
20.03
1.60
-16.71
-30.91
-39.04
-40.56
-35.54
-23.93
-5.82
17.75
44.22
67.44
82.51
88.22
86.87
82.09
76.69
71.76
66.68
60.48
53.04
45.85
41.16
40.80
45.45
54.26
64.71
72.31
71.44
57.24
28.47
-10.94
-52.14
-84.11
-99.02
-93.94
-72.31
-42.38
-13.40
8.26
20.60
24.79
22.91
16.22
5.07
-9.81
-26.27
-41.04
-50.51
-52.27
-46.50
-35.88
-24.27
-14.96
-9.82
-9.06
-11.59
-15.44
-18.57
-19.67
-18.53
-16.02
-13.59
-13.22
-15.98
-22.44
-32.28
-44.13
-55.60
-63.61
-65.12
-58.05
-42.27
-19.93
4.84
27.09
42.47
48.36
44.57
33.10
17.49
1.58
-11.50
-20.19
-24.43
-25.29
-24.28
-22.65
-21.13
-19.90
-18.95
-18.20
-17.63
-17.10
-16.28
-14.74
-11.99
-8.01
-3.16
2.10
7.46
12.72
17.75
22.41
26.51
29.97
32.91
35.64
38.53
41.75
45.17
48.42
51.11
53.02
54.14
54.56
54.40
53.75
52.73
51.58
50.69
50.29
50.19
49.49
46.66
40.07
28.66
12.60
-6.65
-26.70
-45.01
-59.69
-69.86
-75.63
-77.71
-76.95
-74.08
-69.62
-63.94
-57.39
-50.28
-42.90
-35.43
-27.93
-20.39
-12.78
-5.12
2.49
9.90
16.93
23.37
29.01
33.66
37.18
39.55
40.90
41.50
41.58
41.25
40.20
37.87
33.77
27.84
20.68
13.42
7.49
3.65
1.80
0.75
-1.02
-4.68
-10.53
-17.93
-25.53
-31.66
-35.21
-35.85
-34.62
-33.22
-33.39
-36.23
-41.54
-47.80
-52.10
-51.90
-45.88
-35.42
-24.01
-16.64
-18.91
-35.70
-69.59
-117.95
-174.08
-227.88
-269.12
-289.70
-286.50
-262.61
-225.69
-184.88
-143.88
-107.30
-73.72
-41.75
-9.51
25.01
63.07
104.08
144.59
182.73
213.69
232.20
235.71
228.20
218.83
217.16
228.62
252.77
290.74
339.37
391.85
439.21
473.68
490.19
487.19
467.14
406.56
308.26
197.24
103.01
38.78
0.32
-24.16
-45.57
-67.30
-95.25
-126.33
-157.03
-185.60
-211.40
-232.94
-248.43
-254.09
-248.87
-235.19
-212.69
-183.79
-153.64
-127.91
-109.64
-98.68
-92.90
-90.23
-89.52
-87.21
-81.58
-73.23
-63.90
-54.70
-45.99
-38.04
-31.60
-27.67
-25.08
-22.72
-20.24
-18.08
-16.48
-15.72
-16.00
-17.29
-19.06
-19.79
-18.84
-17.21
-17.22
-20.63
-28.06
-38.43
-48.94
-55.84
-55.81
-47.59
-32.22
-12.15
11.05
36.26
62.39
87.79
110.03
126.09
133.22
130.28
113.47
85.06
52.38
22.98
-0.20
-18.69
-34.72
-48.43
-57.55
-59.27
-51.86
-37.18
-20.16
-6.09
2.37
6.10
7.99
10.40
13.41
15.52
14.37
8.42
-1.64
-13.12
-22.72
-28.27
-29.57
-27.92
-24.58
-20.37
-15.21
-8.25
0.84
11.25
20.66
25.77
23.81
14.47
0.60
-12.29
-18.43
-15.06
-4.28
7.56
12.61
5.12
-15.76
-45.65
-76.30
-98.72
-106.65
-98.01
-74.79
-41.68
-4.43
31.69
60.79
77.97
83.24
79.96
72.34
63.55
55.33
48.30
42.61
38.37
35.95
35.70
37.14
39.21
40.85
41.66
42.02
42.67
43.91
45.21
45.01
40.93
31.02
15.02
-5.10
-25.65
-42.71
-53.77
-58.73
-59.62
-59.49
-60.32
-61.80
-61.54
-56.81
-46.65
-32.93
-19.50
-10.20
-6.92
-8.41
-11.52
-13.04
-11.44
-7.45
-3.24
-0.71
-0.33
-1.07
-1.25
0.27
3.51
7.40
10.66
12.47
12.97
12.95
13.31
14.69
17.13
20.38
24.06
28.11
32.70
37.96
43.47
48.21
50.96
50.99
48.69
45.47
43.64
45.35
51.42
60.53
69.53
74.84
74.11
67.52
57.10
46.52
39.39
38.29
43.35
52.42
62.33
70.14
73.74
70.69
59.52
39.64
11.14
-24.75
-64.78
-103.51
-134.38
-151.62
-153.66
-140.79
-114.75
-79.63
-42.43
-12.37
1.23
-8.34
-43.46
-103.41
-180.07
-259.10
-324.26
-362.89
-369.44
-346.84
-304.85
-242.28
-171.17
-109.42
-68.93
-48.23
-36.88
-24.06
-4.11
23.87
57.39
90.47
119.06
141.79
158.42
168.00
170.39
162.68
143.91
116.17
83.34
52.55
31.48
24.30
28.86
37.83
42.81
39.26
28.15
13.98
4.10
4.82
19.60
46.90
80.89
113.48
137.35
147.59
142.37
124.06
98.18
71.46
48.93
32.35
20.10
8.92
-4.25
-20.28
-37.25
-51.34
-58.87
-58.15
-50.33
-38.21
-24.54
-11.20
1.54
13.88
25.41
34.81
40.42
40.88
36.91
31.35
27.35
27.45
32.10
39.53
46.77
51.08
50.20
43.86
33.31
16.96
-4.91
-29.07
-50.85
-67.61
-80.27
-92.65
-109.13
-127.91
-143.83
-150.11
-141.60
-117.03
-79.65
-30.43
19.70
58.47
79.66
85.12
82.04
77.24
73.91
71.71
68.97
63.88
57.47
52.70
51.69
54.50
58.88
61.15
57.98
47.90
31.00
10.28
-9.75
-25.50
-35.41
-40.15
-41.60
-42.18
-43.09
-45.53
-49.91
-56.34
-65.17
-76.67
-90.30
-103.98
-114.11
-116.62
-109.12
-91.81
-67.91
-42.83
-22.08
-9.10
-4.02
-4.05
-5.30
-5.04
-2.49
1.50
5.64
9.34
13.16
17.28
21.68
25.54
27.33
25.66
20.19
11.95
2.87
-5.04
-10.58
-13.46
-14.22
-13.78
-12.92
-11.97
-10.85
-9.24
-6.79
-3.39
0.87
5.54
9.90
13.25
15.19
15.77
15.46
14.88
14.55
14.83
15.71
16.94
18.08
18.64
18.17
16.43
13.53
9.93
6.39
3.59
1.86
1.02
0.36
-1.03
-3.86
-8.29
-13.78
-19.26
-23.49
-25.65
-25.63
-24.27
-22.95
-23.17
-25.79
-30.66
-36.52
-41.56
-44.05
-43.23
-39.69
-35.28
-32.37
-32.77
-36.88
-43.35
-49.19
-50.33
-42.64
-23.15
8.62
49.71
93.76
132.53
158.60
168.31
163.59
151.22
139.84
136.00
141.26
151.92
161.36
163.59
156.10
140.51
121.17
102.68
87.99
77.19
67.97
56.53
38.97
12.73
-22.12
-62.21
-101.30
-131.88
-147.92
-147.31
-133.06
-112.71
-95.55
-89.04
-95.95
-113.16
-132.79
-144.95
-141.26
-118.44
-80.12
-36.02
1.40
21.61
20.07
-0.22
-30.52
-59.78
-79.28
-85.15
-78.03
-61.04
-37.46
-9.82
19.51
47.36
70.31
84.79
88.54
82.12
69.35
56.10
48.24
49.30
59.11
75.35
93.53
108.82
118.14
121.66
122.47
124.57
130.24
138.50
147.42
154.10
156.10
152.22
142.65
128.27
110.21
89.11
55.03
4.65
-56.62
-117.87
-170.47
-211.33
-239.80
-255.08
-253.79
-233.23
-193.48
-139.95
-81.90
-29.11
9.72
30.03
34.49
31.16
29.90
40.22
67.48
111.30
165.23
218.59
249.87
241.81
191.20
112.18
28.20
-41.46
-88.45
-114.58
-126.99
-133.04
-135.69
-134.60
-129.25
-121.21
-114.08
-110.69
-110.41
-108.32
-97.88
-73.87
-36.98
4.90
39.84
57.68
56.27
39.24
14.88
-8.18
-23.62
-29.26
-26.31
-17.63
-5.72
7.37
20.12
30.99
38.06
40.06
36.71
29.03
18.81
8.68
-0.06
-6.50
-10.36
-12.08
-12.35
-11.74
-10.63
-9.29
-7.98
-7.11
-7.04
-7.89
-9.46
-11.11
-11.88
-10.85
-7.65
-2.56
3.44
9.20
13.73
16.38
16.50
14.09
9.67
3.98
-2.11
-7.84
-12.47
-15.50
-16.77
-16.50
-15.23
-13.66
-12.36
-11.51
-10.83
-9.67
-7.39
-3.69
1.24
6.80
12.21
16.79
20.22
22.55
24.10
25.14
25.73
25.65
24.54
22.08
18.19
13.15
7.58
2.33
-1.74
-3.99
-4.09
-2.11
1.54
6.21
11.16
15.68
19.18
21.16
21.22
19.10
14.76
8.48
0.90
-7.02
-14.15
-19.51
-22.58
-23.45
-22.78
-21.55
-20.63
-20.52
-21.13
-21.99
-22.50
-22.24
-21.16
-19.42
-17.32
-15.07
-12.77
-10.49
-8.29
-6.27
-4.41
-2.54
-0.31
2.59
6.29
10.60
15.06
19.16
22.53
25.09
26.97
28.39
29.44
30.07
30.13
29.50
28.19
26.36
24.22
21.96
19.65
17.29
14.84
12.31
9.73
7.12
4.40
1.37
-2.28
-6.81
-12.32
-18.60
-25.14
-31.19
-35.98
-38.95
-39.93
-39.17
-37.23
-34.72
-32.16
-29.76
-27.48
-25.16
-22.67
-20.04
-17.45
-15.19
-13.49
-12.46
-12.01
-11.91
-11.83
-11.47
-10.68
-9.45
-7.97
-6.44
-5.06
-3.89
-2.88
-1.93
-0.91
0.25
1.65
3.35
5.35
7.57
9.75
11.49
12.35
11.96
10.24
7.37
3.82
0.12
-3.29
-6.20
-8.61
-10.66
-12.42
-13.84
-14.71
-14.75
-13.72
-11.60
-8.56
-5.03
-1.49
1.60
3.96
5.61
6.82
8.01
9.54
11.53
13.78
15.80
17.02
16.87
15.08
11.67
7.05
1.92
-2.87
-6.65
-9.08
-10.39
-11.26
-12.55
-14.84
-18.18
-22.00
-25.38
-27.39
-27.46
-25.48
-21.83
-17.06
-11.78
-6.44
-1.30
3.46
7.74
11.45
14.52
16.98
19.01
20.89
22.96
25.42
28.26
31.22
33.84
35.63
36.18
35.31
32.95
29.28
24.57
19.26
13.86
8.86
4.70
1.57
-0.52
-1.80
-2.57
-3.18
-3.96
-5.15
-6.90
-9.27
-12.20
-15.50
-18.93
-22.28
-25.39
-28.24
-30.91
-33.49
-35.94
-38.00
-39.15
-38.79
-36.40
-31.85
-25.45
-17.91
-10.06
-2.61
4.03
9.80
14.74
18.80
21.69
22.95
22.18
19.30
14.70
9.15
3.58
-1.28
-5.02
-7.62
-9.25
-10.06
-10.09
-9.21
-7.36
-4.61
-1.31
2.06
5.04
7.39
9.14
10.57
11.99
13.63
15.48
17.31
18.77
19.44
19.02
17.40
14.87
12.04
9.70
8.53
8.71
9.72
10.39
9.31
5.47
-1.24
-9.97
-19.26
-27.64
-34.09
-38.26
-40.31
-40.74
-40.07
-38.73
-37.09
-35.61
-34.76
-34.93
-36.19
-38.24
-40.46
-42.03
-42.00
-39.62
-34.95
-29.11
-24.05
-21.69
-23.23
-28.61
-36.41
-44.15
-49.41
-50.85
-48.60
-43.56
-36.20
-26.38
-13.88
0.98
17.39
33.96
48.80
59.99
66.31
68.06
66.70
63.96
61.66
61.76
65.61
73.10
82.24
90.17
94.76
94.95
89.50
73.88
45.22
7.01
-29.40
-50.78
-52.07
-35.82
-8.89
19.68
42.60
56.30
61.78
63.58
65.69
67.90
64.15
47.56
15.24
-26.78
-65.05
-86.54
-85.59
-66.67
-41.43
-22.04
-15.32
-20.86
-31.89
-39.03
-35.32
-18.92
7.48
37.57
64.98
86.25
101.35
113.05
123.62
132.12
135.56
130.03
112.11
80.70
37.73
-13.79
-69.76
-124.84
-174.48
-212.66
-232.58
-229.25
-201.75
-154.16
-95.33
-34.79
23.74
72.07
105.89
127.77
142.35
150.47
151.44
138.47
107.31
58.93
-1.62
-65.16
-119.21
-151.62
-154.78
-127.92
-78.85
-21.54
27.52
53.75
51.21
24.50
-13.77
-48.32
-66.89
-65.07
-46.36
-19.66
3.98
16.96
17.44
8.94
-2.24
-10.36
-13.04
-11.02
-6.73
-3.55
-3.55
-6.98
-11.17
-12.70
-7.86
4.11
17.15
26.69
30.20
27.50
20.26
10.66
1.49
-5.01
-8.09
-8.53
-8.12
-9.91
-15.03
-24.27
-36.31
-48.04
-57.35
-64.00
-67.99
-67.13
-57.55
-35.85
-2.54
36.05
72.27
96.67
102.21
88.05
60.11
27.93
0.65
-16.06
-20.66
-14.90
-1.90
13.80
27.96
37.69
41.55
39.60
33.03
24.08
15.49
9.19
6.02
5.88
7.86
10.48
12.26
12.18
10.16
6.89
3.14
-0.53
-3.75
-6.50
-8.93
-10.99
-12.33
-12.38
-10.65
-7.22
-2.74
1.95
5.82
8.08
8.54
7.86
7.15
7.34
8.72
10.87
13.05
13.95
12.45
8.63
4.13
1.54
3.01
9.32
19.64
31.96
42.62
47.88
45.68
36.74
24.17
12.17
4.72
4.84
13.53
27.28
39.32
42.16
30.83
4.33
-34.39
-79.84
-125.52
-160.75
-176.28
-170.45
-152.17
-133.79
-121.85
-114.47
-104.51
-86.67
-55.10
-11.18
38.15
83.44
116.50
132.80
131.77
112.22
77.76
36.24
-3.22
-30.98
-39.91
-27.62
2.56
42.61
82.69
116.05
140.10
149.86
143.80
124.46
96.59
64.80
34.54
7.63
-13.60
-27.92
-36.80
-41.45
-43.90
-45.77
-47.65
-49.08
-49.44
-47.68
-43.64
-38.46
-33.21
-29.04
-26.72
-26.27
-26.92
-27.67
-27.19
-24.79
-20.78
-15.80
-11.06
-7.90
-7.27
-9.24
-13.12
-17.38
-20.57
-21.76
-20.58
-17.49
-13.43
-9.31
-5.68
-2.61
0.13
2.65
4.87
6.53
7.38
7.37
6.73
5.89
5.22
4.92
4.91
4.98
4.87
4.47
3.77
2.90
1.98
1.16
0.55
0.17
0.01
-0.05
-0.18
-0.53
-1.14
-1.97
-2.87
-3.70
-4.41
-5.03
-5.66
-6.39
-7.24
-8.19
-9.24
-10.40
-11.70
-13.09
-14.42
-15.43
-15.84
-15.44
-14.13
-12.04
-9.39
-6.44
-3.42
-0.49
2.29
4.93
7.45
9.87
12.14
14.14
15.74
16.82
17.39
17.57
17.48
17.21
16.75
16.05
15.08
13.93
12.77
11.78
11.02
10.45
9.91
9.26
8.43
7.44
6.36
5.18
3.85
2.23
0.28
-1.99
-4.47
-7.02
-9.59
-12.14
-14.67
-17.13
-19.38
-21.19
-22.45
-23.08
-23.16
-22.76
-21.94
-20.60
-18.63
-15.94
-12.57
-8.73
-4.75
-0.95
2.40
5.19
7.39
9.08
10.37
11.37
12.15
12.71
12.99
12.92
12.41
11.49
10.30
9.08
8.13
7.61
7.54
7.74
7.93
7.86
7.42
6.67
5.75
4.83
3.92
2.97
1.90
0.63
-0.83
-2.45
-4.24
-6.21
-8.39
-10.72
-13.01
-14.95
-16.21
-16.51
-15.73
-13.92
-11.23
-7.91
-4.27
-0.61
2.78
5.71
8.11
9.99
11.42
12.46
13.16
13.49
13.48
13.20
12.78
12.33
11.94
11.55
11.07
10.41
9.57
8.70
7.92
7.33
6.91
6.52
6.00
5.22
4.15
2.79
1.18
-0.67
-2.66
-4.62
-6.36
-7.70
-8.68
-9.47
-10.41
-11.70
-13.39
-15.21
-16.72
-17.47
-17.18
-15.81
-13.51
-10.55
-7.19
-3.66
-0.12
3.26
6.34
9.03
11.24
13.01
14.41
15.54
16.44
17.07
17.34
17.17
16.58
15.69
14.66
13.65
12.75
11.98
11.25
10.48
9.59
8.53
7.27
5.81
4.18
2.44
0.66
-1.11
-2.84
-4.51
-6.13
-7.66
-9.10
-10.46
-11.79
-13.18
-14.67
-16.19
-17.53
-18.39
-18.47
-17.57
-15.75
-13.22
-10.35
-7.48
-4.82
-2.43
-0.25
1.82
3.83
5.71
7.29
8.40
8.95
9.00
8.75
8.44
8.25
8.24
8.31
8.30
8.08
7.62
6.92
6.07
5.09
3.99
2.78
1.49
0.19
-1.03
-2.11
-3.03
-3.85
-4.65
-5.51
-6.50
-7.63
-8.94
-10.46
-12.21
-14.15
-16.14
-17.90
-19.05
-19.27
-18.46
-16.70
-14.32
-11.65
-8.94
-6.27
-3.61
-0.90
1.81
4.39
6.66
8.48
9.85
10.84
11.54
12.04
12.36
12.51
12.44
12.14
11.59
10.82
9.87
8.85
7.83
6.89
6.04
5.26
4.49
3.68
2.77
1.75
0.58
-0.74
-2.21
-3.77
-5.38
-6.98
-8.55
-10.13
-11.81
-13.65
-15.65
-17.70
-19.53
-20.84
-21.30
-20.72
-19.11
-16.64
-13.60
-10.30
-6.97
-3.72
-0.63
2.30
4.99
7.33
9.18
10.45
11.12
11.28
11.11
10.84
10.65
10.61
10.68
10.70
10.49
9.95
9.06
7.93
6.69
5.51
4.46
3.56
2.73
1.85
0.83
-0.36
-1.68
-3.04
-4.34
-5.51
-6.55
-7.46
-8.30
-9.10
-9.87
-10.59
-11.24
-11.69
-11.80
-11.38
-10.28
-8.47
-6.07
-3.29
-0.38
2.51
5.33
8.14
10.93
13.66
16.17
18.28
19.86
20.83
21.24
21.14
20.62
19.71
18.46
16.94
15.27
13.60
12.08
10.81
9.82
9.07
8.44
7.79
6.98
5.88
4.44
2.71
0.85
-0.94
-2.49
-3.72
-4.71
-5.63
-6.68
-8.00
-9.60
-11.41
-13.27
-15.03
-16.54
-17.71
-18.46
-18.73
-18.48
-17.67
-16.27
-14.30
-11.85
-9.06
-6.17
-3.37
-0.86
1.30
3.10
4.56
5.74
6.64
7.26
7.60
7.68
7.57
7.36
7.07
6.73
6.32
5.84
5.35
4.94
4.72
4.67
4.72
4.68
4.39
3.72
2.68
1.37
-0.06
-1.47
-2.79
-3.98
-5.08
-6.14
-7.21
-8.35
-9.56
-10.88
-12.25
-13.53
-14.55
-15.10
-14.96
-13.98
-12.14
-9.54
-6.41
-3.03
0.34
3.51
6.39
8.94
11.20
13.15
14.80
16.11
17.08
17.73
18.10
18.24
18.21
18.03
17.72
17.26
16.63
15.82
14.86
13.86
12.94
12.11
11.32
10.42
9.27
7.85
6.26
4.69
3.30
2.16
1.18
0.22
-0.88
-2.13
-3.51
-4.93
-6.36
-7.82
-9.44
-11.25
-13.24
-15.20
-16.81
-17.71
-17.61
-16.39
-14.13
-11.11
-7.66
-4.11
-0.70
2.46
5.32
7.88
10.09
11.89
13.19
13.96
14.23
14.14
13.88
13.58
13.32
13.07
12.80
12.46
12.07
11.66
11.26
10.84
10.35
9.70
8.86
7.85
6.72
5.54
4.37
3.25
2.21
1.24
0.32
-0.58
-1.47
-2.37
-3.28
-4.27
-5.43
-6.89
-8.69
-10.76
-12.82
-14.49
-15.39
-15.28
-14.15
-12.19
-9.65
-6.75
-3.61
-0.31
3.04
6.24
9.06
11.33
12.96
14.03
14.68
15.05
15.24
15.27
15.14
14.84
14.36
13.72
12.96
12.11
11.23
10.40
9.62
8.85
8.03
7.07
5.96
4.73
3.48
2.26
1.08
-0.06
-1.19
-2.27
-3.23
-4.05
-4.75
-5.42
-6.20
-7.19
-8.43
-9.88
-11.38
-12.72
-13.68
-14.05
-13.69
-12.56
-10.72
-8.28
-5.41
-2.30
0.87
3.90
6.60
8.86
10.64
12.00
13.01
13.74
14.20
14.35
14.17
13.69
12.98
12.16
11.32
10.55
9.91
9.39
8.93
8.41
7.71
6.73
5.49
4.07
2.62
1.25
0.03
-1.10
-2.21
-3.32
-4.44
-5.50
-6.42
-7.17
-7.78
-8.31
-8.84
-9.46
-10.20
-11.03
-11.86
-12.50
-12.75
-12.43
-11.44
-9.82
-7.68
-5.23
-2.65
-0.08
2.37
4.62
6.54
8.02
8.99
9.47
9.59
9.52
9.45
9.45
9.51
9.55
9.46
9.17
8.69
8.05
7.29
6.48
5.68
4.92
4.26
3.74
3.35
3.04
2.71
2.22
1.45
0.35
-1.01
-2.48
-3.91
-5.20
-6.34
-7.40
-8.46
-9.55
-10.68
-11.84
-13.03
-14.23
-15.33
-16.11
-16.33
-15.74
-14.30
-12.15
-9.59
-6.93
-4.41
-2.13
-0.08
1.77
3.41
4.80
5.91
6.72
7.26
7.56
7.65
7.54
7.28
6.95
6.64
6.46
6.40
6.40
6.34
6.08
5.57
4.81
3.89
2.90
1.95
1.08
0.27
-0.49
-1.24
-2.01
-2.80
-3.59
-4.39
-5.18
-5.99
-6.82
-7.72
-8.73
-9.83
-10.98
-12.08
-13.01
-13.59
-13.67
-13.13
-11.94
-10.16
-7.98
-5.63
-3.30
-1.10
0.96
2.93
4.87
6.74
8.44
9.86
10.91
11.59
11.98
12.15
12.16
12.06
11.86
11.62
11.34
11.01
10.58
9.97
9.09
7.96
6.66
5.31
4.04
2.91
1.91
0.95
-0.04
-1.13
-2.35
-3.65
-4.93
-6.06
-6.95
-7.64
-8.21
-8.87
-9.81
-11.11
-12.72
-14.42
-15.88
-16.79
-16.94
-16.22
-14.74
-12.68
-10.29
-7.84
-5.50
-3.39
-1.56
-0.01
1.32
2.47
3.46
4.29
4.90
5.26
5.34
5.23
5.01
4.78
4.60
4.49
4.37
4.20
3.99
3.78
3.62
3.50
3.33
2.98
2.35
1.43
0.34
-0.75
-1.68
-2.38
-2.92
-3.43
-4.04
-4.80
-5.69
-6.63
-7.58
-8.55
-9.56
-10.62
-11.67
-12.60
-13.25
-13.49
-13.24
-12.45
-11.11
-9.28
-7.03
-4.55
-2.06
0.22
2.10
3.50
4.44
5.01
5.36
5.65
6.00
6.44
6.91
7.24
7.25
6.84
6.06
5.08
4.15
3.43
2.98
2.74
2.58
2.44
2.25
2.01
1.71
1.26
0.61
-0.31
-1.46
-2.78
-4.18
-5.57
-6.86
-7.96
-8.78
-9.29
-9.53
-9.66
-9.93
-10.52
-11.42
-12.40
-13.05
-12.97
-11.90
-9.91
-7.28
-4.46
-1.86
0.29
1.98
3.34
4.56
5.75
6.89
7.87
8.60
9.05
9.28
9.42
9.55
9.69
9.72
9.53
9.05
8.35
7.61
6.98
