1604032944.00
64.000000
-0.00
-0.00
-0.00
-0.00
-0.00
-0.00
-0.00
-0.00
-0.00
-0.00
0.00
0.01
0.01
-0.00
-0.03
-0.05
-0.05
0.00
0.13
0.36
0.66
1.01
1.37
1.72
2.06
2.40
2.79
3.24
3.81
4.44
5.10
5.74
6.33
6.90
7.49
8.21
9.10
10.27
11.60
12.98
14.26
15.37
16.34
17.38
18.70
20.51
23.03
26.06
29.32
32.48
35.35
38.01
40.82
44.26
48.70
54.54
61.41
68.73
75.87
82.45
88.54
94.75
101.89
110.62
121.52
134.02
147.17
159.91
171.56
182.19
192.62
204.49
216.78
231.85
250.18
271.53
294.28
315.24
330.10
334.54
325.74
303.31
269.85
229.00
184.52
138.93
93.28
47.75
2.60
-41.29
-82.58
-119.95
-153.32
-183.61
-212.38
-241.28
-271.52
-303.47
-336.31
-368.05
-395.48
-414.98
-423.62
-420.17
-405.64
-382.89
-355.59
-326.95
-298.94
-272.18
-246.73
-222.67
-200.41
-180.47
-163.04
-147.65
-133.34
-119.13
-104.49
-89.61
-75.23
-62.26
-51.30
-42.38
-35.00
-28.42
-21.95
-15.24
-8.37
-1.74
4.11
8.84
12.34
14.83
16.72
18.42
20.16
22.00
23.77
25.27
26.31
26.83
26.89
26.60
26.14
25.66
25.27
24.99
24.77
24.49
24.07
23.48
22.80
22.16
21.67
21.32
21.00
20.57
19.91
19.01
17.99
16.98
16.09
15.35
14.75
14.23
13.76
13.36
13.01
12.73
12.47
12.22
11.91
11.49
10.89
10.16
9.40
8.87
8.80
9.34
10.40
11.65
12.70
13.21
13.11
12.59
11.96
11.48
11.21
11.04
10.74
10.19
9.41
8.55
7.80
7.27
6.95
6.73
6.48
6.10
5.58
4.96
4.31
3.71
3.20
2.78
2.40
2.00
1.52
0.96
0.35
-0.26
-0.76
-1.14
-1.42
-1.71
-2.15
-2.81
-3.68
-4.68
-5.67
-6.53
-7.17
-7.62
-7.92
-8.15
-8.38
-8.60
-8.79
-8.91
-8.95
-8.94
-8.97
-9.13
-9.40
-9.70
-9.83
-9.64
-9.02
-8.00
-6.76
-5.52
-4.47
-3.70
-3.18
-2.82
-2.47
-2.06
-1.54
-0.93
-0.28
0.36
0.97
1.50
1.94
2.26
2.41
2.39
2.23
2.03
1.93
2.01
2.25
2.56
2.80
2.90
2.90
2.89
3.01
3.26
3.57
3.85
4.04
4.20
4.42
4.76
5.21
5.66
6.01
6.23
6.33
6.38
6.43
6.49
6.53
6.55
6.55
6.55
6.54
6.49
6.39
6.25
6.10
5.99
5.93
5.89
5.81
5.70
5.57
5.46
5.42
5.40
5.36
5.21
4.92
4.49
3.99
3.50
3.09
2.82
2.69
2.66
2.71
2.79
2.86
2.89
2.89
2.83
2.75
2.63
2.50
2.34
2.12
1.84
1.51
1.19
0.99
1.01
1.25
1.61
1.95
2.13
2.14
2.05
1.99
2.03
2.16
2.26
2.23
2.02
1.70
1.37
1.15
1.07
1.08
1.11
1.12
1.10
1.12
1.22
1.40
1.63
1.82
1.91
1.91
1.86
1.85
1.88
1.94
1.94
1.84
1.66
1.44
1.25
1.11
0.99
0.86
0.70
0.56
0.52
0.64
0.89
1.21
1.48
1.61
1.55
1.34
1.04
0.73
0.48
0.33
0.29
0.33
0.42
0.55
0.72
0.96
1.29
1.66
1.95
2.05
1.86
1.44
0.90
0.45
0.20
0.19
0.34
0.54
0.71
0.84
0.92
1.00
1.06
1.08
1.05
1.00
0.97
1.00
1.07
1.13
1.13
1.07
0.97
0.87
0.80
0.73
0.60
0.38
0.08
-0.21
-0.41
-0.45
-0.34
-0.13
0.10
0.29
0.43
0.53
0.60
0.65
0.64
0.58
0.46
0.35
0.31
0.36
0.52
0.73
0.94
1.08
1.15
1.15
1.15
1.14
1.13
1.08
0.96
0.79
0.66
0.62
0.71
0.89
1.05
1.09
0.95
0.67
0.36
0.11
0.01
0.03
0.12
0.20
0.23
0.23
0.22
0.25
0.32
0.40
0.45
0.43
0.37
0.30
0.25
0.18
0.03
-0.23
-0.61
-1.00
-1.23
-1.21
-0.90
-0.43
0.05
0.40
0.53
0.48
0.32
0.12
-0.04
-0.15
-0.19
-0.15
-0.05
0.10
0.27
0.42
0.50
0.49
0.39
0.23
0.06
-0.07
-0.11
-0.03
0.12
0.29
0.38
0.33
0.12
-0.17
-0.44
-0.58
-0.54
-0.36
-0.13
0.04
0.09
0.04
-0.02
-0.02
0.08
0.26
0.44
0.56
0.59
0.57
0.57
0.64
0.83
1.09
1.37
1.55
1.57
1.43
1.17
0.89
0.68
0.58
0.58
0.61
0.61
0.53
0.35
0.07
-0.26
-0.55
-0.71
-0.67
-0.48
-0.23
-0.07
-0.07
-0.20
-0.36
-0.40
-0.28
-0.10
-0.03
-0.20
-0.64
-1.19
-1.61
-1.68
-1.32
-0.63
0.23
1.06
1.71
2.11
2.24
2.10
1.71
1.14
0.56
0.15
0.05
0.29
0.73
1.16
1.36
1.22
0.77
0.17
-0.40
-0.79
-0.97
-0.97
-0.85
-0.69
-0.53
-0.40
-0.31
-0.28
-0.31
-0.37
-0.40
-0.34
-0.20
0.02
0.26
0.48
0.63
0.74
0.79
0.80
0.76
0.62
0.36
0.02
-0.33
-0.61
-0.73
-0.66
-0.43
-0.08
0.32
0.72
1.05
1.28
1.36
1.30
1.11
0.85
0.59
0.39
0.23
0.07
-0.14
-0.41
-0.66
-0.77
-0.61
-0.17
0.45
1.07
1.47
1.52
1.22
0.69
0.10
-0.39
-0.69
-0.79
-0.74
-0.62
-0.50
-0.39
-0.28
-0.09
0.21
0.59
0.98
1.24
1.28
1.09
0.73
0.32
-0.05
-0.35
-0.62
-0.88
-1.11
-1.21
-1.08
-0.69
-0.11
0.50
0.94
1.10
0.97
0.65
0.28
-0.02
-0.19
-0.23
-0.17
-0.06
0.10
0.28
0.46
0.60
0.62
0.52
0.31
0.09
-0.02
0.05
0.31
0.67
0.97
1.10
1.02
0.79
0.50
0.23
-0.03
-0.29
-0.59
-0.89
-1.13
-1.24
-1.22
-1.13
-1.03
-0.96
-0.89
-0.78
-0.62
-0.44
-0.32
-0.30
-0.41
-0.61
-0.83
-1.04
-1.17
-1.19
-1.09
-0.84
-0.51
-0.14
0.17
0.40
0.55
0.70
0.88
1.11
1.34
1.52
1.60
1.60
1.58
1.57
1.53
1.40
1.11
0.69
0.27
-0.00
-0.02
0.16
0.39
0.47
0.31
-0.05
-0.42
-0.65
-0.67
-0.52
-0.32
-0.14
-0.00
0.13
0.31
0.50
0.65
0.73
0.71
0.60
0.41
0.12
-0.30
-0.83
-1.38
-1.81
-1.97
-1.84
-1.49
-1.05
-0.67
-0.40
-0.22
-0.06
0.13
0.34
0.50
0.58
0.59
0.56
0.53
0.52
0.50
0.43
0.31
0.17
0.10
0.13
0.25
0.40
0.48
0.43
0.27
0.10
0.02
0.09
0.32
0.60
0.80
0.85
0.72
0.49
0.27
0.13
0.12
0.21
0.33
0.41
0.42
0.33
0.14
-0.13
-0.48
-0.83
-1.11
-1.24
-1.19
-0.99
-0.71
-0.44
-0.23
-0.11
-0.06
-0.07
-0.11
-0.20
-0.33
-0.47
-0.57
-0.61
-0.55
-0.45
-0.34
-0.24
-0.11
0.09
0.42
0.84
1.22
1.40
1.22
0.71
0.01
-0.64
-1.00
-1.00
-0.72
-0.35
-0.05
0.10
0.12
0.12
0.13
0.18
0.23
0.23
0.18
0.10
0.04
0.02
0.06
0.13
0.18
0.21
0.18
0.12
0.06
0.03
0.06
0.15
0.26
0.32
0.29
0.14
-0.09
-0.35
-0.60
-0.79
-0.86
-0.81
-0.65
-0.45
-0.31
-0.30
-0.38
-0.47
-0.42
-0.13
0.41
1.10
1.77
2.27
2.50
2.45
2.13
1.65
1.07
0.50
0.01
-0.35
-0.57
-0.71
-0.83
-0.98
-1.15
-1.31
-1.41
-1.41
-1.32
-1.17
-0.99
-0.82
-0.66
-0.53
-0.44
-0.43
-0.50
-0.61
-0.70
-0.70
-0.56
-0.33
-0.09
0.04
-0.00
-0.16
-0.33
-0.36
-0.19
0.11
0.39
0.50
0.43
0.27
0.20
0.37
0.74
1.16
1.43
1.41
1.15
0.82
0.61
0.60
0.75
0.91
0.92
0.73
0.38
-0.02
-0.36
-0.56
-0.62
-0.59
-0.50
-0.41
-0.31
-0.22
-0.14
-0.06
-0.02
-0.06
-0.23
-0.54
-0.93
-1.29
-1.44
-1.31
-0.91
-0.37
0.13
0.44
0.52
0.44
0.37
0.42
0.64
0.98
1.31
1.49
1.48
1.29
1.02
0.80
0.70
0.76
0.97
1.26
1.54
1.75
1.81
1.70
1.44
1.05
0.58
0.10
-0.38
-0.80
-1.15
-1.39
-1.49
-1.45
-1.29
-1.04
-0.74
-0.42
-0.10
0.18
0.39
0.48
0.45
0.34
0.18
0.03
-0.11
-0.24
-0.38
-0.52
-0.60
-0.60
-0.54
-0.47
-0.47
-0.55
-0.69
-0.79
-0.78
-0.64
-0.43
-0.23
-0.11
-0.09
-0.15
-0.23
-0.30
-0.35
-0.36
-0.34
-0.26
-0.08
0.16
0.39
0.53
0.49
0.26
-0.09
-0.43
-0.63
-0.60
-0.39
-0.09
0.18
0.37
0.49
0.61
0.75
0.91
0.99
0.90
0.63
0.23
-0.15
-0.37
-0.37
-0.21
-0.03
0.02
-0.11
-0.40
-0.73
-0.97
-1.05
-0.99
-0.85
-0.70
-0.55
-0.37
-0.13
0.18
0.47
0.63
0.58
0.32
-0.03
-0.30
-0.36
-0.22
-0.01
0.10
-0.01
-0.32
-0.65
-0.80
-0.63
-0.14
0.52
1.14
1.58
1.80
1.84
1.77
1.64
1.44
1.16
0.80
0.42
0.10
-0.13
-0.30
-0.44
-0.62
-0.85
-1.06
-1.18
-1.17
-1.02
-0.80
-0.56
-0.36
-0.22
-0.13
-0.08
-0.05
-0.02
0.06
0.21
0.41
0.63
0.80
0.87
0.83
0.71
0.54
0.37
0.17
-0.04
-0.27
-0.46
-0.55
-0.49
-0.29
-0.02
0.20
0.33
0.33
0.25
0.15
0.09
0.07
0.08
0.09
0.09
0.07
0.07
0.11
0.14
0.12
0.01
-0.17
-0.37
-0.50
-0.48
-0.35
-0.18
-0.10
-0.16
-0.34
-0.52
-0.61
-0.56
-0.42
-0.28
-0.19
-0.15
-0.09
0.03
0.25
0.49
0.66
0.67
0.52
0.24
-0.06
-0.32
-0.48
-0.52
-0.45
-0.24
0.09
0.44
0.70
0.71
0.40
-0.16
-0.78
-1.21
-1.25
-0.91
-0.35
0.18
0.50
0.54
0.40
0.23
0.15
0.20
0.32
0.42
0.44
0.39
0.32
0.30
0.35
0.46
0.57
0.61
0.57
0.46
0.33
0.21
0.11
0.04
0.00
0.04
0.16
0.35
0.56
0.69
0.66
0.45
0.14
-0.17
-0.37
-0.45
-0.43
-0.38
-0.32
-0.22
-0.06
0.20
0.49
0.70
0.74
0.53
0.11
-0.40
-0.87
-1.17
-1.25
-1.14
-0.91
-0.66
-0.46
-0.37
-0.39
-0.43
-0.43
-0.29
-0.02
0.30
0.55
0.63
0.53
0.33
0.16
0.10
0.15
0.20
0.19
0.05
-0.18
-0.41
-0.58
-0.68
-0.74
-0.78
-0.82
-0.82
-0.78
-0.69
-0.58
-0.49
-0.41
-0.32
-0.19
-0.03
0.14
0.31
0.43
0.49
0.49
0.41
0.28
0.16
0.11
0.22
0.49
0.83
1.10
1.16
0.98
0.68
0.44
0.41
0.61
0.93
1.18
1.21
0.98
0.58
0.15
-0.19
-0.39
-0.44
-0.41
-0.35
-0.32
-0.35
-0.46
-0.62
-0.77
-0.84
-0.79
-0.60
-0.33
-0.07
0.09
0.12
0.04
-0.08
-0.16
-0.11
0.08
0.37
0.69
0.90
0.92
0.70
0.28
-0.20
-0.59
-0.74
-0.61
-0.28
0.11
0.36
0.38
0.19
-0.09
-0.29
-0.31
-0.12
0.22
0.56
0.81
0.94
0.95
0.87
0.74
0.54
0.30
0.04
-0.19
-0.30
-0.26
-0.07
0.22
0.51
0.71
0.76
0.65
0.43
0.17
-0.08
-0.26
-0.40
-0.51
-0.61
-0.70
-0.77
-0.75
-0.63
-0.43
-0.21
-0.03
0.05
0.02
-0.12
-0.32
-0.52
-0.68
-0.74
-0.71
-0.60
-0.45
-0.30
-0.16
-0.04
0.04
0.10
0.11
0.08
0.03
-0.02
-0.03
0.03
0.17
0.36
0.55
0.69
0.75
0.72
0.62
0.49
0.35
0.22
0.09
-0.02
-0.10
-0.13
-0.14
-0.16
-0.26
-0.46
-0.71
-0.92
-1.00
-0.94
-0.77
-0.60
-0.51
-0.48
-0.46
-0.38
-0.26
-0.16
-0.14
-0.19
-0.23
-0.15
0.10
0.48
0.85
1.09
1.16
1.09
0.93
0.74
0.53
0.26
-0.06
-0.36
-0.55
-0.55
-0.36
-0.09
0.12
0.14
-0.03
-0.30
-0.50
-0.49
-0.24
0.16
0.57
0.86
0.94
0.85
0.67
0.50
0.36
0.25
0.13
-0.05
-0.29
-0.51
-0.65
-0.63
-0.43
-0.11
0.21
0.41
0.42
0.26
0.03
-0.14
-0.18
-0.10
-0.02
-0.05
-0.22
-0.47
-0.65
-0.65
-0.42
-0.08
0.22
0.33
0.21
-0.04
-0.26
-0.29
-0.12
0.15
0.38
0.48
0.44
0.35
0.33
0.43
0.60
0.73
0.73
0.57
0.32
0.10
-0.04
-0.09
-0.11
-0.18
-0.31
-0.46
-0.54
-0.53
-0.43
-0.31
-0.24
-0.28
-0.43
-0.65
-0.87
-1.05
-1.11
-1.04
-0.83
-0.49
-0.09
0.32
0.65
0.88
0.99
0.97
0.84
0.63
0.38
0.16
0.03
0.04
0.15
0.28
0.31
0.19
-0.09
-0.44
-0.76
-0.93
-0.92
-0.76
-0.53
-0.32
-0.20
-0.17
-0.21
-0.23
-0.19
-0.07
0.12
0.33
0.52
0.66
0.71
0.70
0.64
0.55
0.49
0.44
0.42
0.38
0.30
0.15
-0.05
-0.25
-0.41
-0.48
-0.49
-0.47
-0.42
-0.32
-0.17
0.03
0.22
0.34
0.32
0.17
-0.08
-0.35
-0.59
-0.76
-0.85
-0.84
-0.74
-0.55
-0.32
-0.06
0.21
0.50
0.83
1.16
1.38
1.39
1.12
0.60
-0.00
-0.46
-0.59
-0.38
0.08
0.57
0.91
0.98
0.81
0.52
0.24
0.09
0.10
0.23
0.39
0.48
0.40
0.10
-0.37
-0.93
-1.45
-1.82
-1.95
-1.86
-1.59
-1.20
-0.77
-0.34
0.03
0.28
0.37
0.28
0.07
-0.17
-0.32
-0.31
-0.14
0.15
0.44
0.65
0.74
0.71
0.63
0.58
0.61
0.74
0.91
1.03
1.01
0.80
0.45
0.05
-0.29
-0.47
-0.49
-0.39
-0.25
-0.12
-0.01
0.08
0.15
0.19
0.16
0.05
-0.10
-0.24
-0.29
-0.26
-0.14
0.01
0.17
0.33
0.47
0.57
0.58
0.45
0.15
-0.25
-0.66
-0.98
-1.11
-1.04
-0.80
-0.49
-0.20
-0.01
0.04
-0.04
-0.21
-0.38
-0.49
-0.47
-0.34
-0.14
0.04
0.15
0.13
-0.00
-0.19
-0.38
-0.48
-0.46
-0.33
-0.13
0.07
0.23
0.31
0.35
0.38
0.43
0.51
0.57
0.56
0.45
0.27
0.09
-0.01
-0.01
0.11
0.26
0.40
0.48
0.52
0.56
0.64
0.74
0.79
0.72
0.50
0.17
-0.18
-0.45
-0.55
-0.45
-0.16
0.27
0.76
1.18
1.41
1.36
1.05
0.59
0.15
-0.12
-0.16
-0.01
0.18
0.26
0.18
-0.00
-0.19
-0.27
-0.25
-0.19
-0.19
-0.31
-0.52
-0.73
-0.83
-0.77
-0.57
-0.33
-0.14
-0.03
0.01
0.05
0.13
0.27
0.42
0.52
0.56
0.53
0.45
0.36
0.26
0.15
0.02
-0.12
-0.23
-0.30
-0.32
-0.30
-0.26
-0.20
-0.13
-0.08
-0.06
-0.10
-0.20
-0.34
-0.46
-0.50
-0.44
-0.32
-0.21
-0.17
-0.21
-0.28
-0.31
-0.29
-0.26
-0.28
-0.38
-0.54
-0.66
-0.70
-0.61
-0.48
-0.37
-0.35
-0.37
-0.31
-0.08
0.33
0.83
1.24
1.43
1.34
1.08
0.80
0.64
0.64
0.71
0.71
0.50
0.10
-0.36
-0.69
-0.74
-0.49
-0.07
0.29
0.41
0.23
-0.17
-0.59
-0.86
-0.90
-0.71
-0.40
-0.11
0.08
0.11
0.03
-0.10
-0.20
-0.25
-0.24
-0.21
-0.22
-0.27
-0.35
-0.41
-0.39
-0.27
-0.07
0.16
0.33
0.39
0.33
0.22
0.12
0.08
0.06
0.03
-0.06
-0.17
-0.24
-0.24
-0.16
-0.11
-0.15
-0.32
-0.51
-0.61
-0.55
-0.35
-0.13
0.01
0.02
-0.01
0.00
0.13
0.36
0.61
0.78
0.84
0.80
0.73
0.69
0.68
0.66
0.58
0.42
0.19
-0.04
-0.21
-0.27
-0.22
-0.10
0.03
0.10
0.10
0.04
-0.04
-0.12
-0.18
-0.26
-0.40
-0.64
-0.93
-1.21
-1.34
-1.25
-0.93
-0.50
-0.10
0.12
0.15
0.05
-0.04
-0.06
0.03
0.14
0.23
0.24
0.21
0.16
0.12
0.07
-0.04
-0.21
-0.42
-0.58
-0.64
-0.55
-0.36
-0.10
0.15
0.34
0.44
0.44
0.34
0.16
-0.03
-0.18
-0.28
-0.30
-0.28
-0.26
-0.26
-0.26
-0.20
-0.03
0.22
0.48
0.66
0.68
0.52
0.25
-0.03
-0.20
-0.25
-0.17
-0.06
0.01
0.01
-0.05
-0.08
-0.00
0.23
0.56
0.87
1.03
0.93
0.59
0.16
-0.19
-0.32
-0.23
-0.04
0.11
0.11
-0.02
-0.16
-0.18
-0.03
0.25
0.57
0.83
0.96
0.92
0.74
0.44
0.09
-0.25
-0.50
-0.66
-0.74
-0.79
-0.84
-0.87
-0.85
-0.70
-0.42
-0.08
0.20
0.33
0.30
0.18
0.09
0.12
0.29
0.53
0.73
0.84
0.86
0.85
0.86
0.89
0.87
0.74
0.43
-0.01
-0.47
-0.85
-1.05
-1.06
-0.90
-0.61
-0.27
0.07
0.37
0.55
0.58
0.47
0.27
0.04
-0.16
-0.34
-0.48
-0.60
-0.68
-0.67
-0.54
-0.32
-0.05
0.19
0.35
0.38
0.31
0.17
0.01
-0.14
-0.25
-0.28
-0.24
-0.10
0.12
0.39
0.66
0.86
0.96
0.93
0.79
0.58
0.33
0.08
-0.16
-0.36
-0.50
-0.55
-0.46
-0.25
0.03
0.32
0.54
0.64
0.61
0.50
0.37
0.26
0.24
0.30
0.43
0.56
0.61
0.53
0.31
0.02
-0.23
-0.35
-0.29
-0.12
0.04
0.05
-0.17
-0.58
-1.04
-1.38
-1.50
-1.39
-1.13
-0.84
-0.57
-0.34
-0.12
0.13
0.39
0.63
0.79
0.84
0.83
0.81
0.83
0.88
0.90
0.81
0.59
0.29
-0.00
-0.18
-0.21
-0.12
-0.00
0.10
0.15
0.18
0.21
0.24
0.25
0.22
0.17
0.14
0.16
0.23
0.28
0.24
0.05
-0.31
-0.75
-1.18
-1.46
-1.50
-1.28
-0.86
-0.37
0.04
0.26
0.29
0.20
0.08
0.01
0.01
0.03
0.03
-0.01
-0.06
-0.09
-0.09
-0.06
-0.03
-0.02
0.02
0.14
0.40
0.77
1.15
1.41
1.45
1.23
0.83
0.38
-0.01
-0.26
-0.38
-0.40
-0.35
-0.28
-0.21
-0.17
-0.19
-0.27
-0.40
-0.54
-0.65
-0.68
-0.61
-0.46
-0.24
-0.01
0.19
0.33
0.38
0.35
0.28
0.21
0.19
0.23
0.30
0.39
0.47
0.56
0.66
0.75
0.79
0.72
0.51
0.19
-0.17
-0.48
-0.69
-0.77
-0.73
-0.61
-0.41
-0.18
0.05
0.19
0.20
0.02
-0.29
-0.63
-0.87
-0.91
-0.75
-0.47
-0.22
-0.15
-0.31
-0.67
-1.10
-1.45
-1.56
-1.39
-0.97
-0.39
0.22
0.77
1.16
1.35
1.33
1.10
0.74
0.34
0.05
-0.03
0.13
0.42
0.71
0.84
0.76
0.53
0.26
0.08
0.04
0.13
0.28
0.41
0.50
0.54
0.56
0.54
0.43
0.19
-0.18
-0.61
-0.99
-1.18
-1.08
-0.72
-0.19
0.31
0.60
0.61
0.35
-0.03
-0.33
-0.44
-0.31
-0.03
0.25
0.41
0.38
0.18
-0.09
-0.33
-0.44
-0.37
-0.14
0.15
0.40
0.52
0.48
0.34
0.18
0.06
-0.00
-0.06
-0.15
-0.30
-0.46
-0.56
-0.57
-0.48
-0.36
-0.26
-0.20
-0.14
-0.07
0.00
0.03
-0.02
-0.16
-0.35
-0.52
-0.61
-0.59
-0.50
-0.38
-0.27
-0.19
-0.13
-0.08
-0.04
-0.01
0.02
0.04
0.03
0.01
-0.01
0.00
0.10
0.29
0.55
0.78
0.88
0.80
0.56
0.25
-0.01
-0.15
-0.17
-0.13
-0.11
-0.11
-0.07
0.07
0.30
0.56
0.72
0.66
0.39
0.00
-0.34
-0.48
-0.39
-0.12
0.16
0.30
0.20
-0.10
-0.51
-0.84
-0.95
-0.81
-0.47
-0.06
0.26
0.42
0.39
0.26
0.14
0.10
0.17
0.33
0.54
0.73
0.84
0.82
0.65
0.39
0.16
0.03
0.05
0.17
0.29
0.31
0.20
0.03
-0.09
-0.11
-0.03
0.04
0.00
-0.17
-0.42
-0.63
-0.71
-0.64
-0.48
-0.30
-0.19
-0.16
-0.18
-0.17
-0.12
-0.05
-0.04
-0.16
-0.45
-0.82
-1.14
-1.23
-1.03
-0.56
-0.03
0.37
0.50
0.34
0.03
-0.28
-0.47
-0.49
-0.39
-0.19
0.09
0.42
0.74
0.93
0.89
0.58
0.09
-0.41
-0.76
-0.85
-0.68
-0.32
0.12
0.57
0.95
1.20
1.30
1.23
1.02
0.72
0.40
0.10
-0.15
-0.32
-0.40
-0.36
-0.24
-0.09
-0.00
-0.06
-0.28
-0.58
-0.88
-1.07
-1.07
-0.91
-0.65
-0.41
-0.31
-0.40
-0.65
-0.97
-1.18
-1.18
-0.95
-0.56
-0.13
0.19
0.32
0.28
0.13
-0.00
-0.05
0.04
0.26
0.55
0.86
1.13
1.29
1.31
1.16
0.87
0.49
0.12
-0.16
-0.27
-0.22
-0.03
0.21
0.45
0.67
0.85
1.00
1.10
1.12
1.03
0.81
0.52
0.22
0.02
-0.04
0.02
0.13
0.21
0.23
0.22
0.24
0.31
0.41
0.44
0.31
0.02
-0.34
-0.63
-0.71
-0.57
-0.29
-0.02
0.13
0.09
-0.08
-0.33
-0.56
-0.75
-0.86
-0.89
-0.86
-0.80
-0.74
-0.69
-0.65
-0.60
-0.52
-0.42
-0.34
-0.32
-0.36
-0.38
-0.33
-0.16
0.07
0.29
0.37
0.29
0.09
-0.13
-0.24
-0.19
-0.04
0.12
0.16
0.03
-0.24
-0.52
-0.70
-0.71
-0.56
-0.36
-0.22
-0.21
-0.32
-0.44
-0.50
-0.42
-0.24
-0.00
0.24
0.46
0.66
0.85
1.01
1.11
1.11
0.99
0.78
0.55
0.40
0.40
0.58
0.88
1.19
1.36
1.32
1.05
0.63
0.21
-0.10
-0.22
-0.16
0.03
0.29
0.57
0.85
1.09
1.25
1.27
1.10
0.76
0.33
-0.04
-0.23
-0.17
0.07
0.35
0.54
0.53
0.35
0.07
-0.21
-0.42
-0.54
-0.57
-0.52
-0.41
-0.29
-0.25
-0.34
-0.57
-0.85
-1.06
-1.10
-0.98
-0.77
-0.56
-0.41
-0.33
-0.28
-0.27
-0.30
-0.37
-0.45
-0.45
-0.29
0.02
0.38
0.64
0.68
0.49
0.13
-0.31
-0.75
-1.18
-1.56
-1.83
-1.88
-1.59
-0.99
-0.18
0.62
1.20
1.46
1.43
1.25
1.03
0.87
0.75
0.63
0.49
0.38
0.34
0.41
0.54
0.63
0.56
0.30
-0.09
-0.49
-0.80
-0.95
-0.93
-0.77
-0.50
-0.18
0.13
0.34
0.39
0.28
0.04
-0.23
-0.48
-0.68
-0.83
-0.92
-0.90
-0.75
-0.43
-0.04
0.33
0.55
0.55
0.39
0.18
0.01
-0.07
-0.09
-0.10
-0.13
-0.17
-0.20
-0.19
-0.15
-0.09
-0.01
0.07
0.18
0.31
0.44
0.55
0.62
0.67
0.76
0.92
1.13
1.32
1.40
1.31
1.07
0.74
0.42
0.17
0.02
-0.07
-0.13
-0.17
-0.17
-0.14
-0.07
-0.05
-0.13
-0.33
-0.65
-0.98
-1.23
-1.33
-1.25
-1.06
-0.82
-0.58
-0.37
-0.17
0.03
0.23
0.37
0.38
0.24
-0.05
-0.38
-0.64
-0.73
-0.62
-0.36
-0.06
0.17
0.32
0.41
0.52
0.69
0.91
1.09
1.11
0.96
0.67
0.37
0.14
0.04
0.08
0.19
0.33
0.46
0.55
0.58
0.50
0.30
-0.00
-0.34
-0.62
-0.75
-0.71
-0.56
-0.39
-0.29
-0.26
-0.30
-0.34
-0.37
-0.43
-0.57
-0.80
-1.04
-1.16
-1.02
-0.58
0.03
0.63
1.03
1.16
1.06
0.89
0.77
0.74
0.78
0.81
0.79
0.74
0.69
0.65
0.63
0.59
0.51
0.39
0.25
0.10
-0.06
-0.24
-0.45
-0.66
-0.83
-0.90
-0.86
-0.72
-0.53
-0.33
-0.15
-0.03
0.01
-0.03
-0.17
-0.34
-0.47
-0.46
-0.30
-0.06
0.14
0.19
0.08
-0.11
-0.25
-0.25
-0.12
0.02
0.06
-0.06
-0.27
-0.44
-0.44
-0.26
0.02
0.29
0.46
0.51
0.49
0.45
0.42
0.36
0.26
0.11
-0.06
-0.22
-0.34
-0.42
-0.48
-0.51
-0.50
-0.42
-0.26
-0.08
0.07
0.10
0.03
-0.10
-0.23
-0.28
-0.25
-0.15
-0.02
0.12
0.26
0.38
0.49
0.56
0.60
0.64
0.69
0.77
0.87
0.92
0.87
0.71
0.43
0.08
-0.28
-0.61
-0.88
-1.00
-0.92
-0.62
-0.13
0.43
0.87
1.04
0.87
0.39
-0.24
-0.83
-1.19
-1.24
-0.98
-0.51
0.04
0.55
0.93
1.16
1.20
1.08
0.81
0.44
0.06
-0.25
-0.41
-0.38
-0.21
0.02
0.19
0.19
-0.01
-0.36
-0.67
-0.78
-0.56
-0.08
0.47
0.77
0.63
0.04
-0.77
-1.47
-1.80
-1.68
-1.27
-0.80
-0.46
-0.31
-0.28
-0.26
-0.17
-0.02
0.12
0.17
0.13
0.02
-0.11
-0.21
-0.28
-0.34
-0.42
-0.50
-0.54
-0.50
-0.36
-0.14
0.10
0.29
0.41
0.45
0.46
0.46
0.44
0.36
0.22
0.04
-0.10
-0.09
0.09
0.40
0.70
0.85
0.77
0.53
0.26
0.13
0.24
0.54
0.87
1.02
0.88
0.46
-0.07
-0.49
-0.62
-0.42
0.01
0.50
0.86
0.96
0.76
0.33
-0.20
-0.67
-0.97
-1.04
-0.92
-0.73
-0.58
-0.56
-0.64
-0.79
-0.93
-1.01
-1.01
-0.93
-0.81
-0.67
-0.54
-0.47
-0.50
-0.63
-0.80
-0.92
-0.92
-0.78
-0.57
-0.38
-0.32
-0.41
-0.58
-0.72
-0.71
-0.50
-0.11
0.36
0.80
1.12
1.27
1.25
1.11
0.88
0.63
0.39
0.19
0.07
0.06
0.16
0.38
0.69
1.01
1.26
1.36
1.25
0.95
0.55
0.15
-0.12
-0.23
-0.21
-0.12
-0.07
-0.09
-0.14
-0.16
-0.09
0.14
0.51
0.99
1.50
1.93
2.19
2.20
1.93
1.45
0.88
0.36
-0.03
-0.26
-0.39
-0.51
-0.69
-0.94
-1.21
-1.40
-1.46
-1.41
-1.27
-1.09
-0.89
-0.61
-0.21
0.32
0.92
1.45
1.74
1.70
1.32
0.77
0.25
-0.04
-0.02
0.23
0.50
0.60
0.45
0.10
-0.26
-0.49
-0.52
-0.42
-0.33
-0.34
-0.47
-0.63
-0.69
-0.60
-0.37
-0.09
0.15
0.29
0.31
0.25
0.13
-0.03
-0.21
-0.39
-0.53
-0.59
-0.56
-0.48
-0.38
-0.33
-0.38
-0.52
-0.72
-0.91
-1.00
-0.89
-0.58
-0.13
0.31
0.60
0.63
0.44
0.13
-0.12
-0.19
-0.07
0.13
0.31
0.42
0.46
0.50
0.57
0.67
0.74
0.74
0.65
0.53
0.42
0.36
0.32
0.24
0.07
-0.19
-0.49
-0.76
-0.92
-0.95
-0.88
-0.77
-0.70
-0.69
-0.73
-0.79
-0.80
-0.76
-0.63
-0.42
-0.12
0.29
0.75
1.18
1.45
1.47
1.23
0.80
0.34
-0.05
-0.29
-0.36
-0.28
-0.04
0.31
0.73
1.08
1.26
1.18
0.89
0.51
0.21
0.11
0.17
0.30
0.34
0.25
0.05
-0.19
-0.38
-0.48
-0.50
-0.45
-0.34
-0.16
0.08
0.38
0.66
0.86
0.93
0.82
0.55
0.18
-0.18
-0.41
-0.43
-0.20
0.22
0.67
0.98
1.04
0.80
0.32
-0.27
-0.83
-1.28
-1.55
-1.65
-1.59
-1.40
-1.11
-0.79
-0.53
-0.38
-0.36
-0.44
-0.54
-0.60
-0.58
-0.47
-0.30
-0.13
0.01
0.11
0.16
0.18
0.17
0.13
0.04
-0.12
-0.36
-0.62
-0.83
-0.86
-0.64
-0.20
0.35
0.81
1.04
0.96
0.66
0.26
-0.08
-0.31
-0.41
-0.41
-0.35
-0.24
-0.07
0.13
0.36
0.58
0.76
0.85
0.81
0.66
0.46
0.29
0.21
0.24
0.32
0.40
0.41
0.35
0.25
0.15
0.10
0.10
0.13
0.16
0.16
0.11
0.02
-0.07
-0.11
-0.04
0.13
0.35
0.53
0.58
0.47
0.26
0.02
-0.16
-0.26
-0.28
-0.25
-0.18
-0.09
-0.00
0.06
0.11
0.12
0.14
0.16
0.18
0.19
0.14
0.03
-0.14
-0.31
-0.43
-0.45
-0.40
-0.32
-0.27
-0.29
-0.37
-0.45
-0.50
-0.47
-0.38
-0.26
-0.15
-0.06
0.01
0.09
0.14
0.13
0.02
-0.19
-0.44
-0.63
-0.68
-0.59
-0.39
-0.18
-0.04
-0.00
-0.07
-0.21
-0.41
-0.64
-0.83
-0.94
-0.93
-0.75
-0.45
-0.05
0.36
0.72
0.97
1.04
0.92
0.63
0.28
0.01
-0.09
0.06
0.37
0.73
1.00
1.08
0.97
0.70
0.36
0.01
-0.27
-0.41
-0.40
-0.22
0.05
0.31
0.48
0.51
0.44
0.34
0.28
0.29
0.34
0.41
0.48
0.53
0.55
0.52
0.37
0.09
-0.29
-0.67
-0.93
-0.99
-0.84
-0.56
-0.28
-0.08
0.01
0.00
-0.07
-0.19
-0.34
-0.51
-0.65
-0.68
-0.57
-0.34
-0.08
0.10
0.13
0.05
-0.04
-0.04
0.08
0.23
0.33
0.29
0.13
-0.07
-0.20
-0.20
-0.07
0.13
0.36
0.54
0.66
0.70
0.63
0.49
0.31
0.17
0.13
0.17
0.22
0.19
0.02
-0.23
-0.48
-0.60
-0.55
-0.38
-0.19
-0.06
-0.04
-0.06
-0.08
-0.08
-0.08
-0.14
-0.32
-0.61
-0.94
-1.24
-1.39
-1.36
-1.15
-0.82
-0.45
-0.12
0.13
0.32
0.47
0.65
0.81
0.93
0.92
0.75
0.47
0.21
0.09
0.15
0.37
0.63
0.82
0.87
0.80
0.68
0.58
0.52
0.46
0.34
0.13
-0.14
-0.38
-0.49
-0.46
-0.32
-0.19
-0.16
-0.26
-0.42
-0.55
-0.56
-0.39
-0.12
0.17
0.39
0.51
0.57
0.61
0.65
0.65
0.55
0.31
-0.06
-0.46
-0.75
-0.84
-0.73
-0.49
-0.26
-0.15
-0.21
-0.36
-0.53
-0.64
-0.64
-0.56
-0.43
-0.26
-0.06
0.18
0.42
0.58
0.57
0.39
0.08
-0.22
-0.40
-0.40
-0.28
-0.14
-0.03
0.03
0.12
0.27
0.47
0.64
0.70
0.57
0.30
-0.02
-0.27
-0.34
-0.23
0.01
0.31
0.54
0.61
0.50
0.22
-0.12
-0.40
-0.54
-0.55
-0.52
-0.52
-0.57
-0.63
-0.61
-0.45
-0.15
0.22
0.59
0.89
1.09
1.21
1.27
1.27
1.20
1.06
0.87
0.68
0.51
0.37
0.22
0.02
-0.24
-0.52
-0.76
-0.89
-0.86
-0.67
-0.36
-0.02
0.28
0.47
0.52
0.39
0.13
-0.19
-0.43
-0.47
-0.28
0.11
0.56
0.91
1.04
0.94
0.67
0.36
0.11
-0.01
-0.02
0.04
0.08
0.09
0.05
-0.01
-0.06
-0.07
-0.08
-0.14
-0.27
-0.48
-0.72
-0.91
-0.97
-0.89
-0.70
-0.46
-0.23
-0.05
0.11
0.23
0.33
0.37
0.34
0.24
0.09
-0.08
-0.22
-0.32
-0.36
-0.34
-0.26
-0.11
0.06
0.20
0.27
0.21
0.03
-0.22
-0.47
-0.66
-0.75
-0.76
-0.67
-0.46
-0.08
0.47
1.10
1.68
2.00
1.94
1.50
0.84
0.16
-0.33
-0.55
-0.54
-0.43
-0.33
-0.25
-0.18
-0.07
0.02
0.03
-0.14
-0.48
-0.87
-1.15
-1.14
-0.82
-0.30
0.23
0.58
0.69
0.58
0.37
0.15
-0.02
-0.19
-0.40
-0.68
-1.00
-1.23
-1.24
-0.94
-0.35
0.34
0.89
1.09
0.91
0.46
-0.02
-0.31
-0.36
-0.25
-0.13
-0.08
-0.10
-0.06
0.13
0.48
0.92
1.30
1.47
1.37
1.01
0.51
0.03
-0.30
-0.42
-0.35
-0.18
-0.02
0.07
0.06
-0.01
-0.11
-0.24
-0.39
-0.57
-0.75
-0.85
-0.80
-0.59
-0.27
0.04
0.22
0.19
-0.02
-0.36
-0.68
-0.88
-0.91
-0.75
-0.46
-0.15
0.10
0.20
0.14
-0.05
-0.26
-0.36
-0.26
0.03
0.44
0.78
0.94
0.88
0.68
0.45
0.32
0.32
0.44
0.60
0.72
0.75
0.67
0.49
0.25
-0.03
-0.31
-0.53
-0.68
-0.71
-0.63
-0.46
-0.22
0.05
0.30
0.48
0.53
0.45
0.25
0.04
-0.07
-0.02
0.21
0.51
0.73
0.71
0.42
-0.05
-0.53
-0.84
-0.91
-0.78
-0.53
-0.31
-0.17
-0.13
-0.12
-0.07
0.05
0.28
0.56
0.81
0.93
0.87
0.66
0.37
0.11
-0.04
-0.08
-0.05
-0.05
-0.12
-0.26
-0.37
-0.37
-0.19
0.13
0.49
0.75
0.80
0.62
0.29
-0.05
-0.30
-0.42
-0.49
-0.61
-0.86
-1.22
-1.56
-1.73
-1.63
-1.30
-0.86
-0.46
-0.21
-0.13
-0.12
-0.07
0.09
0.34
0.60
0.78
0.82
0.69
0.43
0.11
-0.20
-0.43
-0.53
-0.48
-0.30
-0.06
0.16
0.30
0.36
0.37
0.39
0.45
0.54
0.60
0.56
0.37
0.06
-0.32
-0.66
-0.85
-0.81
-0.56
-0.18
0.22
0.51
0.60
0.51
0.33
0.14
-0.01
-0.10
-0.15
-0.21
-0.28
-0.35
-0.39
-0.41
-0.40
-0.36
-0.31
-0.27
-0.26
-0.31
-0.41
-0.54
-0.62
-0.59
-0.39
-0.06
0.32
0.64
0.80
0.80
0.69
0.53
0.39
0.28
0.21
0.20
0.25
0.41
0.67
0.95
1.14
1.10
0.80
0.31
-0.23
-0.64
-0.81
-0.72
-0.47
-0.19
0.01
0.07
0.04
-0.02
-0.05
-0.01
0.05
0.09
0.05
-0.05
-0.16
-0.23
-0.22
-0.17
-0.13
-0.17
-0.28
-0.40
-0.43
-0.29
-0.00
0.33
0.56
0.60
0.42
0.07
-0.36
-0.79
-1.16
-1.42
-1.52
-1.43
-1.15
-0.77
-0.40
-0.17
-0.12
-0.19
-0.27
-0.26
-0.12
0.05
0.13
-0.00
-0.33
-0.73
-1.01
-1.02
-0.73
-0.24
0.23
0.52
0.58
0.51
0.47
0.64
1.02
1.48
1.81
1.87
1.63
1.21
0.80
0.51
0.37
0.34
0.35
0.39
0.46
0.56
0.67
0.72
0.65
0.44
0.12
-0.25
-0.56
-0.76
-0.82
-0.74
-0.57
-0.38
-0.26
-0.25
-0.37
-0.56
-0.78
-0.96
-1.08
-1.15
-1.20
-1.22
-1.18
-1.04
-0.78
-0.44
-0.08
0.21
0.36
0.37
0.31
0.24
0.23
0.30
0.44
0.62
0.79
0.92
0.98
0.96
0.90
0.82
0.75
0.71
0.67
0.59
0.43
0.23
0.06
0.02
0.14
0.40
0.69
0.90
0.94
0.84
0.65
0.49
0.39
0.35
0.32
0.25
0.10
-0.09
-0.27
-0.40
-0.48
-0.53
-0.56
-0.59
-0.57
-0.51
-0.40
-0.25
-0.10
0.07
0.27
0.49
0.69
0.79
0.74
0.52
0.20
-0.12
-0.35
-0.46
-0.45
-0.37
-0.23
-0.04
0.17
0.37
0.45
0.37
0.09
-0.33
-0.79
-1.17
-1.37
-1.35
-1.10
-0.69
-0.19
0.29
0.65
0.79
0.68
0.37
-0.02
-0.35
-0.52
-0.50
-0.34
-0.13
0.10
0.29
0.46
0.58
0.63
0.56
0.39
0.16
-0.02
-0.08
0.01
0.18
0.32
0.31
0.10
-0.24
-0.57
-0.71
-0.57
-0.18
0.32
0.74
0.95
0.89
0.66
0.36
0.10
-0.07
-0.16
-0.18
-0.13
-0.03
0.09
0.17
0.15
0.06
-0.05
-0.10
-0.06
0.03
0.06
-0.06
-0.32
-0.62
-0.83
-0.82
-0.58
-0.22
0.16
0.42
0.50
0.42
0.22
-0.00
-0.15
-0.14
0.06
0.42
0.81
1.08
1.11
0.85
0.38
-0.17
-0.63
-0.85
-0.78
-0.49
-0.12
0.16
0.23
0.07
-0.21
-0.49
-0.64
-0.62
-0.48
-0.31
-0.19
-0.14
-0.12
-0.06
0.05
0.18
0.23
0.14
-0.07
-0.34
-0.57
-0.67
-0.63
-0.50
-0.35
-0.27
-0.27
-0.33
-0.42
-0.46
-0.41
-0.27
-0.08
0.11
0.22
0.23
0.15
0.08
0.05
0.10
0.19
0.23
0.18
0.06
-0.05
-0.04
0.12
0.37
0.60
0.69
0.62
0.41
0.16
-0.04
-0.17
-0.25
-0.34
-0.46
-0.60
-0.70
-0.70
-0.59
-0.39
-0.17
0.01
0.13
0.19
0.23
0.27
0.35
0.46
0.61
0.75
0.84
0.88
0.84
0.77
0.70
0.65
0.61
0.55
0.41
0.17
-0.11
-0.39
-0.59
-0.70
-0.72
-0.65
-0.49
-0.23
0.14
0.56
0.93
1.15
1.13
0.88
0.50
0.13
-0.10
-0.15
-0.04
0.13
0.30
0.41
0.44
0.42
0.35
0.18
-0.09
-0.46
-0.86
-1.19
-1.33
-1.24
-1.00
-0.73
-0.56
-0.55
-0.63
-0.70
-0.63
-0.42
-0.18
-0.05
-0.14
-0.39
-0.66
-0.77
-0.63
-0.29
0.10
0.38
0.48
0.46
0.43
0.49
0.62
0.75
0.76
0.61
0.33
0.04
-0.14
-0.17
-0.07
0.05
0.09
0.01
-0.17
-0.33
-0.39
-0.28
-0.06
0.18
0.37
0.47
0.51
0.56
0.64
0.74
0.78
0.68
0.43
0.11
-0.15
-0.23
-0.09
0.17
0.41
0.49
0.38
0.14
-0.11
-0.27
-0.31
-0.26
-0.20
-0.16
-0.13
-0.07
0.09
0.33
0.57
0.67
0.53
0.13
-0.43
-0.96
-1.27
-1.27
-1.00
-0.61
-0.29
-0.12
-0.07
-0.05
0.01
0.09
0.12
0.00
-0.23
-0.43
-0.47
-0.28
0.08
0.39
0.49
0.30
-0.08
-0.47
-0.69
-0.68
-0.48
-0.18
0.13
0.41
0.65
0.85
0.99
1.04
0.99
0.85
0.64
0.41
0.18
-0.01
-0.16
-0.27
-0.35
-0.44
-0.54
-0.65
-0.77
-0.88
-0.95
-0.98
-0.98
-0.94
-0.83
-0.65
-0.42
-0.19
-0.04
-0.00
-0.07
-0.17
-0.22
-0.19
-0.09
0.02
0.07
0.04
-0.02
-0.06
-0.02
0.10
0.28
0.45
0.57
0.66
0.73
0.83
0.96
1.12
1.23
1.24
1.12
0.90
0.66
0.49
0.46
0.56
0.71
0.79
0.71
0.43
0.02
-0.42
-0.76
-0.92
-0.90
-0.78
-0.66
-0.62
-0.71
-0.89
-1.09
-1.20
-1.16
-0.93
-0.56
-0.13
0.26
0.53
0.67
0.71
0.69
0.68
0.68
0.71
0.72
0.71
0.65
0.53
0.37
0.21
0.10
0.09
0.18
0.33
0.46
0.50
0.42
0.25
0.05
-0.14
-0.29
-0.39
-0.42
-0.38
-0.26
-0.07
0.09
0.12
-0.02
-0.30
-0.61
-0.81
-0.84
-0.74
-0.60
-0.53
-0.54
-0.56
-0.50
-0.29
0.02
0.30
0.43
0.32
0.03
-0.30
-0.52
-0.53
-0.36
-0.10
0.14
0.28
0.33
0.36
0.41
0.49
0.52
0.45
0.25
-0.00
-0.19
-0.21
-0.03
0.24
0.46
0.51
0.40
0.24
0.16
0.23
0.43
0.63
0.73
0.70
0.61
0.56
0.61
0.71
0.76
0.64
0.32
-0.12
-0.56
-0.86
-0.97
-0.91
-0.75
-0.57
-0.41
-0.30
-0.26
-0.27
-0.32
-0.37
-0.36
-0.27
-0.10
0.11
0.28
0.37
0.35
0.24
0.08
-0.06
-0.16
-0.20
-0.19
-0.16
-0.13
-0.16
-0.27
-0.47
-0.71
-0.92
-1.01
-0.92
-0.66
-0.28
0.06
0.26
0.25
0.06
-0.22
-0.47
-0.60
-0.60
-0.50
-0.34
-0.14
0.11
0.43
0.80
1.13
1.31
1.22
0.85
0.28
-0.26
-0.60
-0.62
-0.37
-0.00
0.27
0.30
0.10
-0.20
-0.42
-0.45
-0.29
-0.07
0.07
0.04
-0.11
-0.25
-0.26
-0.10
0.16
0.36
0.43
0.33
0.18
0.09
0.13
0.28
0.42
0.45
0.30
0.02
-0.28
-0.51
-0.61
-0.60
-0.52
-0.39
-0.20
0.05
0.39
0.75
1.05
1.19
1.09
0.79
0.36
-0.04
-0.30
-0.36
-0.28
-0.14
-0.02
0.03
0.04
0.07
0.20
0.44
0.70
0.89
0.89
0.69
0.34
-0.03
-0.33
-0.50
-0.56
-0.53
-0.43
-0.27
-0.04
0.21
0.42
0.52
0.49
0.37
0.24
0.22
0.33
0.53
0.73
0.82
0.72
0.42
-0.03
-0.50
-0.90
-1.15
-1.23
-1.18
-1.05
-0.85
-0.56
-0.16
0.33
0.82
1.14
1.18
0.90
0.41
-0.11
-0.48
-0.62
-0.58
-0.46
-0.39
-0.40
-0.44
-0.43
-0.29
-0.04
0.25
0.46
0.52
0.43
0.26
0.10
0.05
0.11
0.23
0.33
0.33
0.25
0.14
0.06
0.06
0.09
0.11
0.03
-0.15
-0.35
-0.48
-0.48
-0.39
-0.29
-0.30
-0.46
-0.70
-0.87
-0.83
-0.54
-0.07
0.42
0.79
0.93
0.82
0.55
0.21
-0.07
-0.21
-0.17
-0.01
0.16
0.20
0.07
-0.20
-0.46
-0.60
-0.55
-0.39
-0.27
-0.29
-0.47
-0.71
-0.85
-0.79
-0.55
-0.24
0.01
0.14
0.16
0.16
0.19
0.29
0.43
0.56
0.66
0.70
0.66
0.50
0.25
-0.06
-0.33
-0.48
-0.45
-0.26
0.02
0.27
0.41
0.43
0.38
0.32
0.30
0.32
0.36
0.38
0.37
0.35
0.34
0.34
0.34
0.33
0.33
0.32
0.32
0.30
0.22
0.04
-0.27
-0.66
-1.02
-1.25
-1.27
-1.08
-0.77
-0.47
-0.30
-0.32
-0.47
-0.65
-0.74
-0.64
-0.38
-0.07
0.16
0.22
0.11
-0.06
-0.18
-0.16
-0.00
0.22
0.39
0.44
0.38
0.26
0.17
0.16
0.22
0.32
0.41
0.45
0.42
0.32
0.16
-0.00
-0.12
-0.12
0.02
0.26
0.55
0.79
0.88
0.79
0.56
0.28
0.07
-0.02
-0.01
0.01
-0.06
-0.24
-0.50
-0.73
-0.85
-0.85
-0.76
-0.68
-0.64
-0.62
-0.54
-0.38
-0.16
0.04
0.13
0.13
0.06
0.01
0.02
0.10
0.25
0.43
0.63
0.78
0.85
0.77
0.52
0.17
-0.18
-0.42
-0.48
-0.36
-0.10
0.25
0.63
0.95
1.14
1.17
1.05
0.85
0.69
0.62
0.63
0.64
0.57
0.40
0.17
-0.04
-0.16
-0.21
-0.22
-0.26
-0.35
-0.47
-0.63
-0.80
-0.99
-1.16
-1.29
-1.33
-1.27
-1.12
-0.94
-0.78
-0.66
-0.55
-0.39
-0.15
0.16
0.51
0.80
0.98
1.02
0.94
0.78
0.60
0.41
0.26
0.15
0.08
0.07
0.12
0.21
0.28
0.30
0.22
0.04
-0.22
-0.48
-0.71
-0.86
-0.93
-0.90
-0.79
-0.59
-0.31
0.02
0.33
0.56
0.62
0.54
0.37
0.21
0.12
0.10
0.08
0.00
-0.12
-0.22
-0.22
-0.10
0.04
0.09
-0.05
-0.34
-0.64
-0.76
-0.62
-0.26
0.16
0.45
0.51
0.40
0.25
0.18
0.28
0.52
0.79
0.97
0.99
0.83
0.54
0.18
-0.16
-0.45
-0.68
-0.83
-0.87
-0.75
-0.44
0.04
0.57
1.03
1.28
1.29
1.08
0.79
0.52
0.37
0.33
0.34
0.31
0.21
0.04
-0.12
-0.20
-0.18
-0.11
-0.07
-0.16
-0.38
-0.68
-0.93
-1.04
-0.97
-0.77
-0.52
-0.29
-0.11
0.03
0.12
0.18
0.18
0.10
-0.03
-0.19
-0.30
-0.31
-0.19
0.04
0.30
0.49
0.55
0.47
0.31
0.16
0.12
0.20
0.35
0.49
0.52
0.38
0.08
-0.29
-0.63
-0.87
-0.98
-0.98
-0.92
-0.83
-0.72
-0.57
-0.40
-0.22
-0.10
-0.05
-0.09
-0.13
-0.10
0.04
0.27
0.54
0.73
0.81
0.77
0.64
0.50
0.40
0.39
0.46
0.54
0.55
0.39
0.07
-0.36
-0.74
-0.96
-0.94
-0.73
-0.46
-0.25
-0.15
-0.12
-0.06
0.10
0.33
0.53
0.56
0.36
-0.01
-0.40
-0.63
-0.60
-0.34
0.00
0.26
0.32
0.21
0.01
-0.15
-0.21
-0.19
-0.14
-0.11
-0.11
-0.11
-0.06
0.05
0.21
0.35
0.40
0.33
0.19
0.06
0.03
0.15
0.35
0.53
0.56
0.37
0.04
-0.30
-0.47
-0.37
-0.05
0.31
0.52
0.43
0.04
-0.48
-0.90
-1.04
-0.85
-0.41
0.07
0.39
0.47
0.34
0.14
-0.02
-0.02
0.12
0.36
0.60
0.78
0.84
0.79
0.64
0.43
0.22
0.05
-0.05
-0.04
0.06
0.23
0.43
0.64
0.80
0.88
0.86
0.74
0.54
0.32
0.13
0.01
-0.01
0.02
0.03
-0.06
-0.31
-0.68
-1.07
-1.33
-1.34
-1.09
-0.68
-0.26
0.04
0.16
0.16
0.12
0.08
0.03
-0.08
-0.29
-0.56
-0.76
-0.80
-0.62
-0.27
0.11
0.37
0.42
0.28
0.05
-0.14
-0.23
-0.20
-0.11
-0.04
-0.03
-0.10
-0.22
-0.38
-0.55
-0.75
-0.97
-1.19
-1.38
-1.49
-1.51
-1.43
-1.27
-1.05
-0.80
-0.53
-0.25
0.00
0.22
0.36
0.38
0.26
0.04
-0.19
-0.32
-0.27
-0.04
0.26
0.50
0.59
0.57
0.56
0.66
0.95
1.38
1.79
2.08
2.17
2.09
1.88
1.63
1.35
1.05
0.71
0.33
-0.11
-0.57
-1.01
-1.33
-1.43
-1.27
-0.83
-0.23
0.36
0.78
0.92
0.80
0.56
0.32
0.22
0.25
0.37
0.47
0.49
0.42
0.30
0.20
0.14
0.11
0.08
-0.01
-0.16
-0.32
-0.43
-0.43
-0.31
-0.12
0.09
0.27
0.38
0.38
0.28
0.06
-0.25
-0.58
-0.88
-1.08
-1.11
-0.96
-0.62
-0.18
0.27
0.58
0.62
0.36
-0.12
-0.66
-1.06
-1.19
-1.06
-0.78
-0.49
-0.32
-0.29
-0.36
-0.45
-0.52
-0.57
-0.65
-0.71
-0.75
-0.68
-0.47
-0.15
0.24
0.60
0.86
1.00
1.06
1.08
1.07
1.04
0.93
0.76
0.51
0.23
-0.07
-0.36
-0.67
-0.99
-1.31
-1.55
-1.64
-1.55
-1.27
-0.90
-0.51
-0.22
-0.06
-0.01
-0.03
-0.04
-0.01
0.09
0.27
0.53
0.82
1.13
1.38
1.53
1.55
1.42
1.20
0.95
0.78
0.75
0.88
1.11
1.35
1.49
1.46
1.25
0.94
0.61
0.31
0.02
-0.29
-0.63
-0.94
-1.11
-1.05
-0.76
-0.33
0.11
0.44
0.63
0.74
0.83
0.93
1.03
1.09
1.04
0.88
0.61
0.23
-0.22
-0.67
-1.05
-1.27
-1.32
-1.24
-1.15
-1.12
-1.17
-1.24
-1.24
-1.14
-0.96
-0.80
-0.70
-0.65
-0.56
-0.37
-0.04
0.37
0.74
0.96
1.00
0.86
0.64
0.43
0.31
0.30
0.39
0.52
0.60
0.58
0.42
0.16
-0.15
-0.42
-0.60
-0.68
-0.69
-0.68
-0.69
-0.72
-0.77
-0.78
-0.73
-0.64
-0.49
-0.33
-0.14
0.06
0.23
0.36
0.39
0.30
0.10
-0.15
-0.40
-0.58
-0.65
-0.58
-0.39
-0.10
0.24
0.52
0.67
0.61
0.33
-0.10
-0.59
-1.03
-1.32
-1.41
-1.28
-0.94
-0.46
0.07
0.53
0.84
0.97
0.95
0.88
0.83
0.82
0.82
0.76
0.62
0.44
0.32
0.33
0.52
0.80
1.04
1.14
1.05
0.84
0.59
0.38
0.20
0.03
-0.16
-0.34
-0.45
-0.42
-0.27
-0.06
0.09
0.11
0.02
-0.11
-0.20
-0.18
-0.08
0.04
0.12
0.15
0.13
0.09
0.02
-0.09
-0.24
-0.43
-0.61
-0.75
-0.80
-0.77
-0.67
-0.58
-0.54
-0.58
-0.69
-0.83
-0.91
-0.85
-0.60
-0.16
0.38
0.87
1.19
1.25
1.07
0.77
0.49
0.35
0.39
0.57
0.78
0.94
0.97
0.88
0.72
0.53
0.34
0.17
0.02
-0.13
-0.24
-0.29
-0.25
-0.15
-0.03
0.05
0.02
-0.12
-0.35
-0.60
-0.79
-0.88
-0.87
-0.83
-0.83
-0.92
-1.08
-1.21
-1.23
-1.04
-0.66
-0.16
0.33
0.72
0.95
1.01
0.94
0.77
0.51
0.20
-0.15
-0.47
-0.70
-0.82
-0.81
-0.69
-0.54
-0.41
-0.37
-0.43
-0.57
-0.70
-0.74
-0.63
-0.35
0.02
0.42
0.75
0.95
1.03
1.04
1.05
1.14
1.34
1.60
1.85
1.98
1.93
1.68
1.25
0.71
0.13
-0.44
-0.95
-1.32
-1.50
-1.47
-1.23
-0.86
-0.45
-0.09
0.17
0.31
0.35
0.30
0.17
-0.00
-0.19
-0.34
-0.40
-0.35
-0.20
0.02
0.22
0.30
0.19
-0.11
-0.55
-1.03
-1.43
-1.66
-1.68
-1.55
-1.32
-1.05
-0.77
-0.47
-0.15
0.19
0.51
0.76
0.91
1.00
1.05
1.11
1.17
1.17
1.05
0.80
0.44
0.06
-0.28
-0.54
-0.76
-0.96
-1.16
-1.30
-1.34
-1.26
-1.09
-0.92
-0.80
-0.70
-0.51
-0.16
0.38
1.01
1.58
1.95
2.09
2.06
1.94
1.79
1.56
1.19
0.64
-0.01
-0.64
-1.13
-1.40
-1.47
-1.43
-1.33
-1.21
-1.06
-0.87
-0.69
-0.61
-0.66
-0.87
-1.16
-1.41
-1.49
-1.32
-0.88
-0.22
0.51
1.15
1.51
1.50
1.12
0.50
-0.17
-0.71
-1.02
-1.11
-1.06
-0.94
-0.81
-0.68
-0.53
-0.37
-0.24
-0.17
-0.17
-0.19
-0.13
0.07
0.38
0.72
0.97
1.06
1.01
0.92
0.88
0.96
1.10
1.22
1.22
1.09
0.92
0.80
0.82
0.97
1.20
1.40
1.50
1.48
1.39
1.29
1.21
1.18
1.18
1.17
1.14
1.08
1.00
0.91
0.82
0.70
0.53
0.28
-0.07
-0.52
-1.03
-1.49
-1.79
-1.85
-1.64
-1.20
-0.67
-0.19
0.14
0.26
0.18
-0.03
-0.30
-0.54
-0.65
-0.60
-0.38
-0.04
0.31
0.57
0.68
0.62
0.47
0.30
0.15
-0.00
-0.17
-0.33
-0.42
-0.36
-0.13
0.18
0.45
0.54
0.41
0.16
-0.06
-0.14
-0.03
0.21
0.50
0.76
0.97
1.08
1.05
0.83
0.40
-0.19
-0.80
-1.23
-1.35
-1.13
-0.68
-0.16
0.26
0.48
0.47
0.31
0.07
-0.15
-0.30
-0.39
-0.42
-0.44
-0.45
-0.44
-0.40
-0.31
-0.17
-0.02
0.09
0.11
0.02
-0.16
-0.35
-0.48
-0.52
-0.48
-0.45
-0.51
-0.72
-1.05
-1.43
-1.71
-1.80
-1.69
-1.43
-1.11
-0.82
-0.62
-0.52
-0.49
-0.51
-0.52
-0.51
-0.47
-0.40
-0.30
-0.20
-0.08
0.03
0.11
0.13
0.03
-0.19
-0.53
-0.90
-1.19
-1.31
-1.21
-0.95
-0.60
-0.25
0.09
0.46
0.91
1.44
1.98
2.43
2.68
2.71
2.56
2.31
2.02
1.70
1.33
0.91
0.49
0.14
-0.08
-0.16
-0.15
-0.14
-0.18
-0.31
-0.48
-0.61
-0.65
-0.57
-0.41
-0.24
-0.10
-0.01
0.06
0.15
0.28
0.42
0.48
0.37
0.11
-0.22
-0.46
-0.50
-0.29
0.08
0.48
0.81
1.01
1.09
1.11
1.11
1.10
1.12
1.16
1.23
1.31
1.39
1.44
1.46
1.46
1.45
1.42
1.35
1.22
1.06
0.95
0.93
1.00
1.07
1.00
0.71
0.23
-0.31
-0.72
-0.88
-0.78
-0.52
-0.24
-0.08
-0.11
-0.34
-0.71
-1.16
-1.61
-1.97
-2.15
-2.09
-1.77
-1.25
-0.68
-0.23
-0.03
-0.10
-0.34
-0.58
-0.68
-0.55
-0.26
0.07
0.30
0.35
0.20
-0.08
-0.42
-0.74
-0.98
-1.10
-1.07
-0.88
-0.55
-0.14
0.30
0.68
0.96
1.09
1.07
0.94
0.78
0.64
0.56
0.50
0.42
0.29
0.14
0.02
-0.04
-0.08
-0.17
-0.38
-0.70
-1.01
-1.14
-0.98
-0.54
0.02
0.49
0.70
0.64
0.39
0.13
-0.03
-0.01
0.12
0.29
0.42
0.46
0.41
0.32
0.22
0.16
0.15
0.18
0.22
0.25
0.23
0.18
0.10
0.01
-0.08
-0.14
-0.18
-0.19
-0.19
-0.21
-0.28
-0.43
-0.67
-0.93
-1.14
-1.23
-1.14
-0.87
-0.52
-0.19
-0.02
-0.07
-0.35
-0.75
-1.10
-1.26
-1.15
-0.80
-0.33
0.12
0.43
0.58
0.61
0.60
0.61
0.64
0.67
0.69
0.68
0.62
0.53
0.41
0.25
0.06
-0.20
-0.50
-0.82
-1.11
-1.28
-1.29
-1.14
-0.87
-0.58
-0.34
-0.19
-0.12
-0.06
0.01
0.11
0.22
0.29
0.28
0.18
0.02
-0.15
-0.29
-0.34
-0.26
-0.06
0.21
0.46
0.60
0.61
0.55
0.52
0.59
0.73
0.88
0.92
0.81
0.56
0.27
0.03
-0.13
-0.20
-0.21
-0.18
-0.10
0.02
0.16
0.27
0.31
0.26
0.13
-0.02
-0.14
-0.19
-0.15
-0.03
0.15
0.33
0.46
0.53
0.54
0.52
0.48
0.39
0.21
-0.09
-0.46
-0.78
-0.94
-0.89
-0.74
-0.63
-0.73
-1.08
-1.56
-1.99
-2.19
-2.09
-1.72
-1.20
-0.64
-0.11
0.34
0.68
0.89
0.97
0.95
0.91
0.88
0.84
0.75
0.57
0.33
0.11
0.04
0.16
0.40
0.63
0.73
0.66
0.52
0.45
0.53
0.76
1.02
1.18
1.16
0.96
0.66
0.35
0.05
-0.22
-0.46
-0.65
-0.75
-0.74
-0.66
-0.59
-0.61
-0.73
-0.89
-0.97
-0.87
-0.56
-0.14
0.27
0.54
0.63
0.60
0.55
0.55
0.61
0.66
0.61
0.44
0.20
0.01
-0.02
0.12
0.35
0.50
0.46
0.16
-0.33
-0.84
-1.21
-1.34
-1.25
-1.03
-0.81
-0.70
-0.69
-0.74
-0.78
-0.77
-0.73
-0.70
-0.71
-0.75
-0.76
-0.67
-0.41
-0.03
0.39
0.74
0.95
1.01
0.97
0.90
0.85
0.86
0.90
0.97
1.00
0.98
0.92
0.82
0.73
0.68
0.66
0.71
0.79
0.88
0.91
0.84
0.60
0.21
-0.32
-0.88
-1.37
-1.69
-1.79
-1.68
-1.40
-1.05
-0.70
-0.45
-0.34
-0.37
-0.51
-0.67
-0.75
-0.71
-0.52
-0.22
0.13
0.50
0.86
1.17
1.37
1.39
1.20
0.87
0.49
0.22
0.13
0.20
0.32
0.42
0.47
0.48
0.53
0.63
0.71
0.71
0.58
0.37
0.18
0.10
0.17
0.29
0.37
0.32
0.16
-0.04
-0.17
-0.19
-0.10
0.02
0.08
0.04
-0.13
-0.40
-0.71
-0.98
-1.13
-1.09
-0.85
-0.49
-0.12
0.11
0.14
0.00
-0.20
-0.32
-0.28
-0.08
0.18
0.37
0.37
0.17
-0.21
-0.67
-1.10
-1.40
-1.50
-1.38
-1.07
-0.67
-0.29
-0.01
0.12
0.17
0.22
0.35
0.58
0.84
1.02
1.05
0.90
0.65
0.42
0.29
0.31
0.45
0.62
0.72
0.72
0.65
0.56
0.54
0.62
0.75
0.82
0.72
0.39
-0.11
-0.68
-1.14
-1.40
-1.42
-1.31
-1.15
-1.06
-1.05
-1.08
-1.10
-1.08
-1.00
-0.87
-0.69
-0.44
-0.13
0.20
0.46
0.60
0.59
0.49
0.40
0.42
0.57
0.81
1.04
1.19
1.21
1.14
1.05
0.97
0.91
0.84
0.71
0.49
0.18
-0.20
-0.58
-0.91
-1.12
-1.20
-1.17
-1.12
-1.09
-1.11
-1.15
-1.13
-1.00
-0.73
-0.41
-0.10
0.11
0.19
0.17
0.11
0.10
0.21
0.43
0.72
0.99
1.14
1.12
0.93
0.61
0.25
-0.11
-0.41
-0.63
-0.71
-0.63
-0.38
-0.03
0.32
0.54
0.57
0.43
0.20
-0.00
-0.15
-0.24
-0.33
-0.44
-0.54
-0.57
-0.50
-0.36
-0.21
-0.15
-0.22
-0.40
-0.62
-0.77
-0.80
-0.69
-0.49
-0.26
-0.07
0.02
-0.00
-0.12
-0.24
-0.28
-0.19
0.01
0.23
0.35
0.36
0.31
0.32
0.50
0.81
1.09
1.15
0.89
0.37
-0.19
-0.56
-0.64
-0.51
-0.35
-0.31
-0.43
-0.63
-0.79
-0.82
-0.74
-0.64
-0.57
-0.53
-0.45
-0.25
0.08
0.44
0.72
0.82
0.69
0.39
0.04
-0.24
-0.36
-0.34
-0.21
-0.11
-0.13
-0.30
-0.56
-0.79
-0.87
-0.74
-0.46
-0.17
0.01
0.03
-0.08
-0.19
-0.20
-0.10
0.08
0.26
0.41
0.56
0.73
0.94
1.16
1.28
1.27
1.12
0.91
0.73
0.62
0.60
0.67
0.78
0.89
0.96
0.95
0.85
0.68
0.51
0.38
0.36
0.41
0.49
0.53
0.55
0.56
0.63
0.76
0.89
0.92
0.78
0.50
0.15
-0.13
-0.27
-0.26
-0.19
-0.14
-0.13
-0.16
-0.16
-0.05
0.22
0.60
1.03
1.39
1.57
1.51
1.21
0.77
0.31
-0.06
-0.27
-0.35
-0.38
-0.44
-0.57
-0.77
-0.97
-1.11
-1.16
-1.08
-0.92
-0.71
-0.50
-0.34
-0.23
-0.19
-0.21
-0.29
-0.42
-0.56
-0.66
-0.68
-0.58
-0.38
-0.17
-0.02
-0.01
-0.14
-0.33
-0.48
-0.52
-0.43
-0.25
-0.06
0.09
0.16
0.19
0.20
0.24
0.28
0.33
0.35
0.33
0.30
0.25
0.19
0.13
0.09
0.09
0.17
0.31
0.49
0.61
0.63
0.53
0.36
0.20
0.13
0.15
0.22
0.25
0.20
0.06
-0.12
-0.31
-0.45
-0.54
-0.56
-0.51
-0.43
-0.37
-0.39
-0.51
-0.72
-0.92
-1.00
-0.90
-0.63
-0.30
-0.05
0.03
-0.11
-0.38
-0.66
-0.82
-0.79
-0.60
-0.34
-0.12
0.00
0.04
0.04
0.09
0.21
0.40
0.59
0.71
0.73
0.65
0.49
0.29
0.09
-0.07
-0.16
-0.15
-0.05
0.11
0.30
0.48
0.63
0.73
0.77
0.74
0.63
0.48
0.34
0.24
0.19
0.14
0.03
-0.13
-0.31
-0.41
-0.40
-0.29
-0.19
-0.19
-0.32
-0.49
-0.56
-0.45
-0.21
0.03
0.09
-0.11
-0.49
-0.92
-1.22
-1.31
-1.17
-0.89
-0.55
-0.23
-0.00
0.08
0.02
-0.12
-0.25
-0.27
-0.11
0.19
0.53
0.80
0.91
0.85
0.67
0.47
0.31
0.23
0.22
0.24
0.25
0.25
0.25
0.31
0.45
0.66
0.90
1.07
1.09
0.96
0.77
0.59
0.50
0.49
0.46
0.32
0.07
-0.27
-0.58
-0.80
-0.91
-0.92
-0.87
-0.78
-0.63
-0.42
-0.17
0.05
0.21
0.28
0.29
0.28
0.27
0.25
0.17
-0.03
-0.33
-0.63
-0.84
-0.90
-0.81
-0.64
-0.50
-0.43
-0.41
-0.36
-0.21
0.06
0.39
0.70
0.90
0.94
0.84
0.64
0.40
0.15
-0.04
-0.15
-0.18
-0.14
-0.10
-0.11
-0.19
-0.33
-0.53
-0.77
-1.06
-1.38
-1.69
-1.92
-2.01
-1.93
-1.76
-1.57
-1.44
-1.42
-1.47
-1.54
-1.54
-1.47
-1.32
-1.19
-1.17
-1.40
-1.92
-2.70
-3.62
-4.45
-5.00
-5.18
-5.04
-4.78
-4.68
-4.95
-5.63
-6.58
-7.55
-8.26
-8.60
-8.62
-8.54
-8.57
-8.89
-9.57
-10.57
-11.79
-12.99
-13.79
-13.62
-11.97
-8.56
-3.60
2.22
7.95
12.72
16.04
17.88
18.48
18.15
17.06
15.29
12.88
10.06
7.23
4.82
3.17
2.35
2.19
2.36
2.54
2.47
2.07
1.39
0.56
-0.19
-0.66
-0.65
-0.14
0.79
1.88
2.87
3.58
3.98
4.17
4.29
4.37
4.33
4.03
3.43
2.64
1.92
1.48
1.39
1.51
1.54
1.26
0.57
-0.39
-1.37
-2.10
-2.47
-2.47
-2.25
-1.99
-1.82
-1.85
-2.09
-2.49
-2.98
-3.43
-3.75
-3.90
-3.91
-3.89
-3.96
-4.20
-4.57
-4.91
-5.05
-4.87
-4.44
-3.96
-3.67
-3.70
-4.02
-4.39
-4.56
-4.37
-3.88
-3.24
-2.66
-2.22
-1.91
-1.72
-1.69
-1.89
-2.29
-2.64
-2.45
-1.25
1.22
4.77
8.79
12.51
15.28
16.81
17.22
16.84
16.09
15.23
14.41
13.67
13.05
12.61
12.40
12.40
12.55
12.73
12.79
12.66
12.35
11.97
11.67
11.64
11.94
12.48
13.00
13.17
12.72
11.54
9.76
7.63
5.48
3.55
1.96
0.72
-0.27
-1.07
-1.72
-2.26
-2.69
-3.08
-3.45
-3.82
-4.21
-4.62
-5.04
-5.48
-5.94
-6.40
-6.80
-7.11
-7.30
-7.43
-7.59
-7.90
-8.41
-9.08
-9.73
-10.16
-10.21
-9.85
-9.18
-8.35
-7.50
-6.71
-6.02
-5.43
-4.97
-4.67
-4.55
-4.55
-4.53
-4.37
-3.96
-3.35
-2.65
-2.04
-1.66
-1.54
-1.60
-1.73
-1.80
-1.75
-1.56
-1.26
-0.90
-0.51
-0.13
0.20
0.41
0.47
0.39
0.21
0.03
-0.07
-0.06
0.05
0.17
0.23
0.22
0.12
-0.07
-0.34
-0.71
-1.18
-1.67
-2.07
-2.25
-2.13
-1.79
-1.39
-1.16
-1.21
-1.56
-2.09
-2.59
-2.96
-3.16
-3.24
-3.30
-3.39
-3.47
-3.50
-3.41
-3.17
-2.79
-2.27
-1.60
-0.83
-0.05
0.59
0.95
0.93
0.59
0.08
-0.43
-0.80
-0.98
-1.01
-0.96
-0.88
-0.78
-0.66
-0.49
-0.22
0.15
0.64
1.22
1.83
2.36
2.69
2.78
2.61
2.28
1.89
1.52
1.21
0.94
0.66
0.32
-0.06
-0.43
-0.68
-0.73
-0.58
-0.29
-0.00
0.18
0.21
0.13
0.01
-0.04
0.05
0.26
0.57
0.92
1.26
1.54
1.73
1.82
1.85
1.86
1.91
2.03
2.20
2.35
2.45
2.44
2.35
2.20
2.04
1.86
1.64
1.38
1.11
0.88
0.75
0.75
0.87
1.05
1.21
1.29
1.23
1.05
0.81
0.58
0.44
0.44
0.55
0.69
0.80
0.82
0.73
0.58
0.42
0.29
0.27
0.40
0.70
1.15
1.64
2.05
2.25
2.19
1.93
1.60
1.30
1.09
0.93
0.77
0.55
0.28
0.04
-0.11
-0.15
-0.12
-0.06
-0.04
-0.10
-0.23
-0.41
-0.65
-0.98
-1.41
-1.96
-2.58
-3.20
-3.75
-4.22
-4.62
-5.02
-5.47
-5.96
-6.41
-6.72
-6.82
-6.68
-6.38
-5.99
-5.61
-5.26
-4.89
-4.44
-3.88
-3.22
-2.54
-1.95
-1.50
-1.18
-0.91
-0.58
-0.12
0.51
1.24
1.96
2.56
2.98
3.19
3.24
3.17
3.06
2.96
2.89
2.87
2.87
2.88
2.85
2.73
2.52
2.26
2.03
1.94
2.08
2.46
3.04
3.72
4.40
5.01
5.51
5.89
6.15
6.23
6.04
5.54
4.74
3.73
2.66
1.71
0.98
0.50
0.22
0.02
-0.18
-0.44
-0.73
-1.00
-1.18
-1.24
-1.19
-1.10
-1.03
-1.03
-1.12
-1.30
-1.56
-1.89
-2.26
-2.62
-2.89
-3.00
-2.92
-2.70
-2.42
-2.17
-1.98
-1.80
-1.50
-0.95
-0.07
1.16
2.65
4.27
5.81
7.09
7.95
8.30
8.12
7.45
6.41
5.08
3.58
2.00
0.45
-0.96
-2.15
-3.08
-3.77
-4.26
-4.67
-5.07
-5.55
-6.15
-6.84
-7.56
-8.20
-8.72
-9.09
-9.37
-9.60
-9.80
-9.90
-9.84
-9.58
-9.18
-8.79
-8.57
-8.59
-8.80
-9.05
-9.22
-9.27
-9.25
-9.26
-9.33
-9.38
-9.27
-8.88
-8.17
-7.14
-5.75
-3.81
-0.99
2.94
7.96
13.59
19.01
23.37
26.12
27.21
27.03
26.16
25.04
23.82
22.36
20.45
17.95
14.99
11.84
8.79
5.98
3.46
1.16
-0.93
-2.70
-3.95
-4.53
-4.38
-3.69
-2.78
-1.99
-1.58
-1.54
-1.73
-1.88
-1.76
-1.23
-0.28
1.03
2.50
3.83
4.64
4.55
3.35
1.10
-1.81
-4.73
-7.03
-8.31
-8.55
-8.06
-7.30
-6.64
-6.23
-5.98
-5.69
-5.24
-4.63
-3.99
-3.49
-3.21
-3.13
-3.14
-3.11
-2.94
-2.66
-2.32
-2.00
-1.74
-1.54
-1.39
-1.23
-1.03
-0.78
-0.47
-0.16
0.11
0.26
0.25
0.09
-0.13
-0.28
-0.25
-0.01
0.36
0.69
0.87
0.83
0.67
0.51
0.51
0.72
1.12
1.58
1.98
2.19
2.16
1.92
1.54
1.12
0.74
0.48
0.35
0.30
0.28
0.24
0.16
0.05
-0.02
-0.02
0.09
0.26
0.40
0.45
0.40
0.31
0.24
0.21
0.18
0.07
-0.15
-0.46
-0.76
-0.93
-0.91
-0.75
-0.56
-0.43
-0.39
-0.37
-0.29
-0.08
0.24
0.58
0.84
0.97
0.96
0.84
0.65
0.40
0.13
-0.12
-0.31
-0.39
-0.33
-0.14
0.11
0.33
0.44
0.43
0.35
0.27
0.27
0.33
0.41
0.45
0.40
0.25
0.04
-0.21
-0.42
-0.57
-0.62
-0.55
-0.37
-0.11
0.17
0.42
0.61
0.72
0.76
0.72
0.56
0.29
-0.04
-0.35
-0.51
-0.43
-0.10
0.39
0.90
1.30
1.51
1.52
1.38
1.18
1.01
0.94
0.97
1.08
1.19
1.26
1.23
1.09
0.84
0.49
0.10
-0.24
-0.48
-0.59
-0.63
-0.68
-0.79
-0.95
-1.10
-1.16
-1.12
-1.06
-1.06
-1.20
-1.43
-1.65
-1.78
-1.76
-1.61
-1.39
-1.10
-0.76
-0.37
0.00
0.26
0.31
0.16
-0.12
-0.37
-0.50
-0.48
-0.38
-0.26
-0.18
-0.11
0.02
0.25
0.57
0.89
1.10
1.10
0.85
0.38
-0.20
-0.73
-1.05
-1.08
-0.84
-0.44
-0.07
0.13
0.12
-0.05
-0.25
-0.37
-0.38
-0.31
-0.25
-0.23
-0.21
-0.11
0.05
0.23
0.31
0.20
-0.05
-0.31
-0.42
-0.30
-0.01
0.28
0.44
0.43
0.33
0.28
0.39
0.64
0.95
1.18
1.23
1.10
0.82
0.47
0.13
-0.12
-0.23
-0.19
-0.06
0.12
0.31
0.48
0.66
0.86
1.04
1.15
1.14
1.01
0.82
0.67
0.64
0.74
0.90
1.06
1.18
1.28
1.45
1.70
2.01
2.25
2.32
2.16
1.84
1.48
1.20
1.07
1.03
1.00
0.87
0.59
0.19
-0.28
-0.74
-1.13
-1.41
-1.53
-1.50
-1.34
-1.12
-0.89
-0.71
-0.59
-0.52
-0.47
-0.43
-0.39
-0.34
-0.27
-0.17
-0.04
0.09
0.19
0.27
0.40
0.63
0.99
1.45
1.91
2.27
2.46
2.48
2.33
2.05
1.64
1.11
0.49
-0.13
-0.65
-1.02
-1.22
-1.32
-1.41
-1.56
-1.78
-2.02
-2.21
-2.31
-2.25
-2.05
-1.71
-1.33
-1.01
-0.85
-0.92
-1.22
-1.63
-2.01
-2.20
-2.12
-1.79
-1.33
-0.88
-0.58
-0.50
-0.60
-0.79
-0.93
-0.91
-0.72
-0.43
-0.19
-0.11
-0.22
-0.45
-0.64
-0.66
-0.48
-0.15
0.20
0.44
0.51
0.43
0.28
0.12
0.01
-0.06
-0.11
-0.17
-0.27
-0.39
-0.50
-0.55
-0.51
-0.37
-0.14
0.14
0.44
0.73
0.99
1.18
1.28
1.26
1.16
1.00
0.81
0.58
0.28
-0.11
-0.57
-1.01
-1.35
-1.51
-1.48
-1.34
-1.17
-1.03
-0.94
-0.89
-0.87
-0.90
-1.00
-1.19
-1.45
-1.71
-1.91
-2.00
-1.96
-1.84
-1.73
-1.67
-1.70
-1.78
-1.87
-1.93
-1.93
-1.91
-1.88
-1.85
-1.80
-1.70
-1.53
-1.35
-1.26
-1.32
-1.59
-1.99
-2.42
-2.76
-2.93
-2.93
-2.82
-2.66
-2.51
-2.39
-2.35
-2.38
-2.46
-2.49
-2.31
-1.82
-0.99
0.10
1.26
2.33
3.21
3.94
4.60
5.24
5.84
6.29
6.52
6.47
6.16
5.66
4.97
4.11
3.11
2.01
0.95
0.09
-0.42
-0.49
-0.14
0.54
1.41
2.34
3.21
3.95
4.58
5.15
5.65
6.04
6.14
5.80
4.96
3.69
2.25
0.89
-0.18
-0.94
-1.47
-1.93
-2.39
-2.82
-3.11
-3.15
-2.90
-2.41
-1.83
-1.28
-0.91
-0.72
-0.71
-0.77
-0.79
-0.68
-0.45
-0.18
0.01
0.05
-0.06
-0.26
-0.45
-0.55
-0.55
-0.48
-0.40
-0.36
-0.36
-0.40
-0.43
-0.43
-0.39
-0.33
-0.27
-0.25
-0.28
-0.33
-0.37
-0.37
-0.30
-0.20
-0.11
-0.05
-0.01
0.03
0.11
0.26
0.43
0.57
0.62
0.52
0.27
-0.12
-0.57
-0.98
-1.28
-1.41
-1.41
-1.37
-1.36
-1.37
-1.36
-1.23
-0.92
-0.47
0.01
0.38
0.57
0.61
0.58
0.58
0.65
0.77
0.87
0.89
0.83
0.71
0.55
0.40
0.26
0.16
0.11
0.10
0.11
0.11
0.07
0.04
0.04
0.11
0.24
0.37
0.42
0.35
0.17
-0.06
-0.26
-0.35
-0.34
-0.25
-0.12
0.01
0.12
0.19
0.20
0.15
0.04
-0.11
-0.29
-0.45
-0.58
-0.66
-0.66
-0.59
-0.49
-0.39
-0.34
-0.31
-0.25
-0.11
0.12
0.37
0.56
0.60
0.47
0.25
0.03
-0.10
-0.15
-0.19
-0.27
-0.42
-0.55
-0.58
-0.46
-0.22
0.05
0.26
0.37
0.36
0.27
0.13
-0.06
-0.28
-0.50
-0.68
-0.76
-0.70
-0.49
-0.17
0.19
0.50
0.66
0.62
0.37
-0.05
-0.47
-0.77
-0.83
-0.66
-0.33
0.06
0.41
0.70
0.90
1.04
1.11
1.08
0.94
0.71
0.43
0.12
-0.16
-0.40
-0.58
-0.69
-0.75
-0.79
-0.82
-0.85
-0.83
-0.69
-0.41
-0.04
0.33
0.58
0.65
0.54
0.34
0.13
-0.02
-0.13
-0.23
-0.35
-0.48
-0.56
-0.52
-0.34
-0.07
0.19
0.34
0.30
0.07
-0.26
-0.58
-0.77
-0.76
-0.55
-0.21
0.14
0.41
0.52
0.47
0.34
0.24
0.26
0.47
0.83
1.24
1.60
1.83
1.93
1.95
1.94
1.99
2.13
2.36
2.64
2.88
3.00
2.96
2.77
2.49
2.18
1.89
1.61
1.28
0.88
0.40
-0.08
-0.52
-0.87
-1.16
-1.42
-1.70
-2.00
-2.28
-2.47
-2.54
-2.43
-2.14
-1.68
-1.11
-0.56
-0.20
-0.17
-0.50
-1.10
-1.75
-2.20
-2.28
-1.95
-1.32
-0.56
0.12
0.59
0.81
0.82
0.73
0.65
0.61
0.61
0.58
0.50
0.38
0.29
0.29
0.39
0.50
0.48
0.21
-0.37
-1.19
-2.11
-2.99
-3.69
-4.09
-4.14
-3.83
-3.26
-2.57
-1.96
-1.55
-1.38
-1.35
-1.28
-1.04
-0.65
-0.26
-0.10
-0.35
-1.06
-2.10
-3.27
-4.33
-5.13
-5.57
-5.63
-5.32
-4.65
-3.68
-2.49
-1.21
0.04
1.16
2.13
2.98
3.72
4.40
5.00
5.52
5.92
6.18
6.29
6.23
6.01
5.61
5.12
4.62
4.22
3.93
3.69
3.34
2.77
1.96
1.06
0.28
-0.18
-0.28
-0.09
0.21
0.46
0.65
0.86
1.18
1.62
2.04
2.28
2.23
1.89
1.44
1.04
0.81
0.68
0.51
0.15
-0.44
-1.18
-1.92
-2.57
-3.16
-3.79
-4.55
-5.45
-6.38
-7.17
-7.71
-8.02
-8.21
-8.45
-8.82
-9.27
-9.69
-9.92
-9.93
-9.80
-9.71
-9.87
-10.39
-11.24
-12.23
-13.08
-13.54
-13.47
-12.94
-12.20
-11.56
-11.28
-11.47
-11.99
-12.42
-12.08
-10.19
-6.04
0.66
9.61
19.78
29.71
37.80
42.75
43.89
41.26
35.54
27.87
19.59
11.93
5.74
1.38
-1.33
-2.88
-3.77
-4.29
-4.44
-4.06
-3.10
-1.74
-0.32
0.78
1.41
1.69
1.89
2.28
2.95
3.75
4.40
4.65
4.43
3.91
3.34
2.99
2.95
3.12
3.31
3.36
3.24
3.02
2.84
2.75
2.68
2.48
2.01
1.22
0.19
-0.89
-1.85
-2.55
-2.93
-2.99
-2.80
-2.46
-2.09
-1.80
-1.72
-1.87
-2.21
-2.63
-2.98
-3.16
-3.11
-2.87
-2.51
-2.10
-1.68
-1.23
-0.71
-0.07
0.73
1.65
2.60
3.43
4.01
4.23
4.07
3.66
3.14
2.71
2.49
2.49
2.65
2.80
2.77
2.43
1.75
0.79
-0.25
-1.17
-1.82
-2.13
-2.16
-2.02
-1.80
-1.55
-1.27
-0.98
-0.74
-0.61
-0.65
-0.87
-1.23
-1.64
-2.07
-2.48
-2.87
-3.26
-3.62
-3.91
-4.10
-4.14
-4.01
-3.72
-3.32
-2.86
-2.40
-1.97
-1.57
-1.18
-0.76
-0.32
0.12
0.50
0.80
1.01
1.16
1.28
1.34
1.29
1.07
0.66
0.13
-0.40
-0.81
-1.01
-0.99
-0.81
-0.57
-0.36
-0.25
-0.27
-0.38
-0.52
-0.61
-0.61
-0.51
-0.34
-0.16
0.00
0.12
0.18
0.18
0.07
-0.17
-0.58
-1.11
-1.65
-2.08
-2.32
-2.36
-2.29
-2.20
-2.16
-2.15
-2.09
-1.92
-1.63
-1.31
-1.06
-0.94
-0.95
-1.01
-1.04
-0.98
-0.88
-0.79
-0.78
-0.84
-0.93
-0.97
-0.89
-0.69
-0.43
-0.20
-0.14
-0.31
-0.70
-1.22
-1.73
-2.07
-2.19
-2.11
-1.91
-1.69
-1.46
-1.20
-0.87
-0.42
0.13
0.72
1.30
1.85
2.39
2.92
3.41
3.79
3.96
3.86
3.55
3.14
2.74
2.41
2.11
1.74
1.18
0.43
-0.42
-1.22
-1.84
-2.22
-2.34
-2.22
-1.90
-1.38
-0.71
0.02
0.71
1.30
1.79
2.22
2.63
3.01
3.28
3.40
3.34
3.12
2.83
2.57
2.42
2.49
2.85
3.53
4.46
5.49
6.45
7.18
7.62
7.80
7.79
7.59
7.16
6.43
5.39
4.16
2.92
1.84
1.05
0.56
0.30
0.18
0.13
0.11
0.14
0.24
0.37
0.48
0.46
0.19
-0.37
-1.19
-2.13
-3.04
-3.74
-4.17
-4.35
-4.38
-4.35
-4.32
-4.22
-4.01
-3.65
-3.21
-2.83
-2.69
-2.85
-3.26
-3.71
-3.97
-3.88
-3.46
-2.88
-2.37
-2.10
-2.12
-2.32
-2.50
-2.50
-2.23
-1.75
-1.20
-0.74
-0.48
-0.45
-0.57
-0.71
-0.78
-0.76
-0.67
-0.54
-0.39
-0.25
-0.12
-0.05
-0.07
-0.22
-0.48
-0.77
-0.99
-1.05
-0.93
-0.71
-0.48
-0.33
-0.30
-0.34
-0.40
-0.40
-0.30
-0.10
0.14
0.35
0.44
0.36
0.11
-0.26
-0.65
-0.92
-0.98
-0.80
-0.43
0.03
0.46
0.79
0.97
1.02
0.96
0.81
0.59
0.36
0.16
0.05
0.03
0.05
0.04
-0.04
-0.17
-0.25
-0.18
0.11
0.61
1.18
1.64
1.82
1.67
1.24
0.68
0.14
-0.27
-0.53
-0.69
-0.82
-0.95
-1.02
-0.96
-0.76
-0.48
-0.26
-0.25
-0.49
-0.90
-1.31
-1.54
-1.50
-1.24
-0.89
-0.60
-0.44
-0.39
-0.34
-0.24
-0.05
0.17
0.34
0.39
0.29
0.05
-0.30
-0.67
-0.98
-1.17
-1.17
-0.99
-0.68
-0.32
-0.03
0.13
0.13
0.01
-0.17
-0.32
-0.39
-0.35
-0.22
-0.03
0.15
0.27
0.29
0.24
0.17
0.17
0.29
0.55
0.90
1.25
1.48
1.56
1.49
1.34
1.21
1.17
1.25
1.41
1.58
1.69
1.68
1.54
1.30
1.01
0.71
0.41
0.14
-0.05
-0.15
-0.16
-0.11
-0.05
-0.05
-0.14
-0.28
-0.37
-0.34
-0.18
0.04
0.17
0.09
-0.23
-0.70
-1.11
-1.28
-1.17
-0.87
-0.58
-0.48
-0.62
-0.94
-1.29
-1.51
-1.55
-1.43
-1.24
-1.08
-1.02
-1.09
-1.28
-1.52
-1.72
-1.78
-1.65
-1.35
-0.99
-0.70
-0.57
-0.62
-0.75
-0.87
-0.90
-0.80
-0.60
-0.33
-0.01
0.36
0.74
1.06
1.22
1.15
0.85
0.43
0.08
-0.05
0.09
0.45
0.86
1.16
1.27
1.19
1.01
0.79
0.58
0.36
0.11
-0.12
-0.28
-0.26
-0.02
0.41
0.94
1.45
1.82
1.99
1.97
1.82
1.62
1.44
1.31
1.23
1.17
1.11
1.04
0.97
0.91
0.84
0.75
0.63
0.49
0.37
0.32
0.34
0.42
0.50
0.53
0.49
0.42
0.35
0.32
0.32
0.31
0.22
0.03
-0.26
-0.58
-0.83
-0.92
-0.84
-0.64
-0.43
-0.29
-0.25
-0.27
-0.26
-0.19
-0.10
-0.09
-0.30
-0.80
-1.52
-2.29
-2.90
-3.17
-3.05
-2.64
-2.09
-1.55
-1.13
-0.86
-0.73
-0.70
-0.71
-0.68
-0.52
-0.15
0.43
1.15
1.84
2.30
2.42
2.16
1.60
0.89
0.20
-0.33
-0.62
-0.64
-0.42
-0.04
0.37
0.67
0.74
0.53
0.09
-0.47
-0.95
-1.22
-1.16
-0.82
-0.33
0.13
0.43
0.53
0.47
0.34
0.21
0.08
-0.05
-0.18
-0.25
-0.18
0.07
0.44
0.79
0.97
0.90
0.61
0.20
-0.17
-0.39
-0.43
-0.32
-0.12
0.09
0.27
0.38
0.46
0.54
0.69
0.91
1.15
1.32
1.38
1.31
1.18
1.08
1.09
1.18
1.28
1.28
1.13
0.83
0.42
-0.03
-0.47
-0.83
-1.07
-1.14
-1.03
-0.79
-0.48
-0.23
-0.07
-0.03
-0.05
-0.05
0.01
0.15
0.33
0.48
0.55
0.50
0.31
-0.00
-0.41
-0.87
-1.32
-1.71
-2.00
-2.14
-2.12
-1.95
-1.69
-1.40
-1.15
-0.99
-0.94
-0.98
-1.04
-1.04
-0.93
-0.70
-0.41
-0.15
-0.03
-0.10
-0.30
-0.55
-0.70
-0.67
-0.50
-0.27
-0.11
-0.12
-0.29
-0.57
-0.87
-1.13
-1.33
-1.47
-1.53
-1.51
-1.37
-1.15
-0.92
-0.81
-0.88
-1.12
-1.42
-1.61
-1.59
-1.34
-0.94
-0.53
-0.21
0.01
0.15
0.26
0.36
0.42
0.43
0.40
0.38
0.43
0.62
0.92
1.28
1.60
1.84
1.97
2.02
2.01
1.94
1.82
1.64
1.39
1.11
0.84
0.64
0.57
0.64
0.82
1.06
1.28
1.44
1.51
1.52
1.48
1.44
1.38
1.25
1.02
0.66
0.21
-0.28
-0.73
-1.07
-1.24
-1.25
-1.16
-1.04
-0.95
-0.86
-0.73
-0.51
-0.25
-0.03
0.04
-0.05
-0.17
-0.14
0.20
0.86
1.64
2.29
2.59
2.49
2.11
1.64
1.23
0.89
0.58
0.23
-0.17
-0.54
-0.76
-0.74
-0.48
-0.07
0.36
0.69
0.85
0.88
0.86
0.90
1.02
1.19
1.33
1.35
1.21
0.97
0.71
0.54
0.48
0.50
0.52
0.51
0.46
0.41
0.44
0.55
0.70
0.77
0.70
0.48
0.17
-0.13
-0.37
-0.58
-0.84
-1.22
-1.70
-2.17
-2.47
-2.51
-2.28
-1.89
-1.49
-1.22
-1.09
-1.05
-0.98
-0.79
-0.45
-0.03
0.34
0.55
0.56
0.38
0.11
-0.13
-0.24
-0.20
-0.01
0.25
0.49
0.62
0.60
0.40
0.02
-0.47
-0.96
-1.32
-1.41
-1.18
-0.66
-0.01
0.57
0.88
0.84
0.52
0.09
-0.29
-0.50
-0.55
-0.50
-0.43
-0.37
-0.33
-0.30
-0.28
-0.27
-0.27
-0.27
-0.23
-0.12
0.05
0.25
0.40
0.46
0.42
0.33
0.25
0.22
0.21
0.17
0.06
-0.10
-0.25
-0.30
-0.24
-0.13
-0.06
-0.09
-0.20
-0.29
-0.25
-0.05
0.19
0.34
0.29
0.06
-0.22
-0.40
-0.44
-0.36
-0.29
-0.27
-0.30
-0.30
-0.23
-0.12
-0.07
-0.21
-0.56
-1.04
-1.48
-1.73
-1.69
-1.41
-1.00
-0.59
-0.30
-0.18
-0.22
-0.36
-0.54
-0.68
-0.74
-0.71
-0.62
-0.50
-0.41
-0.41
-0.52
-0.70
-0.88
-0.95
-0.83
-0.53
-0.11
0.29
0.58
0.76
0.87
0.99
1.19
1.46
1.73
1.94
2.03
2.00
1.92
1.82
1.71
1.56
1.36
1.10
0.85
0.65
0.58
0.65
0.84
1.06
1.23
1.31
1.30
1.22
1.11
0.99
0.86
0.71
0.54
0.40
0.31
0.32
0.40
0.53
0.66
0.74
0.78
0.80
0.81
0.78
0.67
0.44
0.08
-0.33
-0.69
-0.91
-0.95
-0.86
-0.73
-0.65
-0.63
-0.64
-0.63
-0.58
-0.50
-0.44
-0.43
-0.46
-0.51
-0.55
-0.59
-0.63
-0.69
-0.71
-0.66
-0.49
-0.24
0.02
0.21
0.28
0.26
0.21
0.18
0.21
0.27
0.31
0.31
0.32
0.36
0.46
0.57
0.61
0.48
0.16
-0.27
-0.68
-0.94
-0.99
-0.86
-0.64
-0.42
-0.26
-0.15
-0.09
-0.11
-0.25
-0.56
-0.99
-1.41
-1.66
-1.62
-1.30
-0.80
-0.29
0.09
0.31
0.42
0.51
0.68
0.91
1.14
1.23
1.12
0.82
0.43
0.08
-0.13
-0.23
-0.29
-0.40
-0.59
-0.81
-0.97
-1.00
-0.93
-0.85
-0.87
-1.06
-1.38
-1.72
-2.01
-2.16
-2.17
-2.06
-1.83
-1.46
-0.96
-0.34
0.33
0.97
1.49
1.84
2.02
2.09
2.11
2.16
2.25
2.38
2.50
2.54
2.50
2.35
2.11
1.81
1.45
1.05
0.64
0.25
-0.05
-0.24
-0.28
-0.20
-0.05
0.12
0.27
0.36
0.37
0.28
0.11
-0.07
-0.23
-0.31
-0.33
-0.33
-0.37
-0.51
-0.71
-0.92
-1.06
-1.07
-0.97
-0.78
-0.58
-0.41
-0.27
-0.19
-0.17
-0.24
-0.46
-0.80
-1.18
-1.47
-1.53
-1.30
-0.84
-0.30
0.16
0.45
0.57
0.58
0.53
0.42
0.22
-0.10
-0.51
-0.91
-1.16
-1.16
-0.91
-0.49
-0.03
0.36
0.62
0.75
0.80
0.83
0.85
0.88
0.88
0.82
0.69
0.49
0.27
0.04
-0.14
-0.28
-0.36
-0.37
-0.33
-0.21
-0.03
0.19
0.39
0.51
0.49
0.34
0.09
-0.20
-0.45
-0.58
-0.60
-0.55
-0.48
-0.44
-0.43
-0.42
-0.37
-0.24
-0.04
0.20
0.45
0.67
0.84
0.93
0.94
0.84
0.68
0.49
0.32
0.19
0.11
0.03
-0.09
-0.26
-0.45
-0.60
-0.65
-0.56
-0.39
-0.19
-0.06
-0.06
-0.17
-0.32
-0.42
-0.39
-0.26
-0.11
-0.06
-0.14
-0.33
-0.52
-0.61
-0.57
-0.44
-0.32
-0.27
-0.28
-0.29
-0.25
-0.16
-0.10
-0.13
-0.30
-0.54
-0.75
-0.83
-0.76
-0.59
-0.42
-0.29
-0.22
-0.16
-0.05
0.10
0.26
0.38
0.42
0.36
0.26
0.12
-0.02
-0.14
-0.22
-0.25
-0.24
-0.20
-0.17
-0.12
-0.05
0.06
0.22
0.37
0.46
0.48
0.44
0.44
0.53
0.74
1.03
1.28
1.43
1.44
1.33
1.17
1.00
0.86
0.73
0.60
0.44
0.23
-0.01
-0.28
-0.51
-0.66
-0.71
-0.65
-0.51
-0.33
-0.15
-0.02
0.05
0.06
0.02
-0.07
-0.16
-0.19
-0.11
0.08
0.35
0.60
0.73
0.68
0.45
0.13
-0.19
-0.42
-0.52
-0.53
-0.52
-0.57
-0.69
-0.88
-1.07
-1.16
-1.08
-0.79
-0.37
0.08
0.42
0.56
0.48
0.23
-0.08
-0.39
-0.62
-0.71
-0.64
-0.39
0.01
0.46
0.83
1.03
1.03
0.86
0.59
0.29
-0.01
-0.27
-0.44
-0.47
-0.33
-0.06
0.26
0.49
0.52
0.33
-0.03
-0.49
-0.94
-1.32
-1.57
-1.70
-1.73
-1.73
-1.80
-1.99
-2.31
-2.65
-2.90
-2.96
-2.86
-2.70
-2.64
-2.78
-3.12
-3.56
-3.98
-4.31
-4.54
-4.76
-5.06
-5.48
-6.04
-6.64
-7.21
-7.69
-8.10
-8.54
-9.13
-9.96
-10.99
-12.13
-13.23
-14.17
-14.94
-15.60
-16.22
-16.82
-17.31
-17.56
-17.42
-16.81
-15.61
-13.74
-11.00
-7.22
-2.37
3.36
9.43
15.12
19.69
22.61
23.73
23.30
21.79
19.70
17.38
14.99
12.55
10.10
7.81
5.97
4.97
5.05
6.20
8.08
10.14
11.83
12.78
12.92
12.46
11.76
11.13
10.69
10.42
10.13
9.70
9.12
8.52
8.08
7.86
7.77
7.53
6.80
5.36
3.25
0.77
-1.64
-3.53
-4.66
-5.05
-4.91
-4.55
-4.21
-4.01
-3.95
-3.93
-3.88
-3.72
-3.45
-3.10
-2.70
-2.25
-1.73
-1.15
-0.54
0.03
0.51
0.85
1.05
1.14
1.14
1.06
0.94
0.83
0.79
0.85
1.01
1.19
1.29
1.27
1.17
1.12
1.24
1.55
1.95
2.22
2.21
1.84
1.25
0.66
0.27
0.17
0.26
0.35
0.30
0.07
-0.19
-0.34
-0.25
0.06
0.47
0.80
0.95
0.91
0.80
0.70
0.70
0.79
0.90
0.97
0.97
0.93
0.91
0.94
0.97
0.91
0.68
0.24
-0.30
-0.78
-1.03
-0.97
-0.65
-0.24
0.05
0.14
0.02
-0.21
-0.42
-0.55
-0.57
-0.55
-0.52
-0.54
-0.60
-0.70
-0.84
-1.00
-1.19
-1.37
-1.54
-1.65
-1.65
-1.54
-1.33
-1.07
-0.85
-0.75
-0.81
-1.00
-1.25
-1.48
-1.60
-1.59
-1.48
-1.29
-1.04
-0.76
-0.46
-0.21
-0.05
0.00
-0.00
0.03
0.20
0.55
1.00
1.41
1.63
1.60
1.37
1.08
0.88
0.85
0.95
1.07
1.06
0.88
0.56
0.23
-0.00
-0.09
-0.05
0.09
0.30
0.55
0.84
1.15
1.40
1.46
1.25
0.71
-0.09
-0.99
-1.80
-2.36
-2.62
-2.61
-2.45
-2.22
-1.98
-1.73
-1.45
-1.16
-0.87
-0.60
-0.35
-0.11
0.14
0.40
0.60
0.69
0.60
0.36
0.06
-0.16
-0.14
0.17
0.71
1.33
1.82
2.08
2.12
2.08
2.11
2.31
2.59
2.82
2.86
2.72
2.58
2.66
3.17
4.15
5.45
6.85
8.14
9.15
9.84
10.24
10.41
10.43
10.42
10.54
10.93
11.68
12.63
13.41
13.40
12.05
9.06
4.62
-0.61
-5.69
-9.80
-12.46
-13.68
-13.84
-13.39
-12.71
-11.97
-11.22
-10.45
-9.70
-9.04
-8.57
-8.36
-8.37
-8.51
-8.65
-8.67
-8.51
-8.16
-7.68
-7.16
-6.65
-6.19
-5.77
-5.34
-4.87
-4.35
-3.78
-3.22
-2.74
-2.40
-2.25
-2.25
-2.36
-2.48
-2.59
-2.68
-2.79
-2.94
-3.09
-3.16
-3.08
-2.83
-2.50
-2.19
-1.98
-1.88
-1.81
-1.68
-1.39
-0.96
-0.48
-0.08
0.15
0.19
0.17
0.30
0.78
1.69
2.95
4.34
5.59
6.52
7.09
7.39
7.56
7.64
7.61
7.34
6.81
6.10
5.39
4.86
4.58
4.46
4.34
4.05
3.54
2.92
2.34
1.96
1.80
1.78
1.75
1.55
1.11
0.47
-0.26
-0.96
-1.55
-1.99
-2.29
-2.47
-2.56
-2.63
-2.77
-3.11
-3.74
-4.66
-5.72
-6.66
-7.24
-7.29
-6.81
-5.99
-5.01
-4.05
-3.19
-2.42
-1.75
-1.17
-0.70
-0.37
-0.16
-0.05
0.02
0.08
0.17
0.32
0.56
0.87
1.22
1.55
1.86
2.19
2.59
3.11
3.70
4.20
4.44
4.30
3.80
3.10
2.38
1.79
1.36
1.02
0.70
0.37
0.05
-0.17
-0.29
-0.32
-0.33
-0.36
-0.42
-0.49
-0.54
-0.56
-0.57
-0.58
-0.59
-0.60
-0.58
-0.56
-0.56
-0.60
-0.67
-0.73
-0.75
-0.67
-0.52
-0.32
-0.12
0.08
0.26
0.44
0.64
0.87
1.10
1.29
1.40
1.38
1.24
1.03
0.81
0.64
0.53
0.47
0.42
0.32
0.16
-0.09
-0.39
-0.74
-1.05
-1.27
-1.30
-1.05
-0.54
0.13
0.78
1.20
1.26
0.99
0.51
0.02
-0.35
-0.55
-0.61
-0.62
-0.59
-0.51
-0.33
-0.06
0.22
0.41
0.41
0.23
-0.03
-0.23
-0.25
-0.12
0.06
0.11
-0.02
-0.32
-0.61
-0.74
-0.61
-0.25
0.21
0.65
0.94
1.05
1.01
0.85
0.60
0.29
-0.06
-0.42
-0.75
-1.01
-1.17
-1.24
-1.23
-1.18
-1.10
-1.01
-0.90
-0.78
-0.61
-0.41
-0.20
-0.02
0.10
0.15
0.16
0.19
0.28
0.44
0.66
0.89
1.10
1.27
1.35
1.34
1.25
1.09
0.92
0.75
0.62
0.54
0.51
0.52
0.61
0.74
0.91
1.04
1.06
0.89
0.56
0.14
-0.25
-0.49
-0.55
-0.50
-0.48
-0.61
-0.92
-1.37
-1.82
-2.12
-2.24
-2.22
-2.17
-2.20
-2.34
-2.59
-2.90
-3.20
-3.46
-3.60
-3.51
-3.09
-2.24
-0.95
0.65
2.39
4.03
5.37
6.26
6.61
6.37
5.57
4.33
2.89
1.55
0.57
0.10
0.06
0.27
0.48
0.51
0.31
-0.05
-0.43
-0.72
-0.87
-0.88
-0.80
-0.66
-0.50
-0.35
-0.29
-0.39
-0.70
-1.23
-1.87
-2.47
-2.85
-2.90
-2.64
-2.16
-1.58
-1.02
-0.53
-0.14
0.16
0.31
0.28
0.04
-0.40
-0.96
-1.54
-2.00
-2.23
-2.18
-1.87
-1.37
-0.78
-0.19
0.37
0.95
1.64
2.50
3.49
4.53
5.49
6.33
7.07
7.81
8.60
9.36
9.89
9.92
9.25
7.87
6.00
3.92
1.95
0.24
-1.17
-2.35
-3.34
-4.09
-4.52
-4.58
-4.32
-3.87
-3.44
-3.16
-3.07
-3.12
-3.19
-3.21
-3.14
-2.99
-2.79
-2.55
-2.29
-2.07
-1.98
-2.12
-2.50
-2.98
-3.31
-3.24
-2.60
-1.45
-0.03
1.31
2.25
2.65
2.59
2.30
2.08
2.10
2.40
2.86
3.29
3.55
3.58
3.44
3.21
2.99
2.80
2.66
2.54
2.49
2.53
2.70
2.95
3.14
3.12
2.74
1.95
0.85
-0.38
-1.43
-2.07
-2.16
-1.71
-0.90
0.07
1.03
1.89
2.61
3.13
3.34
3.11
2.34
1.13
-0.29
-1.59
-2.50
-2.89
-2.78
-2.29
-1.54
-0.61
0.43
1.46
2.32
2.87
3.02
2.85
2.54
2.27
2.15
2.16
2.14
1.93
1.44
0.68
-0.20
-1.01
-1.63
-2.03
-2.24
-2.34
-2.37
-2.37
-2.35
-2.35
-2.45
-2.72
-3.17
-3.71
-4.20
-4.48
-4.47
-4.20
-3.83
-3.50
-3.33
-3.30
-3.31
-3.25
-3.01
-2.60
-2.10
-1.60
-1.20
-0.95
-0.84
-0.84
-0.91
-0.99
-1.03
-1.02
-0.91
-0.74
-0.53
-0.33
-0.19
-0.11
-0.04
0.07
0.24
0.45
0.66
0.79
0.83
0.80
0.74
0.66
0.56
0.38
0.13
-0.17
-0.39
-0.43
-0.26
0.06
0.38
0.55
0.44
0.06
-0.47
-0.96
-1.25
-1.28
-1.11
-0.90
-0.80
-0.90
-1.16
-1.43
-1.56
-1.46
-1.11
-0.64
-0.15
0.26
0.54
0.69
0.71
0.56
0.23
-0.28
-0.88
-1.41
-1.71
-1.69
-1.36
-0.89
-0.47
-0.24
-0.25
-0.42
-0.63
-0.78
-0.81
-0.73
-0.60
-0.45
-0.32
-0.23
-0.20
-0.21
-0.28
-0.37
-0.44
-0.44
-0.32
-0.09
0.25
0.62
0.97
1.26
1.44
1.53
1.54
1.48
1.35
1.14
0.89
0.60
0.32
0.08
-0.10
-0.21
-0.23
-0.16
0.01
0.23
0.39
0.40
0.20
-0.19
-0.64
-1.01
-1.20
-1.19
-1.05
-0.91
-0.86
-0.92
-1.03
-1.11
-1.10
-1.02
-0.91
-0.81
-0.70
-0.54
-0.30
-0.02
0.21
0.29
0.18
-0.04
-0.22
-0.23
-0.03
0.26
0.54
0.68
0.68
0.63
0.63
0.71
0.85
0.99
1.06
1.03
0.92
0.77
0.64
0.59
0.64
0.78
0.91
0.94
0.78
0.43
-0.03
-0.43
-0.67
-0.67
-0.46
-0.14
0.14
0.27
0.21
-0.01
-0.30
-0.54
-0.63
-0.52
-0.27
0.03
0.25
0.35
0.34
0.34
0.48
0.82
1.32
1.80
2.03
1.79
1.06
-0.02
-1.15
-2.00
-2.41
-2.37
-2.05
-1.66
-1.37
-1.23
-1.20
-1.22
-1.22
-1.18
-1.07
-0.86
-0.57
-0.21
0.14
0.45
0.71
0.89
1.01
1.02
0.88
0.58
0.19
-0.17
-0.36
-0.32
-0.12
0.11
0.23
0.16
-0.06
-0.29
-0.37
-0.21
0.16
0.60
0.94
1.00
0.75
0.27
-0.27
-0.70
-0.94
-1.02
-1.03
-1.05
-1.11
-1.14
-1.08
-0.92
-0.70
-0.46
-0.24
-0.05
0.14
0.36
0.60
0.81
0.94
0.95
0.84
0.69
0.57
0.58
0.74
1.02
1.28
1.41
1.33
1.05
0.68
0.34
0.13
0.06
0.05
0.04
-0.01
-0.05
0.01
0.19
0.43
0.57
0.46
0.02
-0.68
-1.46
-2.08
-2.37
-2.26
-1.86
-1.34
-0.85
-0.52
-0.37
-0.34
-0.37
-0.38
-0.30
-0.14
0.08
0.30
0.50
0.64
0.73
0.79
0.83
0.84
0.85
0.86
0.88
0.88
0.88
0.83
0.73
0.58
0.44
0.36
0.40
0.57
0.84
1.15
1.41
1.54
1.50
1.30
1.01
0.75
0.58
0.53
0.56
0.59
0.59
0.53
0.45
0.33
0.16
-0.09
-0.47
-0.94
-1.41
-1.78
-1.94
-1.88
-1.65
-1.35
-1.09
-0.91
-0.82
-0.78
-0.76
-0.72
-0.64
-0.51
-0.35
-0.18
-0.02
0.12
0.23
0.32
0.38
0.40
0.37
0.28
0.13
-0.10
-0.41
-0.79
-1.16
-1.43
-1.47
-1.22
-0.67
0.07
0.81
1.35
1.57
1.47
1.12
0.65
0.21
-0.11
-0.27
-0.24
-0.07
0.20
0.48
0.69
0.76
0.66
0.42
0.11
-0.17
-0.32
-0.29
-0.10
0.17
0.42
0.51
0.40
0.07
-0.38
-0.83
-1.15
-1.26
-1.13
-0.84
-0.49
-0.21
-0.06
-0.05
-0.12
-0.18
-0.17
-0.06
0.10
0.23
0.31
0.32
0.29
0.23
0.16
0.06
-0.07
-0.23
-0.36
-0.42
-0.38
-0.26
-0.13
-0.07
-0.13
-0.31
-0.54
-0.72
-0.77
-0.65
-0.41
-0.10
0.19
0.37
0.40
0.27
0.01
-0.28
-0.53
-0.64
-0.57
-0.35
-0.07
0.16
0.24
0.16
0.01
-0.09
-0.03
0.19
0.52
0.87
1.14
1.26
1.20
0.98
0.65
0.26
-0.09
-0.35
-0.47
-0.47
-0.37
-0.23
-0.08
0.08
0.28
0.51
0.72
0.85
0.89
0.85
0.82
0.87
1.02
1.18
1.25
1.13
0.83
0.43
0.05
-0.26
-0.49
-0.70
-0.91
-1.12
-1.25
-1.21
-1.00
-0.69
-0.39
-0.21
-0.15
-0.11
0.02
0.32
0.74
1.14
1.36
1.36
1.17
0.93
0.76
0.68
0.65
0.55
0.33
0.03
-0.28
-0.51
-0.62
-0.63
-0.61
-0.60
-0.60
-0.59
-0.53
-0.43
-0.35
-0.34
-0.46
-0.70
-0.99
-1.23
-1.31
-1.13
-0.68
0.01
0.80
1.51
1.99
2.15
2.01
1.68
1.26
0.85
0.48
0.13
-0.22
-0.55
-0.83
-0.98
-0.97
-0.80
-0.49
-0.11
0.29
0.67
0.94
1.04
0.95
0.67
0.28
-0.09
-0.36
-0.48
-0.46
-0.38
-0.30
-0.24
-0.20
-0.14
-0.05
0.04
0.12
0.15
0.15
0.18
0.29
0.52
0.81
1.10
1.28
1.30
1.13
0.83
0.46
0.09
-0.24
-0.51
-0.68
-0.74
-0.71
-0.61
-0.51
-0.44
-0.43
-0.47
-0.50
-0.50
-0.46
-0.41
-0.37
-0.34
-0.29
-0.18
-0.01
0.19
0.34
0.39
0.35
0.24
0.11
0.00
-0.11
-0.24
-0.41
-0.61
-0.76
-0.80
-0.66
-0.36
0.05
0.46
0.76
0.88
0.81
0.59
0.32
0.11
0.01
0.04
0.16
0.29
0.36
0.33
0.21
0.03
-0.18
-0.41
-0.64
-0.87
-1.06
-1.17
-1.13
-0.95
-0.70
-0.49
-0.42
-0.53
-0.76
-0.99
-1.07
-0.95
-0.64
-0.23
0.16
0.46
0.68
0.87
1.06
1.25
1.39
1.40
1.23
0.91
0.49
0.10
-0.17
-0.30
-0.31
-0.25
-0.18
-0.13
-0.07
0.01
0.12
0.24
0.33
0.33
0.22
0.03
-0.16
-0.25
-0.17
0.05
0.32
0.51
0.53
0.36
0.08
-0.18
-0.33
-0.35
-0.29
-0.24
-0.24
-0.33
-0.45
-0.58
-0.66
-0.67
-0.60
-0.44
-0.21
0.05
0.31
0.56
0.79
1.00
1.19
1.29
1.25
1.01
0.58
0.01
-0.57
-1.02
-1.24
-1.23
-1.03
-0.77
-0.56
-0.48
-0.53
-0.63
-0.68
-0.64
-0.50
-0.33
-0.19
-0.11
-0.06
-0.01
0.04
0.06
0.01
-0.14
-0.34
-0.50
-0.56
-0.44
-0.12
0.38
0.98
1.59
2.08
2.33
2.27
1.92
1.39
0.86
0.46
0.26
0.24
0.30
0.35
0.33
0.25
0.14
0.04
-0.05
-0.13
-0.24
-0.36
-0.45
-0.47
-0.36
-0.14
0.10
0.26
0.26
0.08
-0.22
-0.52
-0.72
-0.78
-0.69
-0.52
-0.34
-0.20
-0.14
-0.20
-0.34
-0.48
-0.55
-0.49
-0.33
-0.20
-0.23
-0.52
-0.99
-1.43
-1.58
-1.25
-0.44
0.67
1.76
2.58
2.98
3.01
2.77
2.37
1.88
1.29
0.62
-0.02
-0.51
-0.71
-0.59
-0.28
0.03
0.16
-0.00
-0.41
-0.93
-1.36
-1.56
-1.49
-1.22
-0.87
-0.57
-0.40
-0.36
-0.38
-0.39
-0.35
-0.29
-0.30
-0.43
-0.66
-0.86
-0.93
-0.80
-0.51
-0.20
0.01
0.01
-0.18
-0.47
-0.75
-0.95
-1.00
-0.90
-0.68
-0.36
0.01
0.36
0.66
0.88
1.00
1.04
0.98
0.84
0.65
0.45
0.32
0.34
0.54
0.87
1.19
1.38
1.34
1.04
0.58
0.08
-0.32
-0.51
-0.48
-0.30
-0.07
0.08
0.11
0.00
-0.18
-0.39
-0.57
-0.73
-0.90
-1.10
-1.30
-1.44
-1.47
-1.36
-1.09
-0.73
-0.33
0.05
0.34
0.52
0.59
0.58
0.56
0.62
0.78
1.04
1.29
1.45
1.46
1.32
1.08
0.84
0.64
0.51
0.43
0.35
0.25
0.10
-0.09
-0.33
-0.59
-0.84
-1.05
-1.18
-1.20
-1.10
-0.89
-0.60
-0.33
-0.16
-0.15
-0.31
-0.58
-0.84
-0.98
-0.93
-0.70
-0.36
0.00
0.35
0.67
0.98
1.27
1.51
1.65
1.68
1.63
1.56
1.51
1.46
1.35
1.11
0.71
0.22
-0.22
-0.48
-0.50
-0.31
-0.06
0.14
0.20
0.13
0.01
-0.09
-0.14
-0.17
-0.24
-0.39
-0.60
-0.81
-0.92
-0.87
-0.69
-0.45
-0.26
-0.17
-0.19
-0.27
-0.37
-0.46
-0.57
-0.72
-0.91
-1.07
-1.14
-1.07
-0.84
-0.49
-0.07
0.32
0.65
0.85
0.88
0.72
0.40
-0.02
-0.43
-0.74
-0.90
-0.89
-0.75
-0.53
-0.26
0.03
0.31
0.54
0.71
0.79
0.81
0.77
0.66
0.50
0.30
0.12
-0.01
-0.05
-0.05
-0.06
-0.14
-0.29
-0.47
-0.59
-0.64
-0.64
-0.64
-0.69
-0.75
-0.77
-0.70
-0.54
-0.38
-0.29
-0.31
-0.38
-0.41
-0.37
-0.26
-0.15
-0.08
-0.04
0.06
0.27
0.62
1.04
1.42
1.61
1.57
1.31
0.91
0.47
0.10
-0.18
-0.37
-0.50
-0.61
-0.68
-0.66
-0.51
-0.24
0.10
0.41
0.59
0.60
0.44
0.18
-0.10
-0.38
-0.63
-0.86
-1.05
-1.16
-1.13
-0.88
-0.42
0.20
0.84
1.31
1.51
1.40
1.09
0.73
0.45
0.29
0.23
0.16
0.07
-0.04
-0.05
0.11
0.47
0.92
1.28
1.42
1.28
0.96
0.60
0.36
0.27
0.29
0.30
0.21
0.02
-0.18
-0.28
-0.24
-0.12
-0.05
-0.11
-0.30
-0.54
-0.71
-0.80
-0.82
-0.85
-0.91
-0.98
-1.01
-0.97
-0.90
-0.88
-0.98
-1.21
-1.50
-1.74
-1.82
-1.71
-1.46
-1.18
-0.98
-0.93
-0.98
-1.05
-1.05
-0.90
-0.64
-0.32
-0.01
0.28
0.58
0.91
1.26
1.60
1.86
1.98
1.97
1.87
1.73
1.55
1.35
1.10
0.81
0.52
0.25
0.03
-0.11
-0.18
-0.17
-0.09
0.01
0.10
0.11
-0.01
-0.26
-0.60
-0.96
-1.25
-1.42
-1.45
-1.35
-1.17
-0.97
-0.80
-0.65
-0.48
-0.25
0.12
0.59
1.10
1.52
1.76
1.82
1.75
1.70
1.76
1.98
2.28
2.55
2.69
2.66
2.52
2.34
2.21
2.12
2.03
1.86
1.54
1.08
0.55
0.04
-0.36
-0.62
-0.77
-0.88
-1.05
-1.37
-1.89
-2.57
-3.32
-3.96
-4.35
-4.38
-4.06
-3.46
-2.73
-1.98
-1.27
-0.61
0.02
0.58
1.05
1.38
1.57
1.66
1.69
1.67
1.59
1.40
1.09
0.74
0.43
0.25
0.23
0.31
0.41
0.47
0.45
0.37
0.26
0.13
-0.01
-0.17
-0.32
-0.42
-0.42
-0.36
-0.24
-0.12
-0.02
0.08
0.20
0.34
0.48
0.55
0.45
0.16
-0.31
-0.87
-1.38
-1.72
-1.81
-1.68
-1.40
-1.05
-0.73
-0.49
-0.34
-0.27
-0.27
-0.31
-0.35
-0.38
-0.39
-0.39
-0.36
-0.30
-0.18
-0.01
0.20
0.39
0.53
0.60
0.60
0.56
0.51
0.43
0.28
0.04
-0.27
-0.60
-0.83
-0.89
-0.72
-0.30
0.34
1.10
1.85
2.44
2.74
2.69
2.35
1.85
1.34
0.93
0.65
0.48
0.37
0.32
0.34
0.45
0.61
0.75
0.78
0.66
0.37
-0.05
-0.52
-0.97
-1.36
-1.60
-1.64
-1.48
-1.16
-0.82
-0.61
-0.65
-0.91
-1.26
-1.53
-1.58
-1.38
-1.02
-0.66
-0.42
-0.38
-0.50
-0.71
-0.93
-1.05
-1.00
-0.74
-0.31
0.21
0.69
0.98
1.03
0.86
0.59
0.36
0.30
0.43
0.68
0.95
1.15
1.26
1.28
1.28
1.26
1.23
1.16
0.99
0.74
0.43
0.13
-0.09
-0.21
-0.22
-0.17
-0.08
-0.00
0.04
0.02
-0.06
-0.21
-0.38
-0.53
-0.63
-0.63
-0.53
-0.37
-0.19
-0.04
0.02
-0.02
-0.14
-0.28
-0.37
-0.37
-0.33
-0.31
-0.41
-0.66
-0.98
-1.25
-1.37
-1.29
-1.06
-0.79
-0.53
-0.28
-0.01
0.31
0.63
0.85
0.91
0.78
0.55
0.31
0.10
-0.06
-0.21
-0.34
-0.45
-0.50
-0.46
-0.36
-0.22
-0.08
0.04
0.13
0.15
0.08
-0.09
-0.34
-0.61
-0.82
-0.95
-0.99
-0.98
-0.92
-0.80
-0.57
-0.22
0.23
0.73
1.17
1.48
1.60
1.52
1.25
0.86
0.40
-0.05
-0.43
-0.69
-0.85
-0.95
-1.03
-1.12
-1.22
-1.29
-1.27
-1.13
-0.86
-0.53
-0.20
0.04
0.14
0.08
-0.10
-0.35
-0.60
-0.78
-0.83
-0.71
-0.43
-0.05
0.29
0.49
0.48
0.29
0.03
-0.16
-0.16
0.03
0.32
0.59
0.74
0.73
0.63
0.51
0.44
0.44
0.53
0.72
1.00
1.36
1.74
2.04
2.13
1.96
1.53
0.93
0.33
-0.15
-0.44
-0.54
-0.55
-0.54
-0.55
-0.58
-0.58
-0.50
-0.33
-0.13
0.06
0.21
0.33
0.48
0.73
1.07
1.43
1.70
1.78
1.63
1.35
1.08
0.96
1.04
1.24
1.45
1.53
1.44
1.18
0.83
0.46
0.13
-0.14
-0.36
-0.52
-0.65
-0.76
-0.86
-0.95
-0.99
-0.95
-0.78
-0.50
-0.20
0.04
0.11
0.04
-0.13
-0.26
-0.31
-0.28
-0.25
-0.27
-0.34
-0.39
-0.33
-0.13
0.16
0.44
0.61
0.63
0.49
0.24
-0.10
-0.49
-0.86
-1.11
-1.14
-0.89
-0.45
0.03
0.35
0.42
0.28
0.07
-0.07
-0.09
-0.04
-0.01
-0.09
-0.25
-0.41
-0.46
-0.34
-0.09
0.17
0.35
0.38
0.27
0.09
-0.11
-0.30
-0.47
-0.62
-0.74
-0.78
-0.72
-0.52
-0.21
0.12
0.39
0.53
0.49
0.35
0.17
0.07
0.07
0.17
0.30
0.38
0.39
0.34
0.30
0.31
0.38
0.49
0.55
0.50
0.30
-0.02
-0.41
-0.81
-1.14
-1.35
-1.41
-1.28
-0.97
-0.51
0.02
0.53
0.92
1.13
1.18
1.13
1.06
0.99
0.91
0.76
0.49
0.12
-0.26
-0.56
-0.70
-0.72
-0.67
-0.64
-0.65
-0.70
-0.74
-0.73
-0.68
-0.61
-0.55
-0.51
-0.48
-0.47
-0.49
-0.53
-0.61
-0.69
-0.75
-0.77
-0.73
-0.68
-0.65
-0.67
-0.76
-0.88
-0.98
-0.97
-0.80
-0.44
0.03
0.51
0.90
1.14
1.26
1.34
1.41
1.43
1.34
1.07
0.64
0.18
-0.17
-0.31
-0.23
-0.07
0.02
-0.05
-0.24
-0.44
-0.53
-0.47
-0.34
-0.22
-0.18
-0.22
-0.29
-0.32
-0.31
-0.31
-0.35
-0.42
-0.48
-0.48
-0.43
-0.38
-0.41
-0.55
-0.72
-0.85
-0.84
-0.71
-0.54
-0.36
-0.16
0.15
0.64
1.29
1.96
2.44
2.60
2.44
2.07
1.65
1.26
0.93
0.58
0.22
-0.12
-0.34
-0.39
-0.27
-0.10
0.01
0.01
-0.08
-0.18
-0.24
-0.25
-0.23
-0.23
-0.25
-0.27
-0.27
-0.27
-0.31
-0.47
-0.74
-1.07
-1.32
-1.35
-1.09
-0.55
0.11
0.68
0.97
0.90
0.52
-0.01
-0.51
-0.82
-0.89
-0.75
-0.47
-0.12
0.19
0.44
0.59
0.66
0.66
0.63
0.59
0.56
0.54
0.56
0.63
0.77
0.95
1.11
1.18
1.14
1.02
0.92
0.89
0.96
1.07
1.12
1.05
0.87
0.67
0.53
0.51
0.58
0.66
0.69
0.68
0.65
0.63
0.61
0.53
0.34
0.02
-0.38
-0.77
-1.08
-1.27
-1.31
-1.22
-1.01
-0.67
-0.27
0.09
0.28
0.20
-0.11
-0.53
-0.86
-0.98
-0.87
-0.63
-0.41
-0.33
-0.44
-0.67
-0.92
-1.08
-1.11
-1.00
-0.78
-0.49
-0.19
0.08
0.29
0.42
0.43
0.31
0.03
-0.36
-0.78
-1.11
-1.24
-1.13
-0.86
-0.54
-0.33
-0.30
-0.45
-0.68
-0.89
-1.01
-1.04
-1.02
-1.01
-1.02
-1.01
-0.92
-0.69
-0.32
0.15
0.57
0.84
0.88
0.70
0.45
0.29
0.33
0.59
0.94
1.21
1.27
1.10
0.81
0.56
0.44
0.44
0.46
0.44
0.34
0.24
0.23
0.35
0.56
0.76
0.90
0.99
1.12
1.33
1.59
1.76
1.69
1.34
0.80
0.28
-0.03
-0.06
0.12
0.34
0.48
0.48
0.42
0.35
0.34
0.38
0.41
0.38
0.26
0.06
-0.18
-0.43
-0.67
-0.88
-1.07
-1.24
-1.39
-1.50
-1.56
-1.53
-1.39
-1.17
-0.96
-0.80
-0.73
-0.72
-0.72
-0.67
-0.58
-0.51
-0.51
-0.61
-0.75
-0.87
-0.88
-0.77
-0.57
-0.34
-0.13
0.03
0.16
0.29
0.41
0.50
0.55
0.52
0.41
0.24
0.09
-0.00
0.02
0.15
0.34
0.50
0.56
0.47
0.29
0.11
0.01
0.05
0.18
0.32
0.36
0.26
0.07
-0.15
-0.30
-0.33
-0.23
-0.03
0.23
0.49
0.68
0.74
0.64
0.38
0.01
-0.38
-0.67
-0.79
-0.70
-0.43
-0.02
0.42
0.83
1.12
1.19
0.99
0.54
-0.06
-0.62
-0.97
-1.00
-0.74
-0.35
-0.02
0.11
0.02
-0.19
-0.37
-0.42
-0.32
-0.12
0.08
0.22
0.23
0.12
-0.11
-0.41
-0.73
-1.04
-1.26
-1.35
-1.25
-0.92
-0.40
0.24
0.86
1.32
1.53
1.52
1.39
1.29
1.29
1.34
1.37
1.26
0.98
0.59
0.19
-0.14
-0.36
-0.50
-0.60
-0.69
-0.74
-0.69
-0.54
-0.30
-0.08
0.05
0.08
0.02
-0.08
-0.16
-0.19
-0.17
-0.09
0.03
0.18
0.30
0.33
0.24
0.05
-0.15
-0.23
-0.16
0.02
0.17
0.18
0.01
-0.28
-0.54
-0.66
-0.58
-0.36
-0.10
0.06
0.06
-0.11
-0.36
-0.56
-0.57
-0.33
0.12
0.61
0.95
1.01
0.79
0.39
-0.03
-0.30
-0.41
-0.37
-0.27
-0.16
-0.04
0.11
0.32
0.54
0.71
0.74
0.62
0.42
0.24
0.17
0.24
0.37
0.45
0.37
0.13
-0.21
-0.54
-0.75
-0.79
-0.69
-0.53
-0.37
-0.24
-0.10
0.07
0.24
0.36
0.33
0.12
-0.22
-0.57
-0.76
-0.69
-0.38
0.02
0.33
0.38
0.17
-0.22
-0.63
-0.89
-0.96
-0.84
-0.61
-0.34
-0.10
0.12
0.32
0.53
0.70
0.82
0.85
0.78
0.66
0.52
0.40
0.29
0.17
0.04
-0.06
-0.09
0.00
0.18
0.35
0.41
0.29
0.01
-0.34
-0.65
-0.82
-0.86
-0.77
-0.59
-0.34
-0.03
0.30
0.56
0.70
0.72
0.65
0.52
0.36
0.14
-0.16
-0.50
-0.78
-0.87
-0.70
-0.32
0.12
0.43
0.51
0.35
0.07
-0.21
-0.40
-0.49
-0.52
-0.52
-0.56
-0.62
-0.70
-0.73
-0.65
-0.42
-0.03
0.44
0.89
1.21
1.35
1.34
1.23
1.09
0.92
0.74
0.55
0.39
0.34
0.46
0.73
1.06
1.29
1.29
1.00
0.49
-0.09
-0.59
-0.90
-1.02
-1.02
-0.93
-0.78
-0.55
-0.24
0.10
0.36
0.43
0.23
-0.21
-0.75
-1.20
-1.39
-1.23
-0.77
-0.16
0.40
0.76
0.82
0.63
0.30
0.02
-0.09
-0.01
0.18
0.37
0.46
0.45
0.37
0.28
0.18
0.05
-0.16
-0.46
-0.79
-1.07
-1.21
-1.16
-0.92
-0.56
-0.16
0.19
0.42
0.50
0.45
0.35
0.32
0.44
0.71
1.05
1.32
1.40
1.23
0.88
0.44
0.07
-0.16
-0.21
-0.17
-0.12
-0.15
-0.31
-0.54
-0.76
-0.89
-0.89
-0.78
-0.62
-0.44
-0.25
-0.07
0.09
0.16
0.11
-0.09
-0.38
-0.69
-0.92
-1.01
-0.96
-0.80
-0.56
-0.28
0.02
0.29
0.48
0.57
0.54
0.44
0.33
0.28
0.30
0.38
0.44
0.41
0.25
-0.03
-0.31
-0.46
-0.41
-0.15
0.21
0.47
0.49
0.22
-0.25
-0.76
-1.08
-1.11
-0.87
-0.48
-0.11
0.12
0.15
0.01
-0.22
-0.46
-0.64
-0.66
-0.50
-0.15
0.33
0.84
1.25
1.49
1.58
1.59
1.63
1.73
1.83
1.78
1.50
0.97
0.35
-0.15
-0.37
-0.25
0.08
0.42
0.58
0.51
0.28
0.07
0.00
0.09
0.24
0.28
0.12
-0.25
-0.71
-1.12
-1.37
-1.44
-1.39
-1.31
-1.23
-1.18
-1.14
-1.11
-1.07
-1.01
-0.92
-0.78
-0.57
-0.32
-0.08
0.12
0.23
0.26
0.24
0.18
0.09
-0.00
-0.07
-0.09
-0.05
0.06
0.19
0.31
0.37
0.37
0.33
0.26
0.17
0.07
-0.02
-0.12
-0.23
-0.32
-0.37
-0.32
-0.14
0.14
0.48
0.77
0.92
0.89
0.74
0.54
0.38
0.27
0.19
0.07
-0.11
-0.33
-0.53
-0.65
-0.69
-0.69
-0.70
-0.75
-0.80
-0.81
-0.69
-0.41
0.00
0.45
0.82
1.04
1.05
0.92
0.74
0.63
0.65
0.80
1.00
1.17
1.23
1.16
1.02
0.88
0.79
0.77
0.79
0.79
0.72
0.53
0.23
-0.14
-0.51
-0.76
-0.84
-0.72
-0.45
-0.10
0.21
0.40
0.42
0.27
-0.01
-0.35
-0.67
-0.92
-1.07
-1.11
-1.07
-1.00
-0.93
-0.86
-0.82
-0.80
-0.81
-0.88
-1.01
-1.16
-1.27
-1.28
-1.15
-0.89
-0.54
-0.22
-0.02
-0.01
-0.17
-0.40
-0.58
-0.57
-0.35
0.05
0.48
0.83
0.98
0.92
0.70
0.44
0.24
0.18
0.27
0.44
0.60
0.66
0.61
0.46
0.32
0.26
0.34
0.49
0.65
0.72
0.68
0.54
0.36
0.19
0.04
-0.10
-0.21
-0.29
-0.34
-0.36
-0.36
-0.35
-0.32
-0.22
-0.02
0.27
0.60
0.90
1.10
1.18
1.18
1.16
1.12
1.04
0.86
0.56
0.20
-0.12
-0.30
-0.31
-0.16
0.06
0.32
0.59
0.88
1.14
1.27
1.16
0.75
0.09
-0.64
-1.25
-1.58
-1.61
-1.44
-1.23
-1.08
-1.01
-0.95
-0.85
-0.68
-0.47
-0.30
-0.19
-0.17
-0.21
-0.26
-0.28
-0.22
-0.08
0.11
0.29
0.36
0.28
0.03
-0.35
-0.75
-1.06
-1.18
-1.07
-0.77
-0.35
0.06
0.34
0.43
0.32
0.04
-0.33
-0.68
-0.96
-1.11
-1.10
-0.91
-0.56
-0.10
0.37
0.71
0.82
0.67
0.30
-0.20
-0.70
-1.10
-1.31
-1.29
-1.01
-0.53
0.08
0.66
1.08
1.26
1.17
0.91
0.62
0.42
0.39
0.54
0.77
0.97
1.04
0.94
0.68
0.36
0.11
-0.03
-0.02
0.06
0.14
0.16
0.12
0.08
0.05
0.03
-0.01
-0.08
-0.15
-0.16
-0.09
0.10
0.35
0.58
0.72
0.73
0.62
0.44
0.25
0.12
0.10
0.16
0.27
0.35
0.33
0.19
-0.02
-0.21
-0.32
-0.31
-0.20
-0.05
0.07
0.13
0.10
0.02
-0.11
-0.29
-0.49
-0.72
-0.94
-1.10
-1.15
-1.04
-0.76
-0.38
-0.01
0.22
0.25
0.09
-0.19
-0.45
-0.60
-0.61
-0.53
-0.39
-0.24
-0.10
0.02
0.11
0.11
-0.02
-0.26
-0.52
-0.67
-0.60
-0.32
0.07
0.42
0.59
0.56
0.39
0.23
0.19
0.31
0.55
0.83
1.05
1.16
1.15
1.04
0.84
0.60
0.36
0.16
0.03
-0.01
0.01
0.06
0.08
0.03
-0.09
-0.26
-0.45
-0.62
-0.78
-0.92
-1.08
-1.25
-1.42
-1.53
-1.56
-1.49
-1.35
-1.21
-1.14
-1.17
-1.30
-1.47
-1.59
-1.55
-1.29
-0.84
-0.29
0.20
0.51
0.62
0.59
0.55
0.60
0.78
1.03
1.25
1.35
1.31
1.13
0.89
0.65
0.49
0.46
0.57
0.77
0.98
1.09
1.05
0.85
0.54
0.23
-0.02
-0.21
-0.36
-0.48
-0.56
-0.58
-0.46
-0.18
0.19
0.55
0.74
0.67
0.34
-0.13
-0.58
-0.86
-0.92
-0.82
-0.71
-0.70
-0.83
-1.00
-1.08
-0.91
-0.47
0.16
0.84
1.38
1.71
1.80
1.70
1.49
1.27
1.10
1.05
1.13
1.31
1.50
1.59
1.50
1.24
0.91
0.65
0.58
0.71
1.00
1.32
1.58
1.73
1.76
1.69
1.52
1.25
0.93
0.61
0.38
0.30
0.37
0.51
0.58
0.46
0.08
-0.49
-1.12
-1.64
-1.92
-1.94
-1.77
-1.57
-1.44
-1.43
-1.48
-1.51
-1.44
-1.23
-0.93
-0.59
-0.31
-0.11
-0.03
-0.05
-0.10
-0.13
-0.05
0.16
0.50
0.89
1.21
1.38
1.35
1.15
0.84
0.47
0.07
-0.37
-0.82
-1.18
-1.33
-1.21
-0.83
-0.33
0.07
0.22
0.06
-0.30
-0.68
-0.92
-0.93
-0.78
-0.56
-0.41
-0.36
-0.37
-0.37
-0.28
-0.07
0.23
0.55
0.79
0.91
0.90
0.80
0.69
0.62
0.63
0.74
0.90
1.09
1.25
1.32
1.28
1.08
0.76
0.36
-0.01
-0.30
-0.45
-0.47
-0.39
-0.26
-0.09
0.08
0.21
0.27
0.22
0.09
-0.04
-0.10
-0.06
-0.01
-0.06
-0.29
-0.66
-1.01
-1.16
-0.99
-0.53
0.06
0.57
0.83
0.80
0.54
0.14
-0.29
-0.69
-0.98
-1.12
-1.07
-0.86
-0.57
-0.34
-0.32
-0.55
-0.97
-1.39
-1.63
-1.57
-1.23
-0.79
-0.45
-0.32
-0.39
-0.52
-0.57
-0.51
-0.39
-0.32
-0.34
-0.40
-0.35
-0.12
0.29
0.71
0.96
0.94
0.72
0.49
0.43
0.63
0.98
1.29
1.36
1.09
0.53
-0.22
-1.00
-1.65
-2.07
-2.17
-1.95
-1.48
-0.92
-0.49
-0.34
-0.54
-0.99
-1.47
-1.78
-1.76
-1.41
-0.83
-0.21
0.25
0.48
0.46
0.32
0.19
0.18
0.31
0.51
0.68
0.78
0.83
0.87
0.93
0.98
0.94
0.75
0.42
0.07
-0.14
-0.09
0.21
0.64
0.99
1.11
0.93
0.50
-0.03
-0.48
-0.71
-0.68
-0.42
-0.02
0.41
0.82
1.18
1.45
1.60
1.61
1.46
1.18
0.87
0.59
0.40
0.28
0.17
-0.02
-0.28
-0.58
-0.83
-0.96
-0.94
-0.82
-0.70
-0.64
-0.67
-0.72
-0.72
-0.60
-0.35
-0.05
0.18
0.25
0.14
-0.08
-0.30
-0.42
-0.43
-0.35
-0.24
-0.16
-0.14
-0.17
-0.25
-0.40
-0.60
-0.80
-0.91
-0.84
-0.53
-0.03
0.53
0.97
1.16
1.08
0.82
0.50
0.22
0.04
-0.07
-0.12
-0.12
-0.07
0.06
0.27
0.47
0.59
0.55
0.33
-0.01
-0.33
-0.52
-0.54
-0.42
-0.26
-0.15
-0.10
-0.05
0.07
0.32
0.65
0.96
1.14
1.18
1.11
1.00
0.92
0.88
0.82
0.70
0.54
0.40
0.34
0.36
0.40
0.39
0.30
0.16
0.07
0.11
0.28
0.52
0.71
0.79
0.74
0.61
0.48
0.40
0.41
0.46
0.52
0.58
0.61
0.62
0.62
0.63
0.66
0.70
0.74
0.76
0.73
0.63
0.49
0.36
0.27
0.25
0.30
0.41
0.56
0.71
0.80
0.75
0.52
0.14
-0.28
-0.58
-0.65
-0.48
-0.18
0.08
0.18
0.08
-0.15
-0.39
-0.56
-0.66
-0.75
-0.90
-1.11
-1.33
-1.48
-1.52
-1.46
-1.39
-1.37
-1.43
-1.53
-1.62
-1.65
-1.63
-1.60
-1.60
-1.65
-1.72
-1.76
-1.73
-1.62
-1.40
-1.09
-0.73
-0.36
-0.06
0.14
0.21
0.15
0.02
-0.16
-0.30
-0.35
-0.25
0.00
0.36
0.70
0.90
0.86
0.59
0.18
-0.26
-0.62
-0.86
-0.99
-1.02
-0.93
-0.72
-0.38
0.01
0.33
0.46
0.37
0.12
-0.16
-0.32
-0.29
-0.05
0.30
0.67
1.02
1.31
1.56
1.74
1.86
1.89
1.83
1.70
1.55
1.41
1.29
1.15
0.98
0.75
0.48
0.24
0.06
-0.04
-0.11
-0.18
-0.30
-0.48
-0.68
-0.86
-0.98
-1.05
-1.07
-1.06
-1.00
-0.88
-0.68
-0.40
-0.05
0.31
0.66
0.97
1.19
1.28
1.23
1.05
0.77
0.50
0.31
0.23
0.28
0.40
0.56
0.72
0.83
0.87
0.83
0.69
0.46
0.18
-0.10
-0.34
-0.49
-0.57
-0.59
-0.58
-0.58
-0.64
-0.78
-0.98
-1.19
-1.31
-1.30
-1.14
-0.87
-0.60
-0.43
-0.40
-0.52
-0.74
-1.00
-1.25
-1.48
-1.69
-1.88
-2.02
-2.03
-1.85
-1.46
-0.89
-0.26
0.27
0.60
0.72
0.70
0.65
0.67
0.76
0.85
0.85
0.71
0.49
0.27
0.17
0.26
0.49
0.78
1.03
1.16
1.12
0.91
0.56
0.15
-0.23
-0.50
-0.59
-0.47
-0.19
0.19
0.56
0.84
0.97
0.92
0.70
0.37
0.02
-0.26
-0.36
-0.26
0.00
0.32
0.60
0.77
0.83
0.81
0.74
0.68
0.60
0.48
0.31
0.10
-0.12
-0.27
-0.32
-0.26
-0.18
-0.19
-0.35
-0.67
-1.04
-1.33
-1.41
-1.24
-0.90
-0.53
-0.24
-0.12
-0.11
-0.14
-0.09
0.07
0.35
0.69
1.04
1.39
1.69
1.94
2.11
2.15
2.07
1.90
1.70
1.55
1.48
1.48
1.49
1.43
1.25
0.95
0.53
0.05
-0.46
-0.93
-1.29
-1.50
-1.57
-1.55
-1.55
-1.64
-1.84
-2.05
-2.17
-2.12
-1.89
-1.55
-1.20
-0.89
-0.65
-0.48
-0.37
-0.31
-0.32
-0.37
-0.40
-0.35
-0.20
0.01
0.17
0.20
0.08
-0.14
-0.37
-0.52
-0.61
-0.72
-0.94
-1.31
-1.76
-2.11
-2.20
-1.93
-1.37
-0.69
-0.12
0.19
0.22
0.07
-0.09
-0.17
-0.13
-0.02
0.14
0.34
0.61
0.96
1.31
1.58
1.68
1.61
1.48
1.38
1.37
1.42
1.47
1.43
1.30
1.12
0.93
0.75
0.58
0.45
0.37
0.40
0.57
0.80
0.98
0.99
0.81
0.48
0.12
-0.16
-0.33
-0.43
-0.49
-0.53
-0.49
-0.32
0.00
0.41
0.78
0.98
0.93
0.66
0.24
-0.22
-0.61
-0.87
-0.97
-0.89
-0.67
-0.35
-0.02
0.23
0.36
0.38
0.32
0.25
0.21
0.21
0.26
0.34
0.43
0.50
0.54
0.53
0.52
0.57
0.74
1.02
1.32
1.52
1.46
1.12
0.54
-0.09
-0.61
-0.88
-0.92
-0.84
-0.76
-0.79
-0.91
-1.01
-0.99
-0.80
-0.53
-0.32
-0.30
-0.52
-0.89
-1.26
-1.51
-1.60
-1.60
-1.60
-1.65
-1.73
-1.74
-1.60
-1.30
-0.89
-0.46
-0.13
0.03
0.04
-0.07
-0.22
-0.33
-0.35
-0.29
-0.16
-0.01
0.13
0.25
0.35
0.48
0.67
0.93
1.24
1.55
1.79
1.88
1.79
1.55
1.22
0.89
0.63
0.47
0.39
0.40
0.47
0.58
0.66
0.64
0.45
0.11
-0.32
-0.70
-0.92
-0.92
-0.72
-0.38
-0.03
0.24
0.37
0.33
0.16
-0.06
-0.26
-0.36
-0.35
-0.30
-0.30
-0.43
-0.70
-0.99
-1.14
-1.05
-0.71
-0.29
0.02
0.08
-0.11
-0.41
-0.62
-0.63
-0.46
-0.23
-0.05
0.04
0.12
0.31
0.62
0.97
1.20
1.20
0.97
0.65
0.42
0.39
0.51
0.67
0.72
0.63
0.43
0.23
0.11
0.08
0.11
0.12
0.07
-0.03
-0.13
-0.17
-0.13
-0.05
0.01
-0.02
-0.16
-0.37
-0.57
-0.65
-0.56
-0.33
-0.02
0.27
0.47
0.53
0.50
0.39
0.20
-0.06
-0.36
-0.64
-0.84
-0.87
-0.76
-0.55
-0.33
-0.18
-0.12
-0.10
-0.05
0.07
0.26
0.46
0.60
0.61
0.54
0.44
0.37
0.35
0.30
0.15
-0.17
-0.61
-1.07
-1.40
-1.54
-1.51
-1.43
-1.44
-1.58
-1.80
-1.99
-2.04
-1.90
-1.62
-1.26
-0.89
-0.53
-0.20
0.11
0.36
0.54
0.60
0.49
0.20
-0.21
-0.61
-0.84
-0.77
-0.41
0.13
0.61
0.82
0.67
0.23
-0.29
-0.68
-0.79
-0.61
-0.23
0.17
0.49
0.69
0.80
0.91
1.10
1.37
1.63
1.78
1.73
1.47
1.09
0.74
0.54
0.56
0.80
1.17
1.57
1.90
2.07
2.03
1.78
1.37
0.91
0.50
0.22
0.09
0.10
0.20
0.33
0.44
0.47
0.41
0.26
0.11
0.05
0.14
0.40
0.78
1.17
1.45
1.54
1.36
0.94
0.34
-0.32
-0.90
-1.29
-1.47
-1.49
-1.45
-1.41
-1.41
-1.39
-1.28
-1.03
-0.65
-0.26
0.05
0.20
0.17
0.04
-0.11
-0.21
-0.25
-0.26
-0.31
-0.43
-0.58
-0.69
-0.70
-0.54
-0.26
0.07
0.34
0.45
0.36
0.09
-0.23
-0.47
-0.52
-0.37
-0.10
0.14
0.24
0.16
0.01
-0.09
-0.01
0.27
0.66
1.04
1.28
1.35
1.31
1.21
1.12
1.01
0.83
0.55
0.17
-0.21
-0.46
-0.50
-0.33
-0.00
0.36
0.69
0.92
1.04
1.02
0.85
0.52
0.09
-0.32
-0.61
-0.75
-0.79
-0.82
-0.91
-1.06
-1.20
-1.24
-1.12
-0.87
-0.59
-0.34
-0.12
0.08
0.27
0.42
0.46
0.33
0.04
-0.33
-0.64
-0.78
-0.72
-0.51
-0.28
-0.13
-0.11
-0.20
-0.37
-0.56
-0.76
-1.00
-1.22
-1.35
-1.29
-1.01
-0.56
-0.11
0.17
0.15
-0.13
-0.55
-0.94
-1.15
-1.15
-0.98
-0.72
-0.48
-0.30
-0.21
-0.19
-0.18
-0.12
0.03
0.30
0.63
0.94
1.15
1.22
1.16
1.03
0.90
0.86
0.93
1.07
1.22
1.30
1.25
1.08
0.86
0.66
0.55
0.56
0.63
0.70
0.69
0.56
0.32
0.04
-0.20
-0.34
-0.34
-0.24
-0.09
0.05
0.13
0.14
0.06
-0.13
-0.45
-0.90
-1.42
-1.85
-2.07
-1.97
-1.58
-1.01
-0.42
0.06
0.37
0.52
0.56
0.55
0.56
0.65
0.85
1.12
1.38
1.50
1.38
1.00
0.49
0.02
-0.24
-0.19
0.13
0.58
0.98
1.16
1.06
0.69
0.12
-0.55
-1.21
-1.74
-2.03
-1.97
-1.53
-0.78
0.09
0.83
1.21
1.13
0.67
0.02
-0.59
-1.01
-1.19
-1.19
-1.09
-0.96
-0.84
-0.73
-0.66
-0.63
-0.65
-0.69
-0.71
-0.67
-0.56
-0.37
-0.08
0.29
0.69
1.03
1.22
1.17
0.91
0.49
0.06
-0.27
-0.46
-0.52
-0.49
-0.38
-0.21
0.03
0.28
0.49
0.57
0.53
0.42
0.33
0.36
0.50
0.69
0.82
0.81
0.67
0.46
0.22
0.00
-0.21
-0.41
-0.57
-0.61
-0.49
-0.21
0.12
0.38
0.46
0.39
0.25
0.17
0.20
0.30
0.34
0.26
0.05
-0.21
-0.39
-0.44
-0.36
-0.21
-0.06
0.11
0.30
0.54
0.80
0.99
1.01
0.82
0.47
0.11
-0.14
-0.21
-0.15
-0.08
-0.12
-0.29
-0.51
-0.65
-0.64
-0.48
-0.29
-0.19
-0.22
-0.34
-0.42
-0.32
-0.03
0.39
0.78
0.97
0.88
0.52
0.00
-0.52
-0.89
-1.04
-1.01
-0.89
-0.82
-0.86
-0.99
-1.12
-1.17
-1.10
-0.95
-0.75
-0.53
-0.27
0.05
0.38
0.61
0.65
0.45
0.09
-0.27
-0.49
-0.55
-0.53
-0.57
-0.74
-0.96
-1.09
-0.99
-0.63
-0.10
0.42
0.76
0.85
0.75
0.58
0.45
0.43
0.50
0.58
0.63
0.63
0.59
0.53
0.43
0.24
-0.10
-0.56
-1.03
-1.36
-1.39
-1.10
-0.57
0.03
0.54
0.90
1.14
1.30
1.44
1.53
1.52
1.40
1.21
1.03
0.91
0.86
0.83
0.74
0.56
0.35
0.19
0.16
0.27
0.48
0.71
0.90
1.03
1.13
1.20
1.21
1.13
0.92
0.59
0.19
-0.23
-0.57
-0.80
-0.91
-0.92
-0.90
-0.90
-0.95
-1.07
-1.21
-1.31
-1.32
-1.22
-1.05
-0.90
-0.83
-0.85
-0.86
-0.77
-0.50
-0.09
0.32
0.60
0.62
0.39
0.03
-0.29
-0.43
-0.38
-0.19
0.01
0.13
0.13
0.08
0.02
0.02
0.09
0.20
0.32
0.43
0.51
0.51
0.42
0.21
-0.08
-0.35
-0.49
-0.43
-0.19
0.16
0.48
0.70
0.81
0.88
0.96
1.09
1.22
1.27
1.17
0.94
0.65
0.42
0.34
0.39
0.50
0.55
0.48
0.30
0.08
-0.12
-0.31
-0.55
-0.90
-1.38
-1.86
-2.17
-2.17
-1.83
-1.30
-0.78
-0.46
-0.40
-0.56
-0.80
-1.01
-1.17
-1.28
-1.41
-1.54
-1.63
-1.63
-1.44
-1.09
-0.61
-0.12
0.25
0.46
0.51
0.49
0.54
0.70
0.93
1.14
1.20
1.09
0.89
0.71
0.63
0.60
0.51
0.26
-0.17
-0.66
-1.02
-1.12
-0.96
-0.65
-0.31
-0.02
0.23
0.52
0.88
1.28
1.64
1.84
1.82
1.61
1.26
0.83
0.40
-0.03
-0.42
-0.78
-1.13
-1.48
-1.85
-2.19
-2.44
-2.50
-2.32
-1.93
-1.44
-0.99
-0.69
-0.56
-0.53
-0.51
-0.43
-0.27
-0.06
0.16
0.35
0.52
0.67
0.80
0.92
1.02
1.11
1.20
1.33
1.49
1.61
1.62
1.45
1.09
0.63
0.18
-0.09
-0.11
0.07
0.32
0.50
0.50
0.32
0.01
-0.32
-0.57
-0.73
-0.76
-0.70
-0.58
-0.45
-0.36
-0.35
-0.42
-0.51
-0.54
-0.45
-0.20
0.15
0.54
0.91
1.22
1.46
1.62
1.70
1.66
1.51
1.26
0.97
0.69
0.48
0.35
0.33
0.36
0.39
0.35
0.18
-0.08
-0.35
-0.51
-0.48
-0.28
-0.06
0.06
-0.02
-0.29
-0.66
-0.98
-1.16
-1.18
-1.09
-0.93
-0.73
-0.50
-0.19
0.21
0.68
1.16
1.60
1.93
2.14
2.25
2.31
2.37
2.41
2.39
2.26
2.02
1.74
1.48
1.33
1.26
1.24
1.17
1.01
0.77
0.53
0.34
0.25
0.22
0.18
0.06
-0.20
-0.59
-1.06
-1.49
-1.79
-1.91
-1.83
-1.60
-1.30
-1.04
-0.87
-0.81
-0.84
-0.91
-0.97
-0.99
-0.95
-0.88
-0.82
-0.79
-0.81
-0.86
-0.91
-0.92
-0.87
-0.76
-0.62
-0.52
-0.52
-0.66
-0.92
-1.25
-1.54
-1.72
-1.71
-1.50
-1.15
-0.76
-0.45
-0.31
-0.36
-0.51
-0.60
-0.49
-0.11
0.47
1.08
1.52
1.67
1.56
1.31
1.08
0.98
0.99
1.07
1.13
1.17
1.19
1.20
1.20
1.13
0.97
0.70
0.42
0.21
0.14
0.20
0.33
0.43
0.47
0.45
0.40
0.33
0.25
0.14
0.02
-0.06
-0.06
0.05
0.20
0.32
0.34
0.25
0.09
-0.06
-0.13
-0.11
-0.03
0.08
0.17
0.18
0.07
-0.17
-0.49
-0.80
-0.99
-1.00
-0.87
-0.68
-0.57
-0.61
-0.78
-1.01
-1.20
-1.28
-1.24
-1.10
-0.93
-0.78
-0.68
-0.62
-0.54
-0.40
-0.17
0.14
0.46
0.71
0.82
0.79
0.65
0.47
0.29
0.10
-0.09
-0.29
-0.48
-0.57
-0.53
-0.32
-0.00
0.34
0.58
0.66
0.56
0.35
0.13
0.01
0.05
0.25
0.54
0.82
0.99
0.98
0.78
0.46
0.11
-0.17
-0.33
-0.36
-0.30
-0.21
-0.11
-0.03
0.04
0.08
0.08
0.00
-0.19
-0.47
-0.77
-1.02
-1.10
-0.98
-0.69
-0.31
0.02
0.22
0.30
0.29
0.26
0.24
0.22
0.14
-0.01
-0.19
-0.33
-0.37
-0.31
-0.20
-0.14
-0.16
-0.23
-0.28
-0.26
-0.18
-0.11
-0.10
-0.17
-0.26
-0.33
-0.34
-0.29
-0.24
-0.23
-0.30
-0.45
-0.65
-0.86
-1.03
-1.11
-1.03
-0.79
-0.40
0.05
0.45
0.69
0.74
0.64
0.47
0.30
0.18
0.10
0.00
-0.11
-0.21
-0.27
-0.25
-0.19
-0.15
-0.18
-0.32
-0.49
-0.62
-0.63
-0.50
-0.31
-0.13
-0.00
0.09
0.21
0.38
0.60
0.80
0.90
0.89
0.78
0.60
0.36
0.07
-0.26
-0.61
-0.88
-0.97
-0.84
-0.52
-0.12
0.24
0.47
0.55
0.50
0.37
0.22
0.14
0.17
0.35
0.65
0.95
1.13
1.06
0.72
0.16
-0.44
-0.93
-1.17
-1.15
-0.92
-0.59
-0.29
-0.08
0.03
0.06
0.08
0.12
0.19
0.30
0.41
0.51
0.59
0.62
0.60
0.52
0.40
0.27
0.15
0.08
0.07
0.10
0.17
0.24
0.29
0.28
0.21
0.10
-0.02
-0.10
-0.10
-0.02
0.14
0.31
0.41
0.37
0.16
-0.17
-0.54
-0.81
-0.91
-0.82
-0.59
-0.29
-0.01
0.22
0.40
0.52
0.56
0.52
0.40
0.24
0.10
0.07
0.16
0.30
0.40
0.34
0.09
-0.30
-0.67
-0.86
-0.79
-0.47
-0.02
0.40
0.68
0.80
0.80
0.78
0.81
0.93
1.11
1.33
1.53
1.68
1.70
1.58
1.29
0.88
0.41
0.00
-0.27
-0.37
-0.31
-0.14
0.04
0.18
0.26
0.24
0.12
-0.08
-0.36
-0.65
-0.88
-0.95
-0.83
-0.53
-0.12
0.28
0.57
0.71
0.67
0.47
0.17
-0.15
-0.38
-0.44
-0.28
0.05
0.42
0.69
0.79
0.74
0.65
0.61
0.65
0.73
0.74
0.59
0.30
-0.06
-0.40
-0.62
-0.71
-0.71
-0.64
-0.57
-0.54
-0.57
-0.65
-0.78
-0.92
-1.07
-1.24
-1.45
-1.67
-1.88
-1.98
-1.91
-1.66
-1.25
-0.79
-0.42
-0.20
-0.14
-0.18
-0.22
-0.17
-0.01
0.23
0.46
0.59
0.57
0.42
0.25
0.15
0.17
0.28
0.41
0.46
0.43
0.31
0.18
0.08
0.05
0.11
0.24
0.42
0.62
0.78
0.86
0.82
0.68
0.47
0.27
0.15
0.14
0.22
0.32
0.35
0.22
-0.05
-0.40
-0.69
-0.81
-0.69
-0.37
0.06
0.47
0.75
0.83
0.69
0.36
-0.08
-0.51
-0.82
-0.94
-0.86
-0.64
-0.37
-0.17
-0.07
-0.06
-0.07
-0.05
0.03
0.15
0.23
0.25
0.20
0.11
0.01
-0.10
-0.21
-0.34
-0.46
-0.50
-0.36
0.01
0.57
1.16
1.59
1.68
1.39
0.83
0.16
-0.45
-0.91
-1.20
-1.33
-1.32
-1.16
-0.85
-0.44
0.02
0.42
0.70
0.84
0.85
0.78
0.65
0.47
0.24
-0.01
-0.22
-0.35
-0.40
-0.41
-0.40
-0.40
-0.42
-0.42
-0.39
-0.33
-0.24
-0.13
0.00
0.15
0.31
0.44
0.48
0.40
0.21
-0.06
-0.31
-0.45
-0.42
-0.26
-0.02
0.18
0.25
0.19
0.05
-0.06
-0.05
0.11
0.37
0.62
0.77
0.79
0.72
0.61
0.54
0.54
0.58
0.63
0.64
0.60
0.51
0.38
0.20
-0.05
-0.39
-0.79
-1.18
-1.48
-1.61
-1.58
-1.43
-1.24
-1.04
-0.80
-0.46
-0.02
0.43
0.73
0.74
0.43
-0.07
-0.55
-0.82
-0.81
-0.58
-0.29
-0.06
0.05
0.01
-0.10
-0.25
-0.39
-0.47
-0.47
-0.37
-0.19
0.05
0.31
0.57
0.82
1.01
1.10
1.04
0.81
0.47
0.08
-0.28
-0.56
-0.76
-0.85
-0.85
-0.73
-0.53
-0.35
-0.28
-0.41
-0.73
-1.16
-1.53
-1.69
-1.60
-1.28
-0.85
-0.43
-0.08
0.19
0.39
0.58
0.76
0.91
0.95
0.82
0.49
0.02
-0.47
-0.86
-1.04
-1.02
-0.87
-0.71
-0.68
-0.85
-1.19
-1.63
-2.05
-2.34
-2.46
-2.41
-2.28
-2.13
-2.00
-1.85
-1.64
-1.33
-0.96
-0.62
-0.37
-0.18
-0.00
0.30
0.77
1.38
2.01
2.52
2.85
3.07
3.29
3.58
3.93
4.22
4.27
4.00
3.44
2.75
2.14
1.75
1.62
1.68
1.77
1.77
1.60
1.26
0.79
0.28
-0.20
-0.57
-0.77
-0.83
-0.80
-0.77
-0.79
-0.89
-1.02
-1.15
-1.25
-1.29
-1.27
-1.14
-0.87
-0.42
0.13
0.68
1.03
1.08
0.82
0.34
-0.17
-0.55
-0.71
-0.67
-0.49
-0.28
-0.14
-0.09
-0.14
-0.25
-0.37
-0.46
-0.48
-0.42
-0.27
-0.08
0.12
0.25
0.25
0.10
-0.18
-0.51
-0.78
-0.91
-0.85
-0.64
-0.37
-0.13
0.01
0.04
0.04
0.07
0.18
0.35
0.49
0.50
0.35
0.10
-0.12
-0.18
-0.01
0.34
0.73
1.02
1.13
1.07
0.90
0.70
0.48
0.24
-0.05
-0.36
-0.61
-0.69
-0.54
-0.18
0.31
0.79
1.14
1.33
1.38
1.32
1.18
0.95
0.65
0.28
-0.11
-0.43
-0.64
-0.72
-0.69
-0.59
-0.48
-0.39
-0.35
-0.40
-0.55
-0.81
-1.12
-1.42
-1.63
-1.64
-1.43
-1.00
-0.43
0.15
0.61
0.89
0.96
0.87
0.67
0.41
0.11
-0.21
-0.53
-0.79
-0.94
-0.97
-0.89
-0.75
-0.62
-0.52
-0.43
-0.30
-0.11
0.15
0.39
0.51
0.40
0.05
-0.46
-0.95
-1.25
-1.25
-0.96
-0.52
-0.08
0.22
0.29
0.16
-0.08
-0.29
-0.36
-0.27
-0.10
0.02
-0.05
-0.34
-0.71
-0.97
-0.95
-0.62
-0.16
0.21
0.29
0.09
-0.26
-0.53
-0.58
-0.37
0.01
0.45
0.81
0.99
0.91
0.55
-0.02
-0.65
-1.18
-1.45
-1.42
-1.16
-0.81
-0.49
-0.25
-0.05
0.14
0.32
0.43
0.39
0.19
-0.10
-0.30
-0.25
0.09
0.63
1.19
1.55
1.64
1.52
1.32
1.21
1.22
1.31
1.36
1.30
1.12
0.88
0.64
0.44
0.30
0.18
0.07
-0.06
-0.24
-0.51
-0.90
-1.39
-1.94
-2.46
-2.87
-3.16
-3.33
-3.39
-3.37
-3.27
-3.13
-3.00
-2.95
-3.03
-3.24
-3.52
-3.76
-3.90
-3.91
-3.85
-3.82
-3.87
-3.99
-4.03
-3.75
-2.90
-1.34
0.91
3.59
6.31
8.66
10.33
11.20
11.29
10.79
9.91
8.84
7.73
6.71
5.90
5.40
5.23
5.23
5.07
4.35
2.84
0.60
-1.91
-4.08
-5.43
-5.83
-5.62
-5.33
-5.47
-6.18
-7.28
-8.35
-8.96
-8.83
-7.77
-5.70
-2.63
1.24
5.43
9.23
12.01
13.42
13.64
13.19
12.55
11.86
10.72
8.52
4.80
-0.35
-6.20
-11.65
-15.67
-17.67
-17.73
-16.38
-14.40
-12.47
-11.00
-10.12
-9.78
-9.88
-10.36
-11.19
-12.32
-13.63
-14.90
-15.87
-16.36
-16.41
-16.26
-16.23
-16.59
-17.37
-18.40
-19.38
-20.03
-20.24
-20.15
-20.07
-20.33
-21.07
-22.14
-23.08
-23.28
-22.25
-19.82
-16.21
-11.94
-7.54
-3.33
0.74
4.97
9.69
15.03
20.75
26.27
30.94
34.19
35.72
35.59
34.12
31.82
29.22
26.74
24.57
22.71
21.00
19.31
17.63
16.07
14.76
13.77
12.96
12.14
11.12
9.91
8.68
7.65
6.96
6.58
6.32
5.98
5.46
4.84
4.29
4.02
4.12
4.55
5.15
5.69
5.95
5.79
5.23
4.40
3.56
2.94
2.67
2.64
2.57
2.08
0.86
-1.21
-4.02
-7.27
-10.63
-13.76
-16.42
-18.39
-19.53
-19.75
-19.11
-17.81
-16.19
-14.63
-13.41
-12.73
-12.58
-12.84
-13.29
-13.68
-13.78
-13.46
-12.72
-11.72
-10.67
-9.74
-8.97
-8.20
-7.14
-5.46
-2.96
0.41
4.46
8.87
13.22
17.11
20.24
22.42
23.64
23.98
23.59
22.65
21.29
19.65
17.87
16.08
14.43
12.99
11.79
10.79
9.92
9.12
8.38
7.75
7.28
6.95
6.75
6.60
6.48
6.40
6.42
6.65
7.14
7.91
8.95
10.21
11.60
13.06
14.54
15.96
17.28
18.44
19.43
20.27
21.04
21.82
22.73
23.81
25.10
26.56
28.17
29.91
31.75
33.68
35.59
37.35
38.81
39.80
40.18
39.77
38.27
35.28
30.44
23.54
14.70
4.47
-6.34
-16.72
-25.76
-32.71
-37.18
-39.20
-39.17
-37.86
-36.12
-34.69
-33.93
-33.76
-33.81
-33.64
-33.01
-31.93
-30.61
-29.27
-28.02
-26.77
-25.40
-23.85
-22.20
-20.62
-19.30
-18.30
-17.51
-16.73
-15.74
-14.45
-12.90
-11.27
-9.76
-8.52
-7.62
-7.03
-6.68
-6.44
-6.22
-5.93
-5.52
-5.02
-4.48
-3.95
-3.46
-3.01
-2.62
-2.31
-2.10
-2.03
-2.10
-2.24
-2.42
-2.58
-2.68
-2.70
-2.61
-2.38
-2.02
-1.59
-1.21
-0.97
-0.87
-0.84
-0.80
-0.69
-0.55
-0.52
-0.68
-1.04
-1.50
-1.87
-2.01
-1.88
-1.55
-1.18
-0.93
-0.88
-1.00
-1.19
-1.35
-1.42
-1.39
-1.35
-1.35
-1.41
-1.47
-1.44
-1.25
-0.91
-0.47
-0.04
0.29
0.47
0.49
0.40
0.23
0.07
0.01
0.12
0.44
0.91
1.45
1.93
2.30
2.56
2.77
2.96
3.13
3.21
3.12
2.82
2.32
1.72
1.15
0.74
0.57
0.62
0.83
1.11
1.36
1.53
1.61
1.63
1.61
1.56
1.44
1.23
0.97
0.74
0.64
0.71
0.93
1.19
1.36
1.33
1.12
0.79
0.48
0.25
0.13
0.09
0.10
0.16
0.28
0.49
0.76
1.02
1.18
1.18
1.05
0.87
0.74
0.70
0.70
0.65
0.44
0.06
-0.39
-0.74
-0.84
-0.64
-0.24
0.14
0.28
0.08
-0.45
-1.12
-1.75
-2.16
-2.30
-2.22
-2.05
-1.93
-1.99
-2.26
-2.73
-3.32
-3.95
-4.56
-5.12
-5.64
-6.09
-6.44
-6.68
-6.79
-6.82
-6.88
-7.05
-7.41
-7.95
-8.61
-9.26
-9.86
-10.40
-10.92
-11.49
-12.07
-12.59
-12.83
-12.62
-11.84
-10.48
-8.65
-6.47
-4.01
-1.28
1.71
4.88
8.01
10.78
12.86
14.04
14.34
13.96
13.16
12.22
11.29
10.46
9.76
9.23
8.89
8.74
8.73
8.72
8.56
8.14
7.42
6.44
5.33
4.20
3.16
2.23
1.41
0.65
-0.05
-0.71
-1.33
-1.89
-2.38
-2.75
-2.93
-2.87
-2.53
-1.95
-1.22
-0.49
0.14
0.63
1.04
1.47
2.01
2.67
3.37
3.99
4.44
4.69
4.79
4.83
4.89
4.99
5.06
5.03
4.82
4.44
3.95
3.50
3.21
3.17
3.40
3.85
4.42
5.01
5.56
6.05
6.47
6.78
6.86
6.48
5.48
3.75
1.39
-1.39
-4.28
-7.06
-9.59
-11.82
-13.77
-15.40
-16.66
-17.46
-17.74
-17.42
-16.43
-14.68
-12.08
-8.61
-4.45
0.02
4.29
7.87
10.39
11.74
12.08
11.72
11.00
10.21
9.49
8.84
8.18
7.42
6.49
5.43
4.31
3.22
2.23
1.34
0.58
0.03
-0.17
0.12
0.96
2.16
3.37
4.14
4.14
3.32
1.93
0.37
-1.03
-2.10
-2.95
-3.75
-4.66
-5.63
-6.44
-6.85
-6.68
-6.03
-5.17
-4.56
-4.59
-5.50
-7.24
-9.55
-12.05
-14.38
-16.36
-18.02
-19.52
-21.08
-22.83
-24.70
-26.37
-27.30
-26.89
-24.68
-20.56
-14.93
-8.56
-2.45
2.53
5.87
7.44
7.41
6.02
3.40
-0.33
-4.94
-9.97
-14.65
-18.23
-20.33
-21.19
-21.75
-23.25
-26.65
-32.17
-39.03
-45.86
-51.33
-54.94
-57.18
-59.14
-61.75
-65.28
-69.24
-72.91
-75.48
-75.89
-72.38
-62.46
-43.79
-15.73
19.33
56.01
87.68
109.08
118.52
118.16
112.44
105.53
99.40
93.55
86.25
76.23
63.76
50.43
38.20
28.40
21.14
15.63
10.79
5.94
1.12
-2.91
-5.14
-4.77
-1.63
3.61
9.64
14.86
18.07
18.80
17.52
15.32
13.34
12.27
12.03
11.98
11.37
9.83
7.50
4.94
2.68
0.93
-0.54
-2.20
-4.44
-7.34
-10.54
-13.47
-15.52
-16.34
-15.87
-14.22
-11.57
-8.04
-3.74
1.08
5.97
10.32
13.55
15.33
15.80
15.38
14.69
14.12
13.79
13.49
12.90
11.76
9.99
7.67
4.98
2.14
-0.61
-2.99
-4.79
-5.81
-6.00
-5.45
-4.36
-2.97
-1.45
0.14
1.75
3.32
4.74
5.82
6.44
6.61
6.48
6.30
6.26
6.47
6.88
7.36
7.75
7.89
7.64
6.87
5.58
3.95
2.37
1.36
1.34
2.43
4.38
6.69
8.85
10.70
12.43
14.57
17.55
21.50
26.01
30.34
33.73
35.81
36.85
37.66
39.28
42.46
47.29
53.08
58.67
62.92
65.24
65.93
66.12
67.36
71.32
79.13
90.96
105.62
120.27
130.70
132.02
120.13
93.30
53.36
5.68
-42.18
-82.83
-111.27
-126.13
-129.38
-124.85
-116.42
-106.80
-97.30
-88.41
-80.51
-74.23
-70.22
-68.64
-68.81
-69.31
-68.67
-65.99
-61.38
-55.76
-50.42
-46.33
-43.68
-41.89
-39.95
-36.98
-32.58
-27.03
-21.07
-15.60
-11.33
-8.60
-7.28
-6.93
-7.00
-6.98
-6.61
-5.90
-5.10
-4.46
-4.09
-3.88
-3.53
-2.81
-1.64
-0.21
1.20
2.42
3.47
4.53
5.69
6.87
7.76
8.00
7.41
6.16
4.70
3.51
2.91
2.89
3.18
3.48
3.54
3.32
2.90
2.40
1.87
1.31
0.67
-0.07
-0.85
-1.53
-1.95
-1.99
-1.61
-0.93
-0.15
0.53
0.95
1.10
1.06
0.98
0.97
1.08
1.22
1.30
1.21
0.93
0.52
0.06
-0.36
-0.68
-0.90
-1.04
-1.14
-1.23
-1.33
-1.45
-1.59
-1.77
-2.00
-2.27
-2.56
-2.80
-2.95
-2.95
-2.77
-2.40
-1.85
-1.16
-0.39
0.33
0.91
1.24
1.31
1.21
1.05
0.99
1.09
1.34
1.62
1.79
1.78
1.59
1.29
1.02
0.85
0.80
0.86
0.97
1.10
1.20
1.25
1.21
1.05
0.81
0.54
0.35
0.31
0.41
0.55
0.57
0.36
-0.10
-0.69
-1.25
-1.65
-1.84
-1.82
-1.65
-1.38
-1.07
-0.77
-0.60
-0.62
-0.80
-1.06
-1.19
-1.09
-0.75
-0.32
0.03
0.19
0.19
0.13
0.14
0.23
0.33
0.33
0.21
-0.00
-0.18
-0.27
-0.24
-0.17
-0.15
-0.21
-0.34
-0.50
-0.63
-0.65
-0.56
-0.35
-0.08
0.19
0.38
0.44
0.41
0.34
0.29
0.28
0.31
0.34
0.39
0.47
0.64
0.87
1.11
1.24
1.20
0.95
0.55
0.08
-0.34
-0.67
-0.91
-1.10
-1.33
-1.60
-1.90
-2.15
-2.29
-2.26
-2.10
-1.88
-1.67
-1.49
-1.31
-1.07
-0.70
-0.23
0.26
0.68
0.99
1.20
1.39
1.57
1.75
1.84
1.77
1.49
1.04
0.54
0.11
-0.18
-0.29
-0.26
-0.14
0.02
0.16
0.27
0.35
0.40
0.44
0.46
0.45
0.39
0.27
0.10
-0.06
-0.17
-0.20
-0.16
-0.08
-0.01
0.08
0.19
0.35
0.51
0.62
0.58
0.38
0.04
-0.33
-0.60
-0.71
-0.64
-0.44
-0.20
-0.02
0.02
-0.10
-0.35
-0.64
-0.87
-0.95
-0.83
-0.53
-0.10
0.38
0.83
1.18
1.41
1.53
1.57
1.62
1.71
1.88
2.08
2.21
2.19
1.99
1.64
1.28
1.02
0.91
0.91
0.90
0.76
0.43
-0.03
-0.50
-0.85
-1.02
-1.01
-0.91
-0.80
-0.70
-0.61
-0.52
-0.42
-0.39
-0.48
-0.73
-1.11
-1.53
-1.89
-2.08
-2.04
-1.77
-1.31
-0.78
-0.34
-0.10
-0.14
-0.41
-0.82
-1.21
-1.47
-1.54
-1.43
-1.17
-0.85
-0.53
-0.26
-0.11
-0.11
-0.24
-0.46
-0.68
-0.79
-0.74
-0.50
-0.13
0.29
0.65
0.88
0.96
0.91
0.76
0.54
0.29
0.04
-0.17
-0.26
-0.17
0.12
0.54
1.00
1.36
1.53
1.47
1.23
0.92
0.64
0.48
0.50
0.64
0.82
0.93
0.89
0.67
0.30
-0.13
-0.53
-0.85
-1.03
-1.04
-0.90
-0.66
-0.38
-0.13
0.02
0.06
-0.02
-0.16
-0.34
-0.50
-0.59
-0.60
-0.51
-0.35
-0.17
-0.03
0.05
0.05
0.00
-0.06
-0.09
-0.10
-0.09
-0.06
-0.01
0.06
0.11
0.14
0.12
0.05
-0.06
-0.15
-0.18
-0.13
0.01
0.21
0.40
0.54
0.61
0.61
0.55
0.46
0.34
0.20
0.04
-0.09
-0.16
-0.13
-0.01
0.17
0.35
0.46
0.47
0.37
0.19
-0.04
-0.25
-0.41
-0.47
-0.41
-0.26
-0.09
0.01
0.00
-0.14
-0.39
-0.65
-0.86
-0.95
-0.92
-0.79
-0.62
-0.46
-0.36
-0.31
-0.29
-0.26
-0.21
-0.16
-0.11
-0.09
-0.06
-0.03
0.03
0.09
0.12
0.14
0.18
0.28
0.45
0.66
0.84
0.92
0.90
0.80
0.71
0.66
0.64
0.58
0.45
0.23
-0.00
-0.16
-0.18
-0.08
0.09
0.27
0.40
0.47
0.48
0.40
0.20
-0.12
-0.51
-0.88
-1.09
-1.08
-0.88
-0.58
-0.33
-0.22
-0.24
-0.33
-0.39
-0.37
-0.28
-0.18
-0.12
-0.12
-0.17
-0.24
-0.31
-0.39
-0.50
-0.64
-0.80
-0.95
-1.02
-1.03
-1.02
-1.09
-1.34
-1.79
-2.36
-2.84
-3.01
-2.73
-2.02
-1.09
-0.19
0.45
0.75
0.79
0.74
0.78
0.96
1.25
1.52
1.63
1.49
1.13
0.65
0.17
-0.18
-0.38
-0.43
-0.38
-0.26
-0.07
0.17
0.43
0.63
0.64
0.39
-0.10
-0.75
-1.40
-1.93
-2.25
-2.34
-2.25
-2.04
-1.83
-1.70
-1.70
-1.81
-1.96
-2.05
-1.98
-1.71
-1.27
-0.74
-0.22
0.22
0.58
0.86
1.07
1.19
1.21
1.12
0.94
0.73
0.58
0.55
0.65
0.86
1.14
1.44
1.73
2.02
2.35
2.70
3.05
3.33
3.45
3.38
3.15
2.85
2.58
2.41
2.34
2.29
2.18
1.92
1.54
1.09
0.69
0.41
0.31
0.37
0.56
0.82
1.06
1.21
1.20
1.05
0.79
0.51
0.29
0.15
0.11
0.14
0.23
0.39
0.61
0.89
1.16
1.36
1.45
1.39
1.24
1.07
0.99
1.00
1.08
1.12
1.00
0.67
0.17
-0.40
-0.89
-1.17
-1.26
-1.23
-1.21
-1.32
-1.57
-1.87
-2.10
-2.18
-2.07
-1.85
-1.60
-1.39
-1.24
-1.13
-1.02
-0.89
-0.76
-0.64
-0.52
-0.35
-0.11
0.20
0.51
0.69
0.65
0.31
-0.23
-0.84
-1.34
-1.56
-1.47
-1.15
-0.72
-0.32
-0.05
0.09
0.11
0.04
-0.10
-0.30
-0.52
-0.70
-0.76
-0.67
-0.48
-0.27
-0.15
-0.15
-0.26
-0.34
-0.31
-0.11
0.21
0.57
0.87
1.04
1.05
0.95
0.81
0.67
0.59
0.58
0.61
0.64
0.63
0.56
0.41
0.22
0.01
-0.20
-0.42
-0.62
-0.75
-0.74
-0.47
0.07
0.77
1.40
1.74
1.65
1.18
0.53
-0.03
-0.31
-0.28
-0.07
0.16
0.28
0.27
0.17
0.09
0.08
0.16
0.30
0.42
0.48
0.43
0.24
-0.06
-0.39
-0.65
-0.78
-0.74
-0.57
-0.34
-0.13
0.01
0.09
0.13
0.16
0.18
0.17
0.10
-0.07
-0.32
-0.64
-0.95
-1.19
-1.31
-1.30
-1.17
-0.95
-0.68
-0.41
-0.22
-0.15
-0.24
-0.47
-0.78
-1.06
-1.26
-1.34
-1.32
-1.25
-1.13
-0.97
-0.77
-0.56
-0.40
-0.36
-0.46
-0.64
-0.83
-0.95
-0.97
-0.95
-0.93
-0.94
-0.92
-0.81
-0.56
-0.21
0.13
0.33
0.36
0.31
0.33
0.52
0.84
1.16
1.27
1.10
0.74
0.39
0.25
0.38
0.69
0.92
0.88
0.52
-0.04
-0.56
-0.83
-0.73
-0.31
0.29
0.87
1.27
1.42
1.35
1.13
0.88
0.67
0.57
0.57
0.63
0.71
0.77
0.77
0.69
0.52
0.25
-0.09
-0.46
-0.79
-1.02
-1.13
-1.11
-1.01
-0.88
-0.78
-0.71
-0.67
-0.61
-0.53
-0.43
-0.36
-0.31
-0.27
-0.20
-0.09
0.05
0.21
0.32
0.41
0.48
0.57
0.66
0.69
0.58
0.30
-0.11
-0.53
-0.83
-0.92
-0.77
-0.45
-0.05
0.34
0.64
0.80
0.80
0.67
0.48
0.28
0.13
0.08
0.12
0.20
0.28
0.31
0.26
0.12
-0.08
-0.25
-0.32
-0.24
-0.01
0.29
0.53
0.61
0.50
0.26
0.01
-0.12
-0.08
0.08
0.28
0.38
0.31
0.09
-0.18
-0.40
-0.49
-0.45
-0.32
-0.16
-0.05
-0.01
-0.01
-0.04
-0.07
-0.11
-0.16
-0.18
-0.13
0.03
0.34
0.75
1.18
1.50
1.61
1.48
1.17
0.79
0.46
0.27
0.17
0.13
0.09
0.04
0.05
0.13
0.27
0.35
0.26
-0.07
-0.57
-1.09
-1.38
-1.34
-0.98
-0.51
-0.16
-0.07
-0.25
-0.54
-0.74
-0.76
-0.58
-0.34
-0.13
-0.03
0.01
0.06
0.20
0.39
0.57
0.65
0.60
0.46
0.32
0.21
0.13
0.00
-0.24
-0.58
-0.93
-1.10
-0.97
-0.49
0.23
1.00
1.57
1.76
1.52
0.94
0.22
-0.42
-0.82
-0.94
-0.86
-0.74
-0.69
-0.76
-0.89
-0.98
-0.94
-0.68
-0.25
0.28
0.79
1.18
1.35
1.29
1.03
0.67
0.34
0.12
0.06
0.12
0.25
0.37
0.44
0.44
0.35
0.15
-0.16
-0.53
-0.88
-1.13
-1.21
-1.06
-0.71
-0.24
0.26
0.70
0.98
1.08
0.99
0.75
0.45
0.19
0.04
0.04
0.14
0.26
0.29
0.18
-0.08
-0.43
-0.77
-1.01
-1.06
-0.94
-0.69
-0.39
-0.12
0.08
0.20
0.27
0.28
0.25
0.12
-0.10
-0.40
-0.70
-0.91
-0.98
-0.92
-0.85
-0.84
-0.95
-1.11
-1.22
-1.22
-1.11
-0.99
-0.96
-1.04
-1.17
-1.24
-1.16
-0.94
-0.66
-0.44
-0.36
-0.38
-0.40
-0.30
-0.02
0.43
0.96
1.46
1.88
2.16
2.29
2.28
2.13
1.87
1.53
1.13
0.74
0.41
0.18
0.06
-0.01
-0.09
-0.24
-0.47
-0.69
-0.81
-0.74
-0.47
-0.12
0.12
0.10
-0.20
-0.66
-1.07
-1.21
-1.01
-0.58
-0.10
0.24
0.39
0.40
0.40
0.50
0.67
0.83
0.81
0.55
0.10
-0.38
-0.73
-0.82
-0.70
-0.48
-0.31
-0.28
-0.33
-0.34
-0.21
0.13
0.57
0.97
1.18
1.14
0.92
0.63
0.37
0.19
0.08
-0.01
-0.09
-0.14
-0.12
-0.03
0.11
0.25
0.32
0.32
0.28
0.22
0.18
0.16
0.15
0.08
-0.05
-0.25
-0.45
-0.57
-0.54
-0.35
-0.06
0.24
0.47
0.62
0.70
0.76
0.80
0.78
0.64
0.38
0.05
-0.26
-0.52
-0.73
-0.94
-1.18
-1.38
-1.41
-1.21
-0.80
-0.35
-0.06
-0.01
-0.19
-0.43
-0.56
-0.50
-0.30
-0.10
-0.04
-0.17
-0.44
-0.74
-0.97
-1.06
-1.00
-0.82
-0.56
-0.27
-0.02
0.10
0.06
-0.15
-0.48
-0.81
-1.05
-1.14
-1.08
-0.93
-0.76
-0.60
-0.42
-0.15
0.23
0.69
1.13
1.44
1.57
1.55
1.48
1.47
1.54
1.67
1.76
1.78
1.74
1.71
1.74
1.80
1.83
1.74
1.52
1.22
0.92
0.69
0.50
0.31
0.06
-0.24
-0.53
-0.74
-0.83
-0.82
-0.75
-0.68
-0.64
-0.59
-0.52
-0.41
-0.28
-0.16
-0.09
-0.08
-0.14
-0.23
-0.33
-0.42
-0.48
-0.48
-0.39
-0.21
0.06
0.32
0.48
0.45
0.23
-0.10
-0.42
-0.62
-0.66
-0.58
-0.46
-0.36
-0.31
-0.26
-0.17
-0.01
0.18
0.34
0.45
0.49
0.48
0.44
0.34
0.19
-0.03
-0.25
-0.39
-0.38
-0.18
0.16
0.54
0.84
0.99
0.96
0.81
0.60
0.39
0.24
0.18
0.26
0.49
0.85
1.24
1.53
1.61
1.45
1.09
0.68
0.32
0.07
-0.12
-0.33
-0.60
-0.88
-1.04
-0.96
-0.65
-0.23
0.08
0.10
-0.21
-0.75
-1.32
-1.75
-1.93
-1.88
-1.68
-1.43
-1.17
-0.93
-0.70
-0.50
-0.37
-0.34
-0.44
-0.63
-0.85
-1.02
-1.04
-0.89
-0.57
-0.15
0.30
0.71
1.03
1.22
1.25
1.10
0.80
0.44
0.14
-0.02
0.04
0.27
0.57
0.82
0.93
0.91
0.84
0.79
0.79
0.81
0.77
0.63
0.42
0.23
0.15
0.18
0.26
0.24
0.03
-0.37
-0.84
-1.20
-1.30
-1.12
-0.76
-0.37
-0.10
-0.03
-0.13
-0.28
-0.40
-0.43
-0.38
-0.32
-0.27
-0.23
-0.14
0.09
0.46
0.89
1.23
1.35
1.22
0.93
0.63
0.47
0.47
0.54
0.57
0.44
0.14
-0.22
-0.52
-0.60
-0.43
-0.05
0.38
0.69
0.74
0.49
0.02
-0.51
-0.94
-1.16
-1.15
-0.98
-0.74
-0.51
-0.33
-0.20
-0.13
-0.10
-0.12
-0.18
-0.28
-0.38
-0.48
-0.53
-0.53
-0.47
-0.36
-0.20
-0.04
0.10
0.17
0.15
0.02
-0.18
-0.40
-0.57
-0.62
-0.53
-0.33
-0.08
0.16
0.36
0.49
0.56
0.54
0.42
0.21
-0.06
-0.31
-0.44
-0.42
-0.28
-0.13
-0.07
-0.17
-0.41
-0.68
-0.83
-0.78
-0.53
-0.17
0.15
0.34
0.38
0.32
0.23
0.20
0.26
0.39
0.58
0.77
0.91
1.01
1.06
1.10
1.15
1.20
1.21
1.13
0.93
0.62
0.33
0.14
0.12
0.22
0.31
0.31
0.19
0.01
-0.15
-0.21
-0.22
-0.24
-0.34
-0.53
-0.76
-0.94
-1.00
-0.91
-0.72
-0.48
-0.27
-0.16
-0.20
-0.40
-0.69
-0.97
-1.14
-1.11
-0.90
-0.56
-0.15
0.23
0.53
0.73
0.80
0.78
0.67
0.52
0.37
0.24
0.11
-0.03
-0.18
-0.30
-0.34
-0.26
-0.09
0.06
0.07
-0.14
-0.53
-0.95
-1.23
-1.25
-1.02
-0.65
-0.29
-0.05
0.12
0.28
0.50
0.80
1.09
1.25
1.22
1.00
0.67
0.30
-0.04
-0.33
-0.57
-0.74
-0.83
-0.85
-0.79
-0.69
-0.58
-0.46
-0.31
-0.13
0.06
0.20
0.26
0.20
0.07
-0.06
-0.11
-0.00
0.24
0.58
0.92
1.17
1.27
1.21
1.01
0.71
0.37
0.07
-0.14
-0.21
-0.15
0.01
0.22
0.39
0.48
0.44
0.30
0.10
-0.07
-0.19
-0.24
-0.25
-0.27
-0.36
-0.53
-0.75
-0.99
-1.20
-1.33
-1.34
-1.22
-0.96
-0.58
-0.16
0.22
0.45
0.46
0.27
-0.02
-0.30
-0.46
-0.42
-0.19
0.14
0.48
0.74
0.88
0.90
0.86
0.83
0.82
0.85
0.83
0.73
0.50
0.12
-0.36
-0.88
-1.35
-1.68
-1.85
-1.85
-1.76
-1.64
-1.54
-1.44
-1.27
-0.96
-0.51
0.05
0.62
1.11
1.48
1.75
1.92
2.01
2.00
1.86
1.58
1.21
0.82
0.49
0.28
0.20
0.24
0.38
0.55
0.69
0.72
0.61
0.36
0.06
-0.22
-0.37
-0.33
-0.10
0.26
0.65
0.95
1.08
1.02
0.78
0.47
0.18
0.00
-0.02
0.08
0.21
0.29
0.25
0.07
-0.22
-0.58
-0.92
-1.16
-1.21
-1.04
-0.67
-0.17
0.32
0.67
0.80
0.66
0.33
-0.07
-0.40
-0.56
-0.52
-0.32
-0.04
0.19
0.33
0.35
0.29
0.20
0.13
0.09
0.10
0.14
0.19
0.20
0.17
0.06
-0.09
-0.23
-0.28
-0.16
0.14
0.57
1.02
1.36
1.49
1.39
1.16
0.91
0.72
0.60
0.48
0.27
-0.04
-0.40
-0.69
-0.86
-0.93
-0.98
-1.10
-1.30
-1.50
-1.60
-1.54
-1.33
-1.08
-0.88
-0.81
-0.87
-1.00
-1.12
-1.15
-1.04
-0.80
-0.48
-0.16
0.08
0.16
0.08
-0.12
-0.36
-0.54
-0.62
-0.56
-0.40
-0.16
0.11
0.39
0.63
0.80
0.89
0.88
0.78
0.63
0.46
0.33
0.26
0.27
0.33
0.37
0.35
0.22
-0.01
-0.27
-0.50
-0.62
-0.62
-0.48
-0.24
0.05
0.36
0.63
0.82
0.87
0.77
0.54
0.25
0.01
-0.08
0.02
0.30
0.71
1.19
1.68
2.09
2.36
2.37
2.10
1.57
0.88
0.18
-0.41
-0.81
-1.03
-1.07
-0.98
-0.79
-0.58
-0.40
-0.33
-0.40
-0.60
-0.88
-1.16
-1.38
-1.51
-1.51
-1.37
-1.11
-0.76
-0.40
-0.10
0.07
0.10
0.04
-0.03
-0.07
-0.08
-0.06
-0.04
-0.03
-0.01
0.05
0.13
0.24
0.33
0.34
0.21
-0.08
-0.51
-0.98
-1.35
-1.50
-1.37
-1.00
-0.53
-0.14
0.06
0.08
-0.01
-0.05
0.06
0.31
0.60
0.83
0.91
0.84
0.67
0.45
0.19
-0.11
-0.46
-0.82
-1.07
-1.10
-0.84
-0.34
0.25
0.72
0.89
0.73
0.34
-0.06
-0.26
-0.18
0.14
0.55
0.85
0.92
0.74
0.43
0.11
-0.09
-0.16
-0.09
0.06
0.27
0.54
0.86
1.19
1.46
1.60
1.58
1.41
1.13
0.79
0.45
0.15
-0.08
-0.25
-0.37
-0.45
-0.49
-0.48
-0.39
-0.20
0.07
0.36
0.56
0.56
0.34
-0.07
-0.54
-0.94
-1.14
-1.12
-0.91
-0.63
-0.38
-0.23
-0.21
-0.28
-0.41
-0.54
-0.66
-0.75
-0.80
-0.78
-0.69
-0.49
-0.22
0.07
0.30
0.38
0.26
-0.04
-0.45
-0.81
-1.02
-0.98
-0.70
-0.25
0.21
0.58
0.78
0.77
0.61
0.34
0.07
-0.12
-0.14
0.03
0.36
0.75
1.04
1.14
1.00
0.70
0.34
0.03
-0.19
-0.36
-0.55
-0.78
-1.02
-1.19
-1.18
-0.96
-0.60
-0.19
0.16
0.34
0.36
0.22
0.01
-0.20
-0.37
-0.46
-0.49
-0.46
-0.38
-0.24
-0.02
0.25
0.53
0.77
0.93
1.02
1.03
0.98
0.87
0.68
0.42
0.12
-0.16
-0.36
-0.44
-0.42
-0.35
-0.26
-0.18
-0.10
0.01
0.13
0.27
0.38
0.43
0.41
0.32
0.20
0.10
0.02
-0.04
-0.12
-0.25
-0.43
-0.64
-0.80
-0.86
-0.77
-0.52
-0.16
0.22
0.55
0.76
0.80
0.69
0.42
0.06
-0.30
-0.58
-0.69
-0.63
-0.43
-0.19
-0.00
0.03
-0.09
-0.30
-0.48
-0.48
-0.22
0.26
0.80
1.21
1.34
1.13
0.71
0.25
-0.08
-0.22
-0.22
-0.18
-0.17
-0.20
-0.19
-0.10
0.09
0.29
0.40
0.33
0.09
-0.23
-0.52
-0.66
-0.66
-0.55
-0.43
-0.36
-0.33
-0.30
-0.18
0.00
0.20
0.31
0.25
0.01
-0.29
-0.54
-0.63
-0.58
-0.45
-0.36
-0.34
-0.38
-0.38
-0.26
0.00
0.31
0.54
0.58
0.42
0.13
-0.14
-0.26
-0.19
0.03
0.29
0.51
0.67
0.79
0.93
1.09
1.23
1.27
1.17
0.94
0.62
0.30
0.03
-0.20
-0.38
-0.47
-0.41
-0.15
0.30
0.82
1.24
1.37
1.14
0.61
-0.00
-0.46
-0.58
-0.35
0.09
0.53
0.79
0.82
0.70
0.55
0.46
0.44
0.40
0.26
-0.01
-0.34
-0.64
-0.83
-0.91
-0.92
-0.92
-0.94
-0.95
-0.91
-0.83
-0.72
-0.62
-0.55
-0.50
-0.46
-0.41
-0.38
-0.39
-0.46
-0.56
-0.67
-0.72
-0.69
-0.60
-0.48
-0.38
-0.28
-0.15
0.07
0.39
0.74
0.99
1.01
0.76
0.30
-0.22
-0.61
-0.77
-0.73
-0.61
-0.54
-0.57
-0.65
-0.66
-0.47
-0.06
0.48
1.04
1.47
1.71
1.74
1.61
1.35
1.05
0.74
0.45
0.22
0.02
-0.13
-0.24
-0.29
-0.29
-0.25
-0.22
-0.24
-0.34
-0.49
-0.63
-0.69
-0.61
-0.41
-0.11
0.17
0.38
0.46
0.41
0.26
0.05
-0.16
-0.32
-0.39
-0.35
-0.23
-0.09
0.03
0.09
0.09
0.07
0.06
0.08
0.09
0.06
-0.03
-0.17
-0.29
-0.32
-0.22
-0.01
0.22
0.36
0.35
0.22
0.05
-0.05
-0.03
0.09
0.24
0.35
0.40
0.44
0.54
0.71
0.90
0.98
0.86
0.54
0.11
-0.24
-0.39
-0.29
-0.03
0.23
0.35
0.28
0.06
-0.20
-0.38
-0.43
-0.34
-0.18
-0.02
0.06
0.08
0.06
0.07
0.14
0.28
0.42
0.51
0.48
0.30
0.01
-0.31
-0.60
-0.80
-0.87
-0.82
-0.67
-0.44
-0.18
0.06
0.21
0.22
0.10
-0.12
-0.35
-0.51
-0.56
-0.47
-0.29
-0.05
0.19
0.37
0.48
0.53
0.53
0.49
0.40
0.22
-0.04
-0.37
-0.70
-0.95
-1.06
-1.01
-0.86
-0.70
-0.61
-0.60
-0.63
-0.62
-0.53
-0.37
-0.17
0.01
0.18
0.34
0.53
0.76
0.98
1.14
1.15
1.01
0.77
0.54
0.41
0.42
0.51
0.60
0.58
0.46
0.28
0.13
0.05
0.03
-0.02
-0.17
-0.42
-0.73
-0.98
-1.10
-1.10
-1.02
-0.94
-0.87
-0.80
-0.68
-0.54
-0.39
-0.28
-0.19
-0.08
0.09
0.34
0.62
0.83
0.89
0.76
0.48
0.16
-0.15
-0.37
-0.52
-0.59
-0.61
-0.58
-0.51
-0.40
-0.26
-0.12
0.05
0.25
0.48
0.72
0.88
0.90
0.71
0.37
-0.02
-0.35
-0.53
-0.54
-0.43
-0.26
-0.05
0.18
0.45
0.73
0.95
1.07
1.03
0.86
0.59
0.26
-0.13
-0.56
-0.99
-1.32
-1.43
-1.26
-0.81
-0.21
0.38
0.76
0.83
0.57
0.07
-0.49
-0.95
-1.15
-1.07
-0.75
-0.33
0.05
0.30
0.40
0.38
0.27
0.12
-0.08
-0.28
-0.47
-0.59
-0.65
-0.67
-0.70
-0.74
-0.76
-0.71
-0.54
-0.25
0.10
0.42
0.64
0.75
0.76
0.74
0.71
0.69
0.67
0.68
0.71
0.78
0.88
0.96
0.97
0.87
0.69
0.49
0.32
0.25
0.29
0.40
0.53
0.62
0.65
0.62
0.52
0.38
0.21
0.02
-0.19
-0.41
-0.62
-0.80
-0.89
-0.85
-0.70
-0.49
-0.31
-0.24
-0.29
-0.43
-0.60
-0.74
-0.82
-0.85
-0.87
-0.87
-0.84
-0.75
-0.60
-0.42
-0.26
-0.14
-0.06
0.03
0.19
0.45
0.76
1.07
1.29
1.39
1.35
1.20
1.00
0.81
0.69
0.67
0.71
0.76
0.77
0.73
0.67
0.64
0.65
0.65
0.60
0.47
0.29
0.17
0.17
0.28
0.36
0.25
-0.12
-0.68
-1.23
-1.55
-1.52
-1.22
-0.81
-0.48
-0.32
-0.30
-0.32
-0.26
-0.09
0.14
0.33
0.43
0.40
0.28
0.13
-0.03
-0.17
-0.31
-0.44
-0.53
-0.56
-0.50
-0.38
-0.21
-0.05
0.04
0.06
-0.00
-0.10
-0.20
-0.25
-0.24
-0.17
-0.04
0.10
0.22
0.30
0.31
0.25
0.14
0.01
-0.09
-0.11
-0.07
-0.05
-0.11
-0.29
-0.53
-0.69
-0.68
-0.47
-0.17
0.04
0.00
-0.31
-0.78
-1.25
-1.57
-1.70
-1.66
-1.51
-1.28
-0.98
-0.59
-0.13
0.37
0.83
1.19
1.43
1.55
1.57
1.54
1.48
1.43
1.40
1.39
1.38
1.33
1.24
1.11
0.96
0.82
0.67
0.51
0.33
0.12
-0.10
-0.31
-0.50
-0.66
-0.81
-0.97
-1.12
-1.25
-1.28
-1.18
-0.93
-0.58
-0.20
0.11
0.26
0.21
-0.04
-0.39
-0.74
-0.97
-1.01
-0.86
-0.62
-0.42
-0.35
-0.45
-0.66
-0.85
-0.93
-0.86
-0.67
-0.47
-0.33
-0.29
-0.30
-0.30
-0.25
-0.17
-0.06
0.04
0.15
0.29
0.51
0.81
1.17
1.52
1.79
1.95
1.97
1.85
1.58
1.19
0.70
0.20
-0.22
-0.48
-0.54
-0.45
-0.28
-0.15
-0.12
-0.21
-0.38
-0.57
-0.73
-0.83
-0.83
-0.71
-0.48
-0.13
0.27
0.65
0.90
0.91
0.66
0.20
-0.34
-0.83
-1.15
-1.27
-1.21
-1.02
-0.73
-0.37
0.05
0.51
0.92
1.16
1.16
0.89
0.45
-0.02
-0.36
-0.48
-0.35
-0.03
0.37
0.75
1.01
1.09
0.95
0.63
0.26
-0.02
-0.11
0.04
0.33
0.61
0.72
0.61
0.33
-0.01
-0.29
-0.45
-0.48
-0.42
-0.30
-0.13
0.04
0.21
0.36
0.48
0.61
0.77
0.96
1.15
1.26
1.19
0.93
0.52
0.08
-0.24
-0.35
-0.25
-0.07
0.04
-0.04
-0.33
-0.73
-1.09
-1.28
-1.27
-1.13
-0.96
-0.84
-0.79
-0.81
-0.87
-0.95
-1.03
-1.08
-1.07
-0.97
-0.80
-0.60
-0.42
-0.30
-0.21
-0.10
0.05
0.25
0.45
0.60
0.66
0.65
0.62
0.64
0.73
0.92
1.18
1.47
1.72
1.84
1.81
1.62
1.38
1.16
1.05
1.04
1.09
1.10
1.00
0.80
0.52
0.25
0.01
-0.18
-0.31
-0.37
-0.39
-0.37
-0.37
-0.44
-0.59
-0.78
-0.96
-1.05
-1.03
-0.93
-0.79
-0.63
-0.46
-0.27
-0.07
0.08
0.11
-0.02
-0.27
-0.56
-0.76
-0.83
-0.77
-0.66
-0.57
-0.54
-0.51
-0.42
-0.22
0.04
0.25
0.28
0.10
-0.26
-0.67
-1.00
-1.18
-1.18
-1.06
-0.89
-0.71
-0.54
-0.35
-0.15
0.08
0.31
0.54
0.70
0.76
0.71
0.57
0.42
0.33
0.34
0.42
0.49
0.47
0.33
0.17
0.08
0.12
0.25
0.39
0.43
0.34
0.17
-0.00
-0.10
-0.13
-0.13
-0.17
-0.26
-0.37
-0.50
-0.62
-0.74
-0.88
-1.00
-1.02
-0.90
-0.65
-0.36
-0.13
-0.06
-0.12
-0.26
-0.33
-0.25
0.02
0.43
0.85
1.14
1.15
0.83
0.24
-0.46
-1.02
-1.23
-0.99
-0.39
0.33
0.92
1.21
1.19
0.95
0.63
0.35
0.14
-0.04
-0.21
-0.38
-0.53
-0.64
-0.72
-0.80
-0.90
-1.02
-1.12
-1.12
-0.96
-0.62
-0.17
0.30
0.69
0.94
1.04
1.06
1.04
1.01
0.95
0.83
0.60
0.26
-0.12
-0.43
-0.59
-0.55
-0.36
-0.15
-0.00
0.05
0.08
0.21
0.47
0.83
1.13
1.19
0.97
0.54
0.11
-0.16
-0.21
-0.13
-0.10
-0.20
-0.37
-0.46
-0.32
0.05
0.49
0.76
0.69
0.33
-0.13
-0.45
-0.47
-0.25
0.03
0.19
0.13
-0.11
-0.36
-0.47
-0.38
-0.12
0.20
0.46
0.61
0.63
0.57
0.49
0.43
0.40
0.39
0.36
0.30
0.25
0.22
0.21
0.18
0.09
-0.07
-0.24
-0.32
-0.28
-0.12
0.04
0.11
0.07
-0.03
-0.08
0.01
0.20
0.38
0.39
0.18
-0.22
-0.66
-0.96
-1.04
-0.87
-0.55
-0.17
0.20
0.52
0.80
1.04
1.22
1.30
1.20
0.94
0.56
0.13
-0.25
-0.55
-0.76
-0.92
-1.04
-1.09
-1.00
-0.73
-0.28
0.26
0.76
1.07
1.12
0.91
0.51
0.03
-0.40
-0.68
-0.76
-0.63
-0.37
-0.09
0.10
0.13
-0.00
-0.21
-0.37
-0.41
-0.30
-0.12
0.02
0.06
-0.00
-0.07
-0.04
0.15
0.42
0.64
0.66
0.44
0.06
-0.33
-0.57
-0.62
-0.50
-0.31
-0.14
-0.06
-0.07
-0.15
-0.27
-0.38
-0.47
-0.54
-0.63
-0.78
-1.04
-1.38
-1.67
-1.77
-1.58
-1.14
-0.61
-0.22
-0.09
-0.24
-0.52
-0.73
-0.73
-0.51
-0.18
0.15
0.41
0.58
0.70
0.78
0.82
0.78
0.67
0.53
0.44
0.43
0.49
0.59
0.66
0.68
0.69
0.72
0.79
0.89
0.97
0.99
0.96
0.90
0.88
0.89
0.90
0.88
0.75
0.49
0.14
-0.22
-0.47
-0.49
-0.25
0.21
0.74
1.15
1.29
1.07
0.59
-0.03
-0.57
-0.89
-0.94
-0.76
-0.50
-0.30
-0.29
-0.48
-0.79
-1.06
-1.14
-0.99
-0.65
-0.30
-0.10
-0.15
-0.41
-0.74
-0.94
-0.90
-0.63
-0.24
0.13
0.36
0.45
0.50
0.60
0.78
0.95
1.00
0.88
0.61
0.34
0.19
0.21
0.37
0.53
0.55
0.39
0.09
-0.27
-0.61
-0.88
-1.06
-1.15
-1.13
-0.99
-0.76
-0.50
-0.28
-0.18
-0.20
-0.31
-0.42
-0.42
-0.27
0.01
0.31
0.53
0.59
0.48
0.27
0.03
-0.21
-0.43
-0.63
-0.80
-0.91
-0.92
-0.82
-0.69
-0.59
-0.55
-0.57
-0.58
-0.53
-0.43
-0.33
-0.28
-0.26
-0.19
0.01
0.34
0.73
1.06
1.23
1.22
1.10
0.96
0.86
0.81
0.79
0.74
0.65
0.52
0.36
0.18
0.01
-0.12
-0.14
-0.02
0.25
0.62
0.99
1.26
1.41
1.48
1.54
1.66
1.79
1.84
1.71
1.37
0.89
0.40
0.03
-0.17
-0.26
-0.37
-0.58
-0.89
-1.23
-1.48
-1.55
-1.43
-1.20
-0.98
-0.84
-0.82
-0.88
-0.94
-0.95
-0.90
-0.81
-0.70
-0.57
-0.43
-0.28
-0.14
-0.08
-0.11
-0.21
-0.29
-0.26
-0.07
0.25
0.59
0.82
0.86
0.75
0.59
0.47
0.46
0.52
0.58
0.55
0.43
0.27
0.13
0.08
0.08
0.08
0.04
-0.05
-0.16
-0.25
-0.29
-0.29
-0.27
-0.21
-0.13
-0.04
0.03
0.02
-0.12
-0.36
-0.61
-0.73
-0.65
-0.34
0.11
0.56
0.87
0.99
0.92
0.72
0.46
0.17
-0.11
-0.38
-0.62
-0.83
-1.00
-1.10
-1.11
-1.02
-0.83
-0.57
-0.31
-0.09
0.03
0.03
-0.04
-0.15
-0.25
-0.31
-0.31
-0.29
-0.24
-0.16
-0.05
0.09
0.24
0.35
0.37
0.29
0.10
-0.16
-0.43
-0.65
-0.78
-0.82
-0.77
-0.69
-0.65
-0.67
-0.77
-0.88
-0.93
-0.86
-0.67
-0.39
-0.08
0.21
0.49
0.76
1.03
1.27
1.45
1.50
1.39
1.11
0.70
0.24
-0.14
-0.32
-0.25
0.05
0.46
0.80
0.96
0.91
0.77
0.69
0.80
1.08
1.41
1.61
1.58
1.33
1.01
0.75
0.63
0.65
0.72
0.79
0.88
1.01
1.20
1.40
1.49
1.39
1.09
0.66
0.25
-0.06
-0.25
-0.39
-0.59
-0.90
-1.30
-1.69
-1.97
-2.07
-2.01
-1.85
-1.69
-1.59
-1.54
-1.49
-1.37
-1.18
-0.91
-0.63
-0.38
-0.20
-0.12
-0.10
-0.16
-0.27
-0.43
-0.62
-0.82
-0.95
-0.99
-0.89
-0.68
-0.42
-0.22
-0.13
-0.16
-0.24
-0.26
-0.16
0.06
0.31
0.49
0.56
0.56
0.61
0.78
1.06
1.38
1.61
1.70
1.68
1.63
1.63
1.68
1.68
1.51
1.11
0.52
-0.12
-0.64
-0.93
-1.01
-0.97
-0.95
-1.02
-1.13
-1.18
-1.08
-0.80
-0.44
-0.16
-0.09
-0.24
-0.49
-0.67
-0.65
-0.46
-0.23
-0.10
-0.15
-0.33
-0.48
-0.48
-0.30
-0.02
0.21
0.25
0.12
-0.07
-0.16
-0.09
0.13
0.37
0.51
0.47
0.30
0.08
-0.10
-0.21
-0.27
-0.33
-0.43
-0.54
-0.62
-0.64
-0.61
-0.57
-0.57
-0.65
-0.76
-0.86
-0.87
-0.74
-0.47
-0.08
0.36
0.75
1.01
1.06
0.91
0.61
0.30
0.10
0.07
0.18
0.30
0.31
0.17
-0.06
-0.22
-0.19
0.05
0.41
0.72
0.87
0.85
0.76
0.70
0.70
0.71
0.64
0.43
0.13
-0.14
-0.29
-0.27
-0.13
0.05
0.18
0.21
0.15
0.00
-0.22
-0.50
-0.81
-1.08
-1.23
-1.17
-0.91
-0.53
-0.18
0.00
-0.02
-0.19
-0.39
-0.48
-0.39
-0.12
0.26
0.66
1.01
1.26
1.40
1.38
1.21
0.91
0.57
0.29
0.18
0.27
0.52
0.83
1.10
1.27
1.31
1.25
1.12
0.95
0.79
0.66
0.57
0.52
0.45
0.31
0.08
-0.21
-0.49
-0.70
-0.81
-0.85
-0.92
-1.09
-1.36
-1.66
-1.85
-1.81
-1.49
-0.98
-0.41
0.06
0.34
0.44
0.42
0.36
0.30
0.28
0.27
0.28
0.31
0.35
0.39
0.44
0.49
0.54
0.56
0.51
0.35
0.05
-0.33
-0.69
-0.91
-0.91
-0.74
-0.49
-0.32
-0.27
-0.35
-0.47
-0.54
-0.52
-0.39
-0.19
0.04
0.24
0.34
0.33
0.21
0.05
-0.05
-0.07
-0.01
0.05
0.08
0.06
0.03
0.04
0.10
0.17
0.21
0.17
0.07
-0.05
-0.13
-0.16
-0.16
-0.16
-0.22
-0.33
-0.49
-0.63
-0.71
-0.69
-0.58
-0.42
-0.28
-0.23
-0.29
-0.44
-0.62
-0.74
-0.77
-0.70
-0.58
-0.47
-0.39
-0.32
-0.20
-0.01
0.23
0.41
0.43
0.25
-0.07
-0.35
-0.42
-0.14
0.46
1.20
1.88
2.32
2.45
2.31
2.02
1.66
1.26
0.83
0.34
-0.18
-0.63
-0.90
-0.93
-0.74
-0.42
-0.10
0.10
0.14
0.04
-0.10
-0.20
-0.19
-0.07
0.10
0.21
0.20
0.04
-0.19
-0.35
-0.33
-0.11
0.20
0.43
0.44
0.20
-0.19
-0.57
-0.78
-0.80
-0.66
-0.50
-0.38
-0.34
-0.30
-0.20
-0.01
0.25
0.52
0.73
0.84
0.87
0.85
0.79
0.70
0.51
0.25
-0.05
-0.28
-0.33
-0.15
0.20
0.59
0.88
0.98
0.92
0.75
0.57
0.43
0.36
0.33
0.32
0.28
0.18
0.00
-0.26
-0.55
-0.81
-0.99
-1.10
-1.17
-1.27
-1.38
-1.42
-1.26
-0.84
-0.22
0.40
0.83
0.93
0.74
0.43
0.20
0.14
0.23
0.32
0.27
0.03
-0.29
-0.52
-0.51
-0.22
0.25
0.72
1.05
1.13
0.98
0.65
0.22
-0.23
-0.62
-0.92
-1.08
-1.08
-0.94
-0.70
-0.41
-0.16
0.02
0.06
-0.03
-0.22
-0.43
-0.53
-0.44
-0.12
0.34
0.79
1.06
1.06
0.78
0.31
-0.21
-0.62
-0.81
-0.75
-0.48
-0.08
0.31
0.63
0.81
0.86
0.79
0.63
0.38
0.09
-0.15
-0.29
-0.25
-0.06
0.20
0.42
0.50
0.41
0.22
-0.02
-0.25
-0.42
-0.49
-0.43
-0.21
0.12
0.46
0.69
0.72
0.57
0.32
0.08
-0.08
-0.17
-0.22
-0.27
-0.30
-0.28
-0.21
-0.16
-0.19
-0.37
-0.64
-0.90
-1.01
-0.89
-0.58
-0.18
0.20
0.45
0.56
0.53
0.41
0.22
0.02
-0.15
-0.25
-0.26
-0.19
-0.10
-0.05
-0.07
-0.15
-0.25
-0.30
-0.28
-0.20
-0.09
-0.02
-0.00
-0.05
-0.14
-0.24
-0.32
-0.36
-0.39
-0.42
-0.47
-0.56
-0.66
-0.73
-0.76
-0.73
-0.70
-0.73
-0.85
-1.01
-1.15
-1.17
-1.03
-0.78
-0.53
-0.42
-0.48
-0.69
-0.92
-1.04
-0.96
-0.67
-0.25
0.18
0.52
0.71
0.74
0.63
0.44
0.19
-0.10
-0.37
-0.54
-0.52
-0.23
0.28
0.86
1.32
1.49
1.34
0.95
0.53
0.21
0.08
0.12
0.26
0.44
0.63
0.83
0.99
1.04
0.97
0.79
0.62
0.56
0.65
0.84
1.00
1.02
0.83
0.50
0.18
0.01
0.05
0.30
0.65
0.98
1.20
1.23
1.05
0.67
0.15
-0.38
-0.78
-0.93
-0.78
-0.41
0.06
0.46
0.68
0.68
0.52
0.28
0.06
-0.08
-0.12
-0.08
-0.03
-0.02
-0.10
-0.26
-0.43
-0.57
-0.65
-0.70
-0.77
-0.88
-1.01
-1.07
-1.01
-0.83
-0.59
-0.40
-0.34
-0.37
-0.45
-0.48
-0.46
-0.40
-0.37
-0.39
-0.43
-0.42
-0.29
-0.02
0.32
0.63
0.80
0.78
0.60
0.36
0.18
0.11
0.16
0.27
0.35
0.35
0.27
0.16
0.08
0.07
0.11
0.16
0.20
0.20
0.20
0.22
0.29
0.39
0.48
0.52
0.50
0.43
0.35
0.32
0.33
0.36
0.37
0.32
0.20
0.04
-0.10
-0.19
-0.24
-0.26
-0.28
-0.30
-0.32
-0.30
-0.24
-0.19
-0.19
-0.29
-0.45
-0.59
-0.62
-0.51
-0.29
-0.02
0.21
0.36
0.42
0.40
0.33
0.23
0.18
0.22
0.41
0.68
0.92
0.97
0.71
0.18
-0.48
-1.02
-1.25
-1.12
-0.70
-0.21
0.16
0.28
0.12
-0.20
-0.53
-0.75
-0.77
-0.61
-0.35
-0.09
0.09
0.14
0.07
-0.01
-0.03
0.07
0.27
0.51
0.69
0.80
0.84
0.87
0.93
0.97
0.88
0.59
0.06
-0.60
-1.24
-1.67
-1.79
-1.59
-1.16
-0.66
-0.26
-0.06
-0.10
-0.29
-0.47
-0.52
-0.39
-0.15
0.06
0.14
0.06
-0.07
-0.13
-0.04
0.17
0.35
0.37
0.18
-0.12
-0.40
-0.49
-0.36
-0.04
0.32
0.59
0.73
0.73
0.65
0.54
0.40
0.25
0.07
-0.09
-0.18
-0.14
0.03
0.30
0.56
0.72
0.72
0.56
0.31
0.09
-0.01
0.01
0.12
0.21
0.15
-0.11
-0.55
-1.04
-1.42
-1.57
-1.44
-1.08
-0.59
-0.11
0.29
0.53
0.58
0.41
0.06
-0.40
-0.82
-1.05
-0.98
-0.66
-0.21
0.20
0.42
0.44
0.32
0.17
0.05
-0.04
-0.11
-0.14
-0.12
-0.02
0.12
0.22
0.20
0.06
-0.12
-0.21
-0.07
0.29
0.76
1.13
1.24
1.05
0.67
0.32
0.17
0.29
0.60
0.96
1.18
1.18
0.97
0.66
0.37
0.22
0.26
0.43
0.66
0.83
0.85
0.65
0.28
-0.21
-0.72
-1.15
-1.45
-1.61
-1.65
-1.63
-1.55
-1.44
-1.29
-1.06
-0.75
-0.38
-0.02
0.25
0.39
0.39
0.30
0.23
0.20
0.23
0.26
0.24
0.17
0.11
0.12
0.22
0.40
0.55
0.61
0.58
0.51
0.54
0.71
1.00
1.27
1.37
1.21
0.81
0.32
-0.10
-0.35
-0.42
-0.37
-0.28
-0.18
-0.05
0.11
0.26
0.34
0.26
0.01
-0.32
-0.61
-0.73
-0.63
-0.39
-0.13
0.01
-0.05
-0.25
-0.50
-0.65
-0.63
-0.43
-0.13
0.16
0.34
0.34
0.19
-0.04
-0.26
-0.43
-0.52
-0.55
-0.50
-0.39
-0.22
-0.03
0.13
0.21
0.17
0.03
-0.17
-0.38
-0.55
-0.66
-0.70
-0.68
-0.60
-0.48
-0.34
-0.25
-0.23
-0.33
-0.52
-0.74
-0.93
-1.01
-0.97
-0.81
-0.55
-0.21
0.18
0.62
1.05
1.44
1.70
1.77
1.64
1.37
1.04
0.76
0.57
0.48
0.42
0.32
0.14
-0.10
-0.33
-0.48
-0.48
-0.34
-0.11
0.14
0.34
0.46
0.52
0.52
0.43
0.25
-0.01
-0.28
-0.46
-0.43
-0.17
0.28
0.77
1.14
1.31
1.24
0.98
0.60
0.18
-0.23
-0.59
-0.86
-1.00
-1.01
-0.91
-0.77
-0.67
-0.67
-0.80
-1.00
-1.18
-1.24
-1.13
-0.88
-0.58
-0.30
-0.08
0.10
0.27
0.49
0.72
0.88
0.92
0.83
0.67
0.55
0.55
0.64
0.77
0.84
0.78
0.59
0.31
0.00
-0.30
-0.55
-0.73
-0.77
-0.67
-0.40
-0.01
0.40
0.72
0.83
0.71
0.41
0.06
-0.19
-0.26
-0.12
0.15
0.41
0.56
0.54
0.37
0.13
-0.11
-0.30
-0.39
-0.37
-0.23
-0.02
0.19
0.32
0.32
0.21
0.03
-0.17
-0.36
-0.52
-0.64
-0.68
-0.62
-0.48
-0.35
-0.32
-0.48
-0.84
-1.28
-1.64
-1.79
-1.65
-1.25
-0.70
-0.14
0.33
0.71
0.99
1.20
1.34
1.37
1.29
1.08
0.81
0.53
0.32
0.18
0.10
0.04
-0.03
-0.11
-0.22
-0.35
-0.52
-0.73
-0.93
-1.07
-1.08
-0.94
-0.68
-0.38
-0.11
0.08
0.15
0.11
-0.01
-0.15
-0.22
-0.17
0.05
0.37
0.68
0.88
0.89
0.74
0.56
0.46
0.52
0.70
0.93
1.06
1.03
0.83
0.52
0.17
-0.14
-0.36
-0.49
-0.53
-0.52
-0.46
-0.41
-0.39
-0.42
-0.51
-0.62
-0.67
-0.62
-0.45
-0.19
0.06
0.19
0.15
-0.06
-0.34
-0.58
-0.67
-0.59
-0.37
-0.10
0.15
0.34
0.47
0.53
0.52
0.43
0.23
-0.07
-0.43
-0.76
-0.95
-0.95
-0.74
-0.40
-0.01
0.33
0.54
0.61
0.55
0.38
0.15
-0.08
-0.25
-0.30
-0.22
-0.03
0.22
0.45
0.60
0.66
0.65
0.62
0.60
0.61
0.64
0.68
0.72
0.72
0.71
0.65
0.58
0.50
0.45
0.41
0.38
0.32
0.20
0.03
-0.13
-0.18
-0.08
0.17
0.46
0.63
0.58
0.29
-0.15
-0.60
-0.91
-1.03
-0.95
-0.75
-0.52
-0.34
-0.25
-0.27
-0.38
-0.55
-0.73
-0.91
-1.02
-1.05
-0.99
-0.81
-0.51
-0.14
0.24
0.52
0.62
0.52
0.30
0.08
-0.02
0.04
0.26
0.53
0.73
0.79
0.67
0.42
0.10
-0.21
-0.45
-0.56
-0.50
-0.25
0.12
0.53
0.85
0.98
0.89
0.60
0.24
-0.07
-0.23
-0.23
-0.11
0.06
0.23
0.38
0.50
0.60
0.65
0.64
0.56
0.45
0.33
0.20
0.05
-0.19
-0.55
-0.98
-1.38
-1.63
-1.63
-1.42
-1.10
-0.81
-0.66
-0.65
-0.68
-0.66
-0.53
-0.32
-0.10
0.04
0.05
-0.04
-0.17
-0.26
-0.24
-0.12
0.07
0.24
0.29
0.18
-0.06
-0.36
-0.62
-0.72
-0.62
-0.31
0.13
0.58
0.94
1.14
1.14
1.01
0.82
0.65
0.53
0.44
0.34
0.18
0.01
-0.14
-0.21
-0.19
-0.12
-0.09
-0.13
-0.26
-0.42
-0.54
-0.58
-0.52
-0.39
-0.22
-0.03
0.19
0.42
0.64
0.81
0.88
0.82
0.64
0.42
0.25
0.21
0.35
0.68
1.11
1.56
1.92
2.09
2.05
1.80
1.38
0.88
0.37
-0.07
-0.38
-0.53
-0.53
-0.41
-0.26
-0.14
-0.11
-0.22
-0.42
-0.68
-0.94
-1.16
-1.30
-1.33
-1.26
-1.08
-0.81
-0.50
-0.23
-0.03
0.06
0.11
0.15
0.22
0.31
0.38
0.43
0.44
0.46
0.48
0.45
0.29
-0.02
-0.47
-0.95
-1.31
-1.46
-1.39
-1.15
-0.87
-0.63
-0.46
-0.36
-0.29
-0.21
-0.10
0.06
0.25
0.46
0.65
0.78
0.84
0.81
0.69
0.51
0.25
-0.04
-0.32
-0.49
-0.49
-0.32
-0.05
0.23
0.42
0.53
0.55
0.51
0.41
0.22
-0.07
-0.37
-0.57
-0.55
-0.29
0.15
0.59
0.92
1.05
1.02
0.87
0.65
0.35
-0.05
-0.54
-1.08
-1.56
-1.87
-1.95
-1.79
-1.46
-1.06
-0.69
-0.38
-0.14
0.04
0.19
0.31
0.41
0.45
0.43
0.34
0.24
0.17
0.18
0.27
0.40
0.50
0.50
0.40
0.23
0.07
0.00
0.06
0.24
0.47
0.67
0.80
0.80
0.67
0.42
0.09
-0.27
-0.56
-0.70
-0.64
-0.45
-0.25
-0.16
-0.25
-0.47
-0.68
-0.74
-0.59
-0.32
-0.06
0.02
-0.13
-0.46
-0.83
-1.11
-1.21
-1.12
-0.88
-0.54
-0.16
0.21
0.51
0.70
0.74
0.69
0.61
0.56
0.58
0.65
0.71
0.71
0.61
0.45
0.26
0.10
0.02
0.02
0.10
0.23
0.32
0.32
0.15
-0.14
-0.48
-0.73
-0.78
-0.58
-0.20
0.25
0.63
0.86
0.96
0.97
0.97
0.97
0.96
0.91
0.79
0.64
0.52
0.47
0.46
0.40
0.22
-0.09
-0.44
-0.69
-0.70
-0.42
0.06
0.55
0.87
0.92
0.72
0.43
0.17
0.05
0.04
0.06
0.01
-0.13
-0.33
-0.50
-0.56
-0.53
-0.47
-0.48
-0.63
-0.91
-1.23
-1.48
-1.60
-1.61
-1.59
-1.60
-1.64
-1.65
-1.50
-1.13
-0.52
0.22
0.96
1.56
1.96
2.16
2.17
2.05
1.76
1.33
0.77
0.18
-0.32
-0.64
-0.71
-0.58
-0.34
-0.10
0.03
0.02
-0.12
-0.32
-0.49
-0.56
-0.50
-0.33
-0.14
-0.01
-0.00
-0.11
-0.26
-0.34
-0.27
-0.03
0.32
0.64
0.78
0.63
0.21
-0.38
-0.95
-1.32
-1.42
-1.27
-1.01
-0.80
-0.71
-0.75
-0.82
-0.83
-0.73
-0.55
-0.34
-0.13
0.11
0.41
0.83
1.32
1.76
2.02
2.01
1.76
1.39
1.04
0.75
0.51
0.22
-0.12
-0.41
-0.50
-0.27
0.18
0.64
0.81
0.56
-0.04
-0.77
-1.35
-1.61
-1.53
-1.20
-0.78
-0.38
-0.11
-0.05
-0.18
-0.46
-0.75
-0.90
-0.83
-0.53
-0.10
0.32
0.65
0.84
0.90
0.86
0.71
0.46
0.15
-0.15
-0.32
-0.27
0.02
0.50
1.04
1.49
1.74
1.73
1.49
1.15
0.84
0.64
0.58
0.59
0.61
0.58
0.51
0.42
0.30
0.13
-0.14
-0.49
-0.87
-1.16
-1.25
-1.14
-0.91
-0.72
-0.69
-0.84
-1.09
-1.29
-1.36
-1.28
-1.12
-0.99
-0.93
-0.93
-0.91
-0.78
-0.52
-0.16
0.23
0.57
0.80
0.91
0.93
0.89
0.84
0.82
0.85
0.92
1.00
1.01
0.94
0.76
0.50
0.20
-0.10
-0.40
-0.68
-0.93
-1.07
-1.04
-0.81
-0.43
-0.01
0.33
0.49
0.49
0.42
0.38
0.42
0.51
0.55
0.46
0.21
-0.14
-0.44
-0.58
-0.49
-0.21
0.17
0.54
0.83
1.00
1.04
0.96
0.76
0.48
0.18
-0.07
-0.21
-0.26
-0.26
-0.32
-0.46
-0.67
-0.87
