1587409707.00
64.000000
-0.00
-0.00
-0.00
-0.00
-0.00
-0.00
-0.00
-0.00
-0.00
-0.00
0.00
0.01
0.01
-0.00
-0.03
-0.05
-0.05
0.00
0.13
0.36
0.66
1.01
1.37
1.72
2.06
2.40
2.79
3.24
3.80
4.42
5.06
5.66
6.20
6.68
7.15
7.68
8.31
9.14
10.09
11.04
11.88
12.56
13.14
13.76
14.65
15.96
17.91
20.32
22.90
25.38
27.58
29.57
31.68
34.32
37.81
42.54
48.15
54.10
59.83
64.97
69.58
74.14
79.34
85.71
93.76
103.00
112.62
121.73
129.77
136.75
143.30
150.75
157.77
166.64
177.95
191.79
206.97
220.57
228.25
225.36
208.53
176.87
132.76
80.05
23.07
-34.94
-92.44
-149.16
-205.23
-260.37
-313.74
-363.87
-409.83
-450.91
-486.50
-515.74
-537.23
-549.22
-549.96
-538.37
-514.21
-478.67
-433.88
-382.45
-327.02
-269.84
-212.63
-156.66
-102.95
-52.37
-5.90
35.58
71.43
101.35
125.50
144.38
158.69
169.15
176.37
180.75
182.57
182.07
179.51
175.23
169.65
163.18
156.15
148.81
141.30
133.69
126.02
118.33
110.69
103.16
95.80
88.68
81.83
75.25
68.95
62.95
57.25
51.86
46.78
42.03
37.59
33.45
29.61
26.07
22.81
19.83
17.11
14.67
12.48
10.54
8.83
7.35
6.07
4.97
4.05
3.27
2.63
2.10
1.67
1.33
1.05
0.84
0.68
0.56
0.48
0.42
0.39
0.39
0.39
0.42
0.46
0.51
0.57
0.63
0.71
0.79
0.88
0.97
1.07
1.17
1.28
1.39
1.50
1.62
1.75
1.90
2.06
2.23
2.43
2.65
2.90
3.19
3.50
3.85
4.25
4.68
5.15
5.68
6.25
6.87
7.54
8.26
9.05
9.89
10.78
11.72
12.74
13.84
15.02
16.26
17.51
18.74
19.91
21.04
22.17
23.33
24.55
25.78
26.94
27.87
28.46
28.60
28.30
27.58
26.54
25.19
23.50
21.32
18.39
14.52
9.61
3.73
-2.90
-9.93
-17.03
-23.95
-30.67
-37.30
-43.93
-50.47
-56.52
-61.40
-64.33
-64.74
-62.59
-58.47
-53.48
-48.81
-45.28
-42.99
-41.37
-39.48
-36.51
-32.40
-27.98
-24.76
-24.23
-27.08
-32.82
-39.96
-46.42
-50.72
-52.34
-52.03
-51.40
-52.19
-55.50
-61.96
-71.71
-83.91
-95.86
-102.74
-98.72
-79.79
-46.75
-6.30
30.27
51.53
51.17
30.94
-0.09
-29.74
-47.83
-49.77
-36.64
-13.83
12.03
35.32
52.32
61.11
61.36
54.41
40.80
24.53
11.34
6.82
14.67
35.65
67.70
107.20
150.74
196.64
245.60
298.86
356.12
413.88
465.31
502.08
517.33
508.39
477.65
431.56
377.31
320.31
263.01
205.72
148.36
91.80
38.03
-10.93
-54.16
-92.65
-129.06
-166.65
-208.35
-256.15
-310.15
-367.62
-422.53
-466.28
-490.57
-490.87
-468.83
-432.04
-390.74
-353.15
-322.06
-294.44
-264.07
-225.40
-176.33
-118.64
-56.77
3.83
57.56
98.70
121.39
120.64
94.72
47.37
-11.59
-67.87
-106.99
-119.12
-102.85
-65.20
-18.16
26.91
63.67
92.15
116.26
139.87
163.60
184.58
198.59
202.62
195.96
179.45
153.88
119.22
75.27
23.32
-32.63
-86.12
-130.32
-160.30
-174.43
-174.10
-162.27
-142.05
-115.53
-83.15
-43.97
3.67
60.85
126.45
195.95
261.51
313.42
343.16
346.32
324.31
283.95
234.92
186.08
142.54
104.52
68.36
28.58
-19.38
-76.82
-140.57
-203.04
-253.75
-282.16
-281.16
-250.05
-195.74
-131.52
-73.40
-35.83
-27.89
-51.56
-102.30
-171.49
-249.26
-326.75
-397.41
-457.14
-503.82
-536.48
-554.51
-556.98
-542.54
-509.76
-458.14
-389.27
-307.55
-220.08
-135.20
-60.82
-2.66
36.65
57.71
63.36
57.76
45.31
30.04
15.54
4.43
-2.02
-3.41
0.12
8.04
19.75
34.37
50.66
67.37
83.29
97.65
110.37
122.60
136.25
153.42
175.67
203.39
235.97
270.99
303.83
328.30
338.87
331.84
306.86
267.78
221.83
179.72
151.41
142.52
153.11
180.18
218.47
262.40
307.32
348.87
385.88
416.66
437.50
444.25
437.74
422.63
405.10
389.14
372.65
353.73
328.93
294.57
250.13
203.53
167.00
152.04
164.63
201.06
256.57
322.88
388.87
419.92
392.16
305.45
185.86
85.36
11.69
-40.31
-77.58
-107.52
-130.66
-142.40
-139.95
-126.14
-109.66
-103.35
-111.55
-132.35
-160.73
-190.85
-216.08
-232.63
-240.95
-245.51
-254.10
-269.01
-288.98
-310.81
-330.05
-340.97
-339.80
-326.47
-304.89
-281.95
-260.79
-241.52
-222.68
-202.71
-180.86
-158.24
-137.46
-121.60
-113.47
-112.86
-117.82
-125.82
-134.31
-140.95
-144.27
-143.87
-140.43
-135.22
-128.51
-119.45
-106.52
-88.49
-65.49
-39.26
-12.62
11.63
31.58
46.58
56.77
62.75
65.30
65.52
64.93
65.37
68.51
75.39
86.04
99.47
114.11
128.33
140.90
151.38
160.07
167.75
175.03
181.78
186.96
189.06
186.93
180.65
171.68
162.17
153.76
146.63
139.67
131.62
122.44
114.01
109.40
111.12
119.23
130.73
140.48
143.30
135.97
118.24
92.37
61.44
27.91
-7.47
-45.56
-88.00
-136.29
-191.37
-253.61
-322.79
-397.57
-474.42
-547.11
-607.13
-645.76
-656.89
-639.45
-597.82
-540.18
-475.51
-410.78
-349.67
-293.10
-241.03
-194.16
-154.67
-125.55
-109.04
-105.24
-111.55
-123.35
-135.58
-144.28
-148.06
-147.97
-146.39
-145.39
-145.60
-146.12
-145.56
-143.16
-139.28
-135.21
-132.26
-130.88
-130.33
-129.09
-125.57
-118.90
-109.36
-97.93
-86.01
-74.99
-65.90
-59.14
-54.32
-50.46
-46.31
-40.64
-31.61
-17.57
2.23
27.35
56.60
88.79
123.10
159.21
196.95
237.60
282.29
330.59
380.04
427.16
469.13
504.61
533.49
556.13
575.09
592.13
606.13
612.60
605.85
582.20
541.62
487.45
425.41
365.70
319.63
296.24
299.71
329.09
379.25
441.56
504.93
537.38
514.56
434.11
319.95
205.94
115.29
53.70
14.78
-11.54
-31.68
-47.03
-54.53
-52.38
-43.69
-35.36
-34.53
-46.19
-72.89
-110.66
-152.24
-189.86
-218.64
-238.58
-253.28
-267.16
-283.65
-304.72
-331.21
-362.21
-395.34
-427.55
-455.01
-472.36
-472.77
-449.93
-401.35
-330.63
-247.37
-164.69
-95.95
-51.20
-34.81
-45.50
-78.37
-127.36
-186.50
-249.39
-308.06
-353.20
-376.02
-371.18
-339.31
-287.46
-226.51
-167.13
-115.98
-73.88
-37.06
0.21
43.04
94.62
156.15
226.97
304.19
382.24
453.19
508.49
541.56
550.28
537.49
509.70
474.18
436.35
398.67
361.34
323.83
286.08
248.53
211.26
173.37
133.25
89.72
43.54
-2.26
-43.47
-76.59
-100.84
-118.87
-135.49
-155.44
-181.20
-212.09
-245.08
-276.28
-302.43
-321.32
-331.52
-331.85
-321.58
-301.10
-272.41
-239.01
-204.49
-170.69
-136.35
-97.68
-50.72
5.41
66.35
123.01
164.66
183.35
177.28
151.44
114.97
77.06
43.25
14.04
-13.77
-44.57
-81.90
-127.89
-183.65
-249.38
-323.64
-402.04
-476.86
-538.52
-578.65
-593.06
-583.32
-555.80
-518.78
-479.34
-441.61
-406.74
-374.19
-343.20
-313.37
-284.48
-256.06
-227.17
-196.83
-164.64
-131.05
-97.28
-64.92
-35.11
-8.25
16.17
39.23
62.10
85.42
108.97
131.68
151.89
168.03
179.08
184.99
186.71
185.87
184.25
183.21
183.31
184.26
185.33
185.77
185.33
184.58
184.71
187.12
192.77
201.64
212.61
223.93
233.74
240.88
245.28
248.03
251.03
256.91
268.50
288.32
317.61
354.90
395.20
430.51
452.06
453.65
434.11
397.77
352.36
305.70
262.95
225.80
193.53
165.11
140.50
120.64
106.33
97.33
92.58
91.04
92.59
97.59
105.75
115.12
121.92
121.96
112.26
92.18
63.20
28.03
-10.71
-50.98
-90.93
-128.37
-160.44
-184.43
-198.87
-204.00
-201.37
-192.77
-179.59
-162.96
-144.44
-126.17
-111.20
-102.54
-102.02
-109.39
-122.36
-137.44
-151.06
-160.13
-161.43
-153.07
-134.97
-108.70
-76.65
-40.65
-1.27
41.82
88.86
140.45
194.15
244.10
282.87
304.36
306.25
290.16
260.13
220.92
179.99
143.20
113.60
92.17
78.48
72.25
73.47
81.89
97.52
124.59
165.47
217.70
274.21
324.66
360.66
378.63
379.47
343.34
265.54
158.21
44.98
-52.27
-125.05
-174.01
-203.08
-218.31
-226.32
-229.54
-229.60
-230.09
-232.35
-238.66
-248.61
-260.15
-273.63
-291.49
-314.28
-343.73
-383.79
-432.28
-489.92
-554.08
-605.83
-626.20
-603.68
-538.77
-445.22
-354.29
-274.99
-210.92
-160.51
-118.81
-80.95
-45.02
-8.85
29.92
73.31
123.50
175.90
222.48
254.42
263.68
246.62
205.53
147.09
79.67
12.82
-47.22
-94.67
-123.90
-132.03
-120.55
-95.53
-65.79
-39.29
-18.98
-4.23
8.96
25.09
45.90
69.98
94.18
116.03
135.10
153.98
176.11
205.41
245.21
297.02
359.43
427.67
493.74
547.92
581.58
589.38
570.80
529.74
472.63
406.35
336.99
269.68
208.77
157.69
118.15
89.24
67.38
47.40
24.72
-3.36
-37.27
-76.06
-118.12
-160.79
-199.29
-225.89
-231.13
-207.30
-152.69
-74.16
13.96
94.57
153.70
185.22
191.55
180.92
162.62
143.27
125.61
109.59
94.34
79.45
64.80
49.72
32.61
11.24
-15.97
-48.78
-84.58
-118.91
-146.81
-164.85
-172.81
-174.34
-176.26
-186.16
-209.38
-246.43
-292.02
-336.97
-372.16
-393.01
-401.95
-407.24
-418.35
-440.68
-472.40
-505.17
-528.67
-535.83
-526.09
-504.96
-480.37
-458.25
-440.33
-424.76
-408.68
-390.82
-372.09
-354.40
-338.65
-323.54
-306.00
-282.73
-252.11
-215.10
-174.98
-135.73
-100.29
-69.34
-41.31
-13.52
16.27
48.52
81.87
113.80
142.19
166.40
187.61
208.30
231.27
258.90
292.53
332.13
375.96
420.04
458.35
484.07
491.55
478.83
448.56
406.65
359.47
310.77
260.57
206.52
146.79
82.81
19.70
-35.32
-76.11
-99.90
-107.65
-102.56
-87.61
-64.32
-32.98
5.41
47.31
85.90
112.39
118.85
101.53
62.84
10.87
-43.11
-88.11
-116.45
-125.18
-115.56
-91.90
-59.71
-24.28
9.92
39.72
63.21
79.52
88.67
91.26
88.55
82.25
74.51
67.37
62.24
59.26
57.20
53.99
47.72
37.47
23.72
8.20
-6.73
-18.75
-26.26
-28.73
-26.69
-21.43
-14.48
-7.07
0.22
7.39
14.67
21.88
28.09
31.90
32.14
28.84
23.73
19.83
20.05
25.61
35.19
45.35
52.39
54.29
51.60
46.69
41.86
37.80
33.50
27.78
20.97
15.58
15.01
21.24
33.11
46.32
55.44
56.50
48.75
34.43
17.18
0.14
-15.00
-27.76
-38.03
-45.36
-48.97
-48.22
-43.25
-35.36
-26.91
-20.81
-19.39
-23.62
-32.45
-42.94
-51.04
-52.85
-45.93
-30.12
-7.67
17.73
42.78
66.31
90.58
120.53
161.10
213.81
274.80
335.35
385.53
418.60
433.53
435.05
430.68
426.73
425.65
425.99
424.41
418.57
408.47
395.31
380.64
365.19
348.41
328.89
305.41
277.34
245.56
212.28
178.18
143.84
110.01
77.38
46.10
16.11
-14.12
-45.53
-77.85
-113.75
-154.38
-198.17
-241.43
-280.80
-313.68
-341.98
-368.08
-393.08
-422.74
-460.05
-502.84
-545.14
-580.99
-605.98
-623.76
-639.96
-659.66
-694.50
-751.94
-830.19
-918.43
-1001.10
-1061.95
-1095.84
-1103.82
-1040.90
-889.63
-669.31
-426.85
-205.93
-44.73
73.35
163.86
234.97
291.47
332.32
356.82
370.75
384.88
411.15
458.99
525.12
600.69
676.15
735.54
766.49
765.71
723.85
643.87
543.61
443.25
358.52
296.37
250.05
210.36
172.85
138.91
110.16
87.63
65.94
38.26
2.09
-44.32
-100.16
-162.49
-219.07
-258.04
-272.13
-263.27
-249.38
-233.69
-213.97
-186.35
-141.68
-78.44
-1.12
81.26
156.01
211.92
244.81
255.91
250.40
236.21
220.28
207.22
198.37
190.04
178.20
162.89
147.70
135.20
127.00
122.24
119.28
116.40
108.66
93.50
73.89
58.59
51.54
53.02
59.23
65.60
67.41
54.56
20.96
-31.07
-87.94
-141.91
-189.35
-231.62
-270.99
-310.78
-362.92
-435.96
-529.50
-629.73
-729.74
-825.04
-912.92
-987.52
-997.86
-914.99
-746.43
-581.42
-448.00
-350.74
-269.43
-194.35
-116.99
-22.66
79.28
160.62
210.68
236.69
238.81
218.70
181.52
139.68
107.65
89.30
84.32
91.82
114.54
147.36
184.30
220.34
254.79
288.23
316.10
334.88
345.93
356.98
372.35
393.19
415.11
429.89
427.19
396.38
334.27
247.91
151.65
57.54
-27.59
-103.16
-171.40
-233.86
-290.05
-336.26
-367.57
-381.02
-378.20
-363.41
-341.34
-314.77
-284.50
-250.45
-212.78
-172.51
-131.69
-92.64
-56.94
-24.87
4.53
32.89
61.64
91.17
120.74
148.86
174.22
196.29
215.52
232.88
249.19
264.71
279.06
291.64
302.08
310.55
317.43
323.03
327.39
330.42
332.09
332.47
331.34
327.66
319.53
304.77
282.08
252.07
217.69
183.37
153.38
129.91
111.84
95.02
73.85
43.89
4.25
-41.15
-84.13
-114.45
-122.78
-103.48
-56.39
12.89
94.22
175.08
243.34
289.80
309.89
304.19
277.48
236.79
189.07
139.40
89.99
40.06
-13.17
-72.73
-139.98
-213.02
-285.98
-350.11
-395.91
-415.74
-405.72
-366.56
-303.19
-224.13
-140.21
-63.08
-2.90
34.13
47.54
42.57
27.83
11.59
-1.66
-12.68
-26.64
-50.53
-90.13
-147.67
-220.62
-301.86
-381.22
-447.98
-493.60
-514.06
-510.77
-489.74
-459.58
-428.82
-403.65
-386.93
-378.16
-374.49
-372.03
-367.11
-357.12
-340.92
-318.75
-291.91
-262.38
-232.36
-204.08
-179.09
-157.73
-138.71
-119.24
-95.93
-66.15
-29.17
13.84
60.29
107.57
154.32
200.93
249.45
302.98
364.85
437.46
521.00
612.14
703.76
786.14
849.65
887.99
900.38
891.48
869.09
840.66
810.62
779.83
746.96
710.70
671.21
629.88
587.92
544.92
498.37
444.67
380.91
306.38
223.00
134.70
45.73
-40.84
-123.98
-204.53
-284.41
-365.63
-449.50
-536.03
-623.44
-707.72
-782.80
-841.74
-878.60
-890.73
-879.92
-851.92
-814.18
-773.11
-732.17
-691.87
-651.34
-610.23
-569.65
-531.65
-497.57
-466.46
-434.93
-398.40
-353.27
-298.67
-237.05
-173.01
-111.23
-54.01
-0.54
53.23
112.85
183.26
267.08
363.61
468.49
574.15
671.23
749.93
802.66
825.91
820.89
792.46
746.74
688.43
619.26
538.59
444.42
337.52
223.33
112.33
17.87
-47.68
-77.49
-73.17
-43.70
-5.29
27.07
43.90
43.77
32.45
19.06
11.15
11.59
20.34
30.44
37.80
41.02
41.50
41.46
41.76
40.28
32.54
16.86
-13.31
-57.30
-110.18
-163.76
-208.67
-236.80
-243.39
-227.86
-189.27
-137.93
-79.65
-18.41
44.31
109.16
177.62
250.51
299.42
354.42
405.25
445.80
470.55
476.09
462.15
431.71
389.82
341.82
296.24
251.02
207.37
166.02
127.65
92.58
60.24
28.94
-3.52
-35.47
-70.81
-108.46
-146.69
-183.90
-219.41
-253.63
-287.98
-324.58
-363.70
-409.15
-460.48
-513.96
-562.34
-596.35
-607.55
-591.35
-548.62
-483.89
-405.62
-319.84
-229.68
-136.29
-41.51
49.99
130.44
191.51
228.07
239.51
230.74
209.15
181.01
148.85
111.52
66.89
15.59
-36.66
-79.67
-102.46
-97.97
-66.26
-14.25
47.89
111.36
171.77
228.74
282.82
332.14
371.34
393.65
394.75
375.75
343.30
306.71
273.86
248.32
229.16
212.84
196.09
177.75
158.80
141.08
125.70
112.17
98.49
82.18
61.48
36.18
7.85
-20.87
-47.55
-70.93
-91.43
-110.71
-130.64
-152.23
-175.14
-197.74
-217.93
-234.20
-246.50
-256.31
-266.08
-278.66
-296.82
-323.09
-358.68
-402.50
-450.51
-495.94
-530.76
-548.24
-545.35
-523.94
-490.75
-453.66
-418.82
-389.32
-365.55
-346.63
-331.59
-319.91
-311.15
-306.00
-303.46
-301.37
-297.79
-292.34
-286.27
-281.47
-279.14
-279.06
-282.14
-287.00
-290.88
-291.30
-287.42
-280.00
-270.21
-258.43
-243.92
-228.20
-209.84
-184.93
-148.60
-97.99
-33.90
38.52
110.86
195.28
288.61
379.21
454.19
508.54
545.09
568.94
583.14
588.59
585.83
573.39
553.02
526.75
497.22
464.60
429.41
393.31
359.18
329.77
304.58
282.97
261.66
237.20
207.20
171.84
132.94
95.26
61.82
32.03
4.23
-27.06
-67.19
-119.50
-183.99
-258.80
-341.03
-426.86
-511.28
-565.89
-568.08
-513.11
-418.94
-313.80
-221.37
-153.45
-110.46
-85.93
-71.19
-62.88
-60.97
-67.24
-79.18
-92.54
-103.15
-108.29
-107.64
-102.91
-99.55
-102.77
-114.72
-133.15
-153.23
-171.72
-185.59
-192.96
-192.99
-187.24
-177.47
-164.33
-146.84
-123.68
-94.23
-58.74
-18.46
24.77
68.19
109.09
145.37
175.83
199.59
215.97
224.95
227.33
224.78
219.34
213.07
207.48
203.26
200.01
196.77
192.87
188.54
185.33
186.29
195.24
215.98
250.56
297.56
351.10
401.33
436.17
444.57
419.87
362.14
278.73
182.31
87.44
6.55
-53.09
-90.55
-110.17
-118.92
-123.51
-128.29
-134.53
-141.41
-147.47
-151.38
-151.91
-147.19
-134.15
-108.93
-68.42
-11.89
58.05
136.15
216.42
294.25
367.21
434.07
493.03
540.38
571.31
581.16
567.66
532.43
480.83
420.18
357.30
296.81
240.65
190.00
144.69
103.68
65.79
30.60
-1.06
-27.61
-47.58
-60.78
-66.24
-65.64
-63.40
-65.63
-77.63
-101.98
-137.67
-179.61
-219.39
-243.19
-240.43
-208.18
-152.56
-85.43
-19.06
38.28
84.75
123.21
162.52
206.38
250.52
285.48
303.38
302.75
288.28
267.44
216.30
126.28
7.27
-117.22
-225.95
-309.19
-366.45
-401.17
-415.37
-412.66
-390.69
-350.43
-299.25
-249.60
-214.01
-200.21
-212.21
-247.02
-296.41
-345.35
-381.18
-397.63
-395.54
-380.05
-357.09
-331.35
-305.30
-279.87
-252.68
-222.56
-191.26
-163.33
-144.23
-137.82
-144.25
-158.92
-173.88
-179.60
-170.64
-148.85
-122.80
-103.55
-98.99
-109.87
-129.36
-146.68
-151.74
-139.90
-113.14
-77.92
-41.46
-8.65
18.90
42.25
63.33
83.51
103.04
121.33
137.48
150.81
160.95
167.71
171.18
171.76
170.35
168.45
168.20
172.10
182.05
198.10
217.26
233.14
237.13
221.06
180.61
117.79
41.31
-35.57
-99.37
-141.06
-159.05
-159.15
-151.12
-143.78
-140.97
-140.49
-136.03
-121.23
-93.10
-53.25
-6.53
41.96
89.47
136.12
183.30
231.20
276.92
314.51
337.22
340.43
324.08
293.12
255.88
220.68
192.33
170.20
148.95
121.50
82.66
31.61
-28.24
-91.43
-153.21
-210.89
-263.29
-308.94
-344.81
-366.80
-371.76
-360.06
-336.48
-308.94
-285.32
-270.26
-263.51
-260.86
-256.68
-246.75
-229.85
-207.53
-182.67
-157.74
-133.91
-111.02
-88.31
-65.17
-41.49
-17.48
6.65
30.76
54.59
77.34
97.51
112.99
121.62
121.75
112.70
94.93
70.21
41.53
12.97
-10.66
-24.76
-25.97
-13.10
12.72
48.42
89.68
131.56
168.91
196.72
210.82
208.80
190.98
160.45
122.37
82.42
45.44
14.54
-8.83
-24.36
-32.58
-34.63
-32.36
-27.90
-22.75
-16.78
-7.80
7.85
33.76
71.82
121.30
178.71
238.68
295.11
342.32
375.89
393.40
394.74
382.09
359.52
331.96
303.81
277.55
252.89
227.05
195.92
155.93
105.72
47.19
-14.57
-72.42
-119.12
-149.23
-160.41
-153.66
-132.75
-103.19
-70.97
-41.64
-19.23
-5.59
0.06
0.79
0.81
3.80
11.56
23.56
37.55
51.19
62.38
69.31
70.09
62.58
45.05
17.07
-19.50
-60.81
-101.81
-138.13
-167.10
-187.70
-199.74
-202.97
-197.08
-181.92
-158.36
-127.55
-91.66
-53.53
-16.08
18.19
47.65
71.28
89.30
102.54
114.77
129.17
147.16
168.09
190.30
212.50
233.45
253.78
274.04
298.85
329.65
363.61
395.23
419.99
437.33
448.33
456.73
463.48
474.07
489.91
508.96
528.21
546.50
565.91
586.89
611.88
639.99
678.34
730.16
792.77
858.06
915.36
956.46
974.31
971.57
887.15
696.30
417.21
105.87
-177.69
-401.49
-544.19
-639.28
-716.12
-791.36
-858.56
-906.71
-930.70
-929.76
-908.30
-871.00
-826.95
-781.16
-738.19
-692.58
-639.43
-580.25
-518.73
-462.52
-418.76
-394.34
-389.13
-401.11
-421.00
-442.71
-464.18
-485.63
-506.96
-524.08
-531.08
-520.02
-487.94
-437.10
-376.98
-319.78
-274.61
-244.47
-225.58
-211.66
-196.37
-176.96
-153.04
-125.67
-95.21
-60.83
-22.02
20.31
63.07
102.42
135.29
160.76
180.21
196.26
210.69
222.37
226.84
217.97
191.47
148.50
97.26
50.49
20.46
12.87
23.44
39.43
45.13
28.65
-13.58
-76.49
-149.58
-221.09
-281.14
-322.78
-341.83
-336.56
-308.03
-260.51
-200.98
-137.60
-77.28
-23.93
22.06
62.68
100.19
135.40
166.68
190.57
203.45
203.42
191.75
172.95
153.46
139.15
133.41
136.17
144.50
154.15
161.38
163.85
160.86
152.93
141.36
128.02
115.35
106.32
103.89
109.88
123.53
140.69
154.33
156.67
142.41
111.55
70.22
29.00
-0.96
-12.27
-4.05
18.15
45.03
67.32
78.93
78.23
67.31
50.28
31.25
13.32
-1.74
-13.21
-21.19
-26.45
-30.35
-34.44
-39.62
-46.10
-53.23
-59.52
-62.89
-61.14
-52.81
-38.09
-19.22
0.51
17.22
28.12
32.88
33.99
35.69
41.99
54.77
73.24
95.61
119.12
141.19
160.06
175.42
188.18
200.17
212.86
226.41
240.33
252.08
258.37
256.84
247.63
233.21
217.25
202.43
180.15
145.25
97.77
44.49
-4.73
-42.42
-66.55
-78.81
-84.50
-87.55
-89.16
-90.67
-94.77
-105.82
-126.62
-158.88
-201.81
-252.14
-304.03
-349.11
-379.66
-391.06
-383.97
-364.33
-341.54
-324.48
-317.94
-320.34
-324.16
-320.62
-304.07
-274.87
-238.19
-200.64
-166.23
-134.95
-103.26
-66.35
-21.52
29.76
81.56
125.56
153.74
161.48
148.71
119.81
83.18
49.77
29.76
27.39
38.99
56.19
72.48
85.85
97.65
109.81
122.11
131.18
133.11
124.96
105.70
76.80
41.03
1.64
-37.83
-73.69
-102.82
-123.64
-131.50
-125.30
-106.27
-77.89
-44.07
-7.94
28.43
63.38
94.98
121.08
139.51
149.64
151.50
146.07
134.88
119.57
101.48
81.40
59.68
36.37
12.07
-13.08
-38.64
-63.94
-88.32
-111.51
-133.74
-155.39
-176.49
-188.96
-185.79
-164.33
-128.62
-86.92
-46.65
-11.67
17.37
41.43
60.88
74.61
81.31
80.79
74.80
66.21
58.70
54.64
54.42
55.41
53.12
43.45
24.19
-4.47
-40.56
-81.39
-124.35
-159.59
-179.52
-179.68
-159.92
-124.63
-81.47
-39.06
-4.40
18.99
31.71
35.79
34.13
29.18
22.78
16.26
10.87
7.71
7.41
10.08
14.03
17.63
20.05
22.23
26.25
34.32
47.78
66.22
87.81
108.31
123.49
130.77
130.44
125.45
120.48
120.37
128.18
144.25
164.23
180.93
186.86
177.23
151.73
114.60
72.90
32.48
2.13
-12.33
-10.52
3.13
22.62
43.42
63.46
82.25
99.31
114.10
125.56
133.34
137.85
140.82
144.01
148.13
152.45
155.19
154.61
149.13
138.09
121.70
100.59
74.87
43.26
7.63
-29.98
-67.58
-102.75
-132.80
-155.51
-169.80
-176.27
-177.06
-176.09
-174.73
-174.33
-175.08
-176.39
-177.93
-180.21
-184.76
-193.89
-211.96
-239.03
-276.38
-323.36
-376.64
-430.05
-475.37
-504.56
-512.35
-500.61
-470.51
-428.95
-382.88
-336.91
-292.38
-247.44
-198.73
-127.53
-56.65
12.69
72.48
113.68
129.85
119.95
90.08
51.59
16.76
-7.69
-14.28
-2.30
26.97
70.97
124.78
180.24
225.32
246.21
230.66
179.43
102.61
18.90
-51.41
-94.69
-107.40
-96.02
-73.13
-52.00
-42.15
-48.42
-67.88
-90.80
-111.32
-127.03
-136.73
-140.46
-137.60
-126.39
-106.01
-76.36
-38.23
6.43
55.85
108.07
160.43
209.68
252.78
286.94
309.30
316.08
302.79
267.10
211.34
143.57
76.37
22.35
-10.19
-20.44
-14.55
-2.01
9.48
16.67
20.26
22.64
25.57
30.01
37.05
48.13
64.51
85.87
108.97
127.94
136.74
131.83
114.08
88.72
63.27
45.03
39.12
47.78
70.26
103.18
140.67
174.88
197.99
205.39
198.79
186.80
181.77
193.73
224.57
266.15
304.06
325.56
326.88
315.50
305.74
310.20
332.16
363.73
390.44
399.15
384.56
350.40
305.88
259.79
216.02
172.84
125.76
71.25
9.31
-56.58
-122.02
-184.56
-244.69
-304.71
-365.95
-426.28
-479.47
-517.21
-532.48
-522.49
-489.72
-440.42
-381.58
-318.28
-252.76
-185.97
-120.02
-59.71
-11.94
16.89
24.19
12.85
-9.57
-33.77
-52.13
-60.81
-59.71
-50.66
-35.33
-14.49
11.41
40.79
70.23
94.88
110.36
114.48
108.03
94.14
76.79
59.14
42.71
27.68
13.57
0.12
-12.43
-23.55
-32.83
-40.17
-45.66
-49.30
-50.80
-49.99
-47.28
-44.13
-42.74
-45.18
-52.44
-64.11
-78.72
-94.40
-109.46
-122.19
-130.50
-131.68
-122.89
-102.16
-69.26
-25.93
24.82
79.75
136.00
190.87
241.33
283.61
313.75
328.82
328.09
313.45
288.82
259.25
229.90
205.27
188.37
179.93
178.04
178.36
175.58
165.35
145.98
118.82
87.42
55.54
25.43
-2.78
-30.67
-60.41
-93.87
-131.99
-174.04
-217.17
-256.67
-287.43
-305.97
-311.86
-307.62
-297.09
-283.66
-269.04
-253.24
-235.49
-215.03
-191.27
-163.93
-133.48
-101.97
-73.58
-53.07
-43.26
-42.85
-46.11
-45.72
-37.29
-22.29
-7.16
0.28
-3.39
-14.65
-24.99
-25.97
-14.20
7.19
31.03
50.68
62.34
66.42
65.23
59.12
44.70
16.66
-27.92
-85.05
-143.34
-189.96
-214.88
-214.60
-192.89
-157.66
-117.18
-77.61
-43.17
-18.13
-10.03
-24.97
-63.52
-118.67
-177.93
-228.91
-264.69
-285.75
-282.56
-252.05
-197.02
-125.64
-48.08
27.09
93.82
148.00
188.10
215.39
230.92
237.14
237.07
233.27
227.76
221.65
215.23
208.97
203.45
197.73
191.11
183.57
174.94
165.41
155.16
144.07
132.35
120.63
108.66
96.50
84.84
73.27
61.68
49.99
38.19
26.54
15.47
4.92
-5.11
-14.43
-24.37
-36.06
-50.30
-67.57
-88.42
-114.04
-146.83
-190.23
-233.48
-269.03
-290.77
-295.69
-284.14
-258.31
-221.07
-175.60
-125.50
-74.81
-29.79
4.52
25.60
34.01
33.10
27.44
21.13
16.88
15.91
16.94
18.90
21.46
24.37
28.58
35.72
47.73
66.89
94.54
128.61
162.24
186.49
193.31
179.22
147.29
105.98
65.69
34.93
18.41
16.60
28.34
51.19
80.89
110.56
131.35
135.23
118.70
82.47
37.93
-1.24
-25.67
-33.30
-28.34
-17.60
-6.40
3.00
10.84
18.30
25.21
30.49
33.05
32.95
31.48
30.44
31.44
34.87
40.07
45.23
48.28
48.01
44.58
39.01
32.88
27.68
24.21
22.61
22.13
21.82
21.17
20.36
20.27
21.57
24.87
30.28
37.40
45.31
53.01
59.83
65.64
70.89
75.64
80.20
84.81
89.54
94.23
98.69
102.88
107.00
111.60
116.41
121.37
126.30
130.70
133.72
134.15
130.40
120.23
107.58
93.69
79.45
65.42
51.77
38.29
24.68
10.71
-3.52
-17.40
-31.10
-44.54
-57.82
-71.28
-85.51
-100.93
-117.76
-136.15
-156.25
-179.05
-204.93
-233.16
-261.48
-286.37
-304.16
-312.41
-310.83
-300.99
-285.87
-267.72
-247.49
-225.19
-200.94
-176.15
-153.71
-137.24
-129.53
-131.72
-142.66
-159.89
-181.19
-205.53
-232.93
-263.23
-294.59
-322.80
-342.39
-348.46
-338.86
-315.11
-281.52
-243.24
-204.43
-167.50
-133.65
-103.86
-79.60
-62.41
-52.82
-49.26
-48.15
-45.08
-36.45
-20.89
0.70
25.77
51.46
75.70
97.84
118.26
137.65
156.35
173.91
189.85
203.49
214.12
221.25
224.93
225.90
225.40
224.43
223.13
221.61
219.12
214.23
205.57
192.79
177.02
160.38
145.13
132.88
126.13
126.34
133.21
144.56
157.37
169.11
178.27
184.13
186.00
185.48
184.14
183.09
183.20
185.86
192.78
204.67
219.69
221.71
199.75
153.93
96.38
42.08
0.23
-27.23
-42.43
-47.71
-46.72
-38.85
-22.98
-0.69
22.91
41.62
51.55
49.70
35.83
12.19
-15.61
-41.90
-63.33
-79.90
-93.45
-105.91
-118.67
-135.27
-159.87
-194.51
-239.22
-292.81
-353.50
-418.40
-482.79
-524.52
-525.91
-484.20
-413.91
-336.50
-268.67
-218.25
-185.46
-166.03
-154.45
-150.13
-152.56
-161.20
-173.75
-186.71
-196.81
-201.87
-200.84
-193.70
-182.72
-171.40
-161.55
-152.31
-141.28
-126.14
-105.73
-80.14
-50.56
-20.10
8.12
32.08
51.47
67.05
79.68
89.90
97.97
104.02
107.61
108.46
106.83
103.55
99.69
96.04
93.13
91.35
91.09
92.52
95.78
100.86
107.61
115.75
124.84
134.45
144.49
155.15
167.12
181.63
200.46
225.46
257.48
295.12
333.91
366.87
386.36
386.66
365.83
326.10
272.61
211.36
147.64
85.58
28.81
-18.97
-54.13
-74.06
-78.48
-69.81
-52.58
-31.70
-10.87
8.34
26.32
44.71
65.39
89.94
119.61
155.52
198.41
247.82
301.02
352.44
394.41
419.38
422.51
403.71
367.69
322.13
274.76
230.95
192.86
160.12
131.40
105.51
81.67
58.93
35.52
8.96
-22.93
-60.71
-102.59
-144.57
-181.84
-210.49
-228.92
-238.18
-241.12
-240.91
-239.63
-237.71
-234.15
-227.29
-215.76
-199.13
-178.26
-155.19
-132.56
-112.81
-97.23
-85.31
-74.86
-62.90
-46.79
-25.15
1.78
32.45
64.49
95.01
120.85
138.73
145.74
140.14
121.91
92.91
56.25
15.35
-26.90
-68.42
-107.93
-144.68
-178.38
-209.42
-238.89
-268.51
-299.92
-333.90
-369.77
-405.13
-436.29
-459.02
-469.82
-466.83
-450.45
-423.21
-389.09
-352.35
-316.47
-283.63
-254.69
-229.70
-208.37
-190.43
-175.61
-163.44
-153.16
-143.83
-134.60
-124.99
-114.96
-104.79
-94.81
-85.20
-75.87
-66.59
-57.09
-47.28
-37.16
-26.86
-16.47
-5.97
4.70
15.60
26.68
37.74
48.55
59.06
69.52
80.47
92.55
106.18
121.35
137.50
153.80
169.47
184.22
198.36
212.76
228.38
246.04
266.11
288.45
312.39
336.60
359.13
377.63
389.97
395.07
393.53
387.61
380.20
373.24
366.38
356.78
340.26
313.26
274.61
226.16
172.08
117.30
65.95
20.64
-17.43
-47.97
-71.05
-86.99
-96.58
-101.29
-103.18
-104.45
-106.70
-110.31
-114.19
-116.11
-113.37
-103.99
-87.51
-65.28
-40.12
-15.24
6.76
24.71
38.81
50.14
59.82
68.44
75.90
81.72
85.54
87.36
87.55
86.63
85.03
82.86
80.06
76.61
72.60
68.33
64.08
59.91
55.56
50.56
44.41
36.89
28.21
18.96
9.98
2.06
-4.22
-8.76
-11.97
-14.80
-18.42
-23.86
-31.47
-40.55
-49.44
-55.82
-57.40
-52.66
-41.29
-24.22
-3.26
19.55
42.46
64.33
84.65
103.21
119.86
134.31
146.25
155.65
163.03
169.54
176.55
185.03
195.00
205.41
214.60
221.12
224.46
225.34
225.37
226.38
229.79
236.32
246.03
258.38
272.22
285.59
295.75
299.73
295.18
281.48
260.16
234.55
208.64
185.81
167.92
155.24
147.00
142.10
139.71
139.22
140.05
141.48
142.64
142.78
141.50
138.86
135.21
130.97
126.31
121.07
114.86
107.20
97.85
86.89
74.80
62.26
49.91
38.19
27.12
16.47
5.79
-5.32
-17.11
-29.56
-42.45
-55.46
-68.23
-80.49
-92.00
-102.56
-111.87
-119.54
-125.14
-128.26
-128.61
-126.11
-120.98
-113.59
-104.47
-94.18
-83.20
-71.92
-60.65
-49.64
-39.15
-29.45
-20.84
-13.54
-7.67
-3.16
0.27
3.00
5.41
7.66
9.69
11.17
11.67
10.85
8.71
5.54
1.86
-1.83
-5.41
-9.19
-13.91
-20.32
-28.86
-39.28
-50.66
-61.70
-71.27
-79.02
-85.63
-92.66
-101.97
-115.03
-132.30
-153.20
-176.49
-200.93
-226.06
-252.47
-281.85
-316.62
-359.66
-413.59
-479.75
-556.80
-639.72
-719.92
-787.05
-832.07
-850.20
-842.32
-813.98
-772.51
-723.86
-670.74
-612.95
-549.24
-479.42
-405.17
-329.41
-254.83
-182.55
-112.01
-41.69
29.90
103.65
179.61
257.12
334.56
409.00
476.09
530.66
568.15
586.25
586.02
571.61
548.89
523.50
499.44
478.58
461.24
446.93
434.91
424.03
412.53
397.93
377.69
350.09
315.02
274.11
230.26
186.57
145.22
106.83
70.53
34.72
-1.92
-39.59
-77.18
-112.79
-144.51
-171.30
-193.41
-212.20
-229.59
-247.39
-267.16
-289.93
-316.15
-345.20
-375.08
-402.32
-422.75
-432.92
-431.50
-420.13
-402.87
-384.64
-369.32
-358.51
-351.65
-347.36
-344.89
-344.70
-347.80
-354.12
-361.47
-365.68
-362.08
-347.50
-321.57
-286.38
-244.80
-198.58
-147.65
-91.22
-29.77
33.29
91.65
137.98
166.50
175.09
165.67
143.30
114.59
86.30
64.45
53.71
56.98
74.87
105.71
145.99
191.19
236.93
279.53
316.35
345.60
366.65
379.97
387.06
389.99
390.39
388.65
383.61
373.19
355.53
330.18
298.49
263.06
226.75
191.58
158.27
126.32
94.63
62.29
29.08
-4.47
-37.15
-67.46
-94.34
-117.47
-137.63
-156.87
-178.09
-203.99
-235.74
-272.00
-309.35
-344.05
-373.58
-397.48
-416.73
-432.10
-442.60
-445.08
-435.62
-411.85
-375.49
-331.74
-287.16
-247.10
-214.01
-187.39
-164.96
-144.37
-124.54
-107.82
-97.02
-93.54
-96.22
-102.05
-107.47
-109.29
-105.22
-94.33
-80.73
-68.72
-60.27
-54.10
-47.23
-37.10
-22.22
-1.94
24.12
50.76
74.25
94.30
113.17
131.28
144.31
144.90
126.70
87.85
24.59
-61.18
-161.48
-264.54
-360.41
-444.33
-515.28
-573.27
-570.57
-479.46
-306.83
-94.61
108.95
274.07
392.79
470.91
519.67
550.49
564.48
560.95
541.18
510.41
475.22
438.72
401.72
363.93
325.03
279.63
225.18
164.95
111.38
75.74
62.07
66.46
80.05
93.81
98.43
90.22
71.48
48.36
25.76
5.39
-12.85
-28.96
-41.30
-49.30
-52.79
-52.88
-50.13
-46.18
-42.79
-40.31
-37.53
-32.03
-22.53
-9.27
6.29
22.43
37.26
49.14
56.33
56.56
47.94
29.33
2.05
-29.73
-59.58
-81.38
-91.16
-87.62
-74.34
-53.53
-26.59
6.16
44.18
84.58
120.81
143.63
144.75
121.14
79.12
31.55
-6.04
-20.27
-3.70
43.92
116.83
205.85
300.73
393.13
473.28
530.01
553.02
536.79
483.74
404.57
315.91
235.32
178.19
150.25
146.60
155.36
163.41
161.44
146.19
120.04
76.55
20.79
-35.09
-79.46
-108.19
-123.73
-130.32
-130.97
-127.07
-121.22
-114.27
-108.06
-104.96
-106.36
-111.92
-120.08
-128.79
-137.94
-149.39
-164.44
-185.06
-212.79
-246.95
-283.51
-315.84
-337.10
-342.78
-332.09
-306.67
-271.33
-232.44
-195.56
-163.72
-137.16
-114.55
-94.46
-75.94
-57.96
-40.12
-22.57
-5.57
10.75
26.22
40.27
50.95
55.23
51.46
40.43
24.71
7.21
-9.79
-25.04
-38.20
-49.69
-60.22
-70.11
-79.77
-89.50
-99.32
-109.09
-118.63
-127.70
-136.26
-144.26
-151.52
-157.74
-163.35
-168.25
-171.94
-173.69
-172.69
-168.41
-160.68
-149.65
-135.68
-119.16
-100.07
-78.06
-52.75
-24.02
7.55
40.61
73.26
103.62
130.29
152.85
171.75
187.89
202.81
218.67
238.68
266.65
305.39
354.36
408.31
457.96
493.07
507.17
500.36
478.69
450.27
420.96
392.66
364.96
338.15
314.99
299.79
295.24
299.27
304.54
301.58
283.78
250.58
207.25
161.22
118.75
82.90
53.72
29.17
6.49
-16.37
-41.03
-69.11
-103.06
-145.21
-196.04
-252.59
-308.52
-355.39
-384.60
-390.66
-371.37
-331.79
-285.55
-248.12
-227.67
-222.94
-227.34
-234.26
-240.31
-245.45
-251.35
-258.88
-266.59
-271.16
-270.03
-263.32
-252.05
-238.32
-224.10
-210.85
-198.94
-187.42
-174.31
-158.77
-141.59
-124.52
-109.76
-99.01
-92.82
-89.94
-91.21
-94.93
-99.37
-103.58
-107.16
-110.35
-113.64
-117.43
-121.60
-125.55
-127.82
-127.59
-125.01
-120.50
-115.19
-110.51
-107.58
-106.46
-106.01
-103.86
-97.94
-87.34
-71.11
-49.99
-26.19
-2.27
20.39
42.41
66.19
93.99
126.55
165.51
209.96
256.40
300.30
338.81
372.19
403.35
435.84
472.32
518.60
577.17
644.42
710.81
763.97
793.35
794.12
769.25
729.45
696.14
687.75
710.60
756.10
805.49
838.99
843.71
817.15
724.30
556.80
334.46
97.17
-116.43
-285.40
-406.46
-485.29
-530.53
-549.39
-548.92
-536.55
-520.60
-508.13
-501.27
-496.00
-484.47
-460.28
-420.28
-364.03
-296.43
-226.08
-161.36
-107.29
-64.83
-33.19
-12.59
-4.91
-11.31
-31.81
-64.53
-105.14
-147.13
-183.13
-206.99
-215.75
-210.37
-196.31
-181.87
-175.42
-182.49
-204.18
-237.32
-276.38
-315.47
-338.04
-330.73
-289.70
-222.94
-144.35
-65.79
6.07
68.40
120.23
161.63
191.78
210.58
219.90
223.68
226.26
230.55
236.84
243.88
250.20
253.59
252.17
245.77
236.03
225.36
215.49
206.43
196.93
184.95
171.57
156.93
141.68
127.26
115.23
106.59
100.57
95.94
91.83
87.75
83.10
77.76
72.08
66.58
61.62
55.12
45.43
32.60
18.41
4.77
-7.03
-16.74
-25.12
-33.79
-49.40
-77.34
-119.13
-171.85
-230.80
-291.47
-350.35
-404.68
-452.36
-498.89
-548.22
-599.34
-646.14
-681.53
-701.29
-704.64
-693.44
-671.06
-650.88
-643.91
-654.60
-680.55
-717.32
-761.57
-810.14
-857.85
-839.22
-717.07
-499.63
-237.54
12.20
214.36
358.46
449.25
497.71
515.55
504.33
467.35
414.27
360.48
320.00
299.21
296.04
303.67
315.02
318.94
310.39
290.39
264.42
238.24
215.48
198.05
187.52
185.18
187.76
191.14
192.20
189.71
183.62
175.19
166.73
161.40
162.31
171.42
186.75
207.23
231.69
257.90
282.39
300.41
307.27
290.27
244.23
175.45
99.85
33.76
-14.22
-43.64
-59.01
-64.88
-64.65
-59.12
-49.82
-40.22
-34.80
-39.20
-55.59
-81.65
-110.52
-134.08
-144.78
-139.37
-120.03
-92.38
-66.58
-51.28
-49.73
-56.13
-63.44
-66.45
-64.03
-58.32
-52.11
-46.74
-39.90
-27.60
-3.83
34.88
87.87
150.08
213.15
267.63
304.82
319.68
300.99
248.67
175.56
101.74
43.48
5.88
-15.41
-28.07
-37.21
-43.94
-44.97
-37.86
-25.01
-12.21
-5.67
-8.50
-20.57
-38.36
-56.88
-70.73
-76.98
-78.21
-79.73
-86.94
-103.19
-129.35
-164.51
-207.33
-255.95
-300.53
-333.18
-347.04
-338.80
-310.54
-269.58
-226.08
-189.45
-166.30
-153.63
-148.31
-147.43
-149.19
-152.81
-157.76
-162.71
-165.17
-163.01
-154.59
-141.46
-126.44
-112.63
-102.36
-96.22
-93.05
-90.61
-86.68
-79.56
-69.87
-59.04
-48.53
-39.00
-29.84
-19.34
-5.51
13.04
36.74
64.12
92.97
121.32
148.22
174.08
200.32
228.44
259.22
292.37
326.33
359.10
389.12
415.94
440.22
463.59
488.05
515.80
548.64
586.58
626.71
662.79
686.28
688.86
665.54
616.29
546.83
466.38
384.24
306.80
236.86
174.96
121.35
77.28
43.86
22.28
12.33
11.47
15.01
17.75
15.78
7.38
-7.14
-27.99
-54.58
-86.13
-122.39
-164.05
-212.18
-267.47
-329.77
-397.61
-469.56
-540.40
-601.23
-641.95
-655.03
-638.17
-595.15
-534.46
-454.82
-364.90
-278.62
-207.87
-157.02
-124.33
-106.17
-99.37
-101.13
-108.17
-118.51
-128.83
-135.45
-135.84
-130.59
-121.56
-111.15
-101.51
-93.76
-89.17
-86.90
-84.55
-79.66
-71.03
-58.82
-43.99
-27.23
-8.16
11.66
32.68
56.56
85.05
119.19
159.18
204.37
252.92
301.28
343.53
373.49
386.64
381.85
361.71
332.33
301.27
275.14
257.44
247.69
242.82
238.96
232.81
221.85
205.22
183.56
158.59
132.30
106.10
81.04
58.16
38.28
21.25
6.84
-5.18
-14.86
-22.47
-28.84
-35.15
-42.19
-51.39
-65.51
-87.14
-117.49
-155.53
-198.28
-242.07
-283.39
-318.67
-335.91
-325.46
-284.98
-222.12
-149.92
-79.84
-18.64
27.74
62.46
88.63
107.23
118.55
123.11
122.16
118.52
114.11
109.57
105.73
102.80
100.30
97.95
95.79
94.43
94.49
95.88
96.60
95.31
91.34
85.01
77.33
69.35
61.80
54.80
47.75
37.14
20.65
-1.65
-27.01
-51.71
-72.79
-88.87
-100.02
-107.53
-117.73
-136.58
-167.44
-209.76
-259.75
-311.35
-356.83
-388.20
-400.21
-398.75
-394.95
-400.32
-421.79
-460.50
-513.14
-574.29
-638.67
-666.91
-634.61
-541.09
-408.92
-265.66
-129.43
-8.64
92.48
171.37
227.60
258.05
263.77
250.81
228.73
206.34
188.66
176.66
169.10
164.26
156.16
140.55
116.48
87.07
56.88
30.47
10.88
-0.17
-2.10
1.82
8.33
14.97
21.05
26.73
32.26
37.46
42.14
46.02
47.48
45.56
39.75
30.74
20.14
10.20
3.50
2.86
11.15
25.99
45.98
69.22
94.00
119.06
143.73
167.67
190.59
212.31
233.62
256.29
281.95
311.40
343.33
373.56
395.45
401.99
388.82
357.21
312.75
262.24
211.47
164.27
123.23
91.06
70.93
65.56
76.05
98.26
122.73
138.45
137.50
118.08
84.34
43.41
-5.72
-58.36
-106.94
-144.26
-166.61
-174.10
-169.03
-154.47
-133.98
-110.79
-86.29
-61.95
-39.48
-20.06
-3.99
9.27
20.62
30.85
39.50
47.07
53.59
58.76
62.45
65.01
67.25
69.99
73.05
75.95
78.80
81.40
83.19
83.44
81.25
75.07
66.65
56.00
42.95
27.97
11.86
-4.37
-19.65
-33.19
-44.71
-54.51
-63.91
-74.09
-85.52
-98.00
-110.96
-123.88
-136.56
-149.38
-163.03
-178.64
-197.07
-218.90
-244.55
-273.98
-305.91
-337.13
-362.43
-375.83
-373.00
-352.71
-317.52
-272.71
-224.18
-176.52
-132.23
-92.29
-57.32
-28.56
-7.50
5.12
10.32
11.07
11.49
15.50
25.56
42.18
63.84
87.67
110.43
129.44
143.21
151.58
155.33
155.40
152.32
146.10
136.68
124.39
110.58
97.26
86.48
79.39
75.88
74.62
73.95
72.78
70.99
69.26
68.25
67.93
67.31
64.86
59.36
50.63
39.86
29.28
21.36
17.94
19.63
25.80
35.13
46.19
57.85
69.30
79.88
88.81
95.04
97.58
95.95
90.60
82.89
74.43
66.35
58.86
51.34
42.66
31.49
16.72
-2.43
-26.37
-55.23
-88.73
-126.17
-166.71
-210.01
-256.99
-308.93
-365.89
-425.24
-481.40
-526.77
-554.11
-558.90
-540.87
-504.64
-456.72
-402.90
-346.86
-290.68
-235.77
-183.41
-134.62
-89.70
-49.21
-12.56
21.91
55.66
88.66
119.22
145.03
164.38
176.51
179.65
172.82
156.61
133.40
106.60
80.32
58.68
45.27
52.11
81.90
125.03
164.69
188.53
194.10
186.14
171.33
154.78
138.74
121.43
101.18
78.37
55.80
36.34
21.41
10.35
1.31
-7.85
-19.96
-35.92
-54.31
-71.80
-86.05
-95.03
-98.52
-97.61
-93.95
-90.02
-87.16
-85.52
-84.01
-81.71
-78.55
-75.48
-73.75
-74.36
-78.15
-84.59
-92.26
-98.20
-100.05
-96.73
-88.57
-76.40
-60.26
-44.42
-30.83
-20.09
-9.71
2.28
16.46
31.73
46.42
59.45
70.58
80.39
90.52
106.16
130.78
164.74
205.20
247.92
289.29
327.10
359.98
388.68
419.05
454.99
496.63
540.29
580.58
613.14
635.51
645.96
613.76
523.91
380.88
207.90
33.29
-122.94
-252.32
-347.32
-417.92
-471.54
-507.64
-525.24
-525.65
-512.96
-493.62
-472.43
-452.33
-435.80
-422.39
-407.43
-387.59
-362.26
-333.61
-305.10
-279.32
-257.54
-240.76
-227.67
-214.25
-197.42
-175.90
-150.42
-122.86
-94.90
-67.70
-42.32
-18.47
5.52
30.93
58.13
86.56
115.30
143.69
171.36
197.46
220.88
240.14
253.24
258.62
256.09
247.30
235.43
223.95
215.33
210.52
208.98
209.36
210.15
210.07
208.05
203.10
194.44
181.79
165.64
147.26
128.33
110.55
95.22
83.19
74.85
70.24
69.07
70.63
73.91
77.70
80.93
82.83
83.17
82.21
80.57
79.00
78.00
77.71
77.74
77.18
74.87
69.70
60.92
48.52
33.39
17.31
2.71
-7.97
-12.94
-11.76
-5.58
3.12
11.38
16.63
17.32
13.02
4.15
-8.67
-24.93
-44.23
-65.94
-88.88
-111.31
-131.36
-147.48
-158.95
-165.88
-168.76
-167.88
-162.86
-152.56
-135.59
-111.25
-80.29
-45.15
-9.49
23.02
49.88
70.35
85.25
96.26
105.05
112.87
120.61
129.28
140.14
154.22
171.21
188.89
203.62
211.72
211.39
203.62
191.66
179.43
169.55
162.42
156.42
149.25
139.20
125.94
110.33
93.54
76.64
60.24
44.88
31.24
20.05
11.68
5.84
1.63
-2.16
-6.43
-11.44
-16.84
-22.19
-27.43
-33.09
-39.79
-47.57
-55.38
-61.35
-64.02
-63.50
-61.90
-62.52
-68.27
-80.29
-97.43
-117.01
-135.73
-150.64
-159.45
-160.57
-153.36
-138.39
-117.97
-96.10
-77.49
-65.79
-62.05
-64.11
-67.56
-67.95
-62.94
-53.66
-44.35
-40.61
-46.93
-64.80
-91.70
-121.81
-147.89
-163.45
-164.19
-148.46
-116.69
-70.55
-12.81
52.97
122.52
191.64
256.94
316.06
367.00
406.73
430.59
433.49
412.92
371.92
319.76
268.90
229.54
204.78
189.44
173.51
148.29
111.48
67.99
26.66
-4.88
-24.19
-34.21
-40.63
-48.20
-58.53
-69.72
-78.59
-82.90
-82.64
-80.23
-79.15
-82.34
-90.67
-102.37
-113.47
-119.25
-115.81
-101.63
-78.08
-49.18
-20.71
0.98
9.78
0.87
-28.06
-75.54
-135.60
-198.09
-250.55
-281.79
-285.77
-264.44
-227.92
-191.46
-169.91
-171.65
-195.22
-229.75
-259.55
-270.82
-256.81
-219.32
-166.16
-106.87
-49.48
0.27
37.79
58.40
58.49
38.10
3.26
-34.62
-62.68
-71.50
-59.00
-30.21
6.31
43.12
76.83
107.95
138.24
167.77
193.79
211.65
217.48
210.58
194.22
174.83
159.40
153.14
157.90
172.01
191.04
209.13
219.97
217.71
197.76
158.15
101.13
34.04
-31.55
-82.97
-109.73
-106.89
-76.73
-27.95
27.16
76.97
113.99
136.58
147.68
152.38
154.88
156.46
155.45
148.73
133.92
110.81
81.49
48.31
13.03
-23.67
-61.83
-101.40
-141.72
-181.43
-218.99
-253.26
-286.08
-319.86
-355.89
-393.29
-429.32
-460.54
-484.11
-499.07
-506.93
-515.71
-533.33
-563.21
-600.93
-635.61
-654.45
-647.76
-612.74
-554.13
-488.88
-434.24
-400.70
-388.32
-389.41
-394.70
-397.86
-396.58
-390.84
-390.00
-401.77
-429.00
-469.03
-517.30
-571.53
-632.39
-700.59
-717.96
-642.09
-461.35
-206.47
69.24
320.68
525.44
680.83
794.54
877.38
929.72
949.46
936.51
897.64
843.60
785.20
731.56
689.72
664.68
651.37
641.52
627.00
603.34
570.27
530.74
489.61
452.52
425.50
408.26
397.42
388.08
376.37
360.21
339.06
313.03
281.96
245.25
199.43
140.91
68.27
-16.54
-109.01
-203.56
-295.51
-381.51
-458.37
-522.39
-567.60
-586.49
-572.61
-523.74
-443.93
-342.98
-233.08
-124.50
-22.63
72.15
161.82
246.61
322.95
383.65
420.50
427.31
401.96
346.29
265.33
166.28
57.14
-51.51
-146.71
-215.89
-251.54
-254.96
-236.84
-212.97
-197.74
-199.82
-216.72
-236.26
-242.62
-224.37
-179.66
-116.70
-49.93
4.67
31.90
25.16
-12.11
-68.85
-132.29
-192.55
-244.21
-285.33
-316.67
-344.19
-372.20
-401.51
-429.71
-453.18
-468.59
-473.17
-464.82
-418.53
-328.84
-212.35
-98.47
-9.79
47.44
78.57
89.49
88.71
80.69
64.36
40.79
14.94
-6.02
-16.34
-15.54
-7.13
4.06
13.65
16.61
12.11
4.14
-0.61
3.74
20.03
48.24
86.98
133.46
181.77
225.58
259.42
279.74
285.60
278.97
264.36
247.44
232.56
220.13
208.10
194.18
177.71
160.03
143.45
129.83
119.61
112.45
107.03
102.76
100.68
103.24
113.13
131.58
157.20
186.40
216.01
242.50
262.90
275.60
281.44
284.04
288.90
301.49
325.04
361.43
406.80
452.14
486.38
501.22
494.33
469.45
433.53
393.97
359.80
335.75
321.63
313.36
305.88
295.34
279.85
258.84
211.37
131.47
29.21
-73.74
-157.59
-213.23
-241.37
-247.63
-239.45
-223.58
-201.01
-173.53
-143.78
-115.24
-90.61
-70.67
-54.72
-43.68
-38.49
-37.06
-36.65
-35.91
-35.46
-36.48
-39.40
-43.73
-52.52
-67.89
-87.70
-107.78
-124.37
-135.99
-142.98
-146.22
-146.37
-150.44
-163.87
-186.94
-215.88
-246.19
-276.04
-306.29
-339.12
-376.13
-426.51
-495.82
-582.02
-675.87
-765.74
-842.69
-901.87
-941.60
-914.73
-797.27
-598.63
-359.93
-127.17
71.48
227.84
345.15
426.82
485.28
519.90
529.30
516.93
492.00
465.11
443.40
428.99
420.50
415.25
403.13
376.61
334.08
280.47
224.16
173.34
133.99
108.89
97.36
90.14
76.42
47.76
1.09
-60.97
-131.40
-200.64
-258.84
-298.24
-318.10
-322.20
-317.14
-309.81
-305.35
-305.64
-308.67
-309.37
-301.73
-282.91
-253.53
-217.36
-179.61
-144.89
-115.70
-92.04
-72.15
-53.38
-33.57
-11.17
14.41
42.15
68.45
86.83
89.41
70.21
29.09
-26.04
-80.55
-117.93
-126.15
-102.23
-52.97
8.91
70.42
123.11
164.92
198.49
227.86
255.50
281.38
303.68
320.60
331.62
337.67
340.15
339.94
336.66
329.11
316.24
298.36
277.64
257.17
239.48
225.38
214.13
204.35
195.41
187.81
182.41
179.14
175.96
169.28
155.53
132.84
101.88
65.33
26.34
-12.92
-51.62
-90.07
-128.84
-168.30
-208.74
-250.80
-295.55
-344.13
-396.98
-452.59
-506.91
-552.97
-582.11
-585.99
-558.97
-499.94
-412.67
-304.78
-185.42
-63.29
54.32
161.31
251.79
320.08
361.25
372.90
356.74
319.25
270.49
221.26
179.75
149.15
127.50
109.38
89.04
62.91
31.13
-2.82
-33.75
-56.93
-69.98
-73.54
-70.84
-66.27
-63.73
-65.40
-71.43
-80.57
-91.12
-101.72
-111.46
-119.41
-124.19
-124.04
-117.65
-105.02
-87.91
-69.17
-51.76
-37.94
-28.95
-25.21
-26.63
-32.75
-42.85
-56.12
-71.74
-89.01
-107.07
-124.35
-138.25
-145.45
-142.93
-129.54
-107.14
-80.48
-55.87
-39.10
-33.47
-38.91
-52.39
-69.14
-84.24
-93.85
-95.93
-90.39
-78.83
-63.82
-48.09
-33.70
-21.56
-11.48
-2.68
5.33
12.15
16.43
16.45
10.94
-0.33
-16.37
-35.43
-55.62
-75.50
-94.39
-112.24
-129.27
-145.49
-160.24
-172.12
-179.23
-179.80
-172.95
-159.20
-140.44
-119.37
-98.57
-79.84
-63.91
-50.76
-40.17
-32.07
-26.65
-23.96
-23.52
-24.16
-24.34
-22.65
-18.39
-11.73
-3.55
5.05
13.21
20.41
26.34
30.57
32.55
31.77
27.98
21.40
12.45
1.41
-11.80
-27.43
-45.28
-63.97
-80.76
-92.08
-94.79
-87.45
-71.02
-48.61
-24.27
-1.63
17.69
33.78
47.82
61.22
75.04
90.00
106.52
124.62
143.65
162.32
178.13
187.81
188.61
179.75
163.44
144.19
126.92
114.75
108.82
107.15
106.01
101.82
93.20
81.50
69.76
60.76
55.55
56.15
62.52
72.79
84.00
94.19
103.72
114.64
129.04
147.57
175.28
214.26
262.27
312.74
358.56
395.66
423.93
445.71
464.32
492.89
540.50
607.64
683.88
753.14
801.06
819.43
807.71
772.98
741.51
738.56
779.37
862.42
973.75
1095.55
1211.99
1311.73
1305.10
1141.02
825.50
424.52
19.74
-333.27
-613.83
-823.45
-972.71
-1074.40
-1124.24
-1127.55
-1093.89
-1040.02
-983.81
-936.83
-902.38
-877.93
-858.79
-830.24
-782.71
-713.78
-630.75
-544.98
-465.01
-393.84
-329.82
-269.29
-202.96
-126.60
-42.97
36.65
97.96
130.70
132.38
108.04
67.36
23.99
-11.49
-32.47
-38.40
-33.02
-22.13
-12.04
-8.45
-15.24
-31.93
-54.50
-74.53
-83.92
-77.97
-56.93
-25.49
9.96
43.94
73.54
98.49
122.54
149.87
183.10
221.79
262.72
300.97
330.74
346.51
332.34
280.82
197.59
101.27
13.45
-51.93
-92.06
-111.64
-117.17
-113.28
-100.29
-78.14
-48.90
-18.17
7.56
24.53
32.11
32.57
29.43
26.89
26.80
27.95
26.01
16.56
-2.54
-30.39
-63.89
-99.56
-134.52
-168.93
-201.43
-234.03
-269.58
-310.28
-356.92
-408.37
-461.18
-509.20
-544.80
-560.86
-554.15
-526.15
-482.99
-433.37
-385.31
-343.41
-307.68
-274.87
-240.76
-203.19
-162.19
-119.39
-76.74
-35.34
4.67
43.77
82.40
120.85
159.00
197.29
237.02
279.84
326.78
376.88
426.55
469.84
500.05
511.73
502.80
475.47
435.47
390.21
346.39
308.23
276.80
250.78
227.94
206.87
187.90
172.76
163.25
159.59
159.59
159.11
153.85
141.33
121.99
98.96
76.72
59.32
49.18
46.96
51.99
63.18
79.25
98.73
119.78
140.09
157.33
169.69
176.37
177.74
175.11
170.16
164.10
157.13
148.14
135.14
115.69
88.58
54.69
17.08
-20.12
-52.97
-78.73
-96.33
-106.10
-109.60
-108.34
-103.31
-94.88
-83.26
-68.94
-52.67
-35.40
-17.96
-1.87
11.96
23.63
34.01
43.88
53.32
61.68
67.89
70.92
67.38
55.39
35.78
11.76
-13.07
-36.58
-58.40
-79.26
-100.23
-127.66
-165.13
-211.16
-259.62
-303.91
-340.47
-369.44
-393.29
-415.21
-446.63
-494.30
-556.57
-624.18
-686.65
-737.84
-776.78
-805.62
-827.49
-857.01
-904.15
-969.64
-1044.57
-1116.67
-1175.68
-1214.41
-1228.08
-1142.10
-924.93
-603.32
-251.65
58.05
290.47
445.30
539.56
593.28
622.71
625.03
601.56
559.57
513.08
475.67
454.25
448.39
454.04
467.26
477.64
479.65
475.19
472.20
477.79
493.18
513.00
528.80
533.18
517.01
477.89
421.44
359.20
302.69
258.50
225.94
199.10
171.04
134.43
86.80
31.21
-25.77
-80.22
-126.35
-160.58
-183.75
-199.80
-213.00
-224.46
-230.13
-223.89
-200.87
-159.19
-101.47
-35.44
29.18
84.30
125.83
154.24
172.63
184.22
190.81
191.52
184.44
169.10
147.47
122.95
98.60
75.68
54.02
33.52
15.04
0.90
-5.74
-2.45
10.96
31.96
56.17
78.99
97.19
109.06
114.13
113.00
106.88
97.35
86.04
74.23
62.74
52.07
42.64
35.25
31.20
31.87
37.93
48.70
62.02
75.12
85.73
92.86
96.78
98.31
97.91
95.29
89.61
80.19
67.17
51.87
36.61
24.13
17.02
16.90
24.15
37.32
52.80
64.97
67.67
56.23
29.67
-8.41
-50.88
-89.35
-117.64
-134.07
-141.59
-145.50
-150.43
-158.27
-168.05
-177.62
-184.91
-189.44
-192.53
-196.23
-201.94
-209.53
-217.49
-223.78
-226.71
-224.38
-215.19
-198.30
-173.84
-142.90
-107.07
-68.40
-28.09
8.19
33.96
45.55
43.45
30.44
9.57
-16.23
-44.35
-72.41
-98.64
-121.25
-139.15
-152.48
-162.11
-169.21
-174.33
-177.45
-178.03
-175.40
-168.50
-156.40
-138.83
-116.13
-90.83
-64.82
-39.25
-14.27
10.57
36.51
64.89
96.59
131.54
168.49
205.27
238.44
263.89
277.93
278.95
268.26
249.82
228.96
210.73
198.91
194.89
198.21
207.48
221.43
239.08
259.14
280.05
300.18
318.93
335.69
350.01
361.38
369.59
374.65
376.04
373.05
364.87
351.38
331.10
302.24
264.04
218.39
169.73
122.45
80.03
44.44
17.74
-0.89
-13.72
-23.56
-32.28
-41.13
-52.65
-69.58
-93.38
-121.25
-150.66
-179.07
-204.32
-223.66
-225.72
-200.63
-146.38
-83.05
-19.83
38.86
94.39
144.64
187.22
220.15
241.01
248.31
242.43
227.55
206.45
180.52
149.76
114.65
76.33
35.52
-6.66
-48.36
-85.77
-117.33
-143.74
-168.08
-194.34
-226.44
-267.29
-316.38
-368.07
-411.00
-433.10
-425.10
-384.27
-315.41
-229.97
-143.25
-69.79
-19.58
4.34
4.27
-13.90
-43.29
-77.50
-111.89
-144.00
-173.33
-200.57
-226.57
-251.80
-275.62
-295.87
-309.02
-311.31
-300.42
-276.75
-243.44
-205.22
-166.30
-128.81
-92.39
-55.28
-15.94
25.68
67.87
107.77
142.26
168.44
183.99
187.29
177.80
156.51
126.04
90.07
52.10
14.33
-22.80
-59.87
-97.15
-133.31
-164.80
-186.33
-192.04
-177.36
-140.80
-85.47
-19.49
45.27
95.73
120.79
113.84
73.97
5.97
-80.81
-174.07
-260.49
-328.09
-368.68
-379.64
-364.67
-332.30
-292.74
-254.45
-221.63
-194.04
-168.81
-142.94
-115.11
-86.44
-59.79
-38.17
-23.45
-15.41
-11.95
-10.06
-6.90
-0.10
12.25
31.26
56.84
87.23
117.97
142.01
151.68
142.41
115.75
79.05
41.94
11.92
-7.86
-18.24
-21.19
-17.19
-3.57
23.94
67.47
123.20
180.89
227.29
250.78
245.49
211.80
156.59
92.73
37.40
5.43
1.09
16.95
40.56
64.11
85.08
105.34
127.06
149.82
169.40
180.11
178.96
166.60
148.58
129.54
113.66
101.05
90.96
82.59
76.25
75.00
81.21
97.62
122.14
151.51
181.70
210.87
239.67
269.25
301.27
323.27
336.75
338.00
326.98
300.76
262.55
217.03
165.01
104.65
28.64
-67.13
-182.90
-309.79
-433.92
-541.28
-622.47
-676.94
-682.64
-628.58
-520.82
-384.88
-247.57
-125.22
-29.91
47.01
109.40
157.48
185.82
190.81
169.45
125.17
66.56
4.92
-47.99
-85.13
-102.67
-103.67
-85.86
-52.97
-12.75
26.96
62.52
94.51
122.08
143.25
153.84
151.70
137.46
116.19
95.01
79.42
71.44
68.54
67.23
64.47
59.09
52.94
50.22
55.83
73.32
103.74
144.96
192.51
239.74
278.81
301.78
303.92
286.01
254.18
217.18
182.30
152.50
125.62
97.51
63.80
22.40
-25.11
-74.66
-122.10
-165.23
-203.88
-238.62
-269.10
-293.89
-311.14
-319.74
-320.65
-317.03
-313.09
-312.82
-318.52
-330.51
-347.76
-368.76
-392.56
-419.26
-449.94
-485.80
-526.95
-571.23
-613.75
-647.34
-663.89
-656.47
-621.47
-559.91
-477.22
-381.76
-282.40
-186.43
-98.57
-21.21
44.52
97.73
137.31
162.44
173.59
173.16
165.56
156.05
149.32
148.11
153.00
162.80
175.91
191.55
210.46
234.49
265.49
304.01
348.59
396.16
442.87
485.20
520.66
547.93
566.48
576.39
578.04
572.06
559.25
540.33
515.47
483.79
443.37
392.41
331.31
264.22
198.97
144.32
105.80
82.22
65.17
42.35
3.64
-53.53
-122.47
-190.44
-244.86
-279.11
-294.63
-298.64
-299.29
-301.37
-304.69
-306.16
-303.00
-295.01
-284.77
-275.61
-269.52
-265.89
-261.95
-254.23
-240.76
-221.90
-199.80
-176.70
-153.37
-128.66
-100.35
-66.84
-28.01
13.37
52.03
81.84
98.24
99.93
89.29
71.33
51.82
37.38
31.90
35.44
44.86
56.14
66.57
75.31
82.99
90.85
104.12
126.94
160.49
202.83
251.03
302.78
356.18
408.66
456.49
501.60
544.46
581.95
607.51
615.13
602.92
573.80
534.18
492.60
466.70
470.79
509.55
575.45
653.41
727.33
784.63
818.65
778.03
640.46
423.55
178.92
-41.88
-212.99
-333.12
-412.13
-460.81
-487.16
-488.77
-464.96
-421.13
-369.53
-322.09
-285.01
-258.60
-240.27
-226.83
-210.01
-185.27
-154.87
-127.34
-112.67
-115.73
-136.62
-173.14
-221.40
-273.00
-321.03
-362.49
-398.24
-430.52
-460.04
-487.17
-514.33
-543.33
-572.00
-595.53
-608.15
-605.21
-585.25
-550.20
-506.64
-465.39
-434.35
-415.04
-403.88
-396.28
-390.30
-388.30
-393.86
-390.87
-367.84
-319.89
-251.98
-174.76
-98.60
-29.81
24.57
70.12
111.39
148.04
178.95
203.69
224.17
239.60
251.25
261.12
272.12
285.42
299.13
311.49
321.40
328.62
333.12
335.42
335.90
335.77
335.41
333.98
330.93
325.95
318.95
309.77
298.76
286.29
273.31
260.15
246.47
232.07
217.07
202.00
187.49
173.96
160.62
145.58
125.81
98.38
62.08
17.93
-31.23
-82.12
-132.04
-179.21
-222.09
-258.75
-286.70
-304.05
-310.84
-309.50
-303.90
-297.18
-290.03
-280.55
-265.83
-244.21
-216.82
-187.18
-159.24
-135.23
-114.56
-94.39
-71.39
-43.19
-9.11
29.86
71.24
111.31
145.24
167.82
174.93
165.24
141.34
109.20
76.06
47.81
27.10
13.18
3.47
-4.37
-11.06
-15.66
-16.79
-13.86
-7.64
0.39
9.10
18.57
30.25
46.10
67.22
92.85
120.20
145.30
164.71
177.16
184.35
190.36
199.85
215.94
238.72
265.26
290.91
311.19
323.24
326.25
320.96
308.68
290.71
268.20
242.51
215.55
189.70
167.35
150.25
139.08
133.31
131.47
131.85
132.95
133.91
134.58
135.22
136.08
137.00
137.26
135.77
131.41
123.57
112.24
98.24
82.84
67.24
52.08
37.12
21.52
4.39
-14.72
-35.59
-57.34
-78.82
-99.27
-118.67
-138.00
-158.77
-182.54
-210.63
-244.00
-282.68
-325.45
-369.71
-411.56
-446.81
-471.74
-484.17
-484.22
-474.89
-460.31
-444.18
-428.71
-414.01
-399.70
-385.62
-372.78
-363.78
-363.20
-373.70
-394.24
-419.87
-442.77
-456.69
-458.16
-447.10
-426.28
-401.47
-376.42
-351.97
-327.36
-301.56
-277.37
-258.89
-248.81
-246.61
-250.43
-254.20
-250.31
-233.26
-201.21
-159.85
-117.73
-82.54
-40.97
10.35
66.23
116.04
141.98
147.52
138.83
121.22
101.66
84.69
71.15
62.54
61.00
68.47
86.58
112.56
142.04
170.81
195.36
211.55
217.95
215.82
208.23
199.80
192.89
188.74
187.55
187.74
184.90
174.81
155.34
127.78
97.56
71.03
54.17
50.48
59.60
77.07
97.29
115.82
130.78
142.86
153.18
162.39
170.00
174.62
174.59
169.31
159.76
148.15
136.97
127.76
120.74
115.07
109.49
103.13
95.95
88.64
82.05
76.59
71.98
67.46
62.21
55.82
48.67
41.47
34.74
28.45
21.99
14.53
5.57
-4.68
-15.04
-23.43
-27.70
-26.35
-19.09
-6.85
8.63
25.43
41.89
56.98
70.81
83.68
95.74
106.69
115.97
123.08
127.79
130.20
130.87
132.11
135.90
142.95
152.34
162.08
170.24
175.51
177.43
176.35
175.90
178.83
185.57
194.09
201.65
206.68
209.29
210.52
211.44
217.14
230.52
250.97
274.77
297.90
318.65
337.81
357.27
378.45
407.61
447.66
496.08
544.94
584.47
607.15
609.66
592.79
522.13
384.86
194.34
-13.17
-199.67
-343.78
-442.68
-503.78
-536.92
-550.49
-544.99
-521.26
-483.54
-440.19
-399.86
-367.83
-344.93
-328.99
-316.81
-301.81
-280.14
-252.36
-223.80
-200.57
-186.08
-179.85
-178.75
-178.94
-175.14
-164.71
-148.65
-132.12
-121.03
-119.29
-127.71
-145.42
-168.14
-192.29
-216.51
-235.13
-245.66
-248.94
-249.10
-250.87
-256.48
-263.48
-265.17
-253.38
-222.07
-171.93
-110.85
-51.99
-9.09
7.93
-4.12
-39.80
-88.96
-139.18
-179.72
-203.30
-206.99
-191.49
-160.33
-119.00
-74.03
-32.11
1.29
22.24
30.20
26.65
17.42
9.73
8.64
14.55
23.84
32.31
38.48
45.22
57.48
78.46
105.48
130.18
142.53
136.68
114.67
85.40
60.06
46.02
44.11
49.44
55.83
59.77
61.15
61.16
59.39
53.05
39.36
20.02
3.15
1.32
25.55
78.41
150.75
224.65
281.77
311.63
315.91
305.84
295.48
294.89
306.42
325.95
346.81
363.21
371.78
371.80
364.14
350.85
334.99
319.46
305.26
290.60
271.31
242.61
201.82
150.29
93.57
39.84
-3.25
-31.54
-43.61
-39.94
-22.28
5.99
39.29
70.39
92.43
100.17
88.95
57.73
9.82
-47.78
-106.67
-159.82
-202.58
-232.54
-250.55
-263.28
-277.29
-295.64
-316.42
-335.06
-347.91
-353.83
-353.55
-350.53
-353.94
-371.44
-405.89
-454.39
-510.48
-567.40
-618.10
-654.58
-637.49
-544.00
-380.53
-182.87
6.72
160.96
270.91
335.63
368.49
378.92
368.18
337.72
292.82
242.36
199.43
171.33
159.10
160.00
168.18
174.21
171.28
157.28
134.93
109.44
85.00
64.50
50.20
42.40
38.32
35.20
31.73
28.41
26.61
26.64
28.23
31.40
35.81
40.14
43.19
44.00
41.94
36.60
27.09
12.54
-7.72
-34.59
-68.90
-109.90
-154.16
-195.66
-227.11
-242.71
-240.02
-220.41
-187.75
-146.00
-97.55
-43.53
14.15
71.02
119.82
153.03
166.45
161.71
145.82
128.06
115.67
111.05
111.83
112.90
109.22
97.51
76.38
46.18
8.75
-32.06
-70.35
-98.92
-111.51
-105.16
-81.14
-44.12
0.28
47.48
94.34
137.88
174.07
197.89
205.01
194.00
167.47
131.29
91.91
53.38
15.83
-23.76
-69.23
-122.85
-184.63
-252.95
-325.40
-399.78
-474.41
-548.28
-620.37
-688.07
-746.64
-789.79
-810.99
-805.05
-770.45
-711.16
-636.52
-558.60
-486.94
-425.78
-373.78
-325.73
-275.04
-216.84
-149.44
-74.47
4.96
87.57
173.78
263.60
354.44
440.47
512.92
562.35
581.88
562.43
504.00
420.40
333.51
260.07
204.45
161.06
121.34
79.61
34.63
-10.59
-51.56
-85.54
-112.08
-131.34
-142.49
-143.70
-133.71
-114.00
-89.84
-70.18
-64.71
-79.02
-110.08
-145.82
-169.95
-169.23
-139.51
-86.27
-21.43
42.37
96.82
140.25
175.89
207.77
237.33
262.67
280.73
289.49
289.17
282.29
272.32
262.43
254.80
250.67
250.95
256.36
266.33
277.74
284.58
279.54
257.10
216.48
162.86
105.70
54.84
16.38
-9.61
-28.39
-47.51
-73.11
-107.60
-149.37
-194.11
-236.60
-271.77
-294.97
-302.12
-290.50
-259.91
-214.12
-161.03
-110.91
-73.44
-54.47
-54.18
-67.55
-86.79
-104.34
-115.27
-117.89
-112.97
-102.35
-87.71
-70.08
-49.89
-27.19
-1.85
26.21
56.92
89.52
122.15
151.80
174.84
188.21
190.59
183.14
169.02
152.26
136.18
122.45
111.16
101.70
93.84
88.24
86.29
89.17
97.09
108.82
121.93
133.43
140.42
140.83
133.74
119.69
100.77
80.46
63.22
53.71
55.92
72.24
102.67
144.57
192.85
241.01
282.61
312.80
329.37
333.04
326.89
315.26
302.79
293.69
291.22
297.16
311.16
330.37
349.82
363.67
367.09
357.93
337.47
309.71
279.79
252.10
229.10
211.00
196.43
183.37
170.00
155.24
138.55
119.94
99.75
78.36
55.89
32.13
6.48
-22.13
-55.11
-93.81
-137.86
-183.72
-224.38
-250.90
-255.57
-235.12
-192.31
-135.27
-74.96
-21.40
18.93
43.72
53.53
50.21
36.01
13.48
-14.28
-44.78
-75.35
-103.28
-126.07
-142.20
-151.45
-154.92
-154.30
-151.38
-149.88
-152.24
-158.43
-166.03
-172.18
-175.53
-176.81
-178.21
-182.25
-194.50
-218.30
-252.44
-291.13
-327.24
-355.53
-374.18
-384.26
-388.39
-394.33
-408.62
-433.75
-467.61
-505.85
-544.09
-578.09
-603.06
-585.75
-506.85
-372.60
-214.72
-69.10
43.51
120.27
168.94
199.78
220.35
229.04
222.30
200.00
167.89
135.24
110.35
98.04
98.43
109.38
122.44
128.57
121.70
101.14
71.26
40.15
16.12
6.49
14.52
35.63
61.44
83.91
98.61
105.03
105.48
102.49
98.26
95.10
94.24
96.71
102.78
110.22
115.66
115.05
105.75
88.28
65.79
41.75
18.80
-1.85
-19.60
-33.75
-43.49
-48.35
-48.73
-46.24
-43.34
-42.27
-44.55
-50.13
-57.71
-65.70
-72.81
-78.33
-82.06
-84.38
-84.87
-82.69
-76.64
-65.68
-49.51
-28.77
-4.75
20.98
47.05
72.54
96.77
119.19
138.76
153.85
162.70
164.02
157.40
143.54
124.12
101.30
77.87
56.62
40.07
29.62
24.71
22.33
17.77
6.57
-14.36
-42.46
-70.90
-91.68
-99.43
-93.64
-78.33
-59.51
-42.13
-28.54
-18.42
-10.77
-5.01
-1.21
0.55
0.87
1.04
2.57
6.36
12.33
19.12
24.70
27.32
26.05
21.59
15.07
8.13
2.17
-2.18
-5.65
-10.03
-17.17
-27.14
-37.11
-41.76
-35.05
-13.13
23.04
67.12
108.91
137.54
146.57
135.62
109.07
74.14
38.60
9.21
-9.69
-15.07
-6.38
13.68
39.27
62.84
78.09
82.28
76.52
64.93
52.71
44.01
40.92
43.67
50.91
61.06
72.33
82.71
90.11
92.55
88.20
75.70
56.57
32.72
6.77
-18.94
-43.16
-65.88
-87.74
-109.77
-132.78
-156.92
-182.24
-208.62
-235.79
-263.07
-288.53
-308.21
-318.13
-316.66
-305.20
-288.03
-269.89
-253.59
-239.42
-225.33
-207.21
-182.55
-151.82
-116.39
-77.10
-33.38
15.76
68.98
122.14
171.52
212.88
241.97
257.05
258.77
249.12
230.41
202.91
165.72
120.57
68.62
9.14
-57.67
-129.56
-201.31
-256.31
-276.24
-266.82
-233.86
-176.50
-101.13
-17.56
63.31
131.70
180.33
203.75
199.63
172.56
130.25
80.68
32.32
-8.04
-37.21
-56.06
-69.29
-82.02
-94.52
-104.18
-107.80
-102.30
-86.71
-62.87
-34.46
-5.77
20.36
44.40
67.38
88.36
104.83
113.59
112.52
102.13
85.22
65.65
47.16
31.25
16.86
2.16
-13.93
-30.93
-47.20
-61.14
-72.03
-80.03
-86.01
-91.09
-95.93
-100.62
-104.81
-107.96
-109.41
-108.58
-104.95
-98.26
-88.51
-76.03
-61.48
-45.72
-29.89
-15.30
-3.18
5.58
10.68
12.42
11.56
9.00
5.65
2.50
0.77
1.94
7.34
17.69
32.45
49.73
66.64
80.16
88.06
89.48
84.94
75.90
64.23
51.85
40.55
31.91
27.18
26.99
31.08
38.31
46.76
54.33
59.30
60.80
58.89
54.39
48.44
42.18
36.60
32.48
30.41
30.84
34.05
40.08
48.54
58.56
68.76
77.55
83.53
85.91
84.72
80.79
75.35
69.59
64.26
59.54
55.18
50.77
46.05
40.95
35.50
29.62
23.11
15.69
7.22
-2.23
-12.35
-22.82
-33.48
-44.53
-56.54
-70.24
-86.17
-104.34
-123.96
-143.45
-160.67
-173.41
-179.92
-179.30
-171.65
-158.00
-140.10
-120.20
-100.72
-83.92
-71.31
-62.98
-57.24
-50.69
-39.12
-19.06
10.66
48.12
88.71
126.51
156.47
175.94
185.39
187.89
188.13
191.16
201.25
220.90
249.60
283.40
315.19
336.58
340.81
325.24
292.60
249.76
205.01
164.28
129.89
100.40
72.71
45.03
19.14
0.75
-2.42
16.35
58.13
117.80
184.21
243.00
281.09
290.64
270.82
226.96
168.54
102.88
36.18
-27.75
-86.75
-139.30
-183.48
-216.49
-234.59
-231.92
-206.05
-154.99
-80.55
10.02
104.29
187.18
245.34
270.88
265.50
233.41
184.71
129.50
75.19
26.06
-15.81
-48.78
-82.91
-98.97
-95.74
-70.96
-26.42
30.40
87.13
130.26
149.45
140.57
108.18
57.02
-5.17
-72.29
-140.93
-208.06
-268.96
-317.48
-348.52
-359.54
-356.21
-345.86
-336.33
-334.60
-344.11
-362.97
-383.75
-395.20
-384.18
-342.39
-267.02
-164.46
-51.39
50.05
119.87
146.67
130.34
81.59
16.61
-46.91
-88.20
-94.50
-69.42
-29.52
8.08
34.65
50.49
59.91
66.66
70.84
68.62
56.09
33.16
4.92
-20.79
-37.37
-42.66
-37.24
-24.04
-8.01
5.97
14.30
15.56
10.32
1.01
-8.84
-14.41
-11.68
-0.28
16.51
33.57
46.86
55.17
59.44
61.54
61.91
59.17
51.21
37.41
19.31
0.59
-13.81
-18.78
-12.78
2.26
21.21
39.59
54.40
63.54
66.13
62.65
54.19
41.41
24.20
1.57
-27.90
-65.36
-109.28
-157.43
-205.56
-247.17
-274.17
-279.03
-258.33
-221.32
-174.33
-126.46
-86.89
-60.61
-46.48
-38.54
-29.18
-12.21
16.65
59.46
114.79
176.87
236.75
283.91
309.09
307.21
279.53
233.59
181.81
135.60
102.05
82.76
74.36
72.02
70.06
65.20
57.04
48.05
39.97
32.09
20.92
0.90
-33.53
-85.76
-155.20
-238.86
-329.51
-419.66
-503.62
-577.07
-635.30
-671.54
-677.59
-646.59
-577.17
-475.07
-352.80
-225.15
-104.13
3.97
99.05
185.39
268.31
351.18
433.99
512.79
581.44
634.06
665.67
674.13
661.24
631.76
590.98
543.41
491.35
436.40
380.53
324.90
270.78
220.19
175.16
136.40
103.11
72.45
41.86
9.38
-28.55
-75.46
-132.81
-199.20
-270.41
-339.41
-398.73
-440.57
-448.69
-415.13
-348.50
-270.44
-201.99
-156.78
-129.02
-110.91
-96.63
-83.52
-70.97
-58.20
-42.11
-19.08
11.02
43.46
68.84
78.50
66.90
32.44
-21.87
-89.02
-160.25
-227.48
-283.71
-324.18
-338.88
-323.11
-283.87
-238.26
-203.60
-188.48
-191.34
-205.09
-221.29
-234.73
-244.65
-252.61
-259.62
-264.31
-263.09
-253.69
-235.93
-211.96
-185.53
-161.41
-143.56
-133.62
-130.18
-129.64
-127.87
-121.24
-107.30
-84.98
-54.88
-18.28
23.56
69.87
120.06
172.96
226.71
279.03
327.56
370.08
404.92
430.79
446.49
450.49
441.22
418.07
382.31
337.06
286.14
232.73
178.23
122.48
65.00
6.75
-48.79
-95.91
-128.45
-142.08
-135.80
-112.12
-75.88
-32.43
13.79
59.84
103.90
144.38
179.28
205.92
221.63
224.86
216.24
198.98
177.98
158.34
144.19
137.78
139.60
149.20
165.25
185.32
205.25
219.16
220.83
206.19
174.89
130.27
77.41
20.18
-40.33
-105.46
-176.51
-251.65
-324.19
-383.56
-418.75
-422.41
-393.84
-339.15
-269.03
-195.19
-126.99
-69.64
-24.49
9.65
34.79
52.57
64.75
73.76
82.75
94.89
111.75
131.98
151.61
165.50
169.35
161.69
144.35
121.63
98.69
79.77
66.98
60.04
56.67
53.46
46.98
34.91
17.14
-3.85
-23.62
-37.64
-43.57
-42.82
-40.51
-43.31
-56.53
-81.45
-114.37
-147.56
-171.78
-179.09
-165.07
-129.67
-76.85
-13.31
52.87
113.59
161.84
192.70
204.29
198.01
178.21
151.03
122.82
98.55
80.92
70.40
65.99
66.28
69.84
74.94
79.12
78.98
71.05
52.99
24.71
-11.35
-50.97
-89.52
-123.48
-151.42
-174.07
-193.65
-212.49
-231.61
-250.02
-264.68
-271.64
-267.44
-250.51
-221.70
-183.94
-141.08
-96.67
-53.30
-12.54
24.48
56.65
82.86
102.41
115.52
123.53
128.62
133.05
138.49
145.58
154.06
163.28
172.65
181.94
191.27
200.82
210.52
219.69
226.86
229.86
226.21
213.80
191.67
160.33
121.39
76.65
27.17
-26.84
-84.93
-144.83
-201.56
-247.89
-276.38
-281.86
-263.04
-222.36
-164.25
-93.36
-13.78
70.20
152.83
226.43
282.84
316.17
325.13
313.64
288.95
258.59
227.52
197.30
167.12
135.91
103.97
73.05
45.33
22.00
2.61
-14.48
-30.92
-47.52
-64.01
-79.59
-93.93
-107.90
-123.65
-144.11
-171.66
-206.83
-247.54
-289.18
-325.59
-350.74
-360.12
-351.70
-326.01
-285.49
-233.87
-175.92
-116.93
-61.81
-14.24
24.16
53.60
75.27
90.19
98.58
100.10
94.62
83.00
67.14
49.59
32.76
18.77
9.64
7.73
15.47
34.29
63.08
97.40
130.40
154.92
166.05
162.75
147.78
126.04
102.31
79.16
56.36
31.92
3.98
-27.43
-59.52
-87.42
-105.92
-111.53
-103.76
-85.33
-61.14
-36.44
-15.25
0.59
11.29
18.27
22.95
25.96
26.92
24.88
19.23
10.46
0.40
-8.17
-12.43
-10.29
-1.00
14.91
36.13
60.66
85.47
106.28
118.14
117.29
103.65
82.42
62.83
54.23
60.97
78.91
95.99
97.10
70.76
14.51
-63.60
-148.26
-222.60
-273.47
-294.15
-283.89
-245.97
-186.01
-111.26
-30.61
45.71
107.51
146.92
160.58
150.65
123.91
89.30
55.16
27.25
8.23
-2.04
-5.46
-4.96
-3.57
-3.26
-5.06
-8.94
-13.91
-18.43
-20.79
-19.54
-13.68
-2.80
13.83
35.74
60.97
86.45
109.21
127.71
142.33
155.31
169.38
187.85
211.32
237.36
261.61
280.04
290.67
293.51
290.05
281.75
271.31
259.92
247.17
231.42
210.83
184.11
150.52
110.65
55.21
-15.08
-90.27
-155.60
-200.07
-221.51
-223.99
-216.26
-205.21
-195.72
-189.56
-188.48
-194.49
-208.91
-231.37
-259.39
-289.50
-318.21
-343.83
-365.73
-386.01
-408.46
-436.21
-468.79
-500.81
-523.46
-527.67
-508.33
-465.70
-406.33
-340.54
-278.32
-225.80
-183.89
-149.87
-119.28
-88.26
-53.80
-14.18
31.00
80.44
130.51
175.29
208.12
224.54
224.87
215.57
207.35
210.83
232.08
269.74
315.28
355.96
379.33
376.69
345.42
288.67
213.65
130.00
48.26
-20.80
-67.50
-84.87
-71.20
-31.77
21.29
71.95
105.83
115.65
103.54
79.31
55.04
39.22
33.77
35.06
37.95
39.73
41.38
45.48
53.70
65.15
76.50
83.72
84.43
78.92
69.86
60.49
52.61
46.58
41.52
35.75
27.25
14.88
-0.54
-15.88
-26.63
-30.18
-26.50
-18.30
-10.48
-8.43
-16.14
-34.99
-64.11
-101.01
-143.81
-189.83
-232.10
-259.31
-261.23
-235.58
-190.04
-141.64
-99.61
-69.23
-52.34
-47.77
-52.64
-62.66
-72.08
-74.40
-64.20
-39.06
-2.74
36.48
69.07
87.75
89.79
77.39
56.21
32.51
11.08
-7.16
-23.59
-39.75
-56.04
-71.56
-84.67
-93.79
-98.22
-97.89
-93.59
-85.69
-73.51
-55.83
-31.95
-2.80
28.64
57.85
80.29
92.54
93.91
86.77
75.27
63.70
55.02
50.35
49.29
51.10
54.93
59.52
63.05
63.25
58.62
49.57
38.53
28.49
21.08
15.21
7.81
-4.14
-21.36
-41.20
-58.73
-69.05
-69.64
-61.15
-46.59
-29.74
-13.67
-0.45
8.88
14.29
16.76
18.29
20.95
25.94
32.85
39.85
44.55
45.40
42.67
38.14
34.11
31.86
30.85
28.86
23.41
13.36
-0.21
-14.45
-26.08
-32.94
-34.88
-33.53
-31.20
-29.73
-29.70
-30.55
-31.19
-30.81
-29.10
-26.27
-22.66
-18.25
-12.52
-4.69
5.76
18.63
32.79
46.44
57.66
65.36
69.71
71.93
73.30
73.83
71.77
63.99
47.65
21.87
-11.21
-46.80
-79.16
-103.48
-117.28
-120.39
-114.19
-100.49
-81.11
-57.98
-33.33
-9.79
10.23
25.00
33.84
36.98
35.33
30.15
22.86
15.01
8.23
3.84
2.54
4.00
6.98
9.79
10.95
9.68
6.09
0.90
-5.01
-10.87
-16.09
-20.22
-22.80
-23.26
-21.10
-16.16
-8.74
0.15
9.24
17.79
26.08
35.47
47.65
63.24
80.84
97.34
109.40
115.25
115.52
112.09
106.09
96.35
79.75
53.43
17.43
-24.67
-67.18
-105.05
-135.94
-159.97
-177.84
-188.54
-188.88
-175.17
-146.45
-106.45
-62.82
-24.14
4.12
21.59
32.28
41.50
52.54
64.65
73.79
75.47
67.49
51.64
32.87
16.84
7.21
4.33
5.79
8.28
9.49
8.86
7.50
7.11
8.95
13.22
19.01
24.78
29.08
31.22
31.40
30.52
29.63
29.18
28.86
27.98
26.03
23.09
19.81
16.60
13.09
8.27
1.47
-6.38
-12.39
-12.99
-6.31
5.95
18.38
24.06
17.87
-0.84
-27.87
-56.08
-78.54
-90.99
-92.53
-84.64
-69.67
-49.92
-27.70
-5.59
13.49
26.89
33.06
32.05
25.21
14.52
1.95
-11.05
-23.36
-33.86
-41.41
-44.87
-43.58
-37.76
-28.41
-17.00
-4.98
6.56
16.91
25.61
32.32
36.79
39.14
40.09
41.03
43.64
49.35
58.66
70.83
84.08
96.21
105.31
110.38
111.60
110.14
107.67
105.58
104.34
103.22
100.58
94.65
84.55
70.87
55.57
41.06
29.00
19.45
10.87
0.76
-13.37
-33.29
-59.67
-91.91
-127.82
-163.41
-193.15
-211.00
-212.23
-195.17
-162.17
-118.99
-73.06
-31.23
1.76
23.75
34.75
36.25
30.75
21.39
11.59
4.31
1.40
3.17
8.64
16.18
24.19
31.55
37.59
41.98
44.56
45.44
45.22
44.83
45.16
46.42
47.66
46.99
42.24
31.95
16.27
-2.94
-22.60
-39.43
-50.88
-55.78
-54.21
-47.06
-35.49
-20.71
-4.07
12.66
27.48
38.82
46.41
51.66
56.72
62.64
67.63
66.62
52.76
20.63
-30.49
-94.85
-161.23
-216.11
-247.90
-250.27
-223.49
-173.71
-110.70
-45.13
13.63
58.81
86.65
96.28
89.20
68.79
39.66
7.09
-23.79
-48.86
-65.49
-72.75
-71.02
-61.50
-45.73
-25.32
-1.92
22.64
46.38
67.24
83.38
93.40
96.58
93.03
83.85
71.03
57.18
44.97
36.63
33.41
35.32
41.25
49.62
59.13
69.29
80.42
92.85
105.86
117.14
123.51
122.54
114.30
101.45
87.75
75.59
64.00
48.76
24.54
-12.16
-60.91
-117.41
-175.18
-227.33
-267.43
-289.44
-287.83
-258.67
-201.94
-123.53
-35.37
47.03
109.07
141.30
141.60
114.81
70.23
18.44
-31.25
-72.02
-99.68
-112.29
-109.75
-93.64
-67.12
-34.38
-0.03
31.75
58.08
77.82
91.45
100.12
104.81
105.46
101.24
91.18
74.87
53.22
28.72
5.19
-13.17
-22.44
-20.68
-7.82
14.28
42.15
71.76
99.84
124.48
145.05
161.95
174.53
181.39
180.33
168.96
145.73
111.08
67.48
18.44
-32.18
-82.36
-128.93
-165.42
-184.29
-181.02
-156.72
-117.07
-73.69
-31.08
7.51
39.14
61.13
70.92
66.05
44.80
7.05
-45.40
-107.71
-173.34
-233.59
-279.23
-303.14
-302.50
-279.33
-239.31
-190.13
-139.02
-92.67
-56.04
-32.32
-22.94
-27.17
-41.33
-58.63
-70.66
-69.18
-49.05
-9.52
45.75
109.40
172.59
227.57
269.83
298.35
314.56
319.74
313.23
292.46
254.81
200.58
135.13
68.72
13.42
-20.93
-30.38
-18.19
6.90
34.07
53.94
60.87
53.23
32.10
-0.39
-42.27
-91.85
-146.86
-203.45
-256.08
-298.38
-325.13
-334.25
-327.96
-311.97
-293.17
-276.21
-261.22
-243.74
-216.73
-173.73
-111.57
-31.09
63.77
167.22
272.33
370.70
452.19
506.42
525.74
508.42
460.16
392.10
316.46
242.02
171.90
104.44
36.55
-32.89
-101.52
-163.84
-213.07
-243.62
-252.95
-242.67
-218.85
-190.79
-168.58
-160.13
-168.59
-191.47
-221.81
-250.62
-269.55
-272.78
-257.36
-222.81
-170.31
-102.19
-22.30
63.39
146.52
216.97
264.91
283.54
271.23
232.31
175.67
111.85
49.92
-4.44
-49.22
-84.67
-111.58
-130.23
-140.45
-142.28
-136.86
-126.43
-113.32
-98.63
-81.20
-58.08
-26.74
12.30
53.95
89.50
110.02
110.57
92.88
65.30
39.78
26.71
31.13
51.70
82.62
116.64
147.50
171.06
185.08
188.93
182.27
164.99
137.65
102.10
61.36
18.65
-23.58
-63.86
-100.76
-133.34
-160.33
-179.56
-187.57
-181.01
-159.15
-125.41
-87.28
-53.10
-30.60
-24.30
-34.38
-56.58
-82.01
-100.74
-105.67
-101.48
-93.24
-84.54
-75.04
-64.62
-52.72
-38.85
-23.68
-9.22
1.70
7.78
8.91
6.40
2.26
-1.21
-2.88
-3.66
-5.83
-11.42
-19.95
-29.07
-35.49
-36.50
-30.48
-17.47
0.85
21.82
42.52
60.89
75.32
84.65
88.08
85.48
77.22
64.08
47.31
28.74
11.08
-2.69
-10.01
-9.53
-1.23
13.66
33.31
55.92
80.04
104.54
128.16
149.36
166.34
177.63
182.45
180.86
173.46
160.89
143.26
120.11
90.83
55.67
16.44
-23.41
-59.23
-86.36
-101.18
-101.88
-88.30
-61.46
-23.05
24.66
78.90
136.66
195.04
251.28
302.37
344.16
371.06
377.03
357.64
312.27
245.44
166.08
85.72
16.00
-33.27
-55.53
-48.18
-13.27
42.11
106.39
165.56
207.25
224.35
216.54
189.17
149.99
106.11
62.07
19.81
-20.74
-59.63
-95.85
-127.50
-153.11
-173.10
-189.80
-206.74
-227.12
-253.99
-288.53
-329.91
-376.22
-425.71
-476.84
-527.05
-571.32
-601.83
-612.20
-598.34
-559.57
-498.44
-420.13
-331.15
-238.41
-149.03
-70.44
-12.97
14.54
8.53
-27.02
-82.01
-143.58
-199.53
-240.69
-247.14
-209.44
-134.68
-44.99
35.37
92.11
123.20
134.19
131.10
119.90
101.68
77.45
51.08
29.61
19.90
24.93
43.16
68.32
93.51
112.28
123.09
130.09
140.86
161.94
194.66
233.54
267.36
283.28
270.20
224.88
155.08
78.19
14.71
-20.02
-22.03
0.22
30.86
53.23
56.85
39.64
5.65
-39.31
-90.49
-144.08
-195.59
-238.37
-264.91
-269.31
-249.67
-208.49
-150.99
-82.61
-7.34
72.16
153.42
232.77
305.01
364.28
405.58
425.92
424.82
404.16
367.61
320.12
267.09
213.49
163.17
118.65
81.01
50.08
24.56
2.29
-19.05
-40.79
-62.91
-83.41
-98.79
-105.47
-101.72
-88.98
-71.66
-55.51
-44.72
-41.24
-43.70
-47.69
-47.17
-36.58
-12.57
25.36
74.88
131.78
188.61
236.67
269.27
284.85
288.19
288.81
296.97
318.59
352.54
387.65
407.48
397.92
353.56
279.27
187.29
91.89
-2.31
-84.43
-143.78
-174.39
-176.91
-156.19
-118.58
-71.01
-20.99
24.40
62.18
90.25
108.17
117.42
120.30
118.14
109.95
92.29
61.07
15.30
-44.54
-115.88
-194.30
-274.34
-350.83
-420.14
-480.94
-533.66
-578.80
-616.86
-646.21
-661.95
-656.60
-622.84
-557.05
-462.01
-346.54
-222.79
-103.61
0.66
83.85
143.99
182.30
202.01
206.75
201.38
191.98
184.80
184.68
193.66
210.65
232.06
253.10
267.48
271.24
264.10
249.07
230.13
209.51
186.64
159.15
124.99
80.89
27.14
-31.80
-88.65
-136.51
-171.78
-194.72
-208.21
-215.82
-225.36
-243.07
-271.76
-310.14
-354.37
-400.21
-444.12
-483.30
-491.09
-450.83
-362.27
-244.02
-121.21
-11.74
77.51
147.10
197.53
236.13
262.88
276.00
274.89
261.95
241.34
216.61
189.36
159.59
126.60
85.44
35.78
-18.31
-70.67
-116.61
-153.83
-180.45
-193.12
-187.41
-163.25
-124.48
-78.77
-35.70
-3.57
13.66
17.20
12.14
4.74
-1.90
-7.78
-13.31
-18.65
-23.00
-24.70
-22.47
-16.21
-7.17
2.11
9.31
13.99
17.08
20.31
25.23
32.12
39.77
46.13
49.65
47.11
38.98
27.73
16.55
8.04
3.50
2.90
5.58
10.78
17.93
27.11
37.82
49.10
59.85
69.30
77.25
84.11
90.58
97.42
105.72
116.18
129.11
144.22
160.39
175.39
186.07
188.89
181.09
162.16
134.34
102.34
72.11
49.09
36.56
34.95
42.05
53.95
66.37
75.51
78.76
75.26
65.91
53.21
40.51
30.75
25.38
23.76
23.38
20.90
13.67
0.73
-16.97
-37.01
-56.76
-74.32
-88.95
-100.79
-110.18
-116.87
-119.81
-117.55
-108.90
-93.69
-72.79
-47.67
-19.70
10.14
41.18
72.66
103.58
133.27
162.08
191.75
224.47
261.00
298.95
332.43
353.82
357.10
340.87
309.40
270.96
234.33
205.49
186.08
174.20
166.57
160.46
154.46
147.84
139.58
127.95
111.03
87.77
58.79
26.59
-5.28
-33.38
-55.67
-72.07
-84.29
-94.99
-106.82
-121.70
-140.36
-162.16
-185.28
-207.06
-224.85
-236.50
-241.03
-238.85
-231.58
-221.34
-210.02
-198.97
-189.27
-182.77
-181.60
-187.77
-202.43
-225.08
-253.22
-282.73
-308.87
-327.75
-338.33
-341.15
-337.78
-330.09
-319.78
-308.05
-295.62
-282.84
-269.90
-258.47
-249.09
-240.98
-232.70
-223.35
-213.30
-203.97
-196.78
-191.91
-189.73
-187.91
-182.31
-169.02
-146.26
-114.96
-77.99
-38.77
12.11
74.66
141.48
201.08
244.23
267.68
274.01
268.98
258.83
248.10
236.68
223.19
206.73
187.80
168.17
150.65
138.42
134.43
140.68
156.18
179.08
206.97
235.36
255.82
259.09
239.76
200.53
151.86
105.90
71.75
52.22
44.21
42.19
41.89
42.10
43.88
48.40
54.79
60.79
64.32
64.49
62.35
60.17
60.68
65.35
73.73
83.45
91.29
95.23
93.91
87.72
78.41
68.33
59.41
52.63
48.04
44.86
42.55
41.05
40.99
43.36
49.15
58.81
72.08
88.13
105.44
122.64
138.76
153.33
166.18
177.28
186.39
192.66
197.37
200.35
201.21
199.57
195.37
188.77
180.18
170.13
159.14
147.57
135.04
121.03
104.91
86.29
65.18
42.20
18.40
-4.97
-26.86
-47.09
-65.98
-84.20
-102.41
-120.87
-139.15
-156.44
-171.73
-184.43
-194.81
-203.70
-212.34
-222.15
-234.49
-250.22
-269.34
-290.29
-309.76
-323.40
-326.96
-317.98
-296.93
-267.18
-233.77
-201.63
-174.02
-152.14
-135.76
-124.16
-116.92
-114.01
-115.32
-119.99
-126.26
-131.52
-133.01
-128.47
-116.59
-97.61
-73.16
-45.97
-19.16
4.56
23.52
37.26
46.26
51.42
53.45
52.63
48.90
42.31
33.35
23.15
13.25
5.18
-0.02
-2.21
-2.02
-0.72
0.35
0.13
-1.90
-5.74
-11.03
-17.23
-23.90
-30.66
-37.28
-43.51
-49.14
-54.12
-58.68
-63.38
-68.81
-75.07
-81.26
-85.27
-84.38
-76.19
-59.76
-36.29
-8.89
18.40
42.06
60.13
72.67
81.18
87.61
93.33
98.67
103.09
105.92
107.06
107.25
107.77
109.67
113.17
117.44
120.96
122.22
120.17
114.18
103.85
88.69
68.50
44.03
17.72
-6.41
-23.80
-31.17
-28.01
-17.14
-3.72
6.84
10.97
8.13
0.53
-8.20
-14.57
-16.26
-12.34
-2.81
11.87
30.83
52.44
73.87
91.14
99.90
96.82
81.01
54.67
22.72
-8.84
-34.89
-52.69
-62.31
-65.88
-66.03
-64.51
-61.53
-56.19
-47.71
-36.66
-25.43
-17.52
-16.00
-22.01
-33.88
-47.82
-59.36
-65.27
-64.60
-58.67
-49.88
-40.43
-31.58
-23.75
-17.40
-13.54
-13.61
-18.56
-27.86
-38.94
-47.82
-50.44
-44.31
-29.67
-9.35
12.26
31.03
44.55
52.64
56.81
58.98
60.23
60.45
58.81
54.82
49.06
43.20
39.10
37.83
39.00
41.13
42.49
42.08
40.03
37.17
34.26
31.36
27.72
22.15
13.65
1.95
-12.30
-27.72
-42.59
-55.17
-64.04
-68.29
-67.83
-63.42
-56.55
-49.10
-42.62
-37.82
-34.33
-31.11
-26.99
-21.57
-15.33
-9.45
-5.05
-2.50
-1.11
0.50
3.68
9.02
15.83
22.50
27.12
28.38
26.16
21.62
16.60
12.80
11.04
10.98
11.45
11.02
8.31
1.99
-9.31
-26.66
-49.80
-76.06
-100.27
-115.99
-118.01
-104.82
-79.50
-48.49
-18.92
4.20
19.28
27.61
31.65
33.32
33.48
32.34
30.21
27.79
25.92
24.95
24.59
24.30
23.91
24.00
25.65
29.67
35.72
42.06
46.15
45.90
40.81
32.43
23.65
17.39
15.18
16.59
19.53
21.24
19.19
11.52
-2.68
-22.96
-46.83
-69.14
-82.73
-80.70
-59.77
-22.82
21.26
61.29
89.34
105.09
116.18
133.94
166.85
215.45
271.77
323.30
359.24
375.08
373.27
360.16
341.47
319.45
292.80
259.21
218.27
172.76
127.70
87.89
55.55
29.32
5.18
-21.50
-53.80
-91.98
-133.61
-174.63
-210.62
-237.98
-254.71
-260.55
-256.98
-246.58
-232.22
-216.22
-199.74
-182.84
-165.16
-146.77
-128.79
-113.32
-102.64
-98.21
-99.95
-106.39
-115.30
-124.74
-133.69
-142.27
-151.44
-162.38
-175.98
-192.36
-210.77
-229.89
-248.35
-265.17
-279.88
-292.49
-303.12
-311.85
-318.71
-324.17
-329.67
-337.52
-349.76
-366.69
-385.74
-401.84
-409.29
-404.17
-386.10
-358.35
-326.17
-294.41
-265.76
-240.54
-217.65
-196.03
-175.43
-156.26
-138.85
-122.76
-106.71
-89.09
-68.76
-45.60
-20.70
4.05
26.71
45.77
60.68
71.72
79.65
85.37
89.58
92.74
95.17
97.38
100.04
103.80
109.13
115.79
122.58
127.33
127.22
119.46
102.15
74.81
38.62
-3.69
-48.49
-92.07
-131.15
-163.40
-187.43
-202.58
-208.63
-205.36
-192.65
-170.58
-139.60
-100.53
-54.74
-4.12
48.80
100.70
147.90
187.13
216.41
236.15
248.68
257.16
264.13
270.59
275.36
275.69
268.81
253.36
230.78
204.69
179.59
159.31
146.04
140.00
139.65
142.61
146.62
151.32
157.46
166.45
180.12
200.65
230.10
269.50
317.33
368.67
418.12
457.99
479.37
474.90
442.04
384.86
313.03
238.88
173.90
131.43
118.24
132.13
163.23
199.00
229.28
248.56
256.00
254.28
256.23
271.76
302.94
343.91
386.36
424.90
458.40
488.37
516.78
555.56
611.65
682.85
759.07
829.34
887.68
933.47
968.59
924.49
766.46
507.45
203.51
-85.21
-324.17
-505.53
-636.21
-728.08
-792.86
-829.11
-836.28
-819.31
-789.55
-759.00
-735.19
-720.43
-713.94
-713.82
-710.38
-695.55
-666.88
-628.66
-587.13
-546.26
-507.08
-469.22
-432.45
-391.78
-344.52
-290.95
-235.63
-183.84
-138.36
-99.07
-64.11
-31.00
5.92
44.65
84.96
125.47
165.31
205.08
245.99
287.96
328.23
362.97
387.28
398.87
396.58
382.05
359.87
336.05
315.70
301.12
292.00
285.76
280.51
272.42
257.06
230.93
192.92
144.90
91.72
40.89
-8.54
-51.71
-85.62
-112.07
-136.20
-161.82
-185.92
-206.23
-220.52
-228.82
-231.93
-235.42
-245.00
-263.10
-285.15
-302.78
-306.00
-287.49
-247.57
-193.78
-138.72
-93.29
-62.07
-42.57
-28.71
-14.06
5.30
29.49
56.26
81.48
101.20
112.94
119.14
120.16
117.25
112.02
105.56
98.24
89.29
77.52
62.13
43.48
22.64
2.00
-15.95
-29.62
-38.92
-45.24
-50.93
-58.52
-69.52
-85.65
-107.84
-135.63
-166.61
-196.14
-218.51
-229.09
-226.76
-214.73
-199.63
-187.87
-182.85
-183.62
-185.93
-184.95
-178.10
-166.39
-153.66
-144.67
-142.61
-147.97
-158.74
-171.70
-183.61
-192.27
-197.02
-198.39
-197.53
-195.30
-191.89
-186.96
-180.07
-171.14
-160.59
-149.16
-137.36
-125.11
-111.71
-96.23
-78.06
-57.45
-35.53
-13.97
5.63
22.41
36.47
48.62
59.86
70.86
81.55
91.23
98.72
102.78
102.54
97.76
89.15
78.38
67.96
60.67
58.86
63.80
75.26
91.55
110.10
128.16
143.48
154.88
162.19
166.05
167.41
167.10
165.69
163.54
161.05
158.87
157.87
158.85
162.17
167.52
173.92
180.27
185.82
190.49
194.90
199.93
206.21
213.69
221.68
229.09
235.07
239.49
242.98
246.73
251.87
258.97
267.69
277.10
286.05
293.75
299.92
304.70
308.41
311.26
313.38
314.85
315.59
314.99
311.60
303.11
286.90
261.18
225.89
183.07
136.27
89.32
45.19
5.34
-30.04
-61.33
-88.79
-112.47
-132.43
-149.34
-164.80
-181.15
-200.61
-224.15
-250.63
-276.49
-296.52
-305.35
-299.08
-276.51
-239.45
-191.99
-139.25
-86.02
-35.76
9.66
49.79
84.93
115.64
142.26
164.81
183.10
196.97
206.32
210.95
210.50
204.49
192.82
176.31
156.87
137.05
119.01
103.40
88.85
72.38
50.83
22.24
-13.15
-52.96
-93.64
-131.68
-164.73
-192.12
-214.84
-234.93
-254.79
-276.41
-300.72
-327.37
-354.98
-381.56
-405.33
-425.10
-440.59
-452.23
-460.79
-466.86
-470.53
-471.18
-467.49
-457.69
-440.01
-413.32
-377.71
-334.82
-287.52
-239.20
-192.76
-149.93
-111.04
-75.40
-42.12
-10.77
18.09
43.13
62.90
76.76
85.56
91.57
97.55
105.48
115.47
125.49
132.26
132.91
126.60
115.07
102.06
91.72
87.12
89.24
96.97
107.72
118.54
127.25
133.08
136.79
140.32
146.27
156.97
173.58
195.38
219.85
243.73
264.28
279.87
289.82
294.33
293.95
289.27
280.80
268.82
253.76
236.06
215.23
189.43
156.83
116.46
68.93
16.17
-39.95
-97.94
-156.58
-214.69
-270.34
-318.98
-356.46
-375.10
-368.38
-336.77
-287.98
-230.63
-169.80
-107.69
-43.72
23.31
87.57
143.59
186.89
215.91
232.52
240.38
242.99
243.87
244.61
244.66
242.68
237.11
227.58
215.34
202.07
178.25
140.39
91.90
41.41
-1.94
-33.94
-56.42
-75.01
-96.49
-124.86
-162.27
-206.96
-254.04
-296.72
-328.30
-343.80
-340.86
-320.59
-283.37
-233.28
-176.72
-121.81
-77.23
-50.72
-46.98
-65.61
-101.23
-144.93
-186.95
-219.34
-237.68
-240.54
-227.91
-199.65
-155.56
-97.11
-28.79
41.85
106.30
157.56
192.36
211.46
218.11
216.18
208.46
196.23
179.92
159.84
136.54
110.93
83.99
56.73
30.22
5.84
-14.67
-29.46
-37.11
-37.29
-31.36
-22.42
-14.62
-12.04
-17.50
-31.56
-52.28
-75.84
-97.62
-113.74
-122.32
-123.74
-120.20
-114.56
-109.17
-105.07
-101.94
-98.61
-93.84
-87.10
-78.72
-69.69
-61.13
-53.85
-48.07
-43.59
-40.11
-37.55
-36.16
-36.21
-37.63
-39.57
-40.48
-38.37
-31.31
-17.92
2.42
29.56
62.76
100.61
140.75
179.79
213.73
238.81
252.27
253.05
241.71
220.33
191.74
158.91
124.30
89.52
55.34
21.64
-12.16
-46.62
-81.12
-113.88
-142.25
-163.44
-175.17
-175.51
-163.72
-140.18
-106.80
-65.80
-20.02
27.13
72.06
111.64
144.90
171.74
192.71
207.86
218.73
227.31
235.29
243.52
251.88
261.48
272.64
285.00
296.50
307.02
317.21
327.47
337.39
345.53
352.30
356.96
357.27
348.32
327.84
296.16
255.54
209.99
150.65
78.27
1.20
-58.22
-96.73
-118.07
-129.41
-136.18
-142.70
-153.37
-169.34
-191.01
-218.08
-250.93
-286.64
-320.23
-347.97
-359.48
-346.92
-306.74
-243.98
-169.56
-95.86
-35.31
13.27
53.00
86.51
114.40
136.98
155.59
170.19
179.63
183.77
183.66
179.41
171.33
159.32
143.76
124.95
102.86
77.07
47.71
16.22
-16.01
-46.72
-73.35
-93.69
-106.20
-110.54
-107.64
-99.85
-90.51
-84.32
-85.25
-95.14
-113.72
-136.70
-156.62
-165.54
-158.99
-138.32
-110.86
-86.64
-74.32
-81.21
-108.52
-150.96
-199.27
-244.35
-280.09
-303.93
-315.56
-315.51
-309.58
-303.56
-300.85
-302.35
-308.13
-318.66
-334.13
-353.42
-373.75
-397.87
-428.88
-467.31
-510.95
-557.08
-604.51
-653.55
-705.24
-718.16
-668.18
-557.82
-412.47
-260.91
-120.01
5.06
113.84
205.93
274.77
319.91
341.45
343.50
334.17
322.05
312.80
309.11
312.30
321.95
332.81
338.39
335.09
323.23
306.07
287.68
272.49
264.74
267.37
278.73
294.22
309.52
321.69
329.25
330.83
325.53
313.73
297.83
280.88
266.03
255.77
249.83
244.56
233.36
210.61
175.67
134.80
98.99
79.40
82.68
102.46
126.67
140.03
132.06
102.61
60.85
18.26
-18.05
-47.52
-74.46
-102.98
-134.42
-165.69
-191.82
-207.94
-211.48
-202.87
-184.71
-160.23
-131.68
-101.00
-69.50
-41.96
-23.61
-17.41
-22.38
-33.98
-46.43
-54.96
-57.62
-55.15
-49.96
-43.86
-37.32
-29.22
-17.58
-1.13
19.19
39.85
55.47
62.34
59.89
51.76
43.92
41.11
44.12
48.93
49.41
40.73
21.87
-4.00
-31.76
-57.50
-79.86
-98.91
-113.96
-121.56
-116.22
-93.05
-50.77
6.45
69.36
126.33
166.94
182.26
170.10
135.51
88.57
40.28
-1.15
-32.48
-55.06
-72.98
-90.70
-110.96
-135.02
-163.72
-197.50
-235.69
-275.46
-311.38
-336.98
-347.25
-340.50
-319.44
-290.02
-258.56
-229.40
-204.28
-183.60
-168.33
-160.77
-163.06
-175.11
-192.99
-209.18
-215.24
-205.64
-180.03
-143.22
-102.65
-64.30
-30.39
0.99
34.09
72.96
119.66
173.67
231.85
288.58
336.19
365.97
370.70
347.97
302.29
244.74
189.40
147.94
125.59
120.33
125.62
134.47
142.85
150.19
157.55
165.66
173.91
181.24
187.41
193.22
199.31
204.71
205.99
198.24
177.11
140.75
90.88
32.32
-28.39
-84.55
-130.48
-162.45
-179.02
-181.30
-172.58
-157.36
-139.91
-122.96
-107.09
-91.20
-73.76
-53.80
-31.14
-6.39
19.47
45.32
69.66
90.59
105.79
113.00
110.60
98.39
77.86
52.08
25.18
1.42
-15.49
-23.35
-21.85
-12.85
0.05
12.45
20.36
21.31
14.84
2.30
-13.98
-31.71
-49.30
-65.99
-81.43
-95.03
-105.73
-112.23
-113.67
-110.26
-103.55
-95.90
-89.69
-86.39
-86.07
-87.56
-89.14
-89.28
-87.11
-82.51
-75.66
-66.86
-56.29
-44.14
-30.80
-17.06
-4.05
7.10
15.60
21.43
25.40
28.87
33.29
39.61
47.88
57.27
66.37
73.79
78.81
81.61
83.05
84.25
85.99
88.48
91.49
94.70
98.01
101.62
105.63
109.79
113.26
114.93
113.77
109.42
102.27
93.31
83.82
75.07
68.36
64.82
65.12
68.84
74.13
77.80
76.24
66.85
49.17
25.26
-0.99
-25.23
-44.03
-55.48
-59.15
-55.48
-45.39
-30.11
-11.46
8.04
25.36
37.59
42.77
40.36
31.39
17.95
2.42
-13.23
-27.81
-40.83
-52.15
-61.50
-68.26
-71.46
-69.93
-62.63
-48.99
-29.34
-5.28
20.13
42.74
58.15
63.07
56.54
40.50
19.27
-1.84
-18.35
-27.85
-30.32
-27.54
-21.82
-14.97
-7.88
-0.65
7.01
15.34
24.50
34.77
46.55
60.19
75.51
91.34
105.66
116.09
120.73
118.71
110.30
96.43
77.88
54.80
26.51
-7.80
-48.48
-94.88
-144.80
-193.99
-236.09
-263.27
-268.07
-245.99
-197.68
-129.68
-53.14
19.26
76.92
114.00
130.08
128.84
115.96
97.18
77.28
59.68
46.54
38.51
34.70
32.88
30.14
24.07
13.84
0.73
-12.29
-21.59
-24.63
-21.00
-12.64
-3.01
4.34
7.13
4.94
-0.92
-8.14
-14.38
-17.98
-18.17
-14.92
-8.75
-0.56
8.43
16.90
23.63
27.71
28.89
27.53
24.51
20.89
17.63
15.41
14.66
15.48
17.66
20.71
23.94
26.40
26.98
24.64
18.61
8.89
-3.45
-16.33
-27.10
-32.92
-31.63
-22.55
-6.72
13.08
33.01
49.13
58.70
61.21
58.81
55.28
54.24
57.23
63.06
68.66
70.88
68.30
61.81
53.71
46.02
39.21
32.20
23.47
12.59
0.69
-10.04
-17.51
-20.93
-21.07
-19.29
-16.31
-11.65
-3.87
8.59
26.12
47.52
70.09
90.35
105.20
112.94
113.68
108.63
99.48
87.94
75.81
64.89
57.04
53.92
56.64
66.02
81.55
101.22
122.23
142.07
159.36
173.96
186.50
197.48
207.54
215.68
219.25
215.25
201.85
179.39
150.15
117.45
84.41
54.42
28.83
6.56
-14.88
-37.91
-64.01
-93.58
-126.32
-169.62
-223.82
-282.74
-336.61
-377.00
-400.24
-407.11
-400.86
-385.90
-366.76
-346.95
-328.54
-314.02
-305.61
-304.30
-308.96
-316.29
-321.73
-321.12
-311.44
-292.12
-267.23
-242.79
-223.14
-208.26
-193.76
-173.34
-142.16
-98.57
-44.99
13.54
72.49
129.59
184.41
236.48
283.65
322.12
348.24
359.86
357.23
342.86
320.39
293.24
263.67
232.70
201.00
169.67
140.45
115.06
94.75
79.72
69.13
61.26
54.06
45.67
34.84
21.14
4.94
-12.62
-29.84
-44.77
-55.59
-60.97
-60.28
-53.72
-42.15
-26.92
-9.58
8.43
25.81
41.49
54.54
64.15
69.59
70.35
66.23
57.46
44.72
29.15
12.07
-5.19
-21.41
-35.78
-47.76
-57.22
-64.27
-69.20
-72.30
-73.80
-73.73
-72.10
-68.90
-64.31
-58.64
-52.37
-45.95
-39.70
-33.74
-28.01
-22.44
-17.07
-12.07
-7.65
-3.96
-0.91
1.68
4.09
6.46
8.73
10.71
12.22
13.17
13.71
14.15
14.80
15.83
17.20
18.77
20.35
21.84
23.22
24.55
25.85
27.08
28.09
28.66
28.56
27.54
25.41
22.02
17.40
11.80
5.65
-0.57
-6.38
-11.51
-15.86
-19.53
-22.70
-25.60
-28.55
-31.86
-35.80
-40.58
-46.30
-52.83
-60.01
-67.61
-75.48
-83.45
-91.30
-98.81
-105.79
-112.30
-118.73
-125.73
-133.89
-143.36
-153.45
-162.75
-169.54
-172.44
-171.05
-165.98
-158.48
-149.71
-140.21
-129.73
-117.52
-102.88
-85.58
-66.02
-45.06
-23.78
-3.25
15.62
32.15
45.87
56.67
64.73
70.56
74.81
78.16
81.18
84.18
87.20
90.01
92.32
93.88
94.51
93.98
91.82
87.19
79.08
66.73
50.03
29.69
6.95
-16.82
-40.59
-63.54
-84.77
-102.89
-115.94
-121.87
-119.29
-108.09
-89.68
-66.53
-41.53
-17.22
4.65
23.19
38.23
50.00
58.87
65.30
69.77
72.85
75.21
77.52
80.28
83.64
87.28
90.52
92.51
92.41
89.63
83.85
75.11
63.89
51.13
38.20
26.70
17.93
12.49
10.12
9.81
10.35
10.84
11.05
11.28
12.08
13.75
16.08
18.43
20.08
20.64
20.27
19.69
19.91
21.83
25.98
32.38
40.64
50.05
59.73
68.60
75.33
78.51
76.96
70.14
58.46
43.19
26.06
8.72
-7.63
-22.22
-34.38
-43.24
-47.61
-46.44
-39.29
-26.70
-10.29
7.62
24.52
38.19
46.99
49.96
46.90
38.46
26.22
12.56
0.17
-8.63
-12.62
-12.02
-8.28
-3.42
0.79
3.37
4.04
2.95
0.16
-4.45
-10.92
-18.85
-27.07
-33.93
-37.82
-37.80
-33.97
-27.22
-18.81
-9.66
0.06
10.86
23.65
39.21
57.86
79.43
103.51
129.66
157.42
186.04
214.01
238.93
257.83
267.92
267.42
255.76
233.19
199.95
155.69
99.62
31.36
-47.89
-134.63
-223.22
-306.81
-378.71
-433.45
-467.27
-478.14
-465.72
-431.29
-378.02
-310.86
-236.12
-160.58
-90.23
-29.44
19.59
56.68
83.03
100.54
111.12
116.48
118.05
117.12
114.75
111.79
108.69
105.48
101.84
97.36
91.77
85.09
77.62
69.72
61.64
53.38
44.76
35.55
25.65
15.21
4.51
-6.05
-16.22
-26.01
-35.56
-44.98
-54.33
-63.65
-73.04
-82.73
-92.78
-102.85
-112.13
-119.22
-122.57
-121.11
-114.85
-104.97
-93.54
-82.64
-73.62
-67.09
-62.71
-59.61
-56.95
-54.19
-51.04
-47.18
-41.92
-34.20
-23.93
-11.38
2.85
18.05
33.60
49.20
64.93
81.30
98.89
115.74
129.32
137.39
138.90
134.08
123.78
108.82
89.56
65.91
34.40
-7.53
-59.68
-118.26
-176.88
-229.08
-270.16
-297.93
-312.64
-320.55
-328.53
-341.52
-361.44
-387.93
-420.61
-460.06
-506.95
-534.58
-522.15
-460.42
-357.39
-232.76
-107.08
3.77
90.14
149.21
184.61
200.15
200.63
191.66
177.59
162.07
147.81
137.01
131.83
134.01
140.98
149.08
155.32
156.97
154.47
150.20
147.59
150.25
160.71
177.38
196.41
212.99
222.65
222.22
209.47
183.33
144.69
97.12
45.83
-2.22
-40.03
-62.69
-68.80
-60.89
-44.03
-23.58
-3.47
14.09
28.67
41.02
52.48
64.82
79.38
96.42
114.54
130.79
141.49
143.60
135.69
118.56
94.80
67.90
41.31
17.88
-0.27
-12.00
-17.13
-16.48
-11.72
-4.62
3.25
10.90
18.08
25.12
32.48
40.39
48.49
55.87
61.52
64.29
63.19
57.87
49.14
39.12
30.81
27.20
30.29
41.10
58.62
80.30
102.89
123.86
142.00
157.17
169.51
178.83
185.73
190.53
193.63
195.61
197.16
198.54
198.92
196.30
188.63
176.62
162.65
149.70
139.57
131.81
123.64
110.96
90.08
51.37
-6.03
-73.79
-137.92
-186.46
-214.88
-225.37
-222.97
-212.37
-196.55
-175.98
-151.10
-123.48
-95.75
-70.51
-49.21
-32.06
-18.58
-8.05
0.73
8.54
15.54
21.55
26.58
31.06
35.52
40.00
44.02
47.10
49.19
50.65
52.44
55.77
61.56
69.52
77.40
84.00
86.01
79.63
62.02
32.86
-4.49
-42.97
-73.18
-86.20
-76.73
-45.68
-0.08
48.81
89.09
111.93
114.02
97.72
69.19
35.59
2.38
-27.11
-51.24
-68.61
-77.31
-75.06
-60.30
-33.81
0.61
36.72
67.86
89.00
98.13
96.65
88.68
79.51
73.90
74.66
81.96
93.68
106.50
117.23
123.84
125.77
123.46
117.54
108.34
95.97
80.79
63.92
47.13
32.35
20.80
12.37
5.61
-1.66
-11.55
-25.18
-42.04
-60.17
-76.85
-89.78
-98.13
-102.95
-106.66
-111.92
-120.47
-132.49
-146.79
-161.64
-175.64
-188.21
-199.44
-209.60
-218.74
-226.55
-232.54
-236.29
-237.62
-236.58
-233.31
-227.90
-220.42
-210.97
-199.82
-187.55
-174.97
-163.04
-152.53
-143.74
-136.23
-128.98
-120.85
-111.11
-99.85
-87.87
-76.21
-65.72
-56.71
-49.15
-42.96
-38.29
-35.48
-34.78
-36.06
-38.64
-41.62
-44.25
-46.23
-47.74
-49.20
-50.93
-52.84
-54.40
-54.75
-53.06
-48.76
-41.80
-32.74
-22.56
-12.38
-3.16
4.58
10.70
15.27
18.36
19.93
19.95
18.52
16.02
13.04
10.11
7.68
6.18
5.91
7.14
9.96
14.33
19.91
26.06
31.76
36.15
38.91
40.40
41.52
43.19
46.03
49.90
53.86
55.92
54.10
47.15
34.89
18.10
-1.81
-23.15
-44.31
-64.09
-83.00
-101.43
-119.15
-135.19
-148.36
-157.29
-160.08
-154.25
-137.48
-111.47
-79.71
-47.28
-20.43
-5.82
-8.95
-32.03
-73.07
-126.73
-190.06
-258.49
-325.60
-383.97
-427.35
-452.23
-457.79
-445.77
-420.06
-391.10
-367.12
-351.00
-339.99
-328.82
-312.73
-288.75
-256.49
-186.00
-70.84
71.54
209.42
317.65
387.51
422.68
431.83
423.73
405.79
378.64
343.63
304.20
265.63
231.86
203.41
180.66
163.83
153.54
146.48
140.65
136.11
135.23
139.89
150.37
166.06
186.05
209.67
234.08
257.84
276.39
288.20
292.70
289.92
280.92
267.81
253.42
239.44
227.89
221.04
221.56
230.13
244.48
259.70
269.89
270.41
259.49
239.16
213.90
188.42
164.56
140.97
114.87
84.73
52.19
22.01
0.21
-8.61
-2.80
15.14
40.18
66.27
88.04
101.56
104.98
98.28
82.76
60.30
32.09
-0.58
-36.43
-73.83
-111.20
-147.17
-181.04
-212.92
-243.99
-277.14
-314.69
-358.10
-406.89
-458.87
-509.96
-554.04
-583.65
-592.05
-576.39
-536.86
-477.38
-403.43
-321.09
-235.55
-149.63
-63.77
28.28
122.82
210.59
282.05
334.09
368.21
385.96
387.15
370.67
336.78
287.93
236.24
188.82
153.77
136.72
137.66
151.76
171.98
191.53
204.02
206.91
200.47
185.06
163.81
139.63
115.09
92.84
74.94
60.24
46.75
31.79
14.35
-5.21
-26.57
-48.98
-71.09
-92.54
-116.30
-146.19
-185.50
-234.93
-292.99
-357.25
-423.75
-486.27
-522.59
-514.64
-458.64
-370.07
-273.68
-190.19
-129.76
-94.53
-74.05
-59.41
-47.72
-39.74
-36.98
-38.21
-39.53
-36.43
-25.54
-5.27
22.77
53.80
82.64
106.16
125.13
142.92
163.08
187.18
214.59
242.64
268.03
289.16
306.84
324.24
343.61
363.71
379.20
382.95
369.18
335.94
285.71
223.88
158.40
97.40
48.38
17.58
9.21
24.79
62.11
115.10
166.18
197.45
197.62
168.42
121.50
69.10
18.27
-29.45
-75.02
-119.07
-159.11
-191.00
-211.99
-220.64
-217.91
-206.30
-189.20
-170.70
-155.35
-145.09
-142.17
-145.74
-151.52
-154.37
-150.46
-138.75
-121.08
-100.73
-79.80
-59.03
-38.16
-16.87
2.02
13.75
13.72
-0.61
-27.99
-63.28
-98.76
-126.20
-138.41
-134.79
-121.57
-108.78
-105.55
-115.71
-136.85
-162.43
-185.72
-202.26
-211.18
-213.56
-210.58
-202.42
-187.62
-165.11
-135.46
-101.06
-65.32
-31.97
-3.16
21.52
39.42
50.75
56.34
56.96
52.96
44.66
32.42
17.20
0.59
-15.58
-29.01
-38.32
-43.17
-44.14
-42.16
-38.22
-33.01
-26.75
-19.30
-9.53
3.68
21.11
42.58
66.56
90.30
110.63
125.13
133.18
136.55
138.32
141.80
149.40
162.11
179.60
200.58
222.86
243.36
258.35
263.74
256.11
233.88
198.03
151.96
100.60
48.86
0.51
-42.06
-77.40
-104.23
-120.80
-125.09
-115.40
-91.33
-54.63
-9.40
38.62
83.42
120.12
145.92
160.19
164.05
159.76
149.70
135.69
118.87
99.86
79.26
57.83
36.68
17.17
1.53
-8.49
-12.22
-10.35
-4.43
3.83
13.30
23.64
35.33
50.62
70.90
95.65
122.20
146.69
165.54
176.78
180.66
179.66
180.10
187.48
204.29
229.16
257.91
285.83
309.21
326.31
337.32
346.88
358.60
372.82
385.75
391.08
382.67
356.80
313.46
237.53
128.70
0.80
-123.00
-222.49
-289.21
-325.91
-339.87
-337.90
-324.61
-300.14
-265.83
-225.54
-185.05
-149.37
-121.21
-99.96
-83.01
-67.46
-49.41
-27.56
-3.52
19.18
37.19
48.30
52.63
51.80
47.95
43.80
40.32
36.24
28.49
17.83
4.58
-9.62
-22.15
-29.89
-30.26
-22.53
-8.03
10.47
29.56
44.39
51.34
48.40
36.03
14.56
-15.59
-54.04
-99.39
-149.09
-202.25
-256.74
-309.71
-356.16
-394.39
-424.18
-446.03
-459.13
-461.91
-457.12
-447.71
-436.62
-422.75
-408.11
-394.85
-385.10
-379.17
-376.50
-381.07
-394.45
-413.92
-428.26
-430.39
-417.72
-394.60
-369.60
-325.10
-258.36
-177.15
-123.11
-98.70
-96.18
-96.46
-91.82
-79.44
-58.11
-31.55
-1.64
32.12
75.68
128.66
187.11
244.71
296.66
341.02
371.48
380.80
364.76
328.34
277.68
219.80
163.59
111.07
63.41
19.69
-19.61
-52.15
-72.64
-79.00
-71.96
-54.77
-31.35
-4.24
24.03
52.34
81.05
112.40
147.18
185.07
224.68
263.65
299.29
327.26
342.54
340.98
321.15
284.28
234.75
179.41
126.02
82.20
53.46
42.28
48.07
67.61
95.90
127.36
156.77
179.90
194.04
197.80
191.10
175.43
153.69
129.72
107.24
88.72
74.72
64.64
57.80
54.72
57.30
67.76
86.74
111.80
137.71
158.24
168.95
168.90
160.60
148.19
134.77
120.68
103.47
79.71
47.43
7.81
-34.95
-75.43
-109.36
-135.26
-154.28
-168.88
-180.95
-190.68
-196.89
-198.16
-194.27
-186.73
-178.19
-170.99
-166.03
-162.43
-158.31
-151.92
-142.53
-130.54
-116.88
-102.39
-87.39
-71.72
-54.95
-36.67
-16.64
5.08
28.10
51.62
74.43
95.04
112.01
124.36
131.75
134.27
132.09
125.17
113.17
95.71
72.87
45.59
15.77
-13.98
-41.07
-63.67
-81.19
-94.33
-104.66
-113.86
-123.02
-132.44
-141.63
-149.79
-156.06
-159.66
-159.80
-155.68
-146.80
-133.36
-116.71
-99.16
-83.28
-70.96
-62.76
-57.89
-54.66
-51.35
-46.79
-40.53
-32.86
-24.49
-16.46
-9.85
-5.54
-3.87
-4.54
-6.72
-9.49
-12.30
-14.96
-17.66
-20.45
-23.05
-24.72
-24.62
-22.10
-16.94
-9.28
0.63
12.61
26.54
42.09
58.51
74.53
88.58
99.27
105.71
107.81
106.16
101.76
95.63
88.47
80.53
71.63
61.42
49.69
36.79
23.74
12.13
3.71
-0.22
0.75
5.95
13.88
22.74
30.91
37.36
41.69
44.09
45.17
45.81
46.92
49.26
53.12
58.25
63.91
69.23
73.51
76.57
78.79
80.96
84.08
88.90
95.58
103.59
111.75
118.69
123.49
126.14
127.59
129.25
132.09
135.76
138.40
137.08
128.78
111.59
85.34
51.57
13.07
-26.89
-65.11
-98.81
-125.78
-144.44
-154.01
-154.64
-147.50
-134.63
-118.49
-101.55
-85.70
-72.12
-61.24
-52.96
-46.89
-42.55
-39.50
-37.45
-36.29
-36.01
-36.66
-38.25
-40.72
-43.87
-47.46
-51.34
-55.56
-60.50
-66.75
-74.98
-85.70
-98.99
-114.23
-129.92
-143.85
-153.53
-156.88
-152.81
-141.44
-123.73
-100.73
-73.00
-40.35
-2.35
40.98
88.64
138.41
187.01
230.55
265.03
286.95
294.10
286.24
265.46
235.85
202.54
170.26
142.33
120.01
102.76
89.06
77.16
65.87
54.85
44.57
36.04
30.05
26.35
23.20
17.60
6.38
-12.47
-38.84
-70.62
-104.63
-137.59
-166.94
-190.82
-207.73
-216.52
-216.54
-208.18
-193.22
-174.31
-154.05
-134.02
-114.36
-94.25
-72.94
-50.59
-28.54
-9.03
5.78
14.35
16.32
12.54
4.85
-4.41
-13.33
-21.00
-27.84
-35.20
-44.54
-56.90
-72.57
-91.37
-113.17
-137.85
-164.81
-192.25
-216.98
-235.01
-242.96
-239.36
-225.20
-203.34
-176.93
-147.95
-116.61
-82.13
-44.09
-3.73
35.81
70.50
97.24
115.18
125.82
131.97
135.83
137.80
136.44
129.80
116.78
97.86
74.46
47.79
18.16
-14.65
-50.01
-85.39
-116.20
-137.31
-145.08
-139.02
-122.07
-99.35
-76.38
-57.37
-44.32
-37.05
-33.76
-31.88
-29.06
-23.94
-16.56
-8.48
-1.88
1.63
2.04
1.50
3.85
13.20
32.22
60.81
95.63
131.03
160.70
179.62
185.76
180.60
168.56
155.35
146.25
144.79
152.12
167.05
186.33
206.25
224.12
239.65
254.93
273.05
295.83
322.10
347.55
366.00
372.67
366.47
350.36
329.43
308.16
288.34
269.11
248.48
224.17
195.66
164.17
131.44
98.32
64.25
28.09
-10.73
-51.47
-94.09
-137.65
-180.22
-219.10
-251.89
-277.54
-296.55
-310.73
-322.46
-336.72
-356.31
-380.02
-402.96
-419.41
-425.95
-422.96
-413.92
-403.43
-399.27
-406.41
-425.12
-451.09
-477.85
-498.83
-508.37
-501.96
-454.04
-354.39
-214.35
-63.87
66.22
159.29
214.99
242.45
252.66
253.96
247.13
231.60
208.86
183.97
162.71
149.68
146.37
151.75
163.52
176.38
186.53
192.52
194.86
194.22
190.27
182.00
169.08
152.58
131.74
107.73
82.78
59.37
39.07
22.10
7.52
-6.04
-19.66
-34.83
-51.79
-69.43
-85.33
-96.81
-102.06
-100.80
-94.33
-84.98
-75.70
-68.86
-65.85
-66.92
-71.30
-77.65
-84.57
-91.01
-96.46
-101.14
-105.75
-111.35
-118.77
-128.04
-137.86
-145.76
-148.66
-143.95
-130.47
-109.04
-82.15
-52.97
-24.27
2.40
26.55
48.19
67.11
82.57
93.62
99.68
101.07
99.02
95.14
90.68
86.08
81.00
74.81
67.30
58.96
50.85
43.95
38.64
34.33
29.80
23.82
15.81
6.08
-4.40
-14.40
-22.95
-29.42
-33.51
-35.02
-33.89
-30.21
-24.42
-17.31
-9.93
-3.35
1.69
5.03
7.12
8.91
11.47
15.56
21.38
28.51
36.14
43.48
50.11
55.95
61.05
65.27
68.21
69.33
68.42
65.78
62.20
58.62
55.62
53.21
50.80
47.49
42.31
34.50
23.73
10.21
-5.04
-20.35
-33.57
-42.65
-46.23
-44.11
-37.14
-26.86
-14.88
-2.41
9.85
21.59
32.55
42.51
51.18
58.43
64.25
68.69
71.79
73.42
73.44
71.85
68.82
64.78
60.27
55.78
51.57
47.72
44.04
40.25
36.04
31.27
25.97
20.47
15.17
10.43
6.38
2.75
-1.09
-5.91
-12.28
-20.15
-28.62
-36.02
-40.31
-39.72
-33.43
-21.84
-6.40
10.98
28.61
45.65
62.19
78.96
96.77
115.94
136.12
156.37
175.52
192.66
207.53
220.68
233.28
246.88
262.75
281.24
301.06
318.87
329.53
327.35
307.72
268.76
212.19
142.82
67.29
-7.60
-76.24
-134.77
-181.19
-215.06
-237.30
-249.87
-255.42
-256.71
-256.07
-255.17
-255.33
-257.90
-264.34
-275.90
-292.69
-313.06
-333.49
-349.28
-355.70
-349.25
-328.24
-293.00
-245.48
-188.76
-126.73
-63.83
-4.68
46.54
86.93
115.51
133.40
143.16
147.84
149.58
149.05
145.37
136.91
122.33
101.28
74.73
44.59
13.14
-17.67
-46.56
-72.97
-96.89
-118.50
-137.93
-155.16
-170.15
-182.86
-193.43
-201.87
-207.92
-210.77
-209.10
-201.56
-187.18
-165.97
-138.96
-107.87
-74.65
-40.87
-7.57
24.74
55.73
84.96
111.84
135.67
155.91
172.41
185.38
195.33
202.82
208.23
211.72
213.28
212.88
210.73
207.23
203.01
198.77
195.15
192.64
191.39
191.21
191.48
191.28
189.61
185.57
178.58
168.38
155.12
139.33
121.84
103.69
85.81
68.77
52.48
36.35
19.53
1.55
-17.22
-35.50
-51.55
-63.78
-71.42
-74.69
-74.58
-72.38
-69.21
-65.67
-61.99
-58.19
-54.24
-50.11
-45.61
-40.34
-33.76
-25.32
-14.68
-1.79
13.05
29.32
46.30
63.28
79.49
94.14
106.61
116.43
123.26
126.65
126.10
120.99
111.24
97.14
79.55
59.83
39.59
20.06
1.78
-15.58
-32.78
-49.55
-64.77
-76.33
-81.23
-76.33
-59.50
-30.34
9.02
54.28
101.22
145.44
183.08
211.49
229.68
238.09
238.55
233.29
224.45
215.20
207.09
199.36
189.26
173.49
149.53
117.40
79.25
30.43
-26.08
-82.00
-127.54
-156.44
-166.87
-164.42
-154.63
-141.91
-129.82
-119.80
-113.26
-111.42
-114.95
-123.31
-135.08
-148.09
-160.87
-173.18
-184.96
-197.74
-214.23
-237.08
-266.99
-301.73
-335.69
-361.81
-373.88
-367.81
-343.66
-305.33
-259.00
-210.85
-165.58
-125.81
-92.83
-67.26
-48.91
-37.11
-30.48
-26.94
-23.96
-19.23
-11.38
-0.55
11.51
22.32
29.61
32.17
30.32
25.68
20.40
16.23
14.01
13.60
14.40
16.01
18.40
21.81
26.34
31.64
36.90
41.16
43.68
44.17
42.80
40.10
36.67
33.09
29.87
27.46
26.27
26.62
28.58
31.94
36.12
40.38
44.01
46.59
48.07
48.71
48.92
49.02
49.14
49.23
49.22
49.10
49.00
49.07
49.45
50.14
51.15
52.50
54.31
56.70
59.62
62.83
65.85
68.13
69.22
68.91
67.21
64.30
60.47
55.97
51.09
46.04
40.96
35.88
30.74
25.43
19.96
14.49
9.33
4.86
1.36
-0.97
-1.90
-1.12
1.87
7.56
16.14
27.25
39.86
52.35
62.95
70.22
73.44
72.84
69.43
64.69
59.98
56.10
53.04
49.86
44.94
36.22
21.57
-0.64
-30.98
-68.45
-110.18
-151.76
-188.33
-215.82
-232.21
-237.88
-235.07
-226.73
-215.33
-202.24
-187.98
-172.79
-157.31
-142.57
-129.70
-119.32
-111.22
-104.50
-97.95
-90.54
-81.65
-71.12
-59.12
-46.05
-32.44
-18.91
-6.11
5.35
14.99
22.51
27.84
31.04
32.40
32.38
31.62
30.79
30.43
30.80
31.83
33.21
34.51
35.36
35.46
34.58
32.57
29.34
25.03
20.00
14.77
9.94
5.99
3.14
1.23
-0.17
-1.60
-3.53
-6.08
-8.90
-11.09
-11.38
-8.47
-1.52
9.57
23.98
40.26
56.61
71.45
83.65
92.75
98.80
102.32
104.07
104.88
105.41
106.04
106.79
107.47
107.86
107.78
107.14
105.80
103.46
99.74
94.47
87.80
80.22
72.31
64.38
56.22
47.24
36.87
25.10
12.68
1.09
-7.83
-12.43
-11.83
-6.38
2.16
10.98
16.80
16.59
8.29
-8.79
-33.94
-65.30
-100.10
-135.08
-166.91
-192.68
-210.55
-220.22
-222.90
-220.81
-216.51
-212.20
-209.46
-209.24
-211.94
-217.31
-224.30
-231.15
-235.72
-236.10
-231.38
-221.99
-209.55
-196.32
-184.47
-175.45
-169.80
-167.10
-166.13
-165.26
-162.85
-157.69
-149.39
-138.40
-125.81
-112.98
-101.22
-91.51
-84.41
-79.88
-77.06
-74.20
-68.93
-58.92
-42.77
-20.59
5.90
33.98
60.88
84.53
103.95
119.07
130.26
137.95
142.52
144.38
144.06
142.24
139.56
136.41
132.87
128.78
123.91
118.18
111.72
104.77
97.64
90.55
83.57
76.70
69.92
63.19
56.59
50.20
44.10
38.38
33.03
28.00
23.17
18.33
13.36
8.36
3.77
0.43
-0.60
1.67
7.73
17.35
29.55
42.86
55.68
66.73
75.24
80.99
84.12
84.92
83.77
81.05
77.16
72.56
67.73
63.05
58.77
54.87
51.18
47.42
43.32
38.78
33.85
28.66
23.33
17.89
12.33
6.63
0.90
-4.61
-9.51
-13.34
-15.73
-16.50
-15.77
-13.98
-11.90
-10.30
-9.69
-9.91
-10.07
-8.77
-4.62
3.10
14.07
26.97
39.94
51.36
60.33
66.90
71.70
75.47
78.67
81.49
84.16
87.17
91.43
97.96
107.47
120.02
134.89
150.94
166.98
182.19
195.99
207.90
217.37
223.72
226.29
224.55
218.18
206.99
190.97
170.42
146.14
119.73
93.39
69.45
49.63
34.53
23.47
15.00
7.70
0.92
-4.97
-8.71
-8.74
-3.92
6.02
20.22
36.93
54.12
69.91
82.99
92.67
98.81
101.63
101.44
98.61
93.59
87.02
79.66
72.22
65.03
57.80
49.50
38.61
23.50
3.09
-22.78
-53.33
-86.87
-121.28
-154.22
-183.36
-206.54
-222.07
-228.98
-227.38
-218.62
-205.00
-189.34
-174.18
-161.29
-151.40
-144.40
-139.69
-136.64
-134.63
-132.98
-130.83
-127.04
-120.44
-110.29
-96.65
-80.54
-63.61
-47.69
-34.12
-23.52
-15.77
-10.47
-7.22
-5.82
-6.21
-8.23
-11.43
-15.02
-18.17
-20.25
-21.10
-21.01
-20.63
-20.64
-21.51
-23.41
-26.21
-29.73
-33.76
-38.18
-42.94
-47.90
-52.82
-57.35
-61.09
-63.74
-65.24
-65.79
-65.82
-65.73
-65.75
-65.78
-65.34
-63.71
-60.16
-54.10
-45.26
-33.79
-20.21
-5.41
9.55
23.61
35.83
45.59
52.57
56.77
58.40
57.85
55.61
52.29
48.55
44.98
41.98
39.67
37.87
36.19
34.27
31.92
29.13
26.13
23.17
20.49
18.17
16.13
14.19
12.17
9.91
7.39
4.71
2.14
0.01
-1.33
-1.71
-1.20
-0.03
1.34
2.47
3.09
3.20
3.22
4.00
6.65
12.16
21.08
33.18
47.40
62.24
76.15
88.06
97.63
105.09
110.97
115.81
119.91
123.37
126.30
128.89
131.50
134.50
138.05
142.09
146.21
149.84
152.39
153.42
152.67
150.00
145.32
138.36
128.65
115.57
98.53
77.24
52.08
24.07
-5.17
-33.76
-60.04
-82.79
-101.43
-115.85
-126.29
-133.13
-136.96
-138.50
-138.54
-137.71
-136.20
-133.68
-129.47
-122.95
-114.11
-103.75
-93.31
-84.33
-77.94
-74.48
-73.47
-74.02
-75.27
-76.66
-77.92
-78.88
-79.21
-78.36
-75.68
-70.67
-63.29
-54.01
-43.72
-33.44
-23.98
-15.79
-8.88
-2.91
2.71
8.53
15.07
22.60
31.13
40.30
49.51
58.05
65.31
70.94
74.76
76.63
76.32
73.40
67.48
58.55
47.12
34.22
21.16
9.05
-1.34
-9.78
-16.40
-21.46
-25.21
-27.84
-29.44
-30.03
-29.55
-27.92
-25.12
-21.30
-16.82
-12.18
-7.87
-4.27
-1.51
0.46
1.86
2.95
4.02
5.24
6.70
8.43
10.37
12.48
14.70
16.91
18.88
20.20
20.33
18.96
16.26
13.03
10.50
9.93
12.00
16.61
23.00
30.25
37.70
45.10
52.35
59.06
64.34
67.21
67.26
65.12
62.19
59.79
58.29
56.81
53.75
47.81
38.85
28.00
17.04
7.26
-1.27
-9.55
-18.82
-29.42
-40.45
-50.26
-57.30
-61.02
-62.05
-61.59
-60.59
-59.25
-57.08
-53.36
-48.01
-41.80
-36.07
-32.10
-30.44
-30.77
-32.03
-32.53
-30.37
-24.11
-13.55
-0.46
11.60
18.48
16.97
6.03
-12.83
-36.34
-60.75
-82.75
-99.87
-110.24
-112.43
-105.70
-90.38
-68.28
-42.63
-17.43
3.54
17.68
24.18
24.29
20.94
18.06
19.35
26.97
40.79
58.46
76.39
91.03
99.94
102.18
98.10
88.85
75.81
60.32
43.42
25.96
8.86
-6.87
-20.30
-30.95
-39.07
-45.73
-52.30
-59.92
-69.07
-79.29
-89.43
-98.13
-104.32
-107.49
-107.69
-105.29
-100.70
-94.35
-86.60
-77.76
-68.11
-57.92
-47.48
-37.13
-27.16
-17.73
-8.88
-0.56
7.29
14.77
21.82
28.23
33.50
37.07
38.72
38.87
38.65
39.33
41.53
44.84
47.94
49.50
48.96
47.02
45.19
44.92
46.87
50.61
55.17
59.43
62.44
63.29
60.93
54.08
41.70
23.25
-0.89
-29.29
-59.61
-88.80
-113.70
-131.91
-142.78
-147.68
-149.42
-150.86
-153.63
-157.53
-160.98
-162.10
-159.82
-154.21
-146.05
-136.15
-124.96
-112.63
-99.51
-86.33
-74.03
-63.49
-55.03
-48.32
-42.56
-36.81
-30.39
-23.39
-16.64
-11.46
-9.17
-10.25
-14.11
-19.17
-23.72
-26.51
-27.34
-27.05
-27.04
-28.83
-33.38
-40.80
-50.19
-59.92
-68.16
-73.51
-75.70
-75.70
-75.37
-76.58
-80.22
-85.56
-90.18
-90.83
-84.69
-70.75
-50.48
-27.43
-5.93
10.50
20.36
24.31
24.40
22.84
21.04
19.67
19.10
20.07
23.81
31.45
43.22
57.97
73.41
86.81
96.08
100.38
100.21
97.04
92.57
88.15
84.39
81.31
78.62
76.11
73.91
72.32
71.62
71.61
71.59
70.52
67.49
62.11
54.71
46.10
37.20
28.67
20.62
12.71
4.37
-4.82
-14.80
-24.89
-33.85
-40.26
-42.87
-41.12
-35.31
-26.57
-16.46
-6.55
2.01
8.65
13.22
15.81
16.54
15.59
13.36
10.39
7.44
5.17
4.00
3.98
4.90
6.53
8.84
12.04
16.42
22.09
28.73
35.61
41.75
46.34
48.98
49.73
48.94
46.94
43.87
39.68
34.28
27.77
20.61
13.43
6.80
1.03
-3.93
-8.33
-12.56
-16.98
-21.81
-27.03
-32.16
-36.33
-38.29
-36.84
-31.26
-21.73
-9.37
4.12
17.01
28.07
36.79
43.23
47.76
50.75
52.46
53.10
53.01
52.64
52.43
52.70
53.45
54.32
54.75
54.21
52.41
49.44
45.77
42.13
39.27
37.73
37.61
38.55
39.87
40.81
40.80
39.65
37.54
34.87
32.07
29.47
27.21
25.34
23.79
22.40
20.83
18.66
15.64
11.96
8.55
6.87
8.54
14.66
25.32
39.48
55.21
70.34
83.07
92.27
97.54
99.08
97.54
93.87
89.11
84.10
79.33
74.79
70.18
65.08
59.31
52.99
46.52
40.35
34.87
30.43
27.37
26.01
26.59
29.11
33.27
38.56
44.33
50.00
55.09
59.19
62.00
63.27
62.95
61.03
57.55
52.49
45.84
37.61
28.03
17.72
7.51
-1.61
-8.77
-13.27
-14.67
-12.88
-8.46
-2.63
2.73
5.64
4.71
-0.33
-8.57
-18.39
-28.18
-36.93
-44.25
-50.11
-54.52
-57.36
-58.62
-58.64
-58.12
-57.98
-58.89
-61.09
-64.23
-67.71
-70.83
-73.08
-74.25
-74.38
-73.82
-73.11
-72.77
-73.11
-74.21
-75.96
-78.35
-81.60
-86.11
-92.14
-99.52
-107.45
-114.66
-119.72
-121.46
-119.15
-112.67
-102.28
-88.59
-72.39
-54.62
-36.29
-18.47
-2.08
12.05
23.30
31.41
36.52
39.21
40.46
41.31
42.58
44.59
47.10
49.41
50.75
50.67
49.12
46.58
43.67
40.88
38.26
35.42
31.69
26.55
19.96
12.45
4.93
-1.69
-6.92
-10.85
-14.06
-17.35
-21.37
-26.47
-32.66
-39.59
-46.64
-52.87
-57.13
-58.29
-55.59
-49.07
-39.62
-28.86
-18.53
-9.98
-3.85
-0.09
1.73
2.16
1.74
1.06
0.91
2.13
5.32
10.50
16.91
23.24
28.11
30.56
30.40
28.18
24.86
21.42
18.49
16.34
14.82
13.64
12.44
10.92
8.97
6.58
3.81
0.75
-2.52
-5.91
-9.33
-12.70
-15.97
-19.25
-22.69
-26.47
-30.53
-34.38
-37.04
-37.29
-34.14
-27.30
-17.46
-6.20
4.58
13.17
18.65
20.91
20.48
18.20
14.88
11.21
7.73
4.91
3.05
2.22
2.15
2.40
2.42
1.83
0.51
-1.37
-3.43
-5.36
-6.93
-8.15
-9.23
-10.51
-12.24
-14.59
-17.41
-20.35
-22.97
-24.94
-26.22
-27.15
-28.27
-30.20
-33.35
-37.72
-42.79
-47.59
-50.89
-51.50
-48.64
-42.12
-32.46
-20.74
-8.41
3.13
12.82
20.09
24.91
27.61
28.68
28.53
27.43
25.50
22.82
19.40
15.26
10.36
4.69
-1.66
-8.31
-14.65
-19.92
-23.49
-25.19
-25.43
-25.07
-25.13
-26.43
-29.28
-33.49
-38.47
-43.38
-47.53
-50.43
-51.98
-52.42
-52.32
-52.37
-53.25
-55.32
-58.32
-61.29
-62.69
-60.90
-54.83
-44.40
-30.63
-15.31
-0.32
13.05
24.32
33.74
41.78
48.68
54.25
58.03
59.73
59.44
57.82
55.82
54.24
53.48
53.30
53.14
52.38
50.75
48.39
45.76
43.26
41.06
38.93
36.38
32.98
28.52
23.13
17.20
11.21
5.56
0.45
-4.07
-8.17
-12.08
-16.15
-20.74
-26.15
-32.52
-39.68
-47.00
-53.45
-57.78
-58.86
-56.08
-49.54
-40.02
-28.68
-16.65
-4.70
6.79
17.66
27.65
36.35
43.26
48.04
50.72
51.74
51.74
51.35
50.93
50.60
50.27
49.75
48.82
47.29
45.09
42.33
39.30
36.38
33.91
31.88
30.00
27.76
24.79
21.02
16.67
12.12
7.64
3.26
-1.11
-5.58
-10.10
-14.53
-18.85
-23.24
-27.97
-33.22
-38.77
-43.81
-47.17
-47.58
-44.23
-37.04
-26.73
-14.50
-1.77
10.35
21.26
30.83
39.11
46.08
51.47
54.89
56.19
55.75
54.44
53.30
53.00
53.61
54.69
55.66
56.11
55.94
55.26
54.28
53.20
52.21
51.49
51.23
51.41
51.78
51.85
51.10
49.28
46.41
42.79
38.73
34.43
29.87
24.94
19.48
13.23
5.80
-3.24
-14.15
-26.73
-40.13
-52.80
-62.77
-68.21
-67.98
-62.06
-51.61
-38.62
-25.30
-13.46
-4.09
2.63
7.04
9.67
10.91
11.03
10.21
8.68
6.76
4.78
2.98
1.41
-0.15
-2.08
-4.74
-8.33
-12.83
-17.94
-23.21
-28.19
-32.57
-36.30
-39.65
-43.25
-47.95
-54.46
-62.95
-72.77
-82.56
-90.85
-96.73
-100.28
-102.51
-104.80
-108.12
-112.79
-118.49
-124.75
-131.25
-137.75
-143.76
-148.24
-149.70
-146.71
-138.65
-126.05
-110.31
-93.11
-75.70
-58.63
-41.88
-25.38
-9.31
5.79
19.24
30.61
39.92
47.46
53.64
58.68
62.60
65.40
67.28
68.83
70.89
74.15
78.84
84.53
90.31
95.17
98.36
99.63
99.10
97.14
94.13
90.42
86.42
82.76
80.29
79.92
82.38
87.84
95.65
104.40
112.13
117.08
118.41
116.85
114.61
114.70
119.58
129.81
143.29
155.56
161.09
154.96
134.31
99.00
51.49
-3.73
-60.95
-114.03
-157.33
-186.82
-201.21
-202.36
-194.84
-184.48
-176.44
-173.70
-176.55
-183.32
-191.77
-200.17
-207.54
-212.89
-214.52
-209.89
-196.42
-173.04
-141.16
-104.67
-68.61
-37.24
-12.42
6.60
22.33
37.45
53.42
70.07
85.99
99.47
109.13
114.34
114.97
111.23
103.58
92.64
79.28
64.70
50.35
37.82
28.60
23.74
23.55
27.43
33.95
41.36
48.20
53.80
58.46
63.16
68.85
75.83
83.31
89.55
92.40
90.18
82.10
68.53
50.72
30.28
8.83
-12.18
-31.49
-48.04
-60.99
-69.94
-75.10
-77.16
-77.18
-76.21
-75.09
-74.49
-74.89
-76.54
-79.22
-82.04
-83.36
-81.22
-74.09
-61.43
-43.99
-23.54
-2.16
18.34
36.80
52.69
65.85
76.28
84.15
89.88
94.17
97.87
101.59
105.55
109.34
112.11
112.81
110.55
104.89
95.95
84.41
71.37
58.33
46.96
38.87
35.11
35.81
39.88
45.26
49.63
51.20
49.38
44.61
37.80
29.60
20.10
8.96
-3.98
-18.31
-32.99
-46.73
-58.39
-67.13
-72.37
-73.66
-70.90
-64.58
-56.00
-46.92
-38.97
-32.87
-28.26
-24.18
-19.85
-15.23
-11.03
-8.12
-6.84
-6.79
-7.03
-6.73
-5.72
-4.66
-4.64
-6.56
-10.59
-15.99
-21.52
-26.07
-29.21
-31.44
-33.86
-37.56
-43.10
-50.22
-58.02
-65.50
-72.09
-77.80
-83.12
-88.63
-94.67
-101.11
-107.48
-112.99
-116.66
-117.47
-114.51
-107.23
-95.72
-80.74
-63.62
-45.87
-28.87
-13.47
-0.04
11.44
21.22
29.53
36.64
42.84
48.49
53.90
59.35
64.92
70.47
75.59
79.76
82.46
83.41
82.67
80.67
78.08
75.51
73.25
71.16
68.75
65.53
61.24
56.06
50.48
45.08
40.25
36.05
32.25
28.54
24.64
20.36
15.63
10.39
4.69
-1.20
-6.69
-10.84
-12.64
-11.37
-6.93
0.08
8.48
16.92
24.32
30.19
34.59
37.88
40.39
42.26
43.38
43.64
43.08
41.99
40.86
40.04
39.60
39.29
38.69
37.50
35.61
33.27
30.79
28.43
26.19
23.88
21.28
18.23
14.70
10.80
6.64
2.27
-2.27
-6.92
-11.59
-16.06
-20.20
-23.99
-27.58
-31.24
-35.25
-39.85
-45.10
-50.85
-56.73
-62.10
-66.11
-67.87
-66.71
-62.43
-55.43
-46.60
-36.94
-27.22
-17.75
-8.46
0.84
10.12
19.03
27.04
33.74
39.15
43.72
48.16
53.03
58.45
63.92
68.54
71.28
71.32
68.40
62.81
55.27
46.60
37.45
28.15
18.71
8.85
-1.91
-14.19
-28.64
-45.57
-64.53
-83.99
-101.52
-114.40
-120.67
-119.81
-113.00
-102.51
-90.77
-79.48
-69.29
-60.05
-51.22
-42.35
-33.26
-23.97
-14.66
-5.63
2.67
9.70
14.90
17.87
18.41
16.57
12.55
6.79
0.08
-6.47
-11.63
-14.29
-13.92
-10.68
-5.29
1.31
8.36
15.50
22.66
29.81
36.73
42.84
47.34
49.51
49.01
46.07
41.48
36.26
31.39
27.61
25.20
24.09
24.04
24.77
26.07
27.73
29.50
31.07
32.19
32.78
32.95
32.93
32.82
32.53
31.78
30.43
28.64
26.99
26.21
26.72
28.38
30.40
31.77
31.69
29.94
26.78
22.70
18.04
12.95
7.60
2.33
-2.27
-5.55
-7.21
-7.41
-6.67
-5.52
-4.18
-2.45
0.04
3.54
7.93
12.81
17.67
22.19
26.27
29.99
33.43
36.57
39.27
41.34
42.63
43.06
42.59
41.12
38.40
34.07
27.78
19.44
9.31
-1.94
-13.40
-24.10
-33.33
-40.72
-46.24
-50.11
-52.51
-53.62
-53.46
-52.07
-49.52
-45.97
-41.58
-36.56
-31.10
-25.40
-19.65
-14.07
-8.83
-4.08
0.11
3.68
6.51
8.38
8.95
7.93
5.22
1.02
-4.07
-9.23
-13.61
-16.61
-17.95
-17.67
-15.90
-12.76
-8.30
-2.71
3.70
10.30
16.32
21.11
24.35
26.16
27.09
27.87
29.11
31.09
33.64
36.19
38.01
38.52
37.48
35.05
31.69
27.74
23.32
18.33
12.63
6.49
0.59
-4.07
-6.71
-7.13
-5.82
-3.67
-1.42
0.63
2.66
4.92
7.27
9.03
9.17
6.81
1.63
-5.95
-15.07
-24.74
-34.20
-42.93
-50.52
-56.57
-60.69
-62.59
-62.31
-60.28
-57.29
-54.31
-52.23
-51.60
-52.47
-54.44
-56.75
-58.54
-59.07
-57.94
-55.08
-50.71
-45.21
-39.00
-32.44
-25.84
-19.47
-13.58
-8.35
-3.76
0.27
3.90
7.22
10.11
12.29
13.41
13.23
11.77
9.33
6.40
3.38
0.47
-2.41
-5.48
-8.95
-12.82
-16.89
-20.87
-24.51
-27.66
-30.34
-32.60
-34.56
-36.49
-38.76
-41.86
-46.17
-51.64
-57.55
-62.63
-65.36
-64.52
-59.56
-50.75
-38.95
-25.31
-10.92
3.43
17.32
30.61
43.35
55.64
67.44
78.60
88.74
97.37
103.97
108.13
109.57
108.25
104.36
98.31
90.72
82.36
74.03
66.51
60.40
56.07
53.53
52.35
51.82
51.09
49.57
47.14
44.08
40.87
37.80
34.79
31.39
26.96
20.89
12.77
2.37
-10.29
-24.90
-40.66
-56.33
-70.43
-81.63
-89.19
-93.09
-93.92
-92.44
-89.24
-84.55
-78.39
-70.84
-62.30
-53.42
-45.00
-37.64
-31.54
-26.53
-22.21
-18.20
-14.41
-10.91
-7.94
-5.59
-3.76
-2.21
-0.77
0.57
1.49
1.48
0.04
-3.09
-7.77
-13.54
-19.75
-25.89
-31.74
-37.36
-43.05
-49.09
-55.65
-62.69
-70.04
-77.38
-84.25
-89.95
-93.54
-93.99
-90.51
-82.89
-71.62
-57.65
-42.02
-25.52
-8.65
8.16
24.34
39.02
51.42
61.07
68.17
73.48
77.93
82.22
86.57
90.75
94.32
96.80
97.71
96.52
92.62
85.44
74.66
60.36
42.99
23.23
1.91
-19.97
-41.16
-60.07
-74.92
-84.17
-87.05
-83.82
-75.66
-64.12
-50.47
-35.31
-18.55
0.04
20.35
41.58
62.36
81.18
96.97
109.46
119.27
127.68
136.17
145.99
157.70
171.03
185.19
199.40
213.16
226.37
239.08
251.19
262.09
270.65
275.50
275.50
270.00
258.85
242.35
221.07
196.16
169.52
143.49
120.39
101.80
87.90
77.11
66.64
53.26
35.04
12.35
-13.00
-38.61
-62.60
-84.35
-104.43
-123.78
-143.38
-162.73
-179.84
-193.33
-203.06
-209.77
-214.27
-216.44
-214.53
-206.71
-191.07
-166.99
-138.15
-111.54
-94.68
-93.08
-108.69
-139.22
-180.04
-223.50
-259.49
-279.49
-277.96
-252.89
-206.97
-147.38
-77.31
-6.00
50.80
90.18
115.85
131.06
138.15
138.56
133.62
125.42
115.57
105.82
98.22
92.45
87.11
81.31
74.98
68.20
60.61
50.50
36.43
19.35
1.18
-15.50
-28.43
-37.28
-43.97
-51.23
-61.50
-75.87
-92.58
-109.05
-122.61
-130.96
-132.46
-126.01
-110.64
-86.17
-55.61
-23.53
4.24
22.50
28.26
21.07
2.50
-24.48
-56.59
-93.44
-135.21
-181.68
-231.29
-281.34
-329.34
-374.01
-415.20
-436.59
-425.98
-379.19
-303.71
-214.35
-124.97
-43.75
26.24
84.97
133.47
170.25
194.20
205.81
207.99
205.46
203.01
203.66
208.62
217.28
225.85
230.49
229.39
222.47
211.53
198.91
185.88
172.80
159.22
142.87
121.41
93.22
58.04
17.63
-24.34
-63.01
-92.51
-107.75
-107.21
-93.45
-72.50
-51.83
-37.89
-31.80
-34.52
-44.99
-61.00
-80.38
-101.06
-120.96
-137.77
-149.19
-153.67
-151.35
-143.21
-130.74
-115.35
-97.96
-79.18
-59.77
-40.70
-23.03
-7.68
5.13
15.66
24.15
30.66
35.20
37.86
39.07
39.44
39.49
39.39
38.72
36.76
33.07
27.98
22.55
18.13
15.64
15.41
16.61
17.52
16.44
12.57
6.47
-0.35
-6.05
-9.44
-9.53
-6.90
-3.45
-1.29
-1.53
-3.56
-5.32
-3.99
2.96
18.26
42.38
73.12
106.59
138.87
167.16
190.10
208.01
222.48
237.54
255.73
276.06
293.38
300.00
288.23
253.07
195.02
110.57
10.04
-86.62
-159.04
-197.49
-205.13
-192.06
-168.69
-142.11
-116.51
-92.26
-70.74
-53.84
-41.88
-32.00
-18.77
-1.07
20.42
40.48
53.02
52.85
38.33
11.92
-21.14
-54.96
-85.67
-111.14
-131.14
-145.07
-152.92
-155.54
-154.67
-152.68
-150.37
-147.89
-144.09
-137.76
-127.64
-113.49
-96.31
-78.00
-60.57
-44.90
-31.22
-18.69
-5.99
8.35
25.31
45.17
67.80
89.57
108.13
121.82
130.33
134.63
136.18
136.18
135.25
133.56
131.03
128.34
126.32
126.10
128.90
134.72
142.09
148.76
152.88
153.54
151.39
147.90
144.92
144.40
146.26
147.52
142.95
126.65
94.08
44.07
-20.49
-95.62
-170.03
-229.82
-265.19
-275.16
-266.38
-248.03
-226.88
-205.89
-185.16
-163.56
-141.44
-120.93
-104.54
-93.36
-86.81
-83.29
-81.39
-80.34
-79.03
-75.74
-68.74
-56.02
-36.09
-9.95
18.26
42.33
56.64
58.80
50.13
34.57
16.76
0.52
-12.50
-22.41
-29.79
-34.65
-36.25
-33.84
-27.28
-19.58
-12.80
-8.54
-7.39
-8.87
-11.80
-14.87
-17.28
-18.96
-20.35
-21.50
-22.16
-21.63
-18.95
-13.47
-5.27
4.81
15.51
25.67
35.14
44.53
54.93
67.31
81.93
97.94
113.54
126.38
134.16
135.50
130.00
118.43
102.49
84.38
66.31
50.03
36.62
26.45
19.41
15.03
12.61
11.40
10.59
9.47
7.55
4.70
1.20
-2.45
-5.70
-8.26
-10.15
-11.71
-13.36
-15.34
-17.58
-19.72
-21.35
-22.32
-22.85
-23.47
-24.71
-26.72
-29.12
-31.02
-31.28
-29.02
-23.88
-16.16
-6.63
3.86
14.66
25.36
35.81
45.84
55.13
63.19
69.50
73.82
76.32
77.61
78.42
79.46
81.19
83.84
87.48
91.99
96.93
101.36
103.68
101.82
93.71
78.05
54.89
25.94
-5.90
-37.22
-64.85
-86.64
-101.64
-110.01
-112.62
-110.85
-106.39
-101.10
-96.74
-94.21
-93.36
-92.98
-91.12
-85.92
-76.39
-62.91
-47.22
-31.66
-18.00
-6.96
1.92
9.99
18.67
28.85
40.65
53.32
65.70
76.78
86.34
94.87
103.46
112.99
124.00
136.80
152.02
165.38
173.77
176.47
174.47
169.06
160.41
148.43
133.49
116.09
95.48
68.25
31.08
-19.82
-83.85
-155.37
-224.95
-282.62
-321.47
-329.18
-304.92
-255.91
-192.35
-122.83
-53.37
12.30
71.43
121.52
160.09
186.65
202.12
208.91
210.49
209.33
206.81
203.22
198.13
191.00
180.70
166.71
149.13
131.39
115.64
103.11
94.10
88.35
85.25
83.40
81.47
78.49
73.97
67.20
57.89
46.38
33.56
20.62
8.11
-4.08
-16.61
-30.38
-46.48
-65.18
-85.55
-105.86
-123.97
-138.46
-149.04
-156.47
-162.23
-168.65
-178.30
-193.52
-215.46
-242.75
-270.69
-291.70
-297.40
-281.82
-244.32
-190.37
-129.96
-74.18
-31.57
-6.00
3.21
-0.51
-13.07
-31.14
-52.08
-73.35
-92.08
-105.26
-110.46
-106.73
-94.87
-77.25
-56.88
-36.33
-17.19
-0.00
15.27
28.62
39.63
47.48
51.52
51.69
48.81
44.35
39.81
36.14
33.22
29.64
23.01
10.82
-8.33
-33.50
-60.73
-83.99
-97.16
-96.55
-82.35
-58.06
-28.10
4.79
41.14
83.77
135.22
194.98
258.32
317.33
363.69
391.38
398.11
385.21
356.25
315.59
267.33
215.02
161.65
109.71
61.22
17.36
-21.84
-57.97
-93.89
-132.45
-174.67
-218.33
-257.82
-285.81
-296.18
-286.68
-259.99
-222.85
-183.49
-149.05
-124.00
-109.95
-106.48
-112.26
-125.52
-144.13
-165.33
-185.78
-201.97
-211.08
-211.80
-204.61
-191.86
-176.68
-161.93
-149.12
-138.07
-127.42
-115.70
-102.31
-87.67
-72.71
-57.83
-42.41
-25.13
-5.06
17.30
39.69
58.86
71.94
77.70
76.97
72.14
65.88
60.21
55.89
52.61
49.57
45.91
41.05
34.74
27.15
18.74
10.33
2.77
-3.25
-7.51
-10.15
-11.53
-11.79
-10.72
-7.91
-3.08
3.63
11.54
19.65
26.89
32.27
34.94
34.25
30.04
23.11
15.67
11.13
13.40
25.48
48.21
79.67
115.75
151.44
182.39
205.92
221.16
228.51
228.84
222.99
211.61
195.30
174.80
151.10
125.37
98.82
72.64
47.92
25.71
7.26
-6.15
-13.30
-13.75
-8.44
0.05
8.12
12.43
11.20
4.99
-4.03
-13.50
-22.43
-31.69
-43.20
-58.38
-77.04
-97.35
-117.06
-134.91
-151.27
-167.25
-183.25
-197.46
-205.66
-202.39
-182.57
-142.88
-82.60
-3.75
88.80
187.28
281.57
360.68
415.22
440.21
436.62
410.89
372.58
331.12
293.18
261.76
236.99
217.30
200.57
184.30
165.61
141.32
108.38
64.80
10.22
-53.97
-125.30
-200.88
-278.11
-355.10
-430.76
-504.95
-577.87
-648.92
-715.15
-770.43
-806.27
-814.28
-789.72
-733.88
-654.77
-564.90
-477.39
-402.39
-345.30
-306.91
-284.91
-275.34
-272.94
-270.95
-261.06
-235.00
-187.28
-118.03
-34.17
52.26
127.82
182.42
212.41
220.93
215.47
204.22
193.10
184.73
179.21
175.65
173.29
171.64
169.87
166.44
159.11
146.03
126.73
102.56
76.26
51.22
30.18
14.53
4.11
-2.51
-7.19
-11.59
-16.60
-22.19
-27.71
-32.35
-35.58
-37.48
-38.55
-39.55
-41.12
-43.68
-47.34
-51.85
-56.53
-60.28
-61.51
-58.28
-48.85
-32.27
-8.89
19.51
50.27
80.61
108.38
132.46
152.69
169.33
182.76
193.37
201.70
208.70
215.75
224.17
234.72
247.20
260.39
272.72
282.87
290.41
295.79
299.93
303.32
305.27
303.48
294.24
273.54
238.41
188.22
125.24
54.32
-18.51
-87.65
-149.28
-201.98
-246.57
-285.36
-321.18
-356.20
-391.06
-424.23
-452.15
-470.06
-473.65
-460.60
-431.57
-390.21
-341.85
-292.03
-245.17
-204.05
-169.89
-142.88
-122.51
-107.63
-96.49
-86.82
-76.28
-63.03
-46.12
-25.53
-2.00
23.31
49.15
74.31
97.69
118.33
135.47
148.58
157.46
162.14
162.94
160.41
155.30
148.49
140.85
133.05
125.40
117.87
110.24
102.30
94.08
85.75
77.52
69.38
61.02
51.76
40.67
26.80
9.50
-11.15
-34.11
-57.29
-77.90
-93.35
-102.08
-104.33
-102.02
-98.04
-94.97
-94.10
-95.14
-96.54
-96.55
-94.09
-89.10
-82.33
-74.81
-67.40
-60.64
-54.87
-50.38
-47.39
-45.92
-45.69
-46.17
-46.83
-47.29
-47.37
-46.86
-45.24
-41.57
-34.61
-23.27
-7.01
13.80
37.95
63.57
88.60
111.13
129.75
143.81
153.61
160.43
166.18
172.75
181.16
190.95
200.34
207.00
209.40
207.74
204.14
201.80
203.69
211.35
224.41
240.96
258.42
274.34
286.77
294.40
296.41
292.40
282.54
267.62
248.89
227.66
204.95
181.15
156.13
129.63
101.84
73.71
46.98
23.71
5.59
-6.46
-12.52
-13.37
-9.88
-2.55
8.72
24.55
45.43
71.10
100.14
129.96
157.36
179.47
194.48
202.15
203.91
202.74
202.80
208.99
226.02
256.84
300.95
353.02
403.38
440.44
454.47
440.99
402.26
346.00
282.12
219.22
162.31
112.83
70.18
33.55
2.86
-21.52
-39.87
-53.93
-66.78
-81.90
-101.81
-127.01
-156.07
-186.47
-215.89
-243.59
-270.80
-300.12
-334.28
-375.08
-422.83
-476.35
-532.91
-588.06
-635.61
-668.18
-678.77
-662.80
-619.92
-554.17
-472.90
-384.43
-296.11
-213.35
-139.66
-77.02
-25.91
14.89
48.29
78.22
108.28
140.43
174.49
208.70
240.60
267.30
285.62
292.27
284.84
263.40
231.41
194.68
158.41
123.73
86.40
38.94
-24.31
-102.31
-185.69
-259.90
-311.49
-334.07
-330.57
-310.50
-284.42
-258.79
-234.16
-207.15
-174.28
-135.21
-93.31
-53.89
-21.21
3.45
21.95
37.64
53.14
68.87
83.11
93.38
98.02
97.38
93.63
89.79
88.25
89.73
93.24
96.67
98.09
96.72
93.25
89.42
87.02
87.12
89.60
93.49
97.64
101.39
104.85
108.76
114.03
121.55
132.39
148.16
171.10
203.80
248.33
305.36
373.80
450.93
532.73
614.12
688.93
749.69
788.19
797.12
772.48
715.70
634.14
539.14
442.66
353.87
277.49
214.12
162.25
120.42
88.27
66.09
53.56
48.59
47.32
45.20
38.52
25.56
6.83
-15.52
-38.65
-59.79
-76.72
-88.06
-93.11
-91.82
-84.74
-73.21
-59.29
-45.70
-35.53
-32.00
-37.87
-55.13
-84.63
-125.82
-177.09
-236.11
-300.16
-366.56
-432.67
-495.64
-552.88
-602.41
-643.49
-676.90
-704.63
-728.97
-751.11
-770.34
-783.61
-786.45
-774.48
-745.06
-698.42
-637.78
-568.51
-496.57
-427.37
-364.92
-311.63
-268.57
-235.83
-212.98
-198.98
-192.14
-190.09
-190.10
-189.95
-188.62
-186.40
-184.53
-184.40
-186.53
-190.12
-192.93
-191.72
-183.09
-164.49
-135.00
-95.25
-47.30
6.00
61.26
114.94
163.71
204.76
236.34
257.88
270.14
274.55
272.51
264.53
250.45
230.38
205.92
180.83
160.54
150.32
153.31
169.52
195.87
227.40
258.85
285.38
302.95
308.11
298.16
272.03
231.53
181.84
130.76
86.72
56.21
42.25
44.12
58.33
80.32
105.99
132.42
157.71
180.31
198.33
209.77
212.92
207.00
192.56
171.27
145.12
115.85
84.65
52.16
19.07
-13.60
-44.72
-73.68
-100.76
-126.98
-153.07
-178.37
-200.39
-215.43
-219.87
-211.45
-190.14
-158.11
-119.11
-77.40
-36.89
-0.63
29.29
51.79
67.03
76.40
82.33
87.64
94.78
104.92
117.53
130.66
141.70
148.55
150.37
147.89
142.77
136.88
131.49
127.08
123.66
120.94
118.49
115.48
110.48
101.41
85.96
62.51
31.29
-4.87
-40.72
-69.64
-85.58
-84.88
-67.43
-36.50
2.61
44.31
83.93
118.10
144.30
160.34
164.06
153.70
128.58
89.60
39.37
-18.32
-79.28
-139.46
-195.36
-244.12
-283.39
-311.19
-326.03
-327.08
-314.73
-290.99
-259.30
