1593002737.00
64.000000
-0.00
-0.00
-0.00
-0.00
-0.00
-0.00
-0.00
-0.00
-0.00
-0.00
0.00
0.01
0.01
-0.00
-0.03
-0.05
-0.05
0.00
0.13
0.36
0.66
1.01
1.37
1.72
2.06
2.40
2.79
3.24
3.80
4.42
5.06
5.66
6.20
6.68
7.15
7.68
8.31
9.14
10.09
11.04
11.88
12.56
13.14
13.76
14.65
15.96
17.91
20.32
22.90
25.38
27.58
29.57
31.68
34.32
37.81
42.54
48.15
54.10
59.83
64.97
69.58
74.14
79.34
85.71
93.76
103.00
112.62
121.73
129.77
136.75
143.30
150.75
157.77
166.64
177.95
191.79
206.97
220.57
228.25
225.36
208.53
176.87
132.76
80.05
23.07
-34.94
-92.44
-149.16
-205.23
-260.37
-313.74
-363.87
-409.83
-450.91
-486.50
-515.74
-537.23
-549.22
-549.96
-538.37
-514.21
-478.67
-433.88
-382.45
-327.02
-269.84
-212.63
-156.66
-102.95
-52.37
-5.90
35.58
71.43
101.35
125.50
144.38
158.69
169.15
176.37
180.75
182.57
182.07
179.51
175.23
169.65
163.18
156.14
148.80
141.29
133.69
126.02
118.33
110.70
103.18
95.85
88.75
81.93
75.40
69.16
63.23
57.60
52.30
47.32
42.67
38.34
34.31
30.59
27.15
23.99
21.11
18.50
16.16
14.07
12.23
10.62
9.23
8.05
7.07
6.27
5.63
5.17
4.85
4.68
4.63
4.68
4.85
5.12
5.48
5.93
6.48
7.13
7.86
8.64
9.49
10.40
11.37
12.40
13.48
14.65
15.89
17.19
18.50
19.83
21.19
22.58
24.02
25.51
27.13
28.85
30.61
32.29
33.80
35.02
35.74
35.74
34.69
32.47
28.80
23.48
16.29
7.23
-3.57
-15.89
-29.39
-43.72
-58.20
-72.30
-84.81
-95.46
-103.81
-109.50
-112.24
-111.81
-109.00
-103.14
-94.08
-81.96
-67.21
-50.39
-32.23
-13.62
4.92
22.10
37.27
50.02
60.25
67.97
73.32
76.34
76.91
74.96
70.46
63.79
55.48
46.38
37.28
28.79
21.11
14.00
6.94
-0.60
-8.65
-16.89
-24.72
-31.61
-37.49
-42.97
-49.03
-56.80
-66.93
-78.98
-91.49
-102.30
-109.45
-111.81
-109.45
-103.30
-94.78
-85.33
-76.15
-68.24
-62.10
-57.09
-50.36
-38.24
-16.69
16.18
58.08
102.53
141.12
166.78
177.72
175.02
162.50
144.59
124.19
102.16
78.47
53.50
28.69
5.51
-13.98
-29.26
-41.25
-51.57
-61.79
-72.42
-82.73
-91.36
-96.99
-98.97
-97.56
-93.64
-88.27
-82.26
-75.63
-67.65
-57.25
-43.74
-27.08
-8.19
11.49
30.28
46.77
59.21
67.93
73.70
77.43
79.81
81.04
81.03
79.42
75.95
70.80
64.74
58.77
53.88
50.58
48.73
47.61
46.14
43.40
39.11
33.91
28.99
25.64
24.91
26.28
28.53
30.04
29.44
26.53
22.19
17.87
15.16
14.67
16.15
19.05
22.73
26.30
27.94
24.82
13.97
-5.30
-30.80
-56.55
-75.15
-81.31
-74.57
-59.45
-42.98
-31.03
-25.63
-25.15
-26.02
-25.44
-22.82
-19.36
-16.45
-14.35
-12.02
-7.97
-1.87
5.61
12.91
18.42
21.53
22.80
23.59
25.35
29.03
34.31
40.27
45.76
50.03
53.19
55.94
59.26
62.92
68.45
76.00
84.23
90.28
90.62
82.34
64.82
40.20
12.61
-13.20
-34.32
-50.52
-63.74
-76.07
-87.72
-96.05
-97.23
-87.58
-66.33
-36.50
-3.45
27.06
50.81
65.36
70.36
66.70
55.69
39.10
19.36
-0.46
-17.65
-30.76
-40.00
-46.68
-52.18
-56.96
-60.38
-62.34
-62.32
-60.75
-58.66
-56.66
-54.62
-51.91
-48.13
-43.30
-38.27
-34.15
-31.82
-31.42
-32.26
-33.12
-32.78
-30.69
-26.93
-22.21
-17.48
-13.56
-10.74
-8.64
-6.52
-2.90
2.02
7.79
13.65
18.82
22.77
25.39
27.02
28.08
29.09
30.22
31.57
33.02
34.29
35.15
35.46
35.34
34.99
34.86
35.10
35.74
36.42
36.46
35.13
31.89
26.72
19.75
11.97
4.20
-3.03
-9.77
-16.61
-24.31
-33.35
-42.91
-52.53
-60.91
-67.00
-70.31
-71.20
-70.78
-70.30
-70.82
-73.07
-77.70
-84.60
-92.67
-99.20
-100.23
-91.92
-72.47
-43.90
-10.96
19.63
42.37
54.91
58.58
56.94
53.61
50.55
47.87
44.85
41.00
36.93
33.86
32.72
33.41
34.86
35.67
34.72
31.94
28.08
24.46
22.18
21.69
22.58
23.86
24.47
23.80
21.92
19.52
17.55
16.77
17.39
19.00
20.78
21.94
22.03
21.19
20.06
19.49
20.16
22.21
25.34
28.62
30.98
31.65
30.56
28.57
27.54
29.58
35.63
44.28
51.69
53.03
44.83
26.78
2.15
-23.93
-46.66
-63.01
-71.63
-71.81
-62.97
-45.53
-22.43
0.25
14.63
14.46
-1.65
-29.01
-58.89
-82.47
-94.58
-95.32
-88.14
-77.73
-67.62
-59.44
-53.97
-52.47
-56.72
-67.95
-85.02
-103.30
-115.57
-114.50
-96.16
-62.36
-20.41
19.85
50.21
67.57
74.55
77.38
82.45
93.08
108.27
123.77
134.57
136.72
128.73
111.54
88.20
63.42
43.05
32.83
36.71
54.86
82.76
112.33
134.38
141.75
131.70
106.41
71.80
35.28
3.81
-17.81
-27.41
-25.31
-13.92
3.21
22.12
39.46
52.93
61.30
63.90
60.18
49.45
31.28
6.37
-23.59
-54.80
-82.76
-102.81
-110.97
-104.76
-84.17
-52.48
-16.02
16.75
37.50
40.30
23.80
-7.81
-45.64
-78.50
-96.88
-96.06
-77.87
-50.02
-22.91
-5.78
-3.66
-16.50
-40.18
-68.35
-94.24
-112.27
-118.99
-114.00
-99.96
-81.57
-63.45
-48.18
-35.02
-20.76
-2.35
20.93
46.77
71.10
90.37
103.23
110.73
115.70
121.69
131.91
148.31
170.54
194.96
215.08
223.92
216.96
194.71
162.97
130.51
105.45
92.36
91.45
99.91
114.00
130.52
146.97
160.92
169.57
169.97
159.53
137.03
103.08
60.37
13.41
-32.10
-70.44
-97.25
-110.84
-112.71
-106.97
-98.61
-91.75
-88.39
-88.26
-89.93
-92.05
-94.23
-97.08
-101.43
-107.55
-114.90
-122.46
-129.30
-135.11
-140.06
-144.52
-148.65
-152.31
-155.14
-156.79
-157.00
-155.42
-151.40
-143.98
-132.33
-116.33
-97.22
-77.46
-60.18
-47.97
-41.95
-41.12
-42.77
-43.35
-39.85
-30.99
-17.68
-2.72
10.27
18.41
20.97
19.85
18.71
21.04
27.67
36.51
43.54
44.90
38.84
26.40
10.46
-5.80
-20.22
-33.01
-45.09
-57.10
-68.89
-80.01
-90.45
-101.14
-113.61
-129.08
-149.66
-176.01
-207.11
-240.15
-270.95
-295.07
-309.29
-312.72
-307.33
-299.55
-296.48
-303.49
-322.29
-350.66
-383.84
-416.64
-445.00
-451.39
-423.51
-355.34
-250.68
-122.83
10.17
131.99
232.37
308.12
361.74
396.35
415.67
422.70
419.73
409.18
393.77
376.67
360.87
348.52
338.74
329.53
318.75
305.20
288.98
271.27
253.84
238.31
225.61
214.69
203.73
190.61
173.64
152.10
126.05
96.65
65.87
35.85
7.72
-18.00
-41.55
-63.51
-82.42
-99.04
-114.17
-128.74
-143.53
-158.36
-170.87
-176.50
-170.05
-148.43
-113.13
-70.19
-28.46
3.87
22.53
28.53
26.68
22.71
20.36
20.09
20.32
19.02
15.22
9.73
4.42
1.36
1.71
5.46
11.33
18.44
26.79
37.07
49.47
62.45
72.75
76.14
69.64
53.21
30.08
5.10
-18.01
-38.42
-58.03
-79.06
-101.34
-121.04
-131.96
-128.77
-110.24
-80.31
-46.46
-16.38
5.23
17.89
24.32
28.34
32.37
36.50
39.26
39.50
37.48
35.23
35.47
40.29
49.87
62.37
74.32
81.83
81.88
73.14
56.31
33.91
9.57
-12.90
-30.21
-40.50
-43.43
-40.09
-32.51
-22.97
-13.55
-5.69
-0.30
2.23
1.71
-1.68
-7.20
-13.40
-18.26
-20.04
-18.14
-14.58
-12.69
-16.21
-27.59
-46.42
-69.04
-89.52
-101.74
-101.57
-88.21
-63.94
-33.03
-0.01
31.58
59.62
83.02
101.07
113.23
119.20
119.51
115.56
109.28
102.36
95.52
88.13
78.69
65.69
48.40
27.34
4.15
-18.99
-39.88
-56.76
-68.51
-74.80
-76.10
-73.65
-69.20
-64.66
-61.66
-61.15
-63.31
-67.62
-73.19
-78.92
-83.79
-86.91
-87.72
-86.13
-82.60
-78.10
-73.77
-70.60
-69.01
-68.80
-69.28
-69.52
-68.53
-65.37
-59.31
-50.13
-38.58
-26.45
-16.20
-9.86
-7.82
-8.21
-7.25
-0.70
14.47
38.94
71.13
108.11
146.81
184.78
220.39
252.54
280.50
303.96
323.21
339.04
352.44
364.04
373.96
381.81
387.17
389.97
390.55
389.39
386.55
381.29
372.07
356.98
334.55
304.28
267.07
224.90
180.26
135.27
91.13
48.06
5.61
-36.64
-78.66
-119.86
-159.51
-197.19
-233.03
-267.62
-301.64
-335.64
-370.20
-406.39
-445.88
-490.10
-538.51
-587.13
-628.29
-652.38
-651.17
-620.92
-563.48
-485.03
-393.25
-295.05
-196.14
-102.06
-19.30
45.28
86.61
104.06
102.28
89.44
73.62
59.58
47.82
36.27
23.12
9.03
-2.63
-7.42
-2.01
14.59
40.92
74.13
111.09
149.02
185.70
219.24
247.86
269.73
283.32
287.63
282.33
267.94
245.41
215.49
178.07
132.26
77.53
15.49
-48.90
-107.67
-152.24
-176.77
-180.80
-169.41
-150.93
-133.26
-120.99
-114.91
-113.61
-115.84
-121.88
-133.31
-151.59
-176.48
-205.87
-236.29
-264.10
-286.07
-299.37
-301.11
-287.85
-256.05
-203.82
-133.11
-51.11
29.91
95.17
131.22
130.30
93.20
29.62
-44.57
-112.11
-159.09
-178.40
-170.60
-142.90
-106.42
-72.75
-50.48
-43.13
-48.11
-58.04
-63.47
-56.33
-32.95
3.98
45.66
79.77
94.48
82.88
45.50
-10.08
-72.00
-128.43
-171.25
-197.68
-209.61
-211.34
-207.19
-200.33
-192.85
-186.29
-181.97
-180.62
-181.64
-182.90
-181.24
-173.75
-158.95
-137.35
-110.94
-82.39
-53.66
-25.30
3.54
34.49
69.02
107.60
149.48
192.96
236.21
278.00
318.36
358.51
400.33
445.23
493.02
541.29
585.86
621.91
645.83
656.38
655.05
645.23
630.74
614.52
598.02
581.56
564.99
548.34
531.98
516.50
502.50
490.37
480.12
471.08
461.71
449.69
432.60
408.81
378.28
342.78
305.18
268.36
234.30
203.74
176.60
152.72
132.23
115.51
102.71
93.29
86.08
79.66
72.86
65.14
56.65
47.97
39.63
31.82
24.26
16.33
7.39
-2.91
-14.38
-26.33
-37.73
-47.52
-54.96
-59.78
-62.29
-63.22
-63.58
-64.38
-66.44
-70.23
-75.88
-83.25
-92.17
-102.56
-114.44
-127.85
-142.49
-157.60
-171.75
-183.07
-189.70
-190.38
-185.02
-174.81
-161.99
-149.23
-138.80
-132.04
-129.16
-129.69
-133.13
-139.54
-149.79
-165.09
-186.42
-213.93
-246.86
-283.71
-322.45
-360.52
-394.81
-421.80
-438.48
-443.41
-437.77
-425.13
-409.91
-395.20
-381.12
-364.60
-340.81
-305.57
-257.38
-198.11
-132.23
-65.41
-3.24
49.26
87.82
109.05
111.33
95.84
67.19
32.74
0.65
-22.82
-35.48
-39.76
-41.58
-48.18
-65.76
-97.73
-143.59
-198.50
-253.70
-298.05
-321.55
-319.75
-297.01
-266.22
-244.27
-244.57
-270.80
-315.14
-362.33
-397.23
-411.69
-407.01
-391.08
-372.71
-356.44
-341.34
-323.25
-298.71
-267.72
-234.04
-202.79
-177.36
-157.74
-140.41
-120.31
-93.30
-58.08
-16.59
27.04
68.33
104.07
132.89
155.67
173.92
188.96
201.52
211.67
219.34
224.53
227.39
227.74
226.19
222.96
218.68
214.88
213.88
217.85
227.10
238.62
245.00
238.21
210.92
161.21
94.87
24.36
-35.42
-72.69
-82.66
-69.22
-39.34
-1.33
39.59
82.32
128.34
179.27
234.82
297.36
355.13
403.36
436.76
451.47
445.74
420.13
377.31
321.54
257.77
190.11
123.84
62.11
6.59
-42.36
-85.09
-122.12
-154.03
-181.84
-208.08
-234.51
-262.68
-291.29
-315.04
-326.15
-318.04
-289.46
-246.09
-199.29
-159.72
-133.81
-121.08
-115.47
-109.01
-95.52
-72.59
-41.65
-7.13
25.43
50.20
63.07
63.21
53.43
39.08
25.41
15.65
10.63
10.69
17.25
32.79
58.18
89.27
115.69
124.04
104.56
57.56
-4.64
-61.90
-94.96
-93.50
-59.96
-6.80
50.21
98.66
132.42
150.55
153.80
141.91
113.94
71.10
19.62
-29.27
-63.06
-73.84
-62.40
-38.15
-14.60
-2.81
-6.84
-23.42
-45.71
-68.21
-89.91
-113.82
-143.87
-181.24
-222.71
-261.56
-290.35
-303.79
-300.21
-281.46
-251.44
-214.52
-174.24
-132.58
-90.11
-46.35
-0.39
48.46
99.98
152.70
203.89
250.13
288.22
315.87
332.11
337.16
331.95
317.79
296.22
268.99
238.05
205.23
171.74
137.72
101.98
62.56
17.81
-32.30
-85.15
-135.39
-176.16
-201.00
-206.10
-191.58
-161.13
-119.95
-72.07
-18.72
41.07
107.86
178.62
245.15
295.85
319.96
312.28
275.49
218.71
153.29
88.50
29.61
-21.00
-61.44
-89.03
-101.38
-98.75
-85.27
-67.29
-49.52
-31.87
-9.59
22.77
66.24
114.47
155.57
177.78
175.40
151.11
113.72
72.94
35.13
2.07
-26.98
-52.31
-72.65
-86.75
-96.16
-106.66
-126.53
-162.07
-213.07
-271.24
-322.76
-353.78
-356.01
-329.37
-280.61
-219.26
-153.22
-86.50
-19.62
47.93
115.25
178.86
233.74
275.51
302.19
314.57
315.16
306.51
290.09
266.07
234.45
196.12
153.76
111.71
75.03
48.15
33.79
32.12
40.60
54.81
69.94
82.55
91.56
97.76
101.92
102.54
95.36
75.62
42.24
0.85
-36.72
-57.27
-52.94
-26.07
11.11
41.67
51.55
35.01
-4.85
-60.31
-124.67
-195.42
-273.26
-357.87
-444.09
-521.14
-576.13
-599.58
-589.66
-552.79
-500.65
-445.04
-393.67
-348.82
-308.73
-270.68
-233.41
-197.78
-165.69
-138.48
-115.79
-95.69
-75.75
-54.10
-30.14
-4.53
21.75
48.30
75.92
106.57
142.47
184.99
233.52
285.10
334.90
377.55
408.72
426.60
432.61
430.83
426.16
421.98
418.07
410.23
391.90
357.35
305.04
239.07
167.77
100.29
42.94
-2.65
-38.52
-67.81
-92.41
-112.33
-126.81
-135.70
-139.67
-139.26
-133.55
-120.12
-96.53
-62.60
-21.76
19.66
55.09
80.89
97.83
110.04
122.26
136.69
151.47
161.39
160.31
144.02
111.93
67.02
14.36
-40.67
-93.63
-141.16
-180.60
-209.74
-227.01
-231.92
-225.35
-209.25
-186.29
-159.49
-132.16
-107.76
-89.11
-77.48
-71.90
-69.59
-67.37
-63.45
-58.33
-54.05
-52.30
-52.81
-53.12
-50.17
-42.46
-31.12
-19.36
-10.30
-4.78
-0.64
6.19
19.26
39.65
65.67
94.33
123.52
153.02
183.98
216.60
248.19
272.90
283.38
273.67
241.50
189.10
122.48
49.95
-19.31
-76.33
-113.46
-125.98
-113.41
-79.98
-33.47
17.44
65.56
106.29
137.15
156.18
160.62
147.20
113.65
61.03
-4.86
-73.98
-134.27
-174.71
-187.90
-171.65
-128.78
-66.23
6.15
76.87
134.41
169.16
175.88
155.58
115.96
69.65
30.36
8.64
8.92
28.91
61.17
96.10
124.41
138.84
135.19
113.26
77.55
37.13
3.20
-15.06
-15.25
-4.02
5.03
-2.47
-34.42
-87.82
-149.96
-204.45
-238.84
-249.29
-240.40
-220.65
-196.81
-170.87
-140.59
-102.59
-55.21
0.42
61.07
122.85
182.30
236.81
284.35
323.56
353.98
376.11
391.09
400.20
404.52
405.12
403.56
402.02
402.70
406.62
412.52
416.86
415.20
404.25
383.50
355.48
324.47
294.66
268.48
246.06
225.81
205.67
184.24
161.34
137.88
115.16
94.22
75.38
58.31
42.24
26.48
10.65
-5.13
-20.41
-34.64
-47.38
-58.50
-68.18
-76.76
-84.66
-92.22
-99.67
-107.03
-114.13
-120.55
-125.68
-128.72
-128.73
-124.80
-116.20
-102.56
-83.88
-60.61
-33.61
-4.12
26.24
55.35
80.86
100.51
112.45
115.56
109.71
95.65
74.85
49.01
19.48
-12.81
-47.31
-83.61
-121.00
-158.17
-193.22
-224.01
-248.76
-267.29
-280.88
-291.70
-302.18
-314.02
-327.64
-342.36
-357.11
-371.28
-386.18
-403.00
-422.02
-442.33
-462.36
-480.67
-495.92
-505.50
-504.35
-488.50
-454.67
-403.79
-343.23
-285.74
-245.76
-234.27
-254.93
-303.14
-372.93
-455.02
-538.54
-612.23
-665.85
-693.41
-696.54
-684.43
-670.28
-671.88
-699.81
-754.24
-826.53
-903.52
-973.39
-1029.35
-1069.44
-1055.18
-960.01
-772.69
-506.00
-195.60
115.10
390.59
611.00
771.28
876.32
929.72
935.80
905.48
850.99
786.61
726.64
681.93
656.57
646.62
637.27
613.16
564.28
489.19
396.49
302.23
223.61
171.04
144.42
132.00
121.61
106.57
87.23
68.66
56.39
52.46
57.12
67.99
79.16
87.12
91.45
94.65
100.62
113.55
138.67
180.60
239.70
311.07
388.35
463.51
527.97
573.43
585.82
558.27
493.16
415.33
338.38
267.42
196.69
121.87
40.34
-46.68
-131.79
-203.50
-249.19
-260.87
-234.77
-174.43
-90.79
-0.85
77.97
134.46
165.50
174.94
168.16
150.86
126.82
98.11
65.87
32.32
1.52
-23.23
-41.47
-57.52
-77.55
-107.21
-148.91
-200.98
-257.86
-310.80
-350.67
-369.99
-365.15
-336.05
-285.88
-219.50
-142.45
-60.34
21.10
96.00
159.03
206.47
237.53
253.17
256.16
250.23
239.06
225.26
210.38
194.81
177.53
156.16
125.21
78.50
12.01
-74.50
-177.85
-293.13
-415.95
-534.45
-633.79
-703.07
-739.12
-747.19
-736.85
-716.06
-687.29
-647.45
-600.83
-540.74
-464.36
-374.87
-279.45
-185.92
-99.76
-22.64
47.35
111.63
171.29
224.11
266.66
296.37
312.72
316.96
311.06
296.68
275.00
248.05
216.67
182.04
146.17
111.51
80.24
53.61
32.11
16.05
6.85
5.37
11.94
25.75
44.40
63.94
80.08
89.58
91.90
89.84
88.15
92.11
106.08
132.63
172.02
221.54
274.87
322.59
354.55
363.39
348.67
318.75
288.58
273.82
283.73
316.71
361.16
401.22
424.27
425.87
410.04
385.30
359.30
335.66
313.81
291.60
268.06
244.59
223.94
207.58
193.91
178.10
154.29
118.49
70.66
14.97
-41.23
-90.08
-126.40
-149.40
-162.25
-169.97
-177.02
-185.66
-195.82
-205.42
-212.21
-215.71
-218.41
-224.98
-240.48
-268.68
-310.82
-364.82
-423.99
-477.39
-512.02
-516.21
-482.67
-410.28
-303.95
-174.46
-40.27
77.48
163.35
213.48
233.82
233.67
220.47
198.75
171.42
141.19
111.76
87.08
69.65
59.38
53.81
49.67
44.45
37.00
27.50
17.56
9.40
4.65
3.41
4.37
5.71
6.03
4.69
1.78
-1.82
-4.66
-5.71
-4.89
-3.10
-1.64
-1.35
-1.85
-1.52
1.77
8.78
17.50
22.78
18.34
0.11
-31.32
-70.53
-109.56
-141.19
-160.91
-167.30
-160.78
-142.38
-113.50
-76.83
-36.97
0.15
29.15
47.49
56.13
58.47
58.20
57.66
57.44
57.21
57.23
57.90
60.27
65.33
73.39
83.71
94.32
101.67
101.69
91.25
69.76
40.19
8.29
-19.75
-39.85
-51.63
-57.91
-62.61
-68.17
-74.73
-80.42
-83.37
-83.27
-81.57
-80.35
-80.91
-82.74
-83.67
-81.24
-74.15
-63.11
-50.77
-40.53
-35.17
-36.04
-43.01
-54.82
-69.82
-85.90
-100.14
-108.82
-108.21
-95.98
-71.96
-41.00
-9.27
17.61
36.56
47.70
53.25
56.07
58.37
60.75
63.38
67.02
72.94
82.30
94.86
107.94
117.05
117.34
105.56
82.22
51.94
21.56
-2.45
-16.43
-20.50
-17.87
-12.92
-8.80
-6.71
-6.17
-6.75
-8.73
-12.99
-20.93
-32.85
-48.57
-67.20
-86.78
-103.93
-114.38
-114.02
-99.34
-72.63
-38.96
-4.38
26.68
52.84
74.94
93.89
107.96
113.40
106.43
86.75
58.77
30.23
8.77
-1.54
-2.02
1.78
3.70
0.47
-7.48
-17.33
-25.74
-30.59
-31.61
-29.92
-27.14
-24.09
-21.01
-17.44
-12.74
-6.50
1.52
10.91
21.12
29.92
35.73
37.53
34.99
28.56
18.86
7.36
-4.55
-16.18
-27.63
-38.90
-50.40
-63.00
-77.55
-94.52
-112.52
-128.07
-135.83
-130.46
-107.80
-68.01
-17.18
34.21
74.53
97.55
103.91
99.96
94.21
94.44
103.24
114.97
120.18
108.16
74.84
22.13
-43.76
-114.71
-180.10
-230.75
-261.43
-271.74
-267.07
-250.74
-225.67
-194.21
-157.70
-112.81
-55.67
14.91
96.38
180.35
262.84
340.71
409.83
445.28
426.35
355.56
259.12
176.25
103.35
31.64
-45.19
-128.46
-213.43
-288.95
-343.94
-371.61
-358.10
-306.67
-233.97
-163.77
-111.63
-81.79
-58.42
-28.38
14.15
68.89
125.33
175.60
214.19
238.03
245.34
237.33
215.66
182.62
141.22
89.44
25.92
-48.42
-127.42
-200.51
-254.31
-279.13
-272.08
-235.95
-183.03
-128.33
-83.52
-51.80
-29.62
-9.24
15.84
49.85
98.10
160.91
233.49
307.71
375.65
429.48
464.01
476.88
442.98
358.50
246.78
141.16
59.99
2.75
-41.53
-81.06
-120.97
-159.44
-187.71
-199.46
-195.20
-181.17
-154.20
-118.68
-83.72
-58.00
-43.66
-33.73
-21.16
-4.33
13.43
28.58
37.99
42.50
45.78
52.77
68.31
93.59
126.27
162.33
198.81
231.58
256.79
271.07
272.51
262.05
242.23
216.46
186.00
155.45
127.46
102.58
79.73
57.35
34.49
9.84
-16.93
-44.87
-72.02
-97.72
-122.21
-146.09
-169.88
-194.01
-221.27
-254.16
-293.79
-339.44
-389.48
-440.36
-485.45
-516.33
-525.67
-512.96
-480.74
-431.81
-367.90
-291.64
-207.80
-123.31
-47.44
9.39
34.54
21.91
-24.01
-90.01
-160.49
-222.66
-267.78
-292.08
-268.59
-190.95
-80.84
27.84
113.55
172.56
209.31
230.00
239.34
241.26
237.31
232.83
236.26
254.97
290.16
334.26
375.92
404.25
404.59
371.94
314.88
251.65
199.71
168.54
150.05
132.36
106.41
69.61
23.98
-27.29
-79.64
-131.75
-175.87
-203.91
-210.11
-196.85
-173.74
-151.60
-136.87
-127.88
-116.00
-91.58
-52.07
-4.13
37.90
59.50
53.90
25.05
-14.35
-49.67
-71.87
-81.57
-85.69
-92.29
-104.96
-120.03
-128.77
-123.63
-96.74
-48.56
11.19
67.40
105.16
116.33
102.19
71.22
34.55
1.41
-25.17
-47.05
-66.49
-82.51
-89.58
-77.76
-47.05
-5.51
35.57
65.42
78.27
75.60
64.41
54.43
53.97
67.26
94.18
133.00
179.23
225.95
264.75
282.67
273.60
239.23
192.32
141.31
93.92
54.09
20.92
-10.10
-44.93
-87.91
-141.56
-199.78
-255.33
-298.50
-320.68
-317.27
-289.03
-242.68
-188.40
-136.36
-94.15
-65.49
-48.69
-39.43
-33.93
-29.18
-23.29
-15.49
-3.71
11.61
25.34
30.32
20.65
-4.81
-39.15
-70.74
-88.17
-84.13
-59.09
-20.88
20.01
55.07
79.58
95.44
106.12
115.80
129.98
153.72
190.94
243.94
312.31
390.88
472.70
548.02
595.24
598.06
553.47
474.81
384.83
312.03
260.02
224.10
197.22
173.21
148.99
124.83
101.27
77.47
51.24
19.16
-18.69
-60.40
-103.26
-142.81
-175.00
-197.99
-212.56
-221.75
-230.46
-241.46
-255.66
-272.39
-288.93
-302.50
-312.19
-319.52
-328.51
-344.95
-372.51
-411.20
-456.34
-498.67
-528.01
-536.97
-523.47
-491.32
-449.01
-405.39
-366.83
-335.39
-309.10
-284.97
-259.67
-229.91
-191.69
-141.06
-75.34
4.77
93.71
181.74
261.26
320.61
350.64
352.45
336.88
316.73
299.98
285.97
269.63
243.89
205.09
151.34
83.79
6.09
-76.09
-155.25
-223.17
-265.04
-289.00
-295.90
-290.83
-279.41
-266.17
-253.94
-243.85
-236.03
-229.97
-226.17
-222.11
-215.50
-203.37
-183.67
-156.41
-123.63
-88.31
-52.97
-19.58
13.56
48.29
86.39
128.17
171.73
213.69
250.33
279.16
299.20
312.75
322.97
333.82
349.33
372.90
406.38
448.96
496.56
541.95
577.47
596.85
597.72
582.33
556.13
525.26
494.18
464.63
436.03
406.99
376.02
342.05
304.21
261.71
214.00
160.90
102.80
40.57
-24.35
-89.21
-150.13
-203.13
-246.25
-281.35
-314.03
-351.07
-396.44
-448.33
-499.20
-539.25
-561.21
-563.77
-551.60
-532.36
-512.60
-495.10
-478.97
-461.52
-440.45
-414.59
-383.38
-345.67
-299.01
-240.12
-166.66
-79.42
16.07
109.10
185.94
233.73
245.24
222.41
176.46
124.51
83.73
65.39
72.02
98.81
138.03
183.67
233.19
286.06
340.17
389.59
425.10
437.80
423.60
385.73
333.48
277.73
226.23
180.73
138.29
94.04
44.98
-8.67
-64.34
-119.41
-173.09
-225.85
-277.84
-325.92
-364.70
-388.54
-394.68
-384.61
-363.28
-337.08
-310.15
-283.82
-254.71
-219.20
-176.07
-127.54
-77.64
-29.63
14.41
55.22
93.69
133.22
175.30
218.58
259.29
293.62
320.30
339.68
356.15
374.37
403.04
449.06
514.95
597.19
686.95
773.24
843.87
892.29
885.17
804.26
654.45
465.37
275.54
112.65
-1.27
-77.45
-128.94
-166.52
-193.93
-214.09
-232.31
-254.16
-284.45
-324.32
-371.93
-418.65
-455.01
-470.70
-461.98
-434.18
-399.80
-372.14
-357.45
-353.60
-349.65
-335.51
-307.14
-271.43
-242.96
-235.59
-254.31
-290.73
-328.23
-348.14
-339.58
-302.36
-245.90
-183.78
-127.20
-82.06
-47.66
-20.71
3.07
26.38
51.76
82.22
121.42
172.90
236.25
307.13
372.66
415.48
421.69
391.00
336.80
277.49
230.97
198.89
176.85
158.47
138.53
112.61
79.34
39.85
-3.73
-47.99
-92.38
-136.01
-178.33
-219.43
-262.49
-310.57
-365.18
-424.91
-483.10
-533.17
-567.51
-580.57
-556.18
-491.84
-399.29
-299.09
-220.28
-165.05
-127.73
-100.97
-76.60
-50.84
-24.38
1.84
28.29
56.67
90.49
129.70
172.92
218.38
264.51
309.44
353.38
398.40
446.23
496.72
543.48
577.14
589.38
576.02
538.13
482.33
418.57
356.31
301.76
254.63
210.21
162.86
108.78
47.21
-19.58
-88.28
-156.78
-224.48
-291.46
-355.34
-410.12
-448.60
-467.40
-470.71
-468.69
-472.71
-488.37
-511.66
-530.32
-530.59
-503.92
-451.77
-384.30
-312.71
-244.84
-183.61
-128.52
-78.69
-35.32
0.92
29.83
52.68
74.91
102.58
138.78
181.99
226.96
266.08
295.93
316.30
329.53
343.16
365.59
402.20
452.88
512.09
569.01
615.06
643.38
629.93
561.77
443.70
298.42
154.46
43.07
-40.48
-109.03
-173.19
-237.35
-298.37
-346.77
-374.28
-378.87
-365.14
-343.55
-322.01
-305.69
-296.23
-289.52
-279.16
-261.12
-236.35
-208.60
-183.07
-161.07
-141.80
-123.89
-104.79
-81.65
-53.72
-23.79
5.67
33.29
60.66
90.24
123.46
160.15
199.41
237.93
269.87
292.98
309.78
325.97
346.73
373.68
403.97
433.46
456.62
466.40
460.83
443.15
418.29
390.41
361.83
320.94
263.08
207.95
164.74
131.85
109.36
95.27
85.00
72.08
49.53
13.66
-37.08
-103.85
-181.72
-259.44
-323.42
-361.26
-366.00
-339.28
-290.07
-233.54
-187.70
-163.84
-163.16
-179.35
-202.91
-225.96
-245.04
-260.13
-273.83
-290.43
-311.98
-337.61
-364.85
-390.25
-410.18
-421.45
-421.70
-410.69
-390.88
-365.21
-335.78
-303.71
-269.48
-234.06
-199.49
-168.32
-142.40
-121.49
-102.14
-78.90
-46.48
-1.80
55.03
120.85
190.05
255.61
310.33
348.03
365.16
362.10
343.46
316.75
289.65
266.86
248.50
230.87
209.29
181.78
151.26
125.07
112.01
118.28
144.42
184.75
229.23
266.82
289.04
291.95
276.35
246.35
207.49
164.90
122.17
81.28
43.01
7.81
-24.13
-52.96
-79.94
-107.91
-140.44
-179.89
-225.45
-272.48
-314.07
-343.98
-359.18
-360.50
-351.21
-334.61
-312.37
-284.87
-252.72
-218.09
-184.49
-154.63
-127.93
-99.73
-62.80
-11.49
54.28
127.17
194.07
240.54
255.85
236.73
188.64
124.17
59.15
8.67
-16.53
-12.72
15.93
58.70
101.57
132.17
144.44
140.67
129.88
122.89
126.83
142.10
163.62
184.01
197.27
200.59
193.78
177.58
152.26
117.21
72.31
19.58
-37.63
-95.78
-152.03
-203.83
-247.87
-279.96
-296.32
-294.72
-274.91
-239.74
-194.36
-144.76
-95.94
-50.63
-9.61
26.87
59.46
91.36
127.43
173.07
231.70
302.72
380.72
456.39
518.59
548.16
533.45
476.85
395.97
314.41
249.24
205.21
180.40
164.73
150.97
137.32
124.19
111.18
95.22
72.53
40.87
1.23
-42.75
-85.04
-119.06
-140.89
-150.79
-152.99
-153.30
-156.16
-162.89
-172.32
-181.65
-188.24
-191.37
-192.66
-195.33
-202.55
-216.32
-237.49
-267.03
-306.24
-356.21
-416.59
-483.62
-549.67
-604.46
-638.04
-644.57
-624.72
-585.26
-536.39
-488.17
-447.16
-415.39
-390.68
-368.52
-343.92
-313.05
-273.43
-223.80
-164.20
-96.46
-25.26
41.75
96.07
132.01
150.54
160.20
173.43
199.37
237.22
274.85
294.32
282.56
238.78
176.44
117.12
80.59
76.54
102.04
144.74
189.05
222.96
239.04
234.97
212.86
178.78
141.49
110.22
91.69
88.14
99.76
123.60
155.78
192.94
232.50
272.67
312.20
350.47
387.60
426.74
468.85
510.89
546.02
566.26
566.43
546.30
510.57
448.55
359.49
250.82
136.74
32.67
-50.88
-110.25
-147.62
-168.86
-181.29
-188.39
-191.99
-192.55
-189.97
-184.27
-176.86
-170.27
-167.90
-173.31
-186.95
-208.58
-237.71
-271.52
-306.83
-338.92
-361.42
-367.82
-354.35
-320.76
-272.72
-219.76
-171.82
-135.73
-112.93
-100.30
-92.88
-87.18
-81.61
-76.82
-73.61
-71.98
-70.96
-69.05
-64.79
-56.98
-45.50
-31.14
-15.43
0.66
16.55
32.35
48.65
66.72
88.65
115.84
148.55
181.44
210.05
230.82
242.20
244.49
240.32
234.94
233.78
241.45
260.59
291.78
332.48
377.11
417.48
435.97
420.19
368.02
290.43
205.95
131.23
73.60
34.05
3.44
-25.18
-52.81
-77.74
-98.68
-117.47
-137.83
-163.88
-198.20
-241.64
-292.67
-347.23
-401.20
-450.60
-491.79
-520.86
-534.25
-529.86
-508.96
-475.59
-434.26
-389.92
-346.64
-307.14
-272.53
-242.40
-215.07
-188.40
-159.68
-124.38
-79.46
-24.56
37.28
101.05
161.95
216.73
264.05
304.77
344.08
387.47
438.54
496.19
554.18
603.36
634.54
641.31
608.14
532.08
424.23
307.14
202.48
121.65
65.31
27.90
2.28
-17.36
-32.84
-44.49
-52.92
-60.60
-70.64
-84.48
-102.37
-124.62
-152.13
-184.76
-223.24
-267.89
-318.57
-376.08
-438.78
-494.45
-528.33
-528.46
-490.87
-435.22
-372.77
-311.14
-255.43
-204.00
-155.94
-110.71
-68.25
-28.50
8.61
45.70
85.30
128.54
175.09
221.91
263.85
295.58
313.67
317.90
312.64
304.48
299.83
304.24
320.81
349.58
387.45
428.27
463.86
476.46
452.96
390.96
302.52
208.60
128.36
71.56
37.63
19.58
9.36
2.79
-3.06
-9.65
-18.04
-29.11
-42.76
-58.11
-74.41
-92.03
-111.98
-134.91
-163.01
-198.81
-243.23
-293.60
-342.76
-380.39
-396.31
-383.87
-344.50
-289.20
-235.65
-201.56
-197.52
-222.53
-264.69
-306.36
-330.80
-328.34
-298.87
-249.38
-188.99
-125.12
-62.10
-2.50
51.22
95.75
127.85
145.64
150.49
147.86
146.12
153.81
176.74
216.22
268.46
325.33
376.13
405.63
402.22
364.06
302.15
235.33
180.16
143.77
124.90
114.18
103.34
88.39
68.42
42.98
10.22
-31.64
-81.38
-132.97
-176.59
-202.38
-205.24
-188.40
-163.14
-144.86
-146.46
-173.60
-223.15
-285.38
-347.43
-397.15
-425.19
-426.80
-402.36
-355.95
-294.86
-228.13
-164.61
-110.69
-69.64
-40.25
-19.05
-1.89
16.56
40.47
71.35
107.53
144.97
178.60
206.32
228.24
246.42
266.61
295.33
337.17
392.48
456.71
520.21
573.44
608.00
606.32
560.50
476.77
374.52
276.36
204.01
154.21
117.59
86.03
55.22
25.43
-0.78
-22.85
-44.12
-70.38
-107.53
-155.71
-210.57
-265.10
-310.52
-339.87
-350.13
-342.60
-321.81
-294.71
-267.61
-247.43
-241.43
-254.26
-286.32
-332.75
-383.97
-428.02
-454.50
-456.69
-434.13
-392.34
-339.43
-283.34
-229.62
-180.64
-136.31
-95.76
-57.99
-22.61
10.24
40.79
69.87
98.44
127.16
156.52
187.44
221.71
261.24
306.39
354.23
398.40
430.75
444.55
437.53
413.07
378.62
342.60
310.95
285.44
264.16
243.35
218.86
186.98
144.67
90.21
24.86
-45.47
-110.06
-156.31
-174.73
-163.67
-131.39
-93.60
-67.70
-66.56
-94.95
-149.50
-221.35
-299.59
-373.36
-433.03
-470.87
-482.20
-466.88
-429.92
-380.39
-328.53
-282.60
-246.36
-218.82
-195.84
-172.36
-144.25
-109.42
-67.86
-21.29
27.39
74.89
118.31
155.93
187.93
216.89
247.04
282.66
325.64
373.58
419.42
453.47
467.22
457.26
427.10
385.65
343.58
309.02
284.85
268.85
255.50
238.92
214.61
180.01
134.30
78.64
16.83
-44.06
-94.28
-124.28
-127.86
-105.26
-63.82
-16.37
23.13
44.17
42.63
20.75
-16.03
-62.07
-112.70
-163.74
-210.23
-245.77
-263.72
-260.11
-234.95
-195.74
-156.36
-130.73
-125.25
-136.24
-153.49
-165.67
-167.63
-159.62
-145.45
-129.46
-113.87
-97.87
-79.31
-55.49
-24.05
16.41
66.28
123.71
184.08
240.28
284.00
308.00
308.95
289.01
255.15
216.62
180.73
150.42
124.09
97.52
66.28
27.58
-18.94
-71.38
-125.94
-177.75
-221.75
-253.74
-271.47
-275.20
-267.05
-249.71
-224.97
-193.21
-154.41
-109.67
-62.62
-19.59
11.78
24.75
16.18
-11.29
-48.90
-83.77
-103.35
-100.90
-78.04
-43.48
-8.61
18.32
36.00
49.58
67.07
94.38
132.01
176.29
222.50
266.96
307.24
340.73
363.57
371.46
361.86
335.10
295.82
252.34
212.91
182.70
162.03
146.96
132.71
116.48
98.44
82.70
76.22
84.99
111.55
153.89
203.43
249.53
289.84
322.65
341.08
339.34
313.79
265.10
198.33
122.69
49.15
-13.33
-60.43
-93.50
-116.18
-132.49
-145.48
-158.48
-173.76
-192.05
-212.63
-232.42
-250.03
-264.57
-275.55
-283.47
-291.67
-303.03
-318.49
-336.76
-352.27
-363.31
-370.93
-377.92
-387.87
-406.09
-434.89
-472.69
-515.19
-553.21
-583.53
-607.02
-625.76
-617.86
-566.38
-464.74
-323.46
-190.75
-82.14
-0.19
58.21
105.43
149.13
191.26
231.24
271.10
307.54
340.76
368.83
390.84
406.28
412.61
402.45
369.21
311.58
235.07
156.78
93.43
56.38
47.86
59.61
75.69
80.32
64.18
26.77
-20.48
-63.32
-90.19
-96.09
-84.61
-65.17
-47.86
-33.95
-22.80
-9.34
11.84
42.81
80.86
118.69
149.56
171.00
185.49
197.43
210.85
226.91
242.50
253.71
255.23
244.98
224.91
199.58
172.92
146.64
120.81
92.86
60.12
19.51
-29.12
-83.08
-138.68
-187.77
-225.56
-249.07
-258.54
-243.80
-200.31
-129.30
-38.06
62.11
158.48
236.43
294.47
333.02
353.46
356.11
342.63
317.06
283.10
241.17
190.46
131.06
63.25
-10.20
-86.23
-159.90
-224.40
-275.71
-316.09
-350.15
-382.40
-416.95
-455.62
-500.35
-551.91
-607.99
-641.18
-629.53
-559.79
-435.45
-276.80
-112.20
29.89
119.99
160.66
164.41
144.28
114.56
84.75
57.94
39.43
28.99
25.77
31.65
46.59
65.71
84.47
95.92
93.51
72.99
31.74
-29.32
-104.08
-184.78
-263.30
-326.19
-361.42
-359.47
-317.06
-240.11
-141.82
-38.40
60.85
132.12
174.32
192.23
195.53
194.50
195.94
201.90
210.86
218.74
221.27
218.55
211.41
203.26
197.90
196.21
195.21
191.47
180.96
161.01
132.76
96.98
54.34
5.36
-45.52
-89.43
-117.55
-126.91
-122.35
-111.53
-101.42
-94.94
-91.03
-86.77
-82.33
-76.92
-70.22
-61.44
-48.06
-27.01
3.44
42.32
86.13
130.09
168.14
195.13
208.31
203.43
179.72
139.89
89.37
34.38
-20.18
-70.95
-116.41
-155.66
-187.83
-211.48
-225.64
-230.64
-228.21
-222.67
-215.83
-208.90
-202.40
-196.28
-189.73
-181.98
-173.00
-163.53
-154.74
-147.31
-141.63
-137.37
-133.35
-129.25
-124.32
-118.13
-110.67
-102.34
-93.40
-84.32
-75.45
-67.03
-59.05
-51.35
-43.86
-36.65
-29.95
-23.86
-18.60
-14.40
-11.46
-9.95
-9.92
-11.48
-14.82
-20.10
-27.33
-36.43
-47.13
-58.92
-71.11
-82.78
-92.98
-100.85
-105.73
-107.19
-105.11
-99.72
-91.49
-81.09
-69.31
-56.99
-44.99
-34.08
-24.83
-17.58
-12.42
-9.12
-7.28
-6.38
-5.93
-5.58
-5.15
-4.66
-4.15
-3.63
-2.96
-1.90
-0.17
2.39
5.71
9.47
13.21
16.53
19.35
21.99
25.09
29.28
34.95
41.90
49.41
56.44
62.11
66.11
68.98
71.90
76.28
83.14
92.71
104.42
117.37
130.84
144.87
160.34
178.63
201.09
228.62
261.49
299.21
340.15
381.20
417.81
444.91
458.55
457.35
443.07
419.74
391.97
363.25
335.36
308.65
283.08
258.89
236.81
217.69
202.10
190.19
181.45
174.64
167.58
157.37
141.22
117.72
87.69
54.07
20.81
-8.69
-32.24
-49.53
-60.67
-65.63
-63.98
-55.39
-40.54
-21.87
-3.62
9.51
13.78
9.20
0.30
-5.33
-0.47
17.57
44.82
71.73
88.06
86.62
67.93
39.13
10.03
-11.83
-24.24
-30.09
-34.52
-40.04
-48.43
-56.98
-61.93
-60.89
-54.15
-44.42
-35.18
-28.97
-23.90
-22.25
-23.26
-26.70
-32.60
-40.21
-47.24
-50.13
-45.94
-30.14
-10.80
5.72
13.35
9.56
-2.84
-16.72
-23.52
-16.87
10.94
51.88
101.34
154.65
208.97
263.73
319.60
376.46
396.34
416.70
423.96
411.99
378.39
325.70
260.51
190.77
122.62
58.38
2.34
-54.10
-112.18
-169.65
-221.14
-260.56
-284.17
-292.67
-290.95
-281.56
-274.66
-272.54
-273.63
-274.33
-271.43
-263.94
-253.35
-242.14
-229.22
-216.95
-203.00
-184.66
-160.55
-131.74
-101.60
-74.72
-55.20
-43.87
-41.70
-45.93
-52.50
-57.43
-57.84
-52.59
-42.18
-28.10
-11.51
6.09
24.69
45.03
67.74
92.60
117.96
141.21
159.83
172.64
180.54
186.26
193.33
204.62
221.13
241.60
262.84
280.66
290.97
290.86
279.19
256.84
226.39
191.23
154.63
118.84
84.77
52.11
20.03
-12.27
-44.79
-76.61
-106.04
-130.97
-149.47
-160.46
-164.15
-162.25
-157.88
-155.00
-157.51
-168.28
-188.21
-216.00
-248.49
-281.88
-313.00
-340.13
-363.03
-382.15
-397.66
-408.83
-414.22
-412.27
-402.05
-383.54
-357.46
-324.73
-286.26
-242.99
-196.31
-148.44
-102.31
-60.89
-26.33
0.92
22.23
40.31
58.23
78.31
101.35
126.42
151.36
173.51
190.68
201.40
204.95
201.22
190.84
175.41
157.64
140.97
128.38
120.58
114.97
106.08
88.20
59.30
23.51
-8.96
-25.70
-17.98
14.15
60.83
106.11
135.06
140.54
124.86
97.19
67.79
42.91
22.96
4.31
-17.20
-43.58
-73.04
-102.39
-128.73
-150.00
-164.45
-169.95
-164.29
-146.44
-117.69
-80.11
-37.32
6.44
47.65
84.09
115.05
141.34
165.25
190.69
224.29
270.84
330.03
395.26
454.95
496.71
512.08
499.92
453.39
376.22
279.64
178.49
86.01
9.45
-49.99
-93.93
-124.31
-142.46
-148.40
-143.02
-131.62
-120.72
-116.04
-120.95
-136.02
-159.95
-190.50
-223.40
-254.68
-282.58
-307.75
-332.47
-358.63
-385.45
-413.73
-436.43
-442.84
-424.25
-377.60
-306.04
-217.49
-121.62
-27.20
60.35
132.19
180.60
201.98
198.32
177.01
148.24
121.53
102.90
93.57
92.17
95.06
98.39
98.13
90.50
72.11
40.32
-5.81
-63.68
-125.79
-181.22
-218.48
-230.03
-215.23
-180.86
-138.48
-99.76
-72.29
-57.85
-53.36
-53.87
-55.92
-58.71
-63.14
-70.02
-78.26
-85.30
-88.45
-86.93
-81.04
-72.67
-64.29
-57.50
-52.35
-46.97
-38.99
-26.59
-9.24
12.32
36.35
61.12
85.81
108.25
128.44
146.94
163.91
178.58
189.53
195.14
194.55
188.23
178.00
166.66
156.57
148.85
143.16
138.11
132.18
124.38
114.89
104.78
95.68
88.96
85.51
85.73
89.23
94.20
97.03
92.83
77.15
48.47
9.51
-33.09
-71.17
-98.27
-112.08
-114.64
-110.51
-104.08
-97.62
-91.27
-84.30
-76.48
-68.72
-62.48
-58.74
-57.29
-56.77
-55.43
-51.94
-46.16
-39.05
-32.14
-26.80
-23.62
-22.26
-21.62
-20.45
-17.93
-13.90
-9.00
-4.23
-0.45
1.97
3.25
4.07
5.28
7.45
10.83
15.27
20.29
25.42
30.30
34.69
38.43
41.30
42.77
42.30
39.27
33.22
24.02
11.91
-2.35
-17.64
-32.72
-46.43
-57.62
-65.41
-69.21
-68.79
-64.19
-55.60
-43.31
-27.23
-8.94
10.24
28.86
45.28
58.41
67.30
71.38
70.85
66.15
57.74
46.15
31.83
15.67
-1.85
-19.87
-37.22
-52.24
-63.62
-70.78
-73.86
-74.75
-73.88
-72.16
-69.91
-66.94
-62.40
-55.88
-47.74
-39.22
-32.15
-28.12
-28.59
-33.22
-42.83
-56.76
-72.91
-87.44
-95.22
-91.62
-74.37
-45.62
-11.35
20.58
43.87
55.96
58.39
55.20
50.29
45.88
41.94
37.59
32.26
26.71
22.34
20.19
20.18
21.11
21.44
19.80
15.81
10.19
4.39
-0.22
-2.91
-3.85
-4.00
-4.62
-6.72
-10.65
-16.00
-21.64
-26.18
-28.44
-27.81
-24.37
-18.89
-12.25
-5.36
1.17
7.23
13.01
18.88
25.06
31.44
37.59
42.92
46.93
49.51
51.02
52.11
53.47
55.77
59.56
65.42
73.88
84.64
95.95
104.35
105.44
95.77
74.91
46.44
17.12
-5.65
-16.98
-16.67
-8.97
-0.42
2.95
-1.85
-14.25
-31.37
-49.80
-66.78
-79.77
-85.82
-81.72
-65.58
-38.85
-7.09
21.47
39.16
42.48
33.91
20.93
12.52
14.68
27.61
46.95
67.07
84.06
96.90
106.60
113.93
118.42
118.76
113.50
102.44
87.02
70.14
54.94
43.87
37.84
36.00
36.26
35.76
32.64
26.84
20.15
15.40
15.27
20.83
30.58
43.43
55.23
61.53
59.38
48.33
29.97
7.05
-18.29
-45.56
-76.13
-113.15
-159.49
-216.59
-283.47
-356.25
-428.02
-489.47
-530.23
-541.13
-517.70
-462.43
-385.74
-304.17
-235.39
-192.03
-176.80
-181.83
-192.55
-194.81
-180.61
-150.27
-110.41
-69.46
-33.42
-4.15
19.32
38.01
51.52
56.43
49.29
29.29
0.49
-30.73
-58.08
-77.86
-89.70
-96.22
-101.04
-106.55
-112.74
-117.10
-116.20
-107.27
-89.71
-65.52
-38.69
-14.02
4.84
16.32
21.17
21.97
22.71
28.14
42.74
69.33
107.33
152.17
195.87
229.36
245.27
240.12
214.84
173.93
123.87
71.80
24.53
-12.40
-35.76
-45.67
-45.74
-41.88
-40.16
-44.38
-54.90
-68.96
-82.54
-92.32
-96.57
-95.25
-89.14
-78.99
-65.35
-48.76
-30.19
-11.23
5.80
18.40
24.50
23.23
15.52
4.01
-7.51
-15.22
-16.54
-11.05
-0.28
13.17
27.07
40.82
55.77
74.60
100.06
133.79
175.69
224.04
275.67
326.05
369.31
398.79
408.57
395.73
362.21
315.37
266.32
226.50
203.98
201.08
214.60
238.22
265.88
293.97
321.32
347.33
369.63
383.35
382.64
363.85
328.52
284.01
240.88
208.13
188.87
178.24
165.66
140.18
96.16
36.53
-27.82
-82.50
-115.69
-122.99
-109.21
-85.71
-65.48
-57.56
-64.02
-80.43
-99.60
-116.00
-128.37
-138.93
-150.24
-161.80
-168.85
-164.63
-144.34
-108.14
-61.44
-12.23
32.28
67.89
93.31
108.49
113.12
106.35
87.78
58.80
23.71
-10.30
-34.39
-40.24
-23.03
15.55
66.51
115.99
150.51
162.40
152.42
127.66
96.97
66.99
39.79
14.36
-10.77
-35.95
-59.98
-80.89
-96.26
-102.33
-92.80
-61.40
-6.03
68.03
147.46
214.52
253.18
254.59
220.31
161.85
94.59
32.17
-17.46
-53.27
-79.06
-99.97
-119.78
-142.59
-165.87
-183.83
-190.91
-186.26
-174.61
-161.98
-150.59
-139.65
-126.95
-111.07
-95.05
-84.43
-83.69
-93.72
-110.64
-126.70
-136.33
-137.34
-131.21
-124.77
-126.90
-145.02
-181.91
-234.25
-293.05
-349.78
-397.05
-419.45
-406.23
-355.07
-274.19
-178.75
-91.17
-15.06
50.25
105.40
149.87
179.48
188.67
173.62
132.96
70.95
-2.79
-78.67
-147.56
-200.88
-232.81
-240.31
-224.27
-190.04
-146.40
-102.59
-67.58
-46.49
-39.36
-43.62
-55.83
-73.04
-92.84
-112.68
-130.22
-142.62
-147.97
-145.66
-137.19
-125.37
-113.20
-102.78
-94.76
-88.39
-82.82
-77.90
-73.79
-71.58
-72.47
-77.07
-84.81
-93.94
-101.74
-105.13
-104.31
-99.31
-91.05
-80.85
-70.02
-59.40
-49.33
-39.75
-30.23
-20.70
-11.20
-2.40
5.18
11.58
17.43
23.70
31.32
41.58
54.92
71.22
88.94
107.14
125.78
145.72
167.85
192.71
221.48
253.94
288.84
322.42
352.44
378.18
400.54
420.57
439.40
460.47
486.60
519.27
554.84
589.25
617.44
634.90
637.77
624.93
601.41
573.51
546.12
517.29
485.22
448.86
410.04
371.94
320.59
250.50
162.82
87.04
31.74
-2.55
-25.46
-41.13
-52.24
-60.93
-66.47
-68.96
-69.65
-74.13
-84.83
-101.65
-122.09
-144.06
-166.22
-185.78
-201.37
-213.11
-225.14
-239.91
-258.35
-279.56
-302.72
-327.08
-350.75
-372.90
-394.27
-418.39
-446.71
-477.91
-507.27
-528.76
-536.86
-527.73
-500.40
-456.28
-398.68
-330.54
-255.35
-178.47
-108.16
-54.06
-23.82
-19.84
-37.95
-68.97
-101.54
-126.12
-137.39
-134.80
-121.38
-102.52
-84.24
-71.75
-67.90
-71.94
-79.12
-81.97
-72.66
-46.13
-2.19
53.71
111.63
159.69
187.19
187.44
159.71
109.64
47.45
-15.46
-70.20
-113.04
-145.29
-170.65
-191.36
-205.79
-208.56
-193.57
-158.04
-105.33
-45.29
8.50
43.47
52.80
37.98
8.50
-21.57
-38.69
-34.22
-6.82
38.65
94.15
152.08
207.50
258.03
302.68
340.25
369.54
390.26
403.79
412.80
419.48
423.58
422.20
411.24
388.12
353.86
312.64
269.41
227.24
186.10
144.37
102.04
62.89
33.44
19.13
20.11
30.06
39.41
40.52
31.69
17.07
2.73
-8.48
-19.29
-36.32
-65.67
-108.52
-160.65
-215.19
-267.06
-315.00
-360.33
-403.32
-440.68
-465.82
-472.42
-458.50
-428.71
-393.30
-364.46
-351.65
-357.73
-378.45
-404.24
-424.03
-429.01
-415.10
-382.85
-335.97
-279.50
-218.95
-160.81
-112.92
-83.77
-80.01
-102.98
-146.55
-197.98
-242.18
-267.31
-268.89
-250.35
-219.84
-185.53
-152.25
-120.66
-89.05
-55.87
-21.19
13.24
45.21
73.11
96.16
114.32
127.49
135.02
135.98
129.82
117.21
100.50
83.50
70.52
65.14
69.15
82.10
101.83
125.50
150.73
176.34
202.51
230.28
261.03
295.67
333.99
374.16
412.65
444.66
465.36
471.40
462.09
439.69
408.40
372.70
335.78
298.90
261.74
223.55
184.29
145.19
108.54
76.84
52.03
34.76
24.34
18.99
16.53
15.05
13.67
12.62
13.10
16.52
23.75
34.67
48.14
62.58
76.61
89.66
102.14
115.09
129.50
145.57
162.43
178.32
191.20
199.48
202.23
199.03
189.67
174.26
153.86
131.19
110.91
98.51
98.26
111.00
133.25
158.37
179.19
190.89
192.48
186.38
176.42
165.81
155.67
145.08
131.86
113.50
87.93
53.93
11.44
-38.36
-93.15
-149.89
-205.37
-256.41
-299.94
-332.94
-352.84
-358.23
-349.76
-330.47
-304.99
-278.09
-253.15
-231.17
-211.14
-191.36
-170.98
-150.94
-133.66
-121.83
-116.87
-118.19
-123.46
-129.86
-135.50
-139.93
-143.49
-145.90
-145.63
-140.24
-127.95
-108.85
-85.04
-59.31
-33.21
-6.51
22.00
52.36
81.98
106.00
119.50
120.14
109.39
91.82
72.65
55.49
41.47
30.05
20.44
12.58
7.06
4.24
3.44
3.00
1.14
-2.90
-8.09
-11.85
-10.92
-2.74
13.57
36.80
63.93
91.07
114.60
132.02
142.53
146.94
147.16
145.44
143.75
143.17
143.70
144.26
142.95
137.74
127.22
111.34
91.64
70.92
52.28
38.26
30.21
28.18
31.23
37.93
46.73
55.91
63.60
67.75
66.64
59.44
46.65
30.06
12.14
-4.84
-19.55
-31.84
-42.38
-52.17
-61.82
-71.37
-80.34
-88.10
-94.26
-98.78
-102.11
-104.74
-107.10
-109.30
-111.14
-112.19
-112.15
-111.00
-108.99
-106.48
-103.72
-100.69
-97.21
-93.26
-89.25
-86.03
-84.58
-85.59
-89.35
-96.13
-106.64
-122.25
-144.49
-173.96
-209.18
-246.14
-279.03
-302.02
-311.09
-305.17
-285.90
-256.69
-221.57
-184.60
-149.82
-121.11
-101.67
-92.90
-93.78
-100.75
-108.88
-113.42
-111.19
-101.00
-83.49
-60.44
-34.33
-7.82
16.89
38.69
57.62
74.06
87.51
96.09
97.35
90.46
77.83
65.20
59.41
64.91
81.38
103.82
125.31
140.42
147.54
148.60
146.98
145.17
143.48
140.66
135.22
126.64
115.83
104.64
94.96
87.90
83.44
80.45
77.40
72.94
66.13
56.46
43.82
28.37
10.73
-7.44
-23.66
-34.91
-38.60
-33.50
-20.15
-0.83
21.05
41.71
57.82
66.93
67.90
60.94
47.43
29.54
9.70
-9.85
-27.04
-40.00
-47.12
-47.32
-40.67
-28.69
-14.13
-0.04
11.18
18.64
22.91
25.30
27.04
28.66
29.92
30.46
30.26
29.84
29.95
31.08
33.02
35.13
36.72
37.49
37.71
37.77
37.60
36.38
32.95
26.61
17.82
8.32
0.36
-4.17
-4.49
-0.79
6.49
17.37
32.56
52.85
78.21
107.03
136.36
162.68
182.79
194.40
196.01
186.91
167.34
139.05
105.64
72.50
45.53
29.42
26.11
33.94
48.42
63.87
75.41
80.07
77.17
67.53
52.31
32.26
7.20
-23.76
-61.79
-107.62
-160.68
-218.17
-274.58
-322.20
-352.58
-359.04
-338.75
-293.81
-230.73
-158.31
-85.00
-16.70
44.36
99.25
150.80
201.59
252.17
300.09
340.68
368.86
381.48
379.02
365.53
346.87
328.14
311.86
297.71
283.85
268.66
251.85
234.17
216.27
197.59
175.96
148.71
114.12
72.74
27.52
-17.09
-56.57
-87.62
-108.64
-119.50
-120.71
-112.73
-95.88
-70.72
-38.73
-2.52
34.27
67.87
95.24
114.68
125.96
129.97
128.07
121.41
110.56
95.23
74.22
46.24
11.00
-29.64
-71.40
-108.36
-135.72
-151.96
-160.16
-167.38
-181.52
-207.77
-246.12
-291.77
-337.58
-377.80
-409.97
-434.88
-455.30
-473.37
-489.53
-503.11
-513.94
-522.65
-530.88
-538.67
-543.11
-540.32
-525.85
-496.86
-453.33
-397.93
-333.65
-265.08
-196.17
-130.57
-76.44
-43.07
-37.33
-59.58
-101.97
-148.12
-183.37
-196.69
-183.15
-150.48
-111.77
-78.93
-57.89
-48.03
-41.79
-37.88
-38.65
-48.35
-79.11
-141.37
-237.91
-361.04
-495.36
-619.17
-722.25
-801.87
-813.11
-726.67
-538.62
-277.27
9.84
249.08
435.65
579.11
688.02
766.82
814.44
825.01
797.76
740.32
666.36
594.79
533.05
481.94
439.05
395.34
342.15
275.84
198.90
118.37
46.19
-12.08
-52.65
-71.48
-68.66
-47.03
-11.24
32.93
80.00
128.50
176.15
223.12
271.10
318.77
360.87
390.02
399.67
387.38
356.96
314.32
265.93
216.26
165.75
112.02
53.15
-9.97
-73.16
-130.32
-177.30
-213.49
-241.97
-268.06
-297.33
-333.52
-377.20
-425.43
-472.14
-509.44
-529.79
-528.43
-505.13
-464.33
-413.40
-359.80
-308.50
-260.86
-215.58
-170.61
-124.87
-78.77
-33.54
9.90
51.67
92.62
133.78
175.80
218.99
263.39
308.33
351.70
389.25
415.08
423.15
409.85
375.91
326.50
269.37
211.70
157.79
108.45
62.49
18.78
-22.40
-59.56
-91.26
-116.90
-136.75
-150.66
-156.90
-152.60
-135.89
-108.58
-77.44
-52.43
-42.12
-49.04
-67.45
-85.70
-91.70
-78.51
-47.01
-4.36
40.52
81.71
118.34
153.30
190.03
229.64
269.86
305.77
331.93
344.19
340.98
323.36
294.34
257.37
214.72
166.87
112.75
51.23
-17.45
-90.53
-162.85
-227.99
-279.84
-313.88
-327.69
-321.24
-296.50
-257.21
-208.45
-155.46
-102.38
-51.39
-2.78
43.73
86.89
122.44
143.95
145.79
126.79
92.05
51.20
13.43
-17.81
-47.03
-83.24
-133.38
-195.85
-259.12
-306.44
-323.82
-306.95
-262.63
-204.26
-144.85
-91.59
-44.75
-0.65
43.93
89.28
133.22
173.03
207.70
238.49
267.34
294.88
319.14
335.57
338.25
322.33
286.09
232.73
170.68
112.03
69.59
53.47
68.25
111.85
176.11
248.90
316.77
367.49
392.00
385.85
349.95
290.50
217.30
140.96
70.25
10.31
-37.76
-75.86
-107.41
-136.39
-166.82
-202.42
-245.46
-295.16
-345.60
-387.11
-409.57
-406.28
-376.96
-327.57
-267.36
-204.73
-144.45
-85.52
-25.28
36.52
95.59
144.24
175.39
186.29
179.78
162.62
145.35
136.85
141.31
156.96
177.52
195.07
202.61
195.53
171.95
137.61
102.42
78.02
74.29
96.77
145.69
215.97
297.83
359.87
374.46
326.49
222.16
84.21
-62.09
-198.97
-317.75
-412.46
-487.47
-542.24
-574.82
-585.04
-576.69
-556.73
-532.55
-508.56
-486.81
-467.66
-446.81
-419.96
-385.05
-343.46
-299.23
-256.88
-219.52
-188.31
-163.19
-140.96
-118.47
-93.97
-67.82
-41.90
-18.23
2.06
18.89
32.64
45.06
57.62
70.95
84.83
98.60
111.87
124.90
138.24
152.25
167.35
183.42
199.85
215.88
231.04
245.38
259.64
275.01
292.88
314.38
339.55
366.60
391.65
409.48
414.92
404.84
379.38
342.11
298.72
255.09
215.46
181.57
152.93
127.64
103.44
78.56
52.14
24.28
-4.26
-32.44
-59.35
-84.25
-106.65
-126.01
-141.75
-153.36
-160.63
-163.47
-161.57
-153.76
-137.79
-111.01
-71.54
-19.61
41.60
106.31
167.42
218.13
253.44
270.93
270.93
256.09
230.56
199.02
165.71
133.54
103.55
75.09
46.67
17.29
-12.55
-40.51
-63.25
-77.72
-82.54
-78.60
-68.51
-55.55
-42.70
-32.14
-25.31
-23.00
-25.17
-30.69
-37.28
-42.19
-43.32
-40.27
-34.51
-28.52
-24.42
-22.94
-23.31
-23.94
-23.53
-21.77
-19.50
-18.14
-19.06
-23.10
-30.35
-40.40
-52.64
-66.48
-81.36
-96.69
-111.56
-124.58
-134.05
-138.27
-136.24
-128.04
-115.12
-99.78
-84.41
-70.63
-58.85
-48.74
-39.90
-32.49
-27.18
-24.70
-24.89
-26.46
-27.51
-26.52
-23.26
-18.67
-13.89
-9.08
-3.03
6.12
19.47
36.20
53.66
68.71
79.31
85.42
88.43
89.68
89.30
86.01
78.14
65.25
48.86
31.87
16.81
4.52
-6.26
-17.90
-32.18
-49.11
-66.79
-82.63
-94.58
-101.94
-105.06
-104.44
-99.89
-90.28
-74.06
-50.29
-19.52
15.84
51.89
84.21
108.90
123.60
127.96
123.38
112.44
98.06
82.89
69.06
57.94
50.06
45.01
41.56
37.88
32.49
24.93
16.01
7.31
0.27
-4.61
-8.03
-11.37
-15.78
-21.38
-27.15
-31.36
-32.46
-29.75
-23.64
-15.45
-6.75
1.30
8.29
14.43
19.92
24.23
25.75
22.19
11.60
-6.53
-30.62
-57.51
-83.72
-106.70
-125.42
-140.11
-151.26
-158.84
-162.03
-159.60
-150.75
-135.64
-115.50
-92.24
-67.97
-44.35
-22.37
-2.33
16.00
33.09
49.39
65.25
80.80
95.82
109.69
121.19
128.89
131.86
130.22
125.53
120.29
116.76
115.74
116.10
115.53
111.99
105.36
97.64
91.83
90.04
92.03
95.19
96.11
92.19
82.63
68.18
49.61
26.87
-1.10
-35.47
-76.28
-121.93
-169.86
-217.80
-264.62
-309.79
-351.78
-386.58
-407.81
-408.72
-385.19
-337.98
-273.05
-199.28
-125.21
-56.06
7.24
66.36
122.88
175.93
221.83
255.73
274.27
277.29
267.73
249.94
227.26
200.63
168.71
129.87
84.22
34.74
-13.28
-54.31
-84.82
-104.50
-115.65
-121.42
-123.99
-123.84
-120.25
-112.57
-101.15
-87.14
-71.68
-54.88
-35.93
-14.05
10.12
34.06
54.03
66.51
69.61
63.56
50.55
34.14
18.67
8.72
8.01
17.98
36.51
57.90
74.45
79.43
69.82
47.41
17.81
-12.11
-36.74
-53.13
-60.83
-61.06
-55.78
-47.34
-38.53
-32.48
-31.98
-38.61
-51.78
-68.51
-84.24
-94.37
-96.08
-89.43
-77.28
-64.14
-54.36
-50.69
-53.59
-61.55
-71.77
-81.15
-86.82
-86.65
-79.73
-66.53
-48.94
-29.77
-12.06
1.89
10.82
14.51
13.45
8.49
0.76
-8.18
-16.46
-22.39
-24.97
-24.54
-22.67
-21.59
-23.37
-29.22
-39.26
-52.63
-67.81
-82.99
-96.41
-106.66
-112.93
-115.24
-114.45
-112.12
-110.16
-110.45
-114.39
-122.27
-132.86
-143.17
-148.94
-145.79
-130.71
-103.18
-65.38
-21.28
24.98
70.64
115.19
159.90
206.40
254.87
302.92
345.76
377.89
395.35
397.46
387.38
370.83
353.88
340.71
332.63
328.22
324.67
319.30
310.30
296.92
278.97
256.33
228.83
196.62
160.35
121.28
81.02
40.92
1.47
-37.96
-78.63
-121.21
-164.48
-204.92
-237.32
-256.74
-260.61
-249.94
-229.11
-204.04
-180.19
-161.00
-147.64
-139.65
-135.94
-135.48
-137.37
-140.73
-144.72
-148.70
-152.44
-156.11
-159.88
-163.55
-166.54
-168.14
-167.88
-165.93
-162.79
-158.95
-154.37
-148.26
-139.37
-126.45
-108.65
-85.71
-58.13
-27.08
5.64
37.66
66.44
90.03
107.58
119.79
128.54
135.92
143.27
150.45
155.84
156.78
150.52
134.94
109.27
74.63
34.32
-6.47
-41.59
-65.68
-75.98
-73.30
-61.67
-46.58
-32.80
-22.87
-16.88
-13.56
-11.61
-10.35
-9.62
-9.15
-8.00
-4.85
1.16
9.55
18.31
24.50
25.62
20.78
10.96
-1.54
-14.22
-25.53
-35.12
-43.28
-49.95
-54.12
-53.89
-47.44
-34.18
-15.55
5.07
23.47
36.09
41.19
39.26
32.55
24.14
16.91
12.76
12.25
14.85
19.23
23.77
27.10
28.38
27.44
24.92
22.00
20.16
20.83
24.90
32.30
41.75
50.89
56.74
56.70
49.56
36.08
18.86
1.29
-13.65
-24.46
-31.51
-36.53
-41.76
-48.88
-58.39
-69.48
-80.44
-89.20
-94.02
-93.94
-88.87
-79.67
-67.81
-55.03
-42.91
-32.62
-24.75
-19.22
-15.41
-12.30
-8.89
-4.52
0.82
6.65
12.24
17.15
21.32
25.10
28.94
33.14
37.80
42.86
48.18
53.55
58.56
62.40
64.13
62.94
58.66
52.00
44.24
36.71
30.07
24.04
17.54
9.44
-0.76
-12.54
-24.54
-35.10
-42.85
-47.02
-47.48
-44.53
-38.59
-30.35
-20.80
-11.34
-3.58
1.15
2.24
0.04
-4.36
-9.51
-14.16
-17.54
-19.28
-19.20
-17.15
-13.17
-7.57
-1.24
4.54
8.56
10.55
11.65
14.32
21.22
33.64
50.47
68.00
81.36
86.54
82.28
70.60
55.89
42.97
35.00
32.67
34.41
37.91
41.30
43.86
45.80
47.46
48.83
49.44
48.81
46.93
44.43
42.11
40.28
38.30
34.82
28.69
19.74
9.21
-0.73
-8.07
-11.81
-12.42
-11.46
-10.83
-11.92
-15.18
-20.13
-25.75
-31.02
-35.14
-37.64
-38.34
-37.24
-34.42
-30.06
-24.40
-17.60
-9.78
-0.86
9.29
20.69
33.00
45.38
56.64
65.61
71.52
74.28
74.43
72.86
70.46
67.83
65.12
62.10
58.06
51.86
42.08
27.27
6.59
-19.69
-49.83
-81.03
-110.05
-134.24
-152.20
-163.93
-170.50
-173.44
-174.25
-174.10
-173.74
-173.34
-172.35
-169.58
-163.46
-152.83
-137.58
-118.87
-98.80
-79.50
-62.33
-47.70
-35.55
-25.76
-18.59
-14.20
-12.30
-11.86
-11.34
-9.28
-4.69
2.90
13.63
27.35
43.43
60.43
76.21
88.54
96.03
98.78
98.35
96.94
96.42
97.55
100.03
103.11
106.26
109.46
113.07
117.53
123.01
129.44
136.49
143.76
150.86
157.44
163.02
166.74
167.00
161.52
147.97
125.03
93.45
56.32
18.27
-16.21
-44.34
-65.79
-82.06
-94.81
-104.62
-110.56
-111.35
-106.91
-99.32
-92.27
-89.26
-91.78
-98.41
-105.62
-109.60
-108.24
-101.85
-92.60
-82.99
-74.50
-67.32
-60.88
-54.91
-49.77
-46.23
-44.63
-44.36
-43.89
-41.41
-35.68
-26.40
-14.29
-0.46
13.96
28.03
41.00
52.19
61.10
67.60
72.04
74.95
76.75
77.35
76.34
73.39
68.80
63.67
59.38
56.88
55.85
54.68
51.03
43.04
30.40
14.51
-2.06
-16.80
-28.18
-36.10
-41.41
-45.30
-48.55
-51.38
-53.76
-55.80
-57.75
-59.74
-61.47
-61.92
-59.78
-54.07
-44.65
-32.58
-19.75
-8.29
0.20
5.03
6.57
5.80
3.84
1.61
-0.35
-1.79
-2.71
-3.14
-3.32
-3.51
-3.96
-4.74
-5.59
-6.13
-6.00
-5.27
-4.52
-4.71
-6.46
-9.53
-12.47
-13.06
-9.27
-0.27
12.93
27.74
41.08
50.82
56.63
59.96
63.12
67.60
73.17
77.68
78.18
72.30
59.47
41.05
19.73
-1.26
-18.97
-30.98
-35.57
-32.03
-21.06
-5.15
11.74
25.37
32.83
33.69
30.08
25.45
22.76
23.19
25.92
29.15
31.35
32.12
31.94
31.48
30.82
29.26
25.91
20.40
13.20
5.34
-2.28
-9.33
-15.91
-21.97
-26.78
-28.97
-27.32
-21.63
-13.36
-5.32
-0.55
-0.91
-6.22
-14.35
-22.23
-27.24
-28.28
-25.93
-22.04
-18.75
-17.59
-19.17
-23.20
-28.80
-34.92
-40.33
-43.87
-44.43
-41.20
-33.77
-22.30
-7.39
10.09
29.15
48.72
67.56
84.17
96.95
104.33
105.02
98.30
84.24
63.87
39.40
14.04
-8.51
-25.02
-33.62
-34.44
-29.34
-21.05
-12.20
-4.40
1.73
6.30
9.59
11.73
12.80
13.08
13.06
13.28
13.82
14.21
13.50
10.83
5.91
-0.70
-7.76
-13.92
-18.29
-20.80
-22.10
-23.28
-25.31
-28.68
-33.32
-38.54
-43.46
-47.15
-48.97
-48.85
-47.24
-45.03
-43.17
-42.21
-41.98
-41.48
-39.08
-33.02
-22.06
-5.94
14.28
36.44
57.63
74.91
85.90
89.35
85.27
74.84
60.02
43.07
26.24
11.33
-0.39
-8.38
-12.84
-14.62
-14.99
-15.28
-16.48
-18.99
-22.57
-26.48
-29.87
-32.08
-32.78
-31.98
-29.90
-26.93
-23.58
-20.46
-18.19
-17.22
-17.50
-18.38
-18.71
-17.24
-13.08
-6.01
3.38
14.03
24.66
34.14
41.54
46.22
47.86
46.43
42.26
35.98
28.36
20.21
12.24
5.04
-1.02
-5.79
-9.31
-11.78
-13.46
-14.52
-15.00
-14.90
-14.36
-13.68
-13.32
-13.68
-14.83
-16.60
-18.55
-20.20
-21.16
-21.21
-20.22
-18.10
-14.76
-10.14
-4.29
2.63
10.25
18.07
25.52
32.17
37.81
42.41
46.03
48.54
49.49
48.10
43.45
34.98
22.80
7.93
-7.84
-22.28
-33.37
-39.75
-41.14
-38.20
-32.27
-24.95
-17.64
-11.46
-7.11
-5.13
-5.73
-8.67
-12.90
-16.42
-16.55
-10.85
1.88
20.67
42.36
62.54
77.12
83.94
83.54
78.76
73.43
70.77
72.19
76.94
82.66
86.47
85.94
79.90
68.44
52.82
34.96
16.97
0.68
-12.63
-22.27
-28.09
-30.13
-28.54
-23.56
-15.63
-5.54
5.48
15.99
24.56
30.10
32.00
30.17
24.91
16.89
7.05
-3.55
-13.81
-22.85
-30.24
-36.00
-40.55
-44.38
-47.92
-51.31
-54.47
-57.12
-58.90
-59.47
-58.51
-55.85
-51.59
-46.11
-40.02
-34.01
-28.58
-23.94
-20.06
-16.71
-13.66
-10.87
-8.41
-6.44
-4.96
-3.83
-2.68
-1.01
1.73
5.89
11.46
17.98
24.55
30.08
33.64
34.79
33.64
30.80
27.01
22.93
18.98
15.30
11.81
8.23
3.99
-1.62
-9.24
-19.01
-30.23
-41.35
-50.51
-56.33
-58.53
-58.13
-56.85
-56.28
-57.04
-58.56
-59.46
-58.47
-55.11
-49.93
-44.18
-39.09
-35.34
-32.77
-30.57
-27.84
-24.10
-19.59
-15.22
-12.17
-11.33
-12.87
-16.07
-19.55
-21.78
-21.59
-18.65
-13.41
-6.89
-0.15
6.06
11.49
16.31
20.80
25.15
29.39
33.29
36.50
38.74
39.83
39.74
38.66
36.98
35.24
34.05
33.83
34.57
35.79
36.55
35.84
33.01
28.10
21.92
15.73
10.76
7.65
6.25
5.55
4.25
1.26
-3.83
-10.49
-17.51
-23.56
-27.67
-29.59
-29.78
-29.02
-27.95
-26.90
-25.87
-24.74
-23.58
-22.67
-22.22
-22.23
-22.39
-22.18
-21.30
-19.72
-17.70
-15.60
-13.59
-11.57
-9.22
-6.35
-2.96
0.63
4.13
7.51
11.13
15.50
20.90
27.12
33.33
38.46
41.50
41.97
39.87
35.44
28.93
20.37
9.80
-2.46
-15.56
-28.18
-38.93
-46.65
-50.82
-51.38
-48.72
-43.41
-36.16
-27.98
-20.14
-14.01
-10.69
-10.46
-12.61
-15.58
-17.56
-17.24
-14.28
-9.39
-4.08
0.04
1.74
0.57
-3.23
-8.88
-15.37
-21.80
-27.53
-32.37
-36.44
-40.04
-43.49
-46.88
-50.10
-52.79
-54.62
-55.42
-55.40
-55.04
-54.83
-54.92
-54.80
-53.32
-49.05
-40.78
-27.90
-10.41
11.37
36.98
65.86
97.24
130.17
163.66
197.10
230.32
263.18
294.91
323.50
345.64
357.76
357.25
343.59
318.49
284.90
245.79
202.96
157.06
108.13
56.71
4.50
-45.57
-90.15
-126.51
-153.39
-171.33
-181.94
-187.01
-187.52
-183.53
-174.72
-161.35
-144.99
-128.37
-114.59
-105.88
-102.69
-103.56
-105.95
-107.28
-105.94
-101.71
-95.45
-88.56
-82.20
-76.82
-72.07
-67.11
-61.09
-53.56
-44.81
-35.51
-26.47
-18.09
-10.35
-2.96
4.23
10.91
16.37
19.71
20.53
19.08
16.31
13.42
11.39
10.53
10.47
10.50
10.00
8.81
7.14
5.39
3.71
1.83
-0.77
-4.54
-9.35
-14.35
-18.16
-19.50
-17.73
-13.20
-7.14
-1.14
3.43
5.91
6.27
4.95
2.44
-0.87
-4.65
-8.47
-11.78
-14.01
-14.70
-13.74
-11.34
-7.90
-3.74
0.92
5.92
11.08
15.87
19.56
21.42
21.07
18.71
15.23
11.72
9.05
7.45
6.35
4.85
2.15
-1.97
-7.01
-12.09
-16.29
-18.96
-19.79
-18.78
-15.99
-11.70
-6.45
-1.16
3.01
4.91
3.89
0.09
-5.64
-11.89
-17.26
-20.71
-21.72
-20.29
-16.74
-11.49
-4.97
2.19
9.33
15.80
21.34
26.27
31.38
37.50
45.02
53.48
61.67
68.18
71.83
72.17
69.40
64.15
57.11
48.89
39.94
30.55
20.86
10.83
0.17
-11.44
-24.21
-37.95
-51.83
-64.29
-73.38
-77.18
-74.56
-65.65
-52.00
-36.14
-20.76
-7.87
1.81
8.63
13.54
17.37
20.47
22.67
23.53
22.63
19.78
15.04
8.61
0.94
-7.29
-15.14
-21.53
-25.56
-26.79
-25.34
-21.85
-17.27
-12.54
-8.35
-5.09
-2.85
-1.55
-1.04
-1.16
-1.75
-2.78
-4.22
-6.16
-8.77
-12.13
-16.14
-20.40
-24.28
-27.06
-28.27
-27.90
-26.36
-24.42
-22.81
-21.95
-21.81
-21.82
-21.19
-19.12
-15.17
-9.50
-2.81
3.82
9.42
13.52
16.41
18.91
21.88
25.74
30.20
34.45
37.66
39.43
39.97
39.97
40.31
41.63
44.31
48.33
53.32
58.58
63.12
65.81
65.63
62.13
55.48
46.52
36.41
26.31
17.11
9.36
3.34
-1.09
-4.33
-7.15
-10.40
-14.67
-19.92
-25.33
-29.51
-31.11
-29.43
-24.85
-18.78
-13.11
-9.60
-9.20
-11.64
-15.55
-18.95
-19.92
-17.33
-11.26
-2.80
6.39
14.79
21.67
27.10
31.76
36.34
41.09
45.57
48.89
50.11
48.65
44.49
38.14
30.38
21.90
13.14
4.22
-4.95
-14.45
-24.07
-33.30
-41.40
-47.51
-50.96
-51.27
-48.36
-42.49
-34.28
-24.68
-14.81
-5.92
0.97
5.24
6.72
5.77
3.04
-0.79
-5.16
-9.73
-14.32
-18.83
-23.07
-26.89
-30.01
-32.20
-33.27
-33.05
-31.43
-28.49
-24.58
-20.41
-16.89
-14.87
-14.81
-16.57
-19.52
-22.72
-25.42
-27.24
-28.24
-28.68
-28.71
-28.16
-26.60
-23.51
-18.69
-12.41
-5.42
1.32
6.93
10.99
13.66
15.55
17.64
20.88
25.85
32.57
40.31
47.76
53.47
56.38
56.31
54.08
51.17
49.12
48.93
50.75
53.93
57.26
59.37
59.09
55.67
49.05
39.94
29.66
19.69
11.14
4.35
-1.13
-6.07
-11.02
-15.89
-20.14
-23.21
-25.04
-26.28
-27.89
-30.60
-34.44
-38.63
-42.01
-43.58
-43.06
-40.91
-38.12
-35.74
-34.48
-34.50
-35.56
-37.27
-39.31
-41.47
-43.53
-45.02
-45.33
-43.79
-40.09
-34.38
-27.32
-19.85
-12.77
-6.50
-1.16
3.23
6.55
8.35
8.05
5.14
-0.45
-8.28
-17.44
-26.95
-36.15
-44.76
-52.78
-60.04
-65.82
-68.86
-67.76
-61.62
-50.55
-35.69
-18.85
-1.86
13.95
27.86
39.54
48.82
55.47
59.26
60.23
58.74
55.40
50.96
46.04
41.02
36.09
31.34
26.74
22.38
18.33
14.70
11.53
8.68
5.80
2.38
-2.00
-7.52
-13.84
-20.24
-25.81
-29.80
-31.95
-32.44
-31.75
-30.35
-28.51
-26.21
-23.41
-20.25
-17.16
-14.85
-13.88
-14.45
-16.23
-18.51
-20.53
-21.85
-22.58
-23.21
-24.37
-26.48
-29.56
-33.27
-37.11
-40.61
-43.50
-45.73
-47.21
-47.79
-47.14
-44.94
-41.06
-35.79
-29.71
-23.26
-16.35
-8.11
2.87
17.78
36.66
57.96
78.71
95.46
105.39
107.26
101.64
90.50
76.32
61.26
46.45
31.94
16.98
0.86
-16.37
-33.37
-47.90
-57.41
-60.19
-56.20
-46.77
-33.65
-18.00
0.06
20.89
44.43
70.08
97.46
127.73
164.04
210.18
267.58
332.58
395.65
443.89
465.87
456.19
417.51
358.99
292.20
226.70
167.87
116.89
72.56
32.93
-4.03
-41.07
-82.30
-133.04
-197.75
-277.16
-366.35
-454.94
-529.83
-579.82
-599.41
-590.31
-559.99
-518.07
-472.42
-427.09
-382.51
-337.28
-290.54
-242.74
-195.46
-150.48
-108.87
-70.92
-36.59
-5.98
20.47
42.16
58.91
71.33
80.86
89.35
98.36
108.34
118.24
125.58
127.10
120.20
104.27
81.39
56.07
33.86
19.16
13.59
15.78
22.36
29.98
36.78
42.71
48.71
55.45
62.49
68.56
72.48
73.94
73.83
73.78
75.36
79.23
84.55
88.97
89.19
82.12
66.01
41.43
11.44
-19.32
-46.11
-65.69
-77.08
-81.41
-81.01
-78.41
-75.51
-73.47
-72.97
-74.43
-78.08
-83.64
-89.95
-95.03
-96.46
-92.15
-81.20
-64.27
-43.47
-21.64
-1.39
15.26
27.16
33.65
34.42
29.66
20.63
9.99
1.58
-0.84
4.91
18.54
37.55
58.33
77.41
91.94
99.63
98.72
88.54
70.65
49.62
32.61
27.31
39.21
69.53
115.03
169.43
225.76
277.88
321.01
351.43
366.47
365.14
349.07
322.67
292.08
263.17
239.61
222.07
208.83
197.27
185.43
172.80
160.05
148.15
137.57
127.86
117.83
106.23
92.46
76.79
60.22
43.94
28.77
14.85
1.75
-11.21
-24.53
-38.44
-52.89
-67.68
-82.63
-97.43
-111.33
-123.18
-131.38
-134.52
-132.00
-124.50
-113.84
-102.37
-92.07
-83.89
-77.80
-73.17
-69.35
-66.12
-63.56
-61.76
-60.46
-59.09
-56.97
-53.80
-49.91
-46.01
-42.93
-41.06
-40.23
-39.78
-38.98
-37.41
-35.19
-32.83
-30.96
-30.02
-30.10
-31.05
-32.60
-34.50
-36.54
-38.55
-40.24
-41.30
-41.37
-40.21
-37.75
-34.07
-29.44
-24.29
-19.12
-14.42
-10.62
-7.91
-6.18
-5.12
-4.34
-3.44
-2.17
-0.41
1.95
4.85
8.10
11.40
14.25
16.15
16.68
15.62
13.01
9.13
4.42
-0.64
-5.51
-9.76
-13.03
-15.11
-15.95
-15.67
-14.57
-13.12
-11.88
-11.31
-11.66
-12.85
-14.41
-15.79
-16.54
-16.49
-15.80
-14.85
-14.00
-13.51
-13.35
-13.34
-13.25
-12.89
-12.22
-11.32
-10.40
-9.64
-9.14
-8.86
-8.71
-8.65
-8.74
-9.22
-10.26
-11.86
-13.75
-15.48
-16.64
-17.07
-16.97
-16.81
-17.13
-18.21
-20.04
-22.29
-24.54
-26.39
-27.50
-27.54
-26.14
-23.00
-17.94
-11.24
-3.60
3.96
10.48
15.34
18.49
20.30
21.31
21.98
22.49
22.79
22.80
22.43
21.70
20.58
19.06
17.04
14.50
11.54
8.42
5.44
2.79
0.43
-1.81
-4.12
-6.64
-9.38
-12.20
-14.96
-17.44
-19.50
-20.96
-21.70
-21.75
-21.34
-20.86
-20.72
-21.13
-21.99
-22.85
-23.14
-22.36
-20.34
-17.26
-13.58
-9.80
-6.30
-3.28
-0.73
1.42
3.26
4.76
5.86
6.59
7.02
7.29
7.54
7.76
7.88
7.77
7.35
6.62
5.65
4.55
3.39
2.26
1.26
0.45
-0.15
-0.65
-1.25
-2.19
-3.63
-5.55
-7.71
-9.80
-11.58
-12.98
-14.14
-15.31
-16.69
-18.33
-20.04
-21.45
-22.12
-21.70
-20.03
-17.27
-13.74
-9.89
-6.13
-2.81
-0.15
1.74
2.81
3.11
2.80
2.09
1.29
0.69
0.44
0.56
0.93
1.27
1.36
1.05
0.34
-0.64
-1.64
-2.51
-3.17
-3.73
-4.42
-5.43
-6.83
-8.58
-10.49
-12.39
-14.19
-15.81
-17.23
-18.40
-19.18
-19.47
-19.17
-18.23
-16.62
-14.33
-11.31
-7.57
-3.33
1.06
5.12
8.40
10.63
11.76
11.96
11.50
10.68
9.69
8.59
7.41
6.16
4.90
3.81
3.12
2.96
3.35
4.04
4.65
4.81
4.29
3.15
1.65
0.13
-1.17
-2.18
-2.98
-3.74
-4.60
-5.67
-7.00
-8.58
-10.34
-12.13
-13.72
-14.81
-15.14
-14.52
-13.00
-10.80
-8.29
-5.89
-3.91
-2.56
-1.81
-1.55
-1.60
-1.87
-2.38
-3.19
-4.37
-5.85
-7.44
-8.82
-9.67
-9.78
-9.11
-7.87
-6.36
-4.94
-3.88
-3.25
-2.92
-2.61
-2.04
-0.98
0.57
2.41
4.16
5.43
5.85
5.19
3.42
0.70
-2.60
-5.93
-8.66
-10.26
-10.38
-9.03
-6.59
-3.63
-0.78
1.53
3.06
3.84
4.03
3.88
3.57
3.26
3.03
2.88
2.72
2.40
1.80
0.90
-0.18
-1.27
-2.15
-2.71
-3.00
-3.19
-3.52
-4.18
-5.22
-6.58
-8.07
-9.48
-10.60
-11.37
-11.92
-12.46
-13.27
-14.50
-16.11
-17.86
-19.34
-20.12
-19.87
-18.41
-15.80
-12.31
-8.36
-4.46
-1.05
1.57
3.35
4.45
5.21
5.85
6.48
7.00
7.23
7.00
6.26
5.13
3.87
2.79
2.15
2.01
2.27
2.71
3.05
3.03
2.50
1.43
-0.16
-2.21
-4.56
-7.05
-9.49
-11.72
-13.67
-15.37
-16.91
-18.41
-19.86
-21.12
-21.92
-21.95
-20.95
-18.79
-15.56
-11.54
-7.18
-3.05
0.36
2.69
3.92
4.21
3.90
3.24
2.44
1.57
0.61
-0.33
-1.07
-1.32
-0.91
0.15
1.65
3.25
4.63
5.63
6.38
7.16
8.29
9.92
11.97
14.09
15.83
16.81
16.85
16.01
14.52
12.61
10.51
8.38
6.41
4.83
3.92
3.91
4.85
6.56
8.68
10.83
12.68
14.02
14.75
14.83
14.18
12.75
10.48
7.44
3.85
0.03
-3.66
-6.89
-9.42
-11.22
-12.37
-13.06
-13.54
-14.09
-15.01
-16.48
-18.49
-20.77
-22.68
-23.41
-22.11
-18.30
-12.05
-4.14
4.30
12.09
18.42
23.02
26.12
28.24
29.85
31.18
32.26
32.98
33.20
32.79
31.68
29.84
27.22
23.88
19.98
15.65
10.99
5.95
0.45
-5.58
-12.06
-18.76
-25.34
-31.32
-36.20
-39.40
-40.47
-39.11
-35.46
-30.20
-24.42
-19.27
-15.60
-13.64
-13.08
-13.22
-13.35
-13.16
-12.78
-12.76
-13.79
-16.47
-21.08
-27.49
-35.12
-43.06
-50.25
-55.72
-58.79
-59.19
-57.13
-53.23
-48.23
-43.00
-38.25
-34.47
-31.79
-30.05
-28.77
-27.40
-25.41
-22.48
-18.56
-13.77
-8.29
-2.16
4.66
12.26
20.51
28.87
36.51
42.51
46.31
48.03
48.27
47.80
47.12
46.11
44.17
40.57
34.96
27.65
19.59
11.95
5.60
0.77
-2.99
-6.55
-10.67
-15.59
-20.83
-25.33
-28.03
-28.33
-26.35
-22.82
-18.65
-14.38
-10.04
-5.24
0.43
6.92
13.63
19.68
24.25
26.91
27.82
27.53
26.79
26.35
26.71
28.05
30.13
32.30
33.56
32.99
30.07
24.97
18.53
11.92
6.17
1.85
-0.96
-2.50
-3.06
-2.79
-1.86
-0.50
0.87
1.74
1.80
1.08
0.01
-0.77
-0.63
0.64
2.90
5.60
8.06
9.70
10.23
9.74
8.67
7.64
7.19
7.70
9.18
11.26
13.38
14.92
15.51
15.15
14.21
13.16
12.44
12.13
11.96
11.50
10.30
8.20
5.36
2.17
-0.99
-3.89
-6.51
-9.04
-11.66
-14.49
-17.46
-20.42
-23.15
-25.49
-27.24
-28.19
-28.03
-26.34
-22.71
-16.87
-8.84
0.90
11.57
22.19
31.81
39.69
45.41
48.80
49.86
48.79
45.91
41.74
36.88
31.94
27.35
23.37
20.04
17.25
14.89
12.85
11.02
9.25
7.29
4.89
1.92
-1.57
-5.34
-9.00
-12.25
-14.84
-16.76
-18.15
-19.26
-20.36
-21.60
-22.97
-24.13
-24.58
-23.73
-21.10
-16.57
-10.43
-3.33
3.86
10.34
15.53
19.08
20.94
21.32
20.62
19.37
18.10
17.16
16.71
16.71
16.99
17.40
17.84
18.30
18.78
19.26
19.66
19.86
19.78
19.36
18.57
17.42
15.91
14.07
11.93
9.50
6.81
3.83
0.58
-2.87
-6.27
-9.22
-11.16
-11.59
-10.20
-7.06
-2.71
1.99
5.96
8.24
8.20
5.66
0.93
-5.30
-12.08
-18.47
-23.56
-26.79
-28.00
-27.40
-25.54
-23.12
-20.77
-18.99
-18.08
-18.11
-19.00
-20.60
-22.66
-24.92
-27.16
-29.16
-30.86
-32.29
-33.54
-34.72
-35.94
-37.18
-38.36
-39.17
-39.09
-37.50
-33.89
-28.04
-20.23
-11.21
-2.05
6.13
12.43
16.36
17.85
17.19
14.87
11.47
7.54
3.62
0.20
-2.26
-3.30
-2.66
-0.30
3.47
8.01
12.49
16.02
17.98
18.07
16.44
13.49
9.75
5.65
1.46
-2.71
-6.83
-10.75
-14.12
-16.46
-17.31
-16.36
-13.66
-9.48
-4.30
1.38
7.15
12.74
17.99
22.72
26.69
29.50
30.72
30.03
27.44
23.41
18.81
14.62
11.60
10.02
9.59
9.60
9.34
8.34
6.53
4.13
1.54
-0.92
-3.05
-4.79
-6.21
-7.41
-8.51
-9.70
-11.13
-12.83
-14.54
-15.65
-15.28
-12.57
-7.06
0.99
10.51
20.00
27.97
33.46
36.29
36.93
36.16
34.60
32.62
30.21
27.32
24.02
20.70
17.89
16.07
15.47
15.91
16.97
18.09
18.89
19.19
19.06
18.57
17.66
16.13
13.64
9.98
5.03
-1.13
-8.35
-16.29
-24.35
-31.68
-37.19
-39.94
-39.47
-36.05
-30.63
-24.43
-18.54
-13.55
-9.63
-6.73
-4.88
-4.22
-4.88
-6.74
-9.24
-11.49
-12.57
-11.89
-9.47
-5.90
-2.10
1.00
2.75
3.02
2.06
0.30
-1.86
-4.18
-6.58
-9.05
-11.54
-14.00
-16.29
-18.34
-20.02
-21.15
-21.31
-19.96
-16.56
-10.84
-3.10
5.79
14.62
22.25
28.02
31.86
34.07
35.06
35.09
34.16
32.28
29.60
26.50
23.48
20.83
18.46
15.94
12.76
8.64
3.73
-1.47
-6.33
-10.38
-13.46
-15.73
-17.42
-18.79
-19.93
-20.84
-21.44
-21.71
-21.69
-21.52
-21.42
-21.56
-21.98
-22.49
-22.71
-22.08
-20.06
-16.32
-10.82
-3.90
3.84
11.70
18.95
25.01
29.43
32.06
32.98
32.56
31.35
29.97
28.99
28.74
29.35
30.77
32.88
35.51
38.44
41.35
43.78
45.18
45.15
43.61
40.82
37.32
33.71
30.39
27.46
24.73
21.95
18.81
15.26
11.47
7.81
4.76
2.84
2.36
3.39
5.79
9.18
13.15
17.36
21.52
25.44
28.91
31.74
33.66
34.30
33.06
29.13
21.62
9.84
-6.24
-25.79
-46.96
-67.31
-84.40
-96.30
-102.16
-102.25
-97.75
-90.36
-81.80
-73.48
-66.30
-60.64
-56.54
-53.80
-52.14
-51.23
-50.60
-49.69
-47.89
-44.72
-40.09
-34.38
-28.40
-23.00
-18.70
-15.39
-12.45
-8.96
-4.22
2.01
9.45
17.50
25.61
33.43
40.84
47.85
54.37
60.12
64.69
67.60
68.53
67.39
64.32
59.70
54.02
47.96
42.19
37.32
33.78
31.79
31.29
31.95
33.29
34.69
35.44
34.80
32.12
26.96
19.28
9.54
-1.48
-12.76
-23.39
-32.72
-40.35
-46.01
-49.46
-50.44
-48.80
-44.66
-38.52
-31.30
-23.99
-17.52
-12.28
-8.18
-4.79
-1.61
1.57
4.68
7.37
9.41
10.82
11.91
13.10
14.55
16.04
16.98
16.75
15.10
12.28
9.09
6.44
5.05
5.17
6.48
8.25
9.53
9.44
7.43
3.44
-2.03
-7.97
-13.22
-16.79
-18.23
-17.75
-16.19
-14.50
-13.35
-12.86
-12.59
-11.85
-10.01
-6.79
-2.29
3.20
9.29
15.62
21.80
27.42
31.91
34.79
35.80
35.04
32.88
29.93
26.66
23.40
20.27
17.30
14.53
12.14
10.28
9.07
8.54
8.64
9.26
10.33
11.72
13.17
14.26
14.41
13.16
10.41
6.58
2.52
-0.81
-2.74
-3.26
-3.02
-3.04
-4.18
-6.66
-9.94
-12.86
-14.18
-13.14
-9.85
-5.36
-1.27
0.83
-0.07
-4.17
-10.87
-19.07
-27.57
-35.26
-41.30
-45.11
-46.40
-45.12
-41.60
-36.45
-30.53
-24.72
-19.70
-15.81
-13.12
-11.56
-11.16
-12.09
-14.53
-18.30
-22.63
-26.21
-27.54
-25.57
-20.23
-12.49
-3.94
3.83
9.97
14.48
17.99
21.26
24.77
28.52
32.24
35.63
38.53
40.95
42.95
44.50
45.48
45.64
44.66
42.31
38.51
33.43
27.49
21.31
15.51
10.60
6.75
3.77
1.26
-1.27
-4.21
-7.69
-11.62
-15.71
-19.65
-23.20
-26.27
-28.85
-30.96
-32.65
-33.96
-34.95
-35.75
-36.50
-37.36
-38.49
-39.98
-41.86
-44.02
-46.13
-47.68
-48.09
-46.88
-43.89
-39.38
-33.86
-28.01
-22.37
-17.22
-12.61
-8.38
-4.33
-0.25
3.99
8.42
12.98
17.52
21.81
25.67
28.87
31.23
32.53
32.64
31.48
29.08
25.58
21.24
16.32
11.00
5.42
-0.33
-6.13
-11.75
-16.91
-21.41
-25.08
-28.03
-30.51
-32.89
-35.45
-38.31
-41.21
-43.64
-44.94
-44.51
-42.05
-37.63
-31.68
-24.91
-18.14
-12.07
-7.20
-3.75
-1.69
-0.73
-0.44
-0.31
0.07
0.91
2.13
3.47
4.64
5.41
5.75
5.79
5.71
5.64
5.61
5.56
5.46
5.31
5.24
5.34
5.62
6.02
6.48
6.98
7.56
8.28
9.07
9.72
9.93
9.57
8.77
7.99
7.83
8.77
10.98
14.19
17.84
21.28
23.97
25.56
25.93
25.07
23.05
19.94
15.84
11.01
5.88
1.05
-2.86
-5.41
-6.45
-6.19
-5.06
-3.55
-2.00
-0.61
0.57
1.45
1.94
1.90
1.23
-0.08
-1.91
-4.13
-6.57
-9.06
-11.48
-13.71
-15.73
-17.49
-18.98
-20.11
-20.64
-20.29
-18.78
-16.02
-12.15
-7.65
-3.10
0.89
3.97
6.02
7.09
7.37
7.09
6.49
5.81
5.33
5.26
5.72
6.72
8.07
9.54
10.85
11.85
12.46
12.74
12.73
12.43
11.83
10.87
9.55
7.97
6.33
4.91
3.92
3.45
3.34
3.32
3.03
2.23
0.77
-1.27
-3.74
-6.41
-9.07
-11.47
-13.30
-14.23
-14.01
-12.57
-10.19
-7.37
-4.64
-2.46
-0.99
-0.09
0.42
0.76
0.94
0.85
0.40
-0.38
-1.35
-2.19
-2.65
-2.61
-2.15
-1.51
-0.95
-0.70
-0.81
-1.27
-1.98
-2.85
-3.88
-5.00
-6.18
-7.29
-8.20
-8.85
-9.27
-9.63
-10.18
-11.18
-12.72
-14.76
-16.99
-19.01
-20.35
-20.60
-19.52
-17.15
-13.80
-9.92
-6.10
-2.80
-0.30
1.32
2.19
2.53
2.54
2.34
2.01
1.55
1.05
0.67
0.70
1.38
2.91
5.23
8.05
10.94
13.37
14.99
15.67
15.51
14.84
14.04
13.48
13.42
13.97
15.08
16.57
18.17
19.51
20.20
19.90
18.47
16.10
13.38
11.19
10.37
11.41
14.25
18.17
22.10
24.99
26.14
25.41
23.14
20.00
16.61
13.47
10.76
8.50
6.59
4.93
3.55
2.46
1.70
1.23
0.96
0.66
0.20
-0.55
-1.57
-2.80
-4.16
-5.68
-7.47
-9.65
-12.21
-15.04
-17.88
-20.45
-22.59
-24.31
-25.75
-27.02
-28.06
-28.62
-28.28
-26.72
-23.79
-19.64
-14.67
-9.44
-4.45
-0.07
3.54
6.39
8.52
9.93
10.61
10.49
9.67
8.40
7.10
6.21
5.98
6.46
7.39
8.41
9.17
9.52
9.45
9.11
8.58
7.85
6.81
5.35
3.49
1.40
-0.58
-2.15
-3.19
-3.87
-4.54
-5.63
-7.39
-9.69
-12.20
-14.37
-15.67
-15.73
-14.38
-11.65
-7.75
-3.06
1.95
6.76
10.87
13.90
15.64
16.08
15.45
14.11
12.47
10.87
9.57
8.67
8.16
7.94
7.92
8.00
8.08
8.09
7.93
7.49
6.76
5.69
4.30
2.64
0.82
-1.03
-2.69
-4.00
-4.84
-5.19
-5.24
-5.24
-5.50
-6.20
-7.37
-8.80
-10.06
-10.64
-10.02
-7.91
-4.29
0.44
5.64
10.53
14.41
16.91
17.99
17.97
17.24
16.23
15.18
14.19
13.25
12.31
11.38
10.55
9.95
9.66
9.72
10.01
10.37
10.58
10.52
10.19
9.62
8.89
8.01
7.00
5.81
4.48
3.07
1.66
0.28
-1.15
-2.72
-4.49
-6.38
-8.16
-9.42
-9.71
-8.72
-6.37
-2.93
1.02
4.79
7.79
9.63
10.28
9.96
8.93
7.47
5.71
3.76
1.75
-0.16
-1.76
-2.86
-3.37
-3.26
-2.60
-1.50
-0.13
1.30
2.53
3.29
3.40
2.81
1.58
-0.03
-1.80
-3.49
-4.96
-6.20
-7.33
-8.44
-9.68
-11.07
-12.49
-13.68
-14.29
-13.95
-12.39
-9.56
-5.64
-1.12
3.44
7.44
10.43
12.25
12.98
12.87
12.18
11.13
9.86
8.52
7.27
6.38
6.09
6.56
7.73
9.38
11.13
12.55
13.30
13.23
12.30
10.57
8.19
5.33
2.16
-1.15
-4.39
-7.37
-9.90
-11.95
-13.60
-15.12
-16.72
-18.59
-20.65
-22.54
-23.74
-23.73
-22.21
-19.16
-14.89
-9.90
-4.77
-0.02
3.97
7.00
9.04
10.16
10.55
10.52
10.41
10.57
11.22
12.39
13.84
15.25
16.21
16.54
16.32
15.98
16.19
17.54
20.39
24.66
29.97
35.75
41.42
46.48
50.52
53.12
53.80
52.20
48.21
42.18
34.85
27.00
19.25
11.87
5.00
-1.10
-5.83
-8.42
-8.28
-5.41
-0.50
5.41
11.41
17.11
22.54
27.77
32.35
35.20
35.01
30.94
23.25
13.40
3.56
-4.28
-8.99
-10.66
-10.27
-9.09
-8.03
-7.40
-6.93
-6.19
-4.93
-3.29
-1.79
-1.12
-1.82
-4.09
-7.74
-12.32
-17.30
-22.35
-27.32
-32.21
-36.91
-41.02
-43.90
-44.83
-43.41
-39.78
-34.60
-28.85
-23.48
-19.10
-15.84
-13.50
-11.72
-10.20
-8.87
-7.78
-7.10
-7.01
-7.52
-8.47
-9.50
-10.16
-10.03
-8.99
-7.30
-5.56
-4.47
-4.46
-5.55
-7.30
-9.14
-10.61
-11.68
-12.61
-13.74
-15.23
-16.98
-18.68
-20.14
-21.29
-22.22
-23.01
-23.55
-23.50
-22.45
-20.16
-16.71
-12.51
-8.18
-4.34
-1.35
0.65
1.81
2.34
2.50
2.42
2.13
1.54
0.56
-0.75
-2.17
-3.33
-3.93
-3.88
-3.37
-2.79
-2.61
-3.08
-4.26
-6.02
-8.16
-10.52
-12.95
-15.29
-17.29
-18.73
-19.49
-19.63
-19.41
-19.11
-18.95
-18.88
-18.67
-18.02
-16.68
-14.56
-11.74
-8.32
-4.38
-0.07
4.35
8.50
12.01
14.67
16.58
18.13
19.70
21.42
23.00
23.82
23.22
20.82
16.74
11.54
5.94
0.66
-3.78
-6.93
-8.46
-8.12
-5.83
-1.82
3.27
8.50
12.84
15.46
16.06
14.93
12.78
10.50
8.78
7.87
7.57
7.44
7.11
6.47
5.79
5.48
5.84
6.81
8.01
8.88
8.99
8.27
7.01
5.67
4.70
4.40
4.92
6.29
8.54
11.51
14.82
17.83
19.82
20.21
18.98
16.69
14.35
12.97
13.11
14.69
17.05
19.36
20.94
21.49
20.98
19.38
16.38
11.44
4.12
-5.52
-16.58
-27.32
-35.71
-39.99
-39.31
-33.90
-24.88
-13.84
-2.34
8.42
17.61
24.74
29.63
32.32
33.16
32.84
32.13
31.64
31.64
31.84
31.59
30.14
26.97
22.08
15.98
9.55
3.63
-1.13
-4.49
-6.58
-7.76
-8.48
-9.16
-10.07
-11.32
-12.87
-14.55
-16.15
-17.58
-18.85
-20.06
-21.34
-22.67
-23.90
-24.81
-25.25
-25.15
-24.50
-23.19
-21.11
-18.22
-14.84
-11.65
-9.59
-9.39
-11.13
-14.09
-16.86
-17.93
-16.36
-12.09
-5.96
0.76
6.89
11.60
14.51
15.55
14.76
12.15
7.84
2.14
-4.34
-10.73
-16.14
-19.86
-21.56
-21.31
-19.53
-16.85
-13.88
-11.18
-9.11
-7.85
-7.54
-8.23
-9.88
-12.37
-15.49
-18.84
-21.90
-24.07
-24.82
-23.81
-21.10
-17.15
-12.71
-8.64
-5.61
-3.92
-3.38
-3.55
-3.91
-4.11
-4.08
-3.91
-3.76
-3.65
-3.51
-3.17
-2.52
-1.61
-0.59
0.28
0.83
0.93
0.67
0.13
-0.55
-1.29
-2.12
-3.12
-4.45
-6.22
-8.51
-11.20
-14.05
-16.70
-18.73
-19.76
-19.55
-18.02
-15.25
-11.56
-7.41
-3.42
-0.25
1.64
2.13
1.52
0.45
-0.32
-0.17
1.12
3.45
6.41
9.54
12.45
14.89
16.69
17.78
18.04
17.32
15.53
12.71
9.03
4.81
0.43
-3.79
-7.69
-11.34
-14.91
-18.57
-22.36
-26.08
-29.37
-31.76
-32.89
-32.59
-30.99
-28.49
-25.69
-23.18
-21.29
-20.06
-19.13
-17.94
-15.91
-12.74
-8.55
-3.82
0.71
4.38
6.81
8.01
8.27
8.04
7.74
7.58
7.65
7.86
8.12
8.38
8.61
8.82
8.98
9.09
9.06
8.81
8.26
7.37
6.12
4.64
3.15
1.95
1.30
1.36
2.09
3.32
4.79
6.30
7.73
9.01
10.03
10.69
10.89
10.66
10.16
9.52
8.86
8.10
7.04
5.52
3.63
1.70
0.24
-0.32
0.10
1.16
2.24
2.69
2.02
0.08
-3.01
-6.90
-11.15
-15.31
-18.98
-21.80
-23.48
-23.87
-22.98
-20.99
-18.09
-14.39
-9.79
-4.09
2.82
10.71
18.94
26.55
32.65
36.77
39.05
40.12
40.76
41.49
42.42
43.28
43.64
43.21
41.90
39.87
37.48
35.10
32.98
31.21
29.67
28.10
26.28
24.02
21.22
17.89
14.05
9.72
5.04
0.29
-4.11
-7.72
-10.26
-11.75
-12.50
-12.99
-13.66
-14.66
-15.89
-16.97
-17.43
-16.91
-15.23
-12.47
-8.91
-4.94
-0.88
3.01
6.53
9.46
11.55
12.58
12.53
11.63
10.31
9.06
8.15
7.59
7.04
6.03
4.10
1.13
-2.73
-7.00
-11.11
-14.57
-17.16
-18.98
-20.35
-21.65
-23.06
-24.55
-25.85
-26.67
-26.89
-26.60
-26.10
-25.73
-25.74
-26.15
-26.69
-26.85
-26.04
-23.73
-19.76
-14.43
-8.39
-2.49
2.52
6.20
8.47
9.56
9.83
9.58
9.03
8.32
7.54
6.78
6.09
5.52
5.08
4.86
4.97
5.58
6.80
8.62
10.78
12.85
14.29
14.63
13.64
11.29
7.69
3.04
-2.49
-8.71
-15.35
-22.11
-28.67
-34.76
-40.11
-44.51
-47.65
-49.17
-48.75
-46.22
-41.80
-36.04
-29.78
-23.81
-18.73
-14.76
-11.86
-9.81
-8.35
-7.35
-6.67
-6.30
-6.11
-6.04
-5.97
-5.81
-5.51
-4.96
-4.18
-3.15
-2.01
-0.91
-0.08
0.32
0.17
-0.56
-1.71
-3.16
-4.64
-5.98
-7.02
-7.74
-8.17
-8.43
-8.58
-8.60
-8.42
-7.87
-6.76
-4.91
-2.18
1.49
6.08
11.33
16.81
21.87
25.90
28.41
29.24
28.52
26.58
23.89
20.87
17.86
15.09
12.73
10.84
9.36
8.14
6.95
5.61
4.05
2.39
0.83
-0.35
-1.02
-1.27
-1.36
-1.66
-2.50
-4.00
-6.06
-8.37
-10.65
-12.64
-14.34
-16.00
-18.03
-20.79
-24.37
-28.38
-31.92
-33.70
-32.30
-26.55
-15.92
-0.79
17.56
36.99
54.99
69.25
78.20
81.45
79.87
75.20
69.45
64.24
60.31
57.48
55.11
52.46
49.17
45.34
41.37
37.64
34.31
31.33
28.53
25.87
23.34
20.97
18.70
16.31
13.64
10.67
7.70
5.19
3.57
2.87
2.59
1.86
-0.25
-4.30
-10.21
-17.20
-24.05
-29.53
-32.77
-33.44
-31.77
-28.42
-24.29
-20.19
-16.81
-14.50
-13.23
-12.63
-12.13
-11.17
-9.38
-6.72
-3.60
-0.73
1.01
0.90
-1.41
-5.59
-10.54
-14.64
-16.16
-13.83
-7.35
2.54
14.32
26.27
36.88
45.21
50.86
53.77
53.99
51.56
46.62
39.51
30.88
21.68
12.94
5.58
0.17
-3.09
-4.29
-3.72
-1.79
0.90
3.57
5.34
5.50
3.92
1.14
-1.74
-3.56
-3.64
-2.05
0.50
3.16
5.35
7.03
8.41
9.69
10.75
11.27
10.98
9.99
8.80
8.06
8.25
9.30
10.70
11.64
11.51
10.08
7.60
4.60
1.58
-1.19
-3.75
-6.22
-8.78
-11.40
-14.05
-16.62
-18.95
-20.77
-21.59
-20.71
-17.48
-11.69
-3.79
5.10
13.54
20.22
24.38
25.92
25.27
23.15
20.26
17.26
14.63
12.63
11.28
10.31
9.40
8.26
6.91
5.55
4.45
3.74
3.24
2.57
1.28
-0.93
-4.13
-8.17
-12.80
-17.80
-22.89
-27.89
-32.58
-36.79
-40.39
-43.26
-45.34
-46.53
-46.78
-46.01
-44.24
-41.57
-38.18
-34.41
-30.70
-27.51
-25.27
-24.23
-24.40
-25.53
-27.23
-29.02
-30.55
-31.60
-32.10
-32.18
-31.99
-31.65
-31.24
-30.74
-30.11
-29.41
-28.73
-28.21
-27.95
-27.89
-27.86
-27.63
-27.09
-26.29
-25.48
-24.97
-24.96
-25.49
-26.34
-27.12
-27.34
-26.55
-24.43
-20.87
-16.00
-10.25
-4.19
1.52
6.32
9.81
11.86
12.62
12.44
11.75
10.98
10.40
10.06
9.86
9.63
9.34
9.04
8.92
9.09
9.62
10.35
11.00
11.32
11.06
10.19
8.72
6.84
4.82
3.04
1.78
1.21
1.27
1.60
1.76
1.33
0.12
-1.78
-3.92
-5.74
-6.67
-6.26
-4.41
-1.35
2.36
6.06
9.11
11.16
12.17
12.36
12.14
11.78
11.41
11.02
10.49
9.78
8.87
7.84
6.71
5.59
4.47
3.47
2.71
2.28
2.22
2.42
2.62
2.49
1.77
0.34
-1.68
-3.97
-6.24
-8.25
-9.96
-11.50
-13.08
-14.81
-16.75
-18.79
-20.73
-22.34
-23.33
-23.47
-22.54
-20.44
-17.29
-13.38
-9.16
-5.15
-1.78
0.71
2.35
3.41
4.29
5.38
6.93
8.95
11.25
13.49
15.42
16.84
17.78
18.31
18.57
18.59
18.39
17.90
17.01
15.70
14.00
12.05
10.09
8.38
7.15
6.50
6.41
6.77
7.37
7.95
8.13
7.60
6.12
3.76
0.99
-1.41
-2.52
-1.71
1.17
5.61
10.63
15.10
18.14
19.38
19.00
17.50
15.54
13.67
12.16
11.15
10.54
10.28
10.16
10.00
9.52
8.60
7.30
5.99
5.26
5.55
6.97
8.98
10.65
10.93
9.20
5.48
0.48
-4.75
-9.32
-12.84
-15.56
-18.01
-20.75
-23.96
-27.27
-29.91
-30.96
-29.76
-25.99
-19.92
-12.18
-3.70
4.45
11.31
16.08
18.42
18.33
16.30
13.05
9.43
6.23
4.02
3.12
3.47
4.71
6.25
7.46
7.91
7.39
6.04
4.23
2.40
0.82
-0.39
-1.32
-2.13
-2.84
-3.41
-3.71
-3.61
-3.12
-2.41
-1.79
-1.59
-2.04
-3.20
-5.02
-7.37
-10.04
-12.78
-15.20
-16.80
-17.10
-15.87
-13.29
-9.92
-6.53
-3.70
-1.70
-0.42
0.47
1.27
2.04
2.68
3.00
2.90
2.48
1.99
1.69
1.77
2.21
2.84
3.48
4.06
4.68
5.50
6.62
7.91
9.08
9.76
9.69
8.85
7.45
5.85
4.38
3.32
2.73
2.56
2.57
2.46
1.94
0.92
-0.40
-1.53
-1.97
-1.37
0.22
2.39
4.58
6.40
7.76
8.89
10.09
11.48
12.87
13.82
13.86
12.76
10.70
8.21
5.97
4.53
4.11
4.58
5.61
6.85
8.05
9.12
9.98
10.49
10.47
9.73
8.31
6.44
4.53
2.99
2.05
1.77
2.00
2.53
3.07
3.27
2.70
0.89
-2.41
-7.08
-12.43
-17.36
-20.59
-21.23
-19.03
-14.53
-8.80
-3.00
1.91
5.44
7.35
7.65
6.30
3.28
-1.25
-6.82
-12.53
-17.33
-20.23
-20.74
-18.96
-15.64
-11.80
-8.42
-6.12
-5.08
-5.06
-5.57
-6.12
-6.32
-6.01
-5.24
-4.17
-3.08
-2.19
-1.67
-1.53
-1.73
-2.22
-3.10
-4.49
-6.41
-8.73
-10.91
-12.30
-12.22
-10.34
-6.77
-2.08
2.91
7.43
10.98
13.41
14.88
15.79
16.56
17.52
18.80
20.26
21.50
22.10
21.74
20.39
18.39
16.38
15.25
16.01
19.50
26.14
35.52
46.31
56.35
63.34
65.65
63.03
56.71
48.90
41.63
35.95
31.54
27.03
20.93
12.43
1.75
-10.12
-21.93
-32.77
-42.25
-50.30
-56.84
-61.51
-63.69
-62.90
-59.24
-53.56
-47.27
-41.85
-38.22
-36.43
-35.74
-35.11
-33.75
-31.42
-28.30
-24.75
-20.87
-16.54
-11.55
-5.96
-0.29
4.58
7.85
9.16
8.82
7.67
6.70
6.59
7.53
9.16
10.88
12.23
13.02
13.34
13.30
12.95
12.12
10.65
8.48
5.94
3.59
2.01
1.61
2.38
4.05
6.16
8.35
10.45
12.43
14.25
15.74
16.58
16.45
15.11
12.56
9.09
5.23
1.53
-1.52
-3.72
-5.10
-5.81
-6.05
-5.88
-5.28
-4.19
-2.67
-0.94
0.62
1.65
2.01
1.80
1.43
1.32
1.74
2.63
3.67
4.40
4.38
3.49
1.86
-0.03
-1.67
-2.72
-3.03
-2.78
-2.19
-1.46
-0.58
0.56
2.09
3.97
5.81
7.17
7.67
7.27
6.22
4.97
3.89
3.10
2.48
1.85
1.15
0.48
0.00
-0.16
-0.08
0.05
-0.05
-0.57
-1.64
-3.20
-5.18
-7.41
-9.64
-11.56
-12.93
-13.56
-13.41
-12.67
-11.58
-10.46
-9.48
-8.58
-7.55
-6.07
-3.81
-0.74
2.86
6.37
9.01
10.31
10.20
9.13
7.78
6.80
6.52
6.94
7.79
8.72
9.47
9.88
9.95
9.67
9.14
8.39
7.51
6.54
5.49
4.36
3.18
1.96
0.69
-0.67
-2.19
-3.86
-5.51
-6.88
-7.77
-8.16
-8.40
-9.01
-10.45
-12.83
-15.73
-18.27
-19.48
-18.68
-15.76
-11.14
-5.60
-0.02
4.90
8.72
11.36
12.88
13.50
13.43
12.87
11.95
10.75
9.28
7.57
5.70
3.72
1.75
-0.13
-1.84
-3.31
-4.51
-5.44
-6.09
-6.44
-6.55
-6.39
-6.03
-5.63
-5.36
-5.39
-5.81
-6.66
-7.81
-9.10
-10.27
-11.07
-11.30
-10.85
-9.63
-7.60
-4.78
-1.19
3.04
7.67
12.30
16.47
19.70
21.76
22.71
22.90
22.87
23.01
23.47
24.04
24.31
23.84
22.50
20.44
18.04
15.68
13.55
11.55
9.48
7.12
4.43
1.61
-1.08
-3.41
-5.34
-6.94
-8.34
-9.58
-10.63
-11.36
-11.68
-11.60
-11.27
-10.88
-10.64
-10.65
-10.89
-11.20
-11.33
-10.99
-9.97
-8.15
-5.50
-2.14
1.72
5.78
9.70
13.12
15.74
17.39
18.07
18.02
17.52
16.93
16.54
16.52
16.89
17.58
18.45
19.35
20.19
20.91
21.49
21.91
22.04
21.67
20.57
18.65
15.99
12.85
9.50
6.13
2.79
-0.58
-4.05
-7.62
-11.19
-14.67
-17.96
-21.07
-24.03
-26.88
-29.65
-32.27
-34.54
-36.17
-36.84
-36.38
-34.84
-32.59
-30.14
-28.00
-26.35
-25.10
-23.93
-22.63
-21.08
-19.38
-17.76
-16.33
-15.13
-14.06
-13.06
-12.09
-11.17
-10.28
-9.44
-8.62
-7.82
-7.10
-6.52
-6.10
-5.86
-5.81
-5.94
-6.31
-6.96
-7.83
-8.82
-9.75
-10.47
-10.85
-10.89
-10.60
-10.00
-9.02
-7.51
-5.34
-2.43
1.15
5.19
9.31
13.11
16.20
18.40
19.70
20.21
20.11
19.53
18.60
17.40
16.09
14.83
13.77
13.07
12.70
12.56
12.46
12.28
11.97
11.63
11.34
11.09
10.82
10.36
9.58
8.36
6.69
4.74
2.78
1.11
-0.09
-0.74
-1.01
-1.12
-1.35
-1.85
-2.66
-3.67
-4.80
-6.00
-7.25
-8.44
-9.32
-9.56
-8.88
-7.22
-4.85
-2.30
-0.20
1.02
1.23
0.62
-0.30
-1.09
-1.48
-1.44
-1.14
-0.80
-0.58
-0.52
-0.57
-0.64
-0.68
-0.62
-0.34
0.37
1.77
3.98
6.78
9.69
12.03
13.25
13.23
12.29
11.05
10.04
9.48
9.21
8.88
8.15
6.90
5.22
3.36
1.58
0.25
-0.27
0.43
2.57
6.15
10.78
15.85
20.73
24.94
28.26
30.61
31.87
31.88
30.53
27.86
24.29
20.46
17.13
14.80
13.56
13.07
12.80
12.22
11.01
9.05
6.35
2.92
-1.29
-6.34
-12.20
-18.54
-24.84
-30.39
-34.58
-36.98
-37.52
-36.41
-34.07
-31.00
-27.72
-24.75
-22.48
-21.05
-20.33
-19.91
-19.16
-17.57
-14.78
-10.76
-5.70
0.14
6.47
12.94
19.09
24.34
28.15
30.22
30.66
29.96
28.69
27.25
25.60
23.38
20.24
16.12
11.39
6.67
2.51
-0.90
-3.72
-6.27
-8.64
-10.53
-11.35
-10.58
-8.12
-4.50
-0.65
2.45
4.14
4.25
3.06
1.04
-1.38
-3.93
-6.46
-8.78
-10.53
-11.29
-10.65
-8.47
-5.01
-0.94
2.88
5.63
6.88
6.67
5.51
4.17
3.41
3.69
5.12
7.46
10.25
13.04
15.49
17.48
19.14
20.75
22.56
24.79
27.44
30.29
32.92
34.82
35.49
34.62
32.09
28.06
22.92
17.21
11.50
6.26
1.72
-2.20
-5.81
-9.47
-13.34
-17.30
-20.98
-23.93
-25.82
-26.46
-25.91
-24.28
-21.74
-18.59
-15.22
-12.13
-9.76
-8.35
-7.77
-7.73
-7.85
-7.87
-7.76
-7.53
-7.14
-6.46
-5.30
-3.62
-1.72
-0.14
0.55
-0.00
-1.66
-3.89
-5.95
-7.29
-7.73
-7.56
-7.32
-7.50
-8.39
-9.88
-11.58
-13.09
-14.18
-14.86
-15.39
-16.03
-16.88
-17.85
-18.64
-19.02
-18.88
-18.27
-17.34
-16.16
-14.60
-12.51
-9.85
-6.80
-3.86
-1.56
-0.32
-0.23
-1.12
-2.62
-4.37
-6.20
-8.08
-10.11
-12.35
-14.76
-17.14
-19.26
-20.91
-21.96
-22.46
-22.48
-22.12
-21.48
-20.52
-19.25
-17.62
-15.65
-13.46
-11.29
-9.46
-8.39
-8.54
-10.28
-13.77
-18.82
-24.74
-30.48
-34.75
-36.38
-34.77
-29.98
-22.75
-14.15
-5.16
3.53
11.61
18.92
25.31
30.54
34.37
36.67
37.53
37.20
36.07
34.56
33.19
32.42
32.55
33.52
34.86
35.81
35.69
34.20
31.58
28.49
25.53
23.01
20.85
18.80
16.72
14.79
13.33
12.60
12.47
12.31
11.21
8.39
3.51
-3.14
-10.66
-17.85
-23.56
-27.01
-28.04
-27.05
-24.85
-22.36
-20.22
-18.65
-17.48
-16.26
-14.55
-12.10
-8.83
-4.87
-0.50
4.04
8.42
12.36
15.65
18.19
20.11
21.76
23.49
25.38
27.19
28.28
27.88
25.45
20.97
15.07
8.80
3.27
-0.76
-3.06
-3.92
-3.85
-3.41
-2.98
-2.77
-2.90
-3.35
-4.01
-4.56
-4.56
-3.50
-1.11
2.52
6.88
11.16
14.54
16.36
16.37
14.71
11.98
9.02
6.76
5.87
6.59
8.67
11.49
14.31
16.52
17.75
17.88
16.91
14.91
11.99
8.33
4.15
-0.36
-5.09
-10.07
-15.39
-21.08
-27.09
-33.18
-38.99
-44.04
-47.88
-50.14
-50.74
-49.87
-47.90
-45.27
-42.29
-39.13
-35.84
-32.53
-29.45
-26.97
-25.40
-24.84
-25.04
-25.53
-25.83
-25.59
-24.65
-23.03
-20.86
-18.38
-15.89
-13.73
-12.11
-11.15
-10.69
-10.55
-10.55
-10.68
-11.01
-11.65
-12.54
-13.47
-14.20
-14.53
-14.46
-14.19
-14.01
-14.14
-14.69
-15.59
-16.61
-17.45
-17.71
-17.07
-15.30
-12.41
-8.63
-4.37
-0.14
3.61
6.59
8.77
10.32
11.51
12.61
13.66
14.51
14.83
14.37
13.07
11.20
9.26
7.76
7.10
7.30
8.16
9.30
10.42
11.28
11.85
12.11
12.03
11.59
10.70
9.38
7.71
5.94
4.19
2.48
0.62
-1.71
-4.67
-8.14
-11.57
-14.23
-15.45
-14.99
-13.12
-10.48
-7.89
-5.91
-4.77
-4.34
-4.33
-4.50
-4.69
-4.88
-5.09
-5.31
-5.47
-5.46
-5.04
-3.92
-1.77
1.63
6.24
11.74
17.42
22.47
26.14
27.98
27.93
26.28
23.58
20.49
17.66
15.53
14.32
13.93
13.98
13.94
13.31
11.85
9.64
7.03
4.51
2.52
1.31
0.90
1.07
1.52
1.95
2.13
1.95
1.30
0.15
-1.50
-3.57
-5.78
-7.70
-8.89
-9.06
-8.28
-6.98
-5.71
-4.96
-4.97
-5.63
-6.63
-7.68
-8.47
-8.82
-8.58
-7.64
-5.94
-3.49
-0.44
2.84
5.86
8.05
8.85
7.82
4.77
-0.17
-6.50
-13.31
-19.57
-24.27
-26.76
-26.96
-25.35
-22.74
-20.04
-17.90
-16.58
-16.08
-16.22
-16.78
-17.53
-18.10
-17.95
-16.53
-13.46
-8.77
-2.95
3.24
9.04
13.97
17.92
21.03
23.48
25.30
26.41
26.75
26.50
26.06
25.96
26.60
27.88
29.24
29.71
28.40
24.88
19.49
13.20
7.24
2.68
0.00
-0.86
-0.41
0.67
1.75
2.33
2.10
1.02
-0.61
-2.22
-3.09
-2.72
-1.10
1.23
3.40
4.72
4.93
4.43
3.89
3.94
4.72
5.95
7.16
7.97
8.37
8.56
8.71
8.68
8.11
6.63
4.15
1.03
-2.11
-4.71
-6.52
-7.69
-8.58
-9.47
-10.34
-10.93
-10.94
-10.20
-8.78
-6.98
-5.07
-3.27
-1.63
-0.13
1.23
2.47
3.53
4.39
5.04
5.50
5.79
5.90
5.85
5.69
5.58
5.75
6.45
7.79
9.60
11.41
12.56
12.51
11.02
8.39
5.31
2.66
1.15
1.04
2.08
3.66
5.18
6.20
6.63
6.57
6.17
5.47
4.39
2.85
0.93
-1.05
-2.52
-2.86
-1.64
1.16
5.04
9.12
12.45
14.34
14.69
13.96
12.97
12.50
12.92
14.05
15.29
15.92
15.42
13.71
11.05
8.00
5.14
2.90
1.48
0.82
0.67
0.71
0.72
0.56
0.15
-0.55
-1.55
-2.89
-4.49
-6.18
-7.71
-8.91
-9.78
-10.53
-11.44
-12.69
-14.10
-15.20
-15.33
-13.93
-10.80
-6.26
-1.01
4.04
8.06
10.62
11.70
11.62
10.85
9.86
8.95
8.29
7.93
7.82
7.95
8.30
8.86
9.77
11.36
14.09
18.39
24.26
31.10
37.70
42.57
44.48
42.93
38.29
31.57
24.08
16.91
10.64
5.46
1.18
-2.43
-5.65
-8.82
-12.29
-16.36
-21.14
-26.48
-31.88
-36.72
-40.40
-42.56
-43.23
-42.68
-41.30
-39.35
-36.93
-33.86
-29.90
-24.95
-19.18
-13.13
-7.59
-3.26
-0.42
1.18
2.30
3.79
6.08
9.01
11.89
13.98
14.85
14.65
13.89
13.09
12.37
11.45
9.86
7.33
4.05
0.60
-2.36
-4.50
-5.98
-7.41
-9.41
-12.33
-16.00
-19.78
-22.85
-24.52
-24.55
-23.05
-20.44
-17.15
-13.48
-9.65
-5.83
-2.30
0.68
2.87
4.27
5.08
5.48
5.62
5.48
4.99
4.19
3.39
3.08
3.67
5.31
7.68
10.26
12.51
14.21
15.39
16.27
16.91
17.13
16.56
14.73
11.41
6.69
1.00
-4.94
-10.31
-14.38
-16.74
-17.34
-16.63
-15.23
-13.78
-12.57
-11.51
-10.24
-8.41
-5.93
-2.98
0.05
2.89
5.48
7.97
10.54
13.23
15.89
18.18
19.84
20.72
20.91
20.65
20.16
19.62
19.05
18.37
17.40
16.01
14.05
11.49
8.47
5.31
2.57
0.85
0.60
1.83
4.06
6.34
7.73
7.61
5.97
3.46
1.02
-0.44
-0.35
1.47
4.85
9.46
14.83
20.39
25.52
29.64
32.30
33.42
33.27
32.27
30.96
29.75
28.90
28.50
28.38
28.14
27.13
24.71
20.56
14.96
8.83
3.33
-0.68
-3.11
-4.66
-6.44
-9.33
-13.49
-18.24
-22.47
-25.19
-26.01
-25.30
-23.88
-22.61
-21.95
-21.84
-21.75
-21.04
-19.15
-15.67
-10.34
-3.18
5.39
14.41
22.47
28.20
30.76
30.25
27.59
24.03
20.34
16.48
11.66
4.94
-4.08
-14.71
-25.26
-33.46
-37.28
-35.69
-29.18
-19.83
-10.71
-4.83
-3.93
-7.91
-14.90
-22.23
-27.65
-30.14
-30.05
-28.55
-26.84
-25.72
-25.47
-26.09
-27.49
-29.47
-31.50
-32.68
-31.92
-28.24
-21.36
-11.85
-1.09
9.17
17.30
22.33
24.14
23.46
21.61
20.00
19.78
21.50
25.09
29.89
35.00
39.56
42.92
44.92
45.72
45.75
45.49
45.21
44.82
43.92
41.90
38.18
32.50
25.03
16.40
7.61
-0.38
-6.83
-11.37
-14.01
-15.04
-14.79
-13.53
-11.53
-9.13
-6.84
-5.29
-5.01
-6.13
-8.36
-10.87
-12.74
-13.33
-12.45
-10.48
-8.05
-5.77
-4.01
-2.90
-2.40
-2.46
-3.09
-4.35
-6.31
-8.88
-11.86
-14.90
-17.63
-19.74
-21.04
-21.60
-21.58
-21.19
-20.53
-19.52
-17.94
-15.61
-12.49
-8.86
-5.20
-1.97
0.54
2.28
3.42
4.17
4.65
4.85
4.66
4.02
2.99
1.80
0.75
0.07
-0.13
0.04
0.36
0.56
0.44
-0.05
-0.80
-1.55
-2.02
-1.94
-1.22
0.12
1.87
3.72
5.34
6.37
6.59
5.94
4.53
2.70
0.83
-0.85
-2.35
-3.93
-6.02
-8.97
-12.89
-17.65
-22.93
-28.35
-33.63
-38.40
-42.20
-44.50
-44.78
-42.90
-39.21
-34.58
-30.12
-26.85
-25.27
-25.34
-26.53
-28.04
-29.19
-29.56
-29.17
-28.37
-27.75
-27.79
-28.77
-30.54
-32.65
-34.46
-35.46
-35.38
-34.26
-32.34
-29.82
-26.93
-23.83
-20.67
-17.74
-15.32
-13.67
-12.88
-12.73
-12.73
-12.25
-10.58
-7.23
-2.09
4.49
11.66
18.28
23.27
25.98
26.42
25.15
23.12
21.15
19.69
18.71
17.77
16.35
14.01
10.65
6.45
1.81
-2.68
-6.42
-8.85
-9.69
-8.92
-6.89
-4.16
-1.35
0.99
2.54
3.16
2.93
1.98
0.57
-1.01
-2.44
-3.38
-3.66
-3.32
-2.61
-1.97
-1.83
-2.46
-3.85
-5.76
-7.82
-9.67
-11.14
-12.31
-13.46
-14.97
-17.16
-20.16
-23.74
-27.34
-30.12
-31.18
-29.91
-26.17
-20.35
-13.33
-6.18
0.12
5.00
8.40
10.83
13.09
16.04
20.22
25.66
31.84
37.93
43.16
47.15
49.95
51.98
53.65
55.00
55.66
55.09
52.95
49.38
45.05
40.76
37.06
33.96
30.97
27.36
22.61
16.59
9.51
1.94
-5.42
-11.80
-16.45
-18.78
-18.63
-16.43
-13.19
-10.27
-8.77
-9.34
-11.89
-15.90
-20.64
-25.49
-30.06
-34.12
-37.50
-39.88
-40.79
-39.75
-36.33
-30.45
-22.49
-13.36
-4.36
3.20
8.40
10.97
11.29
10.25
8.75
7.45
6.57
5.93
5.18
4.02
2.26
-0.08
-2.78
-5.60
-8.21
-10.29
-11.55
-11.81
-11.07
-9.52
-7.58
-5.68
-4.19
-3.34
-3.07
-3.22
-3.53
-3.75
-3.74
-3.47
-2.98
-2.40
-1.89
-1.62
-1.79
-2.56
-3.97
-5.94
-8.23
-10.48
-12.29
-13.39
-13.59
-13.00
-11.83
-10.34
-8.79
-7.38
-6.26
-5.56
-5.44
-5.95
-7.02
-8.37
-9.51
-9.91
-9.15
-7.09
-3.90
0.04
4.23
8.20
11.58
14.11
15.68
16.32
16.22
15.60
14.75
13.85
13.01
12.23
11.50
10.80
10.17
9.62
9.12
8.61
7.99
7.18
6.15
5.01
3.89
2.93
2.16
1.48
0.64
-0.59
-2.32
-4.52
-6.93
-9.20
-10.94
-11.76
-11.35
-9.57
-6.43
-2.20
2.63
7.45
11.67
14.81
16.75
17.57
17.56
17.10
16.52
16.02
15.67
15.40
15.04
14.45
13.58
12.43
11.15
9.91
8.90
8.27
8.08
8.25
8.54
8.55
7.90
6.32
3.78
0.59
-2.76
-5.69
-7.78
-8.84
-9.03
-8.74
-8.43
-8.53
-9.20
-10.28
-11.37
-11.89
-11.39
-9.68
-6.93
-3.47
0.32
4.18
8.00
11.70
15.11
17.93
19.86
20.78
20.84
20.44
20.06
19.97
20.20
20.57
20.82
20.85
20.80
20.92
21.48
22.57
24.13
25.90
27.62
29.07
30.16
30.86
31.14
30.95
30.25
29.17
27.96
27.04
26.71
27.00
27.58
27.82
27.16
25.28
22.35
18.88
15.47
12.54
10.19
8.28
6.52
4.76
3.01
1.54
0.71
0.87
2.14
4.34
6.93
9.25
10.77
11.32
11.20
11.00
11.25
12.15
13.38
14.31
14.29
13.00
10.63
7.68
4.69
2.03
-0.32
-2.60
-5.04
-7.75
-10.55
-13.15
-15.26
-16.75
-17.69
-18.17
-18.28
-18.01
-17.31
-16.21
-14.88
-13.61
-12.72
-12.40
-12.67
-13.31
-14.04
-14.61
-14.95
-15.17
-15.52
-16.24
-17.48
-19.23
-21.20
-22.94
-23.97
-23.89
-22.56
-20.12
-16.91
-13.37
-9.91
-6.81
-4.21
-2.19
-0.71
0.23
0.67
0.72
0.51
0.22
-0.01
-0.07
0.09
0.47
1.04
1.82
2.89
4.33
6.03
7.62
8.49
8.01
5.86
2.18
-2.39
-7.02
-10.99
-14.04
-16.24
-17.89
-19.17
-20.06
-20.44
-20.25
-19.61
-18.88
-18.41
-18.40
-18.78
-19.24
-19.36
-18.79
-17.33
-14.98
-11.85
-8.22
-4.40
-0.79
2.22
4.23
4.95
4.25
2.20
-0.87
-4.52
-8.28
-11.79
-14.80
-17.10
-18.45
-18.50
-16.86
-13.25
-7.66
-0.44
7.74
16.06
23.76
30.20
34.86
37.37
37.57
35.58
31.90
27.34
22.75
18.83
15.90
13.83
12.22
10.57
8.46
5.72
2.38
-1.31
-4.93
-7.95
-9.86
-10.28
-9.13
-6.64
-3.37
-0.03
2.64
4.13
4.25
3.17
1.34
-0.64
-2.28
-3.33
-3.84
-4.12
-4.54
-5.37
-6.61
-8.04
-9.31
-10.16
-10.48
-10.44
-10.41
-10.87
-12.25
-14.69
-17.92
-21.20
-23.43
-23.42
-20.37
-14.14
-5.37
4.69
14.62
23.30
30.17
35.26
38.94
41.65
43.59
44.75
44.98
44.19
42.47
40.13
37.56
35.06
32.75
30.46
27.98
25.08
21.73
18.14
14.69
11.81
9.81
8.73
8.33
8.25
8.17
7.93
7.67
7.61
7.97
8.75
9.67
10.24
10.02
8.82
6.64
3.75
0.40
-3.22
-7.01
-10.91
-14.86
-18.76
-22.42
-25.71
-28.44
-30.59
-32.17
-33.28
-34.14
-34.94
-35.80
-36.68
-37.29
-37.25
-36.17
-33.88
-30.40
-26.06
-21.28
-16.58
-12.38
-8.98
-6.44
-4.66
-3.39
-2.29
-1.10
0.24
1.49
2.15
1.72
-0.06
-3.04
-6.54
-9.57
-11.11
-10.57
-7.90
-3.75
0.89
4.91
7.50
8.33
7.61
5.95
4.09
2.59
1.57
0.75
-0.44
-2.50
-5.50
-9.03
-12.31
-14.58
-15.44
-14.98
-13.65
-11.99
-10.30
-8.56
-6.54
-4.05
-1.09
2.20
5.58
8.93
12.23
15.45
18.37
20.59
21.65
21.49
20.65
20.18
21.22
24.40
29.53
35.75
41.93
47.24
51.35
54.23
55.82
55.76
53.57
49.00
42.37
34.45
26.17
18.09
10.32
2.72
-4.77
-11.88
-18.20
-23.39
-27.54
-30.98
-33.97
-36.44
-37.93
-37.85
-35.91
-32.41
-28.08
-23.87
-20.48
-18.26
-17.15
-16.81
-16.75
-16.46
-15.52
-13.72
-11.10
-8.01
-4.97
-2.58
-1.26
-1.20
-2.27
-4.14
-6.36
-8.44
-9.97
-10.72
-10.76
-10.35
-9.96
-10.01
-10.78
-12.23
-14.08
-15.87
-17.14
-17.51
-16.83
-15.20
-12.95
-10.45
-7.98
-5.57
-2.98
0.14
4.07
8.73
13.76
18.59
22.82
26.33
29.39
32.40
35.68
39.18
42.51
45.03
46.11
45.43
42.98
39.10
34.36
29.36
24.50
20.03
15.95
12.22
8.87
6.06
4.03
2.98
2.85
3.33
3.96
4.34
4.23
3.61
2.61
1.33
-0.16
-1.88
-3.77
-5.62
-7.13
-7.91
-7.72
-6.58
-4.71
-2.56
-0.62
0.69
1.18
0.87
-0.03
-1.17
-2.27
-3.20
-3.97
-4.75
-5.69
-6.89
-8.35
-9.97
-11.54
-12.97
-14.21
-15.31
-16.38
-17.46
-18.51
-19.47
-20.25
-20.86
-21.42
-22.06
-22.86
-23.81
-24.70
-25.25
-25.18
-24.26
-22.38
-19.59
-16.02
-11.95
-7.75
-3.79
-0.41
2.12
3.63
4.07
3.46
1.95
-0.25
-2.90
-5.68
-8.26
-10.40
-11.89
-12.66
-12.74
-12.29
-11.57
-10.86
-10.42
-10.40
-10.85
-11.77
-13.17
-15.08
-17.55
-20.51
-23.77
-26.96
-29.56
-31.05
-31.03
-29.40
-26.40
-22.55
-18.51
-14.92
-12.21
-10.50
-9.62
-9.24
-9.00
-8.64
-8.09
-7.40
-6.73
-6.23
-6.00
-6.06
-6.36
-6.81
-7.34
-7.89
-8.37
-8.67
-8.65
-8.16
-7.15
-5.63
-3.68
-1.45
0.90
3.28
5.61
7.75
9.52
10.66
10.99
10.43
9.17
7.60
6.24
5.56
5.88
7.31
9.73
12.88
16.37
19.82
22.91
25.39
27.19
28.28
28.73
28.59
27.89
26.61
24.76
22.40
19.68
16.83
14.04
11.44
9.04
6.77
4.52
2.22
-0.08
-2.31
-4.29
-5.97
-7.33
-8.47
-9.52
-10.55
-11.57
-12.42
-13.01
-13.28
-13.36
-13.47
-13.90
-14.88
-16.45
-18.46
-20.60
-22.48
-23.67
-23.83
-22.69
-20.14
-16.36
-11.63
-6.46
-1.37
3.12
6.73
9.33
11.04
12.11
12.83
13.43
13.99
14.48
14.76
14.70
14.29
13.62
12.93
12.46
12.34
12.51
12.78
12.87
12.56
11.81
10.67
9.33
7.88
6.24
4.20
1.60
-1.61
-5.21
-8.82
-12.05
-14.56
-16.16
-16.77
-16.42
-15.16
-13.14
-10.60
-7.87
-5.32
-3.23
-1.66
-0.51
0.37
1.01
1.33
1.11
0.22
-1.28
-3.14
-4.99
-6.51
-7.54
-8.10
-8.32
-8.28
-7.87
-6.94
-5.36
-3.14
-0.53
2.11
4.40
6.04
6.97
7.28
7.11
6.63
5.94
5.19
4.56
4.20
4.20
4.48
4.85
5.03
4.86
4.43
4.05
4.17
5.21
7.37
10.58
14.50
18.69
22.65
25.96
28.33
29.55
29.66
28.93
27.84
27.01
26.97
28.00
30.05
32.71
35.41
37.72
39.39
40.51
41.40
42.37
43.64
45.06
46.19
46.44
45.33
42.69
38.78
34.20
29.57
25.39
21.70
18.26
14.62
10.35
5.18
-0.96
-7.92
-15.42
-22.96
-30.00
-35.93
-40.36
-43.10
-44.24
-43.90
-42.14
-38.92
-34.04
-27.46
-19.41
-10.51
-1.67
6.18
12.39
16.74
19.52
21.29
22.65
23.94
25.22
26.17
26.32
25.09
21.96
16.60
8.96
-0.61
-11.33
-22.09
-31.76
-39.46
-44.86
-48.19
-50.06
-51.18
-52.10
-53.00
-53.82
-54.39
-54.56
-54.29
-53.59
-52.42
-50.72
-48.40
-45.54
-42.38
-39.40
-37.06
-35.69
-35.25
-35.36
-35.35
-34.53
-32.46
-29.11
-24.79
-20.05
-15.43
-11.32
-7.83
-4.89
-2.34
-0.10
1.79
3.27
4.27
4.84
5.14
5.35
5.64
6.08
6.65
7.27
7.89
8.45
8.90
9.22
9.38
9.32
9.03
8.53
7.87
7.08
6.17
5.06
3.70
2.06
0.21
-1.64
-3.23
-4.35
-4.89
-4.91
-4.63
-4.26
-4.01
-3.95
-4.00
-3.99
-3.70
-2.92
-1.56
0.33
2.55
4.81
6.83
8.35
9.31
9.77
9.86
9.72
9.40
8.89
8.24
7.55
7.02
6.84
7.14
7.93
9.08
10.40
11.75
13.00
14.05
14.81
15.14
14.97
14.25
13.06
11.46
9.58
7.49
5.20
2.79
0.44
-1.63
-3.19
-4.14
-4.61
-4.89
-5.29
-6.03
-6.96
-7.72
-7.86
-7.05
-5.24
-2.65
0.34
3.32
6.04
8.36
10.19
11.46
12.07
12.00
11.37
10.37
9.26
8.26
7.48
6.92
6.50
6.17
5.87
5.61
5.35
5.05
4.67
4.22
3.77
3.38
3.06
2.76
2.41
1.97
1.49
1.06
0.76
0.61
0.54
0.43
0.18
-0.30
-1.02
-1.93
-2.93
-3.84
-4.40
-4.30
-3.37
-1.58
0.84
3.48
5.94
7.91
9.30
10.15
10.62
10.83
10.86
10.69
10.29
9.67
8.94
8.22
7.68
7.37
7.26
7.26
7.25
7.14
6.99
6.85
6.76
6.68
6.39
5.69
4.45
2.71
0.65
-1.42
-3.22
-4.57
-5.43
-5.92
-6.23
-6.54
-6.97
-7.55
-8.18
-8.67
-8.81
-8.36
-7.15
-5.19
-2.62
0.32
3.27
5.93
8.09
9.66
10.70
11.33
11.64
11.71
11.49
10.94
10.00
8.74
7.26
5.75
4.34
3.05
1.81
0.53
-0.83
-2.20
-3.35
-4.12
-4.40
-4.27
-4.01
-3.95
-4.35
-5.34
-6.78
-8.34
-9.63
-10.32
-10.25
-9.56
-8.57
-7.67
-7.19
-7.21
-7.57
-7.87
-7.70
-6.60
-4.42
-1.14
2.95
7.44
11.87
15.90
19.37
22.28
24.72
26.76
28.43
29.63
30.21
30.03
29.03
27.23
24.69
21.56
18.07
14.49
11.13
8.14
5.46
2.80
-0.22
-3.86
-7.97
-12.06
-15.40
-17.36
-17.73
-16.78
-15.13
-13.42
-12.02
-10.88
-9.81
-8.65
-7.46
-6.55
-6.23
-6.58
-7.29
-7.74
-7.33
-5.81
-3.40
-0.66
1.86
3.99
5.97
8.33
11.44
15.28
19.40
23.13
25.98
27.73
28.51
28.53
27.98
26.91
25.49
24.10
23.40
24.14
26.81
31.25
36.69
41.88
45.70
47.57
47.75
47.06
46.32
45.90
45.35
43.87
40.81
36.21
30.92
26.12
22.76
21.05
20.42
19.81
18.28
15.40
11.36
6.78
2.33
-1.60
-5.09
-8.46
-12.13
-16.12
-19.91
-22.51
-22.84
-20.32
-15.19
-8.59
-2.04
3.06
5.99
6.84
6.24
4.94
3.51
2.23
1.10
0.09
-0.79
-1.54
-2.21
-3.00
-4.19
-6.01
-8.41
-11.08
-13.44
-14.87
-15.00
-13.87
-11.96
-9.95
-8.44
-7.65
-7.38
-7.22
-6.80
-6.08
-5.27
-4.70
-4.48
-4.42
-4.16
-3.49
-2.51
-1.64
-1.35
-1.73
-2.39
-2.59
-1.68
0.53
3.62
6.74
9.11
10.31
10.43
9.92
9.24
8.69
8.32
8.00
7.54
6.79
5.54
3.55
0.65
-3.24
-7.90
-12.93
-17.85
-22.44
-26.78
-31.20
-35.96
-41.03
-45.98
-50.19
-53.18
-54.85
-55.55
-55.75
-55.87
-55.94
-55.64
-54.62
-52.69
-49.98
-46.90
-43.91
-41.27
-38.96
-36.76
-34.37
-31.66
-28.65
-25.51
-22.50
-19.85
-17.69
-16.08
-14.90
-13.70
-11.90
-8.88
-4.34
1.46
7.65
13.06
16.67
18.02
17.38
15.45
13.04
10.72
8.63
6.67
4.69
2.69
0.88
-0.51
-1.46
-2.23
-3.31
-5.13
-7.84
-11.02
-13.81
-15.17
-14.30
-11.00
-5.85
0.03
5.30
8.90
10.22
9.35
6.83
3.45
0.01
-2.96
-5.15
-6.56
-7.38
-7.88
-8.38
-9.09
-10.15
-11.60
-13.36
-15.26
-17.07
-18.55
-19.50
-19.84
-19.59
-18.93
-18.06
-17.23
-16.58
-16.16
-15.95
-15.81
-15.64
-15.35
-14.92
-14.42
-14.00
-13.85
-14.14
-14.91
-16.03
-17.21
-17.99
-17.96
-16.84
-14.63
-11.61
-8.26
-5.02
-2.27
-0.21
1.10
1.67
1.45
0.43
-1.36
-3.74
-6.31
-8.55
-10.07
-10.66
-10.48
-9.91
-9.48
-9.58
-10.37
-11.71
-13.16
-14.18
-14.22
-12.96
-10.36
-6.76
-2.78
0.88
3.72
5.69
7.19
8.95
11.68
15.68
20.62
25.59
29.44
31.23
30.68
28.28
25.20
22.76
21.97
23.23
26.22
30.10
33.78
36.27
36.84
35.28
31.83
27.19
22.27
17.94
14.74
12.79
11.78
11.20
10.74
10.42
10.54
11.49
13.49
16.44
20.22
24.75
30.21
36.96
45.18
54.40
63.50
70.86
74.97
75.00
71.01
63.85
54.69
44.60
34.25
23.93
13.67
3.41
-6.84
-17.01
-26.82
-35.80
-43.30
-48.61
-51.19
-51.01
-48.61
-44.95
-41.14
-38.12
-36.48
-36.42
-37.75
-40.01
-42.56
-44.67
-45.61
-44.82
-42.05
-37.60
-32.18
-26.73
-22.07
-18.51
-15.83
-13.35
-10.33
-6.32
-1.35
4.12
9.42
14.01
17.59
20.04
21.30
21.23
19.65
16.60
12.53
8.30
5.03
3.57
4.12
6.15
8.55
10.15
10.10
8.24
4.98
1.03
-3.01
-6.79
-10.29
-13.55
-16.56
-19.14
-21.08
-22.19
-22.47
-22.16
-21.57
-21.03
-20.76
-20.74
-20.86
-20.90
-20.76
-20.45
-20.16
-20.09
-20.40
-21.11
-22.08
-23.09
-24.01
-24.94
-26.02
-27.49
-29.44
-31.75
-34.08
-36.02
-37.19
-37.41
-36.72
-35.37
-33.80
-32.56
-32.22
-33.27
-36.01
-40.35
-45.83
-51.72
-57.22
-61.77
-65.23
-67.83
-70.12
-72.70
-75.98
-79.98
-84.07
-86.88
-86.39
-80.14
-65.95
-42.91
-12.07
23.36
58.80
89.69
112.95
127.73
135.15
137.33
136.21
132.83
127.50
120.29
111.55
102.05
92.49
83.11
73.47
62.79
50.57
37.23
24.22
13.71
7.80
7.74
13.41
23.40
35.48
47.42
57.77
66.14
73.11
79.72
86.74
94.31
101.78
108.02
111.91
112.76
110.53
105.74
99.27
91.95
84.29
76.42
68.22
59.55
50.42
40.96
31.40
22.05
13.16
5.12
-1.53
-6.16
-8.32
-8.11
-6.44
-4.88
-5.03
-7.87
-13.18
-19.68
-25.55
-29.37
-30.66
-29.98
-28.43
-26.96
-25.93
-25.16
-24.28
-23.12
-21.90
-20.97
-20.59
-20.68
-20.96
-21.24
-21.63
-22.54
-24.52
-27.93
-32.76
-38.64
-44.95
-51.00
-56.24
-60.27
-62.92
-64.25
-64.47
-63.86
-62.64
-60.86
-58.31
-54.64
-49.48
-42.64
-34.27
-24.97
-15.64
-7.25
-0.66
3.70
5.86
6.31
5.71
4.61
3.26
1.55
-0.89
-4.57
-9.87
-16.76
-24.63
-32.39
-38.51
-41.55
-40.45
-34.91
-25.50
-13.39
-0.09
13.03
24.85
34.63
41.98
46.89
49.67
50.92
51.42
51.86
52.55
53.35
53.73
53.02
50.72
46.76
41.60
36.11
31.27
27.67
25.41
24.02
22.71
20.76
17.88
14.20
10.13
5.99
1.77
-2.73
-7.67
-12.93
-18.01
-22.10
-24.41
-24.33
-21.61
-16.38
-9.12
-0.64
7.99
15.52
20.80
22.93
21.55
16.79
9.36
0.33
-8.92
-17.02
-22.81
-25.73
-25.90
-24.01
-20.99
-17.72
-14.82
-12.62
-11.48
-11.62
-13.16
-15.91
-19.30
-22.65
-25.49
-27.85
-30.22
-33.18
-36.86
-40.80
-44.07
-45.74
-45.23
-42.51
-37.89
-31.80
-24.71
-17.13
-9.63
-2.82
2.84
7.26
10.80
14.10
17.82
22.41
27.91
34.15
40.70
47.13
52.95
57.74
61.21
63.25
63.91
63.46
62.26
60.80
59.67
59.41
60.48
63.03
66.82
71.23
75.50
78.85
80.73
80.80
78.88
74.92
69.09
61.97
54.65
48.47
44.58
43.49
44.80
47.45
50.23
52.27
53.24
53.21
52.24
50.09
46.29
40.48
32.71
23.60
14.04
4.84
-3.62
-11.43
-18.94
-26.43
-33.88
-41.05
-47.49
-52.92
-57.27
-60.72
-63.66
-66.54
-69.62
-73.03
-76.63
-80.13
-83.25
-85.83
-87.83
-89.34
-90.44
-91.19
-91.71
-92.30
-93.43
-95.67
-99.38
-104.45
-110.24
-115.72
-119.91
-122.20
-122.49
-121.04
-118.20
-113.99
-108.06
-99.94
-89.38
-76.68
-62.76
-48.88
-36.26
-25.78
-17.79
-12.17
-8.54
-6.43
-5.31
-4.76
-4.31
-3.55
-2.12
0.09
2.98
6.16
9.06
11.05
11.64
10.66
8.31
5.14
1.89
-0.78
-2.43
-2.91
-2.35
-0.90
1.33
4.38
8.40
13.40
19.20
25.35
31.21
36.18
39.90
42.21
43.17
42.90
41.58
39.49
37.10
35.09
34.26
35.19
38.00
42.13
46.47
49.70
50.79
49.43
46.17
42.17
38.70
36.60
35.96
36.17
36.26
35.38
33.16
29.79
25.90
22.28
19.70
18.87
20.29
24.10
29.79
36.22
41.77
44.96
45.06
42.26
37.42
31.53
25.00
17.59
8.65
-2.27
-15.10
-29.16
-43.52
-57.42
-70.38
-82.05
-92.07
-99.89
-104.91
-106.86
-105.86
-102.53
-97.72
-92.24
-86.71
-81.47
-76.76
-72.73
-69.51
-67.03
-65.03
-63.02
-60.46
-56.90
-52.07
-46.01
-38.99
-31.45
-23.87
-16.68
-10.13
-4.39
0.50
4.52
7.56
9.52
10.27
9.91
8.73
7.26
6.03
5.44
5.65
6.57
8.00
9.69
11.45
13.10
14.46
15.42
15.95
16.19
16.30
16.50
16.85
17.36
17.94
18.50
19.04
19.70
20.80
22.81
26.24
31.40
38.28
46.51
55.41
64.25
72.55
80.24
87.65
95.29
103.57
112.56
121.95
131.13
139.32
145.85
150.33
152.66
152.98
151.48
148.30
143.53
137.26
129.56
120.59
110.48
99.42
87.62
75.42
63.34
52.08
42.30
34.28
27.80
22.17
16.55
10.43
3.95
-2.12
-6.61
-8.50
-7.36
-3.54
1.99
7.99
13.43
17.71
20.73
22.70
23.88
24.40
24.22
23.20
21.14
17.79
12.73
5.29
-5.18
-19.10
-36.27
-55.61
-75.36
-93.51
-108.27
-118.56
-124.18
-125.60
-123.83
-120.15
-115.80
-111.95
-109.43
-108.55
-108.99
-109.81
-109.70
-107.52
-102.77
-96.01
-88.83
-83.36
-81.51
-84.28
-91.43
-101.47
-112.23
-121.54
-127.71
-129.87
-127.88
-122.17
-113.54
-102.98
-91.45
-79.73
-68.32
-57.39
-47.01
-37.17
-28.01
-19.71
-12.39
-6.00
-0.35
4.83
9.84
14.85
20.01
25.41
31.05
36.82
42.39
47.31
51.14
53.68
55.09
55.92
56.99
59.09
62.67
67.54
72.93
77.67
80.62
80.88
77.99
71.87
62.62
50.52
35.95
19.56
2.25
-14.98
-31.28
-46.14
-59.46
-71.39
-82.03
-91.34
-99.15
-105.34
-109.90
-112.77
-113.60
-111.56
-105.64
-95.19
-80.56
-63.25
-45.60
-30.04
-18.22
-10.63
-6.69
-5.05
-4.09
-2.29
1.61
8.37
18.11
30.29
43.70
56.81
68.27
77.21
83.39
87.02
88.54
88.39
86.98
84.65
81.66
78.27
74.70
71.07
67.40
63.55
59.25
54.30
48.59
42.18
35.32
28.31
21.47
15.05
9.20
3.96
-0.65
-4.69
-8.26
-11.52
-14.65
-17.70
-20.51
-22.58
-23.17
-21.35
-16.44
-8.21
2.84
15.50
28.20
39.36
47.86
53.19
55.49
55.31
53.46
50.73
47.79
45.13
43.02
41.41
39.95
38.04
35.05
30.48
24.25
16.77
8.82
1.34
-4.90
-9.49
-12.32
-13.32
-12.32
-9.12
-3.85
2.80
9.52
14.67
16.90
15.61
11.19
4.77
-2.26
-8.68
-13.81
-17.42
-19.64
-20.65
-20.77
-20.30
-19.62
-19.10
-19.02
-19.57
-20.80
-22.64
-24.87
-27.22
-29.42
-31.20
-32.37
-32.80
-32.44
-31.37
-29.76
-27.86
-25.94
-24.21
-22.81
-21.81
-21.24
-21.11
-21.40
-22.03
-22.96
-24.18
-25.68
-27.49
-29.52
-31.49
-32.87
-32.93
-30.91
-26.37
-19.34
-10.45
-0.67
8.80
16.95
23.12
27.12
29.14
29.56
28.83
27.21
24.90
22.01
18.82
15.73
13.28
11.97
11.99
13.08
14.56
15.55
15.29
13.37
9.85
5.13
-0.20
-5.62
-10.78
-15.51
-19.76
-23.56
-26.90
-29.74
-32.00
-33.55
-34.16
-33.56
-31.46
-27.62
-22.00
-14.82
-6.59
1.97
10.03
16.89
22.14
25.71
27.82
28.85
29.22
29.24
29.15
29.10
29.24
29.70
30.54
31.72
33.19
34.89
36.88
39.34
42.33
45.77
49.24
52.16
54.05
54.78
54.64
54.22
54.20
54.98
56.55
58.53
60.27
61.01
59.95
56.37
49.80
40.35
28.85
16.85
6.09
-2.17
-7.65
-11.23
-14.47
-18.83
-25.02
-32.70
-40.80
-48.13
-53.87
-57.77
-59.92
-60.47
-59.43
-56.75
-52.53
-47.25
-41.74
-36.96
-33.64
-31.99
-31.70
-32.15
-32.69
-32.89
-32.72
-32.39
-32.25
-32.53
-33.26
-34.24
-35.22
-36.00
-36.46
-36.65
-36.62
-36.34
-35.59
-34.01
-31.20
-26.95
-21.38
-15.03
-8.67
-3.08
1.22
4.05
5.58
6.15
6.12
5.73
5.07
4.23
3.32
2.52
2.01
1.93
2.27
2.89
3.58
4.14
4.43
4.41
4.07
3.38
2.33
0.89
-0.90
-3.00
-5.33
-7.80
-10.41
-13.16
-16.06
-19.06
-22.02
-24.54
-26.19
-26.46
-24.94
-21.46
-16.16
-9.51
-2.21
4.96
11.38
16.65
20.58
23.21
24.65
25.08
24.70
23.76
22.52
21.30
20.43
20.12
20.51
21.54
22.99
24.58
25.99
27.05
27.72
28.11
28.34
28.49
28.41
27.94
26.88
25.19
23.04
20.68
18.34
16.06
13.72
11.08
8.06
4.94
2.32
1.06
1.91
5.31
11.13
18.70
26.92
34.55
40.52
44.17
45.38
44.50
42.26
39.47
36.82
34.73
33.26
32.22
31.24
30.01
28.39
26.64
25.38
25.46
27.65
32.27
38.99
46.87
54.67
61.20
65.65
67.80
67.81
66.07
62.98
58.81
53.74
48.00
41.98
36.28
31.69
29.01
28.90
31.63
36.93
44.09
52.05
59.67
66.03
70.56
73.10
73.89
73.38
72.07
70.43
68.74
67.20
65.99
65.30
65.16
65.36
65.25
63.78
59.83
52.56
41.85
28.29
13.05
-2.61
-17.74
-31.87
-44.88
-56.78
-67.53
-76.90
-84.61
-90.48
-94.51
-96.86
-97.74
-97.30
-95.42
-91.75
-85.84
-77.41
-66.62
-54.17
-41.29
-29.45
-20.04
-13.88
-11.12
-11.26
-13.33
-16.25
-19.07
-21.19
-22.29
-22.33
-21.52
-20.34
-19.57
-20.23
-23.29
-29.34
-38.24
-49.08
-60.33
-70.42
-78.17
-83.11
-85.47
-85.90
-85.16
-83.88
-82.45
-81.16
-80.26
-80.06
-80.78
-82.43
-84.66
-86.75
-87.72
-86.64
-82.95
-76.80
-69.00
-60.81
-53.51
-48.04
-44.71
-43.38
-43.52
-44.65
-46.38
-48.51
-50.85
-53.14
-54.96
-55.84
-55.40
-53.46
-50.15
-45.75
-40.64
-35.17
-29.64
-24.38
-19.67
-15.82
-13.03
-11.35
-10.68
-10.87
-11.81
-13.51
-16.06
-19.39
-23.19
-26.72
-29.02
-29.12
-26.36
-20.71
-12.76
-3.58
5.53
13.47
19.53
23.48
25.49
25.96
25.34
23.97
22.11
19.98
17.82
15.90
14.48
13.73
13.63
13.94
14.34
14.50
14.19
13.42
12.32
11.09
9.86
8.68
7.50
6.21
4.65
2.59
-0.18
-3.70
-7.69
-11.49
-14.04
-14.19
-11.18
-4.91
3.90
13.92
23.68
31.98
38.24
42.44
45.03
46.56
47.58
48.57
49.84
51.47
53.27
54.78
55.45
54.88
53.15
50.72
48.24
46.13
44.40
42.66
40.45
37.63
34.43
31.41
29.03
27.33
25.85
23.87
20.77
16.32
10.91
5.36
0.71
-2.10
-2.58
-0.70
3.04
7.89
13.10
18.05
22.37
25.88
28.54
30.38
31.51
32.08
32.20
31.94
31.32
30.38
29.34
28.53
28.27
28.59
29.03
28.80
27.07
23.36
17.83
11.13
4.10
-2.58
-8.54
-13.62
-17.72
-20.69
-22.52
-23.44
-23.88
-24.26
-24.52
-23.96
-21.42
-15.93
-7.31
3.46
14.55
24.08
30.81
34.55
36.00
36.13
35.58
34.48
32.53
29.39
25.10
20.13
15.22
11.12
8.24
6.58
5.90
5.87
6.18
6.69
7.23
7.64
7.67
7.05
5.60
3.34
0.49
-2.66
-5.84
-8.90
-11.97
-15.28
-19.17
-23.74
-28.80
-33.72
-37.60
-39.43
-38.46
-34.44
-27.75
-19.35
-10.46
-2.17
4.69
9.72
12.86
14.21
13.95
12.27
9.47
5.95
2.23
-1.13
-3.66
-5.09
-5.42
-4.85
-3.65
-2.09
-0.43
1.19
2.62
3.75
4.54
4.99
5.12
5.00
4.65
4.07
3.20
2.06
0.74
-0.36
-0.62
0.71
4.30
10.46
18.94
28.94
39.27
48.57
55.75
59.94
60.62
57.57
50.93
41.24
29.53
17.10
5.29
-4.95
-13.16
-19.35
-23.80
-26.74
-28.32
-28.68
-28.11
-27.17
-26.61
-27.09
-28.98
-32.25
-36.52
-41.28
-46.09
-50.73
-55.25
-59.81
-64.42
-68.68
-71.78
-72.60
-70.23
-64.32
-55.38
-44.60
-33.51
-23.39
-14.98
-8.43
-3.50
0.10
2.49
3.70
3.71
2.61
0.72
-1.46
-3.40
-4.66
-5.01
-4.50
-3.39
-2.08
-0.95
-0.21
0.15
0.31
0.47
0.67
0.76
0.45
-0.50
-2.16
-4.37
-6.78
-9.00
-10.54
-10.87
-9.53
-6.14
-0.61
6.78
15.39
24.38
32.98
40.67
47.21
52.56
56.82
60.08
62.52
64.40
66.07
67.93
70.28
73.25
76.71
80.38
83.83
86.69
88.73
89.94
90.59
91.10
91.95
93.46
95.69
98.25
100.42
101.24
99.76
95.32
87.82
77.82
66.45
55.10
45.08
37.27
31.97
28.89
27.33
26.45
25.47
23.89
21.45
18.10
13.98
9.37
4.58
0.01
-3.95
-7.04
-9.15
-10.40
-11.03
-11.26
-11.15
-10.61
-9.40
-7.34
-4.44
-1.04
2.23
4.56
5.14
3.29
-1.43
-9.20
-20.00
-33.67
-49.91
-68.25
-87.89
-107.67
-126.02
-141.06
-150.93
-154.18
-150.23
-139.61
-123.99
-105.73
-87.35
-70.97
-57.84
-48.31
-42.13
-38.74
-37.56
-38.11
-39.89
-42.28
-44.48
-45.60
-44.87
-41.76
-36.20
-28.53
-19.63
-10.78
-3.58
0.37
-0.26
-6.24
-17.49
-33.16
-51.76
-71.56
-90.86
-108.16
-122.17
-131.66
-135.59
-133.18
-124.33
-109.86
-91.55
-71.84
-53.16
-37.38
-25.44
-17.47
-12.98
-11.37
-12.15
-14.92
-19.29
-24.68
-30.32
-35.44
-39.50
-42.32
-44.12
-45.39
-46.70
-48.53
-51.23
-54.96
-59.76
-65.57
-72.23
-79.49
-87.04
-94.56
-101.72
-108.24
-113.91
-118.60
-122.21
-124.67
-125.83
-125.36
-122.64
-117.02
-107.90
-95.12
-79.10
-60.77
-41.33
-21.93
-3.36
14.09
30.50
46.09
60.92
74.71
86.84
96.56
103.26
106.80
107.59
106.43
104.31
102.08
100.23
98.96
98.22
97.83
97.61
97.35
96.81
95.79
94.07
91.53
88.11
83.82
78.80
73.25
67.37
61.37
55.34
49.41
43.79
38.90
35.25
33.22
32.68
32.94
33.00
32.08
30.27
28.70
29.21
33.50
42.31
54.98
69.55
83.51
94.64
101.58
104.00
102.36
97.47
90.30
81.82
72.94
64.36
56.37
48.75
40.78
31.75
21.41
10.32
-0.07
-8.03
-12.18
-12.18
-9.02
-4.65
-1.35
-0.89
-4.16
-11.09
-21.04
-33.14
-46.45
-59.72
-71.26
-79.02
-81.20
-76.98
-67.05
-53.45
-38.69
-24.75
-12.28
-0.70
10.89
22.58
32.97
39.43
39.35
31.60
17.44
0.21
-15.89
-27.49
-33.17
-33.60
-30.73
-26.57
-22.36
-18.50
-14.97
-11.89
-9.84
-9.51
-11.25
-14.73
-19.00
-22.94
-25.63
-26.64
-26.11
-24.64
-23.02
-22.02
-22.09
-23.12
-24.47
-25.09
-23.88
-20.11
-13.74
-5.43
3.59
11.94
18.56
22.83
24.72
24.64
23.12
20.68
17.69
14.36
10.79
7.11
3.39
-0.28
-3.85
-7.30
-10.59
-13.57
-16.06
-17.78
-18.43
-17.72
-15.50
-11.76
-6.81
-1.17
4.50
9.53
13.44
16.01
17.24
17.34
16.51
14.93
12.94
10.96
9.58
9.39
10.78
13.74
17.86
22.46
26.77
30.25
32.66
34.01
34.41
33.94
32.65
30.60
27.95
25.11
22.65
21.01
20.43
20.80
21.71
22.63
23.18
23.11
22.39
21.08
19.14
16.51
13.22
9.42
5.53
2.10
-0.41
-1.88
-2.54
-2.99
-3.90
-5.81
-8.90
-12.97
-17.44
-21.46
-24.04
-24.34
-21.90
-16.87
-10.08
-2.82
3.60
8.19
10.68
11.45
11.38
11.40
12.20
14.00
16.55
19.38
21.89
23.61
24.22
23.62
21.90
19.36
16.40
13.40
10.62
8.11
5.78
3.50
1.32
-0.43
-1.31
-0.86
1.12
4.57
9.13
14.34
19.62
24.37
27.96
29.75
29.36
26.87
22.91
18.56
15.15
13.76
14.98
18.70
24.16
30.20
35.63
39.51
41.44
41.49
40.17
38.05
35.66
33.25
30.88
28.53
26.23
24.07
22.22
20.77
19.72
19.05
18.64
18.31
17.86
16.96
15.24
12.35
8.07
2.50
-3.88
-10.32
-15.96
-20.08
-22.33
-22.83
-22.20
-21.31
-21.00
-21.77
-23.62
-25.98
-27.96
-28.65
-27.42
-24.10
-18.99
-12.75
-6.08
0.31
5.90
10.32
13.29
14.68
14.58
13.27
11.21
8.97
7.02
5.66
5.00
4.98
5.50
6.55
8.05
9.87
11.66
12.97
13.38
12.73
11.16
9.07
6.96
5.14
3.74
2.62
1.61
0.55
-0.61
-1.98
-3.65
-5.80
-8.48
-11.52
-14.36
-16.15
-15.93
-13.08
-7.65
-0.43
7.24
13.94
18.63
21.02
21.39
20.39
18.62
16.43
14.01
11.39
8.75
6.38
4.63
3.67
3.49
3.87
4.40
4.68
4.34
3.13
0.98
-2.09
-5.98
-10.47
-15.10
-19.27
-22.28
-23.57
-23.00
-20.95
-18.24
-15.85
-14.46
-14.17
-14.61
-15.07
-14.91
-13.84
-11.90
-9.43
-6.78
-4.32
-2.26
-0.71
0.32
0.84
0.92
0.55
-0.35
-1.95
-4.52
-8.16
-12.69
-17.57
-21.96
-25.02
-26.22
-25.59
-23.66
-21.22
-18.95
-17.25
-16.09
-15.25
-14.50
-13.79
-13.20
-12.86
-12.79
-12.89
-13.10
-13.44
-14.07
-15.22
-16.98
-19.13
-21.12
-22.18
-21.61
-19.07
-14.76
-9.30
-3.63
1.41
5.23
7.59
8.54
8.27
7.00
5.01
2.59
0.12
-2.00
-3.52
-4.35
-4.67
-4.80
-5.07
-5.72
-6.78
-8.12
-9.48
-10.69
-11.64
-12.39
-13.04
-13.66
-14.28
-14.84
-15.22
-15.33
-15.16
-14.85
-14.69
-15.04
-16.14
-17.98
-20.17
-22.01
-22.68
-21.62
-18.69
-14.31
-9.26
-4.35
-0.16
3.06
5.32
6.74
7.42
7.48
7.06
6.36
5.60
4.92
4.48
4.38
4.79
5.90
7.69
9.88
11.83
12.87
12.60
11.22
9.47
8.31
8.50
10.24
13.15
16.46
19.42
21.39
22.07
21.42
19.68
17.27
14.71
12.48
10.92
10.19
10.25
11.06
12.71
15.46
19.50
24.73
30.59
36.09
40.12
41.82
40.92
37.79
33.27
28.30
23.56
19.34
15.56
11.96
8.32
4.57
0.82
-2.70
-5.73
-7.95
-9.12
-9.13
-8.14
-6.58
-5.05
-4.23
-4.57
-6.07
-8.25
-10.33
-11.51
-11.38
-10.05
-8.07
-6.16
-4.80
-3.90
-2.88
-0.94
2.40
7.05
12.28
17.11
20.80
23.14
24.40
24.98
24.98
23.97
21.29
16.46
9.69
2.02
-5.10
-10.31
-13.07
-13.69
-13.26
-13.01
-13.74
-15.62
-18.23
-20.94
-23.28
-25.17
-26.82
-28.57
-30.64
-33.05
-35.62
-38.11
-40.29
-41.97
-43.04
-43.40
-42.95
-41.68
-39.59
-36.71
-33.01
-28.47
-23.14
-17.19
-10.94
-4.81
0.83
5.74
9.81
13.06
15.43
16.91
17.47
17.23
16.43
15.43
14.66
14.47
15.09
16.52
18.51
20.58
22.13
22.64
21.87
20.03
17.72
15.61
14.13
13.26
12.53
11.37
9.42
6.80
3.98
1.47
-0.51
-2.16
-3.98
-6.37
-9.26
-12.01
-13.69
-13.40
-10.79
-6.16
-0.43
5.27
9.90
12.92
14.28
14.34
13.63
12.67
11.80
11.16
10.80
10.61
10.57
10.60
10.64
10.61
10.48
10.28
10.18
10.39
11.08
12.22
13.49
14.39
14.41
13.28
11.11
8.34
5.54
3.17
1.39
0.06
-1.20
-2.73
-4.71
-7.08
-9.49
-11.40
-12.29
-11.75
-9.71
-6.50
-2.69
1.02
4.12
6.41
8.04
9.26
10.22
10.78
10.48
8.77
5.23
-0.10
-6.73
-13.78
-20.30
-25.57
-29.21
-31.28
-32.15
-32.33
-32.33
-32.50
-32.99
-33.73
-34.43
-34.63
-33.92
-32.09
-29.30
-26.05
-23.03
-20.81
-19.48
-18.59
-17.21
-14.35
-9.32
-2.08
6.75
15.99
24.33
30.70
34.51
35.83
35.21
33.46
31.39
29.50
27.85
26.18
24.11
21.51
18.56
15.72
13.40
11.73
10.45
9.12
7.43
5.46
3.61
2.36
1.86
1.73
1.25
-0.33
-3.29
-7.36
-11.74
-15.63
-18.56
-20.56
-22.11
-23.74
-25.80
-28.20
-30.46
-31.82
-31.58
-29.18
-24.37
-17.23
-8.21
1.92
12.13
21.30
28.42
32.88
34.62
34.16
32.37
30.19
28.33
27.13
26.56
26.37
26.30
26.17
25.93
25.55
24.91
23.82
21.98
19.20
15.49
11.19
6.80
2.91
-0.14
-2.30
-3.89
-5.38
-7.13
-9.33
-11.95
-14.88
-18.05
-21.54
-25.36
-29.37
-33.06
-35.69
-36.48
-35.01
-31.48
-26.65
-21.62
-17.32
-14.19
-12.05
-10.21
-7.89
-4.41
0.45
6.50
13.16
19.69
25.40
29.82
32.80
34.46
35.13
35.06
34.45
33.31
31.58
29.15
25.95
21.89
16.96
11.30
5.20
-0.89
-6.49
-11.32
-15.36
-18.70
-21.38
-23.19
-23.68
-22.38
-19.05
-13.86
-7.44
-0.67
5.57
10.59
14.03
15.86
16.30
15.75
14.70
13.54
12.51
11.62
10.75
9.80
8.82
7.99
7.53
7.63
8.18
8.85
9.16
8.68
7.22
5.00
2.51
0.35
-1.01
-1.43
-1.05
-0.25
0.51
0.90
0.82
0.36
-0.17
-0.39
0.05
1.37
3.49
6.06
8.53
10.31
11.00
10.50
8.97
6.74
4.11
1.27
-1.85
-5.33
-9.21
-13.45
-17.90
-22.26
-26.26
-29.63
-32.09
-33.55
-34.13
-34.14
-34.10
-34.50
-35.56
-37.20
-39.08
-40.81
-42.25
-43.50
-44.89
-46.62
-48.60
-50.34
-51.16
-50.45
-47.84
-43.39
-37.41
-30.53
-23.41
-16.69
-10.87
-6.22
-2.78
-0.40
1.14
2.01
2.23
1.69
0.32
-1.82
-4.37
-6.70
-7.97
-7.49
-4.96
-0.58
4.90
10.55
15.55
19.43
22.09
23.80
24.81
25.38
25.53
25.13
23.99
21.97
19.12
15.73
12.36
9.63
8.08
7.89
8.79
10.20
11.54
12.47
13.00
13.35
13.72
14.09
14.25
13.82
12.66
10.88
8.82
6.95
5.51
4.53
3.84
3.25
2.63
2.03
1.54
1.28
1.27
1.43
1.62
1.71
1.70
1.58
1.37
1.01
0.42
-0.43
-1.43
-2.33
-2.81
-2.70
-2.04
-1.10
-0.23
0.34
0.68
1.04
1.69
2.72
3.93
4.95
5.39
5.01
3.73
1.65
-1.11
-4.44
-8.20
-12.19
-16.07
-19.39
-21.72
-22.81
-22.65
-21.56
-19.96
-18.28
-16.77
-15.52
-14.49
-13.64
-12.96
-12.51
-12.26
-12.13
-11.88
-11.34
-10.41
-9.22
-8.00
-6.90
-5.93
-4.81
-3.13
-0.47
3.39
8.33
13.88
19.38
24.18
27.77
29.99
30.97
31.09
30.79
30.42
30.13
29.91
29.60
29.03
28.10
26.77
25.04
23.02
20.89
18.98
17.67
17.27
17.74
18.66
19.26
18.72
16.54
12.74
7.92
2.91
-1.56
-5.22
-8.20
-10.77
-13.05
-14.83
-15.71
-15.37
-13.85
-11.60
-9.27
-7.38
-6.07
-5.08
-3.99
-2.59
-0.98
0.38
0.97
0.40
-1.44
-4.34
-7.92
-11.71
-15.32
-18.45
-21.02
-23.12
-24.95
-26.80
-28.83
-31.01
-33.19
-35.14
-36.73
-37.94
-38.87
-39.58
-40.11
-40.45
-40.49
-40.22
-39.62
-38.69
-37.33
-35.35
-32.42
-28.30
-22.90
-16.41
-9.27
-2.06
4.69
10.66
15.69
19.86
23.22
25.80
27.62
28.77
29.37
29.56
29.40
28.83
27.70
25.93
23.62
21.17
19.06
17.64
17.04
17.07
17.35
17.48
17.12
16.07
14.33
12.02
9.36
6.70
4.33
2.44
1.10
0.18
-0.43
-0.65
-0.32
0.88
3.15
6.40
10.19
13.83
16.59
17.93
17.77
16.38
14.32
12.25
10.69
9.92
9.99
10.63
11.47
12.12
12.30
11.82
10.67
8.88
6.53
3.79
0.83
-2.09
-4.77
-7.13
-9.36
-11.79
-14.90
-18.99
-24.02
-29.57
-34.89
-39.15
-41.72
-42.30
-40.97
-38.16
-34.41
-30.25
-26.09
-22.14
-18.54
-15.43
-12.98
-11.35
-10.62
-10.64
-11.03
-11.28
-10.80
-9.26
-6.66
-3.23
0.57
4.20
7.15
9.03
9.59
9.07
8.18
8.09
9.98
14.47
21.06
28.21
33.81
36.09
34.46
29.70
23.63
18.33
15.24
14.84
16.67
19.69
22.77
25.00
25.71
24.59
21.65
17.14
11.62
5.87
0.77
-2.88
-4.46
-3.83
-1.28
2.49
6.49
9.82
11.89
12.62
12.36
11.73
11.19
10.89
10.54
9.59
7.65
4.85
1.85
-0.45
-1.35
-0.76
0.86
2.74
4.33
5.60
6.92
8.75
11.18
13.87
16.21
17.67
18.12
17.85
17.40
17.23
17.43
17.78
17.83
17.25
15.94
14.20
12.49
11.33
10.96
11.32
12.08
12.87
13.42
13.61
13.44
12.93
12.12
10.96
9.51
7.70
5.45
2.58
-1.05
-5.39
-10.23
-15.16
-19.89
-24.28
-28.42
-32.48
-36.43
-39.96
-42.55
-43.77
-43.46
-41.90
-39.60
-37.13
-34.95
-33.27
-32.14
-31.44
-31.02
-30.66
-30.17
-29.34
-28.04
-26.32
-24.37
-22.47
-20.90
-19.88
-19.50
-19.83
-20.84
-22.48
-24.61
-27.05
-29.58
-32.01
-34.20
-35.98
-37.16
-37.39
-36.23
-33.31
-28.45
-21.92
-14.40
-6.88
-0.30
4.71
8.03
9.92
10.88
11.47
12.07
12.92
14.09
15.62
17.51
19.78
22.42
25.35
28.51
31.79
35.04
38.08
40.76
42.92
44.43
45.21
45.11
44.13
42.27
39.71
36.70
33.54
30.47
27.68
25.24
23.17
21.46
20.02
18.75
17.47
15.94
14.08
11.96
9.77
7.77
6.09
4.64
3.13
1.29
-1.10
-4.07
-7.54
-11.39
-15.50
-19.73
-23.91
-27.77
-30.94
-33.11
-34.09
-33.92
-32.79
-30.86
-28.24
-24.88
-20.69
-15.65
-9.92
-3.85
2.11
7.56
12.16
15.75
18.24
19.69
20.30
20.33
20.24
20.43
21.18
22.52
24.24
26.00
27.45
28.30
28.27
27.12
24.65
20.84
16.04
10.88
6.22
2.67
0.35
-1.24
-3.01
-5.96
-10.66
-17.06
-24.48
-31.84
-38.06
-42.32
-44.43
-44.67
-43.74
-42.48
-41.51
-41.01
-40.70
-39.90
-37.96
-34.48
-29.50
-23.46
-16.99
-10.63
-4.74
0.57
5.27
9.23
12.24
14.09
14.74
14.42
13.58
12.78
12.40
12.62
13.36
14.47
15.82
17.32
18.86
20.24
21.15
21.42
21.04
20.27
19.46
19.00
19.00
19.46
20.17
20.94
21.60
22.02
22.11
21.93
21.76
22.10
23.59
26.72
31.54
37.50
43.55
48.49
51.30
51.42
48.85
44.05
37.88
31.36
25.53
21.21
18.74
17.91
18.01
18.17
17.66
16.19
13.83
10.87
7.58
4.08
0.46
-3.18
-6.54
-9.32
-11.37
-12.82
-14.05
-15.43
-16.96
-18.19
-18.30
-16.59
-12.79
-7.37
-1.37
3.96
7.55
8.88
7.98
5.33
1.58
-2.65
-6.90
-10.92
-14.57
-17.85
-20.76
-23.23
-25.06
-25.88
-25.29
-23.07
-19.35
-14.59
-9.55
-4.97
-1.41
0.91
2.08
2.33
1.88
0.87
-0.60
-2.35
-4.14
-5.55
-6.16
-5.67
-4.04
-1.57
1.13
3.39
4.71
4.89
4.17
3.02
2.02
1.57
1.75
2.34
2.95
3.18
2.78
1.74
0.28
-1.18
-2.18
-2.37
-1.66
-0.34
0.99
1.67
1.27
-0.12
-1.98
-3.53
-4.27
-4.16
-3.71
-3.67
-4.56
-6.32
-8.26
-9.44
-9.00
-6.68
-2.81
1.85
6.50
10.57
13.81
16.25
17.98
19.00
19.19
18.37
16.49
13.67
10.29
6.83
3.72
1.13
-0.99
-2.94
-5.13
-7.91
-11.61
-16.33
-22.06
-28.51
-35.16
-41.31
-46.23
-49.45
-50.92
-51.06
-50.51
-49.92
-49.62
-49.53
-49.24
-48.26
-46.14
-42.57
-37.31
-30.10
-20.89
-9.88
2.20
14.05
24.13
31.04
34.05
33.33
29.92
25.40
21.34
18.91
18.51
19.89
22.28
24.66
26.08
25.86
23.63
19.45
13.72
7.09
0.39
-5.65
-10.57
-14.30
-17.16
-19.65
-22.18
-24.74
-26.93
-27.92
-26.96
-23.63
-18.23
-11.80
-5.86
-1.91
-0.94
-3.08
-7.56
-13.13
-18.51
-22.91
-26.20
-28.76
-31.17
-33.73
-36.37
-38.53
-39.44
-38.35
-34.79
-28.87
-21.18
-12.73
-4.63
2.11
6.78
8.95
8.46
5.42
0.22
-6.31
-12.98
-18.34
-21.19
-20.84
-17.38
-11.62
-4.83
1.71
7.07
10.85
13.11
14.29
14.89
15.28
15.53
15.55
15.19
14.46
13.57
12.74
12.12
11.49
10.35
8.06
4.23
-1.14
-7.56
-14.31
-20.66
-26.07
-30.27
-33.24
-35.13
-36.21
-36.89
-37.59
-38.56
-39.82
-41.02
-41.66
-41.18
-39.22
-35.76
-31.05
-25.58
-19.83
-14.26
-9.18
-4.84
-1.37
1.19
2.83
3.75
4.23
4.69
5.53
7.06
9.23
11.78
14.22
16.10
17.18
17.49
17.24
16.74
16.25
15.99
16.06
16.45
17.01
17.50
17.71
17.59
17.36
17.48
18.46
20.57
23.70
27.44
31.22
34.66
37.66
40.39
43.07
45.78
48.35
50.40
51.57
51.66
50.75
49.10
47.11
45.13
43.37
41.93
40.81
39.94
39.19
38.26
36.76
34.24
30.36
25.01
18.43
11.12
3.73
-3.19
-9.29
-14.53
-19.08
-23.18
-27.01
-30.52
-33.42
-35.27
-35.54
-33.95
-30.57
-25.92
-20.84
-16.30
-13.06
-11.48
-11.47
-12.48
-13.71
-14.22
-13.22
-10.16
-5.03
1.74
9.20
16.26
21.93
25.61
27.23
27.05
25.59
23.32
20.61
17.70
14.75
11.83
9.01
6.22
3.33
0.23
-3.20
-6.92
-10.73
-14.31
-17.21
-18.92
-19.06
-17.52
-14.48
-10.43
-6.00
-1.70
2.10
5.23
7.66
9.37
10.30
10.42
9.76
8.46
6.76
4.88
3.04
1.40
0.21
-0.35
-0.11
0.91
2.50
4.31
5.95
7.08
7.50
7.14
5.95
4.00
1.40
-1.57
-4.54
-7.15
-9.22
-10.81
-12.25
-13.97
-16.28
-19.25
-22.70
-26.22
-29.39
-31.91
-33.53
-34.09
-33.42
-31.30
-27.64
-22.58
-16.46
-9.93
-3.66
1.83
6.26
9.64
12.25
14.36
16.15
17.71
18.98
19.93
20.58
20.98
21.14
20.94
20.10
18.26
15.23
11.04
6.06
0.90
-3.78
-7.50
-10.06
-11.60
-12.49
-13.15
-13.88
-14.67
-15.38
-15.84
-16.10
-16.48
-17.49
-19.41
-22.04
-24.67
-26.22
-25.79
-23.04
-18.30
-12.48
-6.57
-1.30
3.07
6.65
9.65
12.13
13.97
14.98
15.08
14.46
13.53
12.85
12.85
13.70
15.28
17.20
19.05
20.49
21.32
21.46
20.84
19.43
17.26
14.50
11.40
8.31
5.46
2.97
0.80
-1.12
-2.74
-3.94
-4.55
-4.53
-4.05
-3.45
-3.09
-3.23
-3.94
-5.07
-6.41
-7.69
-8.65
-9.02
-8.54
-7.02
-4.47
-1.14
2.44
5.62
7.80
8.59
7.94
6.07
3.40
0.34
-2.76
-5.68
-8.26
-10.41
-12.05
-13.20
-13.98
-14.67
-15.65
-17.28
-19.83
-23.32
-27.59
-32.34
-37.20
-41.87
-45.95
-48.99
-50.37
-49.42
-45.61
-38.84
-29.68
-19.27
-9.18
-0.87
4.68
7.29
7.52
6.38
4.92
3.95
3.95
5.04
7.18
10.17
13.72
17.38
20.56
22.71
23.44
22.69
20.71
18.02
15.21
12.75
10.89
9.65
8.82
8.14
7.37
6.36
5.14
3.82
2.59
1.61
0.99
0.75
0.78
0.86
0.59
-0.47
-2.66
-6.03
-10.25
-14.69
-18.59
-21.32
-22.66
-22.79
-22.21
-21.50
-21.13
-21.42
-22.49
-24.32
-26.67
-29.01
-30.45
-29.96
-26.75
-20.71
-12.64
-4.06
3.41
8.81
12.19
14.42
16.62
19.45
22.75
25.70
27.39
27.39
25.95
23.82
21.76
20.15
18.84
17.41
15.48
13.04
10.42
8.10
6.44
5.38
4.54
3.41
1.62
-0.78
-3.42
-5.78
-7.46
-8.40
-8.86
-9.27
-9.98
-11.11
-12.48
-13.66
-14.17
-13.67
-12.01
-9.38
-6.11
-2.63
0.65
3.46
5.62
7.11
7.93
8.20
8.04
7.68
7.33
7.17
7.30
7.72
8.29
8.82
9.18
9.25
9.04
8.63
8.12
7.62
7.15
6.65
6.03
5.19
4.09
2.76
1.29
-0.21
-1.63
-2.87
-3.91
-4.75
-5.44
-6.15
-7.01
-8.12
-9.37
-10.47
-10.99
-10.50
-8.80
-5.98
-2.46
1.25
4.64
7.36
9.31
10.50
11.02
11.01
10.67
10.25
10.05
10.32
11.08
12.20
13.32
14.06
14.14
13.51
12.29
10.74
9.09
7.47
5.91
4.44
3.07
1.83
0.79
-0.04
-0.72
-1.30
-1.83
-2.33
-2.71
-2.95
-3.05
-3.09
-3.20
-3.53
-4.05
-4.58
-4.82
-4.34
-2.83
-0.09
3.78
8.41
13.21
17.56
20.89
22.89
23.47
22.75
21.01
18.60
15.89
13.24
11.01
9.33
8.14
7.17
6.05
4.51
2.50
0.23
-1.99
-3.88
-5.43
-6.76
-8.00
-9.13
-9.92
-10.13
-9.64
-8.60
-7.34
-6.17
-5.16
-4.13
-2.86
-1.30
0.27
1.30
1.40
0.57
-0.64
-1.33
-0.64
1.84
5.84
10.55
15.00
18.39
20.36
21.08
20.99
20.57
20.02
19.23
17.89
15.70
12.72
9.37
6.36
4.40
3.84
4.56
6.02
7.45
8.17
7.80
6.23
3.62
0.22
-3.76
-8.07
-12.41
-16.43
-19.68
-21.86
-22.90
-23.05
-22.81
-22.77
-23.27
-24.34
-25.61
-26.49
-26.38
-24.91
-22.01
-17.87
-13.00
-7.95
-3.27
0.61
3.47
5.31
6.27
6.55
6.33
5.68
4.71
3.46
2.07
0.77
-0.21
-0.73
-0.87
-0.87
-1.13
-1.99
-3.56
-5.57
-7.38
-8.14
-7.12
-3.94
1.16
7.54
14.24
20.37
25.26
28.55
30.08
29.82
27.75
23.93
18.64
12.38
5.88
-0.05
-4.69
-7.62
-8.73
-8.26
-6.63
-4.26
-1.50
1.41
4.25
6.74
8.53
9.30
8.88
7.40
5.24
2.88
0.76
-0.97
-2.32
-3.47
-4.56
-5.61
-6.53
-7.26
-7.81
-8.32
-9.06
-10.30
-12.16
-14.57
-17.29
-20.00
-22.42
-24.39
-25.84
-26.81
-27.32
-27.41
-27.09
-26.42
-25.50
-24.51
-23.59
-22.83
-22.12
-21.22
-19.81
-17.58
-14.47
-10.71
-6.82
-3.38
-0.84
0.69
1.42
1.69
1.81
1.89
1.85
1.53
0.88
-0.07
-1.15
-2.16
-2.94
-3.31
-3.18
-2.52
-1.41
-0.02
1.39
2.59
3.46
4.03
4.44
4.89
5.54
6.49
7.70
9.08
10.45
11.60
12.30
12.27
11.40
9.66
7.29
4.74
2.62
1.47
1.67
3.24
5.90
9.17
12.43
15.09
16.68
16.89
15.62
13.03
9.46
5.47
1.61
-1.62
-3.93
-5.21
-5.57
-5.19
-4.28
-2.97
-1.40
0.31
1.96
3.25
3.85
3.42
1.80
-0.88
-4.28
-7.90
-11.21
-13.83
-15.67
-16.87
-17.82
-18.93
-20.47
-22.48
-24.80
-27.00
-28.62
-29.26
-28.65
-26.76
-23.69
-19.72
-15.20
-10.56
-6.20
-2.44
0.51
2.62
4.01
4.90
5.57
6.24
7.13
8.37
9.96
11.83
13.86
15.88
17.77
19.44
20.77
21.66
22.01
21.72
20.74
19.13
16.92
14.22
11.15
7.87
4.53
1.35
-1.52
-4.04
-6.24
-8.33
-10.43
-12.54
-14.44
-15.73
-15.98
-14.88
-12.41
-8.85
-4.75
-0.69
2.83
5.61
7.63
9.00
9.76
9.89
9.34
8.03
6.15
3.99
1.96
0.39
-0.55
-0.95
-1.01
-0.95
-0.93
-0.99
-1.09
-1.28
-1.66
-2.39
-3.63
-5.40
-7.53
-9.71
-11.63
-13.12
-14.28
-15.38
-16.69
-18.31
-20.01
-21.27
-21.44
-20.08
-17.05
-12.66
-7.41
-1.90
3.39
8.12
12.00
14.78
16.24
16.34
15.25
13.47
11.62
10.23
9.52
9.42
9.64
9.91
10.15
10.42
10.79
11.24
11.57
11.50
10.83
9.54
7.75
5.72
3.63
1.60
-0.33
-2.15
-3.81
-5.25
-6.44
-7.48
-8.54
-9.81
-11.29
-12.74
-13.65
-13.40
-11.53
-7.93
-2.99
2.61
7.96
12.34
15.33
16.93
17.40
17.16
16.63
16.11
15.82
15.76
15.87
16.01
16.07
15.99
15.81
15.59
15.35
15.01
14.36
13.23
11.49
9.17
6.52
3.81
1.26
-1.12
-3.56
-6.46
-10.32
-15.56
-22.35
-30.38
