1594920460.00
64.000000
-0.00
-0.00
-0.00
-0.00
-0.00
-0.00
-0.00
-0.00
-0.00
-0.00
0.00
0.01
0.01
-0.00
-0.03
-0.05
-0.05
0.00
0.13
0.36
0.66
1.01
1.37
1.72
2.06
2.40
2.79
3.24
3.80
4.42
5.06
5.66
6.20
6.68
7.15
7.68
8.31
9.14
10.09
11.04
11.89
12.57
13.13
13.75
14.64
15.96
17.93
20.36
22.96
25.43
27.56
29.42
31.35
33.79
37.11
41.71
47.24
53.17
58.87
63.95
68.45
72.85
77.87
84.09
92.07
101.31
110.97
120.08
127.99
134.71
140.86
147.86
154.52
163.21
174.52
188.43
203.55
216.78
223.67
219.65
201.56
168.84
124.09
71.19
14.26
-43.89
-102.12
-160.39
-218.72
-276.37
-331.91
-383.42
-429.86
-470.90
-506.61
-536.85
-560.60
-575.96
-580.52
-572.36
-550.55
-516.04
-471.26
-419.54
-364.35
-308.79
-255.24
-205.17
-158.93
-115.46
-72.70
-28.11
20.10
71.90
124.95
175.28
218.65
252.05
274.61
287.28
292.01
290.73
284.80
275.08
262.41
247.81
232.45
217.30
202.85
189.10
175.72
162.28
148.57
134.68
120.95
107.89
95.98
85.52
76.50
68.65
61.50
54.64
47.85
41.23
35.05
29.73
25.36
21.78
18.65
15.57
12.29
8.74
5.11
1.80
-0.86
-2.71
-3.93
-4.90
-6.14
-7.93
-10.22
-12.66
-14.77
-16.18
-16.84
-16.87
-16.42
-15.54
-14.18
-12.31
-10.18
-8.23
-7.01
-6.87
-7.79
-9.31
-10.75
-11.52
-11.36
-10.30
-8.59
-6.39
-3.80
-0.77
2.69
6.51
10.57
14.76
19.04
23.35
27.36
30.38
31.32
28.99
22.58
12.06
-1.60
-16.62
-30.85
-42.40
-49.99
-53.13
-51.98
-47.00
-38.81
-28.33
-16.95
-6.65
0.42
2.82
0.60
-4.42
-9.15
-10.41
-6.42
2.49
14.02
25.02
32.90
36.55
36.45
33.91
30.25
26.16
21.74
16.88
11.77
7.04
3.60
2.21
3.04
5.47
8.31
10.16
9.87
6.93
1.65
-4.92
-11.31
-16.27
-19.04
-19.66
-18.86
-17.63
-16.80
-16.62
-16.83
-16.85
-16.16
-14.59
-12.43
-10.32
-8.89
-8.48
-8.84
-9.29
-8.96
-7.24
-4.05
0.07
4.18
7.30
8.77
8.43
6.61
3.94
1.17
-1.04
-2.32
-2.57
-1.99
-0.94
0.17
0.96
1.14
0.54
-0.84
-2.81
-4.99
-6.86
-7.91
-7.86
-6.84
-5.29
-3.85
-3.03
-3.06
-3.85
-4.99
-5.98
-6.34
-5.79
-4.26
-1.95
0.88
3.86
6.68
9.12
11.12
12.71
14.01
15.16
15.93
16.28
16.32
16.23
16.23
16.52
17.13
17.91
18.54
18.62
17.97
16.57
14.59
12.26
9.70
6.85
3.50
-0.60
-5.49
-10.91
-16.46
-21.70
-26.38
-30.43
-33.95
-37.03
-39.66
-41.63
-42.65
-42.46
-40.94
-38.19
-34.51
-30.34
-26.16
-22.31
-18.98
-16.14
-13.69
-11.56
-9.78
-8.52
-8.00
-8.45
-10.06
-12.97
-17.21
-22.60
-28.59
-34.23
-38.29
-39.62
-37.57
-32.35
-25.02
-17.15
-10.36
-5.86
-4.18
-5.19
-8.18
-12.11
-15.79
-18.16
-18.48
-16.55
-12.80
-8.13
-3.62
-0.21
1.62
1.88
0.99
-0.42
-1.73
-2.46
-2.26
-0.94
1.61
5.43
10.53
16.83
24.16
32.27
40.91
49.94
59.33
69.07
78.93
88.31
96.21
101.61
103.81
102.80
99.14
93.60
86.59
77.84
66.59
52.26
35.11
16.64
-0.69
-14.29
-22.39
-24.67
-22.23
-17.01
-10.99
-5.53
-1.18
2.08
4.44
5.87
6.16
5.08
2.70
-0.50
-3.81
-6.60
-8.63
-10.01
-11.05
-11.89
-12.31
-11.74
-9.64
-5.74
-0.27
6.15
12.83
19.34
25.61
31.81
38.17
44.69
51.06
56.63
60.60
62.04
60.12
54.30
44.62
31.91
17.82
4.49
-6.02
-12.30
-14.13
-12.42
-8.93
-5.64
-4.14
-5.24
-8.87
-14.30
-20.45
-26.27
-31.05
-34.48
-36.56
-37.38
-37.03
-35.57
-33.26
-30.64
-28.56
-27.90
-29.28
-32.52
-36.61
-40.01
-41.25
-39.45
-34.61
-27.57
-19.69
-12.73
-8.16
-6.85
-8.80
-13.15
-18.32
-22.52
-24.43
-23.68
-21.17
-18.05
-15.17
-12.83
-11.04
-9.98
-10.19
-12.50
-17.49
-25.33
-34.72
-43.33
-48.74
-49.44
-45.21
-36.89
-25.74
-11.39
5.13
22.12
37.78
51.04
61.41
68.52
72.01
71.78
69.48
65.22
59.48
53.10
46.91
41.46
36.79
32.67
28.83
24.91
20.61
16.13
11.79
7.75
3.90
-0.28
-5.04
-10.01
-14.20
-16.60
-16.29
-12.96
-7.21
-0.36
5.45
8.20
6.49
-0.08
-11.00
-24.73
-39.14
-51.83
-60.65
-64.56
-63.41
-58.03
-50.11
-41.91
-35.79
-33.64
-36.58
-41.50
-45.82
-48.03
-48.83
-50.10
-53.11
-57.62
-62.07
-64.35
-62.44
-55.50
-43.48
-27.34
-8.92
9.17
24.07
33.66
37.49
37.03
34.44
31.74
29.88
28.62
27.18
25.12
22.94
21.88
23.23
27.15
32.55
37.50
40.08
39.27
35.12
28.79
22.07
17.03
15.32
17.79
23.97
31.87
38.74
42.13
41.41
38.20
35.55
35.82
39.14
42.75
42.88
36.96
25.26
11.15
-0.98
-8.13
-10.57
-11.32
-14.23
-21.99
-34.01
-47.46
-58.73
-65.35
-66.99
-65.73
-64.81
-66.04
-70.37
-75.26
-76.34
-69.37
-53.29
-29.33
-1.78
24.08
44.03
56.04
60.75
59.85
56.58
53.45
51.54
50.26
48.00
43.24
35.44
26.01
17.85
14.27
16.84
24.15
31.69
33.96
27.35
12.02
-7.93
-26.82
-40.05
-46.05
-46.01
-42.27
-36.50
-29.11
-20.02
-9.88
-0.61
5.43
6.88
4.53
0.93
-1.12
-0.43
2.11
4.35
4.48
2.20
-1.20
-3.82
-4.50
-3.53
-2.52
-3.21
-6.52
-12.00
-17.98
-22.44
-23.89
-21.95
-17.34
-11.47
-5.68
-0.80
3.07
6.28
9.18
11.68
13.21
12.94
10.16
4.66
-2.98
-11.37
-18.52
-22.21
-20.65
-12.95
0.29
16.87
33.40
46.01
51.94
50.28
42.11
29.89
16.52
4.39
-5.06
-11.42
-14.88
-15.81
-14.68
-11.83
-7.92
-3.89
-0.86
0.31
-0.55
-2.79
-5.20
-6.49
-5.97
-3.92
-1.39
0.31
0.29
-1.45
-4.08
-6.37
-7.36
-6.90
-5.64
-4.52
-4.19
-4.69
-5.46
-5.79
-5.10
-3.10
0.07
4.13
8.74
13.47
17.66
20.26
19.91
14.82
4.42
-10.49
-27.63
-43.61
-54.85
-58.76
-54.54
-43.36
-27.77
-10.74
5.08
17.93
26.96
32.04
33.41
31.56
27.32
21.96
17.00
13.73
12.82
13.91
15.62
16.34
14.79
11.25
7.88
7.65
12.75
22.75
34.12
41.27
39.19
26.07
4.65
-18.64
-36.73
-44.39
-41.04
-30.22
-17.09
-5.74
2.23
7.54
12.01
16.73
22.27
28.89
36.58
44.92
52.62
57.49
56.29
47.81
33.05
13.52
-8.08
-29.05
-47.63
-63.00
-74.91
-83.28
-86.61
-86.27
-83.87
-80.55
-76.37
-70.20
-60.30
-45.70
-27.14
-7.09
10.87
24.13
32.03
35.75
37.24
38.12
39.04
39.90
40.56
41.01
41.83
43.49
45.72
47.37
46.96
43.44
36.89
28.66
20.69
15.04
12.68
13.39
15.80
17.89
17.73
14.07
6.60
-4.09
-16.55
-28.95
-39.61
-47.32
-51.57
-52.52
-50.89
-47.62
-43.68
-39.72
-36.01
-32.50
-28.90
-25.01
-20.80
-16.61
-13.11
-11.04
-10.75
-11.97
-13.64
-14.26
-12.27
-6.71
2.28
13.16
23.13
29.26
30.38
27.60
23.87
22.50
25.76
33.91
45.43
57.92
69.01
76.70
79.20
75.03
63.53
45.72
24.55
4.24
-11.07
-19.00
-19.79
-15.97
-11.07
-8.43
-10.11
-16.59
-26.72
-37.68
-45.69
-47.44
-41.86
-31.08
-19.73
-12.70
-11.99
-16.59
-22.87
-26.77
-26.01
-20.98
-13.61
-6.56
-0.98
3.55
7.75
11.59
14.08
14.01
10.80
5.28
-0.75
-5.26
-6.95
-5.65
-2.09
2.56
7.00
10.07
10.90
8.95
4.41
-1.74
-7.97
-12.71
-14.95
-14.83
-13.53
-12.57
-12.73
-14.25
-16.41
-18.63
-21.04
-24.35
-28.65
-32.25
-31.51
-22.23
-2.01
27.76
61.51
91.40
110.34
114.63
104.84
84.78
59.36
32.70
7.50
-14.77
-33.07
-46.51
-54.43
-56.91
-55.00
-50.50
-45.34
-41.05
-38.61
-38.44
-40.64
-44.75
-49.42
-52.53
-51.65
-45.10
-32.77
-16.34
1.47
18.07
31.99
42.83
50.84
56.02
58.13
57.17
53.88
49.72
46.00
42.99
39.60
34.16
25.80
15.41
5.34
-1.97
-5.24
-4.98
-3.03
-1.24
-0.67
-1.25
-2.18
-2.48
-1.57
0.62
3.64
6.72
8.94
9.51
8.03
4.75
0.39
-4.41
-9.20
-13.84
-17.95
-20.75
-21.21
-18.54
-12.61
-4.16
5.32
14.03
20.12
22.14
19.07
10.66
-2.11
-16.98
-30.86
-41.04
-45.58
-45.51
-43.16
-41.17
-41.18
-43.17
-46.50
-49.85
-53.20
-57.35
-63.10
-69.83
-75.51
-77.41
-73.10
-61.70
-44.09
-22.64
-0.10
21.12
39.32
53.12
61.18
62.97
59.30
52.67
46.61
44.57
48.25
56.74
66.63
73.00
71.89
61.59
43.16
19.87
-3.86
-23.82
-36.80
-39.90
-34.29
-23.64
-11.70
-0.66
9.05
18.00
26.50
33.97
39.12
40.59
38.37
34.10
30.20
28.65
30.17
34.14
39.07
43.34
45.36
44.20
39.64
32.06
22.31
11.59
1.16
-8.05
-15.69
-22.10
-27.70
-32.66
-36.76
-39.48
-40.21
-38.63
-34.92
-29.79
-24.53
-20.68
-19.76
-22.74
-29.54
-38.45
-46.71
-51.28
-49.98
-42.50
-30.33
-16.25
-3.14
6.42
11.51
12.49
10.52
7.14
3.63
1.26
1.11
3.77
8.99
15.57
21.48
24.58
23.32
17.43
8.18
-1.91
-9.98
-13.82
-12.73
-7.99
-2.05
2.55
4.38
3.49
0.86
-2.45
-5.97
-9.59
-13.13
-15.63
-15.76
-12.58
-6.33
1.35
8.04
11.83
12.21
10.21
7.77
6.56
7.23
9.37
11.98
14.10
15.22
15.37
14.26
12.38
10.29
8.38
6.87
6.08
6.64
9.56
15.69
23.94
31.79
35.83
33.63
25.20
12.89
-0.21
-11.60
-20.35
-26.88
-31.90
-35.91
-38.80
-40.55
-41.02
-40.44
-39.22
-37.68
-35.91
-33.69
-30.89
-27.54
-23.85
-20.06
-16.40
-12.97
-10.06
-7.82
-6.12
-4.68
-3.04
-0.76
2.40
6.27
10.29
13.60
15.34
14.95
12.36
8.13
3.29
-0.98
-3.80
-4.87
-4.56
-3.63
-2.87
-2.70
-3.04
-3.46
-3.54
-3.17
-2.64
-2.45
-2.97
-4.20
-5.76
-7.13
-7.91
-8.05
-7.87
-7.86
-8.44
-9.70
-11.49
-13.50
-15.51
-17.54
-19.77
-22.40
-25.38
-28.24
-30.13
-30.17
-27.91
-23.65
-18.38
-13.45
-10.02
-8.60
-8.96
-10.18
-11.23
-11.45
-10.80
-9.70
-8.85
-8.86
-10.10
-12.60
-15.95
-19.60
-23.09
-26.08
-28.23
-29.20
-28.68
-26.47
-22.65
-17.10
-10.17
-2.81
3.83
8.98
12.64
15.44
18.21
21.52
26.47
33.29
41.24
49.14
56.34
63.12
70.39
79.03
89.41
102.86
119.58
138.25
156.27
171.30
181.87
187.49
188.45
185.80
183.30
184.17
189.49
197.55
205.32
209.49
207.38
197.53
167.43
114.32
46.79
-18.98
-69.41
-98.96
-109.51
-106.80
-97.45
-87.32
-78.53
-72.22
-68.12
-68.10
-72.82
-81.05
-90.10
-97.28
-101.28
-101.17
-98.48
-96.93
-101.14
-112.47
-128.81
-145.56
-158.60
-165.92
-166.16
-158.70
-143.32
-121.07
-94.19
-66.39
-41.78
-23.42
-12.19
-6.20
-2.54
1.45
7.42
16.46
28.91
43.63
57.36
65.12
62.40
47.21
21.59
-9.28
-38.89
-61.64
-74.04
-74.81
-63.99
-42.64
-13.28
19.78
51.42
76.55
92.18
98.17
96.59
90.01
80.21
66.78
50.73
32.66
13.53
-5.38
-22.84
-37.59
-47.94
-51.55
-46.19
-30.96
-7.92
17.98
40.38
53.70
55.26
45.99
29.77
11.62
-3.93
-14.38
-19.31
-19.76
-17.59
-14.82
-13.12
-13.48
-16.03
-19.98
-24.23
-27.91
-30.52
-32.48
-34.78
-38.51
-44.31
-51.98
-60.39
-67.23
-70.06
-66.07
-53.16
-30.99
-1.94
29.02
55.54
72.24
76.79
70.63
58.06
43.72
30.46
18.67
7.39
-3.94
-14.19
-20.93
-21.99
-16.94
-7.66
2.66
11.33
17.40
21.71
25.66
29.84
33.30
34.06
30.39
21.84
9.45
-4.71
-18.58
-30.56
-39.93
-46.99
-52.72
-58.22
-63.87
-68.68
-70.06
-64.88
-51.19
-29.84
-4.11
20.95
40.98
54.27
61.83
65.81
67.55
66.17
60.57
50.43
37.79
26.63
20.55
20.52
24.14
27.19
26.27
20.68
12.29
4.11
-1.74
-4.99
-6.68
-7.79
-8.34
-7.52
-4.70
-0.56
3.00
3.71
0.12
-7.59
-17.68
-27.75
-35.65
-40.04
-40.76
-38.60
-34.88
-30.89
-27.50
-24.90
-22.66
-20.12
-16.83
-12.86
-8.76
-5.38
-3.38
-3.03
-4.10
-5.88
-7.62
-8.68
-8.81
-8.07
-6.64
-4.58
-1.77
1.99
6.69
11.80
16.37
19.36
20.16
18.98
16.79
14.81
13.86
14.01
14.67
15.05
14.69
13.66
12.34
11.07
9.85
8.23
5.58
1.50
-3.83
-9.56
-14.54
-17.81
-19.07
-18.65
-17.32
-15.77
-14.28
-12.74
-10.93
-8.88
-7.01
-5.95
-6.12
-7.56
-9.91
-12.66
-15.40
-17.94
-20.22
-22.09
-23.27
-23.40
-22.37
-20.37
-17.83
-15.13
-12.43
-9.48
-5.78
-1.40
3.62
9.11
14.78
20.46
26.12
31.85
37.63
43.16
47.95
51.55
53.72
54.56
54.45
53.86
53.06
52.02
50.46
48.02
44.57
40.19
35.10
29.51
23.49
17.01
10.04
2.78
-4.26
-10.31
-14.68
-17.07
-17.69
-17.27
-16.72
-16.76
-17.67
-19.25
-21.00
-22.44
-23.30
-23.60
-23.54
-23.38
-23.25
-23.15
-22.94
-22.42
-21.44
-19.96
-18.08
-15.97
-13.84
-11.86
-10.12
-8.64
-7.39
-6.42
-5.83
-5.75
-6.26
-7.27
-8.62
-10.02
-11.24
-12.20
-12.93
-13.52
-14.00
-14.31
-14.27
-13.73
-12.64
-11.10
-9.29
-7.38
-5.46
-3.52
-1.51
0.57
2.68
4.76
6.73
8.56
10.26
11.83
13.22
14.34
15.08
15.36
15.12
14.34
13.09
11.58
10.22
9.49
9.72
10.81
12.11
12.57
11.22
7.69
2.55
-2.86
-6.92
-8.61
-8.15
-7.01
-7.26
-10.44
-16.69
-24.49
-31.36
-34.86
-33.59
-27.40
-17.13
-4.06
10.20
23.54
33.22
36.36
31.10
17.86
-0.23
-18.19
-31.11
-36.12
-33.29
-24.98
-14.42
-4.15
4.60
11.63
17.03
20.61
21.96
20.88
17.80
13.75
10.02
7.58
6.77
7.19
7.95
8.14
7.16
4.97
2.07
-0.72
-2.57
-2.97
-1.87
0.43
3.48
6.87
10.35
13.78
17.03
19.85
21.92
22.90
22.56
20.93
18.25
15.04
11.85
9.15
7.19
5.84
4.69
3.22
1.07
-1.79
-5.04
-8.21
-10.96
-13.35
-15.80
-18.92
-23.22
-28.83
-35.44
-42.43
-49.21
-55.45
-61.11
-66.32
-71.06
-74.91
-76.97
-76.07
-71.13
-61.54
-47.31
-29.06
-7.80
15.30
38.95
61.82
82.48
99.50
111.59
118.00
118.73
114.53
106.75
96.96
86.68
77.10
68.89
62.22
56.89
52.41
48.20
43.78
38.83
33.41
27.89
22.59
17.60
12.67
7.26
0.83
-6.83
-15.39
-23.82
-30.75
-35.19
-36.86
-36.35
-34.69
-33.01
-32.12
-32.43
-33.67
-35.10
-35.95
-35.41
-32.90
-28.41
-22.99
-18.60
-18.99
-28.31
-47.86
-73.68
-96.93
-107.27
-97.32
-66.19
-20.39
28.38
68.41
93.65
102.15
95.82
79.15
57.21
34.31
13.60
-2.58
-12.40
-14.68
-9.07
2.28
14.99
23.95
25.25
17.94
4.48
-10.28
-21.41
-26.34
-25.67
-22.27
-19.36
-18.70
-19.75
-20.38
-18.43
-13.20
-6.10
0.24
3.58
3.18
-0.14
-4.68
-8.91
-12.11
-14.33
-16.00
-17.42
-18.43
-18.67
-17.94
-16.53
-15.15
-14.56
-15.16
-16.57
-17.63
-16.71
-12.32
-3.89
7.70
20.00
29.50
32.80
27.94
15.29
-2.34
-20.69
-35.66
-44.71
-47.54
-45.61
-41.03
-35.41
-29.29
-22.43
-14.47
-5.64
3.14
10.68
16.20
19.78
22.31
24.91
28.28
32.28
35.91
37.84
37.04
33.30
27.31
20.38
13.90
8.89
5.77
4.45
4.53
5.53
7.08
8.87
10.68
12.28
13.50
14.21
14.40
14.12
13.41
12.20
10.33
7.54
3.75
-0.86
-5.69
-9.86
-12.47
-12.98
-11.45
-8.56
-5.43
-3.22
-2.74
-4.25
-7.47
-11.75
-16.40
-20.89
-24.92
-28.31
-30.80
-31.92
-31.13
-28.01
-22.54
-15.33
-7.42
0.00
6.01
10.17
12.53
13.40
13.10
11.84
9.75
7.06
4.13
1.44
-0.60
-1.81
-2.29
-2.36
-2.37
-2.62
-3.23
-4.11
-5.03
-5.66
-5.72
-5.05
-3.72
-2.02
-0.37
0.83
1.36
1.27
0.85
0.50
0.61
1.38
2.82
4.79
7.07
9.45
11.78
13.94
15.77
17.10
17.80
17.83
17.32
16.56
15.83
15.30
14.97
14.72
14.47
14.32
14.49
15.21
16.39
17.57
18.00
16.97
14.11
9.60
4.05
-1.77
-7.27
-12.20
-16.62
-20.72
-24.59
-28.16
-31.19
-33.41
-34.58
-34.61
-33.52
-31.45
-28.57
-25.07
-21.15
-17.05
-13.12
-9.84
-7.61
-6.59
-6.41
-6.24
-5.02
-1.98
2.87
8.60
13.62
16.36
16.00
12.80
8.01
3.19
-0.40
-2.33
-2.96
-3.04
-3.25
-3.81
-4.59
-5.29
-5.77
-6.21
-6.96
-8.23
-9.91
-11.52
-12.38
-11.95
-10.12
-7.25
-4.07
-1.36
0.34
0.87
0.45
-0.46
-1.45
-2.30
-3.00
-3.70
-4.50
-5.31
-5.89
-5.91
-5.23
-3.95
-2.43
-1.10
-0.24
0.10
0.11
0.07
0.14
0.26
0.23
-0.13
-0.81
-1.64
-2.30
-2.52
-2.12
-1.12
0.36
2.10
3.91
5.70
7.38
8.91
10.27
11.52
12.70
13.78
14.60
15.12
15.46
15.89
16.70
18.11
20.29
23.05
25.73
27.23
26.67
23.74
18.85
13.00
7.51
3.72
2.24
2.57
3.14
2.53
0.16
-3.46
-7.15
-9.44
-8.89
-4.80
2.59
11.66
20.46
26.73
27.92
21.16
3.05
-26.40
-61.56
-92.82
-112.57
-117.32
-107.88
-87.85
-62.37
-36.36
-13.43
4.36
17.47
25.84
30.25
32.07
33.09
34.75
38.25
44.36
50.18
56.38
61.12
62.81
58.83
49.24
36.27
23.95
16.33
15.46
20.73
28.21
33.43
33.10
26.80
15.20
2.12
-7.48
-10.81
-8.48
-4.08
-0.37
1.30
0.69
-2.00
-6.18
-11.39
-17.37
-23.54
-29.33
-33.95
-36.76
-37.22
-35.01
-29.81
-21.84
-11.92
-1.18
9.06
17.67
23.76
26.79
26.69
24.03
19.65
14.36
8.74
3.01
-2.82
-8.69
-14.18
-18.41
-20.42
-19.78
-16.99
-13.30
-10.01
-7.92
-6.98
-6.55
-5.82
-4.33
-2.14
0.28
2.42
4.04
5.12
5.81
6.28
6.70
7.22
7.99
9.06
10.41
11.92
13.43
14.84
16.06
17.13
18.13
19.11
20.11
21.04
21.75
22.01
21.60
20.27
17.72
13.64
7.79
0.13
-8.98
-18.75
-28.08
-35.86
-41.27
-44.16
-45.01
-44.79
-44.49
-44.71
-45.46
-46.17
-45.88
-43.65
-38.90
-31.64
-22.41
-12.22
-2.35
5.92
11.55
14.20
14.31
12.85
10.91
9.34
8.35
7.54
6.13
3.41
-0.54
-4.92
-8.70
-11.22
-12.39
-12.70
-12.96
-14.08
-16.69
-20.48
-24.27
-26.79
-27.05
-24.42
-18.69
-10.25
-0.19
9.94
19.22
27.71
35.81
44.16
53.49
64.34
76.55
88.82
96.01
92.67
75.89
46.55
9.01
-30.60
-65.40
-88.67
-95.30
-83.49
-57.32
-21.03
18.40
52.68
74.91
81.74
73.61
53.90
27.79
1.53
-19.11
-29.17
-26.39
-11.86
10.51
34.75
53.61
60.17
52.51
35.21
15.52
-0.95
-12.19
-18.69
-22.18
-24.14
-25.04
-24.22
-20.75
-14.66
-7.10
-0.48
3.76
4.41
0.58
-8.08
-20.94
-36.63
-53.56
-68.46
-79.25
-85.13
-86.81
-85.69
-82.82
-78.18
-70.98
-60.75
-48.49
-36.50
-26.83
-19.87
-13.57
-4.11
12.00
35.55
63.89
91.77
113.72
126.84
131.43
129.95
124.99
117.75
107.86
94.25
76.04
53.53
28.24
2.00
-23.68
-47.90
-70.13
-89.95
-103.99
-110.96
-110.78
-104.03
-91.60
-74.66
-54.76
-33.83
-13.96
3.10
15.65
22.64
23.54
18.34
7.92
-5.54
-18.62
-27.40
-28.83
-22.18
-8.97
7.69
24.12
37.19
45.10
47.47
45.05
39.19
31.28
22.59
14.21
7.12
1.96
-1.05
-2.17
-1.80
-0.17
2.67
6.82
12.12
17.64
21.83
23.38
21.65
17.42
12.49
8.60
6.54
5.74
4.78
2.60
-0.71
-4.01
-5.56
-4.48
-1.37
2.07
3.98
3.41
0.72
-2.48
-4.43
-4.10
-1.64
1.80
4.95
7.02
8.06
8.61
9.12
9.44
9.01
7.23
3.95
-0.40
-5.09
-9.61
-13.88
-18.08
-22.06
-25.25
-26.77
-25.98
-22.87
-18.36
-13.91
-10.84
-9.78
-10.37
-11.57
-12.21
-11.54
-9.41
-6.26
-2.80
0.40
2.99
4.92
6.29
7.22
7.83
8.15
8.23
8.08
7.82
7.59
7.57
7.86
8.43
9.12
9.62
9.63
8.89
7.26
4.65
1.20
-2.69
-6.29
-8.81
-9.58
-8.45
-5.85
-2.75
-0.18
1.16
1.19
0.47
-0.07
0.37
2.33
5.73
9.87
13.54
15.53
15.00
12.03
7.49
2.68
-0.99
-2.45
-1.37
1.86
6.39
11.08
14.77
16.20
14.26
8.85
1.01
-7.32
-14.17
-18.33
-19.97
-20.29
-19.99
-20.54
-22.66
-25.80
-28.59
-29.85
-29.19
-28.06
-27.16
-26.97
-27.69
-29.04
-30.49
-31.61
-32.27
-31.91
-30.45
-27.71
-23.74
-18.89
-13.47
-7.69
-1.50
5.40
13.52
23.03
33.55
43.61
50.96
53.47
50.07
41.19
28.76
15.63
4.56
-2.51
-5.14
-4.38
-2.09
-0.10
0.55
-0.02
-0.62
0.22
3.52
9.16
15.92
22.05
26.08
27.39
26.37
23.95
20.99
17.91
14.61
10.75
6.14
1.00
-4.08
-8.38
-11.36
-12.93
-13.46
-13.62
-14.02
-15.01
-16.48
-18.02
-19.12
-19.42
-18.86
-17.71
-16.39
-15.33
-14.81
-14.85
-15.25
-15.63
-15.56
-14.68
-12.80
-9.91
-6.01
-1.03
5.13
12.46
20.52
28.21
33.99
36.47
35.24
31.20
26.34
22.81
21.76
22.78
24.12
23.62
19.97
13.29
5.03
-2.87
-8.93
-12.69
-14.67
-15.81
-16.80
-17.73
-18.14
-17.46
-15.45
-12.51
-9.61
-8.00
-8.67
-12.02
-17.76
-25.03
-32.67
-39.51
-44.62
-47.37
-47.52
-45.18
-40.78
-34.89
-27.96
-20.26
-11.80
-2.54
7.39
17.52
27.18
35.69
42.65
48.09
52.31
55.65
58.21
59.76
59.97
58.67
56.14
53.02
50.05
47.57
45.22
41.98
36.61
28.33
17.19
4.15
-9.28
-21.50
-31.29
-38.05
-41.75
-42.71
-41.20
-37.47
-31.77
-24.41
-15.68
-5.87
4.77
15.93
27.10
37.76
47.13
54.36
58.89
60.69
60.34
58.58
55.84
51.95
46.74
40.18
32.84
26.03
21.43
20.54
23.96
31.14
37.81
39.96
34.70
21.14
0.37
-24.98
-51.40
-75.24
-93.73
-105.84
-111.99
-113.85
-113.52
-112.98
-113.40
-114.63
-114.69
-110.03
-96.70
-72.17
-37.64
1.55
37.73
64.29
78.62
82.71
81.13
77.69
73.40
66.45
54.48
37.31
18.02
1.77
-7.02
-6.99
-0.33
8.85
16.75
21.79
24.85
27.86
31.81
35.45
35.69
29.27
14.95
-5.42
-27.56
-46.70
-59.52
-65.04
-64.13
-58.17
-48.07
-34.23
-17.30
1.10
18.37
31.67
39.04
40.02
35.51
26.98
16.10
4.47
-5.88
-12.65
-14.10
-10.22
-3.43
2.00
1.76
-6.33
-20.90
-37.27
-49.37
-52.36
-44.76
-29.22
-11.31
2.61
7.83
2.85
-10.18
-26.54
-40.96
-49.05
-49.17
-42.22
-30.60
-17.10
-4.03
6.94
14.95
19.72
21.62
21.87
22.30
24.63
29.64
36.74
44.54
51.80
58.01
63.55
68.83
73.18
74.34
69.07
54.51
29.85
-2.42
-36.54
-65.22
-82.45
-86.07
-78.47
-65.02
-50.93
-38.76
-27.92
-16.43
-3.51
9.07
17.73
19.42
13.84
4.14
-4.70
-8.54
-6.27
-0.08
6.11
8.96
7.37
2.45
-3.40
-7.74
-9.22
-7.84
-4.52
-0.41
3.54
6.87
9.42
11.25
12.55
13.62
14.68
15.63
15.81
14.15
10.03
3.76
-3.18
-8.54
-10.38
-8.08
-2.63
3.94
9.62
13.32
14.91
14.91
13.72
11.48
8.25
4.30
0.21
-3.30
-5.74
-7.24
-8.41
-10.11
-12.78
-16.13
-19.00
-19.66
-16.57
-9.13
1.49
12.30
19.45
19.91
13.02
1.03
-11.85
-21.12
-23.71
-18.91
-8.23
5.68
19.45
30.40
36.73
37.51
32.85
23.94
12.85
1.98
-6.62
-11.77
-13.08
-10.99
-6.50
-1.20
2.92
4.00
1.24
-4.52
-10.86
-14.92
-14.81
-10.77
-4.95
-0.39
0.63
-2.30
-7.68
-13.06
-16.32
-16.69
-14.95
-12.73
-11.67
-12.61
-15.30
-18.54
-20.76
-20.68
-17.82
-12.69
-6.65
-1.30
2.21
3.59
3.55
3.53
4.87
8.25
13.38
19.29
24.75
28.62
29.75
26.61
17.91
3.49
-14.28
-30.52
-38.90
-34.67
-17.49
7.59
32.11
47.96
51.12
43.01
28.95
15.01
4.89
-1.00
-4.42
-7.28
-10.19
-12.44
-12.96
-11.45
-8.72
-6.19
-5.16
-6.05
-8.31
-10.75
-12.27
-12.38
-11.52
-10.73
-11.15
-13.28
-16.68
-20.03
-21.86
-21.23
-18.23
-13.77
-9.16
-5.47
-3.13
-1.88
-1.17
-0.40
0.77
2.40
4.34
6.34
8.05
9.17
9.52
9.14
8.32
7.52
6.82
6.44
6.46
6.77
7.22
7.65
7.98
8.17
8.10
7.61
6.61
5.14
3.51
2.24
1.91
2.87
5.09
8.14
11.19
13.28
13.41
10.77
5.09
-3.18
-12.86
-22.22
-29.50
-33.47
-33.85
-31.46
-27.74
-24.11
-21.34
-19.40
-17.81
-16.12
-14.30
-12.56
-11.00
-9.25
-6.48
-1.86
4.72
12.47
20.05
26.41
31.51
36.21
41.50
47.43
52.57
54.58
51.48
43.02
30.87
17.78
6.09
-3.29
-11.01
-18.30
-25.66
-32.27
-36.01
-34.86
-28.17
-17.27
-4.89
6.07
13.76
17.86
19.26
19.50
19.72
20.13
20.00
18.32
14.47
8.58
1.40
-5.94
-11.90
-14.98
-14.00
-8.55
0.93
13.30
27.03
40.57
50.47
53.90
49.60
38.65
23.10
4.88
-13.88
-30.40
-41.38
-44.28
-38.34
-25.56
-9.47
6.30
19.55
29.95
37.98
43.69
46.05
44.63
38.39
27.92
15.29
3.20
-6.03
-11.52
-13.99
-15.22
-16.73
-19.93
-25.00
-31.02
-36.57
-40.25
-41.38
-40.12
-37.09
-32.64
-26.61
-18.12
-6.70
6.64
19.90
29.97
34.05
31.28
23.25
13.41
5.81
3.15
5.90
12.53
20.54
27.65
32.46
34.41
33.39
29.86
24.62
18.54
12.34
6.16
-0.45
-8.42
-17.65
-28.16
-39.43
-50.84
-62.01
-72.80
-82.65
-90.10
-92.92
-89.00
-77.71
-60.51
-41.06
-24.13
-13.87
-12.30
-18.80
-30.70
-44.25
-55.56
-60.96
-57.85
-45.50
-25.20
-0.07
25.69
47.82
62.75
67.59
62.92
53.03
43.16
36.41
32.80
30.26
26.46
20.17
11.79
3.26
-3.19
-6.24
-5.79
-2.74
1.48
5.25
7.09
6.02
1.97
-4.38
-11.84
-18.88
-23.90
-25.75
-24.08
-19.50
-13.38
-7.33
-2.95
-1.28
-2.22
-4.17
-4.42
-0.21
9.97
25.52
43.70
60.52
72.13
76.23
72.76
63.70
52.03
40.67
31.50
25.25
21.67
19.89
18.98
18.15
16.84
14.61
11.30
6.76
1.59
-3.01
-5.72
-5.62
-2.85
1.37
5.15
6.91
5.87
2.22
-3.32
-9.94
-16.97
-23.68
-29.12
-32.20
-32.11
-28.99
-24.07
-19.19
-15.90
-14.68
-14.79
-14.81
-13.68
-11.12
-7.83
-4.87
-3.01
-2.38
-2.58
-3.11
-3.65
-4.22
-4.95
-5.93
-7.14
-8.41
-9.46
-10.02
-9.88
-9.03
-7.86
-7.00
-7.14
-8.50
-10.62
-12.50
-13.10
-11.96
-9.55
-6.94
-5.15
-4.55
-4.79
-4.99
-4.43
-2.92
-0.84
1.16
2.53
3.02
2.65
1.57
0.08
-1.38
-2.17
-1.54
0.96
5.17
10.32
15.29
19.13
21.57
23.19
24.86
27.27
30.57
33.81
35.72
35.04
30.81
22.56
10.84
-2.49
-14.50
-21.93
-22.86
-17.91
-10.36
-4.64
-4.26
-9.91
-19.06
-27.23
-30.26
-26.20
-15.94
-2.84
9.27
16.84
17.60
10.89
-2.30
-19.48
-37.05
-50.96
-58.21
-57.50
-49.59
-37.06
-23.39
-11.61
-3.53
0.68
2.15
2.34
2.34
2.46
2.59
2.70
3.29
5.25
9.18
15.00
21.90
28.81
34.71
38.90
41.03
40.92
38.62
34.59
29.86
26.01
24.49
25.85
29.21
32.55
33.60
31.01
25.01
17.07
9.19
2.96
-1.15
-3.77
-6.04
-8.88
-12.51
-16.39
-19.60
-21.28
-21.24
-19.83
-17.83
-15.95
-14.56
-13.55
-12.59
-11.42
-10.03
-8.69
-7.68
-7.15
-7.02
-7.06
-7.05
-6.93
-6.78
-6.69
-6.66
-6.68
-6.75
-6.94
-7.29
-7.72
-8.02
-7.87
-6.99
-5.35
-3.14
-0.77
1.39
3.18
4.61
5.81
6.89
7.91
8.90
9.95
11.15
12.54
13.67
14.28
13.96
12.49
9.95
6.91
4.12
2.24
1.54
1.82
2.65
3.52
4.07
4.12
3.57
2.52
1.35
0.49
0.53
1.77
4.01
6.47
7.99
7.55
4.82
0.36
-4.52
-8.08
-9.24
-8.23
-5.81
-3.03
-0.74
0.75
1.61
2.18
2.56
2.35
0.85
-2.33
-7.02
-12.25
-16.59
-18.69
-17.94
-14.82
-10.64
-6.98
-4.89
-4.66
-5.53
-6.66
-7.38
-7.45
-7.18
-7.10
-7.53
-8.31
-8.92
-8.81
-7.72
-5.79
-3.49
-1.31
0.44
1.73
2.69
3.40
3.81
3.73
3.10
2.02
0.79
-0.27
-1.02
-1.52
-2.04
-2.81
-3.93
-5.21
-6.34
-6.97
-6.90
-6.15
-4.88
-3.33
-1.71
-0.22
1.09
2.20
3.12
3.86
4.36
4.50
4.19
3.40
2.29
1.09
0.07
-0.64
-1.13
-1.62
-2.29
-3.16
-4.04
-4.60
-4.64
-4.17
-3.44
-2.86
-2.76
-3.28
-4.34
-5.71
-7.10
-8.30
-9.16
-9.60
-9.61
-9.16
-8.26
-6.90
-5.09
-2.91
-0.48
1.98
4.19
5.93
7.04
7.53
7.51
7.18
6.67
6.04
5.29
4.36
3.23
1.96
0.68
-0.40
-1.10
-1.32
-1.10
-0.60
-0.05
0.34
0.45
0.27
-0.16
-0.84
-1.82
-3.13
-4.66
-6.15
-7.21
-7.47
-6.76
-5.24
-3.34
-1.56
-0.26
0.44
0.69
0.73
0.74
0.77
0.70
0.43
-0.07
-0.72
-1.35
-1.84
-2.19
-2.52
-2.94
-3.50
-4.12
-4.57
-4.67
-4.35
-3.70
-2.97
-2.41
-2.23
-2.46
-2.96
-3.52
-3.93
-4.05
-3.84
-3.35
-2.61
-1.61
-0.30
1.38
3.42
5.68
7.87
9.67
10.77
11.05
10.59
9.67
8.64
7.84
7.47
7.57
8.02
8.62
9.22
9.71
10.07
10.32
10.43
10.32
9.88
9.03
7.79
6.23
4.52
2.80
1.19
-0.27
-1.56
-2.64
-3.36
-3.45
-2.64
-0.72
2.26
6.00
9.99
13.74
16.96
19.63
21.92
24.02
26.02
27.81
29.18
29.99
30.20
29.87
29.09
27.90
26.31
24.39
22.27
20.23
18.54
17.34
16.58
16.03
15.37
14.31
12.75
10.76
8.55
6.34
4.31
2.53
0.91
-0.70
-2.50
-4.67
-7.28
-10.29
-13.46
-16.45
-18.86
-20.35
-20.83
-20.38
-19.29
-17.87
-16.34
-14.80
-13.24
-11.69
-10.19
-8.84
-7.67
-6.64
-5.62
-4.53
-3.42
-2.51
-2.05
-2.15
-2.73
-3.48
-4.05
-4.24
-4.06
-3.74
-3.52
-3.62
-4.06
-4.80
-5.75
-6.85
-8.11
-9.47
-10.76
-11.66
-11.81
-10.97
-9.14
-6.58
-3.77
-1.16
0.96
2.56
3.82
4.91
5.94
6.82
7.38
7.46
7.04
6.22
5.18
4.05
2.89
1.75
0.64
-0.41
-1.32
-2.04
-2.57
-2.98
-3.34
-3.74
-4.25
-4.91
-5.78
-6.88
-8.16
-9.49
-10.66
-11.41
-11.57
-11.12
-10.15
-8.87
-7.41
-5.84
-4.10
-2.12
0.11
2.43
4.55
6.16
7.06
7.24
6.82
6.07
5.20
4.36
3.66
3.15
2.88
2.86
3.03
3.24
3.30
3.03
2.34
1.27
-0.08
-1.53
-2.92
-4.08
-4.88
-5.28
-5.33
-5.15
-4.92
-4.78
-4.76
-4.78
-4.68
-4.30
-3.54
-2.38
-0.91
0.81
2.63
4.39
5.88
6.86
7.14
6.71
5.72
4.50
3.37
2.52
1.95
1.51
1.03
0.45
-0.11
-0.46
-0.45
-0.11
0.39
0.81
0.95
0.80
0.44
-0.01
-0.49
-1.06
-1.84
-2.89
-4.09
-5.13
-5.58
-5.07
-3.40
-0.67
2.76
6.41
9.81
12.66
14.83
16.35
17.31
17.81
17.90
17.58
16.89
15.86
14.58
13.08
11.32
9.19
6.53
3.21
-0.76
-5.20
-9.81
-14.22
-18.10
-21.27
-23.71
-25.49
-26.72
-27.44
-27.58
-27.05
-25.77
-23.71
-20.88
-17.33
-13.12
-8.33
-3.14
2.17
7.22
11.63
15.12
17.63
19.30
20.41
21.24
21.95
22.53
22.79
22.37
20.88
18.05
13.86
8.64
2.97
-2.51
-7.25
-10.95
-13.58
-15.23
-16.00
-15.95
-15.14
-13.68
-11.74
-9.56
-7.37
-5.30
-3.49
-2.04
-1.10
-0.74
-0.99
-1.71
-2.67
-3.62
-4.40
-4.90
-5.08
-4.91
-4.38
-3.55
-2.62
-1.85
-1.51
-1.72
-2.40
-3.33
-4.24
-4.95
-5.42
-5.67
-5.70
-5.45
-4.83
-3.76
-2.32
-0.70
0.78
1.84
2.33
2.26
1.80
1.15
0.43
-0.42
-1.58
-3.26
-5.49
-8.09
-10.64
-12.64
-13.74
-13.85
-13.14
-11.92
-10.47
-8.92
-7.25
-5.40
-3.35
-1.28
0.50
1.67
1.95
1.28
-0.23
-2.33
-4.75
-7.27
-9.74
-12.07
-14.20
-16.10
-17.80
-19.39
-21.02
-22.83
-24.75
-26.53
-27.76
-28.04
-27.19
-25.40
-23.16
-21.07
-19.54
-18.63
-18.05
-17.34
-16.06
-14.00
-11.20
-7.88
-4.29
-0.65
2.92
6.42
9.85
13.21
16.44
19.39
21.89
23.85
25.29
26.40
27.51
28.93
30.81
33.08
35.46
37.62
39.30
40.41
41.02
41.29
41.27
40.93
40.09
38.62
36.48
33.83
30.97
28.25
25.91
23.97
22.24
20.38
18.12
15.34
12.16
8.84
5.71
3.02
0.92
-0.55
-1.36
-1.51
-1.01
0.10
1.64
3.37
5.01
6.30
7.13
7.50
7.50
7.26
6.88
6.38
5.73
4.89
3.85
2.74
1.77
1.13
0.87
0.85
0.78
0.37
-0.50
-1.70
-2.91
-3.84
-4.37
-4.64
-4.97
-5.69
-6.95
-8.68
-10.58
-12.30
-13.61
-14.38
-14.62
-14.36
-13.60
-12.33
-10.54
-8.33
-5.96
-3.74
-1.91
-0.59
0.30
0.94
1.46
1.88
2.13
2.11
1.86
1.48
1.17
1.08
1.27
1.65
2.05
2.30
2.27
1.93
1.37
0.72
0.14
-0.28
-0.57
-0.85
-1.28
-1.97
-2.91
-4.01
-5.17
-6.28
-7.31
-8.20
-8.82
-8.96
-8.43
-7.10
-5.04
-2.52
0.10
2.52
4.51
6.03
7.15
7.97
8.58
9.01
9.22
9.17
8.79
8.06
7.02
5.81
4.62
3.64
2.97
2.60
2.41
2.25
2.05
1.80
1.62
1.64
1.93
2.46
3.11
3.73
4.23
4.58
4.87
5.21
5.66
6.20
6.81
7.44
8.21
9.24
10.72
12.66
14.87
16.96
18.47
19.02
18.47
16.88
14.48
11.51
8.13
4.43
0.49
-3.59
-7.60
-11.36
-14.69
-17.52
-19.93
-22.05
-24.05
-26.03
-28.00
-29.82
-31.30
-32.25
-32.59
-32.38
-31.80
-31.08
-30.37
-29.73
-29.08
-28.34
-27.46
-26.44
-25.36
-24.22
-22.91
-21.27
-19.13
-16.46
-13.40
-10.27
-7.40
-5.00
-3.13
-1.65
-0.42
0.70
1.67
2.38
2.72
2.63
2.19
1.60
1.12
0.98
1.28
1.94
2.77
3.52
4.01
4.20
4.20
4.17
4.24
4.35
4.30
3.84
2.84
1.33
-0.47
-2.25
-3.79
-4.99
-5.93
-6.72
-7.42
-7.91
-8.01
-7.53
-6.41
-4.85
-3.17
-1.76
-0.84
-0.46
-0.51
-0.80
-1.25
-1.87
-2.71
-3.80
-5.08
-6.39
-7.58
-8.59
-9.43
-10.22
-11.07
-11.98
-12.87
-13.62
-14.10
-14.23
-14.00
-13.48
-12.74
-11.79
-10.62
-9.19
-7.48
-5.60
-3.74
-2.12
-0.86
0.13
1.11
2.46
4.51
7.41
11.06
15.12
19.12
22.67
25.50
27.52
28.79
29.40
29.42
28.94
27.99
26.71
25.28
23.88
22.63
21.54
20.47
19.31
17.97
16.53
15.13
13.91
12.92
12.10
11.28
10.29
8.98
7.34
5.50
3.69
2.15
1.02
0.24
-0.45
-1.36
-2.68
-4.33
-5.95
-7.05
-7.24
-6.42
-4.80
-2.79
-0.84
0.77
1.92
2.63
2.97
3.01
2.81
2.42
1.96
1.63
1.59
1.94
2.63
3.45
4.11
4.30
3.93
3.05
1.95
0.91
0.17
-0.20
-0.31
-0.33
-0.40
-0.60
-0.96
-1.49
-2.19
-3.07
-4.15
-5.34
-6.53
-7.53
-8.11
-8.06
-7.22
-5.62
-3.46
-1.11
1.00
2.56
3.47
3.84
3.94
3.96
3.97
3.84
3.45
2.74
1.85
0.98
0.33
-0.05
-0.29
-0.62
-1.21
-2.09
-3.08
-3.91
-4.39
-4.47
-4.33
-4.26
-4.51
-5.15
-6.07
-7.05
-7.86
-8.41
-8.76
-9.04
-9.35
-9.65
-9.74
-9.38
-8.39
-6.79
-4.86
-2.93
-1.32
-0.14
0.75
1.54
2.41
3.30
4.01
4.30
4.08
3.45
2.70
2.11
1.84
1.88
2.07
2.21
2.17
1.96
1.65
1.32
1.03
0.76
0.45
-0.00
-0.68
-1.59
-2.65
-3.69
-4.56
-5.17
-5.54
-5.72
-5.72
-5.46
-4.77
-3.50
-1.66
0.52
2.65
4.34
5.37
5.80
5.86
5.84
5.89
5.96
5.87
5.44
4.64
3.63
2.68
2.09
1.98
2.25
2.59
2.66
2.20
1.19
-0.17
-1.53
-2.60
-3.24
-3.56
-3.83
-4.30
-5.08
-6.06
-7.01
-7.69
-7.99
-7.94
-7.68
-7.28
-6.72
-5.87
-4.59
-2.91
-1.02
0.74
2.04
2.73
2.93
2.92
2.99
3.30
3.73
4.08
4.07
3.59
2.75
1.82
1.09
0.75
0.78
0.98
1.09
0.87
0.26
-0.65
-1.65
-2.55
-3.24
-3.80
-4.37
-5.10
-6.02
-7.08
-8.12
-8.97
-9.47
-9.54
-9.14
-8.24
-6.87
-5.06
-2.91
-0.56
1.80
3.92
5.56
6.56
6.89
6.70
6.22
5.74
5.45
5.43
5.58
5.76
5.85
5.83
5.75
5.67
5.59
5.39
4.93
4.11
3.01
1.86
0.91
0.31
-0.00
-0.29
-0.85
-1.84
-3.16
-4.48
-5.41
-5.69
-5.31
-4.47
-3.44
-2.36
-1.22
0.19
2.09
4.56
7.49
10.53
13.25
15.32
16.56
17.07
17.14
17.09
17.13
17.28
17.32
16.93
15.83
13.91
11.24
8.08
4.67
1.21
-2.24
-5.70
-9.24
-12.89
-16.66
-20.57
-24.59
-28.73
-32.89
-36.83
-40.19
-42.55
-43.53
-42.94
-40.83
-37.35
-32.73
-27.09
-20.50
-13.05
-5.03
3.03
10.45
16.55
20.96
23.67
25.09
25.80
26.31
26.91
27.58
28.07
28.08
27.43
26.09
24.22
22.00
19.57
17.00
14.26
11.37
8.38
5.47
2.86
0.72
-0.91
-2.07
-2.93
-3.63
-4.22
-4.71
-5.03
-5.13
-5.02
-4.82
-4.65
-4.63
-4.73
-4.83
-4.67
-4.04
-2.85
-1.22
0.57
2.20
3.50
4.50
5.42
6.51
7.90
9.48
10.97
12.08
12.65
12.80
12.82
13.03
13.53
14.14
14.42
13.90
12.32
9.81
6.79
3.86
1.51
-0.09
-1.10
-1.93
-3.00
-4.59
-6.71
-9.14
-11.55
-13.68
-15.40
-16.79
-17.98
-19.07
-20.02
-20.67
-20.77
-20.12
-18.68
-16.58
-14.07
-11.44
-8.91
-6.58
-4.44
-2.45
-0.61
1.01
2.29
3.13
3.54
3.63
3.60
3.57
3.63
3.70
3.68
3.49
3.09
2.56
2.02
1.55
1.20
0.91
0.57
0.06
-0.68
-1.57
-2.43
-3.12
-3.58
-3.99
-4.61
-5.66
-7.13
-8.74
-10.00
-10.43
-9.81
-8.28
-6.20
-4.01
-1.99
-0.14
1.64
3.48
5.30
6.86
7.88
8.18
7.90
7.35
6.96
6.93
7.25
7.61
7.68
7.29
6.54
5.71
5.15
5.01
5.22
5.48
5.48
5.01
4.09
2.93
1.75
0.69
-0.28
-1.33
-2.61
-4.11
-5.65
-6.91
-7.59
-7.53
-6.81
-5.72
-4.53
-3.44
-2.44
-1.38
-0.12
1.37
2.99
4.47
5.58
6.17
6.25
5.96
5.48
4.97
4.51
4.04
3.52
2.87
2.16
1.47
0.93
0.56
0.28
-0.07
-0.61
-1.35
-2.13
-2.73
-3.03
-3.08
-3.15
-3.58
-4.53
-5.96
-7.55
-8.89
-9.63
-9.61
-8.88
-7.64
-6.14
-4.60
-3.11
-1.71
-0.41
0.77
1.74
2.41
2.68
2.59
2.26
1.90
1.70
1.74
1.97
2.20
2.26
2.04
1.58
1.02
0.56
0.33
0.35
0.52
0.66
0.59
0.21
-0.45
-1.28
-2.18
-3.11
-4.13
-5.28
-6.55
-7.75
-8.62
-8.89
-8.42
-7.28
-5.72
-4.03
-2.41
-0.91
0.50
1.86
3.09
4.01
4.47
4.42
4.00
3.50
3.19
3.22
3.53
3.89
4.05
3.90
3.49
2.98
2.52
2.20
1.95
1.65
1.15
0.41
-0.55
-1.60
-2.60
-3.47
-4.20
-4.90
-5.71
-6.75
-8.00
-9.28
-10.25
-10.61
-10.16
-8.95
-7.23
-5.30
-3.40
-1.62
0.04
1.64
3.14
4.45
5.43
5.99
6.15
6.05
5.85
5.70
5.65
5.64
5.58
5.37
4.98
4.44
3.85
3.29
2.86
2.54
2.26
1.91
1.41
0.74
-0.06
-0.91
-1.79
-2.74
-3.85
-5.20
-6.71
-8.17
-9.26
-9.68
-9.26
-8.03
-6.22
-4.12
-2.03
-0.13
1.50
2.89
4.05
4.99
5.66
6.02
6.06
5.82
5.42
5.02
4.72
4.54
4.41
4.23
3.93
3.53
3.12
2.79
2.58
2.42
2.16
1.66
0.89
-0.05
-0.98
-1.76
-2.40
-3.08
-4.04
-5.40
-7.10
-8.80
-10.05
-10.48
-9.94
-8.58
-6.74
-4.78
-2.92
-1.25
0.29
1.75
3.12
4.32
5.21
5.75
5.97
5.98
5.92
5.82
5.68
5.44
5.03
4.49
3.86
3.25
2.73
2.32
2.03
1.80
1.57
1.26
0.80
0.15
-0.68
-1.64
-2.65
-3.71
-4.87
-6.16
-7.58
-8.97
-10.08
-10.58
-10.27
-9.11
-7.29
-5.11
-2.89
-0.80
1.13
2.96
4.70
6.27
7.49
8.12
8.10
7.51
6.64
5.81
5.26
5.02
4.98
4.91
4.69
4.27
3.75
3.25
2.83
2.47
2.05
1.46
0.64
-0.35
-1.45
-2.61
-3.87
-5.33
-7.04
-8.91
-10.65
-11.87
-12.24
-11.60
-10.09
-8.05
-5.88
-3.88
-2.11
-0.49
1.12
2.82
4.51
6.02
7.10
7.61
7.58
7.20
6.77
6.50
6.47
6.55
6.50
6.12
5.39
4.49
3.69
3.22
3.08
3.05
2.81
2.10
0.92
-0.52
-1.92
-3.11
-4.12
-5.19
-6.53
-8.18
-9.86
-11.11
-11.46
-10.65
-8.81
-6.34
-3.71
-1.30
0.76
2.54
4.22
5.88
7.49
8.90
9.91
10.38
10.36
9.98
9.51
9.14
8.99
8.99
9.02
8.88
8.52
7.96
7.34
6.80
6.36
5.95
5.36
4.45
3.24
1.93
0.78
0.00
-0.46
-0.88
-1.66
-3.06
-5.03
-7.19
-8.95
-9.79
-9.48
-8.16
-6.27
-4.30
-2.57
-1.11
0.25
1.74
3.45
5.20
6.67
7.50
7.56
6.95
6.03
5.19
4.72
4.63
4.79
4.94
4.90
4.64
4.22
3.79
3.44
3.13
2.75
2.13
1.23
0.14
-0.90
-1.68
-2.13
-2.36
-2.64
-3.25
-4.30
-5.70
-7.19
-8.42
-9.17
-9.31
-8.89
-8.01
-6.79
-5.30
-3.56
-1.66
0.28
2.03
3.35
4.05
4.11
3.69
3.09
2.61
2.36
2.29
2.20
1.93
1.46
0.90
0.46
0.28
0.34
0.48
0.48
0.20
-0.36
-1.08
-1.81
-2.44
-2.96
-3.45
-4.06
-4.90
-6.03
-7.34
-8.58
-9.42
-9.57
-8.85
-7.38
-5.47
-3.51
-1.78
-0.34
0.95
2.25
3.58
4.76
5.52
5.64
5.15
4.34
3.60
3.25
3.37
3.77
4.15
4.24
3.96
3.38
2.70
2.08
1.58
1.15
0.68
0.12
-0.51
-1.10
-1.55
-1.86
-2.14
-2.61
-3.44
-4.70
-6.22
-7.67
-8.63
-8.76
-7.98
-6.44
-4.49
-2.48
-0.62
1.05
2.59
4.09
5.48
6.61
7.28
7.42
7.13
6.64
6.24
6.07
6.05
6.00
5.68
5.00
4.06
3.09
2.34
1.95
1.87
1.89
1.75
1.22
0.27
-0.96
-2.26
-3.44
-4.47
-5.45
-6.53
-7.70
-8.78
-9.41
-9.27
-8.24
-6.52
-4.54
-2.71
-1.25
-0.07
1.07
2.40
3.92
5.38
6.40
6.68
6.20
5.25
4.24
3.55
3.32
3.39
3.48
3.30
2.80
2.13
1.57
1.33
1.43
1.68
1.75
1.37
0.43
-1.00
-2.68
-4.35
-5.85
-7.13
-8.24
-9.21
-9.98
-10.36
-10.14
-9.17
-7.47
-5.26
-2.86
-0.62
1.26
2.72
3.80
4.61
5.20
5.58
5.70
5.57
5.21
4.71
4.18
3.73
3.38
3.10
2.79
2.40
1.92
1.43
1.06
0.91
0.94
1.00
0.87
0.38
-0.50
-1.68
-2.93
-4.06
-4.98
-5.72
-6.38
-7.00
-7.55
-7.85
-7.74
-7.09
-5.90
-4.34
-2.64
-1.03
0.36
1.49
2.38
3.06
3.51
3.68
3.51
2.99
2.24
1.44
0.83
0.55
0.62
0.88
1.11
1.11
0.82
0.32
-0.19
-0.57
-0.77
-0.88
-1.09
-1.55
-2.31
-3.29
-4.35
-5.36
-6.28
-7.13
-7.94
-8.65
-9.11
-9.07
-8.33
-6.84
-4.76
-2.43
-0.22
1.55
2.76
3.47
3.86
4.10
4.29
4.44
4.46
4.30
3.90
3.30
2.56
1.79
1.04
0.37
-0.26
-0.88
-1.52
-2.19
-2.90
-3.65
-4.48
-5.52
-6.89
-8.68
-10.83
-13.14
-15.36
-17.26
-18.78
-20.03
-21.14
-22.17
-22.97
-23.23
-22.67
-21.22
-18.95
-16.05
-12.88
-9.79
-7.15
-5.20
-3.96
-3.34
-3.24
-3.50
-3.94
-4.49
-5.04
-5.41
-5.35
-4.52
-2.96
-1.37
-0.53
-0.98
-2.78
-5.31
-7.55
-8.49
-7.30
-4.13
-0.56
2.03
2.94
2.10
0.09
-2.00
-3.10
-1.75
2.26
6.84
10.41
12.32
12.56
12.04
12.27
14.79
21.59
32.67
44.28
53.43
58.48
58.68
54.62
48.20
42.38
42.18
51.05
67.43
88.83
111.24
128.59
134.94
126.77
94.45
41.14
-6.85
-38.70
-53.97
-53.58
-41.39
-22.81
-3.20
13.48
26.85
37.14
42.16
41.20
34.62
22.88
7.25
-10.33
-28.00
-43.75
-58.43
-73.61
-88.60
-102.90
-117.25
-131.39
-142.47
-145.54
-134.80
-107.57
-67.13
-20.99
21.15
50.45
62.39
57.94
42.50
24.02
9.37
2.11
2.32
7.00
11.28
10.53
2.41
-11.82
-26.84
-36.23
-34.77
-20.83
2.61
29.10
51.37
64.07
64.16
53.93
38.38
22.88
11.34
5.49
5.08
8.52
13.55
17.57
18.44
14.67
6.23
-5.06
-15.88
-22.59
-22.80
-16.49
-6.17
4.56
12.39
15.64
14.55
10.48
4.77
-1.60
-8.05
-13.86
-17.98
-19.34
-17.61
-13.62
-9.25
-6.58
-6.88
-10.21
-15.67
-22.13
-28.56
-34.76
-40.91
-47.18
-53.27
-58.50
-62.07
-62.93
-60.89
-55.21
-44.74
-28.20
-5.26
22.39
50.79
74.50
88.57
90.49
81.44
65.50
47.89
33.00
22.31
15.43
10.83
7.15
3.97
1.99
2.12
4.78
9.33
14.10
17.18
17.18
13.95
8.62
3.14
-0.80
-2.70
-3.48
-4.93
-8.57
-14.76
-22.23
-28.54
-31.26
-29.22
-23.22
-15.65
-9.45
-6.59
-7.33
-10.16
-12.75
-13.18
-10.71
-5.97
-0.45
4.43
7.99
10.33
12.08
13.86
15.76
17.35
17.76
16.28
12.68
7.55
2.05
-2.56
-5.43
-6.48
-6.32
-5.82
-5.69
-6.09
-6.69
-7.06
-7.00
-6.65
-6.39
-6.55
-7.06
-7.42
-6.95
-5.20
-2.32
0.94
3.50
4.58
4.15
3.06
2.51
3.30
5.32
7.63
8.90
8.10
4.96
0.05
-5.48
-10.38
-13.69
-14.99
-14.44
-12.58
-10.12
-7.53
-4.99
-2.39
0.40
3.21
5.59
6.94
6.85
5.45
3.39
1.56
0.67
0.96
2.16
3.69
5.04
5.98
6.60
7.22
8.05
9.09
10.09
10.68
10.52
9.54
7.88
5.85
3.76
1.82
0.11
-1.38
-2.67
-3.70
-4.36
-4.57
-4.30
-3.70
-2.95
-2.23
-1.48
-0.40
1.42
4.17
7.57
10.66
12.05
10.53
5.73
-1.49
-9.27
-15.40
-18.37
-17.88
-15.05
-11.69
-9.32
-8.42
-8.26
-7.45
-4.79
-0.10
5.69
10.90
13.84
13.74
11.02
6.90
2.71
-0.72
-3.34
-5.65
-8.14
-10.95
-13.47
-14.66
-13.69
-10.46
-5.80
-1.10
2.32
3.70
2.74
-0.31
-5.03
-11.11
-18.18
-25.40
-31.11
-33.08
-28.14
-15.71
2.34
22.54
41.33
56.46
67.31
74.29
77.68
76.89
70.56
57.98
40.05
19.47
0.02
-14.85
-23.13
-24.79
-21.44
-15.63
-9.76
-5.49
-3.58
-3.99
-6.13
-9.15
-12.24
-14.83
-16.78
-18.11
-18.76
-18.61
-17.49
-15.38
-12.43
-9.07
-5.88
-3.48
-2.23
-2.11
-2.74
-3.61
-4.33
-4.80
-5.22
-5.91
-6.98
-8.26
-9.27
-9.61
-9.14
-8.06
-6.77
-5.60
-4.69
-3.97
-3.40
-3.14
-3.45
-4.65
-6.87
-9.89
-13.19
-16.16
-18.28
-19.36
-19.43
-18.78
-17.54
-15.73
-13.25
-9.97
-5.88
-1.29
3.18
6.70
8.57
8.52
6.92
4.81
3.45
3.80
6.14
9.91
14.08
17.63
19.86
20.43
18.94
15.22
9.27
1.63
-6.36
-12.77
-15.76
-14.28
-8.62
-0.20
9.03
17.44
24.09
28.71
31.20
31.32
28.70
23.35
16.19
9.05
3.91
2.10
3.37
6.13
8.05
7.26
3.35
-2.41
-7.77
-10.69
-10.37
-7.59
-4.30
-2.64
-3.97
-8.22
-13.89
-18.64
-20.33
-17.96
-12.18
-5.07
0.86
3.74
3.09
-0.10
-4.23
-7.78
-10.11
-11.47
-12.54
-13.84
-15.41
-16.73
-17.13
-16.21
-14.06
-11.12
-7.99
-5.09
-2.45
0.31
3.90
9.16
16.76
26.69
37.93
48.44
55.67
57.41
52.63
41.97
27.45
11.73
-2.75
-14.41
-22.56
-27.16
-28.37
-26.45
-21.93
-15.45
-8.17
-1.51
3.27
5.51
5.34
3.57
1.33
-0.28
-0.59
0.34
1.79
2.57
1.36
-2.80
-10.05
-19.48
-29.21
-37.01
-41.04
-40.55
-36.06
-29.04
-21.22
-13.91
-7.63
-2.37
2.08
5.72
8.34
9.94
10.84
11.70
13.20
15.71
19.22
23.36
27.47
30.90
33.13
33.95
33.56
32.44
30.75
28.02
23.14
15.13
4.12
-8.26
-19.48
-27.55
-32.08
-34.40
-36.42
-39.11
-41.78
-42.48
-39.31
-31.72
-20.93
-9.11
1.72
10.58
17.51
22.69
25.91
26.36
23.16
16.17
6.50
-3.44
-10.49
-11.80
-5.89
6.56
22.77
38.71
50.44
55.38
52.87
44.13
31.49
17.53
4.24
-7.27
-16.72
-24.36
-30.37
-34.74
-37.28
-37.86
-36.59
-33.69
-29.32
-23.15
-15.16
-5.67
4.04
11.72
14.74
11.29
1.18
-13.77
-30.41
-45.42
-56.26
-61.71
-61.18
-54.40
-41.33
-22.35
0.85
25.23
46.95
62.74
71.10
72.95
70.58
67.48
65.53
64.36
61.76
55.14
43.20
26.90
9.23
-6.34
-17.09
-22.35
-23.38
-22.44
-21.53
-21.49
-21.93
-21.97
-21.06
-19.39
-17.89
-17.46
-18.31
-19.78
-20.66
-19.75
-16.63
-11.82
-6.39
-1.61
1.67
3.39
4.05
4.38
4.86
5.47
5.90
5.77
4.81
3.05
0.77
-1.60
-3.66
-5.14
-5.96
-6.25
-6.30
-6.50
-7.14
-8.24
-9.53
-10.51
-10.71
-9.98
-8.55
-7.02
-5.97
-5.73
-6.20
-6.96
-7.50
-7.42
-6.35
-4.05
-0.50
4.03
8.82
12.78
14.79
14.08
10.66
5.53
0.25
-3.64
-5.22
-4.50
-2.21
0.45
2.24
2.27
0.51
-2.24
-4.64
-5.31
-3.41
1.19
7.81
15.14
20.93
23.42
22.11
17.91
12.51
7.57
4.37
3.41
4.40
6.49
8.81
10.59
11.29
10.94
9.23
6.45
3.30
0.67
-0.67
-0.24
1.93
5.16
8.21
9.72
8.89
5.46
-0.36
-7.87
-15.89
-22.87
-26.62
-25.75
-21.44
-15.36
-9.19
-4.07
-0.67
1.32
2.86
4.83
7.22
9.10
9.34
7.15
2.55
-3.53
-9.67
-14.63
-17.94
-19.95
-21.37
-22.52
-23.23
-23.08
-21.66
-18.86
-14.97
-10.47
-5.86
-1.42
2.92
7.23
11.36
14.89
17.35
18.48
18.35
17.34
15.99
14.78
13.86
13.03
11.86
10.02
7.47
4.51
1.73
-0.25
-1.02
-0.57
0.65
1.97
2.74
2.60
1.58
0.05
-1.51
-2.78
-3.62
-4.08
-4.13
-3.63
-2.32
0.00
3.19
6.72
9.87
11.96
12.74
12.41
11.49
10.49
9.60
8.67
7.33
5.31
2.72
0.00
-2.22
-3.51
-3.89
-3.81
-3.94
-4.82
-6.61
-9.03
-11.61
-13.88
-15.63
-16.94
-18.01
-18.98
-19.86
-20.55
-20.99
-21.17
-21.22
-21.24
-21.21
-20.97
-20.14
-18.41
-15.60
-11.87
-7.69
-3.77
-0.85
0.54
0.31
-1.09
-2.87
-4.28
-4.93
-4.88
-4.57
-4.54
-5.12
-6.23
-7.26
-7.63
-7.16
-6.15
-5.15
-4.54
-4.39
-4.41
-4.31
-3.66
-2.48
-1.13
0.24
2.26
6.02
12.35
21.00
30.43
39.10
45.64
49.50
51.17
51.80
52.34
52.82
52.46
50.63
48.54
48.21
51.16
57.37
65.15
71.89
75.25
74.49
65.79
49.49
29.54
10.60
-5.25
-18.48
-29.96
-39.77
-47.57
-53.43
-57.27
-59.39
-59.91
-58.36
-53.88
-46.08
-35.88
-25.34
-16.67
-10.64
-7.04
-5.16
-4.39
-4.22
-4.23
-3.99
-3.28
-2.14
-0.52
0.98
1.44
0.15
-2.95
-7.09
-11.12
-14.01
-15.19
-14.42
-11.99
-8.59
-5.00
-1.82
0.63
2.28
3.19
3.47
3.32
2.91
2.38
1.94
1.80
2.11
2.80
3.54
3.81
3.05
0.93
-2.55
-6.95
-11.49
-15.25
-17.48
-17.88
-16.63
-14.24
-11.30
-8.15
-4.85
-1.30
2.55
6.50
10.08
12.79
14.32
14.72
14.35
13.76
13.43
13.57
14.16
15.00
15.89
16.71
17.38
17.88
18.09
17.76
16.57
14.22
10.60
5.90
0.58
-4.76
-9.60
-13.68
-17.04
-19.93
-22.62
-25.21
-27.50
-29.04
-29.30
-27.96
-25.02
-20.89
-16.22
-11.70
-7.81
-4.69
-2.19
-0.06
1.89
3.62
4.94
5.69
5.81
5.50
5.00
4.52
4.06
3.48
2.62
1.47
0.24
-0.75
-1.25
-1.30
-1.19
-1.36
-2.13
-3.55
-5.39
-7.25
-8.82
-10.02
-10.99
-12.03
-13.32
-14.83
-16.30
-17.30
-17.44
-16.53
-14.69
-12.25
-9.59
-6.92
-4.30
-1.59
1.28
4.21
6.92
8.99
10.15
10.39
10.04
9.58
9.48
9.93
10.82
11.76
12.33
12.28
11.63
10.70
9.83
9.29
9.06
8.89
8.47
7.59
6.27
4.72
3.17
1.71
0.26
-1.39
-3.31
-5.32
-7.06
-8.03
-7.92
-6.70
-4.70
-2.42
-0.32
1.38
2.76
4.05
5.47
7.02
8.44
9.35
9.50
8.91
7.92
7.02
6.58
6.64
6.94
7.04
6.65
5.73
4.52
3.33
2.34
1.53
0.67
-0.50
-2.02
-3.72
-5.28
-6.44
-7.15
-7.63
-8.24
-9.31
-10.84
-12.55
-13.92
-14.44
-13.87
-12.30
-10.11
-7.76
-5.56
-3.57
-1.63
0.45
2.78
5.21
7.43
9.07
9.91
9.99
9.52
8.81
8.14
7.60
7.10
6.49
5.68
4.79
4.07
3.80
4.09
4.79
5.44
5.54
4.76
3.10
0.93
-1.25
-3.01
-4.23
-5.09
-6.01
-7.30
-9.00
-10.85
-12.42
-13.31
-13.34
-12.63
-11.43
-9.98
-8.33
-6.36
-3.93
-1.02
2.11
5.02
7.27
8.60
9.08
9.01
8.80
8.71
8.80
8.91
8.83
8.46
7.89
7.33
7.01
6.96
7.00
6.79
5.99
4.51
2.51
0.39
-1.45
-2.77
-3.66
-4.39
-5.29
-6.57
-8.27
-10.22
-12.24
-14.14
-15.81
-17.19
-18.25
-18.91
-19.16
-19.08
-18.89
-18.88
-19.31
-20.22
-21.40
-22.36
-22.47
-21.17
-18.14
-13.41
-7.33
-0.52
6.32
12.52
17.67
21.60
24.40
26.33
27.69
28.66
29.29
29.46
28.98
27.63
25.22
21.65
16.90
11.12
4.71
-1.71
-7.39
-11.60
-13.86
-14.16
-12.96
-11.05
-9.26
-8.12
-7.72
-7.68
-7.41
-6.46
-4.77
-2.62
-0.44
1.49
3.22
5.00
7.11
9.53
11.94
13.80
14.67
14.47
13.48
12.29
11.41
11.14
11.40
11.81
11.95
11.55
10.64
9.51
8.51
7.89
7.55
7.15
6.25
4.64
2.47
0.23
-1.50
-2.40
-2.58
-2.52
-2.81
-3.81
-5.52
-7.58
-9.54
-11.09
-12.12
-12.69
-12.85
-12.54
-11.59
-9.84
-7.28
-4.11
-0.70
2.51
5.16
7.11
8.38
9.15
9.65
10.00
10.17
10.00
9.34
8.19
6.79
5.50
4.70
4.47
4.63
4.75
4.44
3.54
2.22
0.89
-0.05
-0.40
-0.26
0.09
0.35
0.33
0.03
-0.47
-1.08
-1.89
-3.08
-4.86
-7.25
-9.93
-12.31
-13.67
-13.49
-11.71
-8.77
-5.42
-2.40
-0.12
1.46
2.63
3.73
4.87
5.90
6.53
6.55
5.98
5.14
4.43
4.20
4.46
4.93
5.17
4.85
3.91
2.64
1.51
0.89
0.87
1.22
1.51
1.41
0.85
-0.02
-0.93
-1.71
-2.39
-3.17
-4.25
-5.66
-7.25
-8.77
-9.97
-10.71
-10.97
-10.79
-10.20
-9.19
-7.72
-5.76
-3.40
-0.84
1.63
3.70
5.10
5.66
5.41
4.58
3.56
2.74
2.33
2.29
2.34
2.19
1.68
0.91
0.16
-0.28
-0.32
-0.11
0.03
-0.18
-0.81
-1.71
-2.58
-3.22
-3.59
-3.89
-4.38
-5.26
-6.53
-7.98
-9.33
-10.32
-10.83
-10.91
-10.67
-10.16
-9.32
-8.02
-6.15
-3.71
-0.93
1.79
4.02
5.47
6.08
6.06
5.73
5.43
5.31
5.28
5.15
4.74
4.02
3.16
2.47
2.17
2.27
2.54
2.59
2.15
1.18
-0.08
-1.24
-1.98
-2.28
-2.39
-2.73
-3.64
-5.22
-7.23
-9.27
-10.92
-11.94
-12.32
-12.22
-11.78
-11.06
-9.96
-8.31
-6.08
-3.41
-0.65
1.77
3.60
4.78
5.50
6.02
6.47
6.77
6.74
6.20
5.20
4.04
3.16
2.94
3.46
4.45
5.38
5.69
5.08
3.66
1.89
0.35
-0.55
-0.78
-0.71
-0.89
-1.71
-3.19
-5.03
-6.77
-8.09
-8.98
-9.66
-10.35
-11.05
-11.43
-11.03
-9.51
-6.93
-3.79
-0.76
1.54
2.89
3.51
3.85
4.34
5.16
6.15
6.97
7.28
7.01
6.33
5.62
5.16
5.08
5.22
5.28
4.94
4.08
2.81
1.45
0.36
-0.20
-0.27
-0.11
-0.13
-0.61
-1.61
-2.91
-4.16
-5.12
-5.85
-6.64
-7.81
-9.43
-11.14
-12.27
-12.14
-10.42
-7.28
-3.43
0.27
3.13
4.89
5.71
6.00
6.14
6.31
6.45
6.43
6.20
5.89
5.75
5.95
6.45
7.00
7.19
6.72
5.57
4.01
2.51
1.46
1.01
0.95
0.88
0.43
-0.51
-1.73
-2.84
-3.52
-3.78
-3.93
-4.46
-5.69
-7.56
-9.60
-11.10
-11.49
-10.60
-8.70
-6.35
-4.11
-2.28
-0.82
0.52
1.96
3.51
4.88
5.68
5.65
4.89
3.87
3.17
3.22
4.03
5.20
6.11
6.27
5.57
4.33
3.08
2.25
1.97
1.95
1.71
0.88
-0.59
-2.39
-4.01
-5.01
-5.29
-5.10
-4.92
-5.17
-5.95
-7.02
-7.91
-8.21
-7.74
-6.62
-5.14
-3.60
-2.12
-0.63
1.00
2.80
4.62
6.12
6.98
7.02
6.41
5.52
4.80
4.55
4.75
5.12
5.26
4.87
3.93
2.67
1.45
0.59
0.19
0.12
0.11
-0.09
-0.60
-1.38
-2.30
-3.26
-4.31
-5.60
-7.29
-9.35
-11.45
-13.07
-13.68
-12.99
-11.13
-8.56
-5.84
-3.36
-1.18
0.85
2.89
4.93
6.71
7.86
8.14
7.62
6.67
5.83
5.51
5.83
6.57
7.29
7.58
7.26
6.40
5.27
4.17
3.25
2.45
1.59
0.49
-0.84
-2.24
-3.44
-4.26
-4.68
-4.93
-5.34
-6.14
-7.34
-8.68
-9.70
-9.95
-9.21
-7.58
-5.42
-3.19
-1.20
0.48
2.00
3.61
5.41
7.31
9.01
10.18
10.59
10.28
9.48
8.51
7.63
6.94
6.37
5.77
5.01
4.07
3.05
2.10
1.35
0.80
0.32
-0.30
-1.20
-2.39
-3.72
-4.96
-5.98
-6.82
-7.63
-8.59
-9.68
-10.60
-10.92
-10.26
-8.50
-5.94
-3.07
-0.47
1.56
3.02
4.13
5.16
6.26
7.33
8.16
8.56
8.48
8.05
7.52
7.10
6.87
6.69
6.35
5.64
4.52
3.15
1.82
0.84
0.33
0.18
0.09
-0.30
-1.21
-2.63
-4.34
-5.98
-7.27
-8.11
-8.59
-8.87
-9.06
-9.06
-8.67
-7.64
-5.90
-3.58
-1.06
1.25
3.07
4.36
5.31
6.19
7.15
8.11
8.80
8.95
8.46
7.47
6.36
5.53
5.25
5.48
5.97
6.33
6.30
5.82
5.07
4.28
3.61
3.02
2.31
1.25
-0.25
-2.07
-3.90
-5.46
-6.57
-7.32
-7.90
-8.54
-9.29
-9.96
-10.22
-9.74
-8.37
-6.29
-3.89
-1.58
0.30
1.73
2.87
3.98
5.19
6.42
7.39
7.80
7.55
6.78
5.83
5.05
4.66
4.59
4.55
4.21
3.36
2.05
0.55
-0.77
-1.70
-2.28
-2.77
-3.52
-4.69
-6.23
-7.83
-9.19
-10.17
-10.89
-11.60
-12.47
-13.46
-14.26
-14.47
-13.80
-12.24
-10.06
-7.65
-5.30
-3.10
-0.96
1.28
3.66
6.01
7.99
9.25
9.57
9.03
7.99
6.93
6.27
6.14
6.40
6.62
6.37
5.45
3.95
2.29
0.98
0.33
0.32
0.57
0.59
-0.01
-1.31
-3.06
-4.87
-6.46
-7.72
-8.71
-9.47
-9.93
-9.87
-8.98
-7.12
-4.35
-1.02
2.40
5.48
7.95
9.73
10.93
11.72
12.27
12.71
13.05
13.25
13.24
12.93
12.26
11.20
9.75
7.96
5.99
4.09
2.61
1.83
1.85
2.50
3.31
3.71
3.27
1.86
-0.25
-2.57
-4.59
-6.02
-6.93
-7.64
-8.48
-9.59
-10.83
-11.85
-12.28
-11.92
-10.82
-9.27
-7.58
-5.89
-4.18
-2.21
0.17
2.93
5.75
8.15
9.69
10.27
10.12
9.73
9.59
9.94
10.65
11.34
11.61
11.27
10.48
9.56
8.87
8.53
8.38
8.04
7.16
5.64
3.68
1.72
0.19
-0.70
-1.06
-1.32
-1.93
-3.13
-4.87
-6.78
-8.41
-9.39
-9.63
-9.23
-8.37
-7.13
-5.50
-3.39
-0.80
2.08
4.84
6.99
8.17
8.27
7.52
6.36
5.26
4.57
4.36
4.51
4.75
4.84
4.63
4.15
3.53
2.91
2.36
1.90
1.46
1.03
0.67
0.48
0.50
0.64
0.62
0.12
-1.07
-2.87
-4.87
-6.50
-7.33
-7.26
-6.60
-5.86
-5.53
-5.72
-6.16
-6.31
-5.65
-3.95
-1.37
1.58
4.32
6.38
7.60
8.10
8.15
8.06
7.96
7.81
7.46
6.78
5.78
4.59
3.50
2.74
2.47
2.61
2.96
3.24
3.18
2.68
1.77
0.66
-0.44
-1.34
-1.96
-2.38
-2.73
-3.13
-3.62
-4.20
-4.84
-5.57
-6.45
-7.46
-8.39
-8.88
-8.50
-6.98
-4.46
-1.43
1.47
3.69
5.08
5.79
6.21
6.59
6.97
7.15
6.97
6.47
5.96
5.89
6.53
7.77
8.99
9.40
8.30
5.51
1.42
-3.17
-7.41
-10.74
-13.02
-14.45
-15.31
-15.76
-15.75
-15.11
-13.77
-11.83
-9.64
-7.65
-6.26
-5.62
-5.59
-5.80
-5.82
-5.32
-4.20
-2.67
-1.02
0.45
1.66
2.71
3.80
5.05
6.41
7.62
8.35
8.41
7.82
6.86
5.87
5.12
4.67
4.37
4.04
3.56
3.00
2.56
2.43
2.59
2.84
2.83
2.30
1.23
-0.08
-1.19
-1.77
-1.79
-1.54
-1.50
-2.08
-3.34
-4.99
-6.49
-7.33
-7.24
-6.34
-5.06
-3.88
-3.05
-2.54
-2.03
-1.16
0.18
1.75
3.07
3.71
3.49
2.62
1.58
0.81
0.49
0.48
0.45
0.15
-0.43
-1.08
-1.50
-1.52
-1.20
-0.83
-0.75
-1.16
-2.03
-3.07
-3.94
-4.40
-4.44
-4.32
-4.45
-5.10
-6.29
-7.71
-8.84
-9.23
-8.70
-7.43
-5.89
-4.52
-3.59
-3.03
-2.58
-1.97
-1.20
-0.51
-0.26
-0.70
-1.77
-3.08
-4.13
-4.57
-4.40
-3.95
-3.69
-3.96
-4.77
-5.85
-6.82
-7.47
-7.86
-8.30
-9.19
-10.68
-12.72
-14.98
-17.07
-18.69
-19.70
-20.06
-19.71
-18.56
-16.45
-13.33
-9.34
-4.83
-0.32
3.65
6.62
8.40
9.04
8.86
8.41
8.25
8.81
10.20
12.21
14.50
16.78
18.95
21.04
23.03
24.57
25.00
23.54
19.76
13.91
6.88
-0.04
-5.67
-9.39
-11.27
-11.91
-12.06
-12.29
-12.79
-13.41
-13.89
-14.05
-13.89
-13.56
-13.17
-12.69
-11.98
-10.87
-9.25
-7.08
-4.26
-0.66
3.88
9.34
15.24
20.56
23.96
24.22
20.92
14.65
7.03
0.10
-4.28
-5.12
-2.64
1.75
5.99
8.29
7.80
4.75
0.37
-3.76
-6.45
-7.55
-7.88
-8.71
-10.70
-13.68
-16.88
-19.24
-19.68
-17.13
-10.53
0.95
17.47
38.09
59.88
77.87
86.63
82.55
65.50
38.82
8.04
-21.15
-43.76
-56.67
-59.02
-51.47
-35.35
-12.49
14.74
42.75
64.96
76.41
76.70
68.32
53.99
35.89
16.21
-2.56
-17.96
-29.40
-36.88
-40.71
-41.90
-41.55
-40.06
-37.49
-34.41
-30.57
-28.91
-32.52
-42.14
-54.87
-64.89
-66.18
-55.87
-36.02
-12.87
5.86
15.14
14.30
6.54
-3.00
-9.51
-10.33
-5.63
2.16
9.22
12.48
10.49
3.82
-4.95
-12.09
-14.16
-9.49
1.24
15.30
29.88
42.71
52.53
58.88
61.40
59.56
53.07
42.50
29.62
17.07
7.19
0.96
-2.15
-3.62
-4.55
-4.94
-3.82
-0.31
5.44
11.83
15.86
15.33
9.91
1.50
-6.83
-12.38
-13.95
-12.25
-9.14
-6.54
-5.74
-7.33
-11.03
-15.92
-20.93
-24.56
-25.28
-22.48
-16.69
-9.18
-1.65
5.61
12.88
20.35
27.80
34.35
38.78
40.06
38.17
34.02
28.45
24.21
23.19
25.22
28.27
29.85
28.16
22.97
14.58
4.44
-5.48
-13.32
-17.08
-15.34
-7.04
6.78
22.32
32.87
32.69
19.40
-5.17
-35.64
-65.35
-89.16
-105.35
-109.63
-105.08
-96.69
-88.00
-80.26
-73.21
-66.11
-58.25
-49.07
-37.96
-25.69
-12.85
-0.31
10.68
18.95
24.00
26.05
25.78
24.36
22.19
20.21
19.23
19.32
19.74
19.83
19.29
18.76
20.14
24.80
33.79
46.90
62.85
78.86
92.50
100.92
100.57
89.85
66.89
33.89
-3.34
-37.13
-61.12
-72.70
-72.53
-66.66
-60.88
-58.17
-57.56
-56.46
-52.88
-46.98
-40.99
-36.05
-32.49
-28.78
-23.03
-13.97
-2.46
9.18
18.37
23.78
25.67
25.01
22.94
19.74
15.63
10.91
7.14
6.68
11.77
22.91
38.38
54.21
65.97
71.76
72.31
70.86
71.03
75.17
83.03
91.41
95.26
89.17
71.85
43.37
7.85
-28.23
-58.40
-78.62
-88.51
-88.19
-82.69
-76.09
-70.24
-64.73
-58.77
-52.20
-45.82
-40.55
-36.75
-34.28
-32.05
-29.32
-25.77
-21.90
-18.22
-15.55
-13.58
-12.01
-10.93
-10.40
-11.03
-13.71
-19.29
-27.71
-38.15
-48.62
-56.75
-60.62
-59.04
-52.04
-40.65
-26.70
-11.80
2.24
14.45
24.36
32.14
38.64
45.33
53.77
62.14
69.75
75.32
78.21
78.40
76.76
74.74
73.76
73.95
73.76
72.81
67.99
58.06
43.19
24.64
4.05
-16.61
-35.49
-50.81
-60.31
-62.34
-55.62
-40.95
-20.06
2.06
19.75
28.50
26.27
14.17
-5.83
-27.44
-43.29
-49.05
-44.84
-33.26
-17.84
-2.05
11.29
20.01
23.47
21.89
16.37
8.78
1.52
-3.42
-5.61
-5.41
-3.77
-1.39
1.14
3.60
6.31
10.08
15.47
21.93
27.50
28.93
23.81
11.59
-5.91
-25.07
-41.76
-53.01
-58.09
-58.16
-55.26
-51.23
-47.30
-44.14
-42.30
-42.44
-45.06
-49.91
-55.06
-56.93
-51.42
-36.14
-12.22
15.32
39.33
53.94
56.36
48.58
36.27
25.93
21.69
23.56
28.23
31.02
29.33
23.46
16.13
10.43
7.96
8.27
9.64
10.62
11.13
12.42
15.92
22.27
30.66
39.19
45.86
49.59
50.74
50.86
51.64
53.55
55.36
54.32
47.64
34.11
15.21
-5.23
-22.82
-34.61
-40.45
-42.62
-44.16
-46.98
-50.98
-54.61
-56.27
-55.55
-53.30
-50.74
-48.31
-45.21
-39.91
-31.35
-19.93
-7.40
3.51
10.45
12.32
9.64
4.19
-1.57
-5.42
-6.11
-3.61
0.95
5.83
9.55
11.35
11.35
10.21
8.52
6.41
3.72
0.38
-3.11
-5.71
-6.26
-4.17
0.27
5.90
11.24
15.05
16.65
15.94
13.30
9.41
5.17
1.56
-0.69
-1.35
-0.82
-0.06
-0.26
-2.35
-6.69
-12.91
-20.02
-26.66
-31.28
-32.47
-29.39
-22.32
-12.90
-3.92
1.88
2.91
-0.37
-5.66
-10.04
-11.53
-10.23
-8.23
-8.42
-12.40
-19.74
-28.24
-34.82
-36.78
-32.69
-22.68
-8.37
7.56
22.65
34.19
39.39
36.13
23.97
4.75
-17.82
-39.17
-55.23
-62.15
-58.58
-46.25
-29.21
-12.28
0.40
6.83
7.75
6.35
8.73
20.15
42.67
74.45
111.04
147.11
178.05
200.97
206.28
190.23
157.16
117.07
78.53
45.08
16.65
-7.27
-25.00
-35.93
-37.85
-30.34
-15.91
0.83
15.36
24.68
26.10
16.49
-4.97
-33.76
-62.27
-83.37
-93.48
-93.12
-85.91
-76.40
-67.94
-61.60
-55.83
-48.98
-41.00
-33.53
-28.56
-27.40
-30.07
-35.21
-40.76
-44.31
-44.31
-40.49
-34.17
-26.25
-17.73
-9.48
-2.08
4.20
9.44
13.55
16.20
16.95
15.72
12.84
9.14
5.73
3.59
3.16
4.11
5.56
6.49
6.36
5.08
3.10
1.10
-0.37
-0.97
-0.65
0.40
1.90
3.63
5.33
6.79
7.86
8.53
8.94
9.32
9.85
10.50
11.01
11.07
10.55
9.82
9.64
10.75
13.37
16.91
20.28
22.47
23.25
23.36
24.09
26.46
30.51
35.17
38.79
40.04
38.45
34.45
28.93
22.45
15.07
6.49
-3.45
-14.35
-25.29
-35.16
-43.21
-49.37
-54.21
-58.54
-62.98
-67.62
-71.96
-75.20
-76.52
-75.31
-71.40
-65.04
-56.88
-47.82
-38.81
-30.62
-23.61
-17.73
-12.65
-8.03
-3.69
0.37
4.11
7.60
11.08
14.79
18.69
22.43
25.39
27.03
27.12
25.84
23.56
20.62
17.07
12.72
7.30
0.76
-6.59
-14.07
-20.73
-25.56
-27.75
-26.89
-23.09
-16.96
-9.45
-1.59
5.84
12.35
17.77
22.02
25.03
26.67
26.78
25.28
22.29
18.07
13.05
7.68
2.41
-2.37
-6.31
-9.19
-10.93
-11.68
-11.73
-11.49
-11.23
-10.95
-10.34
-8.91
-6.24
-2.35
2.20
6.38
9.10
9.62
7.85
4.37
0.12
-3.97
-7.28
-9.64
-11.19
-12.16
-12.67
-12.54
-11.38
-8.69
-4.17
2.15
9.76
17.87
25.47
31.62
35.51
36.53
34.35
29.00
21.08
11.78
2.75
-4.24
-7.88
-7.77
-4.59
0.11
4.48
7.00
6.91
4.39
0.35
-3.89
-7.10
-8.48
-7.84
-5.60
-2.63
-0.06
0.99
-0.35
-4.42
-10.83
-18.36
-25.15
-29.20
-29.01
-24.13
-15.31
-4.33
6.62
15.68
21.93
25.45
26.90
27.04
26.27
24.68
22.26
19.17
15.95
13.52
12.77
14.20
17.64
22.21
26.87
30.55
32.42
32.08
29.65
25.57
20.17
13.69
6.15
-1.67
-8.85
-14.58
-18.28
-19.61
-18.54
-15.76
-12.20
-8.96
-5.49
-1.15
3.98
8.97
12.64
14.37
13.93
12.28
10.65
12.26
18.86
29.49
41.17
51.19
59.08
66.11
75.40
89.35
111.41
141.94
177.42
212.03
240.61
260.80
272.12
276.45
257.76
209.26
137.75
60.67
-5.92
-54.67
-81.98
-95.19
-99.97
-100.34
-96.07
-86.71
-74.75
-63.81
-58.61
-61.03
-70.69
-84.74
-100.89
-115.71
-126.79
-132.88
-135.04
-132.80
-125.03
-112.10
-95.48
-78.40
-63.10
-51.28
-43.50
-40.44
-41.51
-45.12
-49.93
-54.75
-59.30
-63.06
-65.67
-66.93
-66.73
-64.64
-60.23
-53.70
-45.78
-37.70
-30.42
-24.29
-19.03
-13.96
-8.26
-1.54
5.82
13.11
19.62
25.03
29.37
32.78
35.11
35.97
34.85
31.52
26.25
19.89
13.54
8.11
4.06
1.23
-0.85
-2.71
-4.72
-6.87
-8.87
-10.32
-10.96
-10.82
-10.27
-9.80
-9.78
-10.21
-10.69
-10.58
-9.29
-6.57
-2.60
2.09
6.79
10.83
13.66
14.87
14.22
11.67
7.42
2.04
-3.74
-9.09
-13.28
-15.81
-16.39
-14.88
-11.30
-5.74
1.52
10.06
19.42
29.10
38.66
47.68
55.77
62.63
68.07
72.16
75.11
77.16
78.44
78.89
78.44
77.30
76.11
75.92
77.83
82.49
89.79
98.82
108.35
117.30
125.20
132.20
138.81
145.43
152.11
158.58
164.38
168.94
171.40
170.41
164.28
151.48
131.49
105.35
75.52
45.04
16.36
-9.49
-32.97
-55.53
-78.89
-104.50
-133.49
-166.60
-204.09
-245.15
-287.36
-326.78
-358.79
-379.52
-387.06
-381.95
-366.74
-344.91
-319.69
-293.26
-266.46
-238.86
-209.22
-176.21
-139.21
-98.97
-57.93
-19.88
11.07
31.84
41.42
41.19
34.31
24.54
15.18
8.35
4.54
2.89
1.47
-1.81
-8.46
-18.70
-31.08
-42.70
-50.20
-50.73
-42.96
-27.54
-6.92
15.29
35.14
49.19
55.26
52.90
43.67
30.74
17.95
8.53
3.95
3.49
4.87
5.52
3.96
0.43
-3.45
-5.72
-5.21
-1.91
3.34
9.73
16.95
25.14
34.37
44.02
52.86
59.57
63.58
65.45
66.52
68.00
70.05
71.50
70.41
65.11
55.18
41.94
28.10
16.83
10.65
10.65
16.25
25.59
36.04
44.99
50.32
50.78
46.10
37.19
25.94
14.96
6.83
3.44
5.28
11.32
19.37
26.94
32.17
34.33
33.77
31.35
27.82
23.47
18.23
12.18
5.87
0.42
-3.01
-3.83
-2.42
-0.08
1.55
1.29
-1.05
-4.72
-8.50
-11.44
-13.19
-14.02
-14.39
-14.41
-13.64
-11.22
-6.31
1.41
11.53
23.03
34.74
45.70
55.38
63.55
69.90
73.81
74.39
70.89
63.18
52.02
38.93
25.78
14.18
5.19
-0.71
-3.42
-3.07
0.03
5.16
11.13
16.42
19.53
19.54
16.49
11.37
5.75
1.13
-1.60
-2.43
-2.01
-1.24
-0.90
-1.37
-2.78
-5.14
-8.52
-12.92
-18.07
-23.31
-27.64
-30.13
-30.32
-28.47
-25.46
-22.36
-19.96
-18.47
-17.64
-17.08
-16.53
-15.99
-15.55
-15.15
-14.48
-13.13
-10.87
-7.94
-5.07
-3.21
-3.11
-4.95
-8.17
-11.71
-14.37
-15.34
-14.53
-12.58
-10.61
-9.75
-10.54
-12.71
-15.22
-16.71
-16.09
-12.95
-7.70
-1.24
5.35
11.27
16.07
19.50
21.43
21.68
20.21
17.30
13.65
10.23
7.97
7.31
7.97
9.01
9.20
7.59
3.90
-1.29
-6.80
-11.33
-14.06
-14.97
-14.90
-15.09
-16.66
-20.08
-24.98
-30.41
-35.26
-38.74
-40.50
-40.55
-39.01
-35.93
-31.44
-25.86
-19.89
-14.45
-10.30
-7.64
-5.82
-3.49
0.88
8.18
18.13
29.12
38.81
45.09
47.03
45.26
41.57
37.94
35.54
34.27
33.07
30.70
26.55
21.01
15.16
10.16
6.69
4.68
3.61
2.83
2.05
1.39
1.21
1.86
3.36
5.33
7.18
8.34
8.65
8.46
8.47
9.31
11.23
13.79
16.08
17.13
16.47
14.34
11.66
9.52
8.64
8.94
9.57
9.36
7.48
3.89
-0.67
-5.21
-8.94
-11.57
-13.10
-13.43
-12.08
-8.37
-2.01
6.37
15.17
22.29
26.08
26.05
22.99
18.49
14.03
10.31
7.12
3.74
-0.38
-5.09
-9.52
-12.47
-13.00
-10.87
-6.60
-1.24
4.14
8.81
12.49
15.15
16.73
17.04
15.86
13.22
9.64
6.06
3.53
2.70
3.49
5.10
6.34
6.17
4.11
0.40
-4.19
-8.67
-12.26
-14.55
-15.54
-15.60
-15.18
-14.71
-14.44
-14.45
-14.77
-15.41
-16.46
-17.96
-19.76
-21.40
-22.08
-20.91
-17.23
-10.97
-2.77
6.12
14.23
20.29
23.62
24.20
22.53
19.38
15.58
11.80
8.55
6.10
4.54
3.75
3.34
2.79
1.57
-0.61
-3.65
-7.02
-9.98
-11.84
-12.30
-11.49
-9.93
-8.28
-7.10
-6.71
-7.14
-8.20
-9.62
-11.18
-12.75
-14.31
-15.87
-17.27
-18.07
-17.59
-15.11
-10.30
-3.47
4.32
11.57
16.83
19.26
18.85
16.31
12.74
9.18
6.25
4.02
2.21
0.48
-1.27
-2.73
-3.32
-2.52
-0.24
3.02
6.34
8.76
9.73
9.39
8.40
7.60
7.53
8.17
9.00
9.21
8.12
5.44
1.34
-3.59
-8.55
-12.69
-15.19
-15.41
-12.96
-7.85
-0.56
7.87
16.06
22.62
26.58
27.67
26.37
23.57
20.07
16.22
11.85
6.58
0.32
-6.44
-12.61
-16.96
-18.69
-17.91
-15.71
-13.69
-13.21
-14.84
-18.06
-21.59
-24.03
-24.45
-22.71
-19.42
-15.44
-11.49
-8.00
-5.11
-2.90
-1.50
-1.04
-1.39
-1.97
-1.91
-0.42
2.79
7.21
11.70
15.04
16.49
16.14
14.76
13.35
12.66
12.88
13.65
14.37
14.49
13.71
12.03
9.67
6.90
4.01
1.19
-1.52
-4.17
-6.87
-9.61
-12.18
-14.12
-14.93
-14.35
-12.60
-10.41
-8.66
-8.06
-8.84
-10.68
-12.99
-15.25
-17.19
-18.79
-20.05
-20.83
-20.76
-19.46
-16.78
-12.96
-8.65
-4.61
-1.54
0.24
0.76
0.41
-0.22
-0.57
-0.28
0.64
1.90
3.02
3.56
3.37
2.61
1.67
0.94
0.63
0.71
0.96
1.04
0.70
-0.27
-1.99
-4.50
-7.70
-11.23
-14.50
-16.81
-17.62
-16.74
-14.52
-11.60
-8.66
-6.13
-4.02
-2.00
0.29
2.99
5.89
8.46
10.12
10.56
9.81
8.27
6.48
4.90
3.75
2.99
2.36
1.61
0.57
-0.83
-2.50
-4.29
-6.00
-7.42
-8.39
-8.82
-8.74
-8.34
-7.94
-7.84
-8.18
-8.80
-9.24
-8.89
-7.26
-4.27
-0.25
4.06
7.97
11.00
13.13
14.64
15.88
16.96
17.71
17.77
16.89
15.10
12.78
10.56
9.06
8.72
9.60
11.31
13.07
13.94
13.16
10.45
6.19
1.26
-3.28
-6.59
-8.34
-8.73
-8.31
-7.75
-7.60
-8.12
-9.26
-10.71
-11.97
-12.62
-12.44
-11.53
-10.12
-8.41
-6.36
-3.74
-0.37
3.60
7.68
11.23
13.92
16.00
18.21
21.31
25.51
30.25
34.40
36.86
36.99
34.83
30.80
25.23
18.10
9.17
-1.63
-13.79
-26.10
-37.00
-45.23
-50.46
-53.49
-55.86
-59.14
-64.14
-70.53
-77.09
-82.28
-85.07
-85.27
-83.56
-81.03
-78.58
-76.60
-74.96
-73.33
-71.69
-70.55
-70.86
-73.65
-79.43
-87.79
-97.40
-106.42
-113.10
-116.40
-116.24
-113.30
-108.70
-103.51
-98.42
-93.65
-88.94
-83.63
-76.77
-67.40
-55.04
-40.10
-23.99
-8.86
3.15
10.70
13.73
13.65
12.94
14.66
21.84
36.92
61.17
94.18
133.68
175.75
215.59
248.67
271.78
283.58
284.53
276.34
261.21
241.34
218.66
194.76
170.98
148.33
127.44
108.48
91.30
75.54
60.94
47.42
35.18
24.51
15.65
8.58
2.98
-1.63
-5.69
-9.39
-12.59
-15.01
-16.50
-17.21
-17.58
-18.17
-19.31
-21.02
-22.98
-24.80
-26.25
-27.33
-28.19
-28.92
-29.45
-29.58
-29.16
-28.18
-26.78
-25.08
-23.06
-20.54
-17.30
-13.33
-8.86
-4.30
0.01
4.01
7.88
11.90
16.16
20.36
24.01
26.55
27.66
27.34
25.86
23.60
20.86
17.87
14.80
11.74
8.72
5.64
2.32
-1.49
-5.99
-11.16
-16.79
-22.45
-27.68
-32.04
-35.20
-36.83
-36.62
-34.27
-29.74
-23.37
-16.06
-9.02
-3.41
0.13
1.80
2.49
3.39
5.36
8.57
12.46
16.09
18.65
19.81
19.77
19.09
18.41
18.18
18.60
19.55
20.67
21.37
20.96
18.77
14.47
8.20
0.71
-6.80
-13.00
-16.87
-17.98
-16.63
-13.68
-10.21
-7.17
-5.08
-3.97
-3.43
-2.81
-1.51
0.78
3.97
7.50
10.57
12.34
12.29
10.35
6.91
2.64
-1.82
-6.02
-9.73
-12.89
-15.41
-17.22
-18.24
-18.57
-18.50
-18.43
-18.56
-18.90
-19.21
-19.29
-19.13
-19.00
-19.22
-19.90
-20.80
-21.39
-21.24
-20.32
-19.13
-18.49
-19.11
-21.17
-24.19
-27.25
-29.32
-29.71
-28.21
-25.09
-20.88
-16.07
-10.96
-5.67
-0.29
5.00
9.84
13.77
16.32
17.22
16.53
14.62
12.01
9.17
6.35
3.57
0.69
-2.45
-5.80
-9.07
-11.78
-13.49
-14.04
-13.60
-12.44
-10.99
-9.71
-9.04
-9.24
-10.44
-12.65
-15.87
-20.00
-24.54
-28.83
-32.30
-34.57
-35.37
-34.53
-31.94
-27.80
-22.36
-15.48
-7.22
1.98
11.26
19.76
26.95
32.87
37.75
42.10
46.87
52.59
59.11
65.76
71.87
77.19
81.79
85.66
84.93
77.36
63.73
47.71
33.03
21.27
11.96
5.15
-0.22
-4.09
-5.27
-3.11
1.57
6.40
8.00
3.84
-6.89
-23.23
-42.42
-60.61
-74.66
-83.17
-86.71
-87.05
-85.95
-84.49
-83.08
-81.41
-78.83
-75.12
-70.61
-65.95
-61.64
-57.56
-53.10
-47.67
-40.94
-32.98
-24.36
-15.90
-8.34
-2.05
3.12
7.61
11.86
16.10
20.34
24.38
28.00
31.05
33.58
35.68
37.38
38.54
38.97
38.49
37.16
35.25
33.14
31.14
29.31
27.44
25.19
22.32
18.86
15.13
11.63
8.80
6.90
5.97
5.93
6.69
8.23
10.56
13.60
17.08
20.52
23.41
25.38
26.32
26.41
26.02
25.47
24.93
24.31
23.35
21.75
19.38
16.31
12.84
9.36
6.16
3.32
0.70
-1.99
-5.05
-8.68
-12.89
-17.52
-22.25
-26.69
-30.40
-32.96
-34.07
-33.65
-31.90
-29.21
-26.09
-22.96
-20.05
-17.35
-14.70
-12.01
-9.29
-6.79
-4.85
-3.77
-3.68
-4.46
-5.77
-7.17
-8.27
-8.82
-8.74
-8.10
-6.91
-5.15
-2.70
0.55
4.59
9.20
14.00
18.50
22.26
24.99
26.66
27.42
27.57
27.40
27.08
26.61
25.82
24.47
22.42
19.68
16.48
13.06
9.55
5.90
1.99
-2.25
-6.67
-10.88
-14.40
-16.85
-18.10
-18.29
-17.70
-16.60
-15.15
-13.44
-11.57
-9.72
-8.13
-7.00
-6.40
-6.24
-6.37
-6.68
-7.17
-7.96
-9.10
-10.53
-12.00
-13.16
-13.71
-13.59
-13.00
-12.26
-11.72
-11.49
-11.49
-11.48
-11.23
-10.60
-9.61
-8.37
-7.05
-5.84
-4.87
-4.26
-4.02
-4.06
-4.17
-4.11
-3.66
-2.76
-1.48
-0.01
1.46
2.81
3.98
4.95
5.67
6.08
6.10
5.76
5.16
4.49
3.95
3.61
3.40
3.13
2.64
1.90
1.12
0.60
0.62
1.23
2.19
3.04
3.35
2.96
2.01
0.89
-0.01
-0.47
-0.57
-0.56
-0.71
-1.15
-1.82
-2.60
-3.42
-4.29
-5.30
-6.47
-7.63
-8.43
-8.46
-7.42
-5.37
-2.66
0.11
2.44
4.07
5.09
5.78
6.43
7.14
7.73
7.92
7.46
6.36
4.87
3.41
2.34
1.84
1.85
2.10
2.28
2.16
1.66
0.89
0.02
-0.78
-1.43
-2.01
-2.61
-3.32
-4.12
-4.91
-5.52
-5.89
-6.02
-6.03
-6.05
-6.12
-6.15
-5.92
-5.23
-3.93
-2.12
-0.03
2.03
3.79
5.12
6.02
6.60
6.95
7.10
7.01
6.61
5.88
4.88
3.79
2.79
2.05
1.61
1.43
1.40
1.44
1.46
1.41
1.27
1.01
0.60
0.05
-0.62
-1.32
-1.99
-2.58
-3.07
-3.50
-3.90
-4.35
-4.86
-5.40
-5.83
-5.96
-5.61
-4.71
-3.33
-1.69
-0.02
1.52
2.91
4.21
5.50
6.80
8.01
8.95
9.46
9.48
9.08
8.43
7.73
7.14
6.74
6.49
6.31
6.08
5.69
5.09
4.25
3.17
1.84
0.30
-1.36
-2.99
-4.40
-5.42
-5.98
-6.18
-6.24
-6.50
-7.15
-8.22
-9.48
-10.53
-10.94
-10.45
-9.10
-7.20
-5.20
-3.45
-2.11
-1.09
-0.15
0.89
2.04
3.13
3.96
4.37
4.41
4.21
3.95
3.70
3.37
2.84
2.07
1.16
0.35
-0.13
-0.22
-0.04
0.17
0.14
-0.22
-0.84
-1.52
-2.03
-2.28
-2.34
-2.38
-2.61
-3.14
-3.91
-4.75
-5.45
-5.84
-5.90
-5.67
-5.21
-4.52
-3.53
-2.16
-0.40
1.64
3.72
5.52
6.81
7.47
7.54
7.21
6.65
6.03
5.41
4.78
4.09
3.37
2.70
2.20
1.94
1.94
2.07
2.16
2.07
1.75
1.29
0.87
0.62
0.59
0.70
0.75
0.50
-0.18
-1.29
-2.67
-4.06
-5.16
-5.77
-5.83
-5.47
-4.83
-4.04
-3.11
-1.95
-0.49
1.19
2.87
4.20
4.92
4.95
4.47
3.82
3.32
3.11
3.10
3.04
2.71
2.04
1.17
0.36
-0.16
-0.31
-0.22
-0.15
-0.33
-0.77
-1.33
-1.73
-1.75
-1.42
-0.97
-0.76
-1.05
-1.92
-3.15
-4.42
-5.40
-5.90
-5.89
-5.47
-4.73
-3.71
-2.43
-0.85
0.95
2.78
4.39
5.52
6.01
5.88
5.34
4.68
4.14
3.80
3.53
3.15
2.50
1.61
0.73
0.14
0.05
0.42
1.01
1.46
1.51
1.12
0.48
-0.12
-0.47
-0.56
-0.61
-0.88
-1.55
-2.57
-3.72
-4.72
-5.42
-5.83
-6.07
-6.24
-6.30
-6.05
-5.28
-3.88
-1.94
0.22
2.19
3.65
4.43
4.58
4.31
3.88
3.47
3.18
2.98
2.83
2.71
2.69
2.83
3.14
3.50
3.75
3.70
3.32
2.71
2.12
1.76
1.70
1.83
1.89
1.62
0.89
-0.23
-1.50
-2.65
-3.51
-4.06
-4.40
-4.67
-4.92
-5.06
-4.89
-4.27
-3.14
-1.66
-0.09
1.31
2.41
3.20
3.81
4.33
4.76
4.98
4.82
4.19
3.17
2.01
0.99
0.35
0.14
0.26
0.52
0.74
0.81
0.69
0.37
-0.12
-0.73
-1.39
-2.00
-2.51
-2.99
-3.58
-4.45
-5.66
-7.11
-8.55
-9.69
-10.32
-10.42
-10.07
-9.37
-8.39
-7.13
-5.58
-3.83
-2.01
-0.33
1.12
2.32
3.36
4.36
5.37
6.33
7.14
7.69
7.94
7.96
7.88
7.79
7.66
7.37
6.77
5.83
4.68
3.59
2.82
2.49
2.51
2.62
2.51
1.97
0.97
-0.38
-1.87
-3.32
-4.58
-5.55
-6.18
-6.40
-6.19
-5.56
-4.55
-3.30
-1.97
-0.77
0.17
0.79
1.19
1.47
1.73
1.95
1.99
1.67
0.87
-0.33
-1.70
-2.89
-3.61
-3.75
-3.40
-2.83
-2.35
-2.15
-2.30
-2.70
-3.23
-3.77
-4.31
-4.90
-5.62
-6.49
-7.46
-8.45
-9.30
-9.93
-10.28
-10.31
-10.03
-9.43
-8.48
-7.17
-5.55
-3.71
-1.82
-0.07
1.34
2.33
2.95
3.38
3.87
4.61
5.69
6.99
8.31
9.47
10.35
11.00
11.52
12.00
12.40
12.59
12.40
11.78
10.84
9.81
8.90
8.22
7.69
7.10
6.25
5.05
3.59
2.06
0.67
-0.51
-1.54
-2.51
-3.49
-4.36
-4.86
-4.66
-3.59
-1.73
0.50
2.56
3.98
4.58
4.53
4.19
3.95
3.97
4.16
4.25
3.97
3.28
2.34
1.46
0.88
0.68
0.70
0.68
0.38
-0.26
-1.07
-1.75
-2.05
-1.92
-1.56
-1.28
-1.39
-1.98
-2.92
-3.94
-4.76
-5.24
-5.40
-5.33
-5.16
-4.88
-4.38
-3.54
-2.26
-0.62
1.15
2.73
3.86
4.44
4.58
4.50
4.45
4.49
4.54
4.42
4.00
3.34
2.66
2.24
2.22
2.53
2.90
3.01
2.67
1.93
1.03
0.27
-0.12
-0.13
0.07
0.20
0.03
-0.49
-1.22
-1.93
-2.43
-2.68
-2.79
-2.97
-3.33
-3.81
-4.18
-4.13
-3.46
-2.20
-0.64
0.81
1.77
2.06
1.71
0.99
0.19
-0.48
-0.96
-1.33
-1.67
-1.97
-2.07
-1.79
-1.04
0.06
1.22
2.10
2.51
2.54
2.48
2.69
3.35
4.37
5.40
6.09
6.21
5.79
5.05
4.24
3.51
2.80
2.01
1.05
0.05
-0.68
-0.78
-0.05
1.44
3.29
4.93
5.85
5.83
5.02
3.82
2.68
1.93
1.63
1.62
1.72
1.83
1.99
2.38
3.12
4.16
5.23
5.94
5.96
5.15
3.65
1.81
-0.02
-1.59
-2.87
-3.96
-5.03
-6.17
-7.38
-8.62
-9.85
-11.07
-12.37
-13.81
-15.38
-16.94
-18.27
-19.05
-19.02
-18.04
-16.17
-13.71
-11.08
-8.72
-6.90
-5.64
-4.75
-3.95
-3.08
-2.11
-1.16
-0.33
0.39
1.12
1.99
3.05
4.13
4.98
5.33
5.14
4.56
3.91
3.48
3.38
3.50
3.57
3.32
2.64
1.67
0.67
-0.06
-0.39
-0.40
-0.31
-0.30
-0.43
-0.55
-0.41
0.21
1.38
2.97
4.72
6.33
7.55
8.28
8.53
8.45
8.17
7.76
7.15
6.23
4.92
3.35
1.83
0.76
0.40
0.78
1.57
2.33
2.62
2.28
1.40
0.26
-0.86
-1.83
-2.69
-3.58
-4.57
-5.61
-6.55
-7.19
-7.43
-7.33
-7.15
-7.14
-7.45
-7.95
-8.29
-8.06
-6.99
-5.14
-2.83
-0.50
1.52
3.11
4.31
5.24
5.95
6.36
6.32
5.77
4.82
3.73
2.83
2.35
2.32
2.59
2.84
2.84
2.46
1.80
1.05
0.44
0.04
-0.21
-0.48
-0.90
-1.47
-2.10
-2.63
-3.03
-3.35
-3.73
-4.28
-4.94
-5.55
-5.82
-5.54
-4.61
-3.11
-1.24
0.79
2.78
4.60
6.14
7.30
8.01
8.20
7.92
7.24
6.32
5.34
4.41
3.57
2.83
2.18
1.64
1.22
0.97
0.84
0.75
0.58
0.20
-0.41
-1.20
-2.10
-3.01
-3.85
-4.61
-5.28
-5.86
-6.38
-6.90
-7.45
-8.01
-8.46
-8.60
-8.18
-7.07
-5.31
-3.15
-0.91
1.07
2.64
3.78
4.59
5.18
5.57
5.67
5.34
4.52
3.27
1.84
0.55
-0.32
-0.65
-0.53
-0.19
0.14
0.32
0.31
0.19
0.05
-0.14
-0.44
-0.97
-1.74
-2.65
-3.53
-4.18
-4.53
-4.65
-4.74
-5.01
-5.55
-6.25
-6.81
-6.87
-6.15
-4.60
-2.44
-0.07
2.08
3.74
4.85
5.51
5.93
6.21
6.33
6.15
5.55
4.53
3.27
2.07
1.20
0.78
0.71
0.74
0.59
0.11
-0.69
-1.59
-2.36
-2.83
-3.01
-3.03
-3.09
-3.33
-3.74
-4.22
-4.63
-4.90
-5.08
-5.26
-5.55
-5.94
-6.30
-6.42
-6.12
-5.33
-4.15
-2.79
-1.47
-0.35
0.57
1.33
1.98
2.46
2.62
2.29
1.43
0.16
-1.23
-2.41
-3.19
-3.58
-3.77
-3.97
-4.26
-4.57
-4.66
-4.33
-3.51
-2.35
-1.15
-0.17
0.42
0.67
0.76
0.84
0.99
1.08
0.94
0.43
-0.42
-1.37
-2.05
-2.15
-1.53
-0.29
1.30
2.90
4.27
5.34
6.19
6.96
7.75
8.55
9.25
9.66
9.67
9.29
8.64
7.93
7.33
6.87
6.47
5.97
5.27
4.37
3.39
2.50
1.81
1.33
0.94
0.49
-0.10
-0.80
-1.50
-2.05
-2.41
-2.65
-2.92
-3.32
-3.84
-4.33
-4.51
-4.17
-3.19
-1.63
0.26
2.20
3.96
5.43
6.62
7.59
8.36
8.86
8.97
8.62
7.85
6.89
6.04
5.55
5.50
5.72
5.93
5.88
5.47
4.84
4.27
4.02
4.17
4.52
4.72
4.44
3.60
2.41
1.32
0.85
1.31
2.61
4.34
5.94
7.02
7.51
7.65
7.86
8.54
9.90
11.80
13.94
15.93
17.38
17.83
16.59
13.19
7.66
0.78
-6.06
-11.28
-13.63
-12.64
-8.64
-2.89
3.30
8.80
12.82
14.70
13.98
10.46
4.46
-3.20
-11.72
-20.02
-26.94
-31.58
-33.51
-33.11
-31.75
-31.77
-33.32
-37.29
-44.12
-52.99
-61.68
-67.58
-69.14
-66.66
-61.98
-57.34
-54.46
-53.25
-51.90
-47.97
-39.76
-27.33
-12.53
1.94
13.78
21.69
25.93
27.76
28.56
29.16
29.79
30.48
31.42
32.89
34.65
36.02
35.94
33.59
28.93
22.82
16.78
12.28
9.99
9.45
9.59
9.38
8.69
8.40
10.02
14.61
22.00
30.23
36.15
36.81
30.99
20.26
8.73
1.52
2.29
12.34
29.95
51.15
70.93
84.40
87.94
79.65
59.83
31.03
-2.09
-33.80
-58.74
-73.07
-76.34
-70.95
-60.61
-48.81
-37.76
-28.31
-20.60
-14.59
-10.25
-7.47
-5.61
-3.69
-0.86
3.08
7.41
10.72
11.73
10.00
6.19
1.95
-0.94
-1.35
0.70
4.10
7.11
7.99
5.58
-0.36
-9.07
-18.89
-27.72
-33.56
-35.28
-33.03
-28.33
-23.59
-21.30
-22.80
-27.71
-33.67
-37.11
-34.62
-24.19
-6.12
17.04
41.08
61.23
73.36
75.03
66.24
49.48
29.13
9.95
-4.48
-12.91
-16.54
-18.00
-19.73
-22.60
-25.47
-26.13
-22.91
-15.89
-6.98
0.99
5.75
6.56
4.22
0.42
-3.23
-5.89
-7.37
-7.55
-5.88
-1.19
7.45
19.78
34.39
49.12
61.76
70.68
75.07
74.73
69.62
59.77
45.53
27.97
9.02
-8.88
-23.37
-32.77
-36.56
-35.28
-30.28
-23.17
-15.43
-8.25
-2.44
1.55
3.64
3.95
2.71
0.26
-2.94
-6.23
-8.78
-9.87
-9.03
-6.30
-2.11
2.72
7.23
10.46
11.45
9.39
3.72
-5.60
-17.76
-31.08
-43.21
-51.80
-55.13
-52.68
-45.36
-35.29
-25.12
-17.07
-12.20
-10.23
-10.06
-10.59
-11.28
-12.25
-13.71
-15.45
-16.40
-15.19
-10.95
-3.96
4.34
11.92
17.15
19.40
19.12
17.40
15.26
13.22
11.36
9.51
7.56
5.56
3.80
2.54
2.00
2.15
2.74
3.37
3.71
3.68
3.47
3.45
3.95
4.97
6.17
6.99
7.03
6.29
5.22
4.52
4.75
6.12
8.37
11.00
13.50
15.61
17.32
18.74
19.94
20.78
20.96
20.08
17.85
14.27
9.75
5.09
1.36
-0.42
0.30
3.32
7.62
11.75
14.46
15.26
14.64
13.80
14.05
16.26
20.48
26.02
31.63
35.83
37.26
34.77
27.52
15.04
-2.53
-24.23
-48.09
-71.44
-91.58
-106.63
-116.14
-120.97
-122.45
-121.68
-119.03
-114.21
-106.79
-96.61
-84.15
-70.37
-56.31
-42.39
-28.65
-15.03
-1.66
11.24
23.43
34.67
44.54
52.21
57.19
59.06
57.78
53.72
47.88
41.54
35.78
31.12
27.61
26.02
27.31
32.36
41.30
53.41
67.21
80.88
92.90
98.36
94.84
83.71
69.52
56.54
46.23
37.64
29.16
20.01
10.50
2.22
-3.77
-7.53
-9.99
-11.89
-13.01
-12.28
-8.91
-3.29
3.80
10.39
14.69
15.95
14.82
12.81
11.08
9.42
5.52
-1.90
-13.34
-27.58
-42.02
-53.83
-61.11
-63.54
-62.16
-58.36
-52.86
-45.95
-37.87
-29.45
-22.04
-16.73
-13.48
-10.98
-7.24
-0.71
8.35
17.88
24.99
27.17
23.59
15.51
5.82
-2.26
-6.27
-5.49
-0.82
5.74
12.01
16.36
18.00
16.88
13.37
7.96
1.19
-6.28
-13.58
-19.75
-23.92
-25.66
-25.17
-23.21
-20.74
-18.57
-17.07
-16.17
-15.50
-14.62
-13.30
-11.22
-8.69
-6.27
-4.54
-3.88
-4.34
-5.60
-7.04
-8.00
-7.97
-6.91
-5.09
-3.02
-1.15
0.29
1.34
2.25
3.29
4.59
6.04
7.42
8.49
9.03
8.92
8.14
6.77
5.00
3.14
1.51
0.42
0.06
0.47
1.51
2.95
4.51
5.95
7.05
7.68
7.78
7.40
6.64
5.61
4.37
2.98
1.45
-0.19
-1.81
-3.21
-4.20
-4.60
-4.44
-3.91
-3.28
-2.86
-2.78
-2.97
-3.17
-3.08
-2.56
-1.68
-0.72
-0.05
0.05
-0.44
-1.34
-2.33
-3.10
-3.47
-3.42
-3.05
-2.47
-1.74
-0.84
0.29
1.70
3.36
5.13
6.79
8.11
8.91
9.14
8.84
8.14
7.18
6.08
4.95
3.87
2.94
2.22
1.71
1.35
0.95
0.36
-0.54
-1.73
-3.10
-4.47
-5.72
-6.75
-7.59
-8.31
-8.97
-9.59
-10.08
-10.32
-10.14
-9.44
-8.22
-6.53
-4.53
-2.39
-0.22
1.88
3.86
5.66
7.20
8.36
9.03
9.20
8.88
8.22
7.42
6.66
6.09
5.75
5.60
5.49
5.29
4.86
4.12
3.06
1.78
0.38
-1.01
-2.27
-3.34
-4.26
-5.14
-6.14
-7.45
-9.16
-11.20
-13.27
-14.90
-15.58
-14.96
-13.02
-10.13
-6.97
-4.33
-2.78
-2.57
-3.50
-5.04
-6.51
-7.30
-7.07
-5.74
-3.55
-0.87
1.89
4.41
6.56
8.34
9.83
11.08
12.05
12.63
12.74
12.38
11.70
10.89
10.16
9.59
9.13
8.68
8.13
7.47
6.71
5.93
5.15
4.35
3.49
2.51
1.36
0.01
-1.52
-3.15
-4.76
-6.22
-7.46
-8.50
-9.37
-10.08
-10.49
-10.35
-9.45
-7.71
-5.29
-2.50
0.29
2.87
5.14
7.12
8.82
10.17
11.08
11.51
11.53
11.36
11.24
11.36
11.76
12.30
12.79
13.03
12.94
12.51
11.86
11.11
10.36
9.65
8.95
8.23
7.48
6.74
6.05
5.47
4.99
4.59
4.22
3.83
3.40
2.95
2.51
2.12
1.81
1.57
1.37
1.19
0.99
0.77
0.54
0.32
0.14
0.00
-0.09
-0.16
-0.23
-0.30
-0.38
-0.46
-0.53
-0.58
-0.61
-0.62
-0.63
-0.63
-0.64
-0.65
-0.66
-0.67
-0.68
-0.68
-0.68
-0.67
-0.66
-0.66
-0.65
-0.65
-0.64
-0.64
-0.63
-0.63
-0.62
-0.62
-0.61
-0.61
-0.60
-0.60
-0.59
-0.59
-0.58
-0.58
-0.58
-0.57
-0.57
-0.56
-0.56
-0.56
-0.55
-0.55
-0.54
-0.54
-0.54
-0.53
-0.53
-0.53
-0.52
-0.52
-0.52
-0.51
-0.51
-0.51
-0.50
-0.50
-0.50
-0.50
-0.49
-0.49
-0.49
-0.48
-0.48
-0.48
-0.48
-0.47
-0.47
-0.47
-0.47
-0.46
-0.46
-0.46
-0.45
-0.45
-0.45
-0.45
-0.45
-0.44
-0.44
-0.44
-0.44
-0.43
-0.43
-0.43
-0.43
-0.43
-0.42
-0.42
-0.42
-0.42
-0.41
-0.41
-0.41
-0.41
-0.41
-0.40
-0.40
-0.40
-0.40
-0.40
-0.39
-0.39
-0.39
-0.39
-0.39
-0.39
-0.38
-0.38
-0.38
-0.38
-0.38
-0.37
-0.37
-0.37
-0.37
-0.37
-0.37
-0.37
-0.36
-0.36
-0.36
-0.36
-0.36
-0.36
-0.36
-0.35
-0.35
-0.35
-0.35
-0.35
-0.35
-0.34
-0.34
-0.34
-0.34
-0.34
-0.34
-0.34
-0.33
-0.33
-0.33
-0.33
-0.33
-0.33
-0.33
-0.32
-0.32
-0.32
-0.32
-0.32
-0.32
-0.32
-0.32
-0.31
-0.31
-0.31
-0.31
-0.31
-0.31
-0.31
-0.30
-0.30
-0.30
-0.30
-0.30
-0.30
-0.30
-0.30
-0.30
-0.30
-0.30
-0.31
-0.32
-0.32
-0.32
-0.33
-0.33
-0.33
-0.34
-0.35
-0.36
-0.37
-0.38
-0.38
-0.37
-0.37
-0.37
-0.39
-0.41
-0.44
-0.47
-0.48
-0.49
-0.49
-0.48
-0.49
-0.52
-0.58
-0.68
-0.78
-0.89
-0.96
-1.00
-1.02
-1.04
-1.10
-1.22
-1.41
-1.63
-1.83
-1.97
-2.02
-2.02
-2.02
-2.07
-2.22
-2.45
-2.71
-2.92
-3.03
-2.99
-2.87
-2.73
-2.69
-2.80
-3.08
-3.46
-3.84
-4.07
-4.02
-3.61
-2.86
-1.91
-1.02
-0.45
-0.36
-0.70
-1.10
-1.12
-0.44
0.94
2.62
3.97
4.42
3.75
2.24
0.60
-0.38
-0.16
1.25
3.36
5.41
6.77
7.08
6.49
5.49
4.73
4.87
6.61
10.66
17.50
26.95
37.70
47.71
55.04
58.79
59.67
59.79
61.67
67.02
75.90
86.33
95.54
101.10
101.57
96.58
86.48
72.05
54.33
34.55
13.46
-8.02
-28.79
-47.91
-64.97
-80.42
-95.38
-110.97
-127.49
-144.67
-160.60
-172.40
-177.47
-174.94
-166.10
-153.65
-140.12
-121.88
-97.05
-66.33
-33.43
-2.96
21.65
39.04
49.67
55.14
57.23
56.52
53.37
48.41
42.91
38.31
35.98
36.10
38.19
41.22
43.38
43.28
40.38
35.06
27.99
19.30
9.69
-0.15
-9.33
-17.01
-22.10
-24.25
-23.14
-19.30
-14.06
-8.98
-5.21
-3.06
-2.34
-2.48
-2.94
-3.34
-3.59
-3.57
-3.11
-2.05
-0.40
1.56
3.35
4.55
4.99
4.71
3.95
3.10
2.68
3.39
6.04
10.87
17.42
24.32
29.62
31.77
30.23
25.61
19.24
12.50
6.34
1.20
-2.71
-5.13
-5.65
-4.07
-0.46
4.57
10.00
14.76
18.10
19.82
20.08
19.14
17.19
14.36
10.81
6.84
2.88
-0.67
-3.30
-4.76
-5.19
-5.03
-4.71
-4.48
-4.23
-3.67
-2.53
-0.80
1.21
2.95
3.99
4.26
4.13
4.23
5.09
6.86
9.18
11.23
12.11
11.22
8.44
4.17
-0.77
-5.36
-8.65
-9.96
-9.23
-7.08
-4.76
-3.67
-4.91
-8.77
-14.67
-21.47
-28.00
-33.57
-38.08
-41.77
-44.90
-47.47
-49.23
-49.91
-49.53
-48.44
-47.22
-46.41
-46.30
-46.76
-47.33
-47.41
-46.41
-44.01
-40.21
-35.28
-29.59
-23.42
-16.85
-9.82
-2.30
5.57
13.44
20.83
27.29
32.57
36.66
39.73
42.01
43.60
44.41
44.21
42.68
39.73
35.56
30.69
25.84
21.68
18.64
16.92
16.45
17.06
18.49
20.34
22.07
23.08
22.92
21.49
19.19
16.78
15.09
14.63
15.35
16.68
17.81
18.05
17.12
15.25
12.92
10.60
8.47
6.37
4.06
1.47
-1.12
-3.18
-4.18
-3.92
-2.69
-1.11
0.09
0.41
-0.30
-1.84
-3.83
-5.92
-7.86
-9.54
-10.89
-11.82
-12.16
-11.70
-10.31
-8.09
-5.39
-2.77
-0.76
0.34
0.57
0.29
-0.07
-0.17
0.03
0.36
0.58
0.52
0.18
-0.32
-0.84
-1.28
-1.66
-2.03
-2.38
-2.70
-2.87
-2.82
-2.50
-2.03
-1.59
-1.43
-1.65
-2.23
-2.97
-3.60
-3.95
-4.04
-4.10
-4.37
-4.94
-5.65
-6.11
-5.90
-4.77
-2.80
-0.37
2.04
4.04
5.51
6.52
7.30
8.00
8.58
8.79
8.26
6.78
4.40
1.55
-1.11
-2.92
-3.49
-2.82
-1.34
0.40
1.87
2.79
3.09
2.85
2.14
1.04
-0.43
-2.11
-3.75
-5.00
-5.62
-5.61
-5.30
-5.24
-5.94
-7.54
-9.70
-11.61
-12.34
-11.28
-8.41
-4.34
-0.04
3.56
5.96
7.12
7.34
7.01
6.37
5.50
4.39
3.05
1.63
0.37
-0.56
-1.10
-1.43
-1.86
-2.73
-4.18
-6.12
-8.22
-9.99
-11.03
-11.16
-10.59
-9.76
-9.25
-9.51
-10.72
-12.72
-15.14
-17.53
-19.52
-20.88
-21.48
-21.23
-19.99
-17.71
-14.47
-10.60
-6.63
-3.14
-0.49
1.29
2.51
3.63
4.98
6.62
8.31
9.72
10.59
10.93
10.97
11.05
11.40
12.06
12.82
13.37
13.47
13.08
12.37
11.64
11.13
10.96
11.06
11.21
11.24
11.01
10.48
9.73
8.86
8.00
7.29
6.86
6.78
7.03
7.50
8.00
8.32
8.34
8.00
7.29
6.23
4.87
3.19
1.21
-1.08
-3.64
-6.40
-9.25
-11.97
-14.28
-15.90
-16.60
-16.30
-15.09
-13.19
-10.92
-8.55
-6.27
-4.19
-2.29
-0.56
0.99
2.30
3.28
3.88
4.14
4.26
4.52
5.22
6.47
8.16
9.98
11.55
12.54
12.82
12.49
11.75
10.84
9.89
8.85
7.53
5.72
3.25
0.13
-3.48
-7.31
-11.00
-14.23
-16.66
-18.04
-18.15
-16.92
-14.46
-11.14
-7.51
-4.16
-1.52
0.30
1.46
2.27
3.03
3.81
4.54
5.10
5.45
5.69
6.01
6.55
7.35
8.27
9.08
9.54
9.45
8.62
6.93
4.31
0.81
-3.34
-7.80
-12.16
-15.97
-18.84
-20.41
-20.40
-18.72
-15.53
-11.32
-6.81
-2.73
0.39
2.41
3.44
3.75
3.52
2.87
1.87
0.76
-0.17
-0.60
-0.42
0.21
0.99
1.69
2.29
3.07
4.32
6.10
8.07
9.51
9.69
8.18
5.12
1.23
-2.41
-4.73
-5.01
-3.07
0.66
5.36
10.09
14.08
16.91
18.55
19.27
19.48
19.51
19.58
19.79
20.20
20.84
21.71
22.70
23.45
23.39
21.88
18.44
13.00
6.07
-1.41
-8.31
-13.64
-16.86
-17.94
-17.18
-15.02
-11.91
-8.25
-4.58
-1.61
-0.10
-0.56
-2.82
-5.93
-8.37
-8.74
-6.37
-1.68
4.00
9.14
12.67
14.42
14.98
15.15
15.37
15.49
14.97
13.29
10.41
6.86
3.50
1.08
-0.20
-0.78
-1.56
-3.39
-6.60
-10.75
-14.75
-17.30
-17.55
-15.43
-11.76
-7.87
-5.06
-4.07
-4.92
-7.02
-9.52
-11.74
-13.31
-14.18
-14.43
-14.15
-13.38
-12.20
-10.82
-9.70
-9.42
-10.48
-13.08
-16.87
-21.11
-24.87
-27.38
-28.33
-27.88
-26.51
-24.68
-22.62
-20.28
-17.52
-14.34
-11.04
-8.20
-6.40
-5.89
-6.37
-7.00
-6.73
-4.71
-0.65
5.03
11.33
17.09
21.38
23.77
24.32
23.39
21.39
18.63
15.28
11.63
8.15
5.47
4.28
4.91
7.15
10.22
13.07
14.76
14.83
13.40
11.07
8.53
6.32
4.66
3.46
2.51
1.62
0.68
-0.34
-1.42
-2.51
-3.56
-4.46
-5.02
-5.00
-4.24
-2.70
-0.52
1.94
4.25
5.96
6.85
6.87
6.20
5.10
3.81
2.47
1.15
-0.10
-1.16
-1.86
-2.04
-1.67
-0.92
-0.13
0.30
0.11
-0.72
-1.88
-2.89
-3.28
-2.80
-1.59
-0.08
1.14
1.61
1.19
0.10
-1.18
-2.12
-2.37
-1.83
-0.64
0.96
2.73
4.50
6.20
7.75
9.05
9.95
10.32
10.14
9.53
8.74
8.09
7.73
7.65
7.60
7.31
6.60
5.54
4.39
3.48
2.98
2.81
2.71
2.37
1.64
0.53
-0.78
-2.14
-3.48
-4.83
-6.25
-7.72
-9.06
-10.03
-10.33
-9.82
-8.48
-6.53
-4.30
-2.17
-0.44
0.79
1.56
2.04
2.43
2.78
2.99
2.84
2.20
1.11
-0.17
-1.27
-1.94
-2.08
-1.85
-1.54
-1.39
-1.45
-1.59
-1.64
-1.56
-1.51
-1.77
-2.56
-3.98
-5.89
-7.82
-9.17
-9.42
-8.38
-6.22
-3.35
-0.19
2.69
4.95
6.63
8.08
9.71
11.66
13.74
15.62
17.05
17.59
17.01
15.52
13.66
11.86
10.22
8.45
6.24
3.51
-0.06
-4.71
-10.53
-17.48
-25.63
-35.08
-45.88
-57.57
-65.89
-67.19
-60.96
-50.57
-40.50
-33.43
-29.47
-27.33
-25.47
-23.16
-21.29
-21.43
-24.26
-28.53
-32.31
-32.32
-26.67
-15.65
-1.70
11.17
19.26
20.82
16.57
8.77
-0.08
-8.61
-16.52
-24.02
-30.85
-35.98
-37.67
-34.21
-24.99
-10.99
5.25
20.70
32.98
40.93
44.77
45.58
44.71
43.06
41.07
38.84
36.59
34.92
34.49
35.76
38.65
42.57
46.50
49.36
50.19
48.49
44.36
38.57
32.36
26.98
23.10
20.41
17.60
13.03
5.57
-4.61
-16.04
-26.60
-34.60
-39.45
-41.85
-43.06
-44.08
-45.07
-45.43
-44.37
-41.58
-37.47
-32.92
-28.72
-25.13
-21.82
-18.18
-13.78
-8.75
-3.71
0.53
3.36
4.65
4.69
3.94
2.77
1.27
-0.65
-3.10
-6.03
-9.16
-12.05
-14.26
-15.48
-15.56
-14.53
-12.47
-9.49
-5.71
-1.33
3.39
8.08
12.31
15.69
17.98
19.18
19.55
19.46
19.26
19.16
19.15
19.14
19.06
19.01
19.23
20.01
21.50
23.59
25.90
27.91
29.16
29.50
29.03
28.10
27.12
26.33
25.74
25.23
24.62
23.85
23.01
22.26
21.72
21.32
20.80
19.85
18.23
15.94
13.21
10.39
7.76
5.44
3.30
1.11
-1.32
-3.99
-6.75
-9.32
-11.45
-13.08
-14.32
-15.37
-16.42
-17.44
-18.32
-18.85
-18.94
-18.68
-18.37
-18.38
-18.97
-20.14
-21.61
-22.99
-23.95
-24.41
-24.56
-24.77
-25.34
-26.29
-27.38
-28.17
-28.28
-27.50
-25.95
-23.96
-22.00
-20.47
-19.64
-19.63
-20.36
-21.67
-23.27
-24.86
-26.06
-26.48
-25.79
-23.73
-20.27
-15.68
-10.48
-5.32
-0.73
3.04
6.07
8.66
11.09
13.41
15.42
16.82
17.38
17.11
16.27
15.28
14.49
14.03
13.83
13.61
13.14
12.32
11.23
10.13
9.23
8.61
8.07
7.28
5.94
3.94
1.50
-1.01
-3.23
-4.99
-6.38
-7.53
-8.46
-8.92
-8.49
-6.78
-3.71
0.41
4.93
9.09
12.33
14.36
15.23
15.14
14.30
12.84
10.87
8.52
6.10
4.02
2.71
2.40
3.04
4.23
5.48
6.32
6.58
6.42
6.20
6.29
6.89
7.89
8.94
9.61
9.59
8.78
7.34
5.55
3.69
1.95
0.39
-0.92
-1.81
-2.04
-1.31
0.50
3.30
6.71
10.20
13.24
15.52
16.96
17.67
17.90
17.86
17.70
17.48
17.17
16.72
16.10
15.34
14.51
13.71
12.97
12.22
11.30
10.08
8.51
6.67
4.79
3.05
1.56
0.23
-1.17
-2.79
-4.67
-6.64
-8.45
-9.85
-10.74
-11.16
-11.22
-10.95
-10.28
-9.09
-7.29
-4.95
-2.32
0.23
2.37
3.91
4.86
5.40
5.71
5.92
6.00
5.83
5.30
4.46
3.50
2.76
2.51
2.85
3.58
4.33
4.67
4.36
3.45
2.22
1.02
0.11
-0.53
-1.11
-1.94
-3.21
-4.89
-6.70
-8.26
-9.25
-9.53
-9.18
-8.36
-7.24
-5.91
-4.34
-2.49
-0.38
1.82
3.87
5.52
6.63
7.27
7.66
8.01
8.45
8.94
9.32
9.44
9.25
8.83
8.40
8.19
8.31
8.73
9.27
9.68
9.80
9.59
9.18
8.74
8.43
8.21
7.93
7.36
6.34
4.93
3.40
2.16
1.63
2.05
3.46
5.73
8.59
11.76
14.90
17.60
19.43
19.94
18.92
16.50
13.21
9.88
7.32
6.03
6.03
6.85
7.77
8.08
7.34
5.48
2.74
-0.44
-3.59
-6.33
-8.46
-10.01
-11.20
-12.36
-13.89
-15.99
-18.68
-21.75
-24.81
-27.43
-29.26
-30.05
-29.72
-28.28
-25.85
-22.65
-19.02
-15.40
-12.22
-9.72
-7.94
-6.63
-5.50
-4.31
-3.05
-1.85
-0.89
-0.23
0.23
0.70
1.34
2.14
2.91
3.40
3.51
3.31
3.04
2.92
2.99
3.08
2.88
2.16
0.89
-0.65
-2.09
-3.09
-3.58
-3.76
-3.99
-4.59
-5.60
-6.78
-7.65
-7.74
-6.78
-4.86
-2.38
0.15
2.34
4.06
5.44
6.75
8.15
9.57
10.73
11.24
10.87
9.69
8.04
6.44
5.33
4.90
5.01
5.26
5.17
4.35
2.71
0.50
-1.90
-4.07
-5.83
-7.24
-8.49
-9.79
-11.17
-12.52
-13.69
-14.60
-15.28
-15.77
-15.92
-15.37
-13.68
-10.60
-6.32
-1.52
2.86
6.06
7.81
8.45
8.71
9.22
10.17
11.23
11.83
11.52
10.24
8.28
5.94
3.24
-0.16
-4.72
-10.64
-17.68
-25.17
-32.42
-39.08
-45.21
-51.12
-56.88
-62.01
-65.47
-66.04
-62.69
-54.93
-43.02
-27.84
-10.80
6.51
22.50
36.01
46.51
54.21
59.96
64.93
70.15
75.98
81.73
85.81
86.26
81.64
71.89
58.49
44.04
31.36
22.40
17.77
16.84
18.38
21.14
24.12
26.49
27.32
25.60
20.49
11.77
0.14
-12.92
-25.66
-36.54
-44.64
-49.67
-51.79
-51.33
-48.61
-43.92
-37.62
-30.22
-22.38
-14.83
-8.14
-2.58
1.91
5.60
8.80
11.68
14.19
16.21
17.68
18.69
19.50
20.35
21.24
21.79
21.23
18.75
13.89
6.84
-1.49
-9.76
-16.61
-21.12
-22.87
-21.94
-18.58
-13.08
-5.71
3.07
12.47
21.27
28.02
31.40
30.51
25.08
15.60
3.26
-10.19
-22.74
-32.68
-38.98
-41.58
-41.37
-39.84
-38.33
-37.49
-37.06
-36.24
-34.42
-31.71
-28.91
-27.36
-28.38
-32.69
-39.83
-48.28
-55.92
-60.75
-61.60
-57.99
-50.88
-42.67
-36.90
-37.01
-44.93
-59.91
-78.09
-93.00
-96.38
-81.52
-46.23
5.73
65.43
121.69
164.51
188.05
192.00
181.95
165.89
150.73
140.14
134.52
132.31
131.38
129.84
119.89
96.88
61.45
19.57
-21.38
-56.06
-81.56
-96.61
-101.23
-96.88
-85.21
-68.76
-50.72
-34.41
-22.23
-15.04
-12.08
-11.61
-11.84
-11.01
-8.81
-6.53
-6.17
-8.88
-14.02
-19.45
-22.94
-23.44
-21.01
-16.79
-12.32
-8.73
-6.37
-5.04
-4.43
-4.43
-5.12
-6.13
-6.83
-6.58
-5.08
-2.68
-0.14
1.59
1.84
0.52
-1.68
-3.61
-4.28
-3.29
-1.02
1.75
4.28
6.24
7.78
9.25
10.87
12.47
13.60
13.75
12.69
10.48
7.81
5.28
3.28
1.87
0.87
0.01
-0.82
-1.45
-1.59
-0.95
0.42
2.17
3.72
4.59
4.62
4.06
3.42
3.14
3.32
3.63
3.55
2.71
1.12
-0.80
-2.47
-3.42
-3.55
-3.13
-2.62
-2.38
-2.55
-2.99
-3.48
-3.82
-4.05
-4.38
-5.12
-6.48
-8.40
-10.51
-12.33
-13.42
-13.59
-13.02
-12.10
-11.27
-10.79
-10.60
-10.33
-9.56
-8.05
-5.85
-3.44
-1.49
-0.71
-1.45
-3.51
-6.18
-8.44
-9.35
-8.43
-5.88
-2.61
-0.08
0.44
-1.57
-5.60
-10.34
-14.24
-16.11
-15.72
-13.75
-11.92
-11.83
-14.30
-19.16
-25.41
-31.55
-35.64
-35.58
-29.35
-16.72
0.58
18.54
31.63
34.50
24.32
2.46
-25.88
-53.14
-73.20
-82.67
-81.55
-72.55
-59.62
-46.27
-34.41
-24.85
-13.24
1.26
15.52
24.35
25.04
19.36
12.40
9.39
11.00
15.64
18.76
16.37
7.19
-6.56
-20.64
-30.92
-31.48
-20.93
-1.72
20.54
40.71
55.87
65.37
69.58
69.36
65.85
59.82
52.85
46.48
42.39
41.58
43.84
47.46
50.18
50.60
47.33
40.89
32.90
25.40
19.67
15.88
13.27
11.05
8.70
5.72
2.08
-2.26
-6.40
-9.80
-11.90
-13.42
-13.64
-12.02
-8.75
-4.28
0.68
5.29
8.59
10.71
11.48
11.10
9.83
7.93
5.71
3.34
0.81
-2.13
-5.56
-9.46
-13.40
-16.98
-20.01
-22.68
-25.56
-29.39
-34.74
-41.20
-47.83
-53.18
-56.25
-56.99
-56.48
-56.55
-58.94
-64.33
-71.34
-77.59
-80.66
-79.41
-74.51
-68.03
-62.62
-60.49
-62.84
-68.77
-76.43
-83.07
-85.13
-78.33
-58.73
-24.63
21.76
73.96
123.93
163.64
188.02
196.53
192.99
183.60
174.03
167.44
157.53
139.98
114.07
83.33
52.61
25.41
3.04
-14.87
-29.40
-41.48
-50.31
-54.76
-54.13
-48.71
-39.79
-29.33
-19.63
-12.85
-10.54
-12.20
-16.21
-20.28
-22.27
-20.90
-16.24
-9.85
-4.09
-1.33
-2.35
-6.63
-12.66
-18.70
-23.30
-25.67
-26.06
-24.83
-22.65
-19.99
-17.26
-14.87
-13.33
-12.97
-13.55
-14.66
-15.36
-14.75
-12.20
-8.04
-2.90
1.93
5.11
5.72
3.67
-0.18
-4.63
-8.57
-11.50
-13.57
-15.23
-16.70
-17.51
-16.73
-13.55
-8.14
-1.96
2.67
3.59
-0.18
-7.84
-17.16
-25.49
-30.88
-32.85
-32.23
-30.43
-28.47
-26.50
-23.78
-19.43
-13.07
-5.08
3.50
11.45
17.91
22.68
26.07
28.55
30.30
31.14
30.71
28.71
25.21
20.65
15.73
11.17
7.49
5.00
3.82
4.03
5.59
8.37
12.11
16.31
20.38
23.69
25.72
26.23
25.31
23.33
20.83
18.33
16.21
14.70
13.83
13.50
13.54
13.72
13.74
13.30
12.25
10.62
8.67
6.76
5.14
3.92
2.97
2.09
1.09
-0.14
-1.58
-3.18
-4.88
-6.61
-8.21
-9.48
-10.09
-9.77
-8.36
-5.95
-2.87
0.44
3.55
6.16
8.18
9.65
10.66
11.20
11.24
10.72
9.73
8.48
7.27
6.38
5.93
5.84
5.88
5.84
5.64
5.45
5.54
6.23
7.66
9.78
12.31
14.86
17.04
18.61
19.53
19.91
19.98
19.97
19.99
19.99
19.66
18.49
15.98
11.79
5.94
-1.19
-8.94
-16.48
-23.07
-28.09
-31.07
-31.66
-29.73
-25.55
-19.94
-14.08
-9.11
-5.78
-4.20
-3.90
-4.02
-3.66
-2.45
-0.61
1.23
2.44
2.64
1.79
0.07
-1.99
-3.82
-5.32
-7.11
-10.28
-15.84
-24.21
-35.00
-46.99
-58.00
-65.40
-66.93
-61.37
-48.64
-29.73
-6.47
18.82
41.51
56.71
62.25
59.88
53.51
46.64
40.93
36.15
30.90
23.47
13.15
0.45
-13.16
-25.90
-36.17
-42.82
-45.48
-44.64
-41.49
-37.13
-32.34
-27.63
-23.50
-20.36
-18.43
-17.60
-17.41
-17.22
-16.13
-13.37
-8.65
-2.38
4.54
11.07
16.30
19.72
21.24
21.27
20.46
19.45
18.59
18.02
17.72
17.66
17.87
18.42
19.30
20.43
21.55
22.33
22.33
21.16
18.66
14.95
10.49
6.08
2.56
0.62
0.44
1.66
3.32
4.43
4.22
2.41
-0.67
-4.17
-6.93
-7.86
-6.21
-1.97
4.06
10.41
15.46
18.14
18.34
16.85
14.86
13.25
12.09
10.67
8.04
3.78
-1.69
-7.26
-11.78
-14.65
-16.15
-17.13
-18.47
-20.43
-22.58
-24.05
-24.15
-22.72
-20.23
-17.51
-15.39
-14.27
-14.09
-14.49
-14.95
-15.09
-14.76
-14.00
-12.99
-11.79
-10.42
-8.75
-6.66
-4.17
-1.47
1.05
3.13
4.67
5.78
6.70
7.57
8.30
8.57
8.08
6.75
4.95
3.27
2.34
2.48
3.62
5.35
7.13
8.43
8.94
8.48
7.15
5.24
3.25
1.69
1.02
1.37
2.56
4.18
5.84
7.37
8.91
10.66
12.54
14.19
14.90
13.92
10.82
5.82
-0.34
-6.66
-12.32
-16.91
-20.36
-22.82
-24.45
-25.24
-25.16
-24.40
-22.97
-21.09
-18.95
-16.61
-14.03
-11.18
-8.09
-5.04
-2.37
-0.47
0.43
0.36
-0.39
-1.30
-1.86
-1.71
-0.76
0.78
2.54
4.11
5.28
6.03
6.57
7.19
8.12
9.51
11.32
13.40
15.53
17.47
18.93
19.65
19.47
18.37
16.57
14.45
12.49
11.05
10.25
9.77
9.09
7.67
5.35
2.40
-0.53
-2.71
-3.93
-4.18
-3.90
-3.77
-4.36
-5.78
-7.68
-9.49
-10.71
-11.26
-11.39
-11.62
-12.32
-13.62
-15.32
-17.07
-18.61
-19.86
-20.87
-21.63
-22.04
-21.78
-20.51
-18.02
-14.43
-10.22
-6.15
-2.93
-0.88
0.08
0.45
0.86
1.76
3.22
4.98
6.59
7.70
8.22
8.32
8.26
8.28
8.44
8.66
8.78
8.68
8.35
7.91
7.49
7.15
6.84
6.34
5.42
3.94
1.98
-0.23
-2.35
-4.11
-5.50
-6.68
-7.93
-9.32
-10.65
-11.42
-11.07
-9.24
-6.04
-2.05
1.95
5.28
7.62
9.05
9.89
10.48
10.94
11.19
11.08
10.55
9.74
8.98
8.59
8.78
9.47
10.35
11.00
11.11
10.62
9.77
8.95
8.52
8.58
8.91
9.17
9.11
8.81
8.66
9.13
10.48
12.52
14.66
16.27
17.00
17.06
17.09
17.82
19.67
22.45
25.51
28.01
29.32
29.29
28.19
26.57
25.05
24.05
23.76
24.12
24.83
25.36
24.99
22.97
18.75
12.28
4.12
-4.68
-12.83
-19.22
-23.29
-25.26
-26.12
-27.30
-30.08
-35.06
-41.99
-49.68
-56.42
-60.53
-60.95
-57.57
-51.22
-43.23
-35.09
-28.19
-23.42
-20.87
-19.81
-18.93
-16.93
-13.09
-7.40
-0.45
6.86
13.91
20.63
27.21
33.60
39.20
41.84
39.90
33.71
25.84
19.88
18.36
21.92
29.44
38.90
48.21
55.87
61.86
65.83
67.51
66.78
63.76
58.88
52.71
45.78
38.64
31.54
24.16
16.13
7.18
-2.65
-12.86
-22.55
-30.83
-36.96
-40.74
-42.58
-43.09
-42.71
-41.60
-39.65
-36.78
-33.26
-29.61
-26.53
-24.64
-24.19
-25.07
-26.88
-29.17
-31.62
-34.09
-36.56
-38.87
-40.70
-41.52
-40.80
-38.39
-34.71
-30.65
-27.25
-25.15
-24.27
-23.79
-22.59
-19.84
-15.36
-9.76
-4.07
0.66
3.70
4.76
3.83
1.13
-2.99
-7.99
-13.06
-17.17
-19.15
-17.99
-13.18
-4.88
5.84
17.25
27.31
34.30
37.43
37.10
34.73
32.13
30.67
30.77
31.80
32.65
32.36
30.60
27.69
24.21
20.53
16.57
11.89
6.05
-1.02
-8.92
-16.88
-24.08
-29.91
-34.05
-36.50
-37.46
-37.29
-36.44
-35.36
-34.44
-33.92
-33.92
-34.38
-35.07
-35.54
-35.19
-33.42
-29.84
-24.51
-18.06
-11.47
-5.70
-1.20
2.25
5.38
8.99
13.49
18.61
23.53
27.33
29.36
29.50
28.14
25.83
23.06
20.01
16.63
12.73
8.21
3.12
-2.30
-7.65
-12.50
-16.40
-18.94
-19.83
-18.98
-16.68
-13.57
-10.50
-8.27
-7.34
-7.68
-8.80
-9.98
-10.53
-9.95
-8.10
-5.21
-1.81
1.39
3.82
5.22
5.78
6.09
6.88
8.66
11.46
14.79
17.79
19.56
19.49
17.46
13.84
9.35
4.86
1.09
-1.46
-2.63
-2.54
-1.52
0.04
1.71
3.11
3.92
3.98
3.32
2.15
0.88
-0.10
-0.48
-0.21
0.51
1.27
1.71
1.64
1.14
0.49
-0.06
-0.41
-0.66
-0.86
-0.93
-0.55
0.69
3.04
6.41
10.28
13.96
16.86
18.69
19.50
19.55
19.06
18.13
16.76
14.90
12.74
10.71
9.53
10.02
12.77
17.75
24.10
30.17
34.00
34.00
29.66
21.87
12.58
4.02
-2.19
-5.60
-6.91
-7.28
-7.74
-8.68
-9.93
-11.13
-12.10
-12.86
-13.44
-13.66
-13.14
-11.68
-9.54
-7.51
-6.59
-7.38
-9.68
-12.52
-14.70
-15.33
-14.25
-11.98
-9.29
-6.76
-4.42
-1.90
1.43
5.97
11.70
17.90
23.33
26.64
26.91
24.19
19.53
14.66
11.20
10.02
10.91
12.80
14.42
14.82
13.69
11.16
7.45
2.54
-3.76
-11.58
-20.57
-29.83
-38.07
-44.07
-47.11
-47.27
-45.29
-42.18
-38.78
-35.46
-32.06
-28.22
-23.63
-18.33
-12.68
-7.18
-2.31
1.69
4.71
6.79
7.94
8.16
7.45
5.80
3.30
0.12
-3.48
-7.19
-10.67
-13.78
-16.54
-19.26
-22.34
-26.12
-30.66
-35.67
-40.56
-44.69
-47.55
-48.86
-48.60
-46.89
-43.87
-39.61
-34.08
-27.19
-18.89
-9.38
0.87
11.02
20.12
27.35
32.20
34.58
34.71
33.00
29.93
25.98
21.63
17.44
13.93
11.50
10.38
10.54
11.76
13.66
15.81
17.76
19.09
19.51
18.90
17.37
15.15
12.57
9.89
7.23
4.60
1.94
-0.72
-3.24
-5.37
-6.82
-7.40
-7.16
-6.27
-4.99
-3.48
-1.72
0.36
2.79
5.45
8.00
9.99
11.08
11.18
10.42
9.10
7.58
6.09
4.76
3.63
2.72
2.04
1.60
1.35
1.19
1.00
0.70
0.35
0.10
0.15
0.62
1.47
2.54
3.51
4.10
4.07
3.30
1.82
-0.24
-2.54
-4.70
-6.32
-7.10
-6.92
-5.90
-4.28
-2.32
-0.19
2.02
4.27
6.43
8.30
9.60
10.12
9.78
8.70
7.11
5.24
3.29
1.36
-0.43
-1.92
-2.91
-3.23
-2.85
-1.94
-0.81
0.22
0.97
1.49
1.98
2.65
3.60
4.73
5.78
6.48
6.62
6.16
5.19
3.94
2.71
1.83
1.57
2.12
3.46
5.42
7.62
9.69
11.32
12.38
12.92
13.08
13.01
12.71
12.12
11.16
9.80
8.16
6.44
4.84
3.45
2.23
1.10
0.03
-0.90
-1.53
-1.72
-1.39
-0.56
0.74
2.39
4.25
6.10
7.62
8.50
8.58
7.96
7.07
6.49
6.58
7.35
8.41
9.21
9.42
9.17
9.15
10.53
14.43
21.41
31.30
43.25
55.91
67.66
76.80
81.94
82.78
80.06
75.38
70.62
67.19
65.43
64.47
62.72
58.77
52.71
45.69
39.19
34.08
30.23
26.87
23.11
18.62
13.75
9.87
8.00
8.19
9.49
10.72
11.20
10.83
9.52
2.93
-11.57
-33.42
-58.19
-80.07
-95.07
-102.25
-103.15
-100.36
-95.98
-90.27
-82.60
-72.64
-61.22
-50.14
-41.13
-35.04
-31.58
-29.74
-28.06
-25.64
-22.40
-18.89
-15.72
-13.16
-11.25
-9.95
-9.21
-8.87
-8.69
-8.47
-8.05
-7.37
-6.43
-5.48
-4.90
-4.97
-5.61
-6.53
-7.29
-7.54
-7.16
-6.36
-5.70
-5.73
-6.68
-8.39
-10.65
-13.08
-15.33
-17.03
-17.18
-15.51
-12.29
-8.20
-4.36
-2.55
-3.75
-8.14
-14.94
-22.65
-29.72
-35.07
-38.09
-36.61
-29.87
-18.68
-5.29
7.72
18.47
26.15
30.97
34.10
36.72
39.01
40.37
39.74
36.48
30.97
25.16
19.86
15.64
12.20
7.90
2.03
-5.23
-12.29
-16.85
-17.15
-13.00
-5.65
2.76
10.02
15.02
17.66
18.54
18.31
17.24
15.19
12.18
8.50
4.63
1.26
-1.16
-2.43
-2.65
-2.21
-1.64
-1.28
-1.29
-1.56
-1.79
-1.74
-1.38
-0.97
-0.90
-1.50
-2.73
-4.20
-5.42
-5.98
-6.01
-5.97
-6.43
-7.45
-8.39
-8.07
-5.41
0.07
7.86
16.37
23.40
26.80
25.53
20.04
11.85
2.78
-5.87
-12.88
-17.73
-20.62
-22.40
-23.61
-24.30
-24.36
-23.99
-23.81
-24.52
-26.61
-29.93
-33.95
-37.42
-38.90
-37.48
-33.14
-26.30
-17.35
-6.49
7.69
23.46
36.61
43.38
42.77
36.43
27.37
18.73
12.70
9.90
9.20
8.93
7.71
4.87
0.61
-3.98
-7.22
-7.75
-5.28
-1.09
2.88
5.00
4.61
2.22
-0.85
-3.28
-4.41
-4.49
-4.39
-4.51
-4.35
-2.86
0.68
5.99
11.67
15.73
16.45
13.18
6.68
-1.28
-8.66
-14.03
-16.81
-17.27
-16.17
-14.48
-13.07
-12.46
-12.67
-13.31
-13.70
-13.25
-11.75
-9.05
-5.37
-0.99
3.84
8.79
13.22
16.08
16.24
13.14
7.35
0.65
-4.59
-6.52
-4.69
-0.28
4.46
7.43
7.63
5.43
2.14
-0.87
-2.84
-3.77
-4.10
-4.19
-4.06
-3.40
-2.04
-0.22
1.44
2.17
1.50
-0.44
-2.88
-4.72
-5.04
-3.50
-0.58
2.61
4.80
5.05
3.19
-0.09
-3.62
-6.26
-7.39
-7.20
-6.39
-5.80
-5.89
-6.55
-7.38
-7.90
-7.83
-7.31
-6.74
-6.54
-6.89
-7.57
-8.14
-8.12
-7.20
-5.44
-3.27
-1.39
-0.57
-1.43
-4.24
-8.82
-14.51
-20.40
-25.56
-29.36
-31.58
-32.28
-31.60
-29.55
-25.93
-20.56
-13.43
-4.94
4.14
12.89
20.47
26.37
30.32
32.25
32.09
29.89
25.87
20.58
14.82
9.46
5.18
2.31
0.87
0.57
0.96
1.40
1.08
-0.91
-5.28
-12.26
-21.41
-31.67
-41.62
-49.90
-55.49
-57.96
-57.42
-54.45
-49.93
-44.72
-39.43
-34.09
-28.22
-21.03
-11.84
-0.50
12.47
26.05
38.95
49.91
57.84
61.99
62.17
59.08
54.35
50.15
48.40
49.96
54.24
59.60
64.28
67.21
68.45
68.81
69.12
69.66
70.07
69.78
68.52
66.36
63.51
59.89
55.03
48.34
39.66
29.55
19.34
10.54
4.13
0.05
-2.84
-6.23
-11.57
-19.36
-28.86
-38.38
-46.06
-50.65
-52.04
-51.16
-49.44
-48.06
-47.43
-47.23
-46.82
-45.79
-44.22
-42.53
-41.08
-39.84
-38.32
-35.97
-32.49
-28.17
-23.79
-20.22
-18.06
-17.36
-17.67
-18.37
-18.95
-19.23
-19.40
-19.88
-21.12
-23.45
-27.00
-31.66
-37.01
-42.26
-46.39
-48.25
-46.93
-41.97
-33.44
-22.04
-9.01
4.09
15.67
24.49
29.85
31.75
30.81
28.19
25.05
22.29
20.27
18.98
18.18
17.63
17.16
16.64
16.40
16.70
17.58
18.79
20.01
21.11
22.12
23.09
23.81
24.62
25.54
26.15
25.71
23.57
19.66
14.49
9.06
4.69
4.23
10.15
23.25
41.94
62.64
81.12
93.99
99.63
98.49
94.58
92.17
94.11
100.95
111.70
125.16
140.48
156.96
163.19
150.66
117.22
69.58
18.86
-25.53
-58.30
-78.14
-85.98
-86.54
-82.29
-75.06
-66.30
-57.29
-48.92
-41.35
-35.09
-30.27
-27.57
-26.39
-26.42
-27.55
-30.06
-34.32
-40.30
-47.66
-55.57
-63.52
-68.52
-68.32
-62.78
-53.95
-44.73
-36.97
-32.43
-30.44
-30.23
-30.67
-31.24
-31.90
-31.88
-31.10
-29.69
-28.00
-26.34
-25.22
-24.76
-24.91
-25.40
-25.80
-25.86
-25.47
-24.75
-23.81
-22.93
-22.18
-21.54
-20.85
-19.79
-18.19
-15.95
-13.15
-9.94
-6.61
-3.35
-0.34
2.37
4.84
7.05
8.99
10.59
11.85
12.80
13.51
14.04
14.42
14.55
14.20
13.20
11.49
9.23
6.76
4.51
2.85
1.91
1.60
1.63
1.73
1.79
1.83
2.00
2.39
2.88
3.18
2.93
1.90
0.12
-2.13
-4.41
-6.41
-8.01
-9.33
-10.60
-11.92
-13.27
-14.45
-15.28
-15.70
-15.87
-16.08
-16.61
-17.55
-18.74
-19.86
-20.55
-20.66
-20.27
-19.68
-19.22
-19.11
-19.38
-19.88
-20.41
-20.83
-21.07
-21.18
-21.18
-21.05
-20.69
-19.96
-18.75
-17.05
-15.01
-12.90
-11.08
-9.81
-9.18
-9.10
-9.39
-9.83
-10.38
-11.07
-11.96
-12.96
-13.76
-13.96
-13.15
-11.17
-8.14
-4.40
-0.37
3.61
7.40
10.98
14.36
17.53
20.36
22.70
24.37
25.34
25.65
25.45
24.85
23.91
22.58
20.74
18.32
15.38
12.16
9.04
6.43
4.60
3.63
3.36
3.55
4.01
4.66
5.51
6.61
7.97
9.45
10.86
12.00
12.81
13.34
13.74
14.15
14.62
15.12
15.54
15.86
16.16
16.63
17.48
18.75
20.24
21.54
22.19
21.93
20.94
19.79
19.24
19.89
21.91
24.89
28.10
30.79
32.64
33.80
34.75
36.06
38.18
41.46
46.25
52.82
61.05
70.09
78.26
83.53
84.31
80.27
72.58
63.36
54.67
47.53
41.82
36.64
31.12
25.01
18.74
13.11
8.77
6.00
4.70
4.68
5.75
7.64
9.97
12.28
14.14
15.29
15.68
15.31
14.25
12.45
9.62
5.31
-0.84
-8.95
-18.84
-30.10
-42.26
-54.70
-66.56
-76.85
-84.52
-88.88
-90.08
-89.60
-89.21
-91.12
-96.09
-101.90
-104.12
-98.72
-84.49
-63.66
-40.67
-19.93
-4.05
6.89
14.33
19.67
23.20
24.31
22.43
17.84
11.92
6.46
3.02
2.30
3.89
6.60
9.02
10.06
9.29
7.07
4.34
2.27
1.75
2.90
4.91
6.67
7.06
5.82
3.60
1.53
0.66
1.32
2.88
4.17
4.13
2.44
-0.32
-3.03
-4.65
-4.77
-3.79
-2.62
-2.15
-2.66
-3.73
-4.57
-4.44
-3.13
-1.08
0.89
2.03
2.08
1.43
0.77
0.72
1.53
2.86
4.03
4.59
4.20
2.98
1.48
0.38
0.08
0.45
0.95
0.93
0.12
-1.21
-2.29
-2.30
-0.89
1.55
4.07
5.63
5.71
4.54
2.93
1.83
1.80
2.65
3.63
3.83
2.82
0.81
-1.43
-3.03
-3.46
-2.87
-2.00
-1.74
-2.61
-4.45
-6.53
-7.93
-8.14
-7.36
-6.40
-6.24
-7.41
-9.71
-12.24
-13.96
-14.27
-13.34
-12.08
-11.53
-12.29
-14.13
-16.10
-17.00
-16.03
-13.24
-9.45
-5.83
-3.25
-1.90
-1.25
-0.47
1.09
3.41
5.74
7.07
6.68
4.62
1.53
-1.64
-4.14
-5.82
-7.06
-8.67
-11.10
-14.28
-17.56
-20.20
-21.74
-22.26
-22.25
-22.13
-21.99
-21.10
-18.40
-12.96
-4.96
4.18
12.21
16.93
18.41
17.25
15.45
14.20
14.61
16.49
19.56
22.77
25.03
25.67
24.22
20.59
15.09
8.44
1.40
-5.59
-12.25
-18.34
-23.31
-26.78
-28.45
-28.34
-26.69
-24.07
-22.14
-20.84
-20.23
-20.27
-20.95
-21.89
-22.56
-22.34
-20.94
-18.40
-14.94
-11.12
-6.84
-2.55
1.36
4.59
7.01
8.71
10.13
12.28
16.27
23.10
33.00
45.27
58.17
69.34
76.57
78.57
75.41
68.22
58.70
48.41
38.42
29.28
21.23
14.51
9.44
6.31
4.96
4.73
4.55
3.42
0.78
-3.31
-8.24
-13.22
-17.63
-21.23
-24.14
-26.63
-28.86
-30.79
-32.14
-32.61
-32.00
-30.31
-27.82
-24.93
-22.05
-19.53
-17.56
-16.19
-15.40
-15.10
-15.11
-15.24
-15.26
-14.99
-14.30
-13.13
-11.43
-9.19
-6.34
-2.89
1.11
5.44
9.74
13.65
16.83
19.16
20.72
21.75
22.52
23.19
23.69
23.82
23.31
22.03
20.13
17.90
15.69
13.70
11.87
9.98
7.79
5.21
2.39
-0.40
-2.87
-4.91
-6.56
-7.91
-9.02
-9.87
-10.40
-10.65
-10.82
-11.16
-11.80
-12.59
-13.13
-12.87
-11.45
-8.82
-5.31
-1.46
2.19
5.33
7.85
9.84
11.42
12.63
13.44
13.79
13.66
13.12
12.35
11.59
11.04
10.80
10.77
10.72
10.41
9.70
8.65
7.45
6.32
5.34
4.44
3.45
2.15
0.49
-1.44
-3.35
-4.92
-5.91
-6.26
-6.17
-6.04
-6.29
-7.22
-8.79
-10.62
-12.11
-12.67
-11.99
-10.13
-7.50
-4.67
-2.09
0.00
1.64
3.01
4.26
5.46
6.51
7.26
7.63
7.61
7.30
6.83
6.28
5.66
4.96
4.15
3.28
2.42
1.64
0.99
0.46
-0.05
-0.65
-1.46
-2.57
-3.93
-5.43
-6.90
-8.20
-9.35
-10.53
-11.96
-13.75
-15.75
-17.56
-18.64
-18.59
-17.30
-15.00
-12.09
-9.00
-5.98
-3.16
-0.57
1.73
3.60
4.91
5.57
5.65
5.36
4.98
4.74
4.79
5.08
5.44
5.66
5.55
5.12
4.50
3.90
3.45
3.10
2.63
1.76
0.36
-1.41
-3.19
-4.60
-5.45
-5.90
-6.37
-7.35
-9.05
-11.31
-13.65
-15.50
-16.45
-16.43
-15.68
-14.53
-13.27
-11.94
-10.41
-8.52
-6.22
-3.64
-1.06
1.26
3.15
4.67
5.93
7.08
8.18
9.17
9.93
10.30
10.19
9.61
8.67
7.57
6.51
5.62
4.91
4.28
3.58
2.74
1.80
0.89
0.13
-0.45
-0.96
-1.58
-2.45
-3.62
-5.03
-6.54
-7.96
-9.13
-9.89
-10.12
-9.74
-8.75
-7.23
-5.27
-2.99
-0.49
2.09
4.60
6.88
8.78
10.20
11.15
11.71
11.95
11.94
11.72
11.35
10.87
10.35
9.83
9.25
8.46
7.27
5.58
3.48
1.23
-0.81
-2.29
-3.11
-3.40
-3.49
-3.74
-4.37
-5.40
-6.71
-8.14
-9.64
-11.28
-13.12
-15.11
-16.95
-18.21
-18.44
-17.40
-15.16
-12.05
-8.53
-5.01
-1.73
1.19
3.76
5.93
7.67
8.92
9.68
10.03
10.12
10.13
10.19
10.33
10.44
10.34
9.80
8.75
7.24
5.50
3.87
2.58
1.71
1.08
0.38
-0.67
-2.21
-4.12
-6.13
-7.99
-9.56
-10.91
-12.19
-13.54
-14.91
-16.12
-16.85
-16.86
-16.05
-14.47
-12.30
-9.74
-6.98
-4.16
-1.39
1.23
3.62
5.72
7.48
8.91
10.02
10.85
11.41
11.71
11.71
11.37
10.67
9.65
8.46
7.29
6.30
5.56
4.90
4.10
2.90
1.20
-0.90
-3.17
-5.31
-7.10
-8.49
-9.62
-10.69
-11.93
-13.41
-15.01
-16.48
-17.53
-17.96
-17.76
-17.02
-15.87
-14.36
-12.42
-9.94
-6.95
-3.64
-0.36
2.52
4.77
6.37
7.44
8.07
8.30
8.11
7.53
6.70
5.86
5.25
4.97
4.97
5.00
4.79
4.19
3.25
2.19
1.30
0.80
0.79
1.11
1.43
1.38
0.80
-0.19
-1.28
-2.11
-2.47
-2.34
-1.96
-1.72
-1.87
-2.20
-2.19
-1.30
0.73
3.64
6.94
10.15
12.72
14.39
15.33
15.83
15.95
15.52
14.27
12.29
9.86
6.53
1.54
-5.72
-14.93
-24.88
-33.61
-39.31
-40.90
-38.77
-35.51
-34.22
-36.76
-42.90
-51.07
-59.14
-65.20
-67.32
-60.04
-40.60
-11.50
19.98
45.96
60.99
65.18
60.71
50.91
39.75
30.04
23.35
19.93
20.09
23.25
27.23
29.44
28.71
26.10
23.10
20.66
19.05
18.22
17.89
17.94
18.19
18.48
18.34
16.49
11.65
3.46
-6.62
-17.09
-25.76
-30.72
-30.89
-26.51
-19.21
-11.32
-4.80
-0.83
0.14
-1.55
-5.14
-9.57
-13.76
-16.80
-18.66
-18.88
-17.28
-14.17
-10.15
-6.01
-2.43
0.28
2.12
3.38
4.47
5.66
6.97
8.31
9.53
10.53
11.31
11.92
12.40
12.84
13.17
13.25
13.00
12.41
11.56
10.65
9.84
9.25
8.87
8.51
7.85
6.67
4.93
2.81
0.66
-1.18
-2.55
-3.52
-4.35
-5.30
-6.44
-7.62
-8.54
-8.95
-8.80
-8.27
-7.67
-7.26
-7.09
-6.96
-6.55
-5.52
-3.76
-1.42
1.11
3.40
5.14
6.23
6.84
7.23
7.64
8.14
8.66
9.02
9.12
8.95
8.62
8.29
8.01
7.74
7.32
6.66
5.77
4.79
3.94
3.37
3.08
2.89
2.54
1.82
0.65
-0.83
-2.41
-3.86
-5.09
-6.10
-6.92
-7.53
-7.78
-7.45
-6.37
-4.50
-2.05
0.62
3.05
4.96
6.27
7.13
7.83
8.54
9.25
9.76
9.82
9.31
8.37
7.35
6.68
6.59
7.02
7.62
7.98
7.85
7.25
6.50
5.94
5.77
5.87
5.87
5.39
4.28
2.68
0.99
-0.45
-1.44
-2.11
-2.74
-3.68
-4.97
-6.29
-7.07
-6.78
-5.22
-2.63
0.42
3.25
5.37
6.73
7.75
8.98
10.72
12.82
14.78
16.09
16.51
16.01
15.05
14.37
14.62
15.88
17.62
19.18
20.16
20.50
20.05
18.95
17.75
17.09
17.33
18.36
20.14
22.66
25.70
28.18
29.29
29.10
28.28
27.15
25.31
22.27
17.65
10.93
0.81
-13.43
-31.02
-50.04
-68.44
-84.34
-95.47
-99.73
-91.72
-71.24
-45.16
-22.95
-11.41
-9.79
-16.17
-28.30
-43.11
-57.67
-70.23
-79.39
-83.48
-77.92
-61.84
-39.17
-15.61
4.80
20.28
30.16
34.97
37.33
39.01
40.74
42.25
43.27
43.93
44.11
43.56
41.18
37.60
33.98
31.70
31.75
33.52
35.97
36.79
33.53
25.10
13.63
0.12
-14.46
-29.41
-44.52
-58.51
-70.27
-78.81
-83.14
-82.48
-76.97
-67.32
-54.79
-40.90
-26.98
-14.27
-3.21
6.43
15.10
22.77
29.13
33.70
35.94
35.63
32.89
28.69
24.33
20.82
18.22
16.24
14.63
13.26
12.13
11.19
10.94
12.06
15.10
20.20
27.58
37.77
51.48
69.07
85.89
96.04
95.46
84.33
65.51
42.73
19.73
-0.20
-15.23
-25.28
-31.20
-34.03
-34.47
-32.67
-28.43
-21.58
-12.59
-3.30
4.75
10.48
13.73
15.12
15.55
15.83
16.56
17.86
19.24
19.98
19.54
17.73
14.57
10.24
5.09
-0.31
-4.04
-4.81
-2.07
3.53
9.81
13.11
9.35
-4.52
-28.95
-61.07
-95.47
-125.48
-145.35
-152.00
-145.68
-129.37
-107.26
-83.08
-59.20
-36.78
-16.30
1.51
15.34
23.64
25.42
20.96
11.96
1.05
-9.25
-17.19
-22.23
-24.83
-25.86
-25.97
-25.18
-22.94
-18.51
-11.67
-3.04
6.05
13.86
18.84
20.12
17.70
12.29
4.85
-3.74
-12.68
-20.75
-26.62
-29.02
-27.08
-20.71
-10.82
0.74
11.61
19.69
24.43
26.32
26.54
26.40
26.92
28.43
30.37
31.60
30.87
28.50
25.50
23.09
22.33
23.83
27.59
32.82
38.30
42.94
47.63
53.67
61.78
71.62
82.23
93.06
104.62
118.78
129.42
132.71
127.39
113.61
91.18
60.80
26.26
-6.14
-30.65
-45.35
-51.75
-54.38
-58.61
-65.82
-73.94
-78.92
-77.52
-69.26
-56.80
-43.25
-31.21
-21.81
-14.78
-9.07
-3.11
3.14
8.43
10.90
9.96
6.31
1.64
-2.64
-5.49
-6.37
-5.64
-4.48
-4.26
-5.36
-7.15
-8.66
-10.11
-12.21
-15.46
-19.93
-25.49
-31.69
-37.67
-42.60
-46.26
-50.39
-56.75
-65.79
-76.63
-87.85
-97.87
-104.79
-106.45
-93.66
-63.65
-23.14
16.00
45.09
61.83
68.53
69.22
67.33
64.50
59.50
51.06
39.80
28.22
19.08
13.92
12.65
13.86
15.69
15.73
12.92
8.06
3.13
-0.16
-1.21
-0.41
1.27
2.74
2.67
0.58
-2.89
-6.37
-8.73
-9.59
-9.29
-8.48
-7.72
-7.57
-8.11
-9.10
-10.27
-11.64
-13.36
-15.44
-17.36
-18.24
-17.60
-15.03
-10.88
-5.96
-1.23
2.69
5.71
8.22
10.74
13.55
16.59
19.45
21.69
23.02
23.49
23.25
22.49
21.26
19.47
17.03
13.95
10.43
6.88
3.79
1.54
0.30
-0.06
0.10
0.35
0.28
-0.29
-1.36
-2.78
-4.36
-5.99
-7.66
-9.37
-11.01
-12.42
-13.31
-13.48
-12.89
-11.73
-10.34
-9.04
-7.96
-6.95
-5.85
-4.50
-2.94
-1.45
-0.50
-0.61
-2.02
-4.66
-8.06
-11.62
-14.70
-16.91
-18.14
-18.52
-18.28
-17.55
-16.34
-14.52
-12.00
-8.87
-5.43
-2.22
0.20
1.48
1.55
0.71
-0.60
-1.99
-3.32
-4.73
-6.48
-8.80
-11.69
-14.85
-17.75
-19.82
-20.68
-20.19
-18.40
-15.48
-11.55
-6.66
-0.84
5.76
12.82
19.87
26.48
32.38
37.56
42.10
46.07
49.30
51.40
51.97
50.83
48.24
44.87
41.54
38.87
36.98
35.45
33.57
30.72
26.67
21.60
15.93
10.01
3.97
-2.26
-8.87
-15.84
-22.92
-29.58
-35.25
-39.56
-42.45
-44.13
-44.95
-45.33
-45.63
-46.21
-47.22
-48.74
-50.63
-52.56
-53.96
-54.24
-53.05
-50.49
-47.10
-43.43
-40.02
-37.27
-35.30
-33.83
-32.29
-30.17
-27.09
-23.02
-17.50
-10.23
-1.27
8.98
19.97
31.16
41.94
51.95
60.90
69.79
79.57
90.59
102.27
113.61
123.70
131.78
137.66
141.27
143.97
146.91
150.46
154.11
157.18
159.24
159.73
158.22
145.46
116.79
74.28
26.09
-18.82
-54.74
-79.04
-94.57
-103.86
-108.90
-109.88
-107.24
-101.42
-94.16
-87.17
-81.34
-76.79
-72.77
-68.73
-63.68
-57.61
-51.69
-47.79
-47.26
-50.16
-55.44
-61.16
-65.39
-66.12
-62.48
-55.16
-46.10
-37.57
-31.33
-28.41
-28.84
-31.86
-35.72
-38.51
-38.64
-35.07
-27.39
-15.82
-0.77
15.60
30.32
41.44
48.58
52.34
53.36
51.90
48.21
43.00
37.62
33.91
33.32
36.61
42.31
48.14
51.80
51.86
48.04
41.11
32.61
24.09
16.46
9.71
3.42
-2.92
-9.27
-15.21
-20.31
-24.29
-27.23
-29.47
-31.55
-33.67
-35.73
-37.29
-37.95
-37.52
-36.05
-33.81
-31.15
-28.47
-25.95
-23.63
-21.50
-19.61
-18.05
-16.87
-16.07
-15.59
-15.35
-15.26
-15.17
-15.07
-15.03
-15.15
-15.33
-15.34
-14.88
-13.80
-12.02
-9.59
-6.60
-3.10
1.07
6.34
13.01
20.83
28.26
33.18
34.46
32.37
27.98
22.37
16.15
9.64
3.28
-2.03
-5.04
-4.52
-0.17
7.04
15.23
22.43
27.28
29.44
29.94
29.57
29.13
29.04
29.14
28.90
27.67
25.00
20.95
16.01
10.96
6.63
3.47
1.39
-0.02
-1.22
-2.45
-3.74
-5.03
-6.18
-7.15
-8.05
-9.07
-10.32
-11.74
-13.09
-14.04
-14.31
-13.90
-13.06
-12.27
-12.02
-12.51
-13.54
-14.46
-14.51
-13.19
-10.48
-6.94
-3.36
-0.45
1.42
2.38
2.84
3.22
3.73
4.28
4.60
4.46
3.83
2.93
2.11
1.62
1.52
1.61
1.65
1.42
0.96
0.53
0.48
0.98
1.95
3.05
3.89
4.26
4.09
3.57
2.98
2.49
2.03
1.37
0.32
-1.05
-2.50
-3.79
-4.77
-5.38
-5.71
-5.96
-6.29
-6.71
-6.92
-6.67
-6.14
-5.77
-6.01
-7.20
-9.45
-12.67
-16.55
-20.42
-23.85
-26.96
-30.09
-33.23
-35.90
-37.37
-37.09
-35.24
-32.40
-28.07
-23.50
-21.00
-21.88
-25.48
-29.61
-31.68
-29.56
-21.43
-7.88
10.90
33.24
56.51
77.48
93.00
100.94
96.99
81.37
58.02
32.56
9.66
-7.82
-19.44
-26.76
-32.12
-37.52
-43.08
-48.41
-51.47
-50.64
-44.85
-34.33
-20.76
-6.53
6.04
15.82
22.61
26.92
28.06
26.61
23.72
20.22
16.55
13.55
11.70
11.62
13.72
17.72
23.09
28.84
32.70
32.93
28.66
20.19
8.99
-3.00
-13.77
-21.23
-24.00
-22.01
-16.36
-8.88
-1.51
4.48
8.60
11.24
13.67
17.01
21.64
27.30
33.61
40.38
47.48
54.01
56.29
51.04
38.22
22.23
8.99
2.11
1.24
2.93
2.57
-2.47
-11.17
-20.40
-26.87
-28.99
-27.56
-25.19
-23.55
-25.54
-32.95
-44.72
-57.54
-67.70
-73.09
-74.08
-72.92
-72.56
-74.94
-79.23
-81.98
-78.98
-67.59
-48.36
-24.95
-2.23
15.45
26.21
31.06
32.71
33.51
34.50
35.57
36.61
39.04
43.97
52.47
64.47
78.28
91.14
100.66
105.84
105.62
102.15
96.13
86.85
72.99
54.25
32.11
9.70
-9.41
-22.82
-29.85
-32.05
-31.65
-30.54
-29.61
-29.22
-29.60
-31.16
-34.31
-38.82
-44.03
-48.43
-50.55
-48.56
-41.91
-31.89
-21.42
-14.27
-13.53
-20.44
-33.05
-47.33
-58.47
-63.12
-60.82
-53.89
-45.99
-40.29
-38.60
-41.17
-46.99
-53.88
-58.61
-57.06
-45.31
-21.65
11.64
48.18
79.60
98.84
103.29
95.34
80.69
65.22
52.45
42.91
35.36
28.69
22.99
19.21
18.04
18.71
19.40
18.24
14.28
8.36
2.53
-1.01
-1.05
2.20
7.21
11.99
14.87
15.13
13.05
9.65
6.15
3.49
2.09
1.77
2.02
2.18
1.83
0.90
-0.37
-1.59
-2.44
-2.70
-2.40
-1.70
-0.85
-0.21
-0.14
-0.87
-2.40
-4.35
-6.06
-6.88
-6.51
-5.23
-3.83
-3.15
-3.60
-4.91
-6.30
-6.95
-6.61
-5.86
-5.83
-7.66
-11.72
-17.40
-23.27
-27.69
-29.42
-28.05
-24.01
-18.21
-11.62
-5.00
1.25
6.95
11.90
15.75
17.96
17.96
15.34
10.09
2.75
-5.55
-13.48
-19.87
-24.08
-26.12
-26.48
-25.72
-24.33
-22.52
-20.38
-18.19
-16.49
-15.98
-17.18
-20.21
-23.93
-27.04
-28.32
-27.09
-23.62
-18.86
-13.91
-9.50
-5.72
-2.19
1.37
4.86
7.78
9.49
9.72
8.81
7.58
6.94
7.32
8.45
9.57
9.93
9.27
7.95
6.71
6.22
6.63
7.54
8.09
7.55
5.65
2.71
-0.61
-3.61
-5.93
-7.64
-9.17
-10.99
-13.36
-16.24
-19.32
-22.12
-24.18
-25.16
-24.82
-23.06
-19.94
-15.67
-10.64
-5.29
-0.01
5.00
9.65
13.93
17.76
20.96
23.34
24.88
25.77
26.34
26.83
27.24
27.38
27.08
26.44
25.86
25.84
26.59
27.78
28.58
28.04
25.61
21.46
16.39
11.41
7.25
3.99
1.18
-1.75
-5.05
-8.41
-11.12
-12.45
-12.12
-10.44
-8.14
-5.92
-4.12
-2.60
-0.94
1.15
3.57
5.81
7.21
7.38
6.40
4.85
3.50
2.94
3.28
4.16
4.96
5.21
4.81
4.08
3.53
3.51
3.99
4.54
4.58
3.76
2.14
0.20
-1.49
-2.55
-3.10
-3.64
-4.76
-6.74
-9.32
-11.82
-13.42
-13.61
-12.37
-10.24
-7.90
-5.89
-4.34
-3.00
-1.48
0.45
2.75
5.10
7.11
8.56
9.45
9.96
10.29
10.51
10.54
10.22
9.46
8.33
7.05
5.97
5.36
5.34
5.79
6.35
6.59
6.21
5.16
3.67
2.14
0.91
0.09
-0.51
-1.31
-2.68
-4.75
-7.32
-9.90
-11.94
-13.06
-13.22
-12.61
-11.54
-10.16
-8.50
-6.45
-4.03
-1.43
0.96
2.74
3.75
4.16
4.42
5.02
6.24
7.96
9.77
11.18
11.84
11.70
10.98
10.04
9.15
8.39
7.68
6.87
5.83
4.63
3.41
2.43
1.81
1.49
1.22
0.66
-0.49
-2.26
-4.47
-6.77
-8.78
-10.32
-11.40
-12.18
-12.74
-13.01
-12.74
-11.65
-9.61
-6.75
-3.50
-0.36
2.26
4.25
5.77
7.14
8.59
10.08
11.34
11.97
11.79
10.91
9.76
8.91
8.69
9.09
9.68
9.96
9.54
8.45
7.03
5.77
4.98
4.60
4.27
3.52
2.08
0.01
-2.30
-4.31
-5.75
-6.65
-7.45
-8.57
-10.17
-11.97
-13.33
-13.55
-12.36
-10.00
-7.17
-4.59
-2.64
-1.19
0.27
2.22
4.78
7.60
10.05
11.58
12.09
11.92
11.64
11.72
12.23
12.79
12.89
12.19
10.74
9.01
7.57
6.86
6.85
7.12
7.07
6.22
4.54
2.38
0.35
-1.07
-1.75
-2.03
-2.48
-3.58
-5.43
-7.73
-9.85
-11.30
-11.87
-11.82
-11.59
-11.51
-11.57
-11.39
-10.46
-8.41
-5.34
-1.73
1.75
4.56
6.52
7.80
8.74
9.62
10.46
11.10
11.26
10.83
9.90
8.75
7.72
7.02
6.65
6.41
5.99
5.20
4.07
2.83
1.80
1.22
1.09
1.11
0.86
0.04
-1.38
-3.13
-4.78
-6.05
-6.91
-7.69
-8.78
-10.37
-12.25
-13.90
-14.68
-14.20
-12.50
-10.02
-7.38
-5.00
-3.02
-1.22
0.72
2.94
5.27
7.25
8.38
8.39
7.43
5.95
4.60
3.85
3.80
4.18
4.48
4.29
3.52
2.45
1.54
1.16
1.34
1.73
1.83
1.29
0.15
-1.25
-2.40
-3.00
-3.09
-3.08
-3.45
-4.54
-6.32
-8.43
-10.39
-11.77
-12.34
-12.12
-11.27
-9.95
-8.19
-5.99
-3.30
-0.23
2.95
5.86
8.10
9.49
10.11
10.30
10.42
10.72
11.20
11.60
11.58
10.92
9.66
8.06
6.53
5.41
4.79
4.50
4.21
3.65
2.75
1.69
0.75
0.14
-0.20
-0.57
-1.36
-2.82
-4.84
-7.03
-8.93
-10.22
-10.91
-11.26
-11.64
-12.19
-12.76
-12.95
-12.35
-10.73
-8.20
-5.18
-2.14
0.52
2.64
4.25
5.53
6.61
7.54
8.26
8.62
8.56
8.15
7.60
7.18
7.04
7.16
7.33
7.25
6.77
5.93
4.93
4.03
3.38
2.89
2.33
1.45
0.20
-1.23
-2.53
-3.39
-3.74
-3.82
-4.15
-5.23
-7.26
-10.01
-12.83
-14.86
-15.47
-14.48
-12.24
-9.41
-6.63
-4.22
-2.10
0.02
2.40
4.98
7.38
9.14
9.98
10.06
9.86
9.98
10.77
12.18
13.79
15.07
15.77
15.99
16.12
16.58
17.58
18.96
20.36
21.42
22.06
22.43
22.84
23.52
24.39
25.09
25.18
24.35
22.60
20.22
17.51
14.50
10.88
6.11
-0.27
-8.27
-17.29
-26.30
-34.15
-39.94
-43.28
-44.34
-43.61
-41.73
-39.27
-36.60
-33.88
-31.13
-28.29
-25.30
-22.24
-19.26
-16.53
-14.24
-12.47
-11.16
-10.20
-9.41
-8.66
-7.89
-7.11
-6.38
-5.74
-5.18
-4.66
-4.18
-3.78
-3.59
-3.70
-4.16
-4.87
-5.62
-6.22
-6.59
-6.82
-7.02
-7.25
-7.37
-7.10
-6.14
-4.41
-2.11
0.33
2.47
4.07
5.20
6.16
7.22
8.45
9.59
10.24
10.11
9.22
7.93
6.79
6.24
6.37
6.92
7.43
7.51
7.04
6.22
5.36
4.72
4.35
4.07
3.60
2.70
1.37
-0.23
-1.82
-3.13
-4.12
-4.94
-5.92
-7.34
-9.21
-11.25
-12.89
-13.58
-13.01
-11.33
-9.03
-6.71
-4.72
-3.05
-1.42
0.47
2.63
4.72
6.21
6.71
6.19
5.05
3.91
3.32
3.49
4.21
5.02
5.43
5.20
4.41
3.38
2.53
2.10
2.08
2.21
2.14
1.64
0.73
-0.38
-1.39
-2.14
-2.72
-3.41
-4.48
-6.01
-7.75
-9.28
-10.15
-10.16
-9.40
-8.22
-6.97
-5.81
-4.66
-3.28
-1.45
0.82
3.25
5.36
6.75
7.24
6.97
6.31
5.69
5.34
5.23
5.13
4.83
4.25
3.58
3.10
3.06
3.49
4.13
4.63
4.68
4.24
3.46
2.64
2.01
1.59
1.23
0.69
-0.20
-1.46
-2.94
-4.36
-5.50
-6.30
-6.86
-7.35
-7.80
-8.06
-7.87
-6.88
-4.93
-2.10
1.16
4.30
6.90
8.79
10.08
10.99
11.72
12.38
12.96
13.26
13.19
12.86
12.56
12.66
13.17
13.85
14.44
14.58
13.92
12.49
10.86
9.83
10.09
11.47
13.29
14.86
15.56
14.99
13.35
11.48
10.26
10.30
10.97
11.32
10.69
8.59
4.50
-1.67
-9.36
-17.70
-25.50
-32.64
-39.43
-46.47
-50.96
-51.30
-48.72
-45.61
-45.90
-46.94
-46.60
-44.44
-38.76
-30.55
-22.25
-16.15
-13.36
-13.69
-15.73
-18.55
-21.25
-22.95
-23.42
-23.01
-22.21
-21.30
-20.32
-18.87
-17.01
-14.68
-11.75
-8.51
-5.69
-3.94
-3.40
-3.54
-3.30
-2.15
-0.10
2.20
3.59
3.00
0.19
-4.12
-8.58
-11.82
-13.23
-12.89
-11.31
-9.16
-6.87
-4.51
-1.90
1.22
5.08
9.71
15.08
21.02
27.28
33.46
39.06
43.58
46.51
47.46
46.15
42.51
36.80
29.67
22.04
14.90
8.99
4.54
1.26
-1.51
-4.37
-7.57
-10.94
-14.02
-16.29
-17.45
-17.44
-16.38
-14.37
-11.45
-7.64
-3.00
2.18
7.44
12.21
15.97
18.45
19.68
19.95
19.74
19.50
19.50
19.74
20.00
19.99
19.54
18.75
17.92
17.43
17.42
17.70
17.78
17.12
15.43
12.85
9.86
7.08
4.96
3.59
2.70
1.89
0.84
-0.54
-2.12
-3.68
-5.07
-6.26
-7.34
-8.33
-9.11
-9.43
-9.00
-7.65
-5.44
-2.73
-0.00
2.29
3.90
4.79
5.10
5.02
4.66
4.10
3.38
2.63
2.08
1.99
2.53
3.67
5.09
6.30
6.80
6.34
4.96
2.97
0.76
-1.42
-3.56
-5.81
-8.34
-11.01
-13.43
-15.05
-15.44
-14.62
-13.01
-11.36
-10.30
-10.12
-10.61
-11.21
-11.33
-10.60
-9.03
-6.96
-4.83
-2.89
-1.11
0.80
3.12
5.88
8.72
10.98
12.06
11.70
10.23
8.40
7.00
6.47
6.69
7.10
7.08
6.31
4.98
3.62
2.79
2.71
3.13
3.51
3.28
2.20
0.46
-1.52
-3.37
-4.96
-6.53
-8.41
-10.79
-13.46
-15.87
-17.38
-17.53
-16.29
-14.04
-11.33
-8.62
-6.10
-3.67
-1.15
1.61
4.55
7.40
9.80
11.46
12.31
12.48
12.28
12.04
12.00
12.18
12.43
12.52
12.27
11.72
11.08
10.65
10.71
11.33
12.47
14.01
15.65
16.89
16.87
14.56
9.13
0.57
-9.95
-20.29
-27.93
-30.97
-28.81
-22.30
-13.35
-4.16
3.49
8.67
11.36
12.21
12.11
11.84
11.83
12.10
12.42
12.64
13.07
14.34
17.12
21.48
26.70
31.57
34.92
36.15
35.48
33.75
31.95
30.68
29.92
29.19
28.18
26.84
25.36
23.96
22.82
22.13
21.90
21.98
22.03
22.11
22.39
22.94
23.56
23.88
23.45
21.81
18.53
13.20
6.19
-1.72
-9.65
-16.60
-21.17
-21.74
-16.95
-6.57
4.88
12.96
15.87
15.58
14.96
14.81
13.35
7.80
-3.42
-19.33
-36.15
-49.48
-56.81
-58.74
-58.02
-57.60
-58.85
-61.25
-63.35
-63.63
-61.59
-57.82
-53.83
-50.24
-47.15
-44.19
-40.95
-37.30
-33.22
-28.75
-23.98
-19.06
-14.16
-9.48
-4.87
-0.02
5.34
11.22
16.92
21.69
25.14
27.22
28.14
28.58
28.96
29.65
29.71
28.37
25.66
22.77
21.22
21.87
24.74
28.68
31.75
32.10
29.04
21.69
11.74
2.28
-6.03
-13.73
-21.43
-29.36
-37.24
-44.17
-49.18
-51.48
-51.20
-49.35
-46.92
-44.56
-42.44
-40.24
-37.39
-33.43
-28.16
-22.10
-16.25
-11.29
-7.43
-4.39
-1.67
1.20
4.35
7.60
10.46
12.34
13.13
13.11
12.83
12.76
13.12
13.76
14.39
14.65
14.32
13.51
12.53
11.67
11.04
10.51
9.85
8.87
7.53
5.95
4.36
2.97
1.81
0.77
-0.26
-1.31
-2.21
-2.67
-2.42
-1.33
0.46
2.59
4.61
6.19
7.22
7.85
8.33
8.87
9.52
10.09
10.29
9.90
8.92
7.56
6.19
5.18
4.72
4.80
5.20
5.65
5.92
5.97
5.83
5.63
5.45
5.30
5.13
4.80
4.20
3.31
2.20
0.94
-0.44
-1.94
-3.53
-5.08
-6.31
-6.93
-6.72
-5.61
-3.82
-1.80
-0.02
1.26
2.17
3.03
4.33
6.44
9.45
12.91
15.80
16.87
15.31
11.19
5.61
0.38
-2.69
-2.52
0.67
5.21
8.61
8.97
6.15
1.44
-3.93
-9.83
-17.04
-26.15
-36.66
-46.81
-54.23
-57.24
-55.89
-51.83
-47.25
-43.51
-40.41
-36.51
-30.14
-20.24
-7.07
7.95
23.01
36.73
48.46
58.03
65.87
70.90
71.89
67.76
58.27
44.32
27.89
11.44
-2.85
-13.54
-20.25
-23.10
-22.53
-18.76
-11.72
-1.28
12.00
26.02
37.69
43.59
41.55
31.51
15.94
-1.16
-15.87
-25.99
-31.52
-34.02
-35.75
-37.40
-38.73
-39.14
-38.34
-36.72
-34.92
-33.15
-30.68
-26.24
-18.68
-8.06
4.14
15.51
23.66
27.24
26.30
22.16
16.62
11.31
7.12
4.35
2.92
2.63
3.32
4.79
6.71
8.57
9.89
10.26
9.58
8.13
6.49
5.37
5.29
6.43
8.51
10.91
12.80
13.45
12.45
9.83
6.10
1.91
-2.06
-5.42
-8.10
-10.29
-12.21
-13.89
-15.16
-15.70
-15.33
-14.20
-12.78
-11.77
-11.69
-12.72
-14.49
-16.35
-17.61
-17.85
-17.09
-15.71
-14.22
-12.98
-12.00
-10.96
-9.40
-6.98
-3.69
0.07
3.69
6.62
8.60
9.68
10.15
10.20
9.81
8.72
6.62
3.42
-0.58
-4.74
-8.22
-10.37
-10.88
-9.85
-7.63
-4.63
-1.13
2.67
6.69
10.73
14.48
17.57
19.63
20.54
20.50
19.92
19.34
19.13
19.45
20.14
20.87
21.28
21.13
20.33
18.93
17.05
14.78
12.18
9.32
6.40
3.71
1.58
0.23
-0.36
-0.56
-0.99
-2.26
-4.68
-8.11
-11.95
-15.43
-17.98
-19.43
-20.08
-20.46
-20.96
-21.63
-22.14
-21.98
-20.86
-18.88
-16.52
-14.47
-13.22
-12.91
-13.33
-14.10
-14.87
-15.54
-16.23
-17.12
-18.29
-19.65
-20.93
-21.84
-22.18
-21.89
-20.92
-19.22
-16.57
-12.71
-7.43
-0.80
6.77
14.51
21.55
27.13
30.84
32.76
33.24
32.82
31.87
30.52
28.66
26.10
22.83
19.16
15.66
12.92
11.29
10.71
10.76
10.88
10.69
10.09
9.29
8.60
8.14
7.80
7.20
5.90
3.61
0.35
-3.54
-7.48
-10.91
-13.47
-15.10
-15.81
-15.59
-14.29
-11.72
-7.83
-2.90
2.31
6.67
9.19
9.54
8.19
6.29
5.09
5.39
7.36
10.48
13.90
16.94
19.43
21.62
23.78
25.89
27.45
28.01
27.24
25.09
21.78
17.60
12.64
6.70
-0.45
-9.26
-18.27
-24.52
-25.46
-21.04
-13.73
-6.82
-2.68
-1.25
-1.19
-0.58
1.81
6.10
11.22
15.58
17.44
15.60
10.10
2.31
-5.75
-12.60
-17.81
-21.99
-25.90
-29.83
-33.45
-36.05
-37.04
-36.19
-34.64
-32.81
-31.15
-29.87
-28.75
-27.27
-25.00
-21.77
-17.80
-13.66
-9.92
-7.19
-5.75
-5.50
-5.79
-6.15
-6.31
-6.32
-6.53
-7.21
-8.57
-10.40
-12.12
-13.02
-12.59
-10.71
-7.74
-4.29
-0.95
1.84
3.89
5.25
6.02
6.37
6.56
6.94
7.87
9.72
12.57
16.25
20.31
24.14
27.08
28.61
28.38
26.31
22.63
17.84
12.68
7.93
4.24
1.97
1.09
1.29
2.08
3.02
3.78
4.19
4.20
3.85
3.23
2.41
1.48
0.55
-0.31
-1.03
-1.60
-2.05
-2.35
-2.53
-2.65
-2.86
-3.36
-4.40
-6.16
-8.67
-11.74
-14.93
-17.77
-19.90
-21.25
-21.93
-22.16
-22.05
-21.60
-20.66
-18.97
-16.46
-13.38
-10.22
-7.38
-4.94
-2.62
-0.11
2.87
6.53
10.62
14.44
17.13
18.04
17.17
14.95
11.93
8.71
6.32
5.47
6.35
8.42
10.69
12.19
12.15
10.10
6.57
3.56
3.31
7.30
15.57
26.76
39.08
50.82
60.72
64.60
60.24
48.53
33.15
17.87
4.51
-6.64
-14.10
-18.98
-21.90
-22.61
-21.04
-17.62
-12.99
-8.86
-5.50
-2.50
0.34
3.20
6.28
9.49
12.44
14.68
15.91
16.38
16.36
15.75
14.56
13.04
11.50
10.20
9.23
8.56
8.16
7.87
7.22
5.92
4.09
2.06
0.28
-0.97
-1.67
-1.96
-2.20
-2.80
-3.91
-5.35
-6.81
-7.99
-8.81
-9.41
-9.95
-10.55
-11.23
-11.82
-12.09
-11.85
-11.05
-9.79
-8.23
-6.56
-4.89
-3.28
-1.73
-0.26
1.07
2.11
2.71
2.80
2.36
1.51
0.42
-0.80
-2.02
-3.23
-4.38
-5.40
-6.19
-6.62
-6.62
-6.21
-5.56
-4.94
-4.58
-4.61
-4.97
-5.47
-5.87
-6.01
-5.91
-5.67
-5.46
-5.44
-5.64
-6.05
-6.64
-7.35
-8.14
-8.88
-9.41
-9.52
-9.02
-7.85
-6.15
-4.18
-2.26
-0.66
0.56
1.44
2.15
2.79
3.38
3.86
4.11
4.08
3.78
3.31
2.81
2.42
2.23
2.30
2.63
3.17
3.81
4.43
4.88
5.08
4.96
4.57
4.00
3.33
2.66
2.00
1.38
0.83
0.42
0.28
0.45
0.93
1.56
2.16
2.61
2.92
3.27
3.89
4.94
6.43
8.18
9.89
11.32
12.31
12.85
13.01
12.91
12.66
12.37
12.15
12.07
12.17
12.44
12.75
12.83
12.34
10.89
8.37
4.97
1.31
-1.78
-3.59
-3.86
-2.85
-1.27
0.17
1.02
1.30
1.30
1.30
1.25
0.79
-0.61
-3.32
-7.29
-12.06
-16.80
-20.63
-22.79
-22.93
-21.06
-17.58
-13.10
-8.22
-3.33
1.38
5.87
10.09
13.79
16.57
17.92
17.38
14.73
10.02
3.64
-3.78
-11.50
-18.82
-25.14
-30.07
-33.34
-34.79
-34.26
-31.62
-26.85
-20.20
-12.35
-4.24
3.13
9.14
13.71
17.21
20.18
22.83
24.70
24.70
21.55
14.40
3.42
-9.98
-23.50
-34.61
-41.15
-41.79
-36.13
-24.73
-9.02
8.54
24.54
35.22
37.65
31.14
17.88
2.28
-10.86
-18.52
-20.72
-20.09
-20.13
-23.16
-29.25
-36.56
-42.76
-46.39
-47.37
-46.51
-44.52
-41.39
-36.48
-29.30
-20.16
-10.27
-1.30
5.29
8.93
10.00
9.59
8.93
9.01
10.24
12.56
15.58
18.76
21.55
23.46
24.02
22.77
19.37
13.63
5.72
-3.78
-13.79
-22.91
-29.56
-32.36
-30.42
-23.51
-12.24
2.03
17.34
31.46
42.27
48.25
48.79
44.31
36.11
26.08
16.09
7.59
1.33
-2.68
-4.97
-6.30
-7.33
-8.44
-9.67
-10.80
-11.61
-11.87
-11.53
-10.60
-9.14
-7.15
-4.66
-1.74
1.32
4.01
5.74
6.09
5.02
2.89
0.37
-1.76
-2.89
-2.78
-1.68
-0.12
1.38
2.35
2.55
1.98
0.93
-0.06
-0.42
0.05
1.32
3.17
5.15
6.69
7.33
6.86
5.52
3.75
1.56
-1.03
-4.06
-7.68
-12.19
-17.77
-24.44
-31.76
-39.10
-46.37
-53.32
-59.42
-63.97
-66.53
-67.03
-66.32
-65.85
-63.79
-59.90
-54.61
-48.17
-39.76
-27.97
-11.80
6.85
27.29
48.29
67.47
82.79
93.11
98.40
97.42
90.35
78.56
62.39
44.71
29.13
18.50
13.48
12.79
14.21
16.00
17.75
19.33
20.90
22.12
22.54
21.97
20.66
19.20
17.68
16.45
15.59
15.04
14.28
12.78
10.38
7.38
4.31
1.80
0.22
-0.51
-0.65
-0.70
-1.05
-1.79
-2.71
-3.49
-3.86
-3.73
-3.33
-2.89
-2.61
-2.48
-2.25
-1.61
-0.46
1.05
2.60
3.93
4.84
5.37
5.75
6.26
7.12
8.26
9.47
10.63
11.77
12.81
13.62
14.04
13.98
13.40
12.21
10.42
8.20
5.84
3.38
0.73
-2.34
-5.96
-10.30
-15.78
-22.90
-32.07
-41.46
-48.71
-52.28
-52.67
-51.46
-49.55
-46.84
-42.44
-35.39
-25.56
-14.22
-3.69
3.57
5.88
3.78
-1.41
-8.02
-14.52
-19.90
-23.78
-26.17
-27.06
-26.26
-23.33
-18.30
-11.80
-4.42
2.66
8.33
12.11
14.12
15.05
16.09
18.14
21.49
25.97
31.03
35.97
40.08
42.73
41.98
37.17
29.48
21.59
16.13
14.18
15.20
17.64
19.85
20.61
19.63
17.86
15.25
11.77
7.58
3.22
-0.60
-3.37
-4.96
-5.53
-5.52
-5.58
-6.37
-8.02
-10.15
-12.21
-13.87
-15.14
-16.14
-17.02
-17.92
-18.75
-19.35
-19.69
-20.02
-20.74
-22.19
-24.25
-26.41
-28.12
-28.97
-28.97
-28.54
-28.18
-28.10
-27.94
-26.96
-24.37
-19.89
-13.86
-7.18
-0.88
4.32
8.32
11.60
14.98
19.14
24.33
30.20
36.04
41.01
44.56
46.62
47.54
47.89
48.07
48.15
47.84
46.72
44.61
41.68
38.43
35.40
32.84
30.56
27.97
24.52
19.99
14.71
9.38
4.74
1.19
-1.42
-3.66
-6.26
-9.62
-13.67
-17.89
-21.56
-24.17
-25.54
-25.92
-25.68
-25.14
-24.38
-23.18
-21.27
-18.52
-15.22
-11.87
-8.98
-6.79
-5.20
-3.85
-2.33
-0.55
1.17
2.06
1.54
-0.40
-3.12
-5.66
-7.21
-7.47
-6.81
-6.17
-6.71
-8.91
-12.27
-15.55
-17.55
-17.71
-16.37
-14.74
-14.36
-16.65
-21.75
-28.36
-34.22
-37.21
-36.07
-30.42
-20.42
-5.27
13.59
32.46
47.25
55.57
56.91
52.13
43.32
33.36
24.96
19.50
17.52
18.03
20.00
22.51
24.69
25.95
26.00
24.64
21.46
16.18
8.61
-1.75
-13.62
-24.40
-31.17
-32.25
-28.10
-21.14
-14.30
-9.76
-8.25
-9.32
-12.28
-17.02
-23.37
-30.82
-38.07
-43.04
-43.57
-38.35
-27.49
-12.54
4.03
19.58
32.27
41.02
45.51
46.42
45.12
43.09
41.31
39.79
37.53
33.43
27.09
19.14
10.79
3.07
-3.52
-9.19
-14.52
-20.22
-26.26
-31.96
-36.45
-39.38
-41.26
-43.01
-45.65
-46.77
-44.45
-38.48
-30.54
-22.59
-15.73
-10.41
-7.39
-6.43
-7.53
-11.30
-18.08
-27.76
-39.68
-51.47
-60.51
-61.76
-52.09
-32.90
-10.39
8.57
20.31
25.49
27.48
29.54
33.09
37.16
40.29
40.69
38.28
34.46
30.92
28.59
27.35
26.65
25.85
24.72
23.52
22.29
21.56
21.75
22.79
24.16
25.28
25.67
25.01
23.29
21.05
17.92
14.48
11.67
9.98
8.99
7.79
5.76
3.02
0.40
-1.20
-1.38
-0.78
-0.78
-2.82
-7.53
-14.61
-22.77
-30.26
-35.40
-37.14
-35.58
-31.81
-27.78
-24.45
-22.42
-21.68
-21.73
-21.79
-21.14
-19.42
-16.75
-13.48
-9.98
-6.64
-3.70
-1.27
0.73
2.47
4.08
5.64
7.12
8.54
9.85
11.10
12.09
12.89
13.71
14.80
16.32
18.27
20.57
23.01
25.33
27.27
28.62
29.18
28.80
27.56
25.72
23.77
22.14
21.03
20.27
19.38
17.75
14.93
10.80
5.67
0.07
-5.40
-10.30
-14.40
-17.63
-20.02
-21.62
-22.50
-22.68
-22.35
-21.71
-20.97
-20.23
-19.40
-18.20
-16.34
-13.58
-9.93
-5.74
-1.56
2.12
5.04
7.32
9.29
11.39
13.93
17.00
20.06
22.43
23.63
23.70
23.21
22.95
23.56
25.33
28.07
30.61
31.67
30.45
27.10
22.65
18.35
15.20
13.82
14.17
14.67
13.38
8.79
0.53
-10.75
-23.99
-38.09
-51.72
-63.64
-74.07
-83.73
-93.65
-104.67
-117.77
-134.15
-154.61
-178.19
-195.22
-196.05
-175.49
-137.01
-89.53
-41.98
-0.27
32.78
57.28
75.32
86.50
89.77
84.68
73.29
59.41
47.10
38.48
35.69
39.24
47.07
56.19
63.70
68.80
72.31
75.44
76.05
72.57
64.49
52.32
40.46
29.44
20.30
14.77
13.30
16.12
22.83
31.79
40.41
46.33
47.70
44.56
38.04
29.61
20.73
12.56
5.35
-1.43
-8.52
-16.73
-25.85
-35.10
-43.49
-49.34
-50.72
-47.11
-39.82
-31.11
-22.92
-15.96
-10.31
-5.98
-2.91
-1.28
-1.21
-2.35
-3.90
-4.95
-4.61
-2.37
1.83
8.02
15.23
22.07
27.28
29.86
29.32
25.89
20.57
14.22
9.38
8.02
9.97
14.28
19.35
23.53
25.64
25.44
23.57
21.26
19.23
17.61
16.16
14.36
11.99
9.06
5.91
3.04
0.97
-0.28
-0.99
-1.47
-2.00
-2.76
-3.91
-5.47
-7.39
-9.53
-11.90
-14.51
-17.26
-19.97
-22.35
-24.31
-25.65
-26.20
-25.99
-25.36
-24.75
-24.44
-24.37
-24.16
-23.61
-22.39
-20.27
-17.37
-14.27
-11.72
-10.20
-9.68
-9.70
-10.11
-10.53
-10.67
-10.77
-11.82
-15.13
-21.76
-31.91
-44.56
-58.25
-70.24
-77.46
-77.76
-71.06
-59.35
-45.68
-32.85
-17.87
-0.68
16.57
31.17
41.70
48.33
52.47
56.52
62.51
70.77
78.41
81.32
76.26
62.65
43.12
22.49
5.84
-3.91
-6.75
-5.60
-3.56
-2.59
-3.13
-4.81
-7.55
-11.23
-16.39
-23.46
-32.33
-41.56
-48.55
-50.58
-46.14
-35.56
-20.74
-4.71
9.63
20.36
27.11
30.84
32.95
34.51
35.19
35.01
33.87
31.60
28.02
23.20
17.34
10.83
4.03
-2.65
-8.61
-13.35
-16.54
-18.03
-17.87
-16.67
-14.55
-11.78
-8.75
-5.78
-3.34
-1.80
-1.34
-1.82
-2.82
-3.78
-4.28
-4.12
-3.35
-2.22
-1.13
-0.42
-0.33
-1.02
-2.42
-4.39
-6.59
-8.48
-9.62
-9.76
-8.99
-7.73
-6.45
-5.54
-5.21
-5.48
-6.30
-7.64
-9.48
-11.73
-14.16
-16.32
-17.72
-18.00
-17.07
-15.07
-12.41
-9.47
-6.51
-3.55
