1605422619.00
64.000000
-0.00
-0.00
-0.00
-0.00
-0.00
-0.00
-0.00
-0.00
-0.00
-0.00
0.00
0.01
0.01
-0.00
-0.03
-0.05
-0.05
0.00
0.13
0.36
0.66
1.01
1.37
1.72
2.06
2.40
2.79
3.24
3.80
4.42
5.06
5.66
6.20
6.68
7.15
7.68
8.31
9.14
10.09
11.04
11.88
12.57
13.14
13.76
14.65
15.96
17.91
20.31
22.90
25.40
27.63
29.63
31.72
34.28
37.64
42.19
47.60
53.39
59.01
64.10
68.69
73.23
78.38
84.62
92.52
101.59
111.09
120.15
128.21
135.24
141.78
149.08
155.80
164.26
175.14
188.67
203.72
217.36
225.12
222.13
204.86
172.33
127.07
73.15
15.23
-43.25
-100.79
-157.41
-213.66
-269.65
-324.68
-377.09
-425.45
-468.44
-505.09
-534.54
-555.87
-568.05
-569.99
-560.86
-540.13
-508.27
-466.53
-416.97
-362.15
-304.78
-247.30
-191.81
-140.07
-93.48
-53.08
-18.91
10.45
37.81
66.60
99.42
136.73
176.29
214.02
245.46
267.56
279.52
282.56
278.87
270.51
258.86
244.74
228.89
212.26
195.96
180.92
167.48
155.35
143.78
132.00
119.62
106.89
94.52
83.49
74.54
67.87
62.96
58.84
54.47
49.17
42.99
36.32
29.81
23.99
19.07
14.88
11.05
7.25
3.34
-0.54
-4.07
-6.88
-8.68
-9.41
-9.27
-8.68
-8.12
-7.95
-8.28
-8.94
-9.60
-9.95
-9.87
-9.47
-9.02
-8.77
-8.79
-9.03
-9.35
-9.64
-9.81
-9.75
-9.28
-8.26
-6.63
-4.63
-2.76
-1.65
-1.73
-2.99
-4.92
-6.76
-7.83
-7.77
-6.67
-4.89
-2.84
-0.85
0.86
2.17
2.96
3.18
2.86
2.13
1.18
0.19
-0.75
-1.59
-2.32
-2.93
-3.34
-3.49
-3.38
-3.05
-2.59
-2.08
-1.60
-1.19
-0.89
-0.74
-0.77
-0.97
-1.24
-1.47
-1.52
-1.35
-0.96
-0.44
0.09
0.59
1.05
1.51
1.99
2.51
3.06
3.63
4.18
4.65
4.96
5.03
4.84
4.42
3.89
3.45
3.25
3.37
3.68
3.98
4.04
3.68
2.85
1.61
0.09
-1.59
-3.32
-5.01
-6.54
-7.77
-8.54
-8.73
-8.33
-7.38
-6.06
-4.55
-3.11
-1.97
-1.29
-1.14
-1.44
-1.96
-2.46
-2.72
-2.71
-2.53
-2.38
-2.40
-2.62
-2.94
-3.23
-3.43
-3.54
-3.67
-3.89
-4.18
-4.47
-4.63
-4.59
-4.32
-3.87
-3.34
-2.86
-2.55
-2.51
-2.80
-3.41
-4.20
-4.89
-5.12
-4.54
-2.98
-0.51
2.57
5.75
8.50
10.40
11.24
10.99
9.76
7.75
4.93
1.48
-2.33
-6.15
-9.57
-12.18
-13.64
-13.82
-12.84
-11.05
-8.86
-6.71
-4.86
-3.41
-2.36
-1.68
-1.38
-1.50
-1.98
-2.66
-3.28
-3.66
-3.75
-3.70
-3.78
-4.24
-5.17
-6.44
-7.74
-8.74
-9.24
-9.26
-9.03
-8.88
-9.10
-9.80
-10.94
-12.22
-13.29
-13.76
-13.31
-11.73
-9.02
-5.38
-1.15
3.19
7.23
10.64
13.31
15.27
16.66
17.65
18.33
18.77
18.97
18.91
18.62
18.20
17.76
17.39
17.11
16.87
16.51
15.91
15.00
13.84
12.53
11.20
9.92
8.66
7.36
5.98
4.51
2.97
1.40
-0.18
-1.74
-3.27
-4.71
-6.02
-7.18
-8.21
-9.21
-10.34
-11.75
-13.51
-15.52
-17.45
-18.82
-19.11
-17.95
-15.26
-11.31
-6.61
-1.74
2.80
6.72
9.93
12.43
14.31
15.61
16.37
16.63
16.47
15.96
15.24
14.40
13.53
12.68
11.86
11.05
10.20
9.27
8.23
7.08
5.88
4.72
3.66
2.72
1.87
1.00
0.06
-0.99
-2.10
-3.18
-4.17
-5.06
-5.93
-6.82
-7.77
-8.72
-9.55
-10.16
-10.53
-10.76
-11.08
-11.74
-12.96
-14.76
-16.97
-19.18
-20.84
-21.46
-20.64
-18.31
-14.68
-10.20
-5.44
-0.96
2.87
5.87
8.06
9.55
10.51
11.07
11.34
11.41
11.42
11.47
11.64
11.91
12.20
12.33
12.20
11.80
11.28
10.86
10.75
11.01
11.52
12.02
12.23
11.95
11.18
10.06
8.81
7.61
6.51
5.46
4.31
2.96
1.36
-0.43
-2.33
-4.22
-6.04
-7.78
-9.44
-11.09
-12.82
-14.72
-16.82
-19.09
-21.30
-23.09
-24.01
-23.65
-21.83
-18.62
-14.37
-9.62
-4.94
-0.76
2.65
5.24
7.13
8.45
9.32
9.79
9.89
9.68
9.29
8.89
8.62
8.56
8.66
8.84
8.95
8.94
8.79
8.50
8.09
7.55
6.86
6.00
4.99
3.90
2.79
1.72
0.70
-0.29
-1.30
-2.35
-3.46
-4.56
-5.59
-6.45
-7.06
-7.42
-7.57
-7.67
-7.92
-8.50
-9.53
-11.01
-12.80
-14.59
-16.01
-16.66
-16.21
-14.49
-11.53
-7.63
-3.25
1.09
5.02
8.38
11.15
13.42
15.21
16.46
17.05
16.94
16.21
15.09
13.90
12.90
12.26
11.94
11.85
11.83
11.78
11.68
11.54
11.37
11.10
10.59
9.68
8.26
6.39
4.25
2.13
0.24
-1.35
-2.74
-4.11
-5.60
-7.23
-8.89
-10.42
-11.70
-12.70
-13.49
-14.17
-14.80
-15.46
-16.20
-17.13
-18.37
-19.94
-21.70
-23.28
-24.16
-23.82
-22.02
-18.83
-14.68
-10.12
-5.70
-1.74
1.60
4.31
6.42
7.89
8.69
8.85
8.50
7.86
7.25
6.94
7.13
7.87
9.03
10.43
11.80
12.94
13.73
14.13
14.17
13.87
13.25
12.32
11.07
9.55
7.81
5.94
4.04
2.22
0.59
-0.75
-1.72
-2.32
-2.61
-2.71
-2.71
-2.65
-2.54
-2.42
-2.32
-2.32
-2.43
-2.57
-2.51
-2.01
-0.90
0.81
2.89
4.97
6.76
8.09
8.96
9.49
9.74
9.68
9.15
8.00
6.19
3.86
1.32
-1.10
-3.07
-4.41
-5.03
-4.93
-4.10
-2.56
-0.34
2.40
5.42
8.42
11.07
13.12
14.42
14.95
14.72
13.81
12.31
10.30
7.88
5.16
2.25
-0.76
-3.80
-6.84
-9.87
-12.89
-15.91
-18.92
-21.96
-25.10
-28.40
-31.89
-35.44
-38.72
-41.22
-42.39
-41.85
-39.50
-35.65
-30.82
-25.66
-20.69
-16.25
-12.46
-9.30
-6.70
-4.58
-2.90
-1.60
-0.65
-0.01
0.41
0.69
0.94
1.23
1.62
2.12
2.71
3.34
3.98
4.56
5.03
5.34
5.45
5.33
5.04
4.71
4.50
4.56
4.95
5.59
6.32
6.89
7.19
7.24
7.24
7.37
7.72
8.17
8.40
8.03
6.79
4.66
1.87
-1.12
-3.76
-5.50
-5.91
-4.74
-1.99
2.11
7.08
12.35
17.34
21.61
24.90
27.15
28.43
28.90
28.74
28.14
27.27
26.25
25.17
24.11
23.11
22.22
21.48
20.84
20.20
19.39
18.23
16.62
14.58
12.26
9.86
7.54
5.30
3.03
0.51
-2.48
-6.07
-10.23
-14.78
-19.40
-23.70
-27.23
-29.64
-30.74
-30.60
-29.50
-27.86
-26.09
-24.48
-23.13
-21.90
-20.53
-18.69
-16.10
-12.63
-8.36
-3.59
1.22
5.62
9.24
11.93
13.74
14.85
15.48
15.73
15.61
15.05
13.97
12.38
10.38
8.12
5.75
3.34
0.87
-1.68
-4.26
-6.63
-8.48
-9.51
-9.68
-9.21
-8.56
-8.21
-8.42
-9.16
-10.18
-11.16
-11.95
-12.61
-13.37
-14.40
-15.68
-17.01
-18.05
-18.54
-18.42
-17.86
-17.16
-16.61
-16.40
-16.55
-17.00
-17.60
-18.13
-18.27
-17.65
-15.95
-13.07
-9.16
-4.62
0.01
4.28
7.95
11.04
13.68
16.01
18.04
19.64
20.66
21.02
20.79
20.19
19.49
18.97
18.80
19.00
19.45
19.96
20.29
20.25
19.70
18.60
17.01
15.09
13.00
10.94
9.03
7.36
5.99
4.95
4.22
3.76
3.49
3.30
3.09
2.82
2.41
1.82
0.94
-0.32
-1.96
-3.82
-5.54
-6.68
-6.83
-5.83
-3.78
-1.07
1.88
4.64
6.98
8.79
10.03
10.67
10.67
10.01
8.74
7.04
5.14
3.32
1.77
0.60
-0.19
-0.66
-0.92
-1.07
-1.15
-1.23
-1.30
-1.33
-1.27
-1.09
-0.78
-0.37
-0.00
0.19
0.05
-0.51
-1.45
-2.70
-4.13
-5.62
-7.13
-8.70
-10.38
-12.22
-14.25
-16.49
-18.94
-21.58
-24.30
-26.83
-28.80
-29.75
-29.35
-27.47
-24.28
-20.18
-15.68
-11.24
-7.17
-3.62
-0.62
1.85
3.80
5.20
6.00
6.14
5.67
4.75
3.60
2.50
1.68
1.27
1.22
1.42
1.68
1.85
1.77
1.36
0.58
-0.54
-1.92
-3.46
-5.02
-6.48
-7.77
-8.89
-9.91
-10.91
-12.00
-13.23
-14.62
-16.15
-17.76
-19.37
-20.91
-22.35
-23.71
-25.04
-26.36
-27.55
-28.40
-28.54
-27.61
-25.36
-21.79
-17.17
-11.93
-6.52
-1.26
3.71
8.36
12.71
16.72
20.29
23.31
25.69
27.42
28.52
29.06
29.11
28.72
27.97
27.01
26.01
25.16
24.65
24.55
24.80
25.19
25.40
25.07
23.94
21.94
19.21
16.07
12.86
9.86
7.19
4.86
2.80
0.97
-0.59
-1.84
-2.71
-3.21
-3.42
-3.53
-3.73
-4.18
-4.92
-5.83
-6.60
-6.84
-6.17
-4.29
-1.18
2.98
7.77
12.67
17.18
20.94
23.72
25.48
26.26
26.22
25.49
24.25
22.67
20.93
19.18
17.51
15.95
14.43
12.85
11.15
9.31
7.45
5.70
4.18
2.91
1.78
0.62
-0.77
-2.45
-4.35
-6.27
-7.97
-9.30
-10.19
-10.70
-10.94
-11.02
-10.95
-10.72
-10.28
-9.61
-8.75
-7.78
-6.78
-5.89
-5.26
-5.08
-5.55
-6.76
-8.60
-10.69
-12.49
-13.45
-13.20
-11.70
-9.25
-6.33
-3.41
-0.84
1.22
2.71
3.61
3.83
3.28
1.94
-0.06
-2.42
-4.68
-6.41
-7.30
-7.25
-6.39
-4.99
-3.38
-1.82
-0.40
0.91
2.24
3.65
5.09
6.36
7.22
7.47
7.09
6.22
5.14
4.10
3.25
2.57
1.96
1.30
0.54
-0.30
-1.19
-2.21
-3.51
-5.31
-7.72
-10.66
-13.77
-16.52
-18.33
-18.79
-17.81
-15.58
-12.56
-9.27
-6.13
-3.36
-1.02
0.96
2.64
3.98
4.86
5.15
4.81
3.95
2.84
1.78
1.02
0.68
0.70
0.96
1.36
1.81
2.26
2.64
2.84
2.76
2.33
1.56
0.53
-0.63
-1.85
-3.09
-4.35
-5.62
-6.84
-7.93
-8.85
-9.62
-10.28
-10.94
-11.66
-12.48
-13.47
-14.70
-16.22
-17.98
-19.74
-21.11
-21.59
-20.79
-18.53
-14.96
-10.47
-5.57
-0.75
3.63
7.38
10.41
12.71
14.31
15.31
15.81
15.95
15.84
15.59
15.26
14.87
14.41
13.89
13.36
12.86
12.43
12.10
11.80
11.43
10.86
10.01
8.85
7.49
6.07
4.69
3.39
2.14
0.82
-0.62
-2.20
-3.83
-5.40
-6.85
-8.19
-9.49
-10.84
-12.28
-13.82
-15.44
-17.12
-18.86
-20.59
-22.12
-23.10
-23.10
-21.73
-18.86
-14.62
-9.46
-3.98
1.27
5.87
9.61
12.46
14.50
15.82
16.48
16.55
16.09
15.19
14.06
12.89
11.88
11.09
10.52
10.05
9.56
8.96
8.22
7.35
6.31
5.07
3.55
1.72
-0.31
-2.36
-4.19
-5.62
-6.65
-7.43
-8.22
-9.20
-10.41
-11.68
-12.77
-13.44
-13.68
-13.62
-13.54
-13.70
-14.23
-15.13
-16.22
-17.26
-17.91
-17.80
-16.59
-14.04
-10.11
-5.00
0.88
7.04
13.03
18.60
23.64
28.17
32.20
35.62
38.21
39.72
39.99
39.04
37.12
34.57
31.81
29.11
26.65
24.48
22.57
20.90
19.45
18.19
17.00
15.71
14.11
12.05
9.51
6.57
3.41
0.22
-2.90
-5.94
-8.93
-11.92
-14.90
-17.80
-20.51
-22.92
-24.97
-26.62
-27.86
-28.74
-29.34
-29.79
-30.31
-31.10
-32.27
-33.78
-35.35
-36.50
-36.70
-35.48
-32.61
-28.18
-22.56
-16.32
-10.05
-4.23
0.85
5.09
8.48
11.09
12.98
14.22
14.89
15.13
15.15
15.18
15.42
15.98
16.86
17.96
19.12
20.19
21.06
21.63
21.85
21.65
21.01
19.93
18.44
16.54
14.23
11.44
8.20
4.59
0.82
-2.84
-6.12
-8.89
-11.10
-12.87
-14.32
-15.62
-16.91
-18.34
-19.98
-21.75
-23.36
-24.39
-24.37
-23.00
-20.25
-16.44
-12.06
-7.61
-3.44
0.27
3.53
6.37
8.80
10.74
12.05
12.62
12.44
11.64
10.48
9.26
8.24
7.60
7.32
7.30
7.34
7.27
6.96
6.40
5.64
4.74
3.74
2.63
1.37
-0.10
-1.78
-3.65
-5.61
-7.57
-9.45
-11.21
-12.78
-14.14
-15.27
-16.21
-17.06
-17.94
-18.91
-19.94
-20.84
-21.28
-20.87
-19.29
-16.43
-12.38
-7.50
-2.22
3.04
7.95
12.35
16.16
19.33
21.80
23.50
24.44
24.70
24.46
23.95
23.39
22.92
22.59
22.40
22.30
22.23
22.09
21.75
21.14
20.18
18.90
17.34
15.56
13.61
11.55
9.38
7.18
5.00
2.93
1.02
-0.75
-2.41
-4.04
-5.67
-7.28
-8.80
-10.16
-11.34
-12.43
-13.60
-15.05
-16.93
-19.20
-21.64
-23.85
-25.34
-25.68
-24.61
-22.13
-18.44
-13.94
-9.10
-4.32
0.08
3.90
7.06
9.55
11.37
12.55
13.11
13.17
12.88
12.44
12.08
11.92
12.00
12.27
12.62
12.92
13.10
13.14
13.07
12.94
12.75
12.51
12.23
11.90
11.51
11.07
10.55
9.92
9.05
7.80
5.98
3.52
0.48
-2.90
-6.27
-9.27
-11.69
-13.46
-14.77
-15.89
-17.15
-18.79
-20.87
-23.21
-25.41
-26.95
-27.31
-26.19
-23.58
-19.75
-15.14
-10.25
-5.48
-1.16
2.51
5.46
7.67
9.23
10.29
10.99
11.44
11.72
11.86
11.85
11.65
11.22
10.49
9.45
8.14
6.74
5.44
4.43
3.79
3.44
3.20
2.91
2.44
1.76
0.87
-0.19
-1.45
-2.92
-4.60
-6.42
-8.23
-9.87
-11.19
-12.15
-12.81
-13.28
-13.73
-14.34
-15.26
-16.57
-18.29
-20.31
-22.34
-24.01
-24.88
-24.59
-22.96
-20.10
-16.37
-12.31
-8.45
-5.19
-2.67
-0.77
0.74
2.11
3.48
4.85
6.15
7.30
8.30
9.18
10.00
10.74
11.33
11.68
11.75
11.58
11.29
11.02
10.85
10.80
10.79
10.69
10.38
9.78
8.93
7.98
7.14
6.61
6.48
6.64
6.88
6.94
6.64
5.94
4.93
3.73
2.49
1.35
0.51
0.20
0.69
2.09
4.25
6.79
9.14
10.82
11.61
11.61
11.18
10.71
10.45
10.43
10.50
10.45
10.13
9.48
8.53
7.32
5.93
4.40
2.83
1.36
0.03
-1.20
-2.57
-4.43
-7.10
-10.73
-15.16
-19.97
-24.64
-28.68
-31.82
-33.97
-35.19
-35.56
-35.18
-34.20
-32.86
-31.52
-30.56
-30.22
-30.44
-30.81
-30.71
-29.57
-27.05
-23.21
-18.45
-13.31
-8.29
-3.69
0.44
4.21
7.75
11.12
14.26
17.05
19.38
21.27
22.77
24.01
25.06
25.92
26.59
27.09
27.51
28.00
28.63
29.37
30.04
30.34
29.92
28.50
25.93
22.26
17.71
12.67
7.55
2.71
-1.69
-5.72
-9.54
-13.35
-17.17
-20.85
-24.14
-26.74
-28.50
-29.40
-29.50
-28.87
-27.51
-25.38
-22.52
-19.07
-15.32
-11.60
-8.14
-5.00
-2.09
0.73
3.51
6.17
8.52
10.40
11.77
12.76
13.61
14.56
15.75
17.13
18.53
19.74
20.55
20.87
20.68
20.07
19.12
17.91
16.45
14.76
12.85
10.83
8.84
7.05
5.55
4.31
3.20
2.01
0.50
-1.52
-4.13
-7.25
-10.66
-13.94
-16.62
-18.23
-18.51
-17.41
-15.18
-12.27
-9.17
-6.27
-3.76
-1.66
0.15
1.79
3.33
4.71
5.86
6.75
7.46
8.18
9.12
10.39
11.94
13.54
14.99
16.16
17.09
17.95
18.93
20.12
21.49
22.88
24.06
24.80
24.89
24.20
22.68
20.37
17.40
13.87
9.84
5.24
0.00
-5.85
-12.03
-18.00
-23.08
-26.62
-28.27
-28.04
-26.32
-23.71
-20.86
-18.23
-16.01
-14.18
-12.57
-11.02
-9.45
-7.89
-6.43
-5.16
-4.09
-3.21
-2.44
-1.76
-1.16
-0.69
-0.40
-0.24
-0.13
0.06
0.46
1.09
1.85
2.57
3.07
3.30
3.36
3.52
4.10
5.31
7.17
9.51
12.05
14.49
16.65
18.45
19.95
21.26
22.52
23.83
25.14
26.30
27.07
27.23
26.63
25.31
23.44
21.27
19.06
16.94
15.00
13.26
11.76
10.53
9.59
8.87
8.27
7.68
7.04
6.32
5.55
4.67
3.61
2.23
0.45
-1.71
-4.06
-6.30
-8.08
-9.19
-9.60
-9.46
-9.10
-8.91
-9.21
-10.18
-11.80
-13.92
-16.26
-18.50
-20.28
-21.34
-21.51
-20.77
-19.23
-17.06
-14.43
-11.49
-8.29
-4.90
-1.43
1.93
4.94
7.33
8.94
9.73
9.75
9.06
7.73
5.85
3.60
1.33
-0.51
-1.52
-1.46
-0.41
1.32
3.26
5.02
6.36
7.20
7.50
7.24
6.37
4.81
2.61
-0.09
-3.02
-5.87
-8.32
-10.20
-11.41
-12.01
-12.15
-12.09
-12.09
-12.39
-13.07
-14.06
-15.13
-15.98
-16.31
-15.90
-14.62
-12.48
-9.56
-6.06
-2.26
1.56
5.17
8.38
11.11
13.35
15.05
16.13
16.45
15.92
14.53
12.48
10.07
7.71
5.67
4.06
2.75
1.51
0.07
-1.71
-3.81
-6.02
-8.09
-9.78
-11.03
-11.87
-12.51
-13.14
-13.95
-15.05
-16.50
-18.31
-20.44
-22.78
-25.13
-27.29
-29.08
-30.42
-31.38
-32.17
-32.99
-33.96
-34.95
-35.60
-35.42
-33.98
-31.06
-26.76
-21.46
-15.72
-10.06
-4.91
-0.45
3.30
6.40
8.96
10.99
12.49
13.47
14.04
14.40
14.80
15.43
16.34
17.42
18.47
19.30
19.85
20.16
20.28
20.22
19.86
19.02
17.55
15.41
12.71
9.65
6.46
3.31
0.31
-2.48
-4.98
-7.14
-8.95
-10.46
-11.80
-13.17
-14.71
-16.53
-18.65
-21.01
-23.53
-26.10
-28.54
-30.60
-31.95
-32.28
-31.38
-29.28
-26.22
-22.61
-18.89
-15.39
-12.27
-9.52
-7.10
-4.94
-3.03
-1.44
-0.22
0.67
1.37
2.15
3.36
5.29
8.08
11.62
15.55
19.38
22.62
25.00
26.46
27.14
27.28
27.04
26.46
25.47
23.96
21.88
19.31
16.43
13.45
10.54
7.70
4.85
1.81
-1.51
-5.08
-8.71
-12.18
-15.28
-17.93
-20.12
-21.84
-23.03
-23.53
-23.21
-22.07
-20.21
-17.89
-15.38
-12.89
-10.56
-8.45
-6.63
-5.16
-4.16
-3.73
-3.89
-4.51
-5.35
-6.09
-6.42
-6.16
-5.29
-3.99
-2.53
-1.20
-0.18
0.45
0.74
0.77
0.65
0.47
0.28
0.09
-0.20
-0.67
-1.43
-2.44
-3.58
-4.60
-5.30
-5.56
-5.38
-4.85
-4.08
-3.10
-1.95
-0.61
0.87
2.47
4.20
6.19
8.65
11.75
15.50
19.67
23.82
27.48
30.27
32.02
32.70
32.41
31.22
29.25
26.66
23.71
20.73
18.04
15.87
14.24
13.08
12.20
11.45
10.69
9.83
8.77
7.43
5.80
3.96
2.07
0.31
-1.21
-2.55
-3.87
-5.40
-7.28
-9.51
-11.97
-14.44
-16.69
-18.58
-20.09
-21.31
-22.41
-23.61
-25.05
-26.74
-28.44
-29.72
-30.02
-28.81
-25.80
-21.04
-14.91
-8.01
-0.98
5.66
11.56
16.51
20.38
23.07
24.47
24.50
23.21
20.78
17.58
14.04
10.58
7.44
4.70
2.30
0.11
-1.90
-3.72
-5.24
-6.42
-7.34
-8.16
-9.03
-10.01
-10.99
-11.79
-12.24
-12.28
-11.99
-11.46
-10.73
-9.68
-8.10
-5.82
-2.88
0.46
3.73
6.43
8.15
8.69
8.10
6.61
4.65
2.74
1.44
1.25
2.46
5.07
8.82
13.18
17.62
21.63
24.92
27.34
28.86
29.56
29.53
28.88
27.70
26.09
24.10
21.82
19.34
16.79
14.34
12.14
10.30
8.87
7.86
7.17
6.70
6.27
5.67
4.72
3.32
1.45
-0.79
-3.21
-5.63
-7.87
-9.83
-11.49
-12.91
-14.24
-15.61
-17.09
-18.59
-20.00
-21.17
-22.09
-22.90
-23.79
-24.90
-26.19
-27.33
-27.81
-27.11
-24.84
-20.90
-15.58
-9.43
-3.16
2.54
7.22
10.69
12.99
14.30
14.75
14.47
13.52
12.01
10.11
8.05
6.03
4.17
2.56
1.25
0.29
-0.23
-0.26
0.17
0.93
1.83
2.63
3.14
3.26
3.03
2.59
2.14
1.83
1.67
1.52
1.16
0.39
-0.78
-2.14
-3.32
-3.94
-3.78
-2.87
-1.43
0.20
1.71
2.86
3.55
3.77
3.61
3.27
3.04
3.30
4.38
6.47
9.55
13.34
17.37
21.10
24.10
26.10
27.05
27.05
26.25
24.81
22.90
20.67
18.37
16.23
14.51
13.32
12.66
12.36
12.23
12.07
11.75
11.22
10.49
9.61
8.62
7.54
6.38
5.12
3.79
2.43
1.16
0.09
-0.71
-1.25
-1.60
-1.87
-2.18
-2.61
-3.19
-3.97
-4.95
-6.13
-7.50
-9.03
-10.74
-12.64
-14.76
-17.05
-19.29
-21.13
-22.10
-21.82
-20.15
-17.25
-13.60
-9.79
-6.35
-3.64
-1.76
-0.62
-0.09
-0.03
-0.31
-0.82
-1.36
-1.74
-1.72
-1.11
0.21
2.30
5.15
8.71
12.86
17.39
21.98
26.18
29.50
31.41
31.54
29.73
26.14
21.23
15.72
10.36
5.77
2.28
-0.03
-1.34
-1.91
-2.03
-1.95
-1.79
-1.61
-1.51
-1.54
-1.79
-2.29
-3.00
-3.90
-4.87
-5.70
-5.99
-5.27
-3.02
1.19
7.55
15.78
24.99
33.79
40.67
44.33
43.86
39.06
30.58
19.70
8.12
-2.82
-12.21
-19.57
-24.87
-28.71
-31.79
-34.52
-36.84
-38.11
-38.11
-36.92
-34.79
-32.25
-30.52
-30.77
-33.53
-38.36
-43.83
-48.95
-52.96
-55.20
-55.29
-53.99
-52.53
-52.13
-53.55
-56.59
-61.56
-68.41
-76.21
-78.87
-71.55
-53.37
-28.39
-5.71
12.90
27.33
37.76
44.82
48.61
48.76
45.40
39.56
33.23
29.20
28.56
30.57
33.24
34.39
32.41
27.20
20.07
13.08
8.31
6.10
5.38
5.34
5.47
5.33
4.72
3.63
2.25
1.04
-0.14
-1.55
-3.23
-4.96
-6.65
-8.27
-9.84
-11.33
-12.60
-13.74
-14.89
-16.04
-17.18
-18.38
-19.75
-21.47
-23.59
-25.94
-28.22
-29.95
-30.53
-29.50
-26.69
-22.30
-16.84
-10.90
-5.06
0.34
5.16
9.45
13.34
16.94
20.22
23.04
25.14
26.28
26.35
25.48
24.02
22.45
21.16
20.34
19.94
19.73
19.45
18.92
18.10
17.07
15.92
14.76
13.63
12.55
11.54
10.58
9.65
8.76
7.89
7.04
6.18
5.29
4.34
3.28
2.08
0.64
-1.15
-3.39
-6.12
-9.23
-12.42
-15.22
-17.13
-17.75
-16.87
-14.61
-11.26
-7.28
-3.14
0.76
4.18
7.05
9.47
11.60
13.57
15.42
17.07
18.35
19.16
19.47
19.38
19.04
18.58
18.04
17.39
16.57
15.54
14.30
12.88
11.32
9.69
8.04
6.46
5.01
3.70
2.45
1.13
-0.37
-2.12
-4.09
-6.18
-8.29
-10.37
-12.41
-14.43
-16.38
-18.19
-19.77
-21.09
-22.23
-23.24
-24.05
-24.38
-23.77
-21.73
-17.93
-12.44
-5.73
1.42
8.15
13.83
18.11
20.98
22.58
23.19
23.07
22.44
21.49
20.42
19.40
18.52
17.77
16.97
16.07
15.06
13.96
12.80
11.61
10.44
9.31
8.16
6.86
5.57
4.48
3.70
3.15
2.71
2.26
1.72
1.06
0.22
-0.29
0.09
1.68
4.36
7.74
11.49
15.44
19.51
23.59
28.01
33.00
38.35
43.58
48.39
53.10
58.48
65.28
69.37
67.32
57.99
43.46
27.29
12.21
-0.75
-11.80
-21.45
-29.23
-34.62
-36.70
-35.13
-30.88
-25.89
-22.14
-20.88
-22.32
-25.82
-29.79
-32.76
-34.20
-34.57
-34.72
-35.14
-35.68
-35.88
-35.26
-33.39
-30.25
-26.27
-22.08
-18.12
-14.48
-11.12
-8.13
-5.49
-2.87
0.30
4.62
10.41
17.48
25.08
32.70
39.01
43.24
46.18
49.71
55.23
62.40
69.41
74.20
75.22
71.77
64.22
53.37
39.57
23.16
4.50
-15.88
-37.12
-58.03
-77.25
-93.32
-104.99
-111.62
-113.23
-110.39
-104.01
-95.02
-84.29
-72.62
-60.66
-49.07
-38.63
-30.10
-24.07
-20.73
-19.69
-20.06
-20.62
-20.16
-17.72
-13.01
-6.47
0.65
6.58
9.54
8.21
2.24
-7.57
-19.43
-31.12
-40.48
-46.01
-47.00
-43.53
-36.19
-25.92
-13.81
-1.05
11.13
21.60
29.42
34.01
35.21
33.35
29.18
23.80
18.46
14.38
12.53
13.36
16.70
21.85
27.81
33.68
38.86
43.12
46.44
48.75
49.78
49.01
45.92
40.32
32.47
23.10
13.19
3.69
-4.61
-11.44
-17.16
-22.67
-29.08
-37.21
-47.22
-58.26
-68.61
-75.95
-78.49
-75.72
-68.59
-58.94
-48.61
-38.82
-29.87
-21.29
-11.93
-1.07
11.07
23.41
34.48
43.21
49.15
52.70
54.88
57.34
61.10
65.99
70.71
73.56
73.49
70.16
63.82
52.17
35.00
15.01
-3.28
-15.95
-22.25
-22.16
-16.72
-7.80
1.03
6.13
4.99
-2.73
-15.26
-29.54
-42.01
-49.85
-51.41
-44.41
-29.02
-8.98
10.06
23.57
29.67
29.08
23.88
16.47
8.78
1.87
-3.81
-8.13
-10.98
-12.43
-12.66
-11.95
-10.66
-9.09
-7.45
-5.71
-3.70
-1.27
1.36
3.75
5.40
5.99
5.49
4.01
1.90
-0.63
-3.17
-5.46
-7.46
-9.27
-11.06
-12.98
-15.23
-17.83
-20.61
-23.23
-25.39
-27.01
-28.17
-29.09
-29.95
-30.74
-31.13
-30.50
-28.18
-23.80
-17.53
-10.01
-2.13
5.20
11.41
16.25
19.79
22.22
23.71
24.38
24.32
23.67
22.61
21.34
20.09
18.96
18.01
17.21
16.55
16.01
15.63
15.43
15.36
15.31
15.02
14.26
12.84
10.70
7.94
4.78
1.46
-1.76
-4.70
-7.26
-9.43
-11.33
-13.19
-15.32
-17.91
-20.89
-23.87
-26.16
-27.06
-26.06
-23.05
-18.34
-12.50
-6.15
0.25
6.37
12.03
17.14
21.58
25.28
28.21
30.38
31.84
32.65
32.89
32.65
32.05
31.22
30.28
29.29
28.30
27.28
26.24
25.19
24.10
22.86
21.35
19.37
16.75
13.46
9.61
5.48
1.40
-2.32
-5.52
-8.25
-10.72
-13.24
-16.08
-19.41
-23.21
-27.17
-30.76
-33.32
-34.22
-33.08
-29.92
-25.17
-19.54
-13.81
-8.61
-4.30
-0.93
1.66
3.71
5.38
6.75
7.75
8.23
8.13
7.45
6.40
5.25
4.25
3.52
3.03
2.68
2.37
2.09
1.89
1.77
1.67
1.46
1.03
0.36
-0.46
-1.30
-2.07
-2.74
-3.37
-4.02
-4.67
-5.25
-5.68
-5.92
-6.06
-6.26
-6.73
-7.61
-8.97
-10.68
-12.44
-13.78
-14.20
-13.33
-11.01
-7.45
-3.10
1.44
5.64
9.16
11.85
13.78
15.06
15.79
16.05
15.88
15.39
14.71
14.03
13.54
13.33
13.36
13.50
13.54
13.36
12.95
12.43
11.97
11.72
11.71
11.86
11.99
11.97
11.68
11.13
10.36
9.48
8.55
7.63
6.76
5.93
5.14
4.32
3.40
2.30
0.89
-0.89
-3.07
-5.58
-8.22
-10.71
-12.70
-13.83
-13.83
-12.59
-10.21
-6.97
-3.30
0.34
3.55
6.08
7.88
9.00
9.58
9.75
9.54
8.96
8.01
6.77
5.42
4.15
3.15
2.45
2.01
1.66
1.28
0.80
0.27
-0.28
-0.82
-1.42
-2.20
-3.25
-4.59
-6.15
-7.80
-9.42
-10.95
-12.36
-13.63
-14.74
-15.68
-16.44
-17.03
-17.45
-17.67
-17.64
-17.41
-17.08
-16.91
-17.14
-17.97
-19.33
-20.92
-22.28
-22.92
-22.50
-20.90
-18.29
-14.95
-11.24
-7.48
-3.88
-0.57
2.38
4.96
7.20
9.09
10.60
11.71
12.41
12.76
12.90
13.02
13.33
13.96
14.98
16.36
17.97
19.65
21.24
22.55
23.38
23.54
22.93
21.55
19.51
17.03
14.33
11.57
8.83
6.12
3.44
0.84
-1.60
-3.72
-5.43
-6.75
-7.79
-8.77
-9.92
-11.40
-13.24
-15.36
-17.62
-19.91
-22.08
-23.96
-25.29
-25.73
-25.01
-22.99
-19.84
-15.98
-11.94
-8.23
-5.13
-2.74
-0.99
0.22
0.95
1.17
0.89
0.19
-0.74
-1.67
-2.37
-2.70
-2.64
-2.25
-1.64
-0.89
-0.07
0.80
1.72
2.65
3.50
4.14
4.46
4.36
3.87
3.08
2.11
1.08
0.04
-1.02
-2.11
-3.21
-4.26
-5.17
-5.90
-6.46
-6.96
-7.53
-8.33
-9.42
-10.80
-12.32
-13.72
-14.68
-14.86
-14.06
-12.22
-9.48
-6.16
-2.62
0.80
3.85
6.38
8.33
9.67
10.41
10.61
10.42
10.02
9.67
9.52
9.63
9.96
10.36
10.67
10.79
10.70
10.44
10.09
9.72
9.38
9.09
8.81
8.48
7.97
7.20
6.09
4.64
2.97
1.25
-0.35
-1.75
-2.96
-4.14
-5.43
-6.95
-8.68
-10.56
-12.45
-14.24
-15.75
-16.75
-16.88
-15.82
-13.37
-9.64
-5.09
-0.37
3.89
7.28
9.71
11.30
12.25
12.69
12.68
12.22
11.37
10.24
8.97
7.68
6.48
5.47
4.73
4.28
4.11
4.07
4.00
3.72
3.16
2.34
1.36
0.31
-0.74
-1.78
-2.85
-3.94
-5.04
-6.13
-7.21
-8.26
-9.29
-10.27
-11.21
-12.12
-13.07
-14.18
-15.57
-17.33
-19.45
-21.69
-23.64
-24.78
-24.62
-22.90
-19.67
-15.33
-10.46
-5.65
-1.34
2.25
5.06
7.18
8.72
9.75
10.34
10.56
10.43
10.02
9.40
8.67
7.96
7.36
6.97
6.80
6.81
6.92
7.02
7.01
6.80
6.39
5.76
4.97
4.05
3.03
1.93
0.77
-0.45
-1.73
-3.09
-4.54
-6.02
-7.47
-8.74
-9.71
-10.31
-10.63
-10.84
-11.19
-11.86
-12.85
-13.91
-14.58
-14.33
-12.69
-9.46
-4.76
0.95
7.05
12.87
17.87
21.75
24.37
25.79
26.10
25.45
24.06
22.19
20.21
18.46
17.18
16.43
16.10
15.93
15.72
15.41
15.06
14.77
14.57
14.36
13.97
13.25
12.14
10.73
9.15
7.54
5.92
4.27
2.52
0.65
-1.30
-3.20
-4.92
-6.33
-7.39
-8.20
-8.94
-9.82
-11.04
-12.69
-14.71
-16.96
-19.18
-21.02
-22.07
-21.97
-20.49
-17.61
-13.60
-8.90
-4.06
0.41
4.19
7.11
9.13
10.27
10.60
10.19
9.23
7.93
6.56
5.36
4.47
3.92
3.63
3.49
3.35
3.18
2.98
2.81
2.70
2.63
2.51
2.26
1.79
1.09
0.25
-0.62
-1.42
-2.14
-2.84
-3.70
-4.82
-6.21
-7.73
-9.16
-10.26
-10.96
-11.34
-11.61
-12.02
-12.75
-13.86
-15.25
-16.67
-17.78
-18.09
-17.19
-14.79
-10.92
-5.96
-0.50
4.81
9.52
13.44
16.59
19.08
20.93
22.05
22.30
21.62
20.14
18.17
16.08
14.19
12.72
11.71
11.10
10.73
10.47
10.18
9.78
9.24
8.53
7.66
6.63
5.43
4.09
2.66
1.21
-0.15
-1.35
-2.37
-3.25
-4.05
-4.86
-5.73
-6.72
-7.80
-8.94
-10.05
-11.09
-12.05
-13.03
-14.20
-15.70
-17.47
-19.22
-20.43
-20.58
-19.31
-16.57
-12.67
-8.07
-3.30
1.26
5.35
8.82
11.56
13.48
14.56
14.86
14.52
13.79
12.86
11.91
11.04
10.31
9.75
9.36
9.13
9.00
8.89
8.70
8.33
7.71
6.82
5.65
4.24
2.65
0.96
-0.75
-2.43
-4.06
-5.64
-7.17
-8.62
-9.88
-10.88
-11.55
-11.95
-12.26
-12.68
-13.42
-14.58
-16.10
-17.75
-19.12
-19.76
-19.23
-17.25
-13.82
-9.24
-4.06
1.08
5.66
9.33
12.00
13.77
14.79
15.22
15.14
14.66
13.92
13.10
12.39
11.93
11.72
11.64
11.52
11.27
10.88
10.49
10.23
10.17
10.21
10.14
9.75
8.95
7.81
6.53
5.30
4.23
3.29
2.36
1.33
0.15
-1.11
-2.30
-3.28
-4.01
-4.56
-5.11
-5.83
-6.81
-8.03
-9.36
-10.64
-11.76
-12.76
-13.75
-14.91
-16.35
-18.14
-20.21
-22.40
-24.47
-26.06
-26.77
-26.22
-24.21
-20.80
-16.34
-11.41
-6.58
-2.29
1.28
4.15
6.44
8.22
9.50
10.27
10.55
10.44
10.17
10.02
10.21
10.88
12.02
13.50
15.09
16.56
17.71
18.45
18.79
18.81
18.59
18.20
17.64
16.89
15.93
14.76
13.43
12.00
10.50
8.95
7.34
5.67
3.94
2.21
0.51
-1.15
-2.79
-4.50
-6.28
-8.06
-9.66
-10.88
-11.53
-11.59
-11.17
-10.49
-9.72
-8.99
-8.33
-7.71
-7.13
-6.60
-6.14
-5.79
-5.51
-5.24
-4.94
-4.56
-4.11
-3.65
-3.23
-2.90
-2.67
-2.51
-2.37
-2.21
-2.00
-1.74
-1.47
-1.23
-1.04
-0.91
-0.83
-0.77
-0.71
-0.63
-0.52
-0.41
-0.30
-0.22
-0.18
-0.16
-0.15
-0.14
-0.12
-0.09
-0.06
-0.04
-0.02
-0.01
-0.01
-0.02
-0.02
-0.03
-0.03
-0.03
-0.03
-0.03
-0.03
-0.03
-0.03
-0.03
-0.03
-0.03
-0.03
-0.03
-0.03
-0.03
-0.03
-0.03
-0.03
-0.03
-0.03
-0.03
-0.03
-0.03
-0.03
-0.03
-0.03
-0.03
-0.03
-0.03
-0.03
-0.03
-0.03
-0.03
-0.03
-0.03
-0.03
-0.03
-0.03
-0.03
-0.03
-0.03
-0.03
-0.03
-0.03
-0.03
-0.03
-0.03
-0.03
-0.03
-0.03
-0.03
-0.03
-0.03
-0.03
-0.02
-0.03
-0.02
-0.02
-0.02
-0.02
-0.02
-0.02
-0.02
-0.02
-0.02
-0.02
-0.02
-0.02
-0.02
-0.02
-0.02
-0.02
-0.02
-0.02
-0.02
-0.02
-0.02
-0.02
-0.02
-0.02
-0.02
-0.02
-0.02
-0.02
-0.02
-0.02
-0.02
-0.02
-0.02
-0.02
-0.02
-0.02
-0.02
-0.02
-0.02
-0.02
-0.02
-0.02
-0.02
-0.02
-0.02
-0.02
-0.02
-0.02
-0.02
-0.02
-0.02
-0.02
-0.02
-0.02
-0.02
-0.02
-0.02
-0.02
-0.02
-0.02
-0.02
-0.02
-0.02
-0.02
-0.02
-0.02
-0.02
-0.02
-0.02
-0.02
-0.02
-0.02
-0.02
-0.02
-0.02
-0.02
-0.02
-0.02
-0.02
-0.02
-0.02
-0.02
-0.02
-0.02
-0.02
-0.02
-0.02
-0.02
-0.02
-0.02
-0.02
-0.02
-0.02
-0.02
-0.02
-0.01
-0.00
0.00
0.01
0.01
0.01
-0.01
-0.03
-0.05
-0.07
-0.09
-0.10
-0.11
-0.12
-0.13
-0.15
-0.17
-0.19
-0.20
-0.20
-0.19
-0.19
-0.19
-0.21
-0.25
-0.31
-0.36
-0.39
-0.39
-0.38
-0.36
-0.37
-0.43
-0.54
-0.67
-0.81
-0.91
-0.96
-0.96
-0.94
-0.97
-1.08
-1.29
-1.58
-1.87
-2.10
-2.24
-2.28
-2.28
-2.33
-2.51
-2.84
-3.31
-3.82
-4.27
-4.58
-4.71
-4.72
-4.73
-4.90
-5.44
-6.47
-8.02
-9.89
-11.74
-13.07
-13.40
-12.43
-10.16
-6.85
-2.97
1.01
4.68
7.79
10.24
11.98
13.03
13.41
13.21
12.53
11.54
10.37
9.21
8.21
7.52
7.24
7.34
7.71
8.09
8.26
8.08
7.55
6.84
6.15
5.60
5.20
4.80
4.21
3.27
1.92
0.23
-1.70
-3.70
-5.68
-7.57
-9.37
-11.08
-12.76
-14.44
-16.21
-18.12
-20.17
-22.22
-23.98
-24.99
-24.76
-22.94
-19.49
-14.76
-9.38
-4.12
0.41
3.92
6.42
8.10
9.23
9.97
10.40
10.50
10.26
9.75
9.07
8.37
7.76
7.32
7.11
7.13
7.38
7.79
8.19
8.40
8.22
7.58
6.47
5.04
3.47
1.93
0.50
-0.83
-2.14
-3.51
-5.01
-6.63
-8.34
-9.98
-11.37
-12.31
-12.72
-12.62
-12.24
-11.84
-11.67
-11.78
-11.99
-11.89
-11.06
-9.18
-6.18
-2.28
2.10
6.55
10.75
14.52
17.82
20.64
22.96
24.77
26.05
26.88
27.36
27.61
27.72
27.70
27.57
27.38
27.23
27.25
27.54
28.07
28.68
29.17
29.27
28.80
27.67
25.93
23.72
21.19
18.47
15.57
12.45
9.08
5.49
1.86
-1.61
-4.71
-7.35
-9.59
-11.56
-13.37
-15.06
-16.64
-18.07
-19.35
-20.52
-21.51
-22.14
-22.06
-20.95
-18.62
-15.18
-11.00
-6.65
-2.62
0.77
3.46
5.57
7.30
8.76
9.96
10.82
11.28
11.32
11.04
10.59
10.08
9.55
8.96
8.25
7.42
6.56
5.81
5.29
5.02
4.89
4.72
4.38
3.79
2.96
1.97
0.87
-0.30
-1.54
-2.81
-4.07
-5.31
-6.51
-7.75
-9.09
-10.60
-12.33
-14.25
-16.36
-18.66
-21.09
-23.50
-25.59
-26.93
-27.09
-25.83
-23.22
-19.68
-15.78
-12.11
-9.03
-6.60
-4.67
-3.04
-1.61
-0.42
0.42
0.83
0.82
0.52
0.10
-0.27
-0.53
-0.69
-0.84
-1.09
-1.48
-2.05
-2.73
-3.42
-3.99
-4.38
-4.58
-4.71
-4.93
-5.34
-5.96
-6.72
-7.49
-8.23
-9.04
-10.09
-11.56
-13.50
-15.78
-18.19
-20.49
-22.56
-24.37
-25.96
-27.42
-28.79
-30.12
-31.36
-32.38
-32.91
-32.58
-31.00
-27.95
-23.49
-17.99
-12.01
-6.14
-0.81
3.77
7.59
10.76
13.40
15.59
17.43
18.97
20.30
21.54
22.76
23.97
25.11
26.01
26.46
26.29
25.42
23.89
21.88
19.61
17.26
14.90
12.46
9.81
6.89
3.76
0.69
-2.01
-4.04
-5.31
-5.91
-6.08
-6.05
-5.96
-5.83
-5.64
-5.42
-5.29
-5.44
-5.99
-6.94
-8.20
-9.61
-11.01
-12.29
-13.27
-13.69
-13.23
-11.61
-8.72
-4.73
-0.01
4.95
9.66
13.79
17.14
19.63
21.27
22.16
22.45
22.35
22.09
21.83
21.71
21.72
21.78
21.74
21.41
20.64
19.41
17.81
16.06
14.36
12.85
11.49
10.19
8.85
7.45
6.10
4.89
3.86
2.95
2.04
1.01
-0.15
-1.42
-2.71
-3.97
-5.21
-6.47
-7.74
-8.98
-10.14
-11.26
-12.48
-14.00
-15.94
-18.22
-20.44
-22.04
-22.45
-21.37
-18.90
-15.43
-11.51
-7.58
-3.88
-0.51
2.46
4.89
6.63
7.60
7.89
7.82
7.82
8.24
9.23
10.69
12.34
13.81
14.77
15.05
14.60
13.52
11.96
10.13
8.21
6.37
4.71
3.25
1.99
0.83
-0.34
-1.62
-3.04
-4.56
-6.08
-7.51
-8.81
-9.98
-11.10
-12.25
-13.50
-14.89
-16.35
-17.73
-18.78
-19.15
-18.52
-16.68
-13.61
-9.55
-4.95
-0.35
3.82
7.24
9.82
11.60
12.67
13.10
12.92
12.14
10.85
9.23
7.51
5.96
4.72
3.83
3.18
2.62
2.04
1.42
0.87
0.44
0.16
-0.08
-0.43
-1.00
-1.83
-2.86
-4.01
-5.20
-6.39
-7.56
-8.66
-9.61
-10.38
-11.00
-11.66
-12.60
-14.07
-16.18
-18.77
-21.41
-23.45
-24.24
-23.32
-20.60
-16.39
-11.30
-6.01
-1.07
3.21
6.77
9.69
12.09
14.00
15.42
16.26
16.51
16.18
15.40
14.32
13.10
11.86
10.70
9.67
8.85
8.26
7.88
7.63
7.39
7.00
6.40
5.59
4.67
3.70
2.66
1.47
0.00
-1.79
-3.82
-5.92
-7.86
-9.48
-10.74
-11.71
-12.53
-13.37
-14.41
-15.75
-17.38
-19.10
-20.58
-21.37
-21.06
-19.42
-16.48
-12.56
-8.17
-3.91
-0.27
2.45
4.17
5.06
5.42
5.58
5.78
6.07
6.36
6.55
6.55
6.42
6.33
6.45
6.92
7.77
8.96
10.39
11.96
13.52
14.93
16.03
16.67
16.80
16.47
15.76
14.75
13.46
11.83
9.81
7.40
4.77
2.16
-0.12
-1.83
-2.89
-3.45
-3.82
-4.42
-5.61
-7.56
-10.20
-13.17
-15.96
-17.99
-18.81
-18.17
-16.10
-12.88
-8.88
-4.48
0.00
4.29
8.12
11.21
13.29
14.16
13.85
12.63
10.92
9.19
7.80
6.92
6.55
6.61
7.01
7.73
8.79
10.14
11.68
13.25
14.69
15.91
16.86
17.55
18.00
18.16
17.98
17.39
16.41
15.13
13.68
12.21
10.82
9.55
8.35
7.14
5.77
4.12
2.15
-0.01
-2.08
-3.70
-4.53
-4.42
-3.49
-2.04
-0.45
0.96
2.05
2.79
3.23
3.42
3.36
3.03
2.42
1.57
0.56
-0.51
-1.54
-2.45
-3.22
-3.84
-4.37
-4.83
-5.27
-5.67
-6.05
-6.43
-6.90
-7.58
-8.55
-9.85
-11.37
-12.93
-14.29
-15.26
-15.75
-15.85
-15.77
-15.80
-16.20
-17.15
-18.67
-20.59
-22.59
-24.16
-24.77
-23.97
-21.55
-17.66
-12.80
-7.66
-2.89
1.10
4.20
6.54
8.32
9.67
10.56
10.92
10.73
10.12
9.30
8.51
7.90
7.46
7.10
6.69
6.15
5.47
4.68
3.81
2.84
1.74
0.39
-1.28
-3.32
-5.71
-8.34
-11.00
-13.48
-15.60
-17.29
-18.65
-19.90
-21.30
-23.01
-25.08
-27.33
-29.45
-30.96
-31.39
-30.34
-27.65
-23.43
-18.10
-12.22
-6.34
-0.90
3.91
8.03
11.47
14.19
16.10
17.13
17.27
16.70
15.78
14.89
14.39
14.41
14.85
15.42
15.77
15.67
15.11
14.25
13.32
12.50
11.82
11.18
10.42
9.44
8.22
6.81
5.33
3.85
2.43
1.04
-0.36
-1.86
-3.57
-5.54
-7.79
-10.28
-12.93
-15.56
-17.92
-19.65
-20.30
-19.46
-16.91
-12.74
-7.37
-1.41
4.53
10.08
15.13
19.76
24.07
28.05
31.51
34.17
35.76
36.10
35.24
33.37
30.83
27.99
25.18
22.65
20.56
18.99
17.98
17.51
17.47
17.66
17.85
17.82
17.42
16.59
15.35
13.71
11.69
9.29
6.52
3.47
0.22
-3.12
-6.52
-10.01
-13.67
-17.55
-21.67
-25.99
-30.35
-34.43
-37.81
-39.94
-40.36
-38.77
-35.25
-30.21
-24.28
-18.17
-12.43
-7.36
-3.02
0.65
3.70
6.13
7.87
8.87
9.20
9.10
8.85
8.72
8.83
9.17
9.57
9.86
9.95
9.81
9.45
8.87
8.03
6.85
5.32
3.57
1.79
0.18
-1.14
-2.22
-3.24
-4.44
-5.99
-7.87
-9.95
-11.97
-13.70
-15.03
-16.03
-16.87
-17.84
-19.22
-21.13
-23.50
-26.02
-28.18
-29.40
-29.21
-27.36
-23.91
-19.21
-13.76
-8.09
-2.63
2.32
6.55
9.95
12.43
13.94
14.54
14.35
13.58
12.43
11.12
9.77
8.48
7.26
6.13
5.10
4.17
3.31
2.46
1.55
0.53
-0.55
-1.56
-2.30
-2.58
-2.29
-1.49
-0.37
0.84
1.88
2.59
2.92
2.92
2.69
2.31
1.88
1.48
1.11
0.74
0.24
-0.55
-1.83
-3.70
-6.09
-8.73
-11.15
-12.86
-13.44
-12.66
-10.63
-7.64
-4.17
-0.68
2.46
5.01
6.91
8.17
8.86
9.04
8.78
8.13
7.22
6.16
5.10
4.20
3.57
3.32
3.53
4.19
5.26
6.58
7.97
9.22
10.16
10.72
10.86
10.64
10.13
9.43
8.65
7.85
7.06
6.27
5.39
4.37
3.20
1.93
0.72
-0.32
-1.13
-1.76
-2.34
-3.05
-4.04
-5.41
-7.16
-9.17
-11.16
-12.75
-13.50
-13.04
-11.29
-8.44
-4.97
-1.46
1.54
3.74
5.06
5.64
5.67
5.31
4.67
3.82
2.81
1.72
0.67
-0.27
-1.03
-1.63
-2.17
-2.74
-3.43
-4.24
-5.12
-6.01
-6.90
-7.86
-8.95
-10.23
-11.62
-12.97
-14.12
-14.94
-15.39
-15.51
-15.37
-15.04
-14.59
-14.14
-13.83
-13.85
-14.32
-15.30
-16.64
-18.01
-18.94
-18.87
-17.36
-14.22
-9.58
-3.88
2.21
8.02
13.04
17.01
19.91
21.89
23.12
23.83
24.21
24.42
24.56
24.69
24.79
24.79
24.60
24.21
23.60
22.86
22.05
21.26
20.51
19.76
18.91
17.79
16.24
14.21
11.76
9.13
6.60
4.42
2.72
1.45
0.47
-0.47
-1.60
-3.14
-5.26
-8.00
-11.25
-14.66
-17.69
-19.73
-20.30
-19.19
-16.57
-12.89
-8.81
-4.94
-1.72
0.61
2.02
2.66
2.70
2.32
1.64
0.71
-0.42
-1.69
-2.96
-4.04
-4.72
-4.89
-4.60
-4.03
-3.37
-2.82
-2.44
-2.24
-2.18
-2.25
-2.43
-2.74
-3.13
-3.54
-3.93
-4.25
-4.49
-4.63
-4.67
-4.60
-4.41
-4.13
-3.84
-3.63
-3.62
-3.88
-4.43
-5.18
-5.86
-6.13
-5.56
-3.83
-0.84
3.22
7.92
12.74
17.17
20.86
23.63
25.47
26.46
26.73
26.36
25.43
24.00
22.20
20.18
18.15
16.28
14.66
13.24
11.87
10.39
8.71
6.86
4.89
2.85
0.75
-1.46
-3.79
-6.15
-8.42
-10.48
-12.28
-13.90
-15.48
-17.12
-18.80
-20.41
-21.80
-22.86
-23.61
-24.15
-24.69
-25.36
-26.24
-27.22
-28.08
-28.42
-27.80
-25.84
-22.35
-17.43
-11.50
-5.13
1.08
6.71
11.55
15.60
18.90
21.48
23.32
24.34
24.52
23.93
22.77
21.33
19.92
18.76
17.97
17.54
17.31
17.14
16.87
16.47
15.93
15.29
14.56
13.71
12.71
11.49
10.03
8.32
6.37
4.22
1.98
-0.22
-2.24
-4.00
-5.45
-6.66
-7.71
-8.72
-9.81
-11.14
-12.84
-14.98
-17.46
-19.95
-21.91
-22.75
-22.03
-19.61
-15.71
-10.85
-5.69
-0.83
3.33
6.64
9.14
10.98
12.33
13.28
13.82
13.87
13.38
12.44
11.24
10.12
9.33
8.96
8.88
8.82
8.56
8.02
7.33
6.61
5.94
5.23
4.30
3.05
1.52
-0.04
-1.37
-2.31
-2.93
-3.47
-4.24
-5.42
-7.02
-8.86
-10.67
-12.23
-13.40
-14.19
-14.79
-15.46
-16.51
-18.15
-20.38
-22.92
-25.23
-26.66
-26.68
-25.05
-21.93
-17.78
-13.14
-8.49
-4.16
-0.33
2.91
5.48
7.30
8.34
8.65
8.37
7.71
6.88
6.08
5.47
5.15
5.14
5.39
5.78
6.18
6.50
6.71
6.79
6.71
6.45
6.00
5.39
4.74
4.24
4.01
4.15
4.63
5.31
5.96
6.38
6.38
5.93
5.08
4.01
2.92
1.94
1.07
0.18
-0.94
-2.48
-4.48
-6.81
-9.15
-11.07
-12.15
-12.10
-10.80
-8.37
-5.10
-1.38
2.36
5.80
8.73
11.05
12.73
13.79
14.24
14.10
13.39
12.21
10.72
9.10
7.53
6.13
4.97
4.04
3.30
2.68
2.10
1.49
0.81
-0.00
-0.99
-2.16
-3.54
-5.08
-6.71
-8.33
-9.82
-11.12
-12.21
-13.17
-14.14
-15.22
-16.42
-17.64
-18.69
-19.43
-19.87
-20.18
-20.67
-21.61
-23.11
-25.03
-26.98
-28.38
-28.66
-27.44
-24.59
-20.33
-15.10
-9.46
-3.91
1.19
5.65
9.40
12.42
14.65
16.05
16.60
16.42
15.72
14.80
13.95
13.35
13.05
13.01
13.10
13.18
13.13
12.86
12.35
11.62
10.73
9.77
8.78
7.71
6.49
5.02
3.27
1.36
-0.51
-2.12
-3.34
-4.21
-4.87
-5.51
-6.23
-7.13
-8.23
-9.59
-11.18
-12.87
-14.38
-15.27
-15.12
-13.67
-10.95
-7.25
-3.01
1.32
5.36
8.85
11.69
13.83
15.33
16.25
16.64
16.58
16.14
15.47
14.77
14.25
14.06
14.20
14.53
14.82
14.91
14.74
14.39
13.93
13.38
12.67
11.68
10.32
8.56
6.45
4.04
1.37
-1.52
-4.54
-7.57
-10.42
-12.94
-15.09
-16.93
-18.64
-20.40
-22.36
-24.58
-27.04
-29.59
-31.92
-33.59
-34.07
-32.88
-29.78
-24.84
-18.52
-11.50
-4.52
1.85
7.31
11.79
15.33
18.00
19.85
20.91
21.25
21.04
20.49
19.82
19.16
18.56
17.97
17.33
16.64
15.93
15.25
14.63
14.03
13.35
12.46
11.29
9.84
8.19
6.47
4.81
3.27
1.86
0.49
-0.92
-2.39
-3.87
-5.26
-6.39
-7.17
-7.62
-7.90
-8.26
-8.97
-10.19
-11.91
-13.92
-15.84
-17.25
-17.78
-17.23
-15.57
-12.99
-9.78
-6.31
-2.93
0.09
2.59
4.52
5.90
6.80
7.24
7.29
7.05
6.66
6.37
6.38
6.84
7.74
8.91
10.08
11.00
11.52
11.62
11.35
10.83
10.10
9.17
8.05
6.77
5.39
4.01
2.63
1.22
-0.34
-2.15
-4.21
-6.41
-8.53
-10.33
-11.62
-12.37
-12.67
-12.77
-12.96
-13.54
-14.65
-16.22
-17.95
-19.29
-19.65
-18.52
-15.74
-11.50
-6.30
-0.78
4.50
9.17
13.07
16.14
18.35
19.66
20.04
19.56
18.42
16.94
15.47
14.20
13.19
12.31
11.40
10.37
9.24
8.17
7.32
6.78
6.48
6.21
5.73
4.91
3.74
2.39
1.08
0.01
-0.75
-1.27
-1.74
-2.36
-3.27
-4.52
-6.03
-7.63
-9.10
-10.27
-11.03
-11.43
-11.64
-11.91
-12.54
-13.75
-15.57
-17.83
-20.10
-21.78
-22.28
-21.17
-18.31
-13.91
-8.49
-2.68
2.89
7.78
11.75
14.75
16.85
18.13
18.69
18.62
18.06
17.19
16.25
15.45
14.89
14.54
14.26
13.84
13.19
12.30
11.32
10.41
9.68
9.06
8.40
7.48
6.20
4.63
2.93
1.32
-0.06
-1.23
-2.29
-3.43
-4.75
-6.26
-7.82
-9.24
-10.34
-11.02
-11.32
-11.41
-11.55
-11.98
-12.91
-14.41
-16.40
-18.59
-20.53
-21.66
-21.42
-19.50
-15.91
-11.03
-5.48
0.05
5.06
9.27
12.68
15.33
17.26
18.45
18.82
18.34
17.12
15.43
13.61
11.99
10.77
10.00
9.58
9.35
9.21
9.15
9.26
9.61
10.19
10.80
11.11
10.79
9.64
7.64
4.98
1.94
-1.24
-4.41
-7.50
-10.47
-13.24
-15.66
-17.56
-18.84
-19.46
-19.53
-19.23
-18.78
-18.40
-18.34
-18.79
-19.81
-21.21
-22.57
-23.25
-22.62
-20.32
-16.44
-11.49
-6.20
-1.24
2.98
6.39
9.14
11.42
13.30
14.72
15.58
15.77
15.35
14.44
13.27
12.04
10.94
10.08
9.50
9.16
8.94
8.68
8.27
7.60
6.68
5.57
4.36
3.11
1.86
0.58
-0.78
-2.29
-3.97
-5.76
-7.52
-9.06
-10.27
-11.10
-11.67
-12.19
-12.86
-13.79
-15.00
-16.44
-18.04
-19.71
-21.26
-22.34
-22.47
-21.21
-18.34
-14.06
-8.89
-3.55
1.34
5.50
8.91
11.74
14.12
16.04
17.39
18.01
17.89
17.14
16.04
14.91
14.04
13.56
13.47
13.62
13.81
13.88
13.73
13.38
12.88
12.32
11.73
11.11
10.39
9.46
8.24
6.68
4.83
2.82
0.83
-1.01
-2.63
-4.10
-5.53
-7.01
-8.63
-10.39
-12.31
-14.37
-16.44
-18.28
-19.48
-19.53
-18.08
-15.07
-10.79
-5.86
-0.96
3.36
6.82
9.39
11.20
12.40
13.08
13.26
12.93
12.12
10.95
9.62
8.33
7.26
6.51
6.01
5.65
5.26
4.73
4.02
3.18
2.25
1.24
0.11
-1.17
-2.58
-4.04
-5.45
-6.74
-7.96
-9.17
-10.47
-11.87
-13.29
-14.62
-15.72
-16.56
-17.16
-17.60
-18.07
-18.74
-19.76
-21.13
-22.65
-23.85
-24.13
-22.95
-20.07
-15.63
-10.14
-4.28
1.31
6.20
10.18
13.21
15.30
16.51
16.92
16.65
15.89
14.86
13.78
12.81
12.03
11.46
11.09
10.86
10.71
10.59
10.45
10.25
9.97
9.56
8.92
7.98
6.68
5.05
3.25
1.46
-0.13
-1.49
-2.67
-3.85
-5.15
-6.60
-8.10
-9.50
-10.69
-11.71
-12.76
-14.04
-15.71
-17.73
-19.87
-21.72
-22.85
-22.88
-21.53
-18.76
-14.69
-9.68
-4.17
1.36
6.50
10.99
14.67
17.49
19.43
20.51
20.78
20.37
19.46
18.31
17.13
16.06
15.17
14.40
13.68
12.91
12.10
11.31
10.64
10.12
9.72
9.25
8.50
7.29
5.58
3.47
1.18
-1.06
-3.09
-4.87
-6.41
-7.73
-8.85
-9.74
-10.46
-11.08
-11.72
-12.52
-13.55
-14.88
-16.52
-18.40
-20.28
-21.76
-22.34
-21.54
-19.11
-15.20
-10.29
-5.02
0.02
4.47
8.22
11.28
13.67
15.37
16.33
16.58
16.22
15.47
14.53
13.52
12.49
11.41
10.26
9.09
8.02
7.13
6.49
6.00
5.51
4.78
3.62
1.95
-0.17
-2.56
-4.99
-7.26
-9.23
-10.83
-12.08
-13.00
-13.61
-13.95
-14.05
-13.95
-13.66
-13.25
-12.85
-12.64
-12.87
-13.78
-15.46
-17.83
-20.53
-22.99
-24.57
-24.75
-23.23
-20.07
-15.61
-10.37
-4.91
0.33
5.03
9.03
12.29
14.80
16.59
17.71
18.25
18.35
18.12
17.69
17.16
16.59
16.02
15.51
15.09
14.78
14.60
14.54
14.53
14.49
14.32
13.90
13.17
12.09
10.75
9.32
8.00
6.97
6.28
5.86
5.52
5.04
4.27
3.14
1.73
0.19
-1.29
-2.59
-3.71
-4.76
-5.90
-7.33
-9.15
-11.30
-13.58
-15.59
-16.84
-16.85
-15.25
-11.99
-7.29
-1.68
4.19
9.68
14.37
18.07
20.82
22.78
24.04
24.70
24.85
24.60
24.05
23.26
22.24
20.90
19.19
17.03
14.45
11.56
8.50
5.34
2.04
-1.51
-5.34
-9.39
-13.43
-17.12
-19.98
-21.53
-21.39
-19.54
-16.33
-12.62
-9.61
-8.62
-10.94
-16.69
-24.08
-29.98
-31.74
-28.43
-21.00
-11.41
-1.78
6.59
13.40
18.02
20.27
20.07
17.74
14.05
10.52
8.93
10.46
15.01
21.02
26.17
28.46
27.79
24.87
21.34
18.78
17.77
17.50
16.23
12.40
5.05
-4.86
-15.40
-24.45
-30.70
-34.00
-35.28
-35.72
-36.07
-36.41
-36.22
-34.99
-32.40
-29.09
-25.22
-21.23
-17.42
-13.76
-9.98
-5.82
-1.36
2.95
6.48
8.69
9.24
8.28
6.31
4.06
2.21
1.22
1.25
2.19
3.82
5.70
7.41
8.64
9.21
9.06
8.10
6.29
3.71
0.53
-3.06
-6.81
-10.48
-13.82
-16.63
-18.73
-19.95
-20.08
-18.91
-16.31
-12.38
-7.49
-2.23
2.68
6.61
9.20
10.41
10.50
9.80
8.64
7.20
5.73
4.41
3.40
2.76
2.48
2.40
2.19
1.46
-0.21
-2.88
-6.38
-10.33
-14.18
-17.20
-18.69
-18.20
-15.62
-11.39
-5.97
-0.01
5.83
10.97
15.13
18.36
20.91
23.19
25.44
28.20
31.85
36.54
41.94
47.20
51.21
52.66
50.60
41.89
25.81
4.71
-17.10
-36.24
-51.18
-61.15
-66.25
-65.54
-58.57
-46.02
-30.41
-15.16
-3.50
1.92
0.17
-8.84
-22.67
-37.66
-50.33
-60.41
-68.66
-75.27
-80.02
-82.22
-81.08
-75.91
-66.91
-54.98
-41.55
-27.94
-15.28
-4.34
4.72
12.24
18.98
25.41
31.63
37.29
42.02
45.41
47.21
47.63
47.30
47.21
48.15
50.48
54.09
58.69
63.83
68.97
73.52
76.86
78.58
78.44
76.62
73.74
70.72
68.38
67.02
66.34
65.63
64.42
62.55
60.15
57.45
54.45
50.92
46.52
40.81
33.38
24.13
13.22
1.19
-10.92
-21.88
-30.38
-35.63
-37.65
-38.55
-40.23
-43.79
-48.73
-53.65
-57.79
-61.27
-64.66
-68.17
-71.07
-71.58
-67.85
-59.48
-46.93
-32.35
-18.82
-9.17
-4.98
-5.93
-9.87
-13.83
-15.27
-12.96
-7.63
-1.69
1.82
0.07
-8.50
-23.32
-41.64
-59.19
-71.40
-75.14
-69.73
-57.08
-40.78
-24.64
-11.38
-2.08
3.58
6.94
9.24
11.27
13.32
15.55
18.22
21.65
25.92
30.67
35.59
40.17
43.75
45.68
45.66
43.92
41.12
38.04
35.31
33.79
33.99
35.81
38.66
42.01
45.67
49.70
53.94
54.29
47.37
32.27
11.36
-11.33
-32.02
-47.97
-57.67
-60.91
-58.67
-52.79
-44.25
-34.08
-23.62
-14.06
-6.26
-0.59
2.97
4.85
6.30
7.97
10.50
14.00
18.10
22.20
25.61
27.81
28.50
27.94
26.56
24.66
22.21
19.02
14.87
9.68
3.58
-3.07
-9.66
-15.48
-19.95
-22.83
-24.22
-24.60
-24.60
-24.70
-25.11
-25.60
-25.71
-24.88
-22.78
-19.37
-15.10
-10.74
-7.09
-4.88
-4.53
-6.09
-9.09
-12.67
-14.85
-14.04
-9.91
-3.78
2.05
5.58
5.85
3.23
-0.81
-4.40
-6.28
-6.19
-4.94
-4.03
-4.75
-7.56
-11.76
-15.76
-17.94
-17.40
-14.40
-9.38
-3.29
2.62
6.66
6.75
1.04
-10.93
-26.83
-41.00
-46.48
-38.64
-17.89
10.05
36.74
55.41
63.67
62.68
55.90
46.72
36.71
25.82
13.50
0.10
-12.73
-22.85
-28.80
-30.44
-29.02
-26.62
-25.09
-25.31
-26.91
-28.73
-28.99
-26.94
-22.79
-17.60
-12.84
-9.67
-8.43
-8.56
-8.92
-8.38
-6.50
-3.60
-0.60
1.45
1.96
1.03
-0.51
-1.56
-1.03
1.50
5.85
11.20
16.62
21.44
25.52
29.21
33.01
37.38
42.13
46.35
48.69
47.99
43.97
37.37
29.65
22.34
16.79
13.61
12.70
13.48
15.37
17.95
20.91
23.91
24.97
22.83
17.85
11.90
6.73
2.58
-1.68
-7.61
-16.14
-26.97
-38.30
-47.58
-52.51
-51.84
-45.76
-35.83
-24.50
-14.43
-7.57
-4.37
-3.95
-4.85
-5.81
-6.27
-6.41
-6.57
-7.01
-7.64
-7.99
-7.52
-5.99
-3.45
-0.12
3.74
7.99
12.51
17.12
21.53
25.35
28.02
29.16
28.72
26.98
24.53
22.04
20.13
18.96
18.72
19.16
19.65
19.64
18.84
17.17
14.74
11.83
8.91
6.64
5.02
4.24
4.36
5.19
6.34
7.36
7.82
7.36
6.52
5.51
4.58
3.95
3.70
3.80
4.06
4.27
4.24
3.87
3.05
1.78
0.25
-1.34
-2.83
-4.26
-5.78
-7.65
-10.06
-13.20
-17.11
-21.52
-25.92
-29.83
-33.09
-35.88
-38.55
-41.43
-44.65
-48.23
-51.69
-54.27
-55.42
-55.12
-53.75
-51.75
-49.24
-46.04
-42.01
-36.67
-29.47
-20.14
-8.89
3.74
16.86
29.13
40.72
49.07
50.69
43.92
30.51
14.57
0.46
-9.02
-13.27
-13.46
-11.81
-9.83
-7.85
-5.54
-2.63
0.67
3.69
5.79
6.67
6.30
5.33
4.72
5.17
6.75
8.97
11.07
12.47
12.92
12.42
11.46
10.73
10.74
11.69
13.32
15.12
16.61
17.43
17.43
16.83
16.11
15.74
16.13
17.26
18.75
19.92
20.06
18.65
15.59
11.28
6.10
1.06
-3.36
-7.28
-11.29
-16.20
-22.60
-30.50
-38.64
-46.31
-52.41
-56.29
-57.96
-58.10
-57.67
-57.65
-58.96
-62.44
-68.61
-76.64
-84.06
-86.78
-80.45
-62.55
-34.12
-0.05
32.53
57.12
70.63
74.08
71.51
67.61
65.31
65.15
65.88
65.88
64.45
62.05
59.78
58.52
58.43
59.22
60.52
62.61
66.15
71.39
77.13
80.34
77.19
64.59
42.40
14.09
-14.30
-36.69
-49.36
-52.16
-47.93
-40.52
-33.05
-26.75
-21.46
-16.65
-12.23
-8.72
-6.71
-6.34
-7.10
-8.24
-8.71
-7.95
-5.97
-3.32
-0.78
0.93
1.38
0.58
-1.33
-3.58
-5.40
-6.28
-6.13
-5.36
-4.83
-5.62
-8.60
-14.46
-22.71
-32.23
-41.65
-50.01
-56.95
-62.92
-68.90
-73.86
-79.47
-86.55
-95.55
-106.42
-117.97
-127.28
-129.98
-121.79
-100.71
-69.08
-32.70
0.84
25.28
38.02
40.67
37.31
31.99
26.90
21.91
16.23
9.62
2.98
-2.05
-4.22
-3.39
-0.56
2.80
5.45
7.08
8.36
10.45
14.34
20.22
27.39
34.47
39.94
42.63
42.22
39.16
34.54
29.43
24.50
19.94
15.52
10.86
5.59
-0.43
-7.14
-13.98
-20.51
-26.47
-31.71
-36.28
-40.30
-44.08
-48.01
-52.63
-57.83
-63.51
-69.44
-75.13
-80.01
-83.65
-86.01
-87.56
-89.27
-91.33
-93.83
-96.29
-97.58
-96.14
-90.38
-78.97
-60.65
-39.93
-18.84
1.50
20.99
40.45
61.14
84.31
110.81
140.67
172.77
205.45
235.44
258.49
270.61
269.35
254.80
229.50
197.35
162.05
126.59
92.10
58.64
26.25
-4.50
-32.59
-57.37
-79.27
-100.08
-121.88
-146.50
-174.26
-203.20
-228.94
-245.62
-247.63
-231.73
-198.78
-153.86
-105.18
-61.24
-27.93
-6.59
5.94
15.71
29.07
50.49
81.37
119.88
161.76
201.68
234.65
257.24
268.38
269.29
262.83
252.29
240.18
227.67
214.71
200.63
184.78
166.93
147.36
126.72
106.07
86.82
70.69
59.39
54.12
55.19
61.82
72.19
83.83
94.02
100.36
101.19
95.93
85.17
70.34
53.19
35.24
17.41
0.07
-16.59
-32.06
-45.28
-54.79
-59.34
-58.46
-52.88
-44.42
-35.41
-27.89
-22.81
-19.84
-17.60
-14.56
-9.88
-3.89
2.24
7.25
10.74
13.53
17.21
23.18
31.64
41.21
49.32
53.27
51.27
43.03
29.75
13.54
-3.25
-18.62
-31.28
-40.92
-48.24
-54.75
-62.33
-72.52
-85.87
-101.54
-117.48
-131.14
-140.39
-144.37
-143.98
-141.73
-141.15
-145.52
-156.38
-172.35
-188.71
-198.43
-194.44
-172.32
-132.29
-79.54
-22.50
29.97
71.24
98.42
112.10
115.01
110.50
101.53
90.50
79.51
70.51
65.01
63.49
64.84
66.44
64.71
56.48
40.09
15.94
-13.78
-46.27
-79.41
-112.48
-145.93
-180.27
-214.80
-247.11
-273.58
-290.67
-296.28
-290.55
-275.80
-255.89
-235.40
-218.81
-209.89
-210.90
-222.03
-241.15
-264.36
-287.16
-305.80
-318.10
-323.34
-321.44
-312.29
-295.44
-270.66
-238.54
-200.90
-160.48
-120.09
-81.87
-46.81
-14.94
14.16
40.70
64.37
84.38
99.84
110.25
115.91
118.03
118.49
119.38
122.31
128.09
136.50
146.51
156.59
165.13
170.79
172.78
171.01
165.95
158.43
149.38
139.61
129.92
121.12
114.04
109.32
107.07
106.72
107.25
107.78
108.17
109.34
112.88
120.03
130.76
143.14
153.77
158.88
155.78
143.96
125.52
104.57
86.11
74.39
71.53
76.70
86.22
94.71
96.92
89.65
72.91
49.92
25.81
5.75
-6.53
-9.29
-2.35
13.80
38.43
70.41
107.48
145.95
181.30
209.57
228.87
240.08
246.36
251.75
259.69
272.19
289.59
310.87
333.86
355.32
371.21
377.40
370.81
350.58
318.38
277.75
232.70
186.29
140.07
94.47
49.75
6.62
-33.68
-69.91
-101.54
-128.97
-153.23
-175.50
-196.57
-216.67
-235.50
-252.35
-266.16
-275.68
-279.77
-277.90
-270.61
-259.72
-247.89
-237.78
-231.13
-228.13
-227.52
-227.27
-225.56
-221.60
-216.07
-211.09
-209.59
-214.52
-227.89
-249.79
-277.84
-307.05
-330.69
-342.21
-337.43
-316.47
-283.90
-247.29
-214.30
-190.07
-175.87
-169.40
-166.33
-162.06
-152.80
-136.17
-111.34
-79.21
-42.51
-5.20
28.73
56.79
78.86
96.90
113.41
129.90
146.01
160.01
170.04
175.22
175.84
172.79
166.60
157.02
143.43
125.88
105.93
86.72
72.13
65.16
66.48
73.98
83.44
89.93
89.44
79.95
62.25
39.26
15.06
-6.30
-21.55
-28.45
-26.28
-15.94
0.13
18.93
37.48
53.46
65.32
72.38
75.11
74.46
71.56
67.23
62.69
58.85
55.76
52.21
46.39
37.98
27.63
16.85
6.48
-1.28
-4.68
-3.09
2.27
9.22
18.05
28.94
41.05
50.16
54.95
55.69
54.13
51.63
49.12
50.78
59.03
73.03
85.75
94.91
101.11
107.65
116.88
130.00
151.99
185.34
228.18
270.08
306.18
334.63
357.10
374.42
356.72
289.52
180.94
85.51
14.63
-32.29
-66.98
-91.33
-106.35
-113.76
-111.37
-99.21
-80.53
-65.68
-57.18
-60.37
-73.42
-92.15
-111.56
-124.82
-129.41
-124.12
-118.84
-117.94
-122.08
-128.03
-133.18
-136.98
-135.86
-127.23
-110.79
-91.82
-74.50
-63.06
-59.29
-63.01
-71.58
-80.08
-84.95
-85.11
-83.16
-80.61
-78.05
-74.39
-68.80
-61.80
-53.70
-45.59
-38.66
-34.27
-32.07
-30.81
-28.50
-23.79
-16.38
-6.82
3.59
13.54
21.57
26.47
26.96
22.91
15.77
8.31
3.22
1.59
2.61
4.41
5.35
4.90
3.72
2.59
1.80
1.04
-0.27
-2.18
-3.97
-4.46
-3.09
0.45
5.16
9.63
13.01
15.33
17.27
19.52
22.31
25.30
27.87
28.83
27.54
24.16
19.30
13.42
6.45
-1.99
-11.44
-21.17
-31.28
-41.99
-53.40
-65.36
-77.37
-88.54
-97.66
-103.64
-101.17
-89.17
-71.39
-54.02
-41.30
-33.56
-28.44
-23.01
-15.35
-5.10
5.98
15.81
22.96
26.94
27.93
26.52
23.68
20.65
18.59
17.55
17.16
17.04
16.98
17.08
17.32
17.63
17.88
17.94
17.26
15.46
12.63
9.23
5.86
2.91
0.58
-1.19
-2.68
-4.46
-7.04
-10.55
-14.70
-18.86
-22.35
-24.55
-25.02
-23.65
-20.74
-16.84
-12.54
-8.31
-4.43
-1.04
1.79
4.06
5.75
6.82
7.28
7.20
6.73
6.10
5.50
5.09
4.97
5.17
5.62
6.23
6.86
7.38
7.72
7.87
7.88
7.84
7.81
7.79
7.71
7.50
7.09
6.43
5.45
4.09
2.29
0.13
-2.14
-4.04
-4.98
-4.51
-2.45
0.97
5.20
9.53
13.38
16.42
18.53
19.78
20.24
19.90
18.71
16.67
13.88
10.60
7.16
3.90
1.03
-1.39
-3.43
-5.26
-7.04
-8.83
-10.63
-12.35
-13.95
-15.44
-16.94
-18.63
-20.67
-23.10
-25.82
-28.67
-31.47
-34.07
-36.29
-37.88
-38.44
-37.52
-34.75
-30.00
-23.50
-15.74
-7.38
0.96
8.79
15.80
21.82
26.72
30.43
32.93
34.23
34.49
33.85
32.52
30.68
28.44
25.92
23.21
20.41
17.59
14.77
11.93
9.01
5.98
2.84
-0.35
-3.50
-6.57
-9.53
-12.43
-15.32
-18.26
-21.24
-24.16
-26.74
-28.55
-29.06
-27.83
-24.62
-19.57
-13.15
-6.07
0.97
7.44
13.07
17.83
21.76
24.88
27.17
28.61
29.28
29.37
29.17
28.95
28.85
28.84
28.74
28.36
27.53
26.24
24.54
22.58
20.46
18.26
16.00
13.67
11.23
8.63
5.86
2.87
-0.37
-3.88
-7.67
-11.66
-15.62
-19.14
-21.71
-22.80
-22.08
-19.56
-15.58
-10.74
-5.71
-1.03
2.97
6.13
8.45
10.00
10.88
11.23
11.24
11.10
10.95
10.86
10.84
10.85
10.81
10.66
10.36
9.91
9.35
8.72
8.05
7.33
6.51
5.57
4.47
3.31
2.22
1.36
0.84
0.63
0.62
0.61
0.39
-0.18
-1.09
-2.20
-3.19
-3.67
-3.29
-1.89
0.47
3.48
6.73
9.82
12.47
14.57
16.09
17.04
17.36
17.03
16.03
14.46
12.54
10.51
8.55
6.76
5.09
3.45
1.78
0.10
-1.53
-3.05
-4.43
-5.73
-7.03
-8.42
-9.94
-11.60
-13.32
-15.04
-16.69
-18.18
-19.45
-20.44
-21.11
-21.43
-21.37
-20.98
-20.32
-19.45
-18.38
-17.01
-15.16
-12.64
-9.38
-5.41
-0.95
3.71
8.26
12.46
16.11
19.04
21.10
22.15
22.12
21.10
19.32
17.14
14.94
13.00
11.44
10.20
9.13
8.05
6.85
5.48
3.96
2.35
0.70
-0.98
-2.70
-4.48
-6.33
-8.18
-9.88
-11.24
-12.07
-12.36
-12.25
-12.07
-12.16
-12.76
-13.90
-15.42
-17.02
-18.38
-19.23
-19.29
-18.32
-16.08
-12.40
-7.36
-1.25
5.35
11.80
17.51
22.06
25.28
27.09
27.52
26.60
24.45
21.30
17.49
13.44
9.55
6.02
2.94
0.23
-2.19
-4.35
-6.19
-7.61
-8.57
-9.09
-9.27
-9.27
-9.23
-9.20
-9.13
-8.94
-8.55
-7.95
-7.21
-6.50
-6.01
-5.97
-6.49
-7.57
-8.99
-10.32
-11.06
-10.75
-9.20
-6.51
-3.10
0.52
3.88
6.70
8.88
10.44
11.40
11.78
11.60
10.93
9.85
8.52
7.10
5.69
4.36
3.11
1.87
0.57
-0.84
-2.34
-3.80
-5.07
-6.02
-6.65
-7.07
-7.44
-7.88
-8.39
-8.88
-9.19
-9.25
-9.08
-8.81
-8.61
-8.65
-9.03
-9.80
-10.94
-12.41
-14.05
-15.59
-16.68
-16.95
-16.12
-14.09
-11.00
-7.19
-3.09
0.87
4.39
7.26
9.46
11.02
12.07
12.71
13.06
13.17
13.06
12.75
12.27
11.70
11.13
10.67
10.38
10.26
10.25
10.24
10.14
9.85
9.31
8.47
7.35
5.98
4.49
3.04
1.74
0.63
-0.36
-1.35
-2.47
-3.74
-5.07
-6.36
-7.50
-8.51
-9.44
-10.35
-11.29
-12.23
-13.14
-14.04
-14.98
-15.98
-16.93
-17.55
-17.47
-16.37
-14.07
-10.69
-6.61
-2.31
1.68
4.93
7.22
8.48
8.85
8.55
7.85
6.99
6.15
5.43
4.90
4.60
4.62
4.98
5.70
6.71
7.94
9.29
10.73
12.21
13.66
14.90
15.68
15.82
15.25
14.11
12.67
11.26
10.06
9.12
8.34
7.53
6.57
5.41
4.11
2.82
1.82
1.39
1.77
3.01
4.87
6.81
8.12
8.19
6.69
3.68
-0.46
-5.23
-10.13
-14.74
-18.72
-21.77
-23.61
-24.08
-23.19
-21.12
-18.20
-14.78
-11.15
-7.52
-4.01
-0.70
2.35
5.10
7.48
9.43
10.89
11.80
12.19
12.17
11.88
11.54
11.29
11.19
11.25
11.42
11.60
11.72
11.68
11.43
10.96
10.31
9.51
8.58
7.41
5.93
4.09
1.97
-0.22
-2.21
-3.81
-4.96
-5.69
-6.14
-6.40
-6.55
-6.69
-6.95
-7.51
-8.51
-9.92
-11.55
-13.12
-14.37
-15.18
-15.70
-16.22
-17.03
-18.23
-19.65
-20.83
-21.25
-20.48
-18.37
-15.08
-10.97
-6.54
-2.26
1.55
4.66
7.00
8.56
9.41
9.68
9.53
9.15
8.72
8.38
8.25
8.35
8.59
8.87
9.05
9.04
8.84
8.57
8.36
8.29
8.39
8.58
8.71
8.62
8.18
7.35
6.13
4.66
3.12
1.75
0.72
0.11
-0.13
-0.14
-0.07
-0.06
-0.19
-0.44
-0.77
-1.09
-1.36
-1.56
-1.75
-2.03
-2.50
-3.25
-4.36
-5.82
-7.56
-9.38
-10.99
-12.06
-12.25
-11.37
-9.44
-6.69
-3.48
-0.18
2.91
5.61
7.76
9.28
10.14
10.37
10.10
9.54
8.88
8.25
7.72
7.31
7.05
7.02
7.27
7.80
8.52
9.27
9.85
10.15
10.12
9.79
9.23
8.46
7.53
6.48
5.35
4.24
3.23
2.34
1.51
0.60
-0.47
-1.73
-3.09
-4.37
-5.41
-6.12
-6.54
-6.79
-7.02
-7.32
-7.73
-8.23
-8.78
-9.29
-9.60
-9.50
-8.71
-7.04
-4.40
-0.94
3.02
7.05
10.75
13.82
16.15
17.77
18.89
19.80
20.79
22.07
23.67
25.38
26.84
27.54
27.00
24.92
21.19
15.99
9.72
2.93
-3.78
-9.89
-15.01
-18.94
-21.65
-23.22
-23.84
-23.72
-23.14
-22.35
-21.55
-20.87
-20.32
-19.86
-19.43
-18.99
-18.50
-17.94
-17.32
-16.68
-16.11
-15.76
-15.79
-16.27
-17.11
-18.02
-18.61
-18.54
-17.61
-15.83
-13.43
-10.72
-8.01
-5.50
-3.31
-1.47
0.02
1.17
1.95
2.37
2.39
2.08
1.51
0.82
0.19
-0.26
-0.46
-0.41
-0.22
0.01
0.15
0.10
-0.19
-0.71
-1.42
-2.23
-3.08
-3.90
-4.70
-5.52
-6.38
-7.29
-8.22
-9.09
-9.81
-10.31
-10.59
-10.66
-10.57
-10.37
-10.14
-9.99
-9.98
-10.13
-10.35
-10.40
-10.00
-8.88
-6.86
-3.98
-0.49
3.21
6.67
9.57
11.72
13.18
14.07
14.58
14.81
14.79
14.51
13.98
13.27
12.54
11.96
11.60
11.43
11.32
11.11
10.73
10.20
9.59
8.95
8.29
7.51
6.53
5.34
3.96
2.53
1.14
-0.13
-1.27
-2.27
-3.15
-3.90
-4.54
-5.12
-5.67
-6.25
-6.85
-7.44
-7.95
-8.31
-8.44
-8.22
-7.51
-6.21
-4.30
-1.91
0.70
3.19
5.26
6.74
7.64
8.05
8.08
7.82
7.29
6.56
5.74
5.02
4.55
4.41
4.54
4.75
4.89
4.82
4.54
4.10
3.56
2.93
2.20
1.37
0.47
-0.43
-1.29
-2.09
-2.81
-3.41
-3.78
-3.83
-3.52
-2.94
-2.32
-1.94
-2.07
-2.82
-4.11
-5.70
-7.26
-8.43
-8.93
-8.60
-7.45
-5.65
-3.43
-1.01
1.41
3.72
5.84
7.65
9.01
9.86
10.21
10.25
10.23
10.34
10.63
10.95
11.06
10.76
10.01
8.99
7.96
7.13
6.60
6.27
5.97
5.50
4.73
3.59
2.12
0.40
-1.41
-3.13
-4.60
-5.71
-6.44
-6.84
-7.03
-7.18
-7.44
-7.97
-8.81
-9.87
-10.89
-11.51
-11.40
-10.38
-8.51
-6.07
-3.44
-0.96
1.14
2.75
3.82
4.38
4.45
4.15
3.62
3.02
2.49
2.11
1.88
1.78
1.78
1.87
2.07
2.41
2.86
3.36
3.84
4.20
4.40
4.47
4.46
4.42
4.38
4.32
4.19
3.95
3.57
3.02
2.27
1.24
-0.16
-1.93
-3.95
-5.96
-7.57
-8.43
-8.35
-7.37
-5.73
-3.81
-1.94
-0.32
0.96
1.92
2.55
2.82
2.64
1.96
0.84
-0.52
-1.87
-2.96
-3.64
-3.89
-3.80
-3.53
-3.25
-3.09
-3.14
-3.43
-3.95
-4.63
-5.39
-6.16
-6.87
-7.49
-8.00
-8.37
-8.57
-8.61
-8.50
-8.37
-8.33
-8.50
-8.85
-9.23
-9.38
-9.00
-7.89
-6.03
-3.57
-0.82
1.93
4.41
6.46
8.03
9.11
9.70
9.83
9.54
8.90
8.03
7.08
6.24
5.64
5.33
5.28
5.36
5.42
5.36
5.20
5.01
4.91
4.91
4.95
4.86
4.50
3.82
2.88
1.82
0.78
-0.16
-1.01
-1.87
-2.83
-3.97
-5.29
-6.68
-7.95
-8.87
-9.22
-8.86
-7.80
-6.18
-4.24
-2.21
-0.28
1.51
3.14
4.63
5.93
6.92
7.45
7.40
6.83
5.92
4.96
4.21
3.86
3.94
4.39
5.04
5.76
6.42
6.99
7.42
7.68
7.74
7.54
7.10
6.47
5.77
5.10
4.49
3.88
3.14
2.15
0.85
-0.72
-2.50
-4.40
-6.35
-8.26
-10.02
-11.47
-12.47
-12.86
-12.59
-11.71
-10.32
-8.62
-6.85
-5.22
-3.92
-3.05
-2.60
-2.48
-2.61
-2.89
-3.26
-3.64
-3.92
-3.94
-3.63
-2.96
-2.06
-1.10
-0.26
0.37
0.84
1.24
1.65
2.09
2.47
2.70
2.66
2.35
1.84
1.22
0.54
-0.18
-0.97
-1.84
-2.74
-3.60
-4.28
-4.67
-4.63
-4.11
-3.05
-1.50
0.38
2.36
4.17
5.60
6.61
7.26
7.69
8.02
8.26
8.34
8.18
7.79
7.26
6.75
6.45
6.44
6.73
7.21
7.70
8.02
8.00
7.55
6.64
5.36
3.80
2.12
0.47
-1.03
-2.27
-3.22
-3.94
-4.58
-5.32
-6.32
-7.63
-9.15
-10.64
-11.78
-12.23
-11.82
-10.55
-8.58
-6.23
-3.80
-1.55
0.42
2.08
3.44
4.49
5.19
5.52
5.49
5.25
4.98
4.92
5.21
5.86
6.80
7.86
8.89
9.79
10.54
11.18
11.73
12.22
12.65
12.97
13.09
12.96
12.49
11.64
10.39
8.75
6.77
4.43
1.72
-1.43
-5.07
-9.17
-13.54
-17.84
-21.58
-24.28
-25.56
-25.27
-23.52
-20.65
-17.18
-13.65
-10.57
-8.29
-6.91
-6.33
-6.27
-6.39
-6.42
-6.23
-5.83
-5.27
-4.64
-3.96
-3.25
-2.59
-2.08
-1.83
-1.87
-2.11
-2.39
-2.57
-2.58
-2.51
-2.49
-2.62
-2.92
-3.35
-3.83
-4.32
-4.81
-5.31
-5.83
-6.36
-6.88
-7.39
-7.91
-8.42
-8.80
-8.90
-8.46
-7.31
-5.41
-2.89
-0.04
2.79
5.32
7.38
8.92
9.98
10.56
10.64
10.22
9.37
8.27
7.20
6.42
6.08
6.11
6.34
6.55
6.62
6.57
6.47
6.40
6.33
6.17
5.80
5.13
4.18
3.01
1.74
0.46
-0.75
-1.82
-2.71
-3.37
-3.80
-4.05
-4.21
-4.42
-4.77
-5.32
-6.00
-6.63
-6.92
-6.62
-5.56
-3.77
-1.42
1.18
3.72
5.94
7.64
8.73
9.19
9.08
8.52
7.70
6.85
6.13
5.63
5.35
5.24
5.21
5.20
5.13
4.94
4.58
4.03
3.33
2.56
1.77
0.99
0.18
-0.71
-1.69
-2.74
-3.78
-4.71
-5.47
-6.04
-6.48
-6.89
-7.39
-8.10
-9.06
-10.23
-11.47
-12.56
-13.25
-13.31
-12.61
-11.12
-8.91
-6.18
-3.18
-0.21
2.46
4.64
6.29
7.47
8.29
8.91
9.38
9.71
9.85
9.70
9.17
8.21
6.87
5.27
3.61
2.10
0.95
0.23
-0.08
-0.10
-0.05
-0.12
-0.40
-0.89
-1.48
-2.05
-2.50
-2.82
-3.07
-3.40
-3.92
-4.72
-5.83
-7.21
-8.76
-10.33
-11.71
-12.60
-12.76
-12.03
-10.46
-8.28
-5.87
-3.61
-1.79
-0.50
0.29
0.73
0.91
0.90
0.71
0.37
-0.02
-0.29
-0.32
-0.03
0.51
1.16
1.71
2.06
2.18
2.15
2.07
2.01
1.99
1.97
1.93
1.83
1.69
1.52
1.37
1.27
1.27
1.40
1.61
1.81
1.85
1.69
1.38
1.16
1.34
2.18
3.76
5.90
8.26
10.44
12.15
13.25
13.78
13.82
13.43
12.64
11.46
9.92
8.11
6.17
4.25
2.49
1.02
-0.08
-0.75
-0.97
-0.79
-0.31
0.34
1.04
1.67
2.16
2.46
2.56
2.45
2.17
1.80
1.45
1.22
1.11
1.01
0.68
-0.10
-1.39
-3.07
-4.81
-6.17
-6.81
-6.55
-5.47
-3.79
-1.79
0.25
2.13
3.65
4.69
5.12
4.90
4.09
2.87
1.49
0.22
-0.69
-1.11
-1.04
-0.59
0.07
0.76
1.38
1.93
2.40
2.81
3.15
3.39
3.49
3.48
3.36
3.20
3.03
2.88
2.83
2.93
3.20
3.62
4.07
4.39
4.46
4.24
3.85
3.49
3.38
3.68
4.50
5.80
7.45
9.25
10.94
12.28
13.09
13.29
12.85
11.85
10.41
8.70
6.95
5.41
4.27
3.68
3.56
3.73
3.94
3.93
3.61
3.01
2.24
1.42
0.63
-0.14
-0.97
-1.88
-2.89
-3.91
-4.81
-5.45
-5.81
-5.97
-6.12
-6.53
-7.39
-8.75
-10.44
-12.11
-13.36
-13.85
-13.47
-12.33
-10.71
-8.94
-7.30
-5.98
-5.07
-4.56
-4.45
-4.67
-5.12
-5.69
-6.23
-6.63
-6.80
-6.77
-6.59
-6.33
-6.05
-5.77
-5.43
-4.99
-4.42
-3.78
-3.21
-2.89
-2.93
-3.37
-4.11
-4.99
-5.82
-6.52
-7.07
-7.56
-8.07
-8.65
-9.27
-9.86
-10.32
-10.58
-10.60
-10.29
-9.54
-8.24
-6.32
-3.89
-1.18
1.52
3.96
5.98
7.56
8.74
9.53
9.90
9.81
9.32
8.56
7.77
7.18
6.92
7.00
7.28
7.63
7.91
8.08
8.10
8.01
7.83
7.61
7.38
7.13
6.80
6.35
5.74
4.97
4.15
3.35
2.64
1.98
1.27
0.36
-0.84
-2.31
-3.91
-5.42
-6.57
-7.17
-7.15
-6.56
-5.52
-4.25
-2.94
-1.71
-0.66
0.18
0.78
1.10
1.15
0.95
0.57
0.09
-0.42
-0.87
-1.23
-1.45
-1.52
-1.44
-1.26
-1.06
-0.90
-0.83
-0.87
-1.01
-1.20
-1.43
-1.69
-1.98
-2.30
-2.64
-2.99
-3.39
-3.81
-4.26
-4.70
-5.09
-5.40
-5.66
-5.89
-6.10
-6.21
-6.09
-5.57
-4.52
-2.95
-1.02
1.00
2.78
4.10
4.90
5.27
5.36
5.34
5.31
5.25
5.15
4.97
4.76
4.60
4.55
4.58
4.62
4.56
4.34
3.99
3.67
3.50
3.53
3.73
3.95
4.06
3.97
3.68
3.20
2.56
1.78
0.93
0.11
-0.53
-0.90
-1.04
-1.13
-1.43
-2.11
-3.19
-4.44
-5.53
-6.15
-6.17
-5.63
-4.77
-3.88
-3.24
-3.01
-3.22
-3.75
-4.43
-5.07
-5.62
-6.11
-6.70
-7.51
-8.57
-9.78
-10.92
-11.77
-12.20
-12.24
-12.03
-11.79
-11.71
-11.86
-12.25
-12.77
-13.27
-13.58
-13.57
-13.19
-12.38
-11.17
-9.60
-7.76
-5.80
-3.93
-2.29
-0.97
0.11
1.11
2.20
3.46
4.83
6.18
7.40
8.47
9.49
10.57
11.76
12.99
14.12
15.07
15.88
16.63
17.39
18.13
18.70
18.94
18.78
18.28
17.61
16.94
16.33
15.76
15.14
14.36
13.34
12.05
10.46
8.61
6.58
4.55
2.68
1.08
-0.26
-1.43
-2.60
-3.86
-5.23
-6.67
-8.07
-9.33
-10.40
-11.26
-11.92
-12.46
-12.94
-13.41
-13.85
-14.15
-14.19
-13.83
-13.04
-11.82
-10.27
-8.49
-6.62
-4.80
-3.16
-1.85
-0.95
-0.46
-0.33
-0.41
-0.59
-0.75
-0.84
-0.84
-0.79
-0.70
-0.58
-0.39
-0.14
0.18
0.50
0.71
0.74
0.56
0.21
-0.22
-0.66
-1.05
-1.39
-1.67
-1.82
-1.74
-1.39
-0.81
-0.14
0.36
0.53
0.28
-0.31
-1.10
-1.93
-2.64
-3.12
-3.26
-2.97
-2.21
-1.08
0.22
1.43
2.30
2.71
2.67
2.32
1.82
1.30
0.80
0.29
-0.31
-1.04
-1.90
-2.77
-3.48
-3.82
-3.66
-2.95
-1.82
-0.45
0.91
2.11
3.05
3.70
4.04
4.03
3.64
2.91
2.00
1.13
0.58
0.50
0.87
1.48
2.05
2.35
2.24
1.68
0.68
-0.69
-2.32
-3.94
-5.10
-5.33
-4.28
-1.85
1.69
5.84
10.02
13.72
16.63
18.57
19.50
19.47
18.62
17.16
15.33
13.31
11.27
9.27
7.39
5.75
4.49
3.71
3.43
3.58
3.99
4.53
5.11
5.73
6.40
7.07
7.64
7.92
7.74
6.99
5.67
3.89
1.80
-0.54
-3.16
-6.18
-9.71
-13.80
-18.32
-22.99
-27.43
-31.23
-34.04
-35.59
-35.70
-34.30
-31.46
-27.39
-22.48
-17.19
-11.98
-7.15
-2.85
0.95
4.37
7.54
10.53
13.33
15.85
17.99
19.67
20.84
21.50
21.70
21.53
21.06
20.38
19.53
18.48
17.19
15.59
13.66
11.40
8.88
6.19
3.42
0.69
-1.96
-4.49
-6.90
-9.18
-11.29
-13.16
-14.67
-15.73
-16.29
-16.35
-16.00
-15.37
-14.60
-13.80
-12.99
-12.10
-10.91
-9.17
-6.63
-3.17
1.12
5.97
10.99
15.84
20.29
24.27
27.78
30.94
33.79
36.38
38.66
40.54
41.87
42.45
42.20
41.10
39.30
37.07
34.66
32.28
29.95
27.55
24.86
21.69
17.90
13.46
8.39
2.73
-3.46
-10.07
-16.95
-23.84
-30.44
-36.40
-41.38
-45.12
-47.51
-48.57
-48.52
-47.68
-46.46
-45.22
-44.26
-43.65
-43.29
-42.86
-41.92
-40.07
-37.05
-32.87
-27.80
-22.31
-16.86
-11.82
-7.42
-3.70
-0.67
1.70
3.43
4.60
5.31
5.74
6.04
6.36
6.76
7.24
7.79
8.37
8.93
9.44
9.84
10.08
10.17
10.11
9.95
9.76
9.58
9.44
9.35
9.30
9.26
9.22
9.20
9.28
9.54
10.01
10.59
11.13
11.37
11.13
10.34
9.07
7.52
5.94
4.55
3.53
2.99
2.98
3.45
4.29
5.33
6.37
7.28
8.04
8.71
9.41
10.23
11.19
12.23
13.29
14.33
15.36
16.36
17.25
17.89
18.10
17.69
16.59
14.82
12.45
9.58
6.28
2.59
-1.40
-5.56
-9.74
-13.77
-17.50
-20.85
-23.75
-26.16
-28.07
-29.50
-30.55
-31.42
-32.36
-33.63
-35.39
-37.63
-40.09
-42.32
-43.67
-43.56
-41.57
-37.66
-32.18
-25.79
-19.28
-13.32
-8.30
-4.37
-1.42
0.72
2.24
3.27
3.89
4.19
4.28
4.32
4.47
4.83
5.38
6.02
6.56
6.88
6.99
7.08
7.44
8.32
9.77
11.61
13.46
14.93
15.73
15.74
15.05
13.80
12.15
10.24
8.23
6.25
4.46
2.94
1.68
0.54
-0.64
-1.91
-3.19
-4.17
-4.53
-3.98
-2.48
-0.21
2.50
5.34
8.08
10.60
12.87
14.78
16.18
16.85
16.64
15.55
13.74
11.50
9.16
6.92
4.87
2.96
1.10
-0.72
-2.46
-3.98
-5.14
-5.90
-6.31
-6.49
-6.62
-6.81
-7.12
-7.57
-8.15
-8.87
-9.74
-10.70
-11.70
-12.62
-13.37
-13.94
-14.36
-14.72
-15.12
-15.61
-16.19
-16.79
-17.24
-17.35
-16.85
-15.49
-13.12
-9.79
-5.78
-1.57
2.31
5.46
7.74
9.21
10.06
10.48
10.55
10.30
9.78
9.15
8.60
8.32
8.40
8.77
9.25
9.63
9.76
9.61
9.24
8.73
8.17
7.57
6.87
6.02
4.97
3.72
2.31
0.81
-0.71
-2.24
-3.77
-5.31
-6.81
-8.25
-9.55
-10.69
-11.68
-12.60
-13.52
-14.47
-15.39
-16.04
-16.14
-15.40
-13.71
-11.10
-7.81
-4.18
-0.55
2.78
5.63
7.87
9.44
10.33
10.54
10.11
9.18
7.95
6.72
5.80
5.40
5.56
6.11
6.72
7.06
6.94
6.39
5.59
4.77
4.06
3.49
2.99
2.45
1.82
1.10
0.30
-0.58
-1.55
-2.65
-3.87
-5.15
-6.40
-7.55
-8.59
-9.55
-10.50
-11.42
-12.18
-12.56
-12.31
-11.25
-9.33
-6.68
-3.57
-0.36
2.62
5.10
6.95
8.14
8.72
8.79
8.46
7.83
7.05
6.25
5.54
5.00
4.65
4.44
4.31
4.20
4.11
4.05
4.03
4.06
4.11
4.12
4.03
3.77
3.27
2.54
1.63
0.68
-0.17
-0.84
-1.34
-1.82
-2.45
-3.39
-4.67
-6.20
-7.74
-8.96
-9.56
-9.31
-8.12
-6.08
-3.43
-0.53
2.25
4.61
6.42
7.67
8.44
8.83
8.88
8.61
8.02
7.19
6.31
5.54
5.02
4.75
4.62
4.50
4.31
4.07
3.88
3.87
4.08
4.45
4.86
5.18
5.35
5.39
5.39
5.45
5.66
6.10
6.78
7.65
8.60
9.44
9.99
10.06
9.53
8.42
6.93
5.41
4.31
3.99
4.60
5.98
7.79
9.57
10.98
11.91
12.42
12.71
12.91
13.04
13.02
12.75
12.22
11.53
10.84
10.29
9.93
9.67
9.38
8.89
8.15
7.21
6.16
5.12
4.14
3.20
2.22
1.14
-0.13
-1.60
-3.25
-4.97
-6.62
-7.99
-8.94
-9.44
-9.59
-9.63
-9.83
-10.46
-11.60
-13.24
-15.13
-16.93
-18.20
-18.59
-17.84
-15.96
-13.18
-9.90
-6.60
-3.65
-1.26
0.52
1.79
2.68
3.30
3.68
3.84
3.79
3.57
3.25
2.89
2.54
2.19
1.78
1.29
0.74
0.19
-0.24
-0.48
-0.49
-0.32
-0.10
0.07
0.04
-0.26
-0.85
-1.69
-2.62
-3.46
-4.03
-4.20
-4.00
-3.56
-3.15
-2.99
-3.21
-3.81
-4.61
-5.33
-5.64
-5.31
-4.23
-2.43
-0.11
2.47
4.97
7.08
8.58
9.33
9.34
8.70
7.60
6.22
4.68
3.09
1.50
-0.03
-1.43
-2.63
-3.55
-4.15
-4.46
-4.52
-4.38
-4.10
-3.71
-3.26
-2.77
-2.27
-1.80
-1.43
-1.28
-1.41
-1.82
-2.40
-2.98
-3.42
-3.65
-3.75
-3.86
-4.09
-4.46
-4.93
-5.43
-5.96
-6.55
-7.22
-7.84
-8.10
-7.63
-6.15
-3.68
-0.52
2.82
5.84
8.27
10.06
11.33
12.22
12.79
12.97
12.74
12.13
11.35
10.63
10.15
9.92
9.81
9.66
9.34
8.86
8.30
7.69
7.01
6.11
4.85
3.17
1.15
-1.00
-3.01
-4.68
-5.96
-6.91
-7.68
-8.39
-9.12
-9.81
-10.39
-10.76
-10.85
-10.71
-10.44
-10.20
-10.14
-10.33
-10.72
-11.08
-11.09
-10.44
-8.94
-6.57
-3.56
-0.25
2.97
5.79
8.05
9.73
10.89
11.61
11.94
11.91
11.56
10.93
10.14
9.29
8.50
7.81
7.22
6.67
6.06
5.35
4.51
3.57
2.60
1.73
1.06
0.66
0.51
0.47
0.33
-0.12
-0.96
-2.20
-3.68
-5.24
-6.76
-8.15
-9.39
-10.48
-11.43
-12.22
-12.81
-13.13
-13.08
-12.54
-11.46
-9.87
-7.96
-5.96
-4.12
-2.60
-1.41
-0.47
0.34
1.07
1.71
2.16
2.30
2.04
1.41
0.51
-0.47
-1.33
-1.93
-2.21
-2.18
-1.90
-1.42
-0.76
0.08
1.03
1.95
2.62
2.82
2.45
1.54
0.31
-0.97
-2.00
-2.63
-2.85
-2.80
-2.70
-2.80
-3.34
-4.46
-6.16
-8.33
-10.66
-12.75
-14.18
-14.62
-13.91
-12.13
-9.55
-6.61
-3.71
-1.16
0.96
2.79
4.62
6.74
9.32
12.33
15.50
18.43
20.65
21.78
21.61
20.13
17.58
14.33
10.78
7.32
4.19
1.49
-0.80
-2.78
-4.52
-6.05
-7.35
-8.38
-9.14
-9.66
-10.00
-10.25
-10.50
-10.84
-11.37
-12.18
-13.29
-14.64
-16.03
-17.13
-17.55
-16.95
-15.15
-12.16
-8.19
-3.52
1.52
6.68
11.73
16.49
20.79
24.45
27.32
29.30
30.31
30.37
29.57
28.06
26.09
23.93
21.83
20.00
18.53
17.34
16.31
15.22
13.93
12.36
10.54
8.56
6.52
4.50
2.53
0.62
-1.14
-2.66
-3.84
-4.60
-5.02
-5.23
-5.42
-5.75
-6.28
-6.99
-7.79
-8.58
-9.24
-9.67
-9.76
-9.41
-8.61
-7.42
-6.03
-4.66
-3.58
-2.94
-2.83
-3.22
-3.99
-4.98
-6.05
-7.10
-8.10
-9.03
-9.85
-10.51
-10.92
-11.06
-10.95
-10.71
-10.44
-10.20
-9.99
-9.72
-9.34
-8.87
-8.37
-7.97
-7.73
-7.62
-7.56
-7.44
-7.17
-6.74
-6.17
-5.54
-4.92
-4.35
-3.90
-3.64
-3.60
-3.79
-4.10
-4.30
-4.13
-3.30
-1.67
0.77
3.84
7.25
10.68
13.84
16.54
18.69
20.25
21.19
21.53
21.28
20.52
19.37
18.05
16.73
15.60
14.73
14.16
13.82
13.65
13.51
13.25
12.69
11.62
9.95
7.73
5.12
2.39
-0.24
-2.68
-4.93
-7.09
-9.20
-11.19
-12.92
-14.26
-15.13
-15.60
-15.78
-15.83
-15.85
-15.91
-16.12
-16.58
-17.37
-18.46
-19.62
-20.42
-20.40
-19.14
-16.56
-12.87
-8.56
-4.22
-0.32
2.89
5.39
7.26
8.63
9.55
10.04
10.12
9.87
9.47
9.09
8.90
8.92
9.08
9.24
9.27
9.13
8.86
8.53
8.24
7.99
7.74
7.34
6.63
5.52
3.96
1.97
-0.40
-2.99
-5.66
-8.22
-10.48
-12.36
-13.85
-15.08
-16.23
-17.47
-18.92
-20.62
-22.50
-24.42
-26.17
-27.48
-27.98
-27.35
-25.39
-22.12
-17.83
-13.00
-8.12
-3.64
0.21
3.34
5.78
7.60
8.85
9.56
9.79
9.69
9.44
9.25
9.28
9.58
10.09
10.67
11.26
11.85
12.54
13.44
14.58
15.83
16.91
17.47
17.22
16.06
14.10
11.67
9.18
6.99
5.31
4.08
3.11
2.11
0.82
-0.86
-2.88
-5.06
-7.16
-8.88
-9.94
-10.04
-9.03
-6.90
-3.91
-0.49
2.85
5.65
7.63
8.71
8.99
8.64
7.85
6.80
5.62
4.47
3.48
2.79
2.50
2.62
3.09
3.75
4.45
5.03
5.42
5.61
5.61
5.44
5.14
4.73
4.29
3.91
3.66
3.60
3.74
4.07
4.54
5.09
5.57
5.81
5.57
4.71
3.16
1.00
-1.59
-4.35
-6.99
-9.18
-10.59
-10.95
-10.13
-8.26
-5.69
-2.87
-0.20
2.11
4.08
5.83
7.43
8.82
9.84
10.32
10.30
9.96
9.65
9.66
10.19
11.21
12.51
13.87
15.05
15.96
16.60
17.11
17.62
18.17
18.72
19.05
18.90
18.02
16.30
13.79
10.63
7.07
3.32
-0.45
-4.14
-7.71
-11.20
-14.68
-18.24
-21.92
-25.65
-29.21
-32.27
-34.44
-35.38
-34.93
-33.13
-30.22
-26.56
-22.54
-18.53
-14.83
-11.65
-9.10
-7.22
-5.97
-5.24
-4.88
-4.73
-4.64
-4.52
-4.27
-3.84
-3.21
-2.41
-1.55
-0.79
-0.24
0.08
0.25
0.39
0.56
0.70
0.61
0.06
-1.07
-2.70
-4.60
-6.49
-8.12
-9.41
-10.39
-11.19
-11.91
-12.57
-13.18
-13.72
-14.18
-14.56
-14.80
-14.75
-14.20
-12.95
-10.88
-8.07
-4.74
-1.27
2.02
4.90
7.29
9.25
10.86
12.18
13.22
13.93
14.31
14.38
14.23
14.00
13.78
13.58
13.37
13.06
12.59
11.97
11.27
10.56
9.84
9.00
7.90
6.35
4.30
1.80
-0.93
-3.63
-6.05
-8.06
-9.67
-10.98
-12.16
-13.35
-14.64
-16.06
-17.61
-19.26
-20.93
-22.44
-23.51
-23.79
-22.95
-20.88
-17.68
-13.72
-9.48
-5.38
-1.69
1.53
4.40
7.02
9.45
11.61
13.36
14.56
15.22
15.48
15.58
15.77
16.17
16.80
17.53
18.21
18.75
19.10
19.27
19.26
19.00
18.41
17.39
15.89
13.94
11.67
9.22
6.78
4.46
2.32
0.34
-1.56
-3.44
-5.37
-7.37
-9.45
-11.55
-13.57
-15.29
-16.41
-16.63
-15.73
-13.70
-10.80
-7.48
-4.29
-1.67
0.16
1.27
1.89
2.31
2.67
2.97
3.13
3.08
2.87
2.66
2.62
2.86
3.32
3.84
4.22
4.35
4.25
4.02
3.78
3.57
3.34
3.04
2.59
1.95
1.19
0.39
-0.35
-0.93
-1.32
-1.55
-1.76
-2.13
-2.85
-4.01
-5.60
-7.47
-9.36
-11.01
-12.14
-12.54
-12.03
-10.57
-8.22
-5.19
-1.83
1.51
4.52
7.03
9.05
10.64
11.90
12.86
13.51
13.78
13.67
13.20
12.47
11.65
10.93
10.46
10.34
10.52
10.86
11.15
11.20
10.95
10.46
9.88
9.36
8.95
8.59
8.11
7.40
6.41
5.22
3.93
2.62
1.29
-0.20
-1.97
-4.07
-6.43
-8.90
-11.33
-13.69
-16.02
-18.39
-20.69
-22.64
-23.82
-23.85
-22.62
-20.36
-17.48
-14.46
-11.55
-8.82
-6.17
-3.58
-1.16
0.84
2.17
2.75
2.71
2.33
1.95
1.82
2.05
2.63
3.48
4.51
5.62
6.69
7.61
8.22
8.40
8.07
7.25
6.05
4.64
3.24
2.00
0.96
0.08
-0.77
-1.69
-2.71
-3.79
-4.84
-5.81
-6.70
-7.59
-8.57
-9.74
-11.17
-12.79
-14.43
-15.76
-16.33
-15.77
-13.87
-10.74
-6.81
-2.64
1.22
4.39
6.74
8.32
9.22
9.59
9.53
9.17
8.65
8.15
7.81
7.71
7.89
8.29
8.77
9.18
9.37
9.24
8.79
8.14
7.45
6.86
6.43
6.08
5.63
4.93
3.91
2.63
1.26
-0.04
-1.17
-2.16
-3.05
-3.93
-4.80
-5.58
-6.21
-6.69
-7.09
-7.54
-8.20
-9.13
-10.26
-11.42
-12.30
-12.60
-12.04
-10.48
-7.92
-4.58
-0.80
3.01
6.48
9.35
11.53
13.02
13.91
14.28
14.20
13.69
12.81
11.70
10.58
9.67
9.13
9.00
9.11
9.20
9.03
8.45
7.47
6.26
5.04
3.96
3.07
2.29
1.49
0.56
-0.49
-1.61
-2.71
-3.70
-4.55
-5.23
-5.73
-6.05
-6.16
-6.11
-5.99
-5.98
-6.19
-6.64
-7.15
-7.44
-7.15
-6.09
-4.28
-1.96
0.47
2.63
4.28
5.39
6.06
6.44
6.63
6.69
6.64
6.49
6.32
6.20
6.19
6.28
6.42
6.56
6.69
6.81
6.91
6.96
6.89
6.62
6.11
5.31
4.25
2.95
1.47
-0.13
-1.83
-3.56
-5.31
-7.09
-8.88
-10.68
-12.45
-14.18
-15.86
-17.50
-19.10
-20.63
-21.92
-22.73
-22.77
-21.83
-19.74
-16.55
-12.40
-7.59
-2.47
2.56
7.17
11.11
14.24
16.56
18.09
18.89
19.01
18.49
17.42
15.92
14.19
12.40
10.68
9.09
7.60
6.10
4.51
2.81
1.09
-0.48
-1.71
-2.46
-2.76
-2.80
-2.81
-3.01
-3.48
-4.16
-4.95
-5.79
-6.67
-7.63
-8.67
-9.74
-10.78
-11.73
-12.69
-13.80
-15.22
-16.94
-18.74
-20.16
-20.75
-20.12
-18.17
-15.08
-11.22
-7.05
-2.98
0.73
3.99
6.76
9.03
10.77
11.92
12.45
12.40
11.89
11.09
10.21
9.36
8.62
7.98
7.37
6.78
6.23
5.77
5.49
5.45
5.61
5.84
5.97
5.82
5.35
4.65
3.92
3.40
3.22
3.38
3.69
3.90
3.79
3.24
2.28
1.03
-0.33
-1.69
-2.99
-4.22
-5.44
-6.64
-7.77
-8.66
-9.13
-9.01
-8.21
-6.79
-4.89
-2.74
-0.52
1.65
3.75
5.76
7.64
9.31
10.64
11.60
12.20
12.60
12.96
13.41
14.00
14.67
15.31
15.85
16.25
16.56
16.85
17.20
17.60
18.00
18.30
18.37
18.09
17.38
16.25
14.75
12.97
11.00
8.90
6.68
4.31
1.78
-0.88
-3.59
-6.27
-8.89
-11.56
-14.50
-17.94
-22.04
-26.68
-31.50
-35.91
-39.29
-41.13
-41.20
-39.58
-36.56
-32.63
-28.25
-23.86
-19.75
-16.11
-12.96
-10.23
-7.80
-5.54
-3.37
-1.30
0.57
2.15
3.36
4.22
4.83
5.34
5.85
6.40
6.94
7.39
7.71
7.88
7.92
7.83
7.56
7.02
6.15
4.94
3.47
1.88
0.33
-1.09
-2.31
-3.30
-4.03
-4.41
-4.29
-3.55
-2.14
-0.23
1.82
3.50
4.32
4.02
2.63
0.54
-1.72
-3.56
-4.56
-4.54
-3.56
-1.86
0.24
2.37
4.28
5.78
6.80
7.30
7.28
6.77
5.81
4.56
3.21
2.02
1.20
0.83
0.86
1.15
1.55
1.92
2.19
2.33
2.37
2.35
2.37
2.49
2.71
2.96
3.08
2.92
2.39
1.48
0.29
-1.00
-2.22
-3.19
-3.82
-4.10
-4.17
-4.25
-4.60
-5.33
-6.38
-7.46
-8.19
-8.22
-7.38
-5.68
-3.28
-0.43
2.65
5.73
8.64
11.23
13.40
15.10
16.32
17.09
17.42
17.33
16.88
16.12
15.15
14.05
12.92
11.80
10.74
9.75
8.85
8.00
7.16
6.24
5.21
4.07
2.89
1.79
0.83
-0.02
-0.91
-2.05
-3.61
-5.63
-7.97
-10.43
-12.76
-14.76
-16.36
-17.57
-18.50
-19.30
-20.13
-21.15
-22.41
-23.83
-25.14
-25.93
-25.80
-24.51
-22.11
-18.90
-15.31
-11.71
-8.32
-5.11
-2.02
0.99
3.77
6.09
7.71
8.60
8.93
9.06
9.35
10.03
11.09
12.34
13.52
14.43
14.96
15.12
14.95
14.50
13.73
12.59
11.09
9.34
7.51
5.83
4.46
3.41
2.59
1.85
1.02
-0.01
-1.24
-2.61
-3.98
-5.19
-6.12
-6.69
-6.98
-7.16
-7.45
-8.02
-8.88
-9.89
-10.81
-11.33
-11.21
-10.29
-8.54
-6.06
-3.04
0.25
3.49
6.38
8.69
10.23
10.88
10.61
9.50
7.74
5.68
3.68
2.09
1.12
0.82
1.06
1.71
2.58
3.54
4.43
5.07
5.24
4.80
3.69
2.03
0.09
-1.81
-3.39
-4.53
-5.26
-5.73
-6.12
-6.58
-7.11
-7.64
-8.03
-8.16
-8.01
-7.64
-7.18
-6.79
-6.60
-6.73
-7.24
-8.12
-9.29
-10.49
-11.36
-11.51
-10.61
-8.57
-5.57
-2.02
1.62
4.93
7.69
9.82
11.36
12.40
12.98
13.14
12.92
12.46
11.91
11.46
11.24
11.24
11.33
11.31
11.00
10.32
9.35
8.26
7.21
6.30
5.55
4.89
4.27
3.62
2.91
2.07
1.08
-0.04
-1.19
-2.28
-3.23
-4.06
-4.85
-5.72
-6.73
-7.85
-9.00
-10.15
-11.30
-12.54
-13.86
-15.09
-15.89
-15.81
-14.52
-11.91
-8.25
-4.02
0.16
3.81
6.62
8.55
9.65
10.07
9.92
9.29
8.31
7.15
6.04
5.18
4.67
4.49
4.50
4.56
4.58
4.52
4.45
4.40
4.39
4.40
4.36
4.18
3.78
3.08
2.08
0.84
-0.48
-1.69
-2.64
-3.25
-3.65
-4.04
-4.62
-5.56
-6.87
-8.50
-10.30
-12.10
-13.65
-14.66
-14.81
-13.87
-11.80
-8.83
-5.42
-2.03
0.93
3.31
5.16
6.64
7.86
8.87
9.58
9.89
9.77
9.26
8.50
7.66
6.82
6.06
5.38
4.79
4.34
4.08
4.01
4.06
4.08
3.92
3.47
2.73
1.79
0.78
-0.22
-1.20
-2.24
-3.40
-4.70
-6.10
-7.48
-8.72
-9.77
-10.61
-11.31
-11.96
-12.62
-13.34
-14.07
-14.72
-15.11
-15.02
-14.26
-12.68
-10.26
-7.13
-3.56
0.07
3.41
6.22
8.44
10.15
11.50
12.62
13.53
14.17
14.47
14.41
14.09
13.65
13.20
12.82
12.46
12.07
11.60
11.03
10.35
9.58
8.70
7.71
6.61
5.42
4.17
2.89
1.59
0.26
-1.08
-2.37
-3.56
-4.59
-5.44
-6.17
-6.82
-7.49
-8.18
-8.92
-9.72
-10.59
-11.61
-12.82
-14.17
-15.46
-16.35
-16.45
-15.47
-13.35
-10.25
-6.54
-2.64
1.11
4.49
7.38
9.71
11.42
12.46
12.85
12.69
12.15
11.45
10.76
10.20
9.80
9.50
9.24
8.97
8.69
8.44
8.26
8.11
7.92
7.58
6.99
6.11
5.04
3.95
3.03
2.38
1.93
1.50
0.88
-0.11
-1.50
-3.17
-4.90
-6.46
-7.67
-8.49
-9.01
-9.45
-10.07
-11.11
-12.68
-14.73
-16.98
-19.03
-20.39
-20.70
-19.73
-17.47
-14.15
-10.12
-5.82
-1.68
2.01
5.10
7.59
9.51
10.88
11.64
11.73
11.15
10.06
8.75
7.53
6.64
6.13
5.90
5.77
5.61
5.41
5.24
5.23
5.45
5.89
6.45
6.99
7.37
7.50
7.36
6.95
6.27
5.28
3.91
2.16
0.08
-2.18
-4.42
-6.45
-8.20
-9.65
-10.85
-11.84
-12.65
-13.31
-13.93
-14.67
-15.66
-16.90
-18.15
-19.01
-19.03
-17.93
-15.68
-12.55
-8.96
-5.38
-2.14
0.60
2.80
4.50
5.71
6.43
6.65
6.42
5.85
5.12
4.42
3.95
3.77
3.87
4.12
4.39
4.57
4.62
4.59
4.52
4.45
4.33
4.12
3.78
3.33
2.78
2.14
1.38
0.43
-0.70
-1.95
-3.16
-4.19
-4.94
-5.42
-5.74
-6.05
-6.48
-7.11
-8.01
-9.19
-10.56
-11.95
-13.06
-13.60
-13.36
-12.24
-10.26
-7.61
-4.50
-1.21
2.01
4.90
7.32
9.20
10.62
11.66
12.42
12.87
12.98
12.69
12.05
11.21
10.39
9.77
9.44
9.37
9.42
9.39
9.10
8.41
7.31
5.91
4.42
3.06
1.97
1.12
0.38
-0.44
-1.47
-2.67
-3.91
-4.98
-5.74
-6.19
-6.44
-6.68
-7.08
-7.78
-8.85
-10.29
-11.95
-13.58
-14.76
-15.07
-14.18
-11.97
-8.65
-4.66
-0.53
3.29
6.54
9.17
11.26
12.91
14.17
15.04
15.44
15.34
14.78
13.87
12.74
11.55
10.41
9.37
8.40
7.45
6.51
5.57
4.66
3.84
3.12
2.43
1.67
0.71
-0.50
-1.92
-3.39
-4.76
-5.90
-6.82
-7.59
-8.35
-9.14
-9.93
-10.59
-10.96
-10.95
-10.65
-10.30
-10.27
-10.91
-12.42
-14.71
-17.38
-19.81
-21.33
-21.44
-19.96
-17.07
-13.18
-8.81
-4.40
-0.27
3.42
6.63
9.37
11.71
13.70
15.39
16.73
17.68
18.15
18.16
17.81
17.32
16.88
16.58
16.41
16.27
16.05
15.67
15.18
14.63
14.08
13.53
12.98
12.42
11.84
11.23
10.47
9.39
7.76
5.42
2.35
-1.24
-4.96
-8.33
-10.94
-12.60
-13.36
-13.47
-13.32
-13.27
-13.57
-14.26
-15.14
-15.81
-15.81
-14.71
-12.31
-8.72
-4.35
0.27
4.57
8.16
10.87
12.77
14.00
14.76
15.18
15.36
15.35
15.20
14.94
14.56
14.06
13.40
12.57
11.61
10.60
9.66
8.89
8.31
7.82
7.26
6.44
5.22
3.63
1.77
-0.17
-2.05
-3.82
-5.50
-7.15
-8.80
-10.42
-11.97
-13.40
-14.70
-15.88
-16.99
-18.00
-18.95
-19.85
-20.78
-21.81
-22.96
-24.08
-24.86
-24.90
-23.84
-21.54
-18.16
-14.09
-9.83
-5.80
-2.24
0.85
3.53
5.86
7.82
9.30
10.18
10.47
10.31
9.94
9.60
9.42
9.43
9.53
9.65
9.70
9.68
9.59
9.48
9.33
9.15
8.94
8.70
8.44
8.15
7.77
7.24
6.46
5.43
4.20
2.90
1.67
0.61
-0.26
-0.99
-1.68
-2.42
-3.27
-4.25
-5.38
-6.65
-7.98
-9.21
-10.07
-10.27
-9.58
-7.96
-5.61
-2.88
-0.13
2.35
4.41
6.02
7.22
8.05
8.62
8.96
9.15
9.20
9.08
8.72
8.09
7.24
6.31
5.46
4.83
4.45
4.24
4.06
3.78
3.39
2.94
2.50
2.08
1.62
0.98
0.07
-1.11
-2.45
-3.71
-4.72
-5.38
-5.77
-6.05
-6.41
-6.98
-7.80
-8.84
-10.04
-11.29
-12.48
-13.41
-13.80
-13.41
-12.05
-9.71
-6.62
-3.13
0.31
3.36
5.82
7.65
8.95
9.84
10.43
10.72
10.71
10.39
9.77
8.95
8.06
7.24
6.58
6.09
5.77
5.54
5.39
5.29
5.21
5.10
4.86
4.35
3.54
2.45
1.24
0.07
-0.91
-1.69
-2.33
-2.97
-3.72
-4.60
-5.54
-6.44
-7.18
-7.74
-8.16
-8.56
-9.06
-9.76
-10.70
-11.81
-12.96
-13.94
-14.51
-14.41
-13.48
-11.66
-9.11
-6.10
-3.01
-0.11
2.43
4.58
6.38
7.88
9.06
9.83
10.15
10.02
9.56
8.92
8.26
7.67
7.16
6.70
6.24
5.80
5.41
5.13
4.96
4.87
4.75
4.48
3.96
3.19
2.23
1.20
0.26
-0.49
-1.07
-1.57
-2.17
-3.02
-4.14
-5.44
-6.68
-7.64
-8.22
-8.44
-8.51
-8.68
-9.18
-10.11
-11.42
-12.92
-14.33
-15.36
-15.69
-15.08
-13.42
-10.79
-7.44
-3.74
-0.12
3.09
5.69
7.64
9.01
9.88
10.34
10.40
10.13
9.60
8.95
8.35
7.89
7.61
7.46
7.32
7.10
6.74
6.27
5.74
5.18
4.59
3.93
3.17
2.31
1.48
0.80
0.44
0.46
0.82
1.31
1.63
1.45
0.49
-1.35
-4.03
-7.29
-10.74
-14.03
-16.89
-19.28
-21.34
-23.31
-25.40
-27.65
-29.89
-31.75
-32.79
-32.64
-31.15
-28.42
-24.79
-20.77
-16.85
-13.43
-10.70
-8.63
-7.05
-5.72
-4.40
-2.92
-1.21
0.70
2.70
4.62
6.27
7.55
8.43
9.01
9.41
9.75
10.08
10.36
10.54
10.57
10.49
10.35
10.22
10.06
9.79
9.26
8.43
7.31
6.02
4.72
3.54
2.61
1.97
1.66
1.63
1.78
1.90
1.73
1.04
-0.21
-1.81
-3.30
-4.10
-3.72
-1.91
1.21
5.21
9.52
13.60
17.06
19.70
21.47
22.39
22.48
21.83
20.58
18.92
17.12
15.39
13.84
12.46
11.18
9.89
8.57
7.31
6.23
5.43
4.90
4.56
4.30
4.03
3.74
3.47
3.29
3.23
3.21
3.18
3.07
2.84
2.47
1.90
1.02
-0.26
-1.95
-3.91
-5.89
-7.61
-8.85
-9.58
-9.88
-9.82
-9.40
-8.50
-6.90
-4.43
-1.06
3.01
7.48
11.97
16.12
19.72
22.63
24.84
26.32
27.07
27.08
26.42
25.21
23.71
22.19
20.89
19.96
19.42
19.23
19.30
19.54
19.88
20.19
20.32
20.12
19.58
18.82
18.13
17.79
17.91
18.35
18.75
18.71
17.94
16.37
14.09
11.23
7.84
3.88
-0.72
-5.97
-11.77
-17.98
-24.44
-30.97
-37.29
-42.93
-47.31
-49.86
-50.27
-48.62
-45.35
-41.11
-36.50
-31.88
-27.40
-23.12
-19.07
-15.40
-12.30
-9.90
-8.24
-7.28
-6.87
-6.86
-7.08
-7.38
-7.58
-7.53
-7.14
-6.40
-5.40
-4.29
-3.22
-2.29
-1.59
-1.20
-1.17
-1.52
-2.20
-3.06
-3.88
-4.43
-4.55
-4.22
-3.56
-2.76
-2.02
-1.44
-1.01
-0.62
-0.17
0.41
1.15
2.03
3.06
4.35
6.02
8.15
10.74
13.57
16.37
18.83
20.81
22.29
23.32
23.88
23.72
22.38
19.35
14.33
7.41
-0.85
-9.63
-18.07
-25.55
-31.80
-36.78
-40.55
-43.10
-44.29
-43.98
-42.19
-39.18
-35.51
-31.83
-28.74
-26.54
-25.16
-24.21
-23.19
-21.64
-19.31
-16.22
-12.54
-8.47
-4.18
0.23
4.61
8.73
12.27
14.97
16.82
18.21
19.79
22.27
26.09
31.22
37.12
42.99
48.04
51.73
53.84
54.39
53.50
51.29
47.88
43.46
38.25
32.56
26.61
20.52
14.31
7.99
1.69
-4.32
-9.60
-13.68
-16.18
-16.94
-16.03
-13.85
-10.94
-8.03
-5.74
-4.57
-4.65
-5.84
-7.77
-10.00
-12.26
-14.45
-16.59
-18.80
-21.08
-23.40
-25.65
-27.71
-29.42
-30.59
-30.96
-30.20
-28.09
-24.57
-19.91
-14.59
-9.21
-4.28
-0.10
3.25
5.83
7.70
8.92
9.50
9.47
8.91
7.94
6.69
5.28
3.78
2.22
0.66
-0.89
-2.36
-3.72
-4.95
-6.01
-6.88
-7.50
-7.84
-7.88
-7.66
-7.29
-6.92
-6.73
-6.82
-7.21
-7.76
-8.23
-8.40
-8.18
-7.68
-7.21
-7.16
-7.87
-9.51
-11.99
-15.01
-18.11
-20.77
-22.55
-23.14
-22.47
-20.73
-18.27
-15.52
-12.83
-10.36
-8.04
-5.69
-3.11
-0.25
2.77
5.73
8.36
10.50
12.08
13.24
14.15
15.00
15.96
17.08
18.33
19.60
20.75
21.70
22.41
22.91
23.23
23.35
23.16
22.52
21.29
19.46
17.07
14.25
11.13
7.78
4.27
0.68
-2.87
-6.29
-9.58
-12.86
-16.35
-20.29
-24.77
-29.64
-34.51
-38.79
-41.81
-43.04
-42.20
-39.34
-34.85
-29.30
-23.35
-17.54
-12.23
-7.58
-3.61
-0.34
2.21
4.00
5.01
5.31
5.10
4.66
4.27
4.13
4.33
4.82
5.51
6.32
7.18
8.03
8.84
9.58
10.18
10.57
10.69
10.46
9.83
8.79
7.39
5.73
3.92
2.07
0.19
-1.72
-3.69
-5.73
-7.81
-9.92
-12.10
-14.41
-16.78
-18.92
-20.30
-20.22
-18.03
-13.45
-6.67
1.66
10.64
19.43
27.39
34.15
39.51
43.34
45.48
45.87
44.56
41.83
38.16
34.12
30.20
26.77
23.99
21.89
20.40
19.43
18.83
18.46
18.08
17.46
16.43
14.92
13.02
10.95
8.91
7.00
5.14
3.13
0.78
-1.97
-4.96
-7.89
-10.49
-12.61
-14.28
-15.69
-17.06
-18.62
-20.51
-22.82
-25.54
-28.41
-30.96
-32.54
-32.49
-30.40
-26.31
-20.68
-14.25
-7.79
-1.82
3.39
7.79
11.42
14.31
16.43
17.77
18.39
18.47
18.28
18.06
17.96
18.00
18.09
18.10
17.99
17.84
17.78
17.91
18.15
18.25
17.84
16.65
14.60
11.92
9.01
6.30
4.06
2.26
0.70
-0.92
-2.80
-4.98
-7.36
-9.80
-12.22
-14.63
-17.06
-19.58
-22.21
-24.98
-27.92
-31.06
-34.34
-37.49
-40.02
-41.30
-40.83
-38.39
-34.17
-28.73
-22.70
-16.67
-10.96
-5.70
-0.91
3.39
7.16
10.30
12.77
14.61
15.91
16.81
17.47
18.03
18.66
19.45
20.43
21.54
22.66
23.57
24.10
24.10
23.48
22.23
20.38
18.02
15.24
12.16
8.86
5.42
1.89
-1.64
-5.05
-8.20
-10.93
-13.18
-14.99
-16.45
-17.69
-18.83
-19.93
-21.02
-22.17
-23.41
-24.66
-25.67
-26.01
-25.23
-23.00
-19.33
-14.59
-9.41
-4.42
-0.03
3.66
6.77
9.51
11.97
14.10
15.75
16.82
17.31
17.34
17.08
16.68
16.26
15.85
15.49
15.24
15.14
15.23
15.45
15.66
15.65
15.23
14.30
12.88
11.13
9.25
7.44
5.73
4.07
2.33
0.40
-1.68
-3.77
-5.70
-7.37
-8.83
-10.17
-11.53
-12.94
-14.36
-15.76
-17.15
-18.58
-20.04
-21.33
-22.05
-21.72
-20.03
-16.95
-12.83
-8.25
-3.77
0.18
3.45
6.02
7.99
9.37
10.14
10.29
9.88
9.03
7.93
6.81
5.84
5.17
4.87
4.98
5.49
6.33
7.44
8.72
10.10
11.51
12.90
14.23
15.49
16.69
17.87
19.07
20.25
21.33
22.12
22.44
22.18
21.38
20.15
18.62
16.81
14.64
11.92
8.50
4.33
-0.48
-5.65
-10.86
-15.73
-19.86
-22.89
-24.53
-24.67
-23.43
-21.15
-18.31
-15.32
-12.50
-9.98
-7.76
-5.81
-4.09
-2.61
-1.38
-0.41
0.33
0.89
1.33
1.73
2.11
2.46
2.74
2.84
2.65
2.12
1.30
0.34
-0.57
-1.26
-1.70
-1.96
-2.23
-2.68
-3.42
-4.47
-5.76
-7.22
-8.76
-10.35
-11.95
-13.58
-15.27
-17.16
-19.39
-22.05
-25.12
-28.32
-31.20
-33.17
-33.77
-32.77
-30.26
-26.64
-22.45
-18.21
-14.31
-10.92
-8.05
-5.66
-3.66
-2.01
-0.67
0.43
1.37
2.27
3.21
4.26
5.41
6.65
7.96
9.35
10.84
12.43
14.10
15.76
17.23
18.32
18.88
18.84
18.23
17.15
15.74
14.10
12.27
10.26
8.09
5.84
3.67
1.78
0.32
-0.63
-1.11
-1.32
-1.56
-2.14
-3.29
-5.02
-6.98
-8.55
-8.97
-7.62
-4.24
0.97
7.43
14.38
21.11
27.15
32.28
36.49
39.82
42.29
43.91
44.65
44.51
43.56
41.99
40.04
37.98
36.01
34.24
32.67
31.25
29.90
28.62
27.37
26.12
24.78
23.26
21.51
19.52
17.39
15.16
12.82
10.24
7.24
3.70
-0.41
-4.94
-9.65
-14.25
-18.50
-22.23
-25.37
-27.99
-30.29
-32.55
-35.14
-38.30
-42.11
-46.32
-50.42
-53.74
-55.60
-55.56
-53.50
-49.70
-44.66
-39.06
-33.44
-28.22
-23.57
-19.53
-16.09
-13.24
-11.01
-9.35
-8.11
-7.01
-5.73
-4.04
-1.91
0.47
2.81
4.85
6.49
7.82
9.02
10.17
11.21
11.90
11.99
11.38
10.20
8.74
7.28
5.97
4.75
3.45
1.92
0.13
-1.83
-3.79
-5.63
-7.28
-8.77
-10.22
-11.74
-13.47
-15.53
-17.93
-20.59
-23.23
-25.40
-26.57
-26.25
-24.25
-20.66
-15.90
-10.55
-5.21
-0.30
3.99
7.69
10.90
13.69
16.01
17.75
18.81
19.18
18.96
18.34
17.50
16.58
15.61
14.62
13.58
12.52
11.43
10.29
9.07
7.70
6.16
4.48
2.78
1.16
-0.28
-1.53
-2.65
-3.72
-4.80
-5.90
-7.01
-8.08
-9.07
-9.95
-10.71
-11.39
-12.04
-12.81
-13.80
-15.07
-16.57
-18.02
-18.97
-18.88
-17.30
-14.07
-9.45
-4.03
1.46
6.33
10.25
13.15
15.22
16.65
17.56
17.96
17.84
17.26
16.41
15.52
14.78
14.28
14.00
13.85
13.77
13.70
13.63
13.54
13.40
13.15
12.77
12.25
11.61
10.84
9.92
8.82
7.56
6.19
4.83
3.62
2.64
1.89
1.31
0.77
0.18
-0.59
-1.58
-2.84
-4.30
-5.77
-6.94
-7.36
-6.67
-4.71
-1.66
2.04
5.79
9.03
11.49
13.11
14.07
14.57
14.71
14.49
13.81
12.57
10.80
8.65
6.39
4.33
2.71
1.61
0.97
0.64
0.41
0.13
-0.31
-0.97
-1.88
-3.06
-4.51
-6.19
-7.99
-9.77
-11.42
-12.87
-14.15
-15.32
-16.42
-17.42
-18.27
-18.89
-19.26
-19.46
-19.67
-20.13
-20.98
-22.28
-23.86
-25.39
-26.44
-26.56
-25.45
-23.02
-19.44
-15.06
-10.30
-5.55
-1.11
2.87
6.29
9.07
11.16
12.53
13.20
13.33
13.11
12.77
12.48
12.35
12.37
12.48
12.56
12.53
12.35
12.04
11.63
11.15
10.60
9.93
9.12
8.15
7.03
5.83
4.59
3.37
2.19
1.03
-0.10
-1.21
-2.26
-3.25
-4.16
-5.05
-5.97
-7.02
-8.27
-9.78
-11.53
-13.44
-15.32
-16.83
-17.62
-17.31
-15.73
-12.93
-9.24
-5.16
-1.19
2.31
5.19
7.50
9.27
10.53
11.20
11.22
10.59
9.44
8.07
6.79
5.84
5.36
5.29
5.51
5.85
6.19
6.49
6.74
6.99
7.25
7.56
7.90
8.29
8.69
9.05
9.26
9.14
8.55
7.43
5.88
4.19
2.65
1.51
0.78
0.25
-0.37
-1.35
-2.79
-4.62
-6.65
-8.61
-10.25
-11.26
-11.34
-10.21
-7.79
-4.26
-0.06
4.23
8.05
11.09
13.30
14.85
15.95
16.72
17.17
17.22
16.80
15.96
14.81
13.58
12.44
11.50
10.80
10.28
9.89
9.57
9.30
8.99
8.51
7.66
6.20
4.03
1.19
-2.08
-5.45
-8.55
-11.20
-13.33
-15.05
-16.45
-17.58
-18.40
-18.86
-18.99
-18.93
-18.87
-18.98
-19.31
-19.87
-20.60
-21.42
-22.22
-22.75
-22.66
-21.55
-19.15
-15.48
-10.83
-5.75
-0.75
3.77
7.63
10.82
13.37
15.29
16.57
17.21
17.24
16.80
16.02
15.05
14.03
13.08
12.28
11.66
11.18
10.71
10.09
9.17
7.90
6.37
4.78
3.37
2.31
1.68
1.34
1.08
0.63
-0.15
-1.27
-2.55
-3.74
-4.65
-5.21
-5.57
-5.95
-6.58
-7.62
-9.05
-10.76
-12.57
-14.22
-15.41
-15.82
-15.12
-13.13
-9.87
-5.62
-0.92
3.62
7.48
10.37
12.27
13.34
13.82
13.90
13.67
13.20
12.51
11.69
10.88
10.16
9.62
9.23
8.94
8.68
8.37
7.99
7.51
6.88
6.02
4.89
3.47
1.79
-0.10
-2.15
-4.37
-6.78
-9.41
-12.22
-15.03
-17.61
-19.72
-21.22
-22.12
-22.61
-22.94
-23.36
-24.07
-25.15
-26.54
-28.01
-29.16
-29.54
-28.73
-26.53
-23.07
-18.75
-14.17
-9.90
-6.35
-3.66
-1.80
-0.64
-0.07
-0.04
-0.51
-1.39
-2.55
-3.78
-4.91
-5.84
-6.53
-6.93
-6.97
-6.50
-5.33
-3.33
-0.51
3.00
6.98
11.17
15.37
19.41
23.11
26.29
28.80
30.54
31.47
31.66
31.22
30.27
28.89
27.19
25.26
23.13
20.81
18.24
15.30
11.92
8.13
4.12
0.25
-3.02
-5.24
-6.12
-5.56
-3.70
-0.89
2.36
5.55
8.22
10.08
11.06
11.25
10.86
10.09
9.13
8.10
7.10
6.22
5.54
5.13
5.00
5.11
5.36
5.65
5.91
6.08
6.13
6.09
5.96
5.81
5.66
5.47
5.16
4.63
3.78
2.60
1.15
-0.46
-2.14
-3.82
-5.47
-7.04
-8.47
-9.71
-10.72
-11.53
-12.23
-12.94
-13.82
-14.99
-16.49
-18.18
-19.76
-20.78
-20.76
-19.40
-16.61
-12.63
-7.88
-2.84
2.04
6.45
10.20
13.15
15.27
16.55
17.11
17.11
16.73
16.13
15.45
14.80
14.26
13.88
13.65
13.49
13.32
13.08
12.81
12.60
12.53
12.61
12.71
12.60
12.11
11.14
9.75
8.10
6.35
4.56
2.75
0.88
-1.06
-2.99
-4.78
-6.27
-7.35
-8.01
-8.31
-8.37
-8.33
-8.33
-8.51
-9.02
-9.92
-11.17
-12.57
-13.81
-14.54
-14.52
-13.67
-12.10
-10.05
-7.80
-5.62
-3.72
-2.27
-1.37
-1.10
-1.50
-2.54
-4.17
-6.27
-8.67
-11.17
-13.48
-15.34
-16.55
-17.04
-16.88
-16.27
-15.44
-14.62
-13.98
-13.61
-13.53
-13.66
-13.91
-14.12
-14.19
-14.03
-13.63
-13.08
-12.48
-11.96
-11.58
-11.36
-11.26
-11.20
-11.15
-11.08
-11.09
-11.33
-11.96
-13.13
-14.87
-17.02
-19.26
-21.08
-21.94
-21.43
-19.35
-15.84
-11.27
-6.18
-1.10
3.60
7.72
11.24
14.22
16.76
18.89
20.59
21.86
22.69
23.15
23.34
23.40
23.42
23.42
23.31
22.98
22.29
21.23
19.81
18.14
16.29
14.32
12.23
10.03
7.72
5.37
3.09
0.99
-0.86
-2.46
-3.87
-5.20
-6.55
-7.98
-9.48
-11.01
-12.52
-14.06
-15.73
-17.62
-19.77
-22.05
-24.06
-25.29
-25.24
-23.59
-20.39
-15.99
-10.98
-5.94
-1.30
2.77
6.30
9.40
12.15
14.47
16.21
17.25
17.58
17.38
16.91
16.44
16.11
15.88
15.62
15.14
14.34
13.19
11.76
10.10
8.25
6.19
3.90
1.40
-1.18
-3.70
-5.99
-7.99
-9.73
-11.29
-12.72
-13.98
-14.96
-15.56
-15.80
-15.85
-15.96
-16.33
-17.05
-18.05
-19.17
-20.26
-21.11
-21.50
-21.14
-19.71
-17.00
-13.01
-8.01
-2.49
3.04
8.13
12.52
16.08
18.71
20.31
20.79
20.15
18.56
16.36
13.99
11.87
10.28
9.29
8.79
8.58
8.42
8.18
7.79
7.26
6.65
6.00
5.35
4.69
4.02
3.33
2.60
1.81
0.93
-0.02
-1.02
-2.02
-2.99
-3.93
-4.87
-5.84
-6.87
-7.96
-9.11
-10.36
-11.80
-13.47
-15.33
-17.11
-18.35
-18.57
-17.36
-14.66
-10.72
-6.02
-1.09
3.64
7.91
11.63
14.76
17.27
19.12
20.30
20.82
20.81
20.41
19.81
19.15
18.52
17.95
17.42
16.92
16.39
15.86
15.36
14.95
14.66
14.46
14.24
13.83
13.07
11.90
10.34
8.47
6.42
4.25
2.01
-0.30
-2.66
-5.00
-7.20
-9.16
-10.81
-12.17
-13.31
-14.37
-15.51
-16.85
-18.37
-19.91
-21.09
-21.49
-20.72
-18.65
-15.43
-11.44
-7.19
-3.09
0.58
3.72
6.33
8.42
9.95
10.86
11.07
10.56
9.43
7.83
6.04
4.30
2.82
1.72
0.99
0.52
0.19
-0.11
-0.43
-0.81
-1.24
-1.68
-2.10
-2.45
-2.75
-3.04
-3.44
-4.03
-4.81
-5.69
-6.47
-6.98
-7.13
-6.96
-6.64
-6.39
-6.42
-6.88
-7.86
-9.29
-10.95
-12.39
-13.08
-12.51
-10.39
-6.81
-2.18
2.86
7.70
11.91
15.34
17.99
19.98
21.36
22.13
22.25
21.76
20.77
19.50
18.19
17.03
16.09
15.34
14.70
14.05
13.31
12.47
11.57
10.68
9.83
8.96
7.97
6.69
5.00
2.86
0.36
-2.35
-5.05
-7.55
-9.71
-11.46
-12.86
-14.02
-15.15
-16.45
-18.08
-20.04
-22.20
-24.26
-25.85
-26.57
-26.13
-24.33
-21.19
-16.92
-11.93
-6.77
-1.99
2.01
5.06
7.22
8.68
9.63
10.14
10.21
9.78
8.88
7.72
6.58
5.80
5.58
5.96
6.80
7.86
8.92
9.83
10.50
10.88
10.93
10.62
9.93
8.90
7.64
6.28
4.97
3.81
2.86
2.10
1.49
0.97
0.51
0.07
-0.37
-0.90
-1.64
-2.80
-4.51
-6.84
-9.65
-12.51
-14.85
-16.04
-15.62
-13.48
-9.87
-5.35
-0.60
3.71
7.16
9.60
11.10
11.88
12.15
12.03
11.54
10.60
9.18
7.36
5.35
3.42
1.76
0.43
-0.64
-1.59
-2.52
-3.40
-4.13
-4.62
-4.87
-5.01
-5.18
-5.45
-5.80
-6.12
-6.36
-6.56
-6.84
-7.32
-8.02
-8.84
-9.61
-10.16
-10.43
-10.49
-10.46
-10.46
-10.62
-11.01
-11.72
-12.71
-13.79
-14.61
-14.68
-13.58
-11.17
-7.64
-3.52
0.58
4.14
6.93
8.99
10.51
11.71
12.75
13.66
14.42
14.97
15.29
15.38
15.31
15.19
15.13
15.18
15.34
15.56
15.76
15.88
15.88
15.76
15.51
15.09
14.48
13.72
12.84
11.95
11.10
10.24
9.28
8.05
6.45
4.46
2.15
-0.33
-2.83
-5.32
-7.91
-10.84
-14.40
-18.78
-23.91
-29.38
-34.51
-38.47
-40.54
-40.31
-37.81
-33.49
-28.07
-22.31
-16.82
-11.92
-7.73
-4.20
-1.27
1.12
2.98
4.35
5.35
6.14
6.88
7.68
8.57
9.48
10.30
10.91
11.25
11.31
11.17
10.99
10.85
10.76
10.64
10.31
9.63
8.59
7.31
5.97
4.71
3.56
2.48
1.39
0.28
-0.76
-1.65
-2.40
-3.12
-4.03
-5.33
-7.12
-9.24
-11.36
-13.01
-13.73
-13.22
-11.38
-8.34
-4.44
-0.12
4.16
8.01
11.22
13.69
15.48
16.67
17.31
17.36
16.80
15.65
14.06
12.33
10.76
9.63
9.00
8.77
8.68
8.51
8.08
7.40
6.52
5.56
4.56
3.50
2.31
0.97
-0.50
-2.05
-3.61
-5.14
-6.69
-8.28
-9.91
-11.49
-12.91
-14.07
-14.97
-15.72
-16.45
-17.31
-18.35
-19.47
-20.45
-20.90
-20.43
-18.67
-15.48
-11.02
-5.73
-0.25
4.80
8.96
12.03
14.12
15.45
16.27
16.75
16.92
16.77
16.28
15.47
14.43
13.27
12.12
11.07
10.18
9.52
9.10
8.90
8.77
8.56
8.08
7.26
6.16
4.92
3.69
2.53
1.40
0.19
-1.13
-2.55
-3.98
-5.36
-6.66
-7.86
-8.97
-9.95
-10.73
-11.33
-11.86
-12.56
-13.68
-15.36
-17.46
-19.59
-21.18
-21.67
-20.65
-18.06
-14.13
-9.37
-4.37
0.36
4.44
7.75
10.28
12.14
13.40
14.12
14.34
14.10
13.52
12.77
12.01
11.42
11.04
10.84
10.71
10.55
10.27
9.88
9.43
8.98
8.54
8.03
7.34
6.34
5.00
3.41
1.73
0.20
-1.01
-1.87
-2.52
-3.18
-4.10
-5.37
-6.93
-8.54
-9.95
-11.00
-11.71
-12.29
-12.99
-14.04
-15.54
-17.40
-19.42
-21.29
-22.61
-22.98
-22.08
-19.78
-16.20
-11.73
-6.91
-2.26
1.87
5.36
8.23
10.56
12.39
13.69
14.38
14.46
13.99
13.13
12.05
10.95
9.94
9.08
8.40
7.89
7.51
7.27
7.12
7.05
6.99
6.82
6.39
5.60
4.41
2.88
1.20
-0.44
-1.88
-3.06
-4.09
-5.07
-6.12
-7.29
-8.51
-9.67
-10.68
-11.54
-12.32
-13.14
-14.12
-15.29
-16.64
-18.12
-19.63
-21.02
-22.06
-22.42
-21.75
-19.78
-16.46
-12.01
-6.91
-1.73
3.02
7.01
10.13
12.44
14.04
15.04
15.51
15.57
15.36
15.05
14.76
14.56
14.39
14.15
13.81
13.41
13.04
12.83
12.78
12.80
12.73
12.46
11.95
11.24
10.37
9.40
8.34
7.21
6.10
5.09
4.26
3.62
3.10
2.61
2.05
1.37
0.51
-0.60
-2.01
-3.78
-5.85
-8.06
-10.09
-11.54
-12.00
-11.19
-9.06
-5.86
-2.06
1.77
5.14
7.78
9.66
10.90
11.66
11.98
11.85
11.19
9.99
8.32
6.34
4.25
2.25
0.47
-1.04
-2.29
-3.37
-4.37
-5.37
-6.40
-7.45
-8.42
-9.23
-9.86
-10.32
-10.72
-11.21
-11.88
-12.77
-13.80
-14.85
-15.77
-16.48
-16.92
-17.16
-17.29
-17.39
-17.56
-17.86
-18.41
-19.27
-20.42
-21.63
-22.49
-22.42
-20.93
-17.81
-13.29
-7.92
-2.44
2.53
6.68
9.96
12.53
14.51
15.92
16.68
16.73
16.17
15.24
14.27
13.50
13.08
12.94
12.95
12.93
12.80
12.48
12.00
11.35
10.52
9.50
8.30
6.99
5.64
4.37
3.23
2.23
1.32
0.41
-0.60
-1.77
-3.07
-4.46
-5.83
-7.07
-8.09
-8.87
-9.45
-9.97
-10.64
-11.65
-13.09
-14.83
-16.52
-17.59
-17.48
-15.81
-12.56
-8.09
-3.02
2.04
6.64
10.59
13.91
16.68
18.91
20.48
21.27
21.24
20.52
19.38
18.15
17.06
16.22
15.60
15.05
14.47
13.74
12.82
11.70
10.35
8.78
6.96
4.86
2.46
-0.25
-3.18
-6.19
-9.12
-11.84
-14.28
-16.49
-18.60
-20.73
-22.90
-25.01
-26.87
-28.30
-29.23
-29.74
-30.06
-30.48
-31.25
-32.43
-33.89
-35.26
-36.02
-35.60
-33.56
-29.66
-23.97
-16.83
-8.74
-0.30
7.94
15.55
22.24
27.86
32.37
35.76
38.03
39.20
39.34
38.57
37.06
35.03
32.64
30.05
27.38
24.73
22.27
20.14
18.42
17.09
16.00
14.94
13.74
12.30
10.65
8.87
7.10
5.43
3.91
2.50
1.11
-0.36
-1.97
-3.70
-5.45
-7.10
-8.55
-9.79
-10.91
-12.03
-13.25
-14.64
-16.20
-17.89
-19.56
-20.96
-21.73
-21.49
-19.93
-17.00
-12.89
-8.08
-3.16
1.32
5.01
7.76
9.67
10.88
11.57
11.80
11.60
11.00
10.07
8.95
7.79
6.70
5.75
4.95
4.28
3.76
3.39
3.13
2.91
2.68
2.35
1.91
1.34
0.63
-0.21
-1.18
-2.25
-3.32
-4.30
-5.17
-5.93
-6.62
-7.26
-7.84
-8.30
-8.63
-8.90
-9.27
-9.92
-10.99
-12.46
-14.11
-15.58
-16.39
-16.11
-14.46
-11.38
-7.11
-2.09
3.14
8.08
12.38
15.84
18.36
19.94
20.65
20.60
20.00
19.08
18.04
17.04
16.11
15.28
14.51
13.83
13.28
12.84
12.46
12.03
11.46
10.68
9.75
8.76
7.80
6.90
6.03
5.10
3.97
2.58
0.93
-0.88
-2.68
-4.25
-5.42
-6.12
-6.43
-6.53
-6.66
-7.05
-7.91
-9.33
-11.29
-13.57
-15.75
-17.28
-17.64
-16.53
-14.04
-10.57
-6.76
-3.20
-0.30
1.83
3.27
4.20
4.73
4.93
4.79
4.31
3.58
2.71
1.85
1.07
0.43
-0.09
-0.49
-0.80
-1.03
-1.24
-1.47
-1.78
-2.20
-2.70
-3.24
-3.81
-4.40
-5.05
-5.77
-6.54
-7.32
-8.07
-8.80
-9.57
-10.44
-11.39
-12.33
-13.15
-13.74
-14.16
-14.54
-15.07
-15.84
-16.78
-17.63
-17.97
-17.35
-15.44
-12.16
-7.70
-2.51
2.85
7.88
12.22
15.70
18.35
20.26
21.51
22.19
22.37
22.16
21.69
21.08
20.38
19.60
18.69
17.64
16.44
15.14
13.78
12.34
10.82
9.16
7.32
5.27
3.01
0.57
-1.95
-4.39
-6.54
-8.27
-9.52
-10.38
-11.05
-11.75
-12.58
-13.52
-14.39
-15.03
-15.37
-15.47
-15.54
-15.80
-16.42
-17.44
-18.76
-20.18
-21.36
-21.89
-21.33
-19.35
-15.85
-11.01
-5.31
0.62
6.18
10.99
14.93
18.05
20.46
22.24
23.37
23.82
23.62
22.91
21.89
20.84
19.92
19.19
18.56
17.92
17.17
16.32
15.45
14.65
13.95
13.26
12.40
11.21
9.60
7.58
5.26
2.81
0.37
-1.95
-4.09
-6.04
-7.82
-9.46
-11.01
-12.48
-13.86
-15.14
-16.35
-17.55
-18.89
-20.49
-22.41
-24.61
-26.85
-28.77
-29.92
-29.92
-28.54
-25.76
-21.82
-17.10
-12.08
-7.15
-2.62
1.31
4.51
6.92
8.55
9.45
9.79
9.77
9.59
9.41
9.34
9.42
9.69
10.16
10.78
11.48
12.17
12.75
13.19
13.47
13.58
13.45
12.96
12.02
10.60
8.83
6.95
5.23
3.84
2.77
1.87
0.92
-0.19
-1.48
-2.80
-4.01
-5.05
-5.98
-6.99
-8.26
-9.91
-11.93
-14.25
-16.70
-19.09
-21.18
-22.63
-23.10
-22.31
-20.13
-16.73
-12.54
-8.07
-3.81
-0.08
3.00
5.37
7.00
7.86
7.97
7.48
6.74
6.14
6.00
6.41
7.23
8.23
9.19
10.03
10.80
11.54
12.25
12.83
13.13
13.08
12.69
12.06
11.33
10.59
9.85
9.03
8.04
6.77
5.21
3.39
1.48
-0.33
-1.88
-3.14
-4.19
-5.21
-6.41
-7.95
-9.88
-12.10
-14.30
-16.05
-16.87
-16.39
-14.48
-11.35
-7.51
-3.60
-0.21
2.29
3.82
4.55
4.76
4.70
4.48
4.08
3.43
2.51
1.38
0.22
-0.81
-1.58
-2.05
-2.25
-2.23
-2.02
-1.69
-1.29
-0.95
-0.81
-0.94
-1.37
-2.05
-2.90
-3.90
-5.06
-6.40
-7.90
-9.46
-10.95
-12.22
-13.15
-13.65
-13.71
-13.35
-12.65
-11.72
-10.68
-9.71
-8.90
-8.29
-7.77
-7.06
-5.78
-3.51
-0.04
4.60
10.01
15.57
20.60
24.55
27.19
28.56
28.88
28.41
27.33
25.66
23.41
20.60
17.37
13.95
10.66
7.75
5.41
3.66
2.41
1.47
0.65
-0.20
-1.10
-2.03
-2.97
-3.91
-4.96
-6.20
-7.67
-9.29
-10.86
-12.18
-13.13
-13.73
-14.13
-14.50
-14.90
-15.26
-15.39
-15.10
-14.32
-13.14
-11.80
-10.56
-9.66
-9.21
-9.22
-9.58
-10.04
-10.30
-9.96
-8.65
-6.17
-2.51
2.04
7.02
11.90
16.28
19.89
22.66
24.61
25.78
26.20
25.94
25.12
23.91
22.54
21.22
20.11
19.27
18.68
18.27
17.95
17.66
17.35
17.03
16.66
16.21
15.58
14.70
13.56
12.22
10.80
9.46
8.29
7.33
6.49
5.66
4.65
3.37
1.81
0.05
-1.74
-3.42
-4.89
-6.18
-7.38
-8.61
-10.03
-11.73
-13.72
-15.86
-17.82
-19.13
-19.30
-18.00
-15.19
-11.16
-6.39
-1.43
3.27
7.43
10.84
13.33
14.76
15.04
14.24
12.54
10.27
7.77
5.32
3.09
1.14
-0.59
-2.19
-3.73
-5.28
-6.83
-8.37
-9.91
-11.41
-12.84
-14.15
-15.25
-16.11
-16.78
-17.40
-18.16
-19.23
-20.66
-22.40
-24.31
-26.18
-27.84
-29.16
-30.03
-30.37
-30.18
-29.54
-28.61
-27.66
-26.95
-26.66
-26.78
-27.02
-26.89
-25.80
-23.27
-19.16
-13.72
-7.55
-1.37
4.24
8.99
12.87
16.03
18.62
20.66
22.07
22.78
22.79
22.26
21.41
20.46
19.55
18.72
17.95
17.21
16.47
15.69
14.89
14.07
13.27
12.54
11.90
11.34
10.79
10.19
9.51
8.73
7.88
7.01
6.17
5.46
4.97
4.82
5.04
5.56
6.16
6.57
6.56
6.01
4.97
3.61
2.24
1.19
0.80
1.36
3.05
5.83
9.41
13.35
17.14
20.38
22.84
24.51
25.45
25.70
25.27
24.08
22.09
19.35
16.05
12.47
8.88
5.49
2.38
-0.51
-3.27
-5.97
-8.63
-11.23
-13.69
-15.99
-18.11
-20.00
-21.63
-22.89
-23.68
-23.98
-23.83
-23.38
-22.78
-22.17
-21.62
-21.11
-20.62
-20.10
-19.59
-19.18
-19.02
-19.25
-20.02
-21.32
-22.99
-24.73
-26.06
-26.48
-25.57
-23.11
-19.16
-14.08
-8.42
-2.77
2.39
6.81
10.45
13.44
15.92
17.96
19.53
20.53
20.91
20.73
20.20
19.55
19.00
18.61
18.28
17.88
17.29
16.48
15.54
14.56
13.59
12.57
11.39
9.96
8.25
6.34
4.34
2.35
0.43
-1.44
-3.26
-5.02
-6.67
-8.12
-9.37
-10.46
-11.50
-12.61
-13.91
-15.39
-17.01
-18.71
-20.34
-21.70
-22.50
-22.42
-21.17
-18.63
-14.89
-10.28
-5.28
-0.39
3.99
7.62
10.43
12.46
13.85
14.68
15.03
14.94
14.42
13.57
12.52
11.46
10.53
9.82
9.29
8.86
8.40
7.84
7.10
6.15
4.96
3.52
1.92
0.32
-1.07
-2.10
-2.77
-3.17
-3.50
-3.88
-4.33
-4.76
-5.06
-5.19
-5.20
-5.23
-5.39
-5.75
-6.29
-7.05
-8.06
-9.39
-11.01
-12.68
-13.95
-14.26
-13.17
-10.57
-6.72
-2.16
2.46
6.70
10.36
13.41
15.92
17.84
19.02
19.28
18.56
17.04
15.12
13.29
11.97
11.30
11.12
11.10
10.89
10.25
9.17
7.74
6.07
4.20
2.06
-0.44
-3.21
-6.01
-8.47
-10.22
-11.13
-11.33
-11.12
-10.83
-10.67
-10.65
-10.61
-10.37
-9.83
-9.01
-8.06
-7.21
-6.68
-6.63
-7.07
-7.80
-8.46
-8.57
-7.70
-5.60
-2.29
1.95
6.68
11.43
15.82
19.56
22.49
24.50
25.55
25.71
25.12
24.00
22.68
21.46
20.64
20.33
20.53
21.08
21.72
22.21
22.39
22.22
21.73
21.00
20.04
18.79
17.15
15.04
12.44
9.43
6.17
2.90
-0.18
-2.91
-5.26
-7.28
-9.12
-10.92
-12.77
-14.71
-16.83
-19.19
-21.86
-24.75
-27.51
-29.57
-30.28
-29.17
-26.19
-21.78
-16.69
-11.68
-7.31
-3.80
-1.12
0.82
2.08
2.61
2.38
1.43
-0.05
-1.82
-3.63
-5.29
-6.70
-7.79
-8.56
-9.00
-9.10
-8.88
-8.40
-7.74
-7.05
-6.48
-6.17
-6.19
-6.49
-6.99
-7.58
-8.29
-9.28
-10.78
-12.96
-15.81
-19.12
-22.46
-25.39
-27.52
-28.63
-28.73
-28.01
-26.82
-25.56
-24.57
-24.05
-23.96
-24.01
-23.66
-22.31
-19.48
-14.96
-8.92
-1.88
5.47
12.46
18.63
23.78
27.93
31.19
33.61
35.19
35.87
35.69
34.77
33.33
31.65
29.92
28.30
26.84
25.54
24.42
23.43
22.58
21.80
21.04
20.19
19.14
17.77
16.01
13.84
11.29
8.45
5.38
2.13
-1.29
-4.83
-8.35
-11.61
-14.32
-16.24
-17.26
-17.52
-17.35
-17.16
-17.36
-18.26
-19.98
-22.42
-25.25
-27.94
-29.80
-30.22
-28.77
-25.41
-20.55
-14.89
-9.24
-4.21
-0.10
3.07
5.46
7.24
8.42
9.00
8.97
8.49
7.79
7.17
6.79
6.69
6.80
7.00
7.23
7.50
7.85
8.26
8.64
8.84
8.69
8.11
7.05
5.59
3.90
2.20
0.68
-0.52
-1.39
-2.04
-2.60
-3.15
-3.70
-4.18
-4.49
-4.64
-4.75
-5.03
-5.69
-6.85
-8.56
-10.71
-13.11
-15.47
-17.45
-18.63
-18.68
-17.38
-14.77
-11.13
-6.92
-2.62
1.35
4.74
7.47
9.59
11.16
12.26
12.92
13.18
13.09
12.73
12.23
11.77
11.52
11.61
12.09
12.85
13.67
14.28
14.45
14.05
13.09
11.71
10.11
8.51
7.07
5.91
5.04
4.41
3.86
3.21
2.26
0.93
-0.74
-2.58
-4.36
-5.93
-7.27
-8.50
-9.82
-11.41
-13.35
-15.55
-17.79
-19.65
-20.70
-20.55
-18.99
-16.16
-12.49
-8.61
-5.13
-2.45
-0.63
0.53
1.30
1.91
2.38
2.61
2.53
2.15
1.63
1.18
0.94
0.91
0.93
0.79
0.33
-0.45
-1.40
-2.30
-2.97
-3.34
-3.51
-3.68
-4.01
-4.57
-5.28
-5.94
-6.34
-6.37
-6.02
-5.42
-4.80
-4.33
-4.14
-4.27
-4.65
-5.23
-5.97
-6.83
-7.69
-8.35
-8.47
-7.73
-5.94
-3.16
0.33
4.09
7.73
10.99
13.80
16.19
18.17
19.77
20.96
21.73
22.14
22.25
22.08
21.65
20.96
20.08
19.11
18.19
17.40
16.78
16.23
15.66
14.95
14.07
13.05
11.97
10.97
10.10
9.39
8.84
8.38
7.98
7.64
7.42
7.42
7.72
8.33
9.19
10.15
11.03
11.70
12.04
11.95
11.34
10.10
8.21
5.84
3.28
0.97
-0.72
-1.59
-1.74
-1.43
-1.03
-0.82
-0.89
-1.19
-1.62
-2.07
-2.55
-3.15
-3.99
-5.14
-6.59
-8.20
-9.76
-11.04
-11.88
-12.25
-12.20
-11.85
-11.22
-10.32
-9.12
-7.62
-5.92
-4.22
-2.75
-1.68
-1.06
-0.81
-0.81
-0.97
-1.24
-1.62
-2.12
-2.73
-3.40
-4.04
-4.58
-4.98
-5.29
-5.66
-6.28
-7.33
-8.89
-10.83
-12.79
-14.26
-14.69
-13.73
-11.36
-7.91
-3.94
-0.01
3.42
6.15
8.15
9.49
10.24
10.48
10.24
9.54
8.42
6.88
4.98
2.83
0.63
-1.36
-2.85
-3.67
-3.80
-3.40
-2.69
-1.86
-1.06
-0.40
0.01
0.01
-0.57
-1.80
-3.61
-5.78
-8.00
-10.03
-11.71
-13.07
-14.19
-15.14
-15.93
-16.53
-16.92
-17.12
-17.28
-17.56
-18.14
-19.07
-20.22
-21.27
-21.77
-21.20
-19.18
-15.51
-10.32
-4.04
2.70
9.24
15.04
19.79
23.38
25.86
27.36
28.01
28.02
27.62
27.11
26.76
26.69
26.88
27.10
27.05
26.44
25.10
23.01
20.26
16.98
13.31
9.39
5.37
1.42
-2.33
-5.78
-8.92
-11.76
-14.32
-16.59
-18.54
-20.13
-21.36
-22.28
-22.99
-23.60
-24.21
-24.94
-25.88
-27.11
-28.56
-29.99
-30.98
-31.02
-29.64
-26.62
-22.05
-16.39
-10.28
-4.39
0.78
4.95
8.12
10.40
11.98
13.01
13.61
13.84
13.81
13.58
13.21
12.75
12.24
11.76
11.39
11.18
11.08
10.97
10.71
10.17
9.35
8.28
7.06
5.79
4.54
3.35
2.25
1.27
0.36
-0.55
-1.51
-2.55
-3.59
-4.52
-5.29
-5.94
-6.65
-7.63
-9.03
-10.89
-13.04
-15.17
-16.84
-17.59
-17.06
-15.07
-11.77
-7.52
-2.85
1.71
5.78
9.18
11.88
13.98
15.59
16.83
17.78
18.49
18.97
19.24
19.30
19.18
18.94
18.64
18.34
18.08
17.90
17.79
17.73
17.61
17.33
16.75
15.80
14.46
12.85
11.13
9.44
7.85
6.30
4.71
3.01
1.25
-0.45
-1.95
-3.23
-4.39
-5.63
-7.17
-9.14
-11.60
-14.46
-17.63
-20.87
-23.87
-26.15
-27.18
-26.56
-24.21
-20.39
-15.68
-10.74
-6.12
-2.12
1.18
3.82
5.88
7.42
8.48
9.14
9.52
9.79
10.03
10.29
10.48
10.47
10.10
9.29
8.09
6.61
5.04
3.50
2.07
0.78
-0.40
-1.47
-2.43
-3.29
-4.10
-4.89
-5.73
-6.60
-7.45
-8.22
-8.87
-9.44
-10.01
-10.71
-11.64
-12.86
-14.41
-16.31
-18.56
-21.09
-23.64
-25.82
-27.08
-26.93
-25.14
-21.80
-17.36
-12.45
-7.65
-3.33
0.41
3.63
6.43
8.86
10.83
12.24
12.98
13.08
12.67
11.93
11.05
10.14
9.28
8.50
7.85
7.38
7.13
7.07
7.05
6.83
6.18
4.95
3.17
1.08
-0.97
-2.63
-3.66
-3.99
-3.76
-3.19
-2.55
-2.04
-1.77
-1.77
-2.01
-2.46
-3.05
-3.79
-4.67
-5.76
-7.12
-8.76
-10.55
-12.16
-13.10
-12.86
-11.12
-7.86
-3.37
1.80
7.08
12.03
16.44
20.27
23.61
26.54
29.07
31.16
32.74
33.77
34.31
34.52
34.65
34.99
35.77
37.13
39.03
41.37
43.94
46.51
48.82
50.52
51.21
50.47
47.92
43.31
36.54
27.69
16.99
4.86
-8.11
-21.17
-33.47
-44.21
-52.79
-58.96
-62.87
-65.05
-66.22
-67.10
-68.21
-69.68
-71.26
-72.32
-72.15
-70.14
-66.06
-60.16
-53.02
-45.43
-38.11
-31.47
-25.63
-20.47
-15.80
-11.48
-7.53
-4.02
-0.98
1.70
4.28
6.97
9.86
12.79
15.45
17.54
18.93
19.70
20.06
20.21
20.24
20.05
19.51
18.49
16.95
14.95
12.63
10.15
7.68
5.33
3.17
1.16
-0.77
-2.74
-4.82
-7.07
-9.46
-11.94
-14.34
-16.39
-17.70
-17.82
-16.37
-13.21
-8.52
-2.81
3.22
8.89
13.71
17.51
20.36
22.48
24.01
24.98
25.29
24.85
23.72
22.12
20.39
18.86
17.68
16.80
16.07
15.31
14.44
13.49
12.50
11.48
10.37
9.06
7.44
5.43
3.02
0.22
-2.84
-6.06
-9.29
-12.44
-15.52
-18.60
-21.71
-24.82
-27.80
-30.50
-32.87
-34.98
-36.95
-38.79
-40.24
-40.75
-39.70
-36.66
-31.66
-25.22
-18.13
-11.15
-4.79
0.79
5.65
9.87
13.47
16.32
18.29
19.28
19.36
18.70
17.59
16.29
15.04
13.93
12.96
12.08
11.20
10.27
9.31
8.33
7.35
6.34
5.26
4.10
2.88
1.63
0.41
-0.76
-1.83
-2.79
-3.56
-4.08
-4.37
-4.54
-4.78
-5.29
-6.22
-7.57
-9.19
-10.80
-12.01
-12.45
-11.83
-10.00
-7.07
-3.30
0.89
5.03
8.75
11.78
14.00
15.37
15.94
15.80
15.10
14.11
13.15
12.55
12.52
13.10
14.15
15.36
16.44
17.16
17.40
17.17
16.54
15.58
14.40
13.05
11.60
10.06
8.45
6.82
5.20
3.68
2.32
1.15
0.16
-0.71
-1.55
-2.43
-3.44
-4.66
-6.15
-7.90
-9.80
-11.58
-12.90
-13.45
-13.07
-11.76
-9.66
-7.01
-4.02
-0.90
2.21
5.19
7.92
10.27
12.09
13.24
13.60
13.18
12.18
10.92
9.77
8.96
8.54
8.33
8.04
7.48
6.62
5.61
4.65
3.88
3.30
2.75
2.05
1.10
-0.11
-1.45
-2.77
-3.92
-4.84
-5.55
-6.11
-6.64
-7.21
-7.90
-8.75
-9.74
-10.76
-11.60
-12.00
-11.69
-10.49
-8.36
-5.45
-2.01
1.63
5.14
8.29
10.93
13.00
14.46
15.29
15.49
15.09
14.15
12.84
11.36
9.95
8.78
7.94
7.41
7.08
6.82
6.54
6.18
5.73
5.18
4.53
3.79
2.98
2.08
1.09
-0.10
-1.59
-3.47
-5.69
-8.11
-10.45
-12.45
-13.89
-14.70
-14.93
-14.70
-14.19
-13.61
-13.18
-13.06
-13.31
-13.77
-14.07
-13.77
-12.45
-9.96
-6.43
-2.25
2.05
5.99
9.25
11.74
13.52
14.75
15.55
15.98
16.05
15.72
14.97
13.84
12.41
10.86
9.40
8.23
7.52
7.28
7.37
7.52
7.42
6.84
5.73
4.18
2.43
0.67
-0.92
-2.27
-3.33
-4.08
-4.54
-4.78
-4.93
-5.11
-5.44
-5.89
-6.42
-6.94
-7.41
-7.90
-8.54
-9.48
-10.78
-12.33
-13.87
-15.01
-15.34
-14.58
-12.63
-9.62
-5.89
-1.82
2.20
5.85
8.95
11.34
12.96
13.82
13.98
13.55
12.68
11.55
10.33
9.17
8.18
7.40
6.80
6.32
5.85
5.33
4.73
4.09
3.44
2.80
2.16
1.44
0.59
-0.44
-1.65
-2.96
-4.31
-5.60
-6.80
-7.88
-8.84
-9.71
-10.50
-11.27
-12.05
-12.89
-13.83
-14.86
-15.94
-17.03
-18.06
-18.91
-19.41
-19.33
-18.40
-16.51
-13.71
-10.26
-6.53
-2.85
0.58
3.68
6.46
8.91
10.95
12.48
13.39
13.64
13.28
12.43
11.27
10.02
8.88
8.01
7.46
7.21
7.15
7.14
7.08
6.90
6.51
5.85
4.88
3.61
2.11
0.56
-0.88
-2.11
-3.11
-3.91
-4.61
-5.24
-5.83
-6.40
-6.99
-7.67
-8.48
-9.39
-10.32
-11.10
-11.67
-12.06
-12.47
-13.10
-14.01
-15.02
-15.70
-15.57
-14.26
-11.73
-8.24
-4.25
-0.26
3.37
6.46
8.95
10.84
12.14
12.84
12.95
12.60
11.96
11.26
10.67
10.27
9.99
9.69
9.24
8.58
7.80
7.05
6.48
6.11
5.82
5.41
4.70
3.63
2.26
0.74
-0.75
-2.11
-3.34
-4.49
-5.65
-6.84
-8.00
-9.05
-9.91
-10.53
-10.94
-11.23
-11.55
-12.01
-12.75
-13.84
-15.25
-16.81
-18.15
-18.83
-18.47
-16.84
-14.01
-10.30
-6.18
-2.09
1.62
4.75
7.25
9.12
10.39
11.12
11.38
11.28
10.91
10.38
9.81
9.26
8.79
8.42
8.09
7.77
7.41
7.02
6.61
6.21
5.77
5.21
4.41
3.30
1.92
0.41
-1.02
-2.22
-3.14
-3.88
-4.57
-5.35
-6.26
-7.24
-8.18
-8.95
-9.51
-9.91
-10.30
-10.88
-11.81
-13.12
-14.67
-16.07
-16.86
-16.59
-15.00
-12.12
-8.21
-3.70
0.93
5.33
9.22
12.44
14.91
16.60
17.55
17.85
17.66
17.10
16.32
15.40
14.42
13.43
12.48
11.63
10.90
10.36
10.03
9.90
9.89
9.87
9.66
9.11
8.16
6.84
5.28
3.67
2.18
0.90
-0.17
-1.15
-2.17
-3.34
-4.66
-6.02
-7.27
-8.28
-9.01
-9.56
-10.11
-10.91
-12.14
-13.91
-16.15
-18.58
-20.74
-22.09
-22.17
-20.70
-17.75
-13.67
-8.99
-4.25
0.13
3.93
7.05
9.49
11.25
12.33
12.74
12.54
11.88
10.95
9.94
8.95
8.01
7.08
6.10
5.09
4.16
3.44
3.01
2.87
2.93
3.01
3.00
2.82
2.45
1.93
1.29
0.53
-0.33
-1.21
-2.08
-2.84
-3.48
-4.04
-4.62
-5.33
-6.24
-7.34
-8.58
-9.94
-11.44
-13.09
-14.87
-16.58
-17.88
-18.34
-17.62
-15.63
-12.55
-8.76
-4.72
-0.80
2.76
5.85
8.40
10.33
11.54
11.98
11.68
10.81
9.63
8.43
7.43
6.74
6.36
6.18
6.10
6.04
5.98
5.89
5.73
5.41
4.83
3.95
2.83
1.66
0.61
-0.16
-0.66
-1.00
-1.38
-1.94
-2.74
-3.73
-4.81
-5.88
-6.92
-7.95
-9.06
-10.28
-11.65
-13.11
-14.58
-15.90
-16.86
-17.20
-16.63
-14.95
-12.14
-8.41
-4.18
0.05
3.84
6.91
9.16
10.66
11.54
11.95
11.99
11.76
11.35
10.83
10.29
9.83
9.51
9.38
9.44
9.65
9.89
10.05
10.05
9.87
9.57
9.19
8.76
8.21
7.44
6.33
4.82
3.03
1.13
-0.63
-2.04
-3.02
-3.62
-3.98
-4.27
-4.70
-5.42
-6.54
-8.07
-9.88
-11.67
-13.01
-13.46
-12.69
-10.62
-7.48
-3.73
0.10
3.53
6.26
8.18
9.37
9.98
10.19
10.13
9.89
9.47
8.83
7.95
6.87
5.66
4.46
3.40
2.51
1.79
1.20
0.66
0.16
-0.35
-0.88
-1.47
-2.17
-3.00
-3.98
-5.13
-6.45
-7.89
-9.41
-10.88
-12.20
-13.31
-14.25
-15.09
-15.97
-16.96
-18.07
-19.25
-20.44
-21.53
-22.43
-22.96
-22.89
-22.00
-20.13
-17.32
-13.76
-9.78
-5.75
-1.94
1.47
4.41
6.89
8.92
10.58
11.96
13.18
14.33
15.44
16.46
17.28
17.76
17.84
17.54
16.99
16.38
15.85
15.48
15.25
15.04
14.76
14.31
13.69
12.94
12.15
11.40
10.73
10.14
9.54
8.82
7.87
6.60
5.01
3.16
1.24
-0.60
-2.24
-3.68
-5.05
-6.55
-8.30
-10.27
-12.22
-13.68
-14.15
-13.25
-10.91
-7.37
-3.14
1.15
4.99
8.05
10.27
11.75
12.70
13.28
13.57
13.61
13.43
13.06
12.61
12.20
11.91
11.70
11.48
11.13
10.61
9.93
9.23
8.58
7.96
7.25
6.27
4.91
3.19
1.24
-0.75
-2.64
-4.38
-5.99
-7.46
-8.79
-9.90
-10.80
-11.56
-12.34
-13.33
-14.62
-16.17
-17.75
-18.98
-19.47
-18.92
-17.19
-14.36
-10.74
-6.75
-2.81
0.74
3.73
6.09
7.87
9.12
9.87
10.17
10.08
9.69
9.11
8.43
7.75
7.14
6.64
6.26
6.01
5.85
5.76
5.70
5.62
5.53
5.38
5.11
4.61
3.78
2.56
0.99
-0.81
-2.64
-4.31
-5.72
-6.81
-7.66
-8.37
-9.06
-9.82
-10.74
-11.84
-13.11
-14.41
-15.51
-16.05
-15.67
-14.10
-11.34
-7.63
-3.42
0.76
4.46
7.45
9.70
11.31
12.46
13.28
13.82
14.07
13.97
13.49
12.64
11.55
10.42
9.44
8.72
8.22
7.85
7.42
6.89
6.25
5.59
4.93
4.20
3.26
2.02
0.50
-1.12
-2.61
-3.81
-4.71
-5.44
-6.19
-7.06
-8.05
-9.06
-9.99
-10.80
-11.54
-12.33
-13.30
-14.49
-15.81
-17.01
-17.74
-17.64
-16.45
-14.11
-10.79
-6.81
-2.56
1.57
5.29
8.41
10.83
12.52
13.52
13.88
13.71
13.15
12.33
11.39
10.43
9.51
8.65
7.87
7.15
6.53
6.01
5.59
5.26
4.93
4.54
3.98
3.22
2.22
1.03
-0.25
-1.50
-2.62
-3.59
-4.43
-5.23
-6.08
-7.05
-8.12
-9.25
-10.33
-11.29
-12.06
-12.71
-13.38
-14.25
-15.45
-16.90
-18.22
-18.86
-18.21
-15.88
-11.84
-6.50
-0.50
5.44
10.64
14.60
16.99
17.68
16.82
14.84
12.45
10.39
9.26
9.28
10.31
11.94
13.74
15.40
16.78
17.81
18.42
18.51
17.97
16.86
15.40
14.03
13.18
13.21
14.23
16.11
18.45
20.70
22.25
22.51
21.03
17.58
12.18
5.12
-3.05
-11.66
-20.03
-27.56
-33.86
-38.76
-42.24
-44.37
-45.24
-44.88
-43.31
-40.58
-36.81
-32.18
-26.95
-21.38
-15.69
-10.07
-4.67
0.39
4.97
8.97
12.28
14.82
16.51
17.34
17.30
16.46
14.94
12.90
10.59
8.24
6.09
4.29
2.86
1.72
0.73
-0.25
-1.32
-2.50
-3.80
-5.19
-6.68
-8.30
-10.02
-11.75
-13.36
-14.74
-15.85
-16.76
-17.68
-18.81
-20.34
-22.32
-24.65
-27.09
-29.28
-30.79
-31.24
-30.35
-28.06
-24.58
-20.36
-15.92
-11.73
-8.11
-5.14
-2.78
-0.92
0.52
1.58
2.33
2.86
3.32
3.88
4.66
5.69
6.89
8.17
9.46
10.74
12.09
13.55
15.14
16.77
18.29
19.56
20.50
21.12
21.47
21.63
21.66
21.59
21.42
21.06
20.39
19.24
17.48
15.07
12.17
9.07
6.12
3.62
1.68
0.20
-1.05
-2.32
-3.75
-5.25
-6.54
-7.24
-7.06
-5.91
-3.99
-1.68
0.55
2.33
3.45
3.96
3.99
3.79
3.53
3.36
3.31
3.37
3.47
3.56
3.61
3.59
3.54
3.49
3.43
3.33
3.11
2.66
1.95
0.97
-0.20
-1.49
-2.84
-4.26
-5.73
-7.24
-8.75
-10.20
-11.56
-12.83
-13.99
-14.93
-15.42
-15.13
-13.79
-11.37
-8.13
-4.60
-1.31
1.40
3.56
5.50
7.61
10.12
12.92
15.66
17.90
19.37
20.04
20.07
19.71
19.09
18.24
17.10
15.66
14.01
12.30
10.70
9.22
7.76
6.08
3.97
1.37
-1.57
-4.48
-6.93
-8.58
-9.28
-9.11
-8.27
-7.02
-5.55
-4.00
-2.57
-1.49
-1.07
-1.53
-2.95
-5.08
-7.49
-9.60
-10.92
-11.13
-10.18
-8.22
-5.57
-2.56
0.51
3.45
6.12
8.47
10.37
11.66
12.16
11.74
10.39
8.30
5.81
3.32
1.13
-0.55
-1.70
-2.45
-2.95
-3.37
-3.85
-4.45
-5.13
-5.85
-6.51
-7.09
-7.64
-8.27
-9.05
-9.96
-10.85
-11.53
-11.84
-11.77
-11.46
-11.12
-10.91
-10.90
-11.10
-11.45
-11.92
-12.48
-13.01
-13.25
-12.80
-11.26
-8.38
-4.20
0.91
6.40
11.67
16.30
20.08
23.03
25.28
26.90
27.86
28.02
27.17
25.22
22.27
18.61
14.65
10.76
7.18
3.92
0.89
-2.02
-4.83
-7.44
-9.68
-11.43
-12.68
-13.52
-14.07
-14.42
-14.55
-14.36
-13.68
-12.31
-10.11
-6.98
-3.00
1.55
6.17
10.22
13.08
14.31
13.73
11.54
8.24
4.54
1.27
-0.85
-1.34
-0.09
2.61
6.20
10.00
13.46
16.20
18.10
19.13
19.26
18.45
16.59
13.68
9.85
5.42
0.84
-3.40
-6.86
-9.29
-10.63
-11.02
-10.78
-10.23
-9.66
-9.22
-8.91
-8.64
-8.32
-7.89
-7.35
-6.72
-6.01
-5.22
-4.30
-3.30
-2.31
-1.52
-1.10
-1.21
-1.90
-3.12
-4.78
-6.76
-8.88
-10.88
-12.43
-13.13
-12.72
-11.13
-8.55
-5.36
-1.97
1.31
4.32
7.01
9.34
11.18
12.34
12.68
12.17
11.01
9.53
8.12
7.06
6.46
6.23
6.20
6.19
6.10
5.94
5.75
5.57
5.42
5.30
5.15
4.90
4.47
3.74
2.68
1.30
-0.30
-1.95
-3.49
-4.85
-6.05
-7.14
-8.21
-9.30
-10.41
-11.56
-12.76
-13.99
-15.11
-15.85
-15.89
-14.91
-12.77
-9.56
-5.64
-1.48
2.43
5.76
8.37
10.21
11.31
11.69
11.40
10.52
9.23
7.82
6.56
5.69
5.24
5.13
5.13
5.03
4.70
4.19
3.62
3.18
3.00
3.06
3.19
3.12
2.59
1.42
-0.34
-2.50
-4.80
-6.96
-8.83
-10.33
-11.47
-12.28
-12.82
-13.23
-13.69
-14.40
-15.39
-16.48
-17.26
-17.19
-15.88
-13.18
-9.31
-4.75
-0.05
4.31
8.09
11.21
13.72
15.66
17.06
17.88
18.06
17.64
16.73
15.55
14.30
13.16
12.19
11.34
10.53
9.69
8.82
7.98
7.21
6.53
5.90
5.21
4.35
3.21
1.72
-0.09
-2.12
-4.21
-6.18
-7.84
-9.11
-10.01
-10.63
-11.14
-11.68
-12.37
-13.26
-14.36
-15.59
-16.80
-17.74
-18.07
-17.48
-15.81
-13.09
-9.63
-5.88
-2.29
0.82
3.35
5.34
6.94
8.22
9.21
9.82
9.98
9.67
9.01
8.20
7.46
6.93
6.67
6.63
6.74
6.92
7.15
7.38
7.57
7.64
7.49
7.04
6.30
5.33
4.17
2.81
1.19
-0.79
-3.16
-5.82
-8.56
-11.10
-13.23
-14.87
-16.08
-17.02
-17.91
-18.88
-19.95
-21.00
-21.74
-21.82
-20.90
-18.82
-15.65
-11.71
-7.50
-3.50
-0.02
2.86
5.31
7.60
9.95
12.46
14.98
17.24
18.91
19.70
19.51
18.39
16.51
14.13
11.51
8.86
6.33
4.01
1.90
-0.09
-2.06
-4.16
-6.46
-8.96
-11.62
-14.37
-17.09
-19.66
-21.90
-23.62
-24.66
-24.95
-24.57
-23.72
-22.67
-21.64
-20.76
-20.03
-19.45
-19.01
-18.72
-18.60
-18.59
-18.52
-18.10
-16.96
-14.82
-11.54
-7.20
-2.11
3.27
8.48
13.13
16.96
19.86
21.83
22.89
23.04
22.33
20.86
18.83
16.55
14.32
12.38
10.84
9.63
8.59
7.58
6.52
5.48
4.62
4.12
4.10
4.57
5.38
6.30
7.02
7.28
6.91
5.88
4.27
2.29
0.18
-1.81
-3.45
-4.62
-5.33
-5.71
-5.97
-6.23
-6.43
-6.31
-5.49
-3.70
-0.89
2.66
6.46
9.97
12.84
14.95
16.37
17.26
17.65
17.53
16.77
15.38
13.47
11.37
9.43
7.97
7.11
6.75
6.64
6.50
6.11
5.41
4.45
3.33
2.09
0.67
-1.05
-3.17
-5.75
-8.74
-11.94
-15.13
-18.09
-20.68
-22.88
-24.76
-26.46
-28.13
-29.86
-31.66
-33.40
-34.85
-35.67
-35.53
-34.16
-31.46
-27.53
-22.65
-17.23
-11.72
-6.50
-1.86
2.05
5.19
7.58
9.33
10.59
11.56
12.50
13.66
15.20
17.09
19.14
20.97
22.21
22.61
22.15
21.04
19.59
18.09
16.70
15.36
13.93
12.21
10.09
7.57
4.74
1.82
-0.96
-3.37
-5.26
-6.58
-7.44
-8.05
-8.69
-9.65
-11.09
-13.03
-15.22
-17.24
-18.63
-19.02
-18.23
-16.34
-13.55
-10.14
-6.31
-2.19
2.11
6.44
10.52
14.00
16.50
17.69
17.41
15.64
12.59
8.64
4.34
0.25
-3.17
-5.68
-7.29
-8.12
-8.29
-7.84
-6.72
-4.88
-2.41
0.42
3.27
5.79
7.81
9.36
10.58
11.63
12.57
13.34
13.75
13.64
12.86
11.42
9.39
6.97
4.45
2.16
0.48
-0.24
0.26
2.08
5.20
9.38
14.34
19.70
25.11
30.29
35.05
39.28
42.95
46.06
48.62
50.62
52.07
53.02
53.64
54.09
54.56
55.06
55.46
55.44
54.63
52.66
49.30
44.47
38.25
30.84
22.54
13.67
4.56
-4.49
-13.25
-21.60
-29.43
-36.65
-43.13
-48.66
-53.01
-56.04
-57.77
-58.46
-58.51
-58.41
-58.49
-58.84
-59.24
-59.23
-58.30
-56.04
-52.35
-47.41
-41.63
-35.51
-29.49
-23.88
-18.84
-14.41
-10.59
-7.33
-4.56
-2.23
-0.22
1.53
3.10
4.57
5.98
7.36
8.68
9.89
10.89
11.58
11.93
11.98
11.83
11.57
11.27
10.94
10.52
9.97
9.26
8.38
7.33
6.13
4.83
3.57
2.49
1.74
1.37
1.29
1.25
0.91
-0.00
-1.61
-3.75
-6.03
-7.93
-8.93
-8.71
-7.19
-4.61
-1.35
2.19
5.71
9.03
12.07
14.75
16.97
18.61
19.62
20.10
20.27
20.34
20.50
20.78
21.17
21.63
22.19
22.93
23.94
25.21
26.66
28.18
29.63
30.87
31.77
32.17
31.86
30.67
28.55
25.58
22.02
18.22
14.51
11.14
8.22
5.68
3.36
1.04
-1.51
-4.43
-7.75
-11.35
-15.02
-18.44
-21.34
-23.46
-24.68
-24.96
-24.35
-22.99
-21.06
-18.77
-16.38
-14.12
-12.17
-10.67
-9.66
-9.14
-9.02
-9.18
-9.46
-9.71
-9.79
-9.66
-9.35
-8.97
-8.56
-8.14
-7.61
-6.91
-5.98
-4.90
-3.83
-2.91
-2.27
-1.93
-1.83
-1.87
-1.94
-1.98
-1.96
-1.86
-1.74
-1.63
-1.59
-1.67
-1.90
-2.30
-2.92
-3.85
-5.16
-6.94
-9.16
-11.72
-14.39
-16.88
-18.86
-20.07
-20.37
-19.74
-18.31
-16.23
-13.68
-10.79
-7.69
-4.54
-1.61
0.83
2.56
3.50
3.76
3.61
3.31
3.02
2.78
2.48
2.06
1.51
0.95
0.55
0.42
0.57
0.92
1.30
1.58
1.67
1.53
1.18
0.65
-0.00
-0.72
-1.53
-2.57
-4.09
-6.31
-9.36
-13.10
-17.13
-20.85
-23.70
-25.33
-25.67
-24.89
-23.34
-21.38
-19.35
-17.48
-15.93
-14.68
-13.58
-12.35
-10.73
-8.54
-5.78
-2.59
0.82
4.29
7.65
10.75
13.37
15.24
16.13
15.96
14.81
12.96
10.74
8.44
6.27
4.32
2.65
1.25
0.14
-0.71
-1.33
-1.76
-2.06
-2.32
-2.67
-3.28
-4.23
-5.55
-7.11
-8.72
-10.15
-11.21
-11.87
-12.18
-12.23
-12.16
-12.06
-11.98
-11.93
-11.91
-11.87
-11.73
-11.45
-11.00
-10.47
-10.05
-9.93
-10.28
-11.06
-12.03
-12.76
-12.77
-11.73
-9.52
-6.29
-2.38
1.79
5.79
9.34
12.22
14.31
15.56
16.01
15.75
14.93
13.80
12.60
11.56
10.83
10.42
10.27
10.27
10.30
10.32
10.32
10.32
10.31
10.26
10.10
9.75
9.19
8.46
7.61
6.74
5.91
5.12
4.34
3.50
2.55
1.50
0.43
-0.53
-1.28
-1.78
-2.06
-2.25
-2.46
-2.80
-3.30
-3.96
-4.66
-5.17
-5.18
-4.35
-2.44
0.54
4.30
8.33
12.08
15.18
17.49
19.15
20.39
21.44
22.40
23.26
23.87
24.08
23.75
22.74
21.01
18.53
15.37
11.68
7.67
3.61
-0.28
-3.84
-6.98
-9.67
-11.90
-13.66
-14.94
-15.73
-16.07
-16.04
-15.74
-15.32
-14.91
-14.60
-14.43
-14.35
-14.28
-14.13
-13.88
-13.62
-13.50
-13.71
-14.30
-15.23
-16.30
-17.21
-17.65
-17.31
-15.94
-13.40
-9.68
-5.02
0.20
5.48
10.39
14.64
18.14
20.87
22.86
24.09
24.56
24.29
23.42
22.20
20.89
19.71
18.76
18.03
17.48
17.08
16.85
16.81
16.87
16.81
16.36
15.26
13.45
11.12
8.62
6.34
4.47
2.99
1.68
0.23
-1.57
-3.81
-6.37
-9.09
-11.75
-14.14
-16.12
-17.61
-18.63
-19.34
-19.98
-20.83
-22.09
-23.73
-25.50
-26.96
-27.63
-27.08
-25.14
-21.86
-17.54
-12.66
-7.68
-3.03
1.06
4.47
7.22
9.37
11.01
12.17
12.89
13.22
13.25
13.10
12.93
12.85
12.90
13.07
13.30
13.56
13.82
14.11
14.42
14.74
15.00
15.11
15.02
14.70
14.23
13.68
13.09
12.42
11.57
10.43
8.97
7.28
5.56
4.03
2.83
1.96
1.26
0.49
-0.57
-2.06
-3.95
-6.07
-8.09
-9.64
-10.37
-10.01
-8.50
-6.03
-2.97
0.19
2.98
5.06
6.30
6.71
6.43
5.57
4.21
2.40
0.20
-2.28
-4.81
-7.14
-9.01
-10.26
-10.82
-10.68
-9.93
-8.70
-7.19
-5.63
-4.28
-3.30
-2.78
-2.69
-2.92
-3.34
-3.80
-4.20
-4.47
-4.58
-4.57
-4.55
-4.65
-5.01
-5.66
-6.58
-7.66
-8.80
-9.94
-11.08
-12.29
-13.63
-15.07
-16.48
-17.66
-18.33
-18.22
-17.09
-14.86
-11.60
-7.53
-3.07
1.35
5.31
8.54
10.93
12.54
13.49
13.93
13.96
13.66
13.12
12.47
11.82
11.29
10.89
10.58
10.28
9.95
9.60
9.28
9.03
8.87
8.74
8.51
8.05
7.26
6.15
4.81
3.43
2.19
1.23
0.55
0.11
-0.20
-0.47
-0.77
-1.16
-1.68
-2.36
-3.25
-4.30
-5.47
-6.64
-7.73
-8.65
-9.27
-9.41
-8.76
-7.08
-4.22
-0.28
4.36
9.18
13.61
17.14
19.43
20.19
19.26
16.61
12.46
7.33
1.95
-2.88
-6.51
-8.65
-9.39
-9.11
-8.30
-7.40
-6.63
-6.05
-5.63
-5.28
-4.99
-4.77
-4.69
-4.73
-4.84
-4.89
-4.77
-4.39
-3.79
-3.08
-2.38
-1.75
-1.17
-0.51
0.34
1.45
2.77
4.11
5.24
5.95
6.13
5.88
5.43
5.16
5.45
6.60
8.72
11.68
15.08
18.41
21.12
22.74
23.02
21.90
19.49
16.03
11.83
7.25
2.64
-1.64
-5.31
-8.21
-10.29
-11.65
-12.46
-12.88
-13.07
-13.07
-12.91
-12.55
-11.99
-11.30
-10.59
-10.02
-9.71
-9.73
-10.06
-10.62
-11.27
-11.92
-12.48
-12.91
-13.19
-13.29
-13.20
-12.95
-12.67
-12.53
-12.72
-13.36
-14.36
-15.42
-16.09
-15.91
-14.59
-12.12
-8.78
-5.02
-1.34
1.86
4.34
6.05
7.06
7.53
7.58
7.32
6.79
6.04
5.16
4.31
3.75
3.70
4.23
5.25
6.47
7.51
8.11
8.20
7.90
7.45
7.05
6.73
6.36
5.74
4.76
3.48
2.13
1.00
0.27
-0.05
-0.15
-0.25
-0.54
-1.06
-1.77
-2.62
-3.66
-5.04
-6.95
-9.41
-12.24
-14.97
-17.00
-17.81
-17.09
-14.86
-11.43
-7.27
-2.90
1.27
4.98
8.08
10.49
12.23
13.34
13.93
14.11
14.00
13.67
13.15
12.46
11.58
10.57
9.47
8.40
7.45
6.73
6.29
6.14
6.22
6.43
6.65
6.73
6.62
6.35
6.02
5.73
5.50
5.25
4.83
4.10
3.03
1.71
0.35
-0.85
-1.77
-2.42
-2.96
-3.61
-4.55
-5.91
-7.65
-9.67
-11.75
-13.55
-14.71
-14.91
-13.99
-12.02
-9.33
-6.36
-3.54
-1.10
0.97
2.78
4.44
5.90
7.01
7.58
7.56
7.10
6.50
6.08
6.07
6.49
7.17
7.85
8.26
8.28
7.97
7.51
7.12
6.93
6.94
6.99
6.86
6.40
5.56
4.43
3.18
1.96
0.84
-0.12
-0.83
-1.12
-0.80
0.31
2.20
4.64
7.22
9.50
11.11
11.90
11.93
11.39
10.55
9.67
8.98
8.60
8.55
8.64
8.45
7.48
5.23
1.53
-3.38
-8.76
-13.63
-17.01
-18.24
-17.15
-14.03
-9.50
-4.26
1.05
6.05
10.49
14.29
17.40
19.77
21.38
22.22
22.32
21.75
20.57
18.84
16.59
13.85
10.72
7.30
3.72
0.09
-3.49
-6.95
-10.19
-13.04
-15.30
-16.78
-17.39
-17.18
-16.36
-15.19
-13.98
-13.00
-12.44
-12.46
-13.14
-14.45
-16.19
-17.98
-19.28
-19.49
-18.12
-14.98
-10.19
-4.21
2.34
8.82
14.69
19.53
23.05
25.07
25.60
24.87
23.40
21.93
21.21
21.68
23.33
25.67
27.94
29.48
29.86
28.93
26.68
23.13
18.34
12.62
6.62
1.34
-2.20
-3.43
-2.54
-0.48
1.42
2.02
0.70
-2.51
-7.25
-13.15
-20.08
-28.08
-37.17
-47.07
-57.16
-66.58
-74.42
-80.02
-83.04
-83.43
-81.41
-77.29
-71.47
-64.39
-56.48
-48.24
-40.15
-32.67
-26.14
-20.75
-16.45
-12.99
-10.00
-7.14
-4.24
-1.34
1.32
3.44
4.83
5.47
5.51
5.19
4.70
4.07
3.18
1.83
-0.05
-2.37
-4.85
-7.17
-9.05
-10.40
-11.28
-11.81
-12.12
-12.25
-12.24
-12.09
-11.90
-11.81
-11.96
-12.45
-13.30
-14.41
-15.65
-16.82
-17.70
-17.98
-17.31
-15.38
-12.00
-7.17
-1.14
5.68
12.80
19.82
26.40
32.38
37.58
41.87
45.02
46.86
47.31
46.41
44.43
41.74
38.72
35.71
32.88
30.30
27.98
25.90
24.09
22.62
21.53
20.78
20.19
19.53
18.54
17.08
15.18
12.98
10.70
8.51
6.46
4.48
2.53
0.58
-1.29
-2.96
-4.34
-5.43
-6.33
-7.21
-8.24
-9.58
-11.29
-13.39
-15.75
-18.04
-19.79
-20.48
-19.74
-17.54
-14.19
-10.26
-6.34
-2.82
0.19
2.76
4.99
6.85
8.19
8.81
8.64
7.77
6.42
4.84
3.19
1.50
-0.25
-2.12
-4.11
-6.15
-8.15
-10.00
-11.69
-13.22
-14.64
-15.97
-17.21
-18.28
-19.08
-19.48
-19.40
-18.80
-17.71
-16.20
-14.32
-12.11
-9.59
-6.79
-3.83
-0.87
1.81
3.95
5.34
5.88
5.65
4.87
3.90
3.18
3.18
4.28
6.67
10.27
14.73
19.45
23.80
27.33
29.86
31.48
32.50
33.16
33.59
33.75
33.50
32.75
31.55
30.08
28.56
27.21
26.13
25.28
24.54
23.79
22.92
21.87
20.61
19.14
17.45
15.55
13.45
11.24
9.04
6.99
5.20
3.68
2.36
1.03
-0.51
-2.45
-4.82
-7.53
-10.46
-13.50
-16.63
-19.92
-23.43
-27.06
-30.55
-33.51
-35.54
-36.43
-36.18
-34.99
-33.10
-30.69
-27.87
-24.64
-21.01
-17.07
-12.96
-8.92
-5.17
-1.89
0.83
3.06
4.94
6.67
8.44
10.34
12.40
14.57
16.79
18.95
20.92
22.55
23.72
24.38
24.57
24.44
24.12
23.65
22.92
21.71
19.76
16.91
13.13
8.54
3.45
-1.75
-6.58
-10.62
-13.53
-15.18
-15.69
-15.38
-14.62
-13.61
-12.29
-10.32
-7.24
-2.75
3.13
9.99
17.13
23.84
29.62
34.27
37.79
40.26
41.62
41.71
40.35
37.48
33.31
28.26
22.86
17.62
12.87
8.74
5.22
2.25
-0.26
-2.40
-4.28
-6.06
-7.93
-10.04
-12.44
-15.04
-17.71
-20.29
-22.68
-24.86
-26.85
-28.69
-30.39
-31.92
-33.25
-34.33
-35.14
-35.69
-36.00
-36.11
-36.11
-36.10
-36.10
-36.06
-35.78
-34.92
-33.16
-30.27
-26.21
-21.16
-15.48
-9.62
-3.99
1.09
5.41
8.87
11.49
13.35
14.54
15.20
15.44
15.38
15.13
14.78
14.41
14.04
13.65
13.16
12.50
11.61
10.50
9.25
8.01
6.96
6.24
5.95
6.07
6.48
6.91
7.11
6.88
6.15
5.01
3.61
2.15
0.68
-0.77
-2.31
-4.01
-5.88
-7.86
-9.81
-11.52
-12.77
-13.32
-12.97
-11.57
-9.08
-5.53
-1.09
3.98
9.35
14.66
19.54
23.74
27.05
29.39
30.75
31.14
30.65
29.38
27.48
25.16
22.68
20.27
18.13
16.36
14.99
13.98
13.26
12.77
12.49
12.38
12.35
12.24
11.84
10.99
9.65
7.93
6.07
4.29
2.71
1.30
-0.10
-1.63
-3.33
-5.12
-6.86
-8.40
-9.70
-10.73
-11.49
-11.87
-11.66
-10.65
-8.68
-5.80
-2.29
1.37
4.60
6.87
7.84
7.35
5.45
2.34
-1.75
-6.55
-11.76
-17.04
-22.05
-26.39
-29.77
-32.00
-33.13
-33.38
-33.09
-32.62
-32.19
-31.88
-31.61
-31.22
-30.63
-29.81
-28.84
-27.77
-26.64
-25.39
-23.97
-22.34
-20.50
-18.56
-16.62
-14.77
-13.06
-11.51
-10.11
-8.83
-7.61
-6.40
-5.11
-3.66
-1.96
0.10
2.60
5.57
8.97
12.63
16.29
19.63
22.34
24.22
25.19
25.35
24.83
23.85
22.56
21.10
19.55
17.98
16.42
14.91
13.49
12.18
10.98
9.87
8.83
7.84
6.90
6.04
5.27
4.50
3.55
2.21
0.28
-2.25
-5.22
-8.32
-11.22
-13.69
-15.70
-17.30
-18.65
-19.85
-20.97
-22.04
-23.10
-24.11
-24.99
-25.51
-25.39
-24.37
-22.32
-19.35
-15.74
-11.94
-8.31
-5.14
-2.50
-0.34
1.44
2.92
4.12
4.97
5.45
5.57
5.42
5.18
5.04
5.12
5.45
5.94
6.46
6.94
7.39
7.86
8.39
9.00
9.56
9.94
9.99
9.65
8.92
7.90
6.68
5.35
4.03
2.82
1.83
1.09
0.53
-0.03
-0.77
-1.87
-3.39
-5.26
-7.27
-9.15
-10.57
-11.23
-10.98
-9.78
-7.79
-5.31
-2.66
-0.16
2.01
3.77
5.13
6.15
6.88
7.33
7.52
7.51
7.34
7.14
7.00
6.98
7.09
7.25
7.34
7.21
6.77
6.04
5.10
4.11
3.20
2.49
1.98
1.63
1.41
1.28
1.24
1.33
1.53
1.78
1.94
1.88
1.52
0.84
-0.06
-1.05
-2.05
-2.99
-3.88
-4.67
-5.26
-5.44
-4.99
-3.80
-1.90
0.48
3.00
5.35
7.30
8.82
10.01
11.04
12.03
13.00
13.82
14.32
14.41
14.10
13.57
13.02
12.61
12.36
12.14
11.80
11.21
10.32
9.21
7.92
6.49
4.85
2.93
0.70
-1.80
-4.42
-6.97
-9.30
-11.29
-12.92
-14.23
-15.29
-16.22
-17.13
-18.18
-19.46
-21.02
-22.82
-24.67
-26.24
-27.16
-27.04
-25.62
-22.87
-19.03
-14.54
-9.93
-5.66
-2.00
1.03
3.59
5.86
7.92
9.69
10.97
11.57
11.45
10.73
9.68
8.65
7.88
7.51
7.51
7.75
8.02
8.13
7.97
7.52
6.86
6.10
5.37
4.71
4.13
3.60
3.12
2.69
2.34
2.05
1.77
1.49
1.23
1.05
1.01
1.07
1.05
0.66
-0.33
-2.01
-4.19
-6.41
-8.07
-8.61
-7.72
-5.40
-1.97
2.02
6.03
9.61
12.56
14.86
16.64
18.02
19.02
19.57
19.55
18.89
17.62
15.83
13.72
11.44
9.13
6.88
4.76
2.86
1.26
0.03
-0.86
-1.49
-2.02
-2.62
-3.38
-4.29
-5.20
-5.94
-6.38
-6.50
-6.44
-6.43
-6.66
-7.24
-8.11
-9.13
-10.14
-11.01
-11.71
-12.26
-12.75
-13.29
-14.03
-15.13
-16.66
-18.57
-20.54
-22.10
-22.68
-21.88
-19.61
-16.10
-11.83
-7.36
-3.14
0.56
3.65
6.13
8.04
9.44
10.39
11.01
11.42
11.72
12.00
12.25
12.43
12.48
12.38
12.15
11.85
11.58
11.41
11.34
11.29
11.13
10.74
10.08
9.20
8.19
7.15
6.09
4.95
3.66
2.12
0.31
-1.73
-3.96
-6.29
-8.64
-10.92
-13.07
-15.04
-16.89
-18.70
-20.57
-22.50
-24.31
-25.67
-26.20
-25.58
-23.68
-20.60
-16.66
-12.29
-7.90
-3.79
-0.07
3.21
6.09
8.57
10.59
12.08
13.04
13.51
13.64
13.61
13.58
13.59
13.65
13.70
13.68
13.53
13.22
12.73
12.08
11.37
10.66
10.03
9.50
8.98
8.38
7.66
6.81
5.88
4.93
4.00
3.07
2.10
1.07
0.00
-1.05
-2.01
-2.85
-3.61
-4.43
-5.48
-6.92
-8.83
-11.19
-13.83
-16.44
-18.61
-19.94
-20.08
-18.89
-16.47
-13.14
-9.35
-5.52
-1.96
1.16
3.80
5.95
7.59
8.71
9.29
9.42
9.18
8.70
8.07
7.38
6.74
6.24
5.95
5.89
5.99
6.15
6.27
6.36
6.44
6.57
6.70
6.77
6.66
6.27
5.60
4.70
3.66
2.55
1.40
0.28
-0.76
-1.62
-2.25
-2.64
-2.89
-3.16
-3.63
-4.50
-5.86
-7.67
-9.72
-11.59
-12.76
-12.75
-11.27
-8.32
-4.22
0.49
5.24
9.54
13.11
15.83
17.71
18.76
18.99
18.39
16.98
14.87
12.27
9.49
