1594993425.00
64.000000
-0.00
-0.00
-0.00
-0.00
-0.00
-0.00
-0.00
-0.00
-0.00
-0.00
0.00
0.01
0.01
-0.00
-0.03
-0.05
-0.05
0.00
0.13
0.36
0.66
1.01
1.37
1.72
2.06
2.40
2.79
3.24
3.80
4.42
5.06
5.66
6.20
6.68
7.15
7.68
8.31
9.14
10.09
11.04
11.88
12.56
13.14
13.76
14.65
15.96
17.91
20.32
22.90
25.38
27.58
29.57
31.68
34.32
37.81
42.54
48.15
54.10
59.83
64.97
69.58
74.14
79.34
85.71
93.76
103.00
112.62
121.73
129.77
136.75
143.30
150.75
157.77
166.64
177.95
191.79
206.97
220.57
228.25
225.36
208.53
176.87
132.76
80.05
23.07
-34.94
-92.44
-149.16
-205.23
-260.37
-313.74
-363.87
-409.83
-450.91
-486.50
-515.74
-537.23
-549.22
-549.96
-538.37
-514.21
-478.67
-433.88
-382.45
-327.02
-269.84
-212.63
-156.66
-102.95
-52.37
-5.90
35.58
71.43
101.35
125.50
144.38
158.69
169.15
176.37
180.75
182.58
182.09
179.54
175.27
169.66
163.12
156.01
148.57
140.98
133.32
125.64
117.97
110.35
102.82
95.43
88.23
81.27
74.60
68.25
62.24
56.56
51.19
46.09
41.22
36.58
32.22
28.19
24.55
21.31
18.41
15.75
13.21
10.69
8.20
5.85
3.81
2.23
1.12
0.38
-0.27
-1.08
-2.25
-3.78
-5.44
-6.90
-7.85
-8.19
-8.08
-7.91
-8.15
-9.11
-10.77
-12.82
-14.74
-16.08
-16.60
-16.45
-15.98
-15.70
-16.10
-17.59
-20.41
-24.37
-28.59
-31.47
-31.03
-25.74
-15.36
-1.34
13.48
25.99
33.94
36.75
35.38
31.66
27.42
23.82
21.42
20.30
20.42
21.56
23.33
25.01
25.79
25.10
22.86
19.48
15.71
12.29
9.71
8.13
7.42
7.32
7.46
7.48
7.06
6.04
4.48
2.71
1.24
0.60
1.07
2.61
4.79
7.09
9.06
10.53
11.64
12.68
13.91
15.39
17.00
18.39
19.28
19.52
19.06
17.99
16.39
14.31
11.75
8.93
5.92
2.94
0.16
-2.38
-4.73
-7.03
-9.34
-11.63
-13.74
-15.49
-16.70
-17.29
-17.31
-16.85
-16.12
-15.32
-14.60
-14.03
-13.55
-13.00
-12.22
-11.26
-10.24
-9.38
-8.83
-8.52
-8.26
-7.83
-7.10
-6.16
-5.17
-4.33
-3.69
-3.23
-2.89
-2.61
-2.40
-2.25
-2.14
-2.00
-1.72
-1.31
-0.81
-0.40
-0.20
-0.28
-0.56
-0.87
-0.98
-0.74
-0.15
0.68
1.54
2.24
2.64
2.82
2.90
3.07
3.44
3.98
4.59
5.11
5.42
5.39
5.02
4.35
3.47
2.52
1.62
0.84
0.14
-0.51
-1.22
-1.97
-2.70
-3.26
-3.56
-3.63
-3.59
-3.66
-3.97
-4.51
-5.13
-5.65
-5.96
-6.08
-6.16
-6.31
-6.62
-7.02
-7.42
-7.73
-7.97
-8.27
-8.78
-9.67
-10.96
-12.60
-14.47
-16.42
-18.35
-20.19
-21.95
-23.63
-25.24
-26.79
-28.34
-29.95
-31.74
-33.81
-36.21
-39.00
-42.22
-45.94
-50.17
-54.85
-59.77
-64.71
-69.50
-74.19
-79.08
-84.58
-91.09
-98.77
-107.52
-117.08
-127.10
-137.32
-147.57
-157.72
-167.62
-177.08
-185.88
-193.62
-199.62
-202.58
-200.59
-191.32
-172.68
-143.75
-105.46
-60.65
-13.33
32.62
74.53
111.41
143.55
171.63
195.95
216.19
231.86
242.90
249.95
254.12
256.37
256.97
255.52
251.37
244.34
235.06
224.76
214.72
205.52
196.88
187.70
176.72
163.03
146.55
128.00
108.64
89.93
73.13
59.09
48.11
39.96
33.97
29.21
24.72
19.78
14.06
7.62
0.88
-5.56
-11.07
-15.13
-17.52
-18.33
-18.02
-17.30
-16.84
-17.03
-17.87
-18.95
-19.71
-19.76
-19.02
-17.68
-16.03
-14.21
-12.14
-9.66
-6.72
-3.56
-0.66
1.48
2.52
2.48
1.69
0.67
-0.05
-0.17
0.38
1.41
2.50
3.17
3.07
2.15
0.76
-0.46
-0.81
0.10
2.14
4.73
7.12
8.78
9.60
9.73
9.33
8.22
5.88
1.77
-4.25
-11.63
-19.20
-25.55
-29.55
-30.66
-29.01
-25.14
-19.81
-13.84
-8.06
-3.28
-0.14
1.18
1.00
0.12
-0.53
-0.33
0.78
2.23
3.11
2.64
0.55
-2.85
-6.77
-10.20
-12.26
-12.25
-9.72
-4.39
3.62
13.68
24.61
34.91
43.17
48.63
51.49
52.69
53.46
54.73
57.01
60.38
64.58
68.68
70.68
67.55
55.98
33.95
1.98
-36.27
-75.05
-108.41
-132.45
-146.51
-152.92
-155.31
-156.85
-159.33
-163.07
-167.42
-171.43
-174.32
-175.95
-176.85
-177.53
-177.86
-177.05
-173.32
-164.24
-147.23
-120.66
-84.98
-43.05
1.18
43.87
81.78
112.69
135.24
148.94
154.24
152.71
147.03
141.30
139.61
143.28
149.65
152.00
142.53
117.87
82.39
41.57
0.04
-36.60
-64.40
-81.51
-87.98
-85.05
-74.88
-60.71
-46.68
-36.26
-31.15
-31.46
-35.71
-41.27
-45.03
-44.29
-37.74
-26.12
-11.56
3.11
14.83
21.46
22.54
19.41
14.52
10.14
7.37
6.29
6.22
6.19
5.54
4.11
2.30
0.61
-0.62
-1.48
-2.19
-2.93
-3.81
-4.68
-5.23
-5.07
-4.01
-2.29
-0.65
0.01
-1.04
-3.98
-8.32
-13.14
-17.44
-20.53
-22.32
-23.18
-23.72
-24.42
-25.41
-26.42
-26.96
-26.57
-25.06
-22.58
-19.46
-15.99
-12.23
-7.99
-3.07
2.52
8.39
13.87
18.28
21.22
22.71
23.10
22.83
22.28
21.60
20.82
19.95
19.02
18.16
17.40
16.69
15.87
14.74
13.21
11.34
9.36
7.52
6.02
4.87
3.90
2.90
1.69
0.24
-1.35
-2.90
-4.32
-5.64
-7.00
-8.59
-10.47
-12.59
-14.76
-16.79
-18.57
-20.20
-21.83
-23.70
-25.96
-28.60
-31.44
-34.19
-36.48
-38.11
-38.95
-39.07
-38.60
-37.64
-36.17
-33.99
-30.83
-26.44
-20.73
-13.93
-6.47
1.05
8.09
14.20
19.12
22.73
25.02
26.04
25.94
24.96
23.44
21.78
20.30
19.19
18.48
18.02
17.63
17.13
16.46
15.69
14.95
14.37
13.95
13.56
13.03
12.23
11.15
9.96
8.87
8.05
7.50
7.08
6.54
5.72
4.59
3.30
2.06
1.06
0.40
0.07
-0.01
0.04
0.10
0.07
-0.12
-0.50
-1.03
-1.66
-2.29
-2.81
-3.13
-3.10
-2.62
-1.60
-0.05
1.87
3.86
5.62
6.94
7.76
8.28
8.76
9.45
10.39
11.48
12.46
13.11
13.32
13.17
12.85
12.56
12.44
12.49
12.62
12.70
12.61
12.29
11.75
11.06
10.28
9.50
8.77
8.14
7.64
7.24
6.89
6.49
5.93
5.19
4.34
3.56
3.01
2.77
2.74
2.71
2.44
1.79
0.81
-0.32
-1.37
-2.15
-2.52
-2.45
-1.92
-0.96
0.35
1.82
3.23
4.37
5.11
5.47
5.56
5.55
5.53
5.56
5.60
5.59
5.47
5.21
4.87
4.48
4.16
3.92
3.77
3.67
3.58
3.45
3.22
2.84
2.25
1.45
0.46
-0.58
-1.48
-2.07
-2.30
-2.24
-2.04
-1.88
-1.90
-2.12
-2.48
-2.89
-3.26
-3.57
-3.88
-4.31
-4.99
-5.97
-7.19
-8.44
-9.43
-9.92
-9.76
-8.97
-7.70
-6.16
-4.52
-2.90
-1.36
0.07
1.40
2.62
3.71
4.68
5.51
6.21
6.81
7.37
7.94
8.55
9.21
9.87
10.50
11.09
11.61
12.04
12.36
12.55
12.67
12.77
12.92
13.12
13.31
13.36
13.19
12.73
12.07
11.34
10.66
10.09
9.54
8.90
8.03
6.85
5.38
3.68
1.84
-0.06
-1.99
-4.01
-6.18
-8.53
-10.99
-13.38
-15.44
-16.93
-17.69
-17.70
-17.07
-15.98
-14.61
-13.10
-11.57
-10.11
-8.83
-7.86
-7.27
-7.05
-7.13
-7.33
-7.47
-7.41
-7.09
-6.58
-6.01
-5.51
-5.14
-4.87
-4.61
-4.28
-3.89
-3.53
-3.38
-3.54
-4.01
-4.65
-5.24
-5.57
-5.57
-5.26
-4.78
-4.29
-3.81
-3.39
-3.15
-3.33
-4.16
-5.64
-7.68
-10.19
-13.10
-16.15
-19.10
-21.70
-23.76
-25.21
-25.95
-26.09
-26.01
-26.22
-26.85
-27.94
-29.52
-31.61
-34.36
-37.49
-40.82
-44.34
-48.22
-51.70
-54.23
-55.91
-57.38
-59.73
-62.80
-66.24
-70.09
-74.73
-78.56
-80.34
-79.65
-76.69
-72.11
-63.56
-48.09
-23.38
11.73
60.21
122.25
193.95
267.68
333.47
386.23
423.84
446.66
457.22
463.79
473.72
490.20
511.33
530.21
543.34
547.92
541.73
497.20
403.40
271.57
130.73
22.51
-49.60
-88.33
-97.14
-81.47
-49.02
-8.01
29.75
51.69
49.06
19.08
-29.34
-84.05
-136.01
-181.80
-219.51
-249.82
-274.43
-294.71
-312.19
-324.35
-329.33
-327.81
-322.32
-313.57
-301.35
-284.95
-264.10
-240.40
-214.93
-190.21
-169.78
-156.31
-149.03
-144.78
-139.67
-131.19
-119.68
-106.68
-94.78
-86.22
-81.57
-79.13
-76.21
-70.59
-61.66
-50.64
-39.42
-29.90
-23.18
-19.20
-16.90
-14.80
-11.78
-7.59
-2.81
1.47
4.29
5.25
4.67
3.28
1.91
1.12
1.01
1.31
1.52
1.14
-0.19
-2.63
-6.15
-10.50
-15.30
-20.07
-24.41
-28.19
-31.82
-36.22
-42.54
-51.63
-63.56
-77.46
-91.90
-105.50
-117.52
-127.84
-136.43
-142.73
-145.54
-143.58
-136.55
-125.71
-113.69
-103.44
-96.93
-94.60
-95.56
-98.54
-102.53
-106.90
-110.88
-113.15
-111.86
-105.24
-92.22
-72.62
-46.75
-14.87
23.03
66.98
116.68
171.44
230.42
292.55
355.77
416.30
468.54
506.53
526.22
527.35
513.57
490.45
462.53
431.34
395.71
353.66
304.89
251.63
197.50
145.17
94.74
43.88
-10.05
-67.32
-124.23
-173.73
-207.94
-221.38
-213.51
-189.32
-157.64
-127.80
-106.28
-94.94
-91.31
-90.82
-89.57
-86.10
-81.49
-77.98
-77.18
-79.14
-82.44
-85.25
-86.57
-87.00
-88.51
-93.82
-105.29
-124.20
-150.49
-182.82
-218.93
-256.03
-291.22
-322.02
-346.97
-365.98
-380.41
-392.52
-404.39
-416.88
-429.03
-438.40
-442.19
-438.52
-427.16
-409.30
-386.56
-359.94
-329.28
-293.82
-253.13
-207.98
-160.44
-113.05
-67.68
-24.65
17.35
60.47
106.54
156.13
208.02
259.29
305.91
343.69
369.42
381.85
382.14
373.58
360.57
347.17
335.81
326.55
317.26
304.63
285.52
258.43
224.38
186.82
150.68
120.83
100.55
90.81
90.42
97.01
108.10
121.85
136.97
152.10
165.34
174.42
177.49
174.26
166.62
158.40
154.13
157.37
169.35
188.67
212.10
235.99
257.73
276.32
291.97
305.15
315.73
322.86
325.49
323.02
315.57
303.73
287.75
267.03
240.15
205.30
161.12
107.17
44.13
-26.08
-100.15
-173.21
-239.10
-291.41
-325.20
-338.72
-334.25
-317.28
-294.59
-271.72
-251.48
-233.75
-216.76
-198.72
-178.93
-157.87
-136.48
-115.35
-94.48
-73.63
-52.99
-33.67
-17.54
-6.53
-1.79
-3.18
-9.38
-18.46
-28.58
-38.50
-47.64
-55.81
-62.99
-69.14
-74.26
-78.45
-81.87
-84.52
-86.14
-86.12
-83.78
-78.65
-70.73
-60.52
-48.84
-36.64
-24.77
-13.95
-4.72
2.56
7.84
11.35
13.61
15.22
16.63
17.97
19.09
19.72
19.62
18.75
17.22
15.17
12.71
9.91
6.90
3.94
1.46
-0.14
-0.68
-0.39
0.11
0.02
-1.29
-3.98
-7.66
-11.55
-14.76
-16.71
-17.25
-16.64
-15.33
-13.78
-12.27
-10.90
-9.66
-8.55
-7.55
-6.60
-5.57
-4.28
-2.64
-0.70
1.25
2.79
3.57
3.43
2.51
1.23
0.12
-0.37
-0.02
1.10
2.66
4.23
5.40
5.97
5.96
5.57
5.04
4.57
4.22
3.93
3.65
3.40
3.29
3.44
3.92
4.61
5.26
5.60
5.46
4.88
4.04
3.13
2.24
1.31
0.17
-1.33
-3.14
-5.07
-6.82
-8.17
-9.08
-9.69
-10.18
-10.69
-11.12
-11.23
-10.76
-9.62
-7.98
-6.20
-4.68
-3.66
-3.05
-2.54
-1.65
-0.07
2.21
4.89
7.49
9.58
10.92
11.51
11.46
10.95
10.05
8.86
7.44
5.95
4.56
3.40
2.50
1.76
1.07
0.34
-0.43
-1.17
-1.77
-2.09
-2.02
-1.47
-0.47
0.84
2.18
3.17
3.45
2.76
1.10
-1.31
-4.04
-6.55
-8.38
-9.24
-9.15
-8.39
-7.37
-6.48
-5.90
-5.58
-5.28
-4.72
-3.69
-2.14
-0.23
1.77
3.48
4.60
4.92
4.45
3.37
2.06
0.93
0.36
0.48
1.22
2.30
3.40
4.30
4.98
5.60
6.33
7.21
8.07
8.60
8.58
8.01
7.18
6.47
6.20
6.40
6.86
7.22
7.21
6.72
5.84
4.79
3.74
2.80
1.92
1.03
0.01
-1.14
-2.30
-3.26
-3.80
-3.83
-3.46
-2.97
-2.60
-2.47
-2.47
-2.40
-2.09
-1.54
-0.89
-0.26
0.36
1.19
2.41
4.07
5.91
7.48
8.34
8.34
7.62
6.61
5.74
5.22
5.01
4.88
4.58
3.97
3.03
1.87
0.58
-0.73
-1.93
-2.83
-3.12
-2.59
-1.14
0.99
3.36
5.42
6.74
7.20
6.93
6.25
5.47
4.74
4.05
3.26
2.24
0.92
-0.70
-2.51
-4.34
-5.96
-7.07
-7.43
-6.93
-5.70
-4.08
-2.55
-1.55
-1.27
-1.63
-2.34
-3.03
-3.48
-3.65
-3.61
-3.51
-3.39
-3.25
-3.06
-2.83
-2.66
-2.60
-2.63
-2.66
-2.59
-2.43
-2.36
-2.66
-3.54
-4.95
-6.59
-8.02
-8.88
-9.12
-8.99
-8.95
-9.43
-10.71
-12.84
-15.73
-19.19
-23.06
-27.13
-31.17
-34.90
-38.17
-40.95
-43.50
-46.19
-49.33
-53.01
-56.98
-60.75
-63.80
-65.73
-66.34
-65.59
-63.50
-60.08
-55.29
-49.12
-41.58
-32.69
-22.51
-11.22
0.68
12.35
22.78
31.20
37.55
42.60
47.62
53.76
61.39
69.85
77.75
83.74
87.11
88.10
87.55
86.29
84.52
81.75
77.12
70.10
61.06
51.39
43.05
37.85
36.60
38.97
43.89
50.20
57.11
64.09
70.50
75.31
77.35
75.90
71.36
65.34
60.11
57.57
58.53
62.45
68.05
74.02
79.61
84.66
89.33
93.73
97.79
101.37
104.39
106.88
108.78
109.62
108.29
102.75
90.29
68.06
33.94
-12.67
-70.13
-134.42
-199.65
-259.08
-306.23
-335.99
-345.73
-336.16
-311.62
-279.42
-247.97
-224.27
-211.92
-210.55
-216.73
-225.63
-232.61
-233.81
-226.18
-207.48
-176.96
-136.20
-89.76
-44.57
-7.87
15.41
24.57
23.35
18.24
15.82
20.59
33.84
54.06
78.19
103.07
126.42
147.07
164.64
178.85
189.13
194.57
194.29
188.13
177.02
163.10
149.12
137.52
129.50
124.36
119.57
111.74
98.18
78.22
53.62
27.89
4.67
-13.77
-26.99
-35.90
-41.42
-43.50
-41.14
-33.30
-20.07
-3.28
13.94
28.43
38.23
43.21
44.75
44.72
44.52
44.54
44.24
42.66
39.02
33.08
25.22
16.28
7.20
-1.19
-8.56
-15.00
-21.00
-27.06
-33.49
-40.27
-47.07
-53.54
-59.35
-64.33
-68.38
-71.39
-73.25
-73.73
-72.60
-69.60
-64.51
-57.18
-47.64
-36.21
-23.56
-10.63
1.57
12.22
20.92
27.63
32.64
36.31
39.04
41.31
43.72
46.90
51.21
56.43
61.51
64.83
64.81
60.70
53.13
43.99
35.61
29.65
26.40
24.71
22.81
19.34
14.10
8.09
2.77
-0.89
-3.11
-5.15
-8.70
-14.88
-23.56
-33.33
-42.02
-47.62
-49.05
-46.50
-41.11
-34.33
-27.18
-19.95
-12.46
-4.57
3.33
10.39
15.80
19.32
21.30
21.92
20.08
12.92
-3.55
-32.43
-73.69
-123.34
-174.30
-218.91
-251.49
-269.41
-272.42
-260.85
-234.40
-192.47
-136.04
-69.39
-0.34
61.70
108.90
137.62
149.06
147.60
138.24
124.45
107.70
88.41
67.41
46.75
29.39
18.16
14.51
17.94
26.32
36.82
46.85
54.71
59.91
62.81
64.21
64.85
65.13
65.07
64.60
63.81
63.16
63.40
65.25
69.10
74.81
81.81
89.37
96.87
103.76
109.48
113.23
113.97
110.63
102.56
89.87
73.54
55.02
35.72
16.39
-2.97
-22.84
-43.63
-65.25
-86.98
-107.71
-126.42
-142.46
-155.51
-165.36
-171.75
-174.59
-174.39
-172.62
-171.40
-172.66
-177.04
-183.18
-187.93
-187.49
-178.88
-161.21
-135.93
-106.24
-75.86
-47.86
-23.86
-3.98
12.57
26.70
38.81
48.56
55.20
58.31
58.39
57.03
56.42
58.45
63.94
72.33
82.06
91.35
98.97
104.54
108.38
110.92
112.23
111.90
109.32
104.12
96.61
87.76
78.88
71.12
65.02
60.48
57.02
54.14
51.61
49.41
47.60
46.18
45.01
43.89
42.65
41.20
39.52
37.54
35.21
32.48
29.46
26.35
23.40
20.81
18.57
16.52
14.35
11.76
8.58
4.85
0.86
-2.92
-6.02
-8.17
-9.50
-10.54
-12.00
-14.45
-18.02
-22.29
-26.36
-29.21
-30.04
-28.67
-25.47
-21.23
-16.77
-12.56
-8.68
-4.86
-0.90
3.13
6.73
9.24
10.19
9.58
7.93
6.00
4.42
3.40
2.75
2.10
1.19
0.01
-1.25
-2.44
-3.59
-4.94
-6.80
-9.30
-12.24
-15.21
-17.80
-19.75
-21.06
-21.90
-22.48
-22.89
-23.10
-22.89
-22.06
-20.58
-18.71
-17.02
-16.08
-16.29
-17.67
-19.77
-21.75
-22.70
-22.09
-19.84
-16.37
-12.27
-8.13
-4.40
-1.39
0.99
2.86
4.15
4.54
3.74
1.79
-0.93
-3.90
-6.73
-8.79
-9.73
-9.72
-9.31
-9.01
-8.82
-8.39
-7.32
-5.41
-1.94
3.57
10.77
18.26
24.18
27.16
26.72
23.43
18.81
16.24
19.25
30.02
48.47
72.55
99.18
124.93
146.41
153.49
138.86
102.56
53.42
3.79
-36.78
-63.80
-77.11
-79.51
-75.43
-68.46
-61.28
-55.81
-53.25
-53.78
-56.53
-60.16
-63.51
-65.96
-66.38
-63.65
-57.59
-49.11
-39.97
-32.11
-27.26
-26.63
-30.39
-37.07
-43.34
-46.05
-42.98
-33.57
-19.05
-2.01
14.10
26.32
33.44
36.08
35.42
32.98
30.03
27.37
25.42
23.92
22.52
21.16
19.96
18.18
15.16
10.58
4.53
-2.32
-9.79
-17.84
-26.59
-34.73
-42.19
-48.97
-54.92
-59.85
-63.34
-66.09
-69.03
-72.62
-72.60
-66.58
-54.83
-39.84
-26.79
-14.97
-3.85
6.25
15.78
24.63
31.85
36.55
38.44
38.07
37.50
38.13
40.45
43.65
45.61
43.30
34.74
20.55
4.22
-8.27
-12.07
-5.27
10.48
30.62
49.28
61.89
67.19
64.87
58.68
53.85
52.16
49.77
40.44
20.75
-6.99
-35.73
-57.60
-67.30
-65.20
-56.47
-47.44
-42.13
-40.98
-41.81
-41.82
-39.80
-36.24
-33.18
-32.75
-35.58
-40.19
-44.01
-45.67
-43.99
-39.42
-32.87
-25.21
-17.12
-9.03
-1.27
5.67
11.10
14.56
15.80
15.36
14.05
12.65
11.69
11.36
11.47
11.34
10.22
7.65
4.25
1.23
0.02
1.65
6.31
13.42
21.62
29.34
35.26
39.26
41.76
43.48
44.97
46.18
46.19
43.33
35.83
21.33
0.83
-21.62
-40.30
-50.63
-50.91
-42.05
-26.51
-7.42
11.66
28.92
42.37
50.56
53.74
54.30
56.03
62.21
74.01
88.07
99.36
102.14
92.92
72.24
44.44
15.50
-9.57
-28.52
-41.95
-51.69
-60.10
-68.87
-78.92
-90.77
-104.96
-121.93
-141.41
-161.35
-177.14
-182.65
-172.09
-142.74
-97.02
-42.66
9.57
49.47
70.93
73.61
61.81
41.98
19.81
-1.19
-19.44
-34.15
-44.19
-48.03
-44.48
-33.88
-18.39
-1.64
12.47
21.28
24.29
23.60
23.36
28.12
40.57
59.91
81.50
98.38
104.35
96.27
75.48
47.19
18.28
-5.30
-20.23
-26.02
-24.02
-15.84
-3.15
12.54
29.74
46.75
61.53
71.92
76.15
73.55
65.51
54.57
43.78
35.66
31.27
30.04
30.65
32.71
34.48
37.24
42.40
48.68
51.41
45.40
28.58
3.83
-22.31
-43.49
-56.23
-62.24
-66.36
-72.15
-78.76
-81.21
-74.69
-56.55
-29.36
0.68
25.90
40.89
44.35
38.48
26.69
11.29
-6.78
-28.14
-49.82
-68.11
-79.84
-83.37
-79.27
-69.73
-57.63
-45.17
-34.32
-26.54
-23.28
-25.29
-32.05
-41.60
-50.26
-53.32
-46.73
-28.54
-0.20
33.28
65.05
88.98
101.91
104.44
97.40
86.48
75.67
65.94
56.09
44.71
31.83
19.45
10.93
9.27
15.61
27.37
38.93
43.99
37.44
18.10
-10.51
-41.61
-67.64
-83.01
-86.20
-79.04
-64.99
-47.53
-29.41
-12.68
1.09
10.94
17.02
20.66
24.37
30.49
40.56
52.61
61.60
61.75
49.81
27.17
-0.20
-24.22
-38.36
-40.76
-35.03
-28.01
-25.91
-31.20
-41.81
-52.63
-58.76
-58.50
-53.90
-49.24
-48.17
-52.24
-59.02
-65.28
-68.34
-67.26
-62.73
-55.97
-47.69
-37.61
-24.80
-8.57
10.45
30.25
47.91
60.48
65.86
63.16
52.91
36.72
16.87
-4.28
-24.46
-41.74
-54.81
-63.14
-67.27
-68.98
-71.09
-76.69
-88.13
-105.98
-127.67
-148.08
-160.52
-158.80
-139.17
-101.30
-47.96
15.86
84.18
150.78
209.76
256.22
287.20
302.48
304.47
297.20
284.76
270.07
254.84
240.07
226.81
215.93
207.35
199.30
188.84
173.44
152.81
129.60
108.18
92.41
83.70
80.48
79.50
77.63
72.99
64.79
52.43
34.75
10.45
-20.80
-57.14
-94.11
-125.76
-146.77
-154.41
-149.65
-136.96
-122.82
-113.62
-113.68
-124.24
-143.51
-167.82
-192.74
-214.08
-228.67
-234.74
-232.12
-222.26
-207.84
-191.89
-177.04
-164.37
-153.22
-141.83
-128.78
-113.93
-98.79
-85.62
-76.26
-71.86
-71.85
-73.95
-74.75
-70.84
-59.98
-41.93
-18.48
7.09
29.92
46.05
53.86
54.23
49.54
42.20
33.86
25.59
18.07
10.23
0.77
-11.27
-26.35
-44.84
-67.14
-93.50
-123.28
-147.86
-160.24
-157.89
-144.05
-124.22
-102.79
-82.40
-64.60
-50.85
-39.05
-28.81
-20.27
-13.29
-6.97
0.15
9.98
21.89
35.64
50.81
65.27
76.76
83.93
86.56
85.12
80.19
72.27
62.58
52.93
44.54
38.52
35.67
35.88
37.93
39.94
40.09
37.97
34.10
29.03
23.19
17.02
10.62
3.91
-3.10
-10.38
-17.35
-23.65
-29.54
-35.39
-40.09
-41.72
-37.87
-26.31
-6.26
22.24
57.01
94.14
129.17
160.14
186.18
207.38
224.63
238.50
251.05
262.92
273.10
279.36
282.31
283.01
282.85
283.45
285.32
290.98
300.78
313.20
325.55
338.52
351.87
363.58
370.29
367.71
357.03
340.33
320.20
276.04
199.58
95.50
-21.00
-123.12
-210.79
-286.65
-355.04
-417.53
-473.11
-517.06
-546.58
-562.00
-566.09
-563.89
-544.78
-503.28
-441.96
-371.61
-302.54
-242.13
-193.47
-156.41
-130.05
-110.44
-96.97
-89.51
-88.19
-90.26
-91.99
-89.98
-82.26
-69.48
-52.65
-35.67
-23.87
-21.46
-29.08
-44.39
-63.32
-81.51
-95.98
-104.69
-108.39
-109.00
-108.17
-105.84
-100.58
-90.40
-73.99
-51.55
-24.35
5.22
35.23
65.12
95.83
129.03
165.85
205.78
246.30
283.33
312.01
328.34
330.40
319.01
297.54
270.77
243.47
219.11
199.46
185.11
176.32
173.53
177.06
186.11
197.62
206.07
204.73
188.09
154.22
106.04
50.74
-2.65
-46.22
-75.46
-90.05
-92.91
-88.28
-79.89
-69.90
-59.05
-47.51
-35.83
-25.34
-17.72
-14.24
-14.95
-18.52
-22.95
-26.46
-28.64
-30.89
-35.79
-45.77
-61.77
-82.39
-104.24
-123.13
-135.73
-140.73
-139.11
-133.26
-125.68
-117.87
-109.94
-101.10
-90.64
-78.69
-66.43
-55.67
-48.19
-45.01
-46.09
-50.04
-54.26
-55.44
-50.30
-36.65
-14.28
14.70
46.39
76.34
101.15
119.22
130.53
135.56
134.13
125.24
107.87
82.33
51.30
19.58
-7.42
-25.71
-34.10
-34.47
-30.63
-26.55
-24.81
-26.07
-29.68
-34.81
-41.61
-51.38
-65.98
-86.85
-114.20
-146.96
-183.19
-220.60
-257.15
-291.29
-322.02
-348.83
-371.43
-389.39
-401.82
-407.35
-404.40
-391.96
-370.26
-341.00
-306.88
-270.55
-233.56
-196.05
-157.12
-115.73
-71.39
-24.27
25.23
76.68
129.82
184.08
237.99
288.98
333.77
369.45
394.54
409.64
417.05
419.75
420.13
419.33
417.32
413.70
408.41
402.14
395.98
390.92
387.41
385.33
384.30
383.99
384.31
385.14
385.85
384.88
379.59
366.73
343.17
307.01
258.25
198.87
132.36
62.83
-5.92
-70.98
-130.56
-183.75
-230.47
-271.39
-307.89
-342.16
-377.03
-415.44
-459.50
-509.29
-561.96
-611.74
-651.16
-673.30
-674.06
-653.45
-615.35
-565.69
-510.32
-453.33
-396.79
-341.40
-287.50
-235.59
-186.07
-138.65
-91.89
-43.43
9.17
67.23
129.92
193.75
253.23
302.43
336.92
355.23
359.28
353.31
342.17
329.52
317.11
305.07
292.85
280.18
267.44
255.42
244.92
236.26
229.08
222.20
213.77
201.60
184.02
160.86
133.83
106.07
80.96
60.64
45.29
33.47
23.33
13.96
5.88
0.47
-1.17
0.89
5.32
10.28
14.63
18.69
24.30
33.86
49.04
69.56
92.87
114.82
131.09
138.71
137.17
128.56
116.61
105.43
97.92
94.99
95.37
96.34
94.76
88.13
75.48
57.60
36.92
16.34
-1.98
-17.87
-33.69
-53.90
-83.53
-125.75
-179.98
-241.19
-301.07
-350.61
-382.89
-394.99
-387.84
-365.04
-330.81
-288.84
-242.19
-194.01
-147.84
-107.02
-73.44
-46.29
-22.24
3.41
34.52
72.33
114.76
157.59
196.34
227.85
251.48
268.35
280.56
290.32
299.20
307.29
313.50
315.89
312.37
301.75
283.16
256.82
224.21
187.58
148.84
109.83
72.43
38.52
10.69
-10.36
-24.94
-33.91
-38.91
-43.20
-50.23
-62.76
-81.90
-105.42
-131.57
-158.29
-183.40
-205.96
-227.38
-249.52
-273.19
-297.50
-318.94
-337.16
-353.90
-372.01
-383.62
-381.20
-361.20
-326.11
-292.15
-256.44
-213.12
-158.89
-89.83
-9.96
71.82
146.51
208.00
254.51
289.22
313.83
329.23
335.74
332.38
316.31
284.92
237.30
175.59
106.49
37.20
-24.58
-71.82
-100.47
-111.49
-108.49
-95.78
-76.89
-53.62
-28.36
-3.21
20.24
40.44
53.85
57.68
50.99
34.91
12.21
-14.64
-43.57
-73.30
-103.62
-137.17
-175.04
-215.03
-251.92
-279.85
-295.20
-297.61
-289.87
-262.53
-215.10
-156.19
-98.60
-50.16
-11.11
21.88
51.59
78.66
102.50
120.09
130.34
134.45
134.77
132.63
127.63
119.16
108.06
98.24
90.22
84.02
78.77
73.05
65.30
54.72
42.14
29.64
19.83
12.20
4.41
-4.80
-14.90
-23.81
-29.05
-28.88
-22.94
-11.96
3.20
20.85
39.26
57.75
75.59
91.33
103.02
105.11
97.08
81.02
61.18
36.55
6.65
-27.75
-64.92
-103.10
-141.40
-175.26
-195.67
-197.31
-181.37
-154.61
-125.71
-101.02
-82.93
-69.82
-56.62
-38.52
-13.82
16.24
48.56
78.83
104.20
122.34
132.11
134.46
130.70
121.28
107.05
89.93
72.39
56.25
42.02
29.30
17.82
6.90
-5.08
-17.96
-30.39
-40.36
-46.31
-47.11
-41.69
-29.01
-8.47
14.55
31.98
39.17
38.58
36.12
36.89
41.99
47.91
47.23
32.43
0.64
-44.57
-93.86
-137.37
-168.09
-186.23
-192.19
-187.82
-174.86
-153.42
-122.83
-82.53
-35.48
12.40
54.61
87.19
109.10
122.46
131.38
131.70
124.48
111.46
94.04
73.55
52.32
32.95
17.86
8.41
4.18
4.32
6.28
7.46
6.53
4.99
4.38
6.87
14.16
26.65
43.61
61.53
75.05
78.94
70.34
50.15
23.64
-1.27
-16.62
-17.39
-3.66
19.90
45.95
67.04
78.27
78.93
71.80
61.34
50.73
40.89
30.99
19.83
7.10
-6.12
-17.97
-26.87
-32.18
-35.66
-40.10
-47.85
-59.65
-74.49
-90.51
-106.09
-120.70
-130.16
-132.33
-126.96
-116.08
-103.11
-91.33
-83.22
-79.48
-80.71
-81.39
-76.36
-61.89
-36.79
-2.71
36.42
75.69
110.36
135.78
149.75
152.13
144.68
129.82
109.48
84.57
54.80
20.51
-16.36
-52.38
-81.44
-97.37
-98.94
-91.55
-83.57
-81.73
-89.14
-98.74
-101.40
-90.64
-64.69
-26.53
18.17
64.60
102.44
123.88
128.46
121.95
110.99
99.25
87.06
73.87
60.95
50.83
48.30
54.39
65.03
71.75
65.75
41.90
0.79
-51.27
-105.63
-152.30
-183.65
-191.99
-175.22
-136.22
-81.67
-20.62
39.40
86.38
112.79
120.55
118.64
115.49
114.09
114.30
109.56
94.13
65.06
24.19
-23.53
-72.72
-116.13
-145.08
-154.66
-146.59
-127.37
-104.66
-83.51
-66.21
-53.90
-47.21
-46.24
-50.76
-56.84
-58.80
-51.31
-31.61
-0.69
36.78
75.14
106.35
123.51
126.39
120.68
113.28
107.35
103.35
95.31
78.57
51.83
16.97
-21.18
-56.94
-82.76
-96.47
-102.19
-106.39
-114.03
-120.15
-116.62
-96.56
-58.32
-6.53
49.44
98.24
127.39
132.43
118.95
97.50
77.85
65.48
61.27
62.72
65.85
67.26
63.07
50.66
28.61
-2.30
-38.82
-75.90
-106.62
-124.53
-128.60
-122.17
-110.21
-97.21
-86.52
-79.84
-76.95
-76.72
-74.63
-66.76
-50.28
-24.61
8.17
43.22
75.45
102.16
124.00
144.02
163.41
180.55
187.31
177.99
149.88
104.91
49.63
-9.61
-60.26
-92.16
-103.66
-101.06
-92.44
-84.21
-79.88
-80.29
-83.78
-87.07
-85.36
-75.08
-54.32
-23.06
15.69
56.31
90.69
111.00
116.25
110.68
100.24
89.83
82.43
78.47
75.82
72.51
65.40
52.79
33.50
7.25
-24.30
-57.58
-85.72
-103.23
-108.80
-104.15
-91.60
-73.61
-52.78
-32.14
-14.61
-2.76
1.20
-3.05
-13.50
-26.26
-36.96
-40.41
-32.57
-11.85
19.15
52.24
76.89
84.30
70.76
39.62
-0.30
-38.81
-68.17
-82.11
-81.77
-72.92
-61.07
-49.44
-38.12
-26.25
-14.29
-4.13
1.35
-0.33
-8.85
-19.59
-27.00
-25.18
-10.70
15.16
47.64
79.99
105.34
120.94
130.64
135.43
134.26
124.14
101.26
65.17
19.73
-27.26
-64.36
-80.82
-76.10
-58.26
-39.07
-31.49
-36.89
-50.61
-64.17
-68.48
-58.10
-35.03
-5.76
24.18
46.84
57.05
52.86
36.20
11.68
-15.84
-44.23
-72.24
-92.22
-96.65
-84.92
-65.91
-49.43
-42.69
-41.80
-42.55
-41.64
-36.99
-23.10
3.80
44.16
89.15
127.56
153.83
166.40
168.25
155.08
123.34
75.91
17.95
-44.16
-100.91
-142.63
-157.52
-143.08
-111.16
-88.65
-79.74
-79.35
-75.34
-59.23
-24.81
28.10
91.33
149.54
182.70
181.54
150.58
110.10
70.03
36.05
10.11
-9.72
-26.67
-42.66
-55.18
-63.09
-67.77
-74.28
-85.83
-101.36
-116.51
-125.20
-121.15
-98.74
-59.25
-10.97
34.28
60.14
60.22
43.25
24.27
10.13
3.19
1.85
4.13
4.97
1.22
-6.07
-14.05
-19.30
-20.94
-21.04
-26.49
-35.74
-42.03
-33.93
-2.93
50.85
116.04
173.60
206.57
208.51
185.36
150.30
117.61
95.98
85.09
77.44
63.20
37.49
3.78
-30.90
-60.89
-83.19
-96.93
-101.77
-96.78
-82.24
-59.62
-30.65
-1.55
19.04
25.32
16.85
-1.53
-22.42
-41.24
-56.78
-68.30
-79.11
-92.98
-109.59
-124.66
-132.69
-120.71
-86.59
-57.12
-45.97
-52.01
-69.23
-86.23
-91.59
-80.07
-54.70
-26.29
-5.79
7.51
14.25
18.25
26.27
42.32
62.98
80.59
87.27
80.76
67.35
54.43
47.74
51.04
64.05
83.00
103.64
121.37
132.57
135.98
129.92
113.40
82.25
42.66
3.85
-25.83
-43.00
-48.79
-46.38
-39.84
-32.43
-25.93
-20.43
-18.38
-21.23
-30.48
-46.50
-67.73
-90.75
-110.58
-121.68
-114.25
-88.59
-51.23
-12.23
19.75
40.99
53.34
61.95
69.65
75.83
75.59
64.51
40.73
7.06
-29.81
-58.50
-71.93
-70.27
-59.78
-49.53
-44.39
-45.61
-48.43
-46.46
-34.37
-10.96
20.86
55.75
88.59
117.98
143.41
164.39
179.77
188.19
182.60
159.95
121.71
69.18
15.76
-23.75
-43.52
-49.31
-54.49
-65.00
-79.21
-91.94
-98.06
-89.94
-66.84
-33.23
3.41
35.28
56.04
61.83
51.90
29.51
1.73
-25.36
-48.37
-67.31
-84.04
-99.56
-111.98
-116.24
-106.12
-77.36
-32.17
21.18
71.96
111.62
136.71
148.18
148.67
139.62
121.73
95.13
61.09
22.13
-17.73
-54.12
-83.45
-103.31
-113.10
-111.44
-97.01
-70.28
-35.72
0.73
34.07
61.31
81.22
90.96
88.84
74.58
49.36
14.18
-27.12
-68.26
-103.51
-130.79
-154.74
-179.68
-205.71
-228.21
-242.49
-243.51
-227.87
-196.03
-135.84
-55.58
23.26
80.70
123.82
158.98
184.98
196.48
189.09
162.69
120.23
70.13
23.11
-13.51
-41.61
-67.46
-94.45
-119.07
-132.43
-126.83
-98.54
-49.24
13.40
75.84
124.17
150.01
151.97
133.15
97.58
49.69
-3.87
-54.13
-88.22
-100.40
-96.92
-88.67
-86.87
-90.70
-96.29
-97.64
-89.09
-64.77
-25.32
25.17
81.53
137.12
183.94
211.75
214.02
190.60
147.09
92.88
39.29
-3.04
-28.37
-36.39
-32.73
-21.48
-2.91
23.74
54.54
80.66
95.86
100.37
103.97
107.14
108.76
109.22
103.30
87.26
59.39
22.27
-20.77
-59.73
-88.48
-112.55
-135.98
-157.92
-168.63
-159.69
-125.97
-69.64
-0.81
63.58
107.75
123.53
110.90
77.70
35.13
-5.58
-37.66
-60.69
-80.67
-104.49
-134.75
-168.29
-196.60
-209.80
-200.58
-167.66
-115.95
-54.83
6.19
60.18
101.98
127.22
131.39
111.91
70.47
14.87
-42.60
-88.97
-115.14
-118.83
-103.66
-76.23
-42.62
-6.96
28.85
63.51
94.66
118.57
131.52
131.71
119.82
98.72
71.51
41.44
11.94
-13.79
-32.93
-42.84
-41.24
-27.36
-2.49
26.51
49.02
57.33
51.75
38.18
23.06
10.92
3.81
3.81
8.36
15.04
22.50
29.56
35.00
38.28
40.40
40.44
40.29
41.77
43.39
44.74
45.42
44.99
42.90
38.85
32.44
23.88
13.09
0.79
-11.24
-21.27
-28.06
-31.09
-29.99
-25.24
-17.65
-9.26
-2.24
2.37
4.55
5.46
6.90
11.10
19.07
29.68
38.96
41.50
32.72
10.90
-21.25
-58.33
-92.45
-117.05
-128.98
-129.49
-122.51
-112.19
-101.00
-87.79
-73.21
-57.71
-42.92
-31.09
-23.57
-19.51
-15.98
-9.59
1.79
17.32
34.30
49.21
59.79
65.38
67.02
66.16
63.77
59.68
52.77
42.53
29.65
16.14
4.64
-2.62
-4.94
-3.32
0.00
1.97
0.48
-5.09
-13.69
-23.10
-30.34
-33.95
-33.78
-30.59
-26.26
-22.90
-22.32
-26.04
-34.75
-47.70
-62.29
-73.80
-75.32
-61.54
-31.26
10.57
53.17
82.99
89.12
68.44
28.11
-16.24
-47.97
-56.30
-40.25
-7.82
28.71
58.69
77.03
80.78
74.60
64.68
54.33
43.11
29.38
12.94
-3.89
-17.27
-23.95
-22.62
-15.50
-6.97
-1.53
-1.62
-6.94
-15.01
-22.48
-26.51
-25.42
-19.81
-11.98
-4.66
0.31
2.56
3.37
4.33
7.09
12.88
21.86
33.47
46.92
61.72
77.05
90.89
99.62
99.07
86.51
62.54
31.87
1.94
-19.57
-27.92
-22.99
-8.94
8.07
22.45
30.71
31.57
25.03
12.19
-5.02
-23.95
-41.54
-55.06
-62.93
-65.27
-62.36
-56.62
-50.71
-46.28
-43.68
-42.51
-42.51
-43.76
-46.71
-51.90
-59.65
-69.29
-79.07
-87.13
-92.34
-94.44
-93.50
-89.63
-83.05
-74.20
-63.38
-50.24
-33.88
-12.88
11.66
35.92
56.03
69.08
74.07
71.04
64.71
63.01
72.91
97.06
132.09
169.28
198.10
210.44
203.04
177.64
139.09
92.30
42.29
-5.54
-45.53
-73.02
-86.50
-89.06
-87.39
-86.76
-91.92
-102.38
-112.78
-118.00
-117.34
-114.00
-111.55
-112.34
-110.89
-101.07
-79.08
-45.75
-5.58
35.95
75.10
108.47
129.93
135.06
122.77
97.34
65.91
35.81
12.56
-0.93
-4.64
-0.87
7.43
16.48
24.27
27.92
25.23
15.49
-0.31
-19.64
-39.11
-54.80
-64.05
-65.97
-61.81
-53.92
-44.69
-36.38
-30.51
-27.66
-27.12
-27.82
-28.74
-29.54
-30.23
-30.99
-31.95
-32.99
-33.73
-33.48
-31.70
-28.22
-23.42
-17.91
-12.27
-6.85
-1.58
4.07
10.97
19.92
31.32
44.80
59.38
73.71
86.42
96.48
103.30
106.64
106.51
103.10
96.94
89.00
80.71
73.61
68.92
67.07
67.57
69.15
70.20
69.18
64.99
57.19
46.17
33.29
20.75
10.93
5.39
3.76
3.26
-0.81
-13.34
-37.28
-71.84
-112.14
-150.57
-179.31
-192.80
-189.25
-170.47
-140.45
-103.62
-63.63
-23.20
15.19
48.65
73.97
88.44
91.15
83.65
69.56
53.08
37.36
23.61
11.43
-0.01
-10.70
-19.39
-24.11
-23.52
-17.88
-9.27
-0.72
5.07
6.92
5.37
2.17
-0.74
-2.07
-1.61
-0.05
1.55
2.23
1.53
-0.44
-3.15
-5.81
-7.61
-7.81
-5.88
-1.68
4.42
11.37
17.62
21.44
21.49
17.18
9.01
-1.57
-12.59
-22.14
-28.85
-32.15
-32.27
-30.14
-27.12
-24.72
-24.17
-26.05
-29.95
-34.55
-37.96
-38.44
-35.02
-27.86
-18.17
-7.73
1.76
9.20
14.49
18.51
22.82
29.04
38.00
49.09
60.05
67.74
69.28
63.36
50.87
34.59
17.97
3.81
-6.50
-12.84
-15.54
-14.63
-9.70
-0.54
12.05
25.86
37.72
44.61
44.81
38.56
27.72
14.98
2.91
-6.78
-13.39
-17.03
-18.24
-17.84
-16.59
-15.23
-14.33
-14.20
-14.89
-16.05
-16.97
-16.71
-14.33
-9.20
-1.40
8.23
18.11
26.40
31.49
32.46
29.34
23.02
14.96
6.74
-0.47
-6.27
-11.05
-15.63
-20.72
-26.34
-31.62
-35.16
-35.82
-33.36
-28.73
-23.78
-20.38
-19.68
-21.64
-25.23
-29.05
-31.91
-33.24
-33.04
-31.65
-29.44
-26.73
-23.65
-20.14
-15.90
-10.42
-3.18
6.07
16.87
28.04
37.82
44.49
46.96
45.10
39.73
32.21
23.98
16.08
9.02
2.88
-2.43
-6.99
-10.79
-13.97
-16.91
-20.35
-25.28
-32.89
-44.03
-58.75
-76.15
-94.44
-111.27
-124.03
-130.08
-127.26
-114.95
-94.26
-67.74
-38.61
-9.58
17.86
43.64
68.67
93.58
116.81
135.13
144.81
143.25
130.31
108.28
81.34
54.71
33.25
18.89
11.37
8.92
8.97
9.03
6.54
-0.65
-13.22
-28.36
-42.53
-52.98
-59.30
-63.08
-66.18
-70.33
-75.53
-80.20
-78.64
-67.94
-47.48
-18.93
14.15
48.19
80.46
106.83
125.35
143.33
161.16
173.84
174.73
154.63
111.84
51.36
-16.41
-78.94
-120.41
-133.87
-124.20
-103.64
-83.69
-70.10
-64.58
-66.05
-71.24
-76.23
-76.76
-69.26
-51.20
-22.20
15.44
55.64
89.89
109.76
113.73
105.85
93.24
82.68
78.11
79.37
81.07
77.63
63.73
38.02
2.79
-36.80
-74.36
-104.06
-118.98
-119.07
-109.62
-96.93
-84.83
-74.50
-66.08
-59.77
-55.67
-51.34
-44.47
-32.18
-12.05
16.15
50.16
85.17
112.19
126.69
130.27
126.26
117.42
106.03
89.00
64.57
33.27
-2.63
-38.42
-68.03
-86.60
-93.76
-94.22
-93.63
-95.21
-93.76
-83.20
-59.11
-22.13
21.60
65.47
101.95
122.74
127.84
124.82
121.38
120.81
121.54
113.63
90.95
52.69
2.79
-49.40
-94.51
-129.63
-149.92
-156.04
-163.87
-180.45
-199.21
-212.18
-209.26
-183.20
-135.24
-73.17
-8.08
51.40
103.70
150.64
190.87
221.44
237.64
232.75
203.57
152.87
89.50
22.73
-33.83
-75.63
-108.14
-132.46
-147.36
-148.82
-132.92
-98.39
-48.12
14.02
73.59
118.06
149.41
174.17
195.45
207.64
204.78
183.15
143.87
91.51
34.58
-18.40
-64.72
-106.53
-146.86
-184.96
-215.54
-230.26
-222.62
-189.55
-133.02
-61.54
13.02
78.86
126.96
151.73
151.51
127.67
84.86
29.54
-32.06
-94.17
-150.55
-193.89
-217.10
-215.00
-186.68
-135.79
-69.52
2.99
72.43
131.07
172.99
193.78
190.87
163.96
115.52
51.78
-18.57
-86.14
-141.58
-177.03
-187.45
-171.56
-132.15
-75.40
-8.77
59.95
122.02
169.00
193.15
188.94
155.26
96.55
22.69
-51.93
-112.01
-146.94
-152.57
-131.98
-92.82
-43.43
13.01
68.09
114.42
153.97
184.26
199.39
192.49
161.09
109.31
45.40
-21.61
-84.99
-139.84
-183.33
-212.44
-224.43
-216.07
-185.95
-138.07
-73.87
-5.38
53.38
94.82
122.98
142.42
153.75
155.38
140.83
108.20
60.69
6.41
-46.08
-87.06
-118.41
-147.19
-172.51
-190.73
-195.05
-179.53
-142.22
-87.01
-21.97
43.02
101.46
151.11
189.26
212.87
218.44
203.59
169.25
120.36
63.33
2.39
-52.56
-96.69
-132.67
-158.39
-168.76
-158.78
-126.35
-74.56
-10.38
58.30
122.83
176.33
214.23
232.78
228.74
202.12
157.01
100.40
40.14
-19.13
-75.57
-127.87
-173.56
-208.52
-225.81
-219.04
-187.18
-135.24
-72.62
-8.45
51.54
104.46
146.59
174.72
185.72
176.41
146.53
100.11
44.74
-13.14
-63.40
-104.38
-140.32
-169.30
-186.59
-186.49
-165.51
-124.82
-70.68
-8.94
45.79
81.80
97.39
98.06
89.87
75.36
54.30
26.71
-4.03
-35.74
-62.85
-79.46
-83.44
-76.90
-64.70
-51.84
-41.84
-34.97
-31.76
-30.66
-29.54
-27.31
-23.42
-16.82
-5.67
11.38
33.61
56.80
76.13
87.95
91.08
87.43
80.98
75.56
72.71
71.18
67.74
60.22
48.61
34.58
20.36
7.57
-3.33
-12.97
-22.36
-32.17
-41.91
-50.12
-55.09
-55.76
-52.35
-46.53
-40.86
-37.77
-38.46
-42.24
-46.95
-49.98
-49.56
-45.43
-38.73
-31.22
-24.28
-18.45
-13.41
-8.60
-3.77
0.81
4.51
6.79
7.48
6.99
6.09
5.61
6.14
7.80
10.17
12.54
14.15
14.47
13.40
11.26
8.61
6.02
3.83
2.13
0.77
-0.55
-2.18
-4.41
-7.51
-11.60
-16.62
-22.27
-28.03
-33.21
-37.05
-38.91
-38.50
-36.03
-32.32
-28.70
-26.59
-26.98
-29.95
-34.61
-39.44
-42.96
-44.43
-44.03
-42.70
-41.54
-41.23
-41.85
-42.93
-43.90
-44.30
-43.87
-42.43
-39.68
-35.28
-29.04
-21.19
-12.43
-3.75
4.02
10.57
16.32
22.20
29.23
37.96
48.15
58.81
68.48
75.80
79.90
80.66
78.56
74.48
69.38
64.11
59.38
55.68
53.25
52.04
51.68
51.63
51.35
50.47
48.86
46.57
43.58
39.82
35.14
29.59
23.49
17.46
12.18
8.18
5.58
4.15
3.41
2.86
2.13
1.15
0.14
-0.50
-0.38
0.67
2.42
4.37
5.88
6.53
6.37
5.90
5.93
7.09
9.61
13.14
16.99
20.40
22.80
23.95
23.99
23.19
21.88
20.24
18.30
15.99
13.29
10.36
7.53
5.28
4.02
3.99
5.10
6.93
8.78
9.86
9.45
7.09
2.76
-3.08
-9.61
-15.89
-21.07
-24.65
-26.52
-26.84
-25.90
-24.01
-21.41
-18.39
-15.25
-12.31
-9.71
-7.41
-5.19
-2.74
0.12
3.34
6.67
9.79
12.40
14.43
15.93
17.14
18.33
19.76
21.61
23.97
26.82
29.99
33.29
36.45
39.32
41.83
44.11
46.26
48.35
50.37
52.29
54.14
55.92
57.55
58.68
58.70
56.59
51.19
41.61
27.86
11.17
-6.19
-21.58
-33.06
-40.03
-43.57
-45.73
-48.18
-51.07
-52.84
-50.96
-43.44
-30.04
-12.26
6.81
23.80
36.42
44.20
48.34
50.72
53.00
55.98
60.14
64.65
67.42
65.88
57.96
42.98
22.44
0.45
-16.68
-21.00
-7.39
23.75
66.30
110.66
147.43
170.68
179.75
178.58
174.18
170.85
167.88
160.96
145.60
120.06
86.23
48.56
2.86
-48.09
-96.90
-136.33
-164.02
-181.74
-191.78
-195.06
-191.60
-182.04
-166.80
-148.44
-130.96
-117.93
-110.65
-107.87
-106.79
-104.58
-99.59
-90.45
-77.98
-64.70
-53.67
-47.13
-45.98
-50.35
-58.54
-68.04
-74.65
-74.40
-64.90
-46.43
-22.04
3.17
23.33
33.74
32.11
20.45
3.81
-11.76
-21.55
-23.43
-17.83
-7.08
5.87
17.81
27.44
35.28
42.46
49.17
53.98
55.45
52.89
46.76
37.27
26.02
15.76
9.07
6.55
6.52
6.00
1.44
-10.40
-33.03
-66.88
-107.88
-148.40
-180.48
-198.11
-198.40
-182.26
-143.72
-88.00
-30.47
14.55
43.80
62.56
77.33
91.00
101.68
104.05
91.32
59.89
12.54
-41.32
-89.72
-121.81
-130.97
-116.99
-88.21
-53.06
-18.09
10.23
31.10
46.50
58.19
66.48
71.21
70.83
65.32
56.78
49.39
48.36
56.16
71.12
88.59
102.92
109.80
108.08
99.61
88.51
80.14
78.02
82.09
90.17
99.46
107.76
113.83
116.70
113.01
101.15
80.70
51.70
15.71
-24.49
-65.89
-105.99
-143.62
-178.29
-208.63
-226.44
-226.04
-207.45
-177.27
-144.47
-115.71
-93.41
-76.53
-61.93
-46.89
-31.57
-17.80
-7.76
-2.77
-3.27
-9.13
-19.63
-32.84
-44.68
-51.08
-48.24
-33.99
-9.08
22.37
53.97
77.35
88.40
88.34
81.26
71.79
62.88
55.22
48.17
41.08
34.29
29.43
27.94
29.68
33.11
36.04
36.64
34.46
30.48
26.71
25.42
27.70
32.55
37.69
39.94
37.37
29.98
19.41
7.84
-2.89
-11.82
-18.68
-22.86
-23.44
-19.75
-12.32
-3.49
3.15
4.24
-1.70
-13.46
-27.69
-40.09
-46.70
-45.01
-34.10
-14.54
11.95
42.67
73.76
100.43
117.54
121.14
109.76
85.49
53.51
20.48
-8.04
-29.59
-44.85
-55.99
-64.22
-68.32
-64.96
-50.67
-24.05
12.77
54.98
96.93
133.64
161.53
178.43
183.40
176.71
158.14
129.60
95.94
63.79
39.18
25.07
20.45
21.16
21.84
17.82
4.86
-18.09
-49.09
-84.53
-120.97
-156.32
-189.99
-222.25
-253.30
-284.73
-315.35
-341.05
-356.34
-357.37
-344.22
-321.08
-294.75
-255.78
-203.69
-144.56
-87.39
-38.42
0.16
28.62
49.04
65.49
83.35
104.76
129.93
156.13
178.81
192.70
194.32
183.81
164.92
142.98
120.31
97.57
73.65
47.63
20.16
-6.22
-27.08
-37.36
-33.66
-17.46
7.84
32.52
47.73
48.59
35.93
16.13
-1.91
-11.03
-9.07
1.56
15.60
28.45
36.64
37.68
29.62
11.45
-16.04
-48.79
-79.28
-99.65
-102.82
-86.57
-54.85
-15.60
23.06
55.32
78.79
92.99
97.25
90.71
73.42
48.64
22.74
6.53
7.75
26.85
55.90
81.98
93.47
85.35
61.26
31.31
6.90
-4.88
-3.24
7.67
21.96
35.15
45.27
52.03
55.00
53.02
44.33
28.33
6.73
-16.32
-36.47
-50.25
-56.72
-57.50
-55.79
-55.25
-58.46
-65.69
-74.60
-80.81
-79.43
-67.42
-45.30
-17.28
10.33
32.00
45.37
51.72
54.36
56.01
56.84
54.17
45.83
31.83
15.06
0.10
-9.37
-12.80
-12.63
-12.39
-14.19
-17.87
-20.05
-17.30
-8.32
5.25
19.45
29.71
32.57
26.67
12.58
-7.08
-28.85
-49.01
-63.99
-71.17
-69.56
-60.08
-43.40
-24.71
-8.64
1.08
1.65
-8.58
-29.51
-58.16
-88.37
-111.81
-120.98
-111.53
-85.00
-48.17
-9.87
22.66
46.03
60.45
66.88
64.62
52.39
30.20
2.03
-23.69
-36.90
-31.19
-9.47
17.09
34.62
35.11
20.84
2.95
-5.38
3.23
26.40
53.89
75.07
83.67
80.95
73.27
67.41
66.42
68.50
69.06
62.72
49.33
31.72
14.88
3.30
-0.93
1.55
8.43
17.77
27.82
38.04
47.25
53.22
52.86
43.66
25.42
0.57
-24.50
-44.16
-55.16
-57.79
-54.61
-48.55
-41.61
-34.59
-27.88
-22.13
-18.73
-18.66
-21.87
-26.94
-31.66
-34.16
-33.71
-31.14
-28.51
-28.12
-31.85
-40.50
-53.06
-66.68
-77.06
-79.78
-71.92
-53.35
-27.33
0.51
24.25
39.66
45.64
44.49
39.98
35.35
32.06
29.69
26.93
22.90
17.87
13.15
10.32
10.22
12.62
16.18
19.12
19.95
18.27
14.88
11.41
9.57
10.31
13.58
18.87
25.91
34.48
44.38
54.50
62.19
63.86
56.44
39.32
14.91
-10.94
-32.42
-45.78
-50.45
-48.70
-43.74
-38.35
-33.95
-31.02
-29.92
-31.91
-38.40
-49.99
-65.15
-79.83
-88.39
-85.70
-69.87
-43.55
-13.17
12.85
28.67
32.97
28.83
21.54
15.68
13.15
13.14
13.59
13.02
11.62
10.74
11.88
15.36
20.29
25.00
27.43
26.78
23.22
17.99
12.88
9.22
7.66
7.93
9.10
10.09
10.29
9.81
9.44
10.31
13.11
17.94
24.35
31.61
39.13
46.47
53.01
57.62
58.69
54.70
45.08
30.94
14.88
-0.00
-11.36
-18.53
-22.45
-24.88
-27.45
-30.84
-34.73
-38.23
-40.30
-39.93
-36.17
-28.63
-17.88
-6.19
2.80
5.47
-0.54
-15.26
-36.41
-59.99
-81.17
-95.27
-98.61
-89.27
-67.77
-37.49
-4.13
25.90
47.32
58.01
60.19
58.31
56.42
56.11
56.21
54.83
49.77
41.12
30.99
22.23
16.73
14.58
14.24
13.13
8.98
0.53
-11.75
-25.88
-38.98
-48.06
-50.29
-43.32
-26.51
-2.01
24.87
47.16
59.00
58.23
47.12
31.13
15.90
4.25
-4.73
-14.04
-25.48
-37.13
-43.31
-38.78
-23.53
-3.87
10.77
13.43
3.66
-12.63
-27.05
-33.66
-32.02
-27.12
-23.99
-25.33
-30.26
-34.99
-35.11
-27.94
-14.01
2.92
17.91
27.76
32.27
34.23
37.70
44.88
55.75
67.21
72.30
64.12
40.73
6.89
-27.00
-49.33
-52.04
-33.35
0.79
42.89
84.76
119.67
142.50
150.32
142.73
121.26
86.69
43.86
-0.77
-41.26
-70.29
-82.66
-78.89
-65.18
-50.26
-39.94
-35.14
-33.64
-34.74
-34.37
-29.57
-18.91
-2.59
16.34
34.15
47.28
52.74
47.41
31.11
5.54
-25.74
-58.74
-91.80
-122.91
-149.02
-167.01
-173.73
-165.55
-140.95
-100.94
-41.91
27.57
94.12
147.24
181.34
193.46
184.58
154.10
104.36
43.13
-19.40
-71.52
-100.97
-103.97
-88.12
-68.42
-60.08
-70.11
-94.62
-123.94
-145.96
-152.72
-144.67
-128.70
-112.77
-101.50
-94.18
-81.79
-61.72
-37.18
-14.64
0.70
8.52
13.00
19.60
31.87
49.50
67.72
81.73
89.38
91.41
90.33
88.55
86.92
84.99
81.81
76.38
69.35
62.40
57.04
53.54
51.37
48.60
43.87
36.70
26.84
15.75
5.24
-2.90
-7.62
-8.24
-4.97
1.12
8.14
14.03
17.11
16.34
11.76
4.42
-3.63
-9.83
-11.39
-5.84
8.41
31.01
58.94
86.81
108.06
117.33
112.37
94.91
66.86
34.64
5.51
-15.73
-28.56
-36.05
-42.22
-49.71
-58.76
-67.99
-75.42
-79.28
-78.63
-73.88
-66.39
-57.63
-49.04
-42.53
-40.48
-44.81
-54.60
-65.89
-73.34
-71.75
-57.07
-27.91
12.96
60.30
97.58
107.22
84.38
39.02
-12.62
-56.14
-83.64
-94.70
-94.02
-87.53
-77.41
-62.00
-39.12
-9.54
22.32
49.74
66.42
69.20
59.26
42.60
27.07
18.27
17.05
20.10
22.47
20.31
12.53
1.20
-8.61
-11.34
-3.94
12.29
32.53
50.86
62.57
65.73
61.17
51.97
40.37
29.18
19.38
10.29
0.73
-10.07
-22.09
-34.33
-44.50
-49.27
-46.32
-33.96
-13.28
11.95
36.12
53.40
59.52
51.80
32.04
5.21
-22.52
-45.55
-59.64
-62.72
-55.45
-41.20
-25.07
-12.35
-6.81
-9.35
-18.22
-29.65
-39.82
-46.41
-48.98
-48.53
-46.38
-43.82
-40.91
-38.18
-36.77
-38.28
-43.88
-52.78
-62.15
-67.95
-66.89
-58.26
-44.75
-31.07
-21.72
-19.15
-22.83
-31.02
-42.01
-54.69
-68.06
-80.30
-88.16
-87.94
-77.53
-57.27
-30.95
-4.10
18.63
35.42
47.82
59.99
77.44
100.62
130.18
164.82
201.35
235.14
260.84
273.36
269.30
248.07
212.43
168.62
124.13
86.12
59.63
46.26
43.91
47.61
51.30
49.93
40.96
24.23
2.11
-21.32
-41.64
-55.41
-61.10
-59.62
-53.59
-46.52
-41.64
-40.67
-43.57
-49.48
-57.61
-67.45
-79.04
-88.86
-91.61
-84.66
-70.71
-56.41
-48.39
-49.13
-55.41
-60.31
-57.32
-45.01
-27.84
-12.69
-3.79
-0.02
4.42
15.48
34.74
58.29
78.31
87.84
84.95
73.80
61.46
54.05
54.66
59.50
62.87
59.52
46.73
25.21
-1.80
-30.66
-57.28
-77.47
-87.20
-82.81
-63.11
-31.06
5.79
37.12
52.53
47.02
22.73
-12.62
-49.27
-80.21
-103.27
-119.77
-125.07
-117.00
-93.06
-52.87
-2.03
47.53
81.57
90.39
74.32
43.17
9.94
-14.62
-26.90
-30.07
-29.54
-28.30
-25.97
-18.50
-3.45
17.13
38.35
54.64
62.34
61.37
54.77
46.89
41.14
38.59
37.95
37.38
35.61
32.45
28.69
25.34
23.83
24.66
27.21
30.06
31.95
32.17
30.73
28.27
25.63
23.40
21.58
19.63
16.85
12.87
7.85
2.45
-2.48
-6.27
-8.63
-9.83
-10.46
-11.09
-12.05
-13.33
-14.60
-15.44
-15.52
-14.72
-13.30
-11.74
-10.53
-9.97
-10.02
-10.39
-10.70
-10.74
-10.56
-10.51
-10.95
-12.07
-13.72
-15.45
-16.68
-16.91
-15.82
-13.35
-9.63
-4.95
0.25
5.44
9.99
13.29
14.96
14.86
13.25
10.61
7.52
4.44
1.69
-0.63
-2.46
-3.75
-4.46
-4.68
-4.64
-4.74
-5.40
-6.88
-9.09
-11.66
-14.05
-15.83
-16.83
-17.17
-17.11
-16.90
-16.66
-16.34
-15.84
-15.04
-13.96
-12.73
-11.63
-10.98
-11.03
-11.81
-13.11
-14.44
-15.20
-14.94
-13.45
-10.90
-7.73
-4.50
-1.63
0.63
2.33
3.60
4.61
5.38
5.82
5.76
5.07
3.79
2.08
0.17
-1.67
-3.28
-4.54
-5.36
-5.74
-5.73
-5.47
-5.22
-5.21
-5.58
-6.32
-7.28
-8.28
-9.21
-10.06
-10.81
-11.45
-11.90
-12.10
-12.01
-11.70
-11.31
-10.96
-10.77
-10.89
-11.45
-12.56
-14.14
-15.86
-17.16
-17.48
-16.44
-14.05
-10.68
-6.90
-3.23
-0.01
2.67
4.83
6.51
7.68
8.30
8.34
7.81
6.79
5.36
3.67
1.88
0.21
-1.11
-1.96
-2.36
-2.42
-2.32
-2.15
-1.92
-1.61
-1.19
-0.74
-0.42
-0.38
-0.74
-1.46
-2.43
-3.49
-4.51
-5.39
-6.06
-6.53
-6.81
-6.93
-6.94
-6.93
-6.98
-7.16
-7.52
-7.99
-8.41
-8.51
-8.02
-6.79
-4.82
-2.26
0.63
3.68
6.70
9.55
12.04
13.87
14.72
14.39
12.91
10.61
8.01
5.66
3.89
2.78
2.12
1.63
1.11
0.52
-0.03
-0.41
-0.64
-0.88
-1.36
-2.28
-3.62
-5.17
-6.63
-7.72
-8.32
-8.49
-8.40
-8.21
-8.11
-8.19
-8.54
-9.19
-10.09
-11.18
-12.35
-13.45
-14.28
-14.65
-14.33
-13.19
-11.16
-8.36
-5.00
-1.42
2.09
5.26
7.94
10.08
11.48
12.08
12.03
11.59
10.89
9.93
8.64
6.97
4.96
2.53
-0.19
-2.79
-4.71
-5.63
-5.56
-4.82
-3.94
-3.49
-4.34
-6.73
-9.99
-12.97
-14.79
-15.31
-14.94
-14.40
-14.34
-16.47
-21.25
-27.09
-31.48
-32.91
-31.53
-28.69
-26.17
-25.41
-29.84
-40.22
-53.14
-63.36
-67.50
-65.34
-58.98
-51.33
-45.18
-46.79
-58.43
-75.69
-90.80
-98.30
-97.09
-89.48
-79.40
-71.86
-78.10
-105.25
-151.38
-207.88
-265.40
-316.18
-353.96
-373.50
-336.16
-233.77
-99.34
21.07
104.70
154.32
183.27
204.93
227.44
252.40
268.51
265.05
240.12
199.98
153.28
107.62
67.70
41.94
37.07
50.17
75.63
110.08
151.83
197.69
242.44
270.05
269.77
244.24
202.98
156.39
112.86
78.61
56.42
44.94
39.58
35.98
29.93
16.91
-4.32
-29.79
-53.83
-71.42
-80.62
-82.45
-78.00
-68.71
-57.18
-46.12
-37.16
-30.79
-26.78
-24.58
-23.23
-20.61
-15.39
-7.88
0.01
6.00
8.41
6.82
1.73
-5.60
-13.16
-19.06
-22.21
-22.52
-20.67
-17.74
-14.88
-13.08
-12.93
-14.34
-16.73
-19.33
-21.40
-22.32
-21.74
-19.68
-16.64
-13.41
-10.74
-9.11
-8.54
-8.80
-9.67
-11.05
-12.97
-15.37
-18.01
-20.35
-21.93
-22.48
-22.12
-21.07
-19.37
-16.79
-12.95
-7.66
-1.09
6.02
12.60
17.68
20.75
21.95
21.95
21.60
21.55
22.26
23.72
25.48
26.91
27.51
27.11
25.78
23.76
21.31
19.16
17.87
17.46
17.52
17.66
17.72
17.69
17.50
17.02
16.99
17.89
19.37
20.52
20.79
20.44
20.19
20.72
22.16
25.30
29.52
32.30
30.55
23.07
11.96
1.65
-3.03
1.00
15.96
40.95
71.98
103.86
132.72
156.68
174.36
184.00
171.63
130.92
69.81
6.22
-45.23
-79.87
-100.39
-111.83
-117.79
-118.91
-111.62
-93.01
-64.29
-31.32
-1.91
18.36
26.28
22.05
9.31
-4.87
-14.16
-16.25
-13.29
-9.63
-9.03
-13.12
-20.96
-30.06
-36.77
-38.81
-36.85
-33.84
-32.87
-35.28
-40.31
-45.80
-49.49
-49.78
-46.75
-42.06
-37.85
-35.36
-34.31
-33.41
-31.21
-26.93
-20.71
-13.59
-7.08
-2.32
0.38
1.67
2.56
3.88
5.90
8.28
10.34
11.42
11.23
9.92
7.98
5.98
4.27
2.96
1.92
0.93
-0.20
-1.50
-2.83
-3.94
-4.61
-4.72
-4.31
-3.59
-2.84
-2.36
-2.38
-2.95
-4.02
-5.42
-6.99
-8.61
-10.28
-12.12
-14.27
-16.87
-19.93
-23.21
-26.28
-28.55
-29.44
-28.65
-26.21
-22.47
-17.99
-13.26
-8.53
-3.86
0.81
5.41
9.72
13.39
16.12
17.84
18.75
19.18
19.48
19.79
20.07
20.11
19.70
18.69
17.13
15.21
13.27
11.64
10.61
10.26
10.50
11.06
11.68
12.08
12.09
11.66
10.80
9.58
8.18
6.80
5.68
4.97
4.73
4.83
5.07
5.20
5.00
4.35
3.25
1.80
0.21
-1.25
-2.41
-3.14
-3.46
-3.44
-3.18
-2.64
-1.78
-0.49
1.26
3.39
5.72
8.02
10.11
11.84
13.14
13.96
14.29
14.13
13.55
12.71
11.81
11.03
10.47
10.12
9.90
9.72
9.56
9.44
9.38
9.34
9.21
8.84
8.20
7.39
6.58
5.99
5.61
5.29
4.84
4.20
3.55
3.29
3.77
5.27
7.92
11.68
16.40
21.74
27.11
31.65
34.48
34.94
32.90
28.82
23.57
17.98
12.53
7.15
1.44
-4.96
-12.18
-20.01
-28.00
-35.69
-42.60
-48.38
-52.75
-55.54
-56.70
-56.28
-54.44
-51.32
-47.00
-41.49
-34.81
-27.13
-18.86
-10.63
-3.16
2.94
7.40
10.26
11.86
12.62
12.92
12.93
12.70
12.17
11.32
10.24
9.13
8.20
7.50
6.97
6.37
5.50
4.27
2.74
1.07
-0.62
-2.27
-3.96
-5.74
-7.57
-9.24
-10.45
-10.96
-10.66
-9.67
-8.25
-6.72
-5.37
-4.40
-3.84
-3.55
-3.30
-2.81
-1.93
-0.70
0.62
1.70
2.34
2.60
2.72
3.00
3.54
4.18
4.59
4.48
3.84
2.92
2.22
2.06
2.41
2.85
2.84
2.02
0.30
-2.09
-4.79
-7.30
-9.22
-10.36
-10.84
-11.04
-11.42
-12.47
-14.48
-17.45
-20.77
-23.71
-25.79
-27.03
-27.82
-28.71
-30.16
-32.35
-35.10
-37.26
-37.77
-36.33
-33.76
-31.52
-31.07
-33.38
-38.83
-47.08
-55.93
-63.23
-67.90
-70.04
-69.92
-67.39
-62.39
-55.85
-49.72
-43.97
-37.72
-29.73
-18.88
-4.30
14.01
34.44
54.03
70.56
87.02
108.63
139.44
179.58
225.76
272.93
315.99
350.68
356.96
322.20
249.34
156.61
64.75
-11.91
-65.78
-94.13
-98.98
-86.11
-61.31
-31.29
-3.29
15.94
22.46
16.75
3.95
-12.97
-30.91
-45.66
-54.84
-58.90
-60.40
-61.43
-61.66
-59.40
-54.25
-47.77
-41.98
-39.35
-42.03
-51.46
-67.61
-88.72
-110.06
-126.68
-135.51
-135.73
-127.45
-110.09
-83.00
-47.06
-5.31
36.87
72.65
96.52
106.38
103.92
93.33
80.80
68.34
57.31
48.36
41.30
35.85
31.92
29.49
28.38
27.93
26.97
25.01
22.17
18.83
15.50
13.08
12.23
12.97
14.62
15.95
16.32
15.60
14.05
12.13
10.26
8.57
6.98
5.22
3.08
0.77
-1.32
-2.86
-3.72
-3.99
-3.94
-3.92
-4.18
-4.93
-6.03
-7.32
-8.56
-9.64
-10.52
-11.33
-12.22
-13.26
-14.39
-15.41
-16.13
-16.41
-16.28
-15.81
-15.18
-14.58
-14.15
-14.03
-14.27
-14.85
-15.60
-16.23
-16.38
-15.69
-13.91
-11.01
-7.22
-3.01
1.03
4.42
6.90
8.48
9.35
9.71
9.65
9.13
8.10
6.66
5.12
3.86
3.21
3.21
3.60
3.97
3.95
3.43
2.54
1.57
0.81
0.37
0.14
-0.12
-0.67
-1.62
-2.83
-3.98
-4.71
-4.82
-4.37
-3.66
-3.10
-2.99
-3.38
-4.15
-5.05
-5.86
-6.53
-7.11
-7.70
-8.33
-9.04
-9.77
-10.54
-11.36
-12.20
-12.98
-13.47
-13.36
-12.37
-10.39
-7.56
-4.24
-0.88
2.11
4.51
6.31
7.63
8.60
9.22
9.38
8.95
7.91
6.46
4.90
3.60
2.74
2.32
2.12
1.87
1.37
0.56
-0.45
-1.43
-2.18
-2.61
-2.72
-2.67
-2.63
-2.73
-3.00
-3.34
-3.68
-3.94
-4.21
-4.62
-5.31
-6.29
-7.42
-8.47
-9.18
-9.48
-9.46
-9.36
-9.46
-9.95
-10.84
-11.99
-13.15
-14.08
-14.61
-14.61
-13.99
-12.69
-10.65
-7.94
-4.79
-1.52
1.51
4.08
6.17
7.88
9.32
10.43
11.01
10.80
9.68
7.82
5.62
3.63
2.26
1.64
1.64
1.90
2.09
2.02
1.70
1.29
0.96
0.85
0.93
1.07
1.06
0.76
0.07
-0.98
-2.27
-3.66
-4.97
-6.09
-6.94
-7.52
-7.93
-8.24
-8.50
-8.66
-8.62
-8.30
-7.78
-7.30
-7.23
-7.88
-9.39
-11.58
-13.99
-16.00
-16.97
-16.44
-14.28
-10.70
-6.21
-1.49
2.82
6.28
8.71
10.20
11.00
11.34
11.37
11.08
10.41
9.29
7.79
6.13
4.56
3.28
2.31
1.50
0.64
-0.37
-1.46
-2.40
-3.01
-3.19
-3.08
-2.89
-2.77
-2.69
-2.54
-2.22
-1.83
-1.63
-1.92
-2.79
-4.04
-5.19
-5.75
-5.39
-4.16
-2.38
-0.58
0.79
1.43
1.24
0.21
-1.55
-3.93
-6.70
-9.52
-11.89
-13.30
-13.34
-11.87
-9.12
-5.65
-2.17
0.69
2.61
3.57
3.79
3.55
3.02
2.22
1.11
-0.32
-1.94
-3.52
-4.79
-5.51
-5.62
-5.15
-4.24
-3.10
-1.91
-0.88
-0.13
0.19
0.02
-0.70
-2.00
-3.78
-5.83
-7.72
-9.05
-9.50
-9.05
-7.98
-6.77
-5.83
-5.43
-5.56
-6.02
-6.56
-7.01
-7.31
-7.52
-7.72
-7.98
-8.39
-8.96
-9.63
-10.20
-10.32
-9.64
-7.91
-5.14
-1.57
2.33
6.08
9.28
11.72
13.35
14.22
14.42
14.02
13.09
11.75
10.18
8.58
7.19
6.18
5.61
5.38
5.28
5.02
4.38
3.24
1.64
-0.25
-2.19
-3.97
-5.45
-6.53
-7.18
-7.38
-7.15
-6.59
-5.88
-5.28
-5.08
-5.45
-6.37
-7.64
-8.99
-10.10
-10.79
-11.01
-10.86
-10.52
-10.22
-10.22
-10.68
-11.56
-12.56
-13.16
-12.77
-10.99
-7.81
-3.62
0.89
5.04
8.33
10.60
12.01
12.81
13.25
13.40
13.25
12.72
11.86
10.86
9.97
9.47
9.41
9.65
9.80
9.45
8.36
6.56
4.31
1.99
-0.07
-1.73
-2.99
-3.92
-4.57
-4.95
-5.03
-4.81
-4.38
-3.88
-3.51
-3.46
-3.85
-4.68
-5.84
-7.13
-8.33
-9.27
-9.89
-10.19
-10.24
-10.13
-9.92
-9.73
-9.63
-9.66
-9.72
-9.54
-8.76
-7.06
-4.35
-0.83
3.01
6.58
9.41
11.33
12.45
13.08
13.57
14.06
14.51
14.73
14.50
13.70
12.38
10.72
9.01
7.50
6.35
5.65
5.35
5.32
5.37
5.31
4.99
4.33
3.38
2.32
1.37
0.77
0.65
1.00
1.60
2.13
2.27
1.78
0.58
-1.18
-3.25
-5.28
-7.02
-8.30
-9.11
-9.55
-9.81
-10.09
-10.55
-11.20
-11.89
-12.26
-11.85
-10.35
-7.64
-3.96
0.20
4.25
7.64
10.01
11.16
11.11
10.03
8.26
6.32
4.83
4.36
5.27
7.51
10.62
13.83
16.33
17.50
17.08
15.19
12.23
8.76
5.30
2.25
-0.21
-1.99
-3.10
-3.58
-3.47
-2.90
-2.04
-1.11
-0.38
-0.06
-0.27
-0.98
-2.09
-3.36
-4.58
-5.55
-6.14
-6.33
-6.25
-6.14
-6.31
-7.03
-8.38
-10.18
-12.01
-13.28
-13.46
-12.28
-9.84
-6.58
-3.05
0.23
2.94
5.03
6.56
7.65
8.23
8.25
7.80
7.07
6.32
5.71
5.34
5.16
5.05
4.72
3.97
2.84
1.64
0.71
0.34
0.71
1.70
3.05
4.02
4.13
3.46
2.55
1.91
1.71
1.69
1.18
-0.67
-5.32
-13.21
-23.11
-32.67
-39.93
-44.04
-45.28
-44.78
-43.92
-45.42
-50.35
-57.00
-62.16
-63.58
-60.88
-55.09
-48.21
-42.30
-41.67
-48.24
-59.69
-71.17
-78.80
-80.96
-77.70
-70.69
-62.69
-60.81
-70.36
-91.79
-121.52
-155.09
-188.11
-215.52
-232.71
-213.63
-149.99
-60.27
24.98
86.65
121.02
133.03
132.52
128.02
125.68
126.03
129.61
138.80
157.52
186.08
217.50
243.98
259.21
259.40
239.36
197.73
139.50
75.89
20.47
-16.40
-30.36
-24.68
-7.57
10.10
23.63
33.16
41.57
51.88
64.13
75.75
82.77
82.26
68.33
44.80
21.85
3.01
-11.13
-22.71
-34.59
-48.62
-63.86
-77.52
-85.57
-86.19
-80.83
-72.47
-64.98
-61.23
-62.17
-66.78
-72.96
-77.92
-80.09
-79.15
-74.63
-66.28
-54.16
-38.71
-20.89
-2.19
15.87
31.11
41.20
44.97
42.48
35.08
25.11
15.23
7.47
2.82
0.82
0.04
-0.81
-2.51
-5.23
-8.65
-12.30
-15.65
-18.17
-19.44
-19.26
-17.57
-14.66
-11.12
-7.66
-4.79
-2.68
-1.14
0.20
1.65
3.17
4.28
4.38
3.21
1.05
-1.29
-2.76
-2.47
0.09
4.73
10.54
16.15
20.26
22.06
21.51
19.44
17.17
16.29
17.65
20.93
24.87
28.02
29.48
29.20
27.91
26.63
26.73
28.67
31.60
34.15
35.46
35.61
35.37
35.64
36.97
40.56
46.29
52.34
56.26
56.90
54.78
51.51
48.81
47.75
50.61
57.74
66.88
74.60
79.15
80.86
81.19
81.55
82.73
87.78
98.17
112.56
127.59
140.83
150.73
155.85
154.34
127.79
72.02
1.64
-62.37
-109.74
-140.80
-161.11
-175.07
-182.86
-183.05
-171.81
-148.89
-116.00
-80.99
-51.60
-32.46
-24.15
-23.94
-27.74
-29.73
-28.20
-24.12
-21.02
-20.85
-22.57
-23.14
-19.80
-12.08
-0.46
12.23
22.45
27.19
26.17
21.83
16.62
12.31
9.26
7.23
4.35
-1.15
-10.41
-22.59
-35.33
-45.93
-52.48
-54.71
-48.93
-34.86
-13.91
11.05
36.57
59.19
76.05
85.62
88.01
85.08
79.02
72.43
67.20
64.01
62.20
60.08
55.52
46.57
32.11
11.73
-13.18
-39.83
-64.67
-84.46
-97.26
-102.86
-102.53
-98.27
-92.20
-85.61
-78.94
-72.08
-64.93
-57.59
-50.35
-43.41
-36.68
-30.03
-23.38
-16.85
-10.91
-6.27
-3.69
-3.76
-6.78
-12.61
-20.80
-30.66
-41.15
-51.01
-58.82
-63.39
-63.94
-60.24
-52.66
-42.20
-30.63
-19.82
-11.14
-5.15
-1.68
-0.12
0.42
0.64
0.86
0.27
-1.92
-5.67
-10.00
-13.53
-15.32
-14.71
-11.56
-6.23
-0.59
3.59
5.52
5.39
3.64
0.20
-4.67
-10.36
-15.73
-20.94
-26.00
-30.37
-33.38
-35.15
-36.84
-38.77
-39.67
-30.20
-6.27
27.09
59.31
81.68
94.06
97.72
95.49
88.75
80.34
71.56
62.65
53.41
43.54
32.77
20.81
8.78
-1.20
-6.67
-7.32
-4.04
2.08
10.21
19.70
29.45
38.59
46.22
51.52
53.01
49.93
43.02
34.30
26.08
19.79
16.11
14.98
15.99
18.10
20.31
21.88
22.44
21.81
19.81
16.52
12.19
7.24
1.99
-3.11
-7.43
-10.21
-10.98
-9.86
-7.55
-5.11
-3.47
-3.16
-4.20
-6.11
-8.29
-10.22
-11.69
-12.75
-13.66
-14.76
-16.28
-18.17
-20.10
-21.56
-22.08
-21.38
-19.52
-16.76
-13.43
-9.72
-5.72
-1.51
2.75
6.67
9.82
11.86
12.71
12.56
11.85
11.06
10.51
10.24
10.04
9.58
8.57
7.00
5.14
3.44
2.31
1.91
2.07
2.38
2.43
1.92
0.80
-0.84
-2.89
-5.29
-8.06
-11.10
-14.16
-16.78
-18.50
-19.08
-18.77
-18.28
-18.50
-20.06
-22.86
-26.09
-28.48
-28.93
-27.01
-23.17
-18.39
-13.75
-9.91
-6.99
-4.75
-2.81
-0.94
0.93
2.76
4.59
6.45
8.41
10.41
12.21
13.47
13.87
13.31
11.92
10.12
8.41
7.19
6.54
6.23
5.84
4.99
3.56
1.75
-0.13
-1.84
-3.36
-4.87
-6.56
-8.43
-10.26
-11.72
-12.56
-12.78
-12.65
-12.55
-12.84
-13.68
-14.97
-16.45
-17.75
-18.53
-18.57
-17.81
-16.32
-14.24
-11.72
-8.90
-5.90
-2.84
0.10
2.71
4.83
6.45
7.76
9.05
10.60
12.47
14.39
15.81
16.20
15.30
13.29
10.86
8.86
8.03
8.55
9.97
11.38
11.75
10.45
7.51
3.70
0.17
-1.95
-2.09
-0.38
2.38
5.15
6.94
7.28
6.23
4.22
1.81
-0.64
-3.01
-5.34
-7.69
-9.98
-11.96
-13.30
-13.76
-13.28
-11.98
-10.08
-7.84
-5.54
-3.43
-1.76
-0.67
-0.11
0.24
0.82
1.98
3.77
5.88
7.71
8.69
8.46
7.07
4.94
2.64
0.74
-0.41
-0.74
-0.48
0.00
0.34
0.24
-0.37
-1.50
-3.08
-5.09
-7.57
-10.45
-13.51
-16.34
-18.37
-19.18
-18.61
-16.99
-15.08
-13.75
-13.67
-14.94
-17.05
-19.06
-20.01
-19.37
-17.20
-14.01
-10.45
-6.93
-3.49
0.03
3.76
7.59
11.16
14.08
16.18
17.56
18.50
19.29
20.04
20.65
20.92
20.73
20.14
19.40
18.82
18.68
19.05
19.76
20.37
20.37
19.34
17.09
13.84
10.07
6.37
3.23
0.90
-0.70
-1.79
-2.70
-3.73
-5.11
-7.01
-9.52
-12.58
-15.99
-19.38
-22.30
-24.30
-25.13
-24.81
-23.63
-22.08
-20.61
-19.47
-18.62
-17.78
-16.57
-14.75
-12.33
-9.57
-6.84
-4.44
-2.47
-0.85
0.57
1.89
3.04
3.84
4.08
3.71
2.86
1.86
1.08
0.82
1.15
1.94
2.99
4.18
5.50
7.06
8.94
11.06
13.22
15.21
16.85
18.09
18.85
18.95
18.05
15.71
11.65
5.85
-1.32
-9.11
-16.71
-23.39
-28.82
-33.04
-36.36
-39.11
-41.31
-42.55
-42.09
-39.14
-33.33
-24.97
-15.08
-5.07
3.74
10.56
15.34
18.68
21.52
24.77
28.97
34.11
39.67
44.86
48.87
51.13
51.45
50.00
47.23
43.68
39.89
36.31
33.32
31.10
29.55
28.35
26.95
24.83
21.67
17.33
11.99
6.05
-0.05
-5.95
-11.57
-17.04
-22.69
-28.71
-35.36
-42.71
-50.46
-58.06
-64.89
-70.41
-74.48
-77.24
-78.88
-79.94
-80.84
-81.38
-80.88
-78.58
-73.84
-66.76
-58.11
-48.92
-41.57
-38.91
-43.19
-55.96
-77.63
-106.46
-138.72
-168.68
-189.15
-196.05
-189.41
-172.60
-151.29
-131.48
-116.39
-106.52
-99.80
-91.15
-78.31
-61.94
-43.51
-24.32
-5.37
14.51
32.70
43.47
54.05
70.53
90.65
112.24
134.21
155.55
178.21
203.59
232.19
267.66
310.28
356.60
402.07
442.95
475.46
500.14
518.02
504.82
451.12
366.34
272.32
187.76
130.91
90.27
55.59
21.06
-14.58
-49.33
-79.31
-104.14
-126.61
-146.44
-162.95
-172.65
-174.47
-169.37
-156.42
-136.09
-111.89
-88.52
-69.60
-58.15
-52.82
-51.58
-52.06
-51.51
-47.62
-41.43
-36.02
-34.53
-39.58
-50.74
-67.25
-87.10
-106.41
-120.64
-126.87
-124.58
-116.81
-109.97
-104.97
-105.80
-114.06
-126.86
-137.68
-139.98
-130.35
-110.72
-86.57
-63.42
-45.26
-32.22
-22.17
-13.21
-5.91
1.10
5.92
6.51
3.32
-0.67
-1.16
4.24
14.62
26.49
36.03
40.24
38.86
34.05
28.34
24.00
22.00
22.15
23.39
24.61
24.56
22.75
19.12
13.43
5.47
-4.16
-13.33
-18.89
-17.02
-6.03
12.90
35.99
58.21
75.34
85.11
87.29
82.87
72.96
58.18
39.43
18.63
-1.25
-17.04
-26.55
-29.34
-26.47
-19.68
-10.61
-0.45
10.22
21.20
32.44
44.16
55.37
65.13
72.59
77.01
77.84
74.98
68.90
60.65
51.57
42.90
35.56
29.82
25.30
21.20
16.81
11.75
6.16
0.59
-4.26
-7.72
-9.48
-9.76
-9.19
-8.48
-8.08
-8.08
-8.18
-7.99
-7.20
-5.88
-4.42
-3.41
-3.37
-4.55
-6.80
-9.64
-12.43
-14.55
-15.58
-15.45
-14.42
-12.95
-11.46
-10.21
-9.19
-8.21
-7.04
-5.64
-4.27
-3.43
-3.69
-5.43
-8.67
-13.01
-17.79
-22.31
-26.00
-28.50
-29.70
-29.53
-28.03
-25.29
-21.53
-17.12
-12.51
-8.10
-4.20
-1.03
1.27
2.61
2.99
2.55
1.64
0.69
0.06
-0.06
0.22
0.61
0.76
0.38
-0.71
-2.57
-5.16
-8.34
-11.80
-15.05
-17.48
-18.50
-17.69
-14.99
-10.76
-5.74
-0.97
2.50
3.87
2.83
-0.35
-4.90
-9.74
-13.79
-16.18
-16.35
-14.22
-10.17
-5.03
0.09
4.04
5.90
5.38
2.80
-0.96
-4.82
-7.88
-9.60
-9.91
-9.00
-7.18
-4.74
-1.93
1.02
3.81
6.11
7.59
8.03
7.36
5.67
3.14
0.06
-3.22
-6.36
-9.00
-10.79
-11.52
-11.09
-9.56
-7.16
-4.23
-1.17
1.65
3.98
5.73
6.95
7.72
8.12
8.16
7.84
7.16
6.21
5.12
4.03
2.95
1.75
0.20
-1.84
-4.30
-6.89
-9.15
-10.73
-11.50
-11.62
-11.32
-10.80
-10.07
-9.02
-7.55
-5.69
-3.65
-1.73
-0.15
0.92
1.50
1.62
1.33
0.72
-0.05
-0.76
-1.21
-1.32
-1.13
-0.82
-0.59
-0.52
-0.58
-0.61
-0.45
-0.06
0.52
1.17
1.78
2.36
2.96
3.66
4.44
5.21
5.75
5.89
5.60
5.01
4.41
4.07
4.17
4.63
5.23
5.68
5.71
5.26
4.43
3.47
2.62
2.05
1.77
1.70
1.70
1.64
1.49
1.25
1.00
0.82
0.75
0.79
0.89
1.00
1.09
1.19
1.28
1.33
1.30
1.14
0.83
0.43
0.03
-0.28
-0.43
-0.43
-0.37
-0.34
-0.44
-0.75
-1.26
-1.90
-2.51
-2.91
-2.97
-2.66
-2.11
-1.52
-1.09
-0.95
-1.10
-1.42
-1.79
-2.08
-2.19
-2.06
-1.68
-1.09
-0.44
0.12
0.43
0.44
0.20
-0.16
-0.51
-0.82
-1.12
-1.49
-1.97
-2.56
-3.27
-4.07
-4.94
-5.84
-6.69
-7.39
-7.84
-7.96
-7.74
-7.22
-6.47
-5.59
-4.68
-3.81
-3.03
-2.37
-1.79
-1.30
-0.89
-0.60
-0.45
-0.46
-0.63
-0.95
-1.45
-2.11
-2.87
-3.62
-4.14
-4.33
-4.18
-3.84
-3.54
-3.47
-3.66
-3.98
-4.23
-4.20
-3.84
-3.21
-2.48
-1.81
-1.26
-0.81
-0.35
0.19
0.82
1.43
1.90
2.20
2.37
2.59
2.97
3.49
3.91
3.93
3.38
2.29
0.98
-0.14
-0.75
-0.77
-0.31
0.34
0.95
1.41
1.70
1.86
1.91
1.81
1.49
0.95
0.25
-0.51
-1.22
-1.85
-2.40
-2.93
-3.42
-3.84
-4.05
-3.94
-3.46
-2.70
-1.86
-1.21
-0.94
-1.11
-1.62
-2.28
-2.85
-3.13
-3.03
-2.51
-1.60
-0.32
1.31
3.22
5.25
7.19
8.74
9.62
9.69
8.94
7.54
5.78
4.00
2.52
1.56
1.24
1.47
2.02
2.52
2.59
2.02
0.80
-0.83
-2.56
-4.05
-5.11
-5.69
-5.86
-5.69
-5.26
-4.61
-3.78
-2.85
-1.96
-1.30
-1.04
-1.28
-1.98
-2.94
-3.91
-4.67
-5.10
-5.28
-5.41
-5.72
-6.30
-7.05
-7.73
-8.07
-7.93
-7.33
-6.38
-5.20
-3.80
-2.16
-0.30
1.59
3.25
4.39
4.86
4.77
4.31
3.74
3.16
2.58
1.98
1.38
0.88
0.56
0.42
0.34
0.20
-0.04
-0.25
-0.28
0.02
0.63
1.37
2.05
2.52
2.70
2.61
2.23
1.58
0.73
-0.19
-0.93
-1.29
-1.22
-0.85
-0.50
-0.41
-0.73
-1.39
-2.21
-2.98
-3.59
-3.99
-4.14
-4.01
-3.55
-2.78
-1.83
-0.91
-0.26
-0.05
-0.25
-0.69
-1.12
-1.32
-1.22
-0.90
-0.52
-0.25
-0.12
-0.07
0.04
0.30
0.71
1.15
1.49
1.61
1.55
1.40
1.29
1.30
1.42
1.57
1.62
1.45
0.99
0.21
-0.81
-1.93
-2.92
-3.55
-3.69
-3.34
-2.69
-2.03
-1.58
-1.45
-1.57
-1.77
-1.85
-1.68
-1.23
-0.53
0.33
1.26
2.18
2.96
3.47
3.60
3.34
2.77
2.08
1.49
1.20
1.30
1.73
2.38
3.07
3.68
4.16
4.49
4.65
4.63
4.37
3.85
3.18
2.47
1.94
1.72
1.83
2.18
2.58
2.87
3.03
3.17
3.44
3.89
4.35
4.49
4.00
2.76
1.02
-0.74
-1.97
-2.33
-1.83
-0.77
0.40
1.33
1.77
1.68
1.08
0.00
-1.48
-3.25
-5.09
-6.70
-7.73
-7.98
-7.45
-6.43
-5.42
-4.91
-5.19
-6.20
-7.58
-8.77
-9.32
-8.96
-7.78
-6.01
-4.01
-2.09
-0.42
0.91
1.91
2.61
3.06
3.28
3.38
3.45
3.63
3.97
4.43
4.83
4.95
4.60
3.73
2.46
1.06
-0.20
-1.15
-1.70
-1.91
-1.87
-1.68
-1.45
-1.25
-1.10
-0.99
-0.86
-0.65
-0.32
0.06
0.35
0.37
-0.01
-0.81
-1.91
-3.09
-4.09
-4.73
-4.94
-4.76
-4.30
-3.70
-3.07
-2.45
-1.88
-1.35
-0.81
-0.18
0.62
1.67
2.92
4.26
5.44
6.21
6.40
5.98
5.14
4.22
3.57
3.43
3.80
4.48
5.11
5.35
4.98
3.99
2.55
0.92
-0.67
-2.05
-3.08
-3.64
-3.65
-3.09
-2.06
-0.81
0.39
1.25
1.62
1.48
0.94
0.24
-0.40
-0.81
-0.95
-0.89
-0.84
-1.00
-1.50
-2.32
-3.25
-4.02
-4.40
-4.35
-3.96
-3.44
-2.99
-2.72
-2.57
-2.42
-2.17
-1.82
-1.48
-1.26
-1.19
-1.11
-0.78
-0.01
1.15
2.45
3.53
4.12
4.19
3.94
3.70
3.70
3.99
4.43
4.77
4.85
4.59
4.07
3.46
2.96
2.70
2.73
2.97
3.22
3.29
3.04
2.51
1.88
1.34
1.05
1.04
1.22
1.41
1.50
1.36
0.93
0.17
-0.90
-2.21
-3.59
-4.80
-5.59
-5.77
-5.34
-4.48
-3.48
-2.64
-2.20
-2.20
-2.55
-3.04
-3.41
-3.48
-3.14
-2.46
-1.58
-0.62
0.29
1.08
1.73
2.19
2.40
2.32
1.98
1.48
1.03
0.83
0.97
1.37
1.81
2.02
1.83
1.27
0.53
-0.08
-0.35
-0.19
0.28
0.86
1.31
1.44
1.21
0.68
0.02
-0.59
-1.03
-1.25
-1.28
-1.23
-1.14
-1.07
-1.06
-1.20
-1.60
-2.28
-3.10
-3.79
-4.01
-3.58
-2.63
-1.54
-0.75
-0.58
-1.00
-1.74
-2.40
-2.69
-2.47
-1.78
-0.67
0.82
2.64
4.75
6.93
8.94
10.46
11.26
11.23
10.37
8.82
6.83
4.73
2.83
1.34
0.32
-0.38
-0.97
-1.62
-2.35
-2.99
-3.32
-3.19
-2.63
-1.87
-1.23
-0.97
-1.19
-1.79
-2.53
-3.15
-3.49
-3.49
-3.31
-3.10
-3.05
-3.21
-3.58
-4.04
-4.52
-4.96
-5.36
-5.70
-5.91
-5.87
-5.53
-4.90
-4.13
-3.45
-3.01
-2.78
-2.56
-2.05
-1.02
0.56
2.52
4.55
6.34
7.68
8.46
8.65
8.30
7.53
6.52
5.55
4.83
4.52
4.62
4.98
5.37
5.58
5.51
5.17
4.72
4.38
4.38
4.87
5.81
6.99
8.10
8.85
9.06
8.79
8.23
7.60
7.09
6.76
6.57
6.38
5.94
4.99
3.27
0.67
-2.76
-6.72
-10.74
-14.32
-17.08
-18.83
-19.63
-19.68
-19.25
-18.53
-17.61
-16.51
-15.18
-13.56
-11.64
-9.39
-6.88
-4.19
-1.50
0.96
2.91
4.12
4.53
4.25
3.58
2.86
2.40
2.33
2.54
2.84
2.98
2.83
2.35
1.62
0.77
-0.06
-0.74
-1.18
-1.33
-1.21
-0.90
-0.58
-0.42
-0.53
-0.89
-1.38
-1.89
-2.30
-2.65
-3.00
-3.39
-3.73
-3.91
-3.77
-3.29
-2.58
-1.85
-1.32
-1.06
-1.02
-1.09
-1.13
-1.08
-0.91
-0.62
-0.18
0.43
1.25
2.23
3.33
4.47
5.59
6.62
7.47
8.03
8.15
7.78
6.93
5.80
4.67
3.80
3.37
3.37
3.63
3.93
4.04
3.83
3.32
2.58
1.75
1.02
0.51
0.30
0.34
0.50
0.54
0.27
-0.38
-1.32
-2.31
-3.06
-3.41
-3.39
-3.18
-3.02
-3.06
-3.29
-3.56
-3.70
-3.67
-3.56
-3.51
-3.57
-3.70
-3.71
-3.46
-2.95
-2.35
-1.89
-1.71
-1.71
-1.66
-1.24
-0.29
1.17
2.86
4.46
5.68
6.37
6.50
6.15
5.44
4.55
3.69
3.05
2.77
2.87
3.23
3.63
3.80
3.55
2.90
2.01
1.16
0.60
0.43
0.56
0.78
0.89
0.80
0.60
0.42
0.36
0.37
0.34
0.13
-0.27
-0.76
-1.20
-1.47
-1.55
-1.53
-1.48
-1.50
-1.55
-1.53
-1.35
-0.99
-0.57
-0.31
-0.40
-0.91
-1.70
-2.48
-2.92
-2.84
-2.24
-1.25
-0.06
1.20
2.54
3.92
5.31
6.51
7.28
7.42
6.85
5.73
4.37
3.14
2.35
2.08
2.21
2.39
2.32
1.82
0.98
0.10
-0.51
-0.72
-0.59
-0.38
-0.32
-0.49
-0.82
-1.16
-1.44
-1.66
-1.89
-2.15
-2.41
-2.55
-2.47
-2.15
-1.63
-1.02
-0.36
0.31
0.95
1.48
1.79
1.78
1.42
0.78
-0.00
-0.75
-1.33
-1.63
-1.64
-1.33
-0.75
0.06
1.07
2.24
3.52
4.85
6.09
7.05
7.58
7.61
7.15
6.36
5.41
4.43
3.52
2.72
2.06
1.57
1.23
0.97
0.67
0.22
-0.43
-1.21
-1.98
-2.58
-2.89
-2.85
-2.53
-2.06
-1.63
-1.41
-1.51
-1.92
-2.50
-3.05
-3.40
-3.50
-3.45
-3.38
-3.46
-3.72
-4.12
-4.56
-4.97
-5.33
-5.64
-5.90
-6.05
-5.97
-5.53
-4.71
-3.56
-2.23
-0.87
0.40
1.55
2.57
3.43
4.10
4.48
4.55
4.31
3.85
3.30
2.79
2.41
2.20
2.18
2.26
2.27
2.04
1.46
0.56
-0.44
-1.24
-1.60
-1.47
-0.98
-0.36
0.20
0.62
0.93
1.18
1.36
1.43
1.33
1.08
0.80
0.58
0.46
0.37
0.17
-0.27
-1.05
-2.18
-3.63
-5.25
-6.78
-7.93
-8.42
-8.11
-7.11
-5.74
-4.41
-3.40
-2.78
-2.36
-1.80
-0.86
0.50
2.15
3.81
5.24
6.28
6.83
6.89
6.46
5.62
4.52
3.35
2.39
1.80
1.69
1.96
2.39
2.73
2.75
2.38
1.72
0.95
0.29
-0.14
-0.28
-0.22
-0.04
0.18
0.38
0.55
0.63
0.59
0.42
0.16
-0.09
-0.24
-0.24
-0.14
-0.02
0.02
-0.09
-0.36
-0.78
-1.28
-1.78
-2.20
-2.47
-2.55
-2.46
-2.25
-2.02
-1.79
-1.54
-1.19
-0.66
0.10
1.10
2.27
3.53
4.74
5.71
6.29
6.32
5.82
4.92
3.86
2.92
2.27
1.94
1.85
1.84
1.80
1.71
1.57
1.40
1.21
0.99
0.70
0.39
0.10
-0.12
-0.28
-0.48
-0.84
-1.43
-2.22
-3.05
-3.69
-3.97
-3.85
-3.41
-2.83
-2.31
-1.96
-1.81
-1.85
-2.04
-2.35
-2.75
-3.18
-3.56
-3.84
-3.94
-3.82
-3.44
-2.76
-1.81
-0.65
0.61
1.85
2.98
3.95
4.74
5.30
5.55
5.38
4.70
3.56
2.15
0.77
-0.28
-0.79
-0.73
-0.29
0.32
0.86
1.19
1.28
1.21
1.05
0.83
0.59
0.35
0.15
0.05
0.04
0.08
0.02
-0.25
-0.84
-1.68
-2.61
-3.41
-3.92
-4.10
-4.04
-3.93
-3.91
-4.07
-4.33
-4.54
-4.56
-4.29
-3.79
-3.20
-2.69
-2.31
-1.99
-1.58
-0.92
0.05
1.21
2.39
3.44
4.27
4.88
5.32
5.56
5.55
5.20
4.49
3.49
2.38
1.33
0.51
0.03
-0.14
-0.04
0.16
0.33
0.30
0.04
-0.42
-0.93
-1.31
-1.45
-1.31
-1.01
-0.69
-0.52
-0.62
-0.97
-1.49
-2.04
-2.48
-2.70
-2.71
-2.53
-2.28
-2.06
-1.99
-2.13
-2.52
-3.10
-3.76
-4.29
-4.47
-4.11
-3.15
-1.67
0.06
1.76
3.17
4.14
4.75
5.13
5.48
5.91
6.39
6.81
6.95
6.67
5.94
4.92
3.84
2.89
2.15
1.53
0.93
0.35
-0.08
-0.16
0.23
0.98
1.79
2.31
2.31
1.81
1.08
0.40
-0.02
-0.19
-0.28
-0.47
-0.88
-1.50
-2.23
-2.98
-3.63
-4.11
-4.36
-4.41
-4.28
-4.05
-3.83
-3.72
-3.80
-4.09
-4.50
-4.85
-4.90
-4.48
-3.54
-2.21
-0.74
0.65
1.81
2.76
3.59
4.39
5.16
5.80
6.25
6.41
6.31
5.97
5.39
4.57
3.53
2.36
1.24
0.42
0.12
0.46
1.42
2.87
4.54
6.10
7.26
7.77
7.56
6.76
5.62
4.49
3.65
3.27
3.32
3.63
4.01
4.22
4.10
3.49
2.31
0.59
-1.48
-3.61
-5.41
-6.62
-7.17
-7.26
-7.20
-7.30
-7.65
-8.12
-8.44
-8.35
-7.73
-6.66
-5.36
-4.08
-3.04
-2.34
-1.96
-1.81
-1.68
-1.42
-0.89
-0.08
0.88
1.81
2.49
2.79
2.73
2.36
1.77
1.04
0.21
-0.61
-1.30
-1.73
-1.87
-1.82
-1.77
-1.90
-2.26
-2.75
-3.18
-3.37
-3.24
-2.80
-2.15
-1.42
-0.77
-0.34
-0.28
-0.63
-1.33
-2.15
-2.81
-3.15
-3.16
-3.01
-2.95
-3.11
-3.46
-3.80
-3.88
-3.44
-2.41
-0.90
0.82
2.43
3.71
4.59
5.13
5.46
5.61
5.57
5.28
4.77
4.16
3.64
3.35
3.31
3.37
3.33
3.05
2.54
1.94
1.46
1.28
1.42
1.80
2.23
2.47
2.32
1.75
0.88
0.03
-0.55
-0.74
-0.66
-0.61
-0.85
-1.48
-2.35
-3.24
-3.93
-4.32
-4.44
-4.34
-3.99
-3.38
-2.57
-1.76
-1.27
-1.36
-2.08
-3.15
-4.09
-4.46
-3.98
-2.72
-0.94
1.01
2.89
4.56
6.01
7.20
8.03
8.38
8.11
7.27
6.08
4.85
3.89
3.35
3.19
3.24
3.24
3.07
2.72
2.33
2.09
2.13
2.40
2.73
2.84
2.51
1.69
0.53
-0.66
-1.57
-1.98
-1.90
-1.52
-1.10
-0.90
-1.04
-1.54
-2.32
-3.26
-4.24
-5.14
-5.83
-6.25
-6.41
-6.34
-6.15
-5.90
-5.61
-5.20
-4.54
-3.50
-2.07
-0.37
1.37
2.82
3.77
4.12
3.99
3.54
3.05
2.65
2.41
2.34
2.43
2.67
3.05
3.50
3.84
3.82
3.25
2.14
0.73
-0.61
-1.51
-1.80
-1.60
-1.16
-0.73
-0.43
-0.28
-0.21
-0.24
-0.44
-0.89
-1.57
-2.32
-2.97
-3.39
-3.63
-3.84
-4.22
-4.81
-5.52
-6.15
-6.52
-6.52
-6.18
-5.62
-4.98
-4.38
-3.92
-3.57
-3.24
-2.75
-1.90
-0.60
1.08
2.89
4.51
5.61
6.07
5.90
5.28
4.40
3.42
2.48
1.59
0.80
0.13
-0.38
-0.65
-0.65
-0.41
-0.01
0.38
0.61
0.61
0.41
0.13
-0.10
-0.19
-0.16
-0.08
-0.04
-0.14
-0.41
-0.87
-1.49
-2.21
-2.86
-3.23
-3.17
-2.60
-1.65
-0.54
0.39
0.89
0.83
0.23
-0.69
-1.59
-2.15
-2.12
-1.45
-0.30
1.04
2.25
3.17
3.78
4.27
4.85
5.63
6.58
7.49
8.05
8.01
7.26
5.91
4.25
2.70
1.61
1.21
1.47
2.12
2.82
3.27
3.33
3.08
2.72
2.48
2.47
2.67
2.98
3.25
3.38
3.27
2.85
2.06
0.89
-0.54
-2.07
-3.42
-4.44
-5.03
-5.21
-5.05
-4.60
-3.92
-3.12
-2.41
-2.02
-2.14
-2.80
-3.77
-4.77
-5.50
-5.80
-5.74
-5.45
-5.03
-4.52
-3.90
-3.18
-2.38
-1.55
-0.62
0.54
1.99
3.68
5.29
6.44
6.77
6.18
4.90
3.38
2.10
1.36
1.18
1.30
1.40
1.18
0.55
-0.33
-1.13
-1.47
-1.10
-0.04
1.46
3.01
4.25
5.00
5.27
5.17
4.81
4.27
3.65
3.09
2.76
2.67
2.66
2.35
1.33
-0.56
-3.15
-5.89
-8.15
-9.48
-9.75
-9.18
-8.14
-6.95
-5.72
-4.44
-3.03
-1.52
-0.10
1.01
1.65
1.81
1.68
1.52
1.51
1.65
1.78
1.71
1.35
0.79
0.25
-0.09
-0.18
-0.19
-0.35
-0.80
-1.54
-2.38
-3.10
-3.52
-3.60
-3.39
-3.00
-2.58
-2.25
-2.17
-2.44
-3.11
-4.08
-5.18
-6.15
-6.81
-7.07
-6.94
-6.51
-5.89
-5.18
-4.47
-3.89
-3.56
-3.55
-3.78
-4.05
-4.10
-3.66
-2.56
-0.78
1.47
3.87
6.00
7.51
8.22
8.17
7.57
6.70
5.82
5.07
4.52
4.14
3.89
3.74
3.57
3.32
2.92
2.42
1.92
1.50
1.19
0.91
0.58
0.13
-0.37
-0.83
-1.18
-1.43
-1.66
-1.96
-2.34
-2.73
-3.03
-3.18
-3.21
-3.20
-3.26
-3.41
-3.63
-3.84
-3.94
-3.93
-3.82
-3.73
-3.69
-3.66
-3.49
-2.97
-1.96
-0.49
1.20
2.83
4.18
5.21
6.06
6.87
7.69
8.37
8.66
8.39
7.60
6.55
5.61
5.08
4.98
5.11
5.14
4.79
3.97
2.80
1.60
0.65
0.14
0.02
0.11
0.14
-0.10
-0.65
-1.39
-2.09
-2.55
-2.68
-2.52
-2.24
-1.98
-1.82
-1.74
-1.72
-1.72
-1.75
-1.87
-2.09
-2.40
-2.69
-2.80
-2.52
-1.73
-0.42
1.29
3.14
4.81
6.05
6.76
7.01
6.99
6.90
6.86
6.85
6.75
6.43
5.80
4.91
3.89
2.93
2.17
1.66
1.37
1.22
1.14
1.12
1.17
1.25
1.29
1.17
0.75
0.03
-0.89
-1.84
-2.63
-3.14
-3.40
-3.50
-3.52
-3.49
-3.36
-3.08
-2.65
-2.17
-1.83
-1.77
-2.10
-2.77
-3.66
-4.59
-5.41
-6.05
-6.44
-6.54
-6.24
-5.44
-4.05
-2.17
-0.04
1.95
3.44
4.21
4.27
3.86
3.31
2.83
2.46
2.06
1.44
0.54
-0.48
-1.30
-1.57
-1.13
-0.08
1.23
2.31
2.74
2.32
1.13
-0.51
-2.17
-3.46
-4.16
-4.27
-3.98
-3.53
-3.14
-2.93
-2.96
-3.19
-3.57
-4.04
-4.47
-4.71
-4.61
-4.09
-3.24
-2.28
-1.53
-1.29
-1.70
-2.66
-3.84
-4.80
-5.14
-4.64
-3.36
-1.55
0.44
2.31
3.91
5.21
6.22
6.93
7.30
7.26
6.84
6.16
5.35
4.56
3.84
3.14
2.42
1.70
1.07
0.68
0.61
0.84
1.21
1.48
1.51
1.23
0.75
0.23
-0.22
-0.58
-0.89
-1.25
-1.69
-2.17
-2.60
-2.90
-3.10
-3.24
-3.37
-3.52
-3.66
-3.75
-3.77
-3.79
-3.87
-4.08
-4.37
-4.61
-4.62
-4.18
-3.16
-1.53
0.57
2.93
5.23
7.19
8.57
9.27
9.33
8.86
8.01
6.96
5.89
4.98
4.40
4.20
4.29
4.45
4.42
4.01
3.22
2.18
1.18
0.42
0.06
0.07
0.33
0.64
0.81
0.73
0.35
-0.25
-0.96
-1.69
-2.42
-3.18
-3.93
-4.61
-5.07
-5.16
-4.88
-4.39
-3.98
-3.93
-4.36
-5.13
-5.92
-6.37
-6.21
-5.38
-4.01
-2.35
-0.63
1.00
2.55
4.04
5.55
7.03
8.38
9.46
10.12
10.28
9.91
9.07
7.90
6.57
5.26
4.11
3.11
2.22
1.33
0.40
-0.47
-1.10
-1.31
-1.04
-0.47
0.13
0.49
0.46
0.00
-0.84
-2.00
-3.41
-4.95
-6.37
-7.37
-7.66
-7.21
-6.24
-5.20
-4.57
-4.57
-5.11
-5.89
-6.50
-6.68
-6.33
-5.54
-4.41
-3.07
-1.61
-0.14
1.23
2.49
3.65
4.83
6.20
7.88
9.85
11.96
13.90
15.29
15.79
15.20
13.45
10.71
7.26
3.51
-0.09
-3.09
-5.22
-6.32
-6.53
-6.09
-5.32
-4.46
-3.59
-2.73
-1.90
-1.26
-1.04
-1.43
-2.46
-3.91
-5.42
-6.61
-7.25
-7.35
-7.03
-6.50
-5.94
-5.47
-5.15
-4.96
-4.90
-4.93
-4.98
-5.02
-4.98
-4.79
-4.44
-3.97
-3.52
-3.22
-3.10
-3.05
-2.85
-2.29
-1.27
0.12
1.65
3.13
4.46
5.61
6.51
7.03
6.98
6.35
5.28
4.18
3.41
3.16
3.29
3.50
3.46
3.02
2.24
1.37
0.64
0.18
0.03
0.10
0.28
0.48
0.64
0.72
0.71
0.59
0.31
-0.15
-0.79
-1.55
-2.30
-2.86
-3.12
-3.10
-2.91
-2.74
-2.75
-2.95
-3.24
-3.47
-3.44
-3.08
-2.41
-1.58
-0.79
-0.17
0.28
0.70
1.30
2.24
3.53
4.99
6.34
7.37
7.99
8.27
8.35
8.27
7.99
7.42
6.49
5.28
3.97
2.82
2.00
1.59
1.56
1.78
2.09
2.36
2.50
2.49
2.39
2.29
2.27
2.36
2.50
2.58
2.51
2.24
1.79
1.18
0.38
-0.66
-1.92
-3.23
-4.37
-5.08
-5.23
-4.89
-4.25
-3.57
-3.00
-2.60
-2.32
-2.16
-2.14
-2.29
-2.59
-2.90
-2.98
-2.56
-1.49
0.21
2.36
4.65
6.72
8.25
9.05
9.04
8.29
6.92
5.10
3.08
1.05
-0.76
-2.21
-3.22
-3.77
-3.94
-3.88
-3.74
-3.65
-3.69
-3.81
-3.93
-3.93
-3.72
-3.28
-2.70
-2.15
-1.84
-1.92
-2.42
-3.25
-4.26
-5.29
-6.24
-7.06
-7.73
-8.23
-8.49
-8.47
-8.23
-7.90
-7.67
-7.67
-7.90
-8.21
-8.34
-8.10
-7.39
-6.30
-5.01
-3.72
-2.55
-1.52
-0.62
0.19
0.94
1.72
2.63
3.74
5.08
6.49
7.72
8.47
8.54
7.94
6.87
5.69
4.70
4.05
3.71
3.50
3.26
2.94
2.61
2.36
2.24
2.20
2.18
2.04
1.78
1.46
1.18
1.01
0.90
0.72
0.32
-0.38
-1.37
-2.47
-3.49
-4.25
-4.66
-4.77
-4.69
-4.57
-4.51
-4.58
-4.74
-4.91
-4.98
-4.83
-4.35
-3.52
-2.38
-1.10
0.17
1.31
2.29
3.21
4.22
5.39
6.68
7.92
8.87
9.36
9.30
8.72
7.75
6.53
5.23
4.01
3.02
2.39
2.15
2.24
2.47
2.62
2.47
1.88
0.86
-0.45
-1.76
-2.79
-3.33
-3.33
-2.89
-2.25
-1.67
-1.35
-1.38
-1.71
-2.18
-2.61
-2.81
-2.69
-2.27
-1.71
-1.18
-0.92
-1.08
-1.73
-2.74
-3.90
-4.85
-5.23
-4.82
-3.57
-1.65
0.65
2.94
4.93
6.38
7.21
7.41
7.09
6.42
5.61
4.82
4.16
3.62
3.16
2.74
2.45
2.39
2.64
3.09
3.53
3.68
3.36
2.60
1.57
0.60
-0.05
-0.23
-0.02
0.39
0.76
0.85
0.60
0.08
-0.56
-1.17
-1.67
-2.08
-2.42
-2.67
-2.76
-2.62
-2.31
-2.06
-2.18
-2.84
-3.96
-5.24
-6.27
-6.80
-6.76
-6.25
-5.42
-4.36
-3.11
-1.71
-0.32
0.84
1.60
1.92
1.90
1.74
1.62
1.57
1.55
1.52
1.39
1.14
0.76
0.30
-0.11
-0.36
-0.31
0.03
0.54
1.01
1.25
1.17
0.82
0.37
-0.02
-0.26
-0.34
-0.29
-0.19
-0.03
0.15
0.28
0.21
-0.15
-0.84
-1.77
-2.80
-3.74
-4.49
-4.97
-5.18
-5.14
-4.89
-4.51
-4.13
-3.93
-4.04
-4.40
-4.76
-4.77
-4.10
-2.68
-0.72
1.39
3.20
4.50
5.28
5.71
5.94
6.01
5.83
5.28
4.40
3.36
2.40
1.71
1.34
1.18
1.08
0.98
0.91
1.00
1.28
1.70
2.08
2.20
1.94
1.33
0.50
-0.33
-0.99
-1.39
-1.55
-1.61
-1.73
-2.04
-2.58
-3.30
-4.09
-4.82
-5.44
-5.88
-6.15
-6.23
-6.12
-5.83
-5.43
-5.04
-4.76
-4.65
-4.59
-4.32
-3.54
-2.07
0.07
2.56
4.94
6.74
7.72
7.95
7.79
7.66
7.83
8.28
8.76
8.92
8.54
7.67
6.53
5.37
4.38
3.54
2.77
1.99
1.26
0.74
0.59
0.80
1.20
1.45
1.26
0.49
-0.72
-2.02
-3.02
-3.46
-3.31
-2.80
-2.26
-2.01
-2.24
-2.97
-4.11
-5.42
-6.67
-7.59
-8.01
-7.88
-7.31
-6.50
-5.64
-4.85
-4.07
-3.13
-1.90
-0.28
1.68
3.90
6.25
8.55
10.61
12.15
12.88
12.64
11.45
9.53
7.28
5.08
3.25
1.91
1.05
0.55
0.27
0.05
-0.23
-0.66
-1.31
-2.08
-2.85
-3.47
-3.83
-3.96
-3.95
-3.94
-4.01
-4.19
-4.41
-4.58
-4.62
-4.52
-4.34
-4.21
-4.32
-4.80
-5.70
-6.98
-8.45
-9.83
-10.85
-11.29
-11.04
-10.12
-8.68
-6.99
-5.33
-3.92
-2.82
-1.88
-0.85
0.50
2.25
4.24
6.20
7.84
9.01
9.69
9.95
9.86
9.43
8.63
7.50
6.22
5.02
4.17
3.77
3.74
3.87
3.91
3.75
3.45
3.20
3.16
3.37
3.71
3.98
4.02
3.77
3.27
2.60
1.82
0.95
0.06
-0.74
-1.31
-1.57
-1.60
-1.61
-1.81
-2.34
-3.11
-3.91
-4.56
-4.94
-5.10
-5.08
-4.89
-4.44
-3.64
-2.52
-1.25
-0.12
0.67
1.12
1.45
1.97
2.92
4.30
5.88
7.30
8.23
8.49
8.06
7.08
5.77
4.44
3.25
2.29
1.52
0.81
0.06
-0.78
-1.61
-2.26
-2.60
-2.58
-2.28
-1.83
-1.39
-1.08
-0.93
-0.89
-0.95
-1.10
-1.35
-1.71
-2.11
-2.41
-2.50
-2.38
-2.26
-2.45
-3.21
-4.53
-6.06
-7.27
-7.69
-7.17
-5.99
-4.71
-3.86
-3.69
-4.11
-4.75
-5.19
-5.10
-4.31
-2.78
-0.59
2.06
4.85
7.41
9.36
10.50
10.77
10.34
9.44
8.35
7.29
6.42
5.87
5.66
5.70
5.77
5.60
5.03
4.08
2.97
2.02
1.51
1.51
1.92
2.43
2.77
2.74
2.33
1.66
0.86
0.00
-0.93
-1.92
-2.89
-3.64
-3.98
-3.81
-3.26
-2.65
-2.33
-2.56
-3.30
-4.31
-5.28
-5.92
-6.21
-6.24
-6.22
-6.22
-6.22
-6.02
-5.42
-4.27
-2.51
-0.30
2.10
4.34
6.11
7.16
7.44
6.99
6.03
4.82
3.63
2.71
2.19
2.03
2.10
2.16
2.04
1.65
1.03
0.33
-0.28
-0.72
-0.97
-1.09
-1.21
-1.46
-1.96
-2.76
-3.78
-4.84
-5.69
-6.09
-5.99
-5.48
-4.84
-4.34
-4.16
-4.33
-4.69
-5.09
-5.42
-5.63
-5.72
-5.68
-5.43
-4.92
-4.14
-3.17
-2.15
-1.25
-0.64
-0.30
-0.08
0.33
1.24
2.84
5.04
7.43
9.48
10.66
10.75
9.85
8.34
6.69
5.29
4.30
3.71
3.39
3.19
3.00
2.77
2.47
2.09
1.68
1.28
0.93
0.66
0.48
0.32
0.11
-0.23
-0.71
-1.29
-1.93
-2.57
-3.17
-3.69
-4.07
-4.26
-4.22
-4.02
-3.78
-3.68
-3.82
-4.20
-4.69
-5.10
-5.31
-5.32
-5.24
-5.13
-4.93
-4.43
-3.37
-1.63
0.70
3.30
5.76
7.73
9.03
9.65
9.69
9.26
8.45
7.32
6.00
4.68
3.59
2.90
2.62
2.59
2.57
2.37
1.92
1.30
0.71
0.33
0.22
0.33
0.52
0.66
0.69
0.60
0.43
0.17
-0.19
-0.70
-1.37
-2.13
-2.88
-3.56
-4.15
-4.70
-5.22
-5.69
-6.06
-6.30
-6.45
-6.59
-6.76
-6.96
-7.03
-6.83
-6.24
-5.24
-3.85
-2.11
-0.07
2.20
4.53
6.69
8.36
9.37
9.66
9.37
8.69
7.80
6.78
5.67
4.55
3.55
2.80
2.39
2.26
2.26
2.17
1.81
1.11
0.11
-1.00
-1.95
-2.51
-2.51
-2.02
-1.22
-0.41
0.10
0.13
-0.33
-1.19
-2.25
-3.30
-4.13
-4.64
-4.82
-4.76
-4.67
-4.70
-5.00
-5.52
-6.15
-6.71
-7.05
-7.14
-6.97
-6.58
-5.96
-5.09
-3.96
-2.60
-1.09
0.45
1.89
3.19
4.30
5.22
5.88
6.18
6.00
5.34
4.35
3.34
2.69
2.58
3.02
3.75
4.47
4.93
5.05
4.85
4.38
3.65
2.62
1.41
0.17
-0.82
-1.33
-1.29
-0.84
-0.23
0.26
0.35
-0.08
-1.05
-2.43
-3.93
-5.22
-5.98
-6.11
-5.73
-5.16
-4.76
-4.72
-5.01
-5.40
-5.63
-5.50
-4.96
-4.05
-2.83
-1.38
0.24
1.91
3.47
4.81
5.88
6.72
7.42
8.04
8.60
9.00
9.14
8.95
8.42
7.64
6.70
5.71
4.73
3.83
3.04
2.37
1.85
1.42
1.04
0.65
0.23
-0.18
-0.48
-0.61
-0.60
-0.60
-0.84
-1.49
-2.57
-3.88
-5.07
-5.84
-6.06
-5.81
-5.30
-4.79
-4.40
-4.19
-4.15
-4.31
-4.70
-5.35
-6.14
-6.84
-7.12
-6.72
-5.56
-3.78
-1.65
0.52
2.53
4.29
5.83
7.13
8.16
8.84
9.13
9.07
8.77
8.34
7.82
7.19
6.42
5.52
4.63
3.89
3.43
3.25
3.26
3.29
3.21
2.94
2.46
1.75
0.80
-0.36
-1.59
-2.62
-3.17
-3.10
-2.49
-1.69
-1.13
-1.19
-1.95
-3.24
-4.65
-5.83
-6.53
-6.77
-6.69
-6.50
-6.38
-6.42
-6.67
-7.13
-7.78
-8.55
-9.28
-9.79
-9.91
-9.53
-8.63
-7.34
-5.81
-4.24
-2.79
-1.57
-0.54
0.39
1.36
2.41
3.44
4.17
4.26
3.47
1.84
-0.28
-2.33
-3.79
-4.39
-4.28
-3.86
-3.57
-3.64
-3.91
-4.02
-3.55
-2.26
-0.21
2.31
4.91
7.21
8.97
10.01
10.21
9.53
8.05
5.96
3.56
1.24
-0.63
-1.72
-1.79
-0.68
1.56
4.69
8.41
12.38
16.38
20.39
24.46
28.64
32.89
36.98
40.58
43.32
44.85
44.86
43.22
39.96
35.42
30.27
25.36
21.55
19.30
18.57
18.66
18.47
16.89
13.13
7.10
-0.60
-8.80
-16.17
-21.54
-24.26
-24.30
-22.23
-19.04
-15.82
-13.45
-12.43
-12.82
-14.28
-16.34
-18.55
-20.57
-22.25
-23.50
-24.24
-24.45
-24.14
-23.51
-22.85
-22.48
-22.62
-23.21
-23.91
-24.15
-23.37
-21.27
-17.98
-14.11
-10.48
-7.81
-6.47
-6.26
-6.60
-6.76
-6.15
-4.59
-2.28
0.27
2.52
4.00
4.49
4.01
2.75
1.04
-0.77
-2.31
-3.35
-3.71
-3.40
-2.54
-1.38
-0.21
0.67
1.03
0.79
0.02
-1.06
-2.18
-3.09
-3.67
-3.90
-3.89
-3.72
-3.44
-3.04
-2.48
-1.83
-1.20
-0.73
-0.47
-0.37
-0.27
-0.02
0.43
1.01
1.60
2.06
2.36
2.59
2.88
3.37
4.04
4.75
5.29
5.47
5.29
4.90
4.58
4.58
5.04
5.85
6.75
7.50
7.92
8.02
7.89
7.63
7.27
6.75
6.02
5.11
4.06
2.99
1.86
0.61
-0.93
-2.82
-4.99
-7.22
-9.22
-10.80
-11.86
-12.48
-12.78
-12.89
-12.87
-12.72
-12.35
-11.72
-10.75
-9.51
-8.20
-7.10
-6.51
-6.57
-7.19
-7.94
-8.33
-7.96
-6.77
-5.01
-3.12
-1.44
-0.10
0.96
1.81
2.45
2.72
2.48
1.75
0.79
0.02
-0.24
0.12
0.93
1.86
2.62
3.04
3.17
3.08
2.87
2.54
2.03
1.36
0.61
-0.06
-0.48
-0.60
-0.52
-0.49
-0.78
-1.50
-2.59
-3.74
-4.54
-4.61
-3.76
-2.07
0.12
2.38
4.25
5.43
5.86
5.75
5.43
5.31
5.59
6.21
6.86
7.08
6.48
4.88
2.45
-0.44
-3.23
-5.42
-6.64
-6.77
-5.95
-4.50
-2.80
-1.14
0.29
1.50
2.63
3.83
5.21
6.80
8.56
10.34
11.96
13.20
13.82
13.67
12.73
11.11
9.05
6.86
4.85
3.25
2.13
1.43
0.99
0.64
0.28
-0.07
-0.33
-0.50
-0.66
-0.93
-1.44
-2.16
-2.84
-3.21
-3.05
-2.43
-1.65
-1.12
-1.14
-1.77
-2.73
-3.64
-4.12
-3.93
-3.06
-1.61
0.29
2.51
4.98
7.57
10.12
12.45
14.39
15.94
17.17
18.19
18.97
19.32
18.93
17.59
15.32
12.44
9.37
6.38
3.48
0.50
-2.76
-6.36
-10.07
-13.33
-15.45
-15.85
-14.41
-11.38
-7.26
-2.63
1.91
5.73
8.26
8.82
6.81
1.65
-6.67
-17.27
-28.50
-38.45
-45.40
-48.14
-46.23
-40.04
-31.25
-21.90
-13.81
-8.54
-7.40
-11.05
-18.88
-29.00
-38.62
-46.01
-49.80
-48.81
-42.89
-33.54
-23.27
-14.26
-7.57
-2.92
-0.91
-1.22
-1.98
-1.18
1.90
6.72
12.37
17.88
22.20
21.41
12.02
-6.60
-32.41
-62.29
-92.34
-118.01
-135.60
-130.08
-98.52
-56.25
-23.68
-10.27
-14.13
-28.02
-43.87
-55.51
-59.27
-56.64
-50.70
-43.35
-35.30
-27.67
-21.74
-17.23
-13.79
-10.25
-7.91
-8.73
-13.38
-20.49
-28.30
-35.33
-40.17
-42.20
-39.89
-33.99
-26.04
-19.66
-14.86
-9.86
-2.60
9.20
26.73
52.77
87.61
128.71
172.13
214.27
251.85
281.00
298.67
302.24
294.31
278.25
256.64
231.73
206.93
186.91
175.36
174.78
162.74
127.97
75.48
18.87
-32.99
-78.32
-112.63
-137.65
-151.14
-150.36
-130.51
-90.17
-35.68
22.64
65.78
76.65
48.90
-6.31
-67.41
-110.60
-121.62
-99.97
-56.73
-8.38
30.58
50.68
49.84
31.63
4.85
-21.40
-40.56
-49.86
-49.56
-41.38
-28.40
-14.21
-2.89
2.10
-2.22
-15.59
-36.70
-60.29
-78.92
-86.21
-78.88
-57.64
-28.15
0.10
18.37
21.66
10.95
-8.30
-28.90
-44.67
-52.18
-53.89
-57.27
-69.05
-91.86
-122.19
-153.11
-176.84
-186.69
-177.61
-144.66
-91.76
-28.03
34.39
84.47
114.28
122.08
102.67
66.66
34.65
19.10
21.98
32.94
46.62
63.57
81.71
101.43
123.94
147.32
166.73
178.96
184.15
185.79
186.81
187.92
188.17
186.39
180.17
166.74
145.88
120.25
94.88
74.16
60.53
54.86
56.78
63.96
72.83
80.82
87.22
93.56
101.86
113.58
129.05
147.05
164.22
175.99
178.49
169.96
151.29
124.86
93.43
59.24
23.40
-14.27
-54.64
-98.32
-145.00
-193.16
-240.31
-283.31
-318.88
-344.32
-358.17
-360.71
-353.81
-340.34
-323.26
-304.47
-284.38
-261.97
-235.80
-204.99
-170.20
-133.65
-98.59
-68.31
-45.16
-29.98
-22.02
-19.11
-18.18
-15.88
-9.51
2.15
18.20
35.89
51.61
62.37
67.05
66.63
63.55
60.35
58.66
58.85
60.52
63.27
67.23
73.01
81.27
92.22
105.52
120.63
137.19
155.20
174.66
194.90
214.06
229.05
236.25
232.50
216.30
188.26
151.08
108.82
65.84
25.72
-9.44
-39.23
-64.72
-87.75
-110.11
-132.78
-155.51
-176.95
-195.20
-208.54
-216.10
-218.20
-216.25
-212.34
-208.53
-206.05
-204.53
-201.57
-193.18
-175.22
-145.50
-105.63
-61.51
-21.84
4.90
13.86
5.87
-12.84
-33.22
-46.88
-48.88
-38.98
-20.74
0.26
18.21
28.22
27.41
15.83
-2.92
-22.33
-35.27
-37.13
-28.58
-15.64
-6.83
-8.68
-22.05
-41.60
-58.67
-65.66
-59.58
-42.47
-19.14
6.06
31.33
57.40
85.73
116.63
148.54
178.66
204.21
223.77
237.93
248.69
258.54
269.25
281.22
293.26
303.20
308.76
308.57
302.64
292.15
278.73
263.38
245.70
223.70
194.68
156.73
110.26
58.66
7.58
-37.01
-71.11
-94.17
-109.16
-121.05
-134.66
-152.81
-175.63
-201.06
-226.14
-248.53
-267.40
-283.64
-299.48
-317.52
-340.08
-368.67
-403.94
-445.53
-491.90
-539.64
-583.15
-615.11
-628.11
-617.16
-581.59
-525.66
-457.07
-384.25
-313.65
-248.44
-188.96
-134.21
-83.36
-36.20
7.22
47.35
85.58
123.89
164.24
208.13
256.40
309.24
365.91
424.31
480.56
529.41
565.34
584.24
584.63
567.80
536.78
494.91
444.85
388.67
328.64
267.80
209.71
157.24
111.07
69.34
28.48
-14.80
-61.50
-109.52
-154.28
-190.51
-214.35
-224.62
-222.89
-212.57
-197.52
-180.99
-165.06
-150.77
-138.53
-128.37
-120.10
-113.18
-106.74
-99.63
-90.79
-79.56
-66.01
-50.80
-35.05
-19.92
-6.31
5.39
15.23
23.62
31.02
37.84
44.32
50.50
56.32
61.60
66.20
70.02
73.01
75.17
76.53
77.04
76.65
75.31
73.14
70.51
67.96
66.03
65.07
65.06
65.58
66.01
65.77
64.46
61.92
58.15
53.11
46.60
38.40
28.34
16.58
3.60
-9.89
-23.14
-35.64
-47.24
-58.13
-68.63
-79.03
-89.07
-98.35
-106.34
-112.58
-116.88
-119.39
-120.62
-121.41
-122.96
-126.07
-131.23
-137.96
-144.68
-148.87
-148.04
-140.57
-126.65
-108.94
-91.17
-77.80
-71.90
-73.76
-80.46
-86.80
-86.83
-75.55
-51.05
-12.39
37.64
93.81
149.27
196.57
229.15
243.33
239.65
220.93
195.93
171.05
150.23
134.36
122.05
110.80
99.26
88.09
76.49
69.34
66.96
68.18
70.99
73.14
71.35
63.17
47.72
21.75
-9.66
-44.95
-80.97
-113.00
-135.57
-146.74
-147.21
-117.17
-91.35
-69.05
-52.38
-40.38
-30.07
-18.31
-7.01
-0.08
-0.46
-12.41
-30.47
-52.22
-74.58
-95.34
-97.74
-74.60
-33.89
9.05
42.20
67.52
86.88
101.96
111.61
117.22
117.13
111.29
102.90
95.15
93.63
98.99
112.09
130.25
150.03
165.94
174.36
175.13
169.86
162.39
154.70
147.76
141.22
134.40
124.75
110.09
89.67
63.66
33.24
-0.51
-35.89
-70.70
-101.80
-126.67
-143.29
-150.42
-147.99
-137.42
-121.13
-101.84
-82.18
-64.14
-49.52
-39.56
-34.73
-34.68
-38.31
-43.99
-49.90
-54.55
-57.02
-57.16
-55.51
-52.89
-50.10
-47.55
-45.11
-42.18
-37.93
-31.56
-22.61
-11.09
2.43
16.93
31.10
43.56
53.06
58.66
59.91
56.98
50.52
41.54
31.10
20.18
9.58
-0.03
-8.07
-14.13
-18.01
-19.87
-20.19
-19.61
-18.81
-18.31
-18.46
-19.43
-21.35
-24.26
-28.13
-32.75
-37.74
-42.65
-47.12
-50.89
-53.90
-56.18
-57.73
-58.42
-57.93
-55.94
-52.24
-46.97
-40.62
-33.94
-27.64
-22.17
-17.52
-13.23
-8.62
-3.01
4.06
12.65
22.43
32.73
42.69
51.40
58.17
62.64
64.95
65.66
65.59
65.63
66.45
68.43
71.56
75.54
79.80
83.55
85.89
85.92
82.98
76.74
67.45
55.79
42.81
29.63
17.36
6.90
-1.04
-6.06
-8.12
-7.67
-5.78
-3.91
-3.62
-6.14
-11.99
-20.72
-31.18
-41.80
-50.95
-57.20
-59.30
-56.13
-46.93
-31.57
-10.97
12.75
36.63
57.49
72.83
81.35
83.04
78.75
69.68
56.89
41.20
23.42
4.57
-13.99
-30.73
-44.26
-53.71
-58.94
-60.62
-59.99
-58.56
-57.75
-58.62
-61.79
-67.40
-75.14
-84.33
-94.00
-103.02
-110.35
-115.31
-117.90
-118.63
-118.32
-117.62
-116.79
-115.60
-113.65
-110.65
-106.69
-102.19
-97.59
-93.16
-88.85
-84.40
-79.58
-74.30
-68.65
-62.76
-56.64
-50.16
-43.13
-35.44
-27.10
-18.29
-9.32
-0.57
7.71
15.37
22.47
29.16
35.68
42.10
48.35
54.10
58.93
62.47
64.55
65.20
64.64
63.13
60.86
57.98
54.61
50.93
47.21
43.67
40.49
37.67
35.04
32.35
29.45
26.39
23.47
21.09
19.68
19.41
20.24
21.85
23.80
25.67
27.13
28.03
28.34
28.13
27.50
26.51
25.19
23.58
21.71
19.72
17.80
16.23
15.12
14.41
13.85
13.12
12.00
10.55
9.09
8.03
7.70
8.11
9.00
9.96
10.60
10.73
10.38
9.76
9.12
8.65
8.46
8.59
9.00
9.63
10.34
11.00
11.51
11.79
11.85
11.74
11.53
11.24
10.86
10.32
9.65
8.96
8.45
8.40
8.97
10.15
11.72
13.28
14.47
14.93
14.56
13.44
11.79
9.91
8.11
6.60
5.53
4.87
4.61
4.74
5.35
6.54
8.33
10.61
13.09
15.37
17.05
17.88
17.68
16.38
13.90
10.25
5.50
-0.10
-6.09
-11.97
-17.28
-21.74
-25.33
-28.18
-30.51
-32.48
-34.18
-35.57
-36.61
-37.23
-37.43
-37.22
-36.57
-35.45
-33.83
-31.74
-29.33
-26.87
-24.60
-22.75
-21.29
-20.07
-18.89
-17.56
-16.01
-14.27
-12.47
-10.76
-9.28
-8.18
-7.51
-7.20
-7.11
-7.01
-6.73
-6.21
-5.51
-4.70
-3.82
-2.89
-1.88
-0.84
0.20
1.17
2.07
2.93
3.78
4.56
5.20
5.66
6.02
6.59
7.75
9.83
12.85
16.49
20.16
23.22
25.18
25.82
25.23
23.61
21.27
18.48
15.50
12.52
9.72
7.19
5.04
3.26
1.82
0.63
-0.43
-1.44
-2.44
-3.35
-4.07
-4.49
-4.60
-4.51
-4.45
-4.62
-5.19
-6.23
-7.72
-9.63
-11.88
-14.37
-16.91
-19.28
-21.16
-22.32
-22.62
-22.11
-20.96
-19.44
-17.87
-16.48
-15.47
-14.95
-14.98
-15.56
-16.59
-17.84
-18.99
-19.77
-20.10
-20.20
-20.50
-21.46
-23.31
-25.99
-29.12
-32.22
-34.84
-36.68
-37.50
-37.10
-35.36
-32.38
-28.47
-24.18
-20.06
-16.46
-13.32
-10.40
-7.25
-3.52
1.02
6.42
12.71
19.80
27.48
35.45
43.27
50.52
56.82
61.85
65.35
67.03
66.62
63.94
59.04
52.13
43.62
33.96
23.69
13.37
3.63
-4.85
-11.37
-15.25
-15.99
-13.27
-7.14
1.99
13.23
25.43
37.31
47.77
56.07
61.85
65.04
65.65
63.86
59.92
54.38
47.96
41.45
35.42
30.07
25.27
20.68
16.02
11.22
6.38
1.66
-2.83
-7.09
-11.12
-14.85
-18.03
-20.38
-21.70
-22.02
-21.64
-21.03
-20.60
-20.57
-20.86
-21.20
-21.34
-21.18
-20.82
-20.46
-20.27
-20.21
-20.13
-19.77
-19.02
-17.92
-16.69
-15.54
-14.56
-13.70
-12.79
-11.68
-10.30
-8.73
-7.07
-5.40
-3.73
-2.02
-0.27
1.40
2.80
3.72
4.03
3.77
3.16
2.54
2.24
2.45
3.17
4.24
5.35
6.23
6.72
6.78
6.49
6.02
5.54
5.19
5.12
5.33
5.79
6.32
6.67
6.57
5.92
4.74
3.25
1.73
0.38
-0.67
-1.42
-1.90
-2.16
-2.23
-2.15
-2.01
-1.93
-2.04
-2.37
-2.86
-3.39
-3.78
-3.88
-3.62
-2.95
-1.82
-0.33
1.42
3.23
4.81
5.94
6.48
6.40
5.73
4.54
2.92
1.01
-0.93
-2.58
-3.56
-3.60
-2.68
-0.98
1.11
3.17
4.91
6.12
6.70
6.61
5.86
4.53
2.82
0.99
-0.68
-1.95
-2.73
-3.01
-2.87
-2.48
-1.96
-1.49
-1.13
-0.93
-0.81
-0.62
-0.17
0.74
2.19
4.09
6.24
8.31
10.03
11.18
11.70
11.69
11.34
10.85
10.35
9.92
9.57
9.29
9.08
8.90
8.63
8.14
7.27
5.94
4.24
2.40
0.76
-0.38
-0.79
-0.43
0.66
2.26
4.13
5.94
7.35
8.06
7.82
6.63
4.67
2.30
-0.05
-2.02
-3.45
-4.34
-4.87
-5.19
-5.42
-5.54
-5.53
-5.35
-5.08
-4.82
-4.66
-4.65
-4.76
-4.96
-5.21
-5.51
-5.76
-5.88
-5.75
-5.35
-4.79
-4.28
-3.99
-3.95
-4.11
-4.32
-4.54
-4.80
-5.13
-5.47
-5.65
-5.46
-4.83
-3.94
-3.13
-2.74
-2.88
-3.34
-3.75
-3.79
-3.40
-2.86
-2.48
-2.47
-2.78
-3.13
-3.20
-2.89
-2.36
-1.95
-1.99
-2.59
-3.58
-4.64
-5.43
-5.67
-5.32
-4.39
-3.07
-1.58
-0.23
0.76
1.23
1.21
0.90
0.57
0.46
0.69
1.24
1.95
2.64
3.13
3.34
3.19
2.71
2.01
1.24
0.57
0.14
0.00
0.13
0.45
0.88
1.41
2.03
2.75
3.50
4.17
4.62
4.79
4.71
4.45
4.12
3.79
3.44
3.05
2.60
2.07
1.49
0.82
0.09
-0.68
-1.41
-2.03
-2.53
-2.96
-3.42
-4.00
-4.70
-5.41
-5.98
-6.29
-6.31
-6.06
-5.63
-5.01
-4.18
-3.15
-2.00
-0.86
0.14
0.93
1.63
2.39
3.37
4.57
5.85
6.97
7.75
8.10
8.11
7.95
7.79
7.77
7.91
8.16
8.43
8.62
8.64
8.43
8.09
7.65
7.24
6.95
6.76
6.53
6.05
5.13
3.75
2.05
0.34
-1.02
-1.81
-2.03
-1.82
-1.38
-0.85
-0.17
0.78
2.08
3.61
5.11
6.10
6.27
5.46
3.83
1.73
-0.44
-2.33
-3.61
-3.96
-3.09
-0.68
3.39
8.93
15.38
21.93
27.68
31.83
33.89
33.61
31.01
26.31
19.89
12.31
4.22
-3.67
-10.77
-16.73
-21.44
-25.06
-27.83
-30.05
-31.87
-33.30
-34.12
-34.05
-32.84
-30.36
-26.74
-22.31
-17.52
-12.83
-8.59
-5.05
-2.37
-0.61
0.29
0.42
0.08
-0.44
-0.84
-0.94
-0.74
-0.42
-0.18
-0.16
-0.36
-0.65
-0.85
-0.90
-0.85
-0.80
-0.88
-1.02
-1.05
-0.73
0.07
1.40
3.00
4.33
5.05
5.12
4.85
4.68
4.76
4.90
4.59
2.94
-0.90
-7.22
-15.37
-23.97
-31.17
-35.44
-36.19
-33.77
-30.10
-28.15
-30.62
-38.81
-52.24
-68.85
-86.01
-101.38
-112.74
-119.83
-124.08
-126.59
-127.21
-124.89
-118.58
-108.31
-95.00
-77.88
-57.48
-35.74
-15.02
2.36
13.05
13.76
2.90
-16.96
-35.96
-45.32
-40.95
-23.03
6.18
43.00
84.77
130.56
181.30
240.97
306.28
366.10
407.70
424.24
416.11
391.24
361.06
309.09
240.33
175.15
126.63
89.95
53.88
10.17
-39.28
-93.47
-148.81
-197.83
-238.70
-276.58
-319.97
-365.88
-412.11
-455.02
-489.85
-510.34
-508.12
-481.20
-435.65
-381.95
-329.98
-288.30
-261.20
-248.83
-247.59
-250.48
-252.59
-252.19
-248.74
-240.90
-227.91
-209.24
-185.65
-158.87
-130.66
-103.70
-80.66
-62.47
-47.44
-32.92
-15.85
5.65
31.81
61.41
92.08
121.38
148.09
172.76
196.69
221.34
247.43
274.83
303.05
330.88
356.39
377.14
390.79
395.39
390.15
375.63
353.59
326.86
297.81
267.62
236.56
205.19
175.19
149.15
129.22
115.56
106.71
98.96
88.11
72.47
54.60
40.20
35.04
41.96
59.76
86.68
117.59
144.29
158.48
155.68
136.47
106.05
72.34
43.95
33.01
43.82
69.77
98.68
121.67
136.71
146.73
155.64
165.68
185.23
215.40
247.50
270.14
279.00
277.90
274.14
273.41
278.93
303.17
350.68
413.38
477.42
534.42
582.71
623.13
655.16
597.48
422.16
178.79
-50.75
-220.90
-329.83
-395.66
-434.28
-463.88
-489.83
-498.29
-479.65
-438.85
-391.11
-346.96
-312.50
-290.08
-279.83
-278.10
-269.79
-243.93
-200.86
-149.13
-97.62
-53.29
-21.64
-7.69
-13.67
-33.62
-62.17
-98.48
-144.60
-201.19
-267.26
-340.89
-419.56
-498.08
-565.75
-611.50
-627.98
-613.13
-569.60
-504.15
-426.05
-344.76
-267.28
-196.70
-134.21
-80.92
-38.25
-6.97
13.37
24.60
29.34
30.13
28.38
23.99
15.91
2.90
-15.30
-37.43
-60.73
-81.90
-98.20
-108.50
-113.63
-115.76
-117.50
-120.72
-125.96
-132.43
-138.61
-142.73
-143.30
-139.30
-130.09
-115.41
-95.45
-70.80
-42.47
-11.73
20.07
51.56
81.43
108.39
131.25
149.14
161.62
168.80
171.17
169.44
164.26
156.23
145.96
134.22
122.05
110.84
102.21
97.78
98.85
105.92
118.28
133.96
150.12
164.13
174.51
181.53
186.95
193.04
201.38
212.12
223.93
234.72
242.52
246.15
245.38
240.66
232.68
222.00
209.06
194.32
178.45
162.32
146.83
132.70
120.22
109.18
99.08
89.43
80.00
71.03
63.06
56.74
52.41
49.96
48.77
48.01
46.95
45.32
43.38
41.77
41.18
42.00
44.11
46.90
49.52
51.18
51.44
50.35
48.37
46.24
44.65
44.02
44.25
44.78
44.78
43.43
40.38
35.87
30.73
26.05
22.75
21.22
21.20
21.84
22.02
20.66
17.01
10.93
3.03
-5.40
-12.75
-17.62
-19.27
-17.90
-14.37
-9.75
-4.73
0.56
6.50
13.51
21.69
30.66
39.76
48.32
55.84
61.94
66.22
68.17
67.31
63.52
57.21
49.26
40.74
32.50
24.86
17.54
9.79
0.64
-10.83
-25.18
-42.42
-61.83
-81.99
-101.01
-116.97
-128.32
-134.31
-135.00
-131.12
-123.69
-113.78
-102.30
-89.94
-77.23
-64.55
-52.17
-40.31
-29.18
-19.07
-10.38
-3.61
0.67
1.92
-0.20
-5.76
-14.48
-25.77
-38.89
-53.12
-67.85
-82.70
-97.42
-111.80
-125.57
-138.34
-149.69
-159.30
-167.08
-173.21
-178.03
-181.82
-184.62
-186.19
-186.07
-183.97
-179.80
-173.75
-166.13
-157.21
-147.25
-136.56
-125.80
-115.96
-108.25
-103.69
-102.82
-105.49
-111.01
-118.45
-126.82
-135.24
-142.83
-148.61
-151.43
-150.10
-143.62
-131.62
-114.54
-93.77
-71.28
-49.09
-28.65
-10.42
6.12
22.11
38.74
56.68
75.79
95.30
113.95
130.22
142.41
148.73
147.59
138.12
120.72
97.32
71.07
45.54
23.64
6.90
-4.73
-12.43
-17.77
-22.13
-26.45
-31.32
-37.13
-43.99
-51.25
-57.30
-59.69
-55.70
-43.48
-22.96
3.82
33.20
60.91
83.40
98.69
106.66
108.62
106.54
102.67
98.46
94.33
90.18
86.25
83.26
81.90
82.22
82.90
82.01
77.77
70.05
61.18
54.98
54.37
58.85
64.44
65.64
60.12
49.90
40.74
39.29
49.41
69.48
92.74
111.13
119.31
119.42
116.21
112.55
107.78
99.27
85.08
65.81
45.72
29.87
25.63
32.53
40.77
38.11
19.00
-11.79
-42.95
-61.29
-58.81
-27.27
31.45
105.89
182.64
253.82
317.03
369.78
409.67
433.73
451.25
470.26
492.37
515.21
537.27
557.78
573.36
581.80
515.97
356.91
146.99
-48.78
-195.73
-294.25
-350.84
-385.54
-405.19
-409.27
-387.09
-336.77
-272.31
-214.25
-178.18
-169.67
-186.70
-225.43
-272.66
-304.54
-308.67
-291.55
-269.03
-251.88
-241.73
-235.54
-228.28
-217.17
-200.17
-178.72
-159.40
-149.66
-151.98
-163.29
-177.90
-188.58
-188.70
-172.71
-140.77
-93.51
-37.07
22.46
80.92
135.72
185.07
227.77
262.52
285.88
293.87
284.24
258.77
222.35
180.66
137.53
95.87
57.33
20.53
-17.06
-57.70
-101.55
-146.20
-186.75
-218.05
-233.94
-229.36
-204.70
-164.88
-117.25
-69.07
-25.69
17.92
58.83
87.24
104.76
114.69
118.01
115.89
110.59
105.28
103.06
104.77
110.70
120.72
131.92
140.73
144.76
143.33
137.18
127.74
115.40
100.98
85.74
69.40
51.40
31.87
11.61
-8.27
-26.84
-44.24
-60.51
-75.47
-89.98
-105.29
-122.62
-143.39
-169.37
-202.02
-241.52
-284.68
-324.68
-353.31
-363.56
-352.52
-322.96
-283.05
-243.39
-213.37
-197.69
-195.67
-203.17
-214.79
-225.81
-232.61
-233.33
-226.97
-213.27
-192.24
-164.40
-131.20
-94.81
-57.41
-19.52
19.03
58.71
98.80
136.79
168.31
187.82
190.91
175.86
149.23
121.61
103.71
97.92
98.71
99.29
95.99
89.41
80.15
71.07
61.10
46.34
21.81
-15.85
-67.36
-131.67
-200.96
-267.18
-321.46
-357.11
-370.90
-364.08
-341.03
-307.14
-266.90
-222.52
-174.89
-123.83
-70.47
-17.33
32.49
77.16
117.37
156.00
197.02
243.08
294.80
349.40
400.99
442.13
466.19
469.59
453.17
421.98
383.25
344.35
310.42
283.49
263.03
247.36
234.89
224.62
215.79
207.17
196.93
182.95
163.74
139.24
110.97
81.70
54.42
31.14
12.32
-3.18
-17.36
-32.18
-48.69
-66.74
-85.07
-101.93
-115.59
-124.87
-129.29
-129.00
-124.58
-116.76
-106.35
-94.07
-80.62
-66.78
-53.35
-41.19
-31.06
-23.53
-18.83
-16.84
-17.12
-18.96
-21.65
-24.56
-27.18
-29.13
-29.99
-29.24
-26.27
-20.62
-12.25
-1.72
9.77
20.62
29.18
34.08
34.44
29.85
20.40
6.59
-10.62
-29.79
-49.05
-66.31
-79.66
-87.82
-90.38
-87.67
-80.41
-69.18
-54.28
-35.96
-14.96
6.99
27.26
42.92
51.81
53.38
48.94
41.05
32.54
25.35
20.10
16.04
11.64
5.25
-4.38
-17.83
-34.98
-55.07
-76.89
-98.97
-119.67
-137.32
-150.28
-157.27
-157.38
-150.18
-135.53
-113.30
-83.34
-45.68
-1.15
48.03
98.13
144.69
183.68
212.74
231.54
241.13
242.64
236.21
220.75
194.70
157.28
109.30
53.21
-7.55
-69.59
-130.11
-186.87
-237.86
-280.82
-313.29
-333.01
-338.46
-329.31
-306.59
-272.51
-230.11
-182.88
-134.11
-85.97
-38.75
8.92
58.83
111.27
163.50
209.52
241.48
252.29
238.15
199.63
141.14
69.11
-9.46
-87.56
-157.87
-213.14
-247.37
-257.35
-243.98
-212.42
-170.64
-126.62
-85.83
-49.33
-15.12
20.03
58.93
102.66
149.19
193.08
227.01
244.41
243.49
226.48
198.53
166.77
139.13
122.21
119.74
132.14
156.72
190.07
225.44
253.34
265.60
259.30
236.89
203.52
164.36
123.40
86.51
58.28
40.83
34.42
37.48
44.07
44.09
27.31
-25.07
-107.26
-188.22
-236.30
-242.78
-219.85
-188.04
-164.02
-154.60
-156.35
-158.85
-155.03
-145.94
-137.67
-134.36
-137.03
-143.55
-149.96
-152.62
-147.67
-134.97
-118.98
-105.48
-96.61
-92.39
-91.32
-92.02
-92.68
-91.17
-87.44
-83.80
-89.41
-104.64
-126.42
-146.42
-162.83
-174.06
-178.09
-173.53
-159.74
-140.06
-115.08
-85.81
-53.45
-19.84
14.24
48.57
82.92
117.02
150.86
186.36
224.65
265.62
306.64
343.71
371.73
386.12
384.62
368.16
341.38
309.53
276.91
245.66
216.57
189.55
164.43
141.31
120.23
101.28
83.70
66.52
49.12
32.09
16.83
4.99
-2.37
-5.30
-4.78
-2.71
-1.21
-2.04
-6.07
-13.24
-22.76
-33.46
-44.20
-54.10
-62.67
-69.70
-75.06
-78.48
-79.64
-78.19
-74.02
-67.41
-59.05
-49.89
-40.86
-32.68
-25.70
-19.94
-15.24
-11.47
-8.65
-6.91
-6.35
-6.95
-8.46
-10.47
-12.61
-14.64
-16.51
-18.30
-20.08
-21.90
-23.72
-25.57
-27.57
-29.97
-33.07
-37.09
-42.00
-47.49
-52.97
-57.66
-60.81
-61.86
-60.61
-57.25
-52.27
-46.26
-39.75
-33.09
-26.42
-19.77
-13.15
-6.61
-0.26
5.73
11.18
15.92
19.88
23.06
25.57
27.68
29.69
31.87
34.35
37.06
39.71
41.87
42.99
42.50
39.96
35.19
28.36
20.04
11.10
2.56
-4.62
-9.76
-12.53
-13.03
-11.81
-9.75
-7.90
-7.24
-8.35
-11.23
-15.29
-19.61
-23.30
-25.82
-27.03
-27.17
-26.57
-25.49
-24.03
-22.20
-20.01
-17.53
-14.87
-12.13
-9.38
-6.66
-4.00
-1.53
0.62
2.27
3.32
3.76
3.75
3.53
3.38
3.53
4.05
4.85
5.76
6.56
7.11
7.39
7.47
7.42
7.28
7.01
6.54
5.81
4.80
3.55
2.14
0.65
-0.91
-2.54
-4.32
-6.32
-8.55
-10.95
-13.36
-15.57
-17.32
-18.39
-18.70
-18.29
-17.32
-16.03
-14.68
-13.49
-12.57
-11.97
-11.56
-11.13
-10.39
-9.09
-7.14
-4.59
-1.74
1.09
3.59
5.57
6.98
7.90
8.43
8.72
8.94
9.21
9.61
10.05
10.28
10.05
9.16
7.66
5.82
4.04
2.63
1.78
1.41
1.33
1.32
1.14
0.64
-0.26
-1.57
-3.23
-5.05
-6.84
-8.45
-9.84
-11.11
-12.46
-14.06
-16.02
-18.34
-20.92
-23.58
-26.10
-28.24
-29.84
-30.83
-31.26
-31.26
-30.94
-30.34
-29.35
-27.86
-25.73
-22.96
-19.62
-15.87
-11.88
-7.81
-3.81
-0.00
3.47
6.52
9.07
11.12
12.71
13.91
14.82
15.53
16.11
16.62
17.05
17.42
17.70
17.87
17.93
17.88
17.71
17.35
16.77
15.99
15.15
14.37
13.75
13.20
12.53
11.49
9.95
7.96
5.74
3.55
1.54
-0.29
-2.09
-4.05
-6.30
-8.91
-11.80
-14.85
-17.85
-20.55
-22.72
-24.18
-24.91
-25.01
-24.63
-23.89
-22.78
-21.20
-19.03
-16.22
-12.80
-8.89
-4.65
-0.27
4.05
8.07
11.57
14.41
16.51
17.93
18.80
19.31
19.65
19.93
20.21
20.43
20.52
20.46
20.27
20.05
19.86
19.72
19.53
19.10
18.31
17.07
15.45
13.58
11.59
9.61
7.66
5.80
4.04
2.42
0.95
-0.43
-1.83
-3.40
-5.24
-7.40
-9.84
-12.43
-14.98
-17.27
-19.18
-20.64
-21.73
-22.56
-23.23
-23.70
-23.87
-23.54
-22.54
-20.83
-18.45
-15.54
-12.26
-8.73
-5.02
-1.24
2.48
6.00
9.20
12.01
14.41
16.36
17.85
18.84
19.35
19.47
19.37
19.19
19.01
18.84
18.63
18.32
17.86
17.20
16.32
15.17
13.79
12.27
10.78
9.39
8.12
6.84
5.33
3.44
1.15
-1.41
-4.03
-6.44
-8.44
-9.88
-10.70
-10.97
-10.91
-10.84
-11.08
-11.91
-13.36
-15.28
-17.31
-19.06
-20.23
-20.66
-20.35
-19.43
-18.07
-16.44
-14.65
-12.77
-10.81
-8.77
-6.60
-4.31
-1.91
0.52
2.92
5.20
7.35
9.34
11.16
12.78
14.10
15.03
15.50
15.51
15.17
14.67
14.17
13.77
13.46
13.12
12.63
11.91
10.94
9.85
8.82
8.00
7.50
7.27
7.13
6.84
6.18
5.08
3.61
1.98
0.37
-1.12
-2.51
-3.86
-5.25
-6.67
-8.11
-9.52
-10.88
-12.23
-13.59
-14.87
-15.86
-16.32
-16.01
-14.84
-12.91
-10.51
-8.02
-5.77
-3.96
-2.57
-1.40
-0.14
1.40
3.30
5.37
7.36
8.99
10.10
10.70
10.90
10.83
10.60
10.27
9.86
9.42
9.00
8.67
8.45
8.30
8.13
7.82
7.27
6.44
5.36
4.13
2.84
1.57
0.32
-0.95
-2.28
-3.69
-5.13
-6.48
-7.67
-8.68
-9.61
-10.69
-12.15
-14.14
-16.66
-19.42
-21.98
-23.84
-24.67
-24.38
-23.20
-21.53
-19.78
-18.19
-16.79
-15.45
-13.94
-12.11
-9.89
-7.34
-4.62
-1.91
0.63
2.84
4.65
6.06
7.14
7.96
8.62
9.12
9.41
9.42
9.10
8.46
7.57
6.59
5.61
4.71
3.93
3.24
2.61
2.00
1.43
0.90
0.44
0.03
-0.35
-0.76
-1.26
-1.88
-2.59
-3.36
-4.10
-4.76
-5.35
-5.97
-6.74
-7.81
-9.27
-11.10
-13.18
-15.29
-17.17
-18.55
-19.27
-19.27
-18.63
-17.51
-16.04
-14.33
-12.41
-10.27
-7.91
-5.37
-2.69
0.02
2.70
5.25
7.59
9.65
11.38
12.71
13.65
14.21
14.48
14.56
14.60
14.72
14.98
15.35
15.65
15.68
15.26
14.31
12.96
11.41
9.88
8.51
7.28
6.11
4.91
3.64
2.34
1.06
-0.16
-1.33
-2.48
-3.67
-4.92
-6.29
-7.87
-9.74
-11.93
-14.34
-16.69
-18.61
-19.77
-20.00
-19.34
-17.99
-16.19
-14.11
-11.84
-9.37
-6.73
-3.96
-1.17
1.54
4.08
6.36
8.34
9.93
11.09
11.86
12.32
12.64
12.97
13.41
13.95
14.49
14.84
14.84
14.41
13.57
12.44
11.19
9.96
8.80
7.72
6.61
5.34
3.84
2.10
0.20
-1.71
-3.46
-4.96
-6.23
-7.40
-8.68
-10.29
-12.33
-14.80
-17.53
-20.24
-22.66
-24.55
-25.77
-26.29
-26.13
-25.42
-24.26
-22.72
-20.79
-18.37
-15.37
-11.72
-7.50
-2.96
1.55
5.68
9.17
11.94
14.04
15.62
16.83
17.76
18.49
19.05
19.45
19.71
19.79
19.64
19.25
18.60
17.66
16.45
14.99
13.34
11.61
9.94
8.43
7.09
5.87
4.62
3.24
1.69
-0.00
-1.75
-3.51
-5.34
-7.38
-9.81
-12.73
-16.08
-19.64
-23.07
-25.97
-28.06
-29.21
-29.47
-28.98
-27.91
-26.32
-24.19
-21.45
-18.06
-14.07
-9.65
-5.06
-0.55
3.68
7.56
11.06
14.15
16.82
19.00
20.63
21.67
22.17
22.23
21.98
21.55
21.04
20.51
19.96
19.34
18.53
17.44
16.01
14.24
12.23
10.10
8.00
6.01
4.22
2.61
1.16
-0.19
-1.52
-2.92
-4.49
-6.32
-8.48
-10.97
-13.79
-16.89
-20.21
-23.63
-26.92
-29.76
-31.78
-32.69
-32.41
-31.02
-28.74
-25.80
-22.34
-18.39
-13.94
-9.06
-3.94
1.16
6.01
10.44
14.40
17.90
20.91
23.36
25.16
26.25
26.61
26.30
25.47
24.35
23.24
22.39
21.91
21.71
21.50
20.93
19.78
18.08
16.10
14.18
12.54
11.19
9.94
8.51
6.74
4.67
2.48
0.39
-1.50
-3.26
-5.06
-7.14
-9.62
-12.49
-15.56
-18.58
-21.34
-23.67
-25.47
-26.65
-27.16
-26.88
-25.81
-23.93
-21.32
-18.06
-14.19
-9.82
-5.08
-0.19
4.57
8.96
12.81
16.03
18.60
20.50
21.75
22.44
22.76
22.97
23.29
23.77
24.27
24.49
24.16
23.20
21.76
20.12
18.51
17.03
15.57
14.00
12.23
10.29
8.30
6.39
4.55
2.69
0.69
-1.49
-3.83
-6.23
-8.62
-11.03
-13.58
-16.40
-19.54
-22.91
-26.27
-29.36
-31.94
-33.88
-35.15
-35.74
-35.65
-34.78
-32.98
-30.09
-26.03
-20.82
-14.71
-8.06
-1.36
4.93
10.46
15.06
18.78
21.79
24.25
26.26
27.80
28.74
29.03
28.73
28.05
27.27
26.61
26.15
25.78
25.30
24.54
23.45
22.11
20.62
19.04
17.38
15.57
13.56
11.38
9.14
6.95
4.84
2.74
0.51
-1.96
-4.67
-7.53
-10.39
-13.13
-15.72
-18.25
-20.82
-23.54
-26.38
-29.18
-31.68
-33.60
-34.73
-34.92
-34.14
-32.38
-29.73
-26.23
-21.98
-17.10
-11.74
-6.14
-0.54
4.79
9.62
13.78
17.20
19.86
21.83
23.20
24.03
24.43
24.48
24.33
24.11
23.93
23.79
23.58
23.15
22.36
21.19
19.71
18.09
16.50
15.03
13.66
12.29
10.77
9.01
6.94
4.62
2.17
-0.25
-2.51
-4.53
-6.34
-8.07
-9.88
-11.91
-14.24
-16.86
-19.66
-22.51
-25.26
-27.75
-29.80
-31.29
-32.09
-32.15
-31.48
-30.11
-28.05
-25.26
-21.70
-17.38
-12.44
-7.12
-1.75
3.32
7.80
11.55
14.51
16.79
18.52
19.83
20.78
21.42
21.74
21.78
21.58
21.24
20.86
20.49
20.16
19.79
19.31
18.59
17.61
16.34
14.86
13.25
11.62
10.02
8.44
6.85
5.20
3.53
1.86
0.18
-1.54
-3.37
-5.36
-7.53
-9.84
-12.23
-14.65
-17.12
-19.64
-22.19
-24.65
-26.83
-28.48
-29.37
-29.40
-28.50
-26.69
-24.07
-20.80
-17.06
-13.10
-9.11
-5.23
-1.52
2.01
5.30
8.25
10.71
12.54
13.71
14.34
14.67
14.98
15.48
16.22
17.12
17.98
18.60
18.80
18.53
17.78
16.60
15.08
13.33
11.51
9.81
8.37
7.25
6.40
5.59
4.55
2.99
0.80
-1.95
-4.99
-8.00
-10.70
-13.07
-15.24
-17.50
-20.06
-22.95
-25.98
-28.80
-31.08
-32.61
-33.36
-33.45
-32.97
-31.94
-30.30
-27.91
-24.68
-20.61
-15.79
-10.46
-4.96
0.40
5.34
9.75
13.62
17.02
20.04
22.67
24.83
26.44
27.47
27.96
28.06
27.86
27.41
26.68
25.64
24.31
22.83
21.42
20.24
19.34
18.57
17.72
16.56
14.96
12.95
10.67
8.29
5.96
3.78
1.73
-0.21
-2.10
-4.03
-6.02
-8.11
-10.28
-12.50
-14.70
-16.86
-18.95
-20.99
-22.94
-24.76
-26.36
-27.65
-28.52
-28.89
-28.64
-27.65
-25.77
-22.91
-19.13
-14.64
-9.77
-4.94
-0.48
3.41
6.69
9.42
11.70
13.63
15.31
16.80
18.12
19.25
20.08
20.52
20.49
20.06
19.35
18.53
17.71
16.91
16.09
15.16
14.11
12.95
11.78
10.64
9.53
8.36
7.02
5.41
3.53
1.50
-0.53
-2.39
-4.01
-5.42
-6.71
-7.98
-9.28
-10.64
-12.12
-13.85
-15.95
-18.47
-21.25
-23.95
-26.19
-27.67
-28.24
-27.94
-26.84
-24.98
-22.33
-18.88
-14.68
-9.92
-4.93
-0.06
4.39
8.25
11.44
13.97
15.86
17.18
17.99
18.37
18.36
18.02
17.39
16.52
15.46
14.30
13.13
12.00
10.93
9.87
8.76
7.51
6.06
4.43
2.73
1.10
-0.32
-1.45
-2.27
-2.78
-3.05
-3.17
-3.30
-3.57
-4.10
-4.94
-6.04
-7.34
-8.81
-10.49
-12.50
-14.91
-17.66
-20.50
-23.05
-24.93
-25.90
-25.91
-25.08
-23.59
-21.53
-18.92
-15.71
-11.87
-7.53
-2.93
1.62
5.84
9.56
12.84
15.78
18.51
21.04
23.26
25.03
26.31
27.19
27.89
28.60
29.33
29.86
29.86
29.10
27.58
25.58
23.52
21.77
20.44
19.44
18.56
17.64
16.66
15.73
14.94
14.30
13.66
12.81
11.57
9.89
7.85
5.62
3.37
1.17
-0.95
-3.03
-5.14
-7.35
-9.77
-12.54
-15.77
-19.43
-23.26
-26.83
-29.54
-30.85
-30.48
-28.43
-24.98
-20.60
-15.76
-10.86
-6.27
-2.22
1.13
3.76
5.81
7.49
9.00
10.46
11.86
13.09
14.05
14.67
14.98
15.05
14.96
14.77
14.50
14.16
13.68
13.00
12.07
10.90
9.55
8.11
6.64
5.21
3.87
2.62
1.47
0.38
-0.77
-2.15
-3.91
-6.11
-8.62
-11.20
-13.59
-15.59
-17.21
-18.62
-20.05
-21.66
-23.48
-25.31
-26.80
-27.55
-27.21
-25.68
-23.09
-19.74
-16.06
-12.38
-8.93
-5.79
-2.94
-0.35
1.99
4.06
5.81
7.25
8.38
9.26
9.92
10.41
10.73
10.87
10.79
10.52
10.10
9.60
9.11
8.61
8.02
7.24
6.21
5.00
3.79
2.77
2.03
1.40
0.58
-0.73
-2.67
-5.07
-7.56
-9.74
-11.36
-12.47
-13.32
-14.29
-15.66
-17.60
-20.00
-22.62
-25.09
-26.99
-28.00
-27.93
-26.75
-24.61
-21.74
-18.39
-14.80
-11.12
-7.46
-3.82
-0.13
3.72
7.70
11.59
14.99
17.43
18.55
18.22
16.64
14.16
11.26
8.40
5.97
4.23
3.29
3.05
3.24
3.49
3.53
3.28
2.93
2.75
2.96
3.55
4.28
4.79
4.84
4.35
3.43
2.24
0.92
-0.49
-1.99
-3.63
-5.48
-7.70
-10.47
-13.99
-18.23
-22.90
-27.34
-30.79
-32.54
-32.27
-30.07
-26.35
-21.63
-16.30
-10.58
-4.57
1.62
7.77
13.57
18.68
22.82
25.84
27.72
28.52
28.40
27.57
26.33
24.95
23.67
22.59
21.70
20.84
19.85
18.61
17.12
15.46
13.74
12.10
10.64
9.36
8.21
7.00
5.52
3.56
1.05
-1.92
-5.13
-8.33
-11.32
-14.05
-16.57
-19.02
-21.64
-24.65
-28.23
-32.40
-36.89
-41.13
-44.31
-45.66
-44.66
-41.27
-35.83
-28.95
-21.20
-13.05
-4.80
3.33
11.05
18.02
23.90
28.42
31.54
33.50
34.68
35.47
36.15
36.80
37.32
37.50
37.17
36.17
34.44
31.93
28.66
24.71
20.27
15.65
11.25
7.45
4.49
2.40
0.96
-0.18
-1.40
-2.98
-5.04
-7.51
-10.27
-13.12
-15.88
-18.44
-20.72
-22.78
-24.78
-27.01
-29.77
-33.20
-37.15
-41.11
-44.28
-45.84
-45.19
-42.16
-36.98
-30.24
-22.61
-14.71
-6.97
0.38
7.24
13.51
19.03
23.59
27.00
29.18
30.23
30.37
29.90
29.04
27.91
26.55
25.02
23.46
22.05
20.97
20.23
19.65
18.91
17.72
16.02
13.98
11.91
10.08
8.55
7.07
5.33
3.05
0.21
-3.03
-6.40
-9.67
-12.69
-15.40
-17.72
-19.57
-20.96
-22.07
-23.28
-25.11
-27.94
-31.77
-36.12
-40.13
-42.80
-43.31
-41.26
-36.73
-30.20
-22.36
-13.87
-5.34
2.77
10.14
16.53
21.79
25.83
28.69
30.47
31.36
31.50
31.04
30.08
28.71
27.06
25.34
23.77
22.54
21.74
21.29
20.96
20.45
19.43
17.74
15.42
12.70
9.97
7.62
5.88
4.74
3.97
3.22
2.18
0.71
-1.19
-3.34
-5.49
-7.42
-8.94
-10.05
-10.95
-12.10
-14.09
-17.45
-22.29
-28.20
-34.12
-38.69
-40.62
-39.19
-34.40
-26.96
-18.00
-8.64
0.34
8.57
16.03
22.82
28.94
34.22
38.44
41.34
42.77
42.62
40.79
37.15
31.67
24.63
16.74
9.10
2.95
-0.76
-1.73
-0.43
2.05
4.39
5.61
5.33
3.89
2.03
0.56
-0.03
0.29
1.18
2.12
2.64
2.40
1.16
-1.29
-5.14
-10.50
-17.29
-25.18
-33.66
-42.17
-50.12
-57.02
-62.38
-65.69
-66.54
-64.66
-60.11
-53.36
-45.15
-36.32
-27.60
-19.35
-11.61
-4.13
3.29
10.70
17.85
24.24
29.34
32.83
34.80
35.66
35.99
36.31
36.88
37.74
38.73
39.66
40.39
40.80
40.80
40.25
39.01
36.92
33.77
29.39
23.71
16.83
9.15
1.29
-5.97
-11.97
-16.32
-18.99
-20.17
-20.10
-19.00
-17.01
-14.31
-11.26
-8.37
-6.25
-5.34
-5.81
-7.53
-10.16
-13.31
-16.63
-19.85
-22.75
-25.07
-26.54
-26.94
-26.06
-23.79
-20.12
-15.12
-9.00
-2.16
4.90
11.61
17.55
22.58
26.83
30.59
34.14
37.56
40.71
43.24
44.77
44.95
43.56
40.51
35.92
30.15
23.84
17.81
12.92
9.80
8.70
9.42
11.46
14.15
16.85
19.01
20.22
20.21
18.85
16.16
12.31
7.63
2.54
-2.48
-6.96
-10.57
-13.19
-14.94
-16.17
-17.28
-18.53
-19.99
-21.51
-22.84
-23.81
-24.41
-24.66
-24.54
-23.94
-22.67
-20.62
-17.88
-14.72
-11.44
-8.26
-5.23
-2.25
0.76
3.75
6.53
8.82
10.42
11.24
11.36
11.00
10.40
9.82
9.40
9.20
9.11
8.95
8.55
7.83
6.86
5.80
4.80
3.94
3.17
2.37
1.50
0.59
-0.25
-0.89
-1.37
-1.84
-2.56
-3.76
-5.48
-7.55
-9.69
-11.57
-12.99
-13.89
-14.28
-14.22
-13.78
-13.16
-12.75
-13.07
-14.61
-17.58
-21.63
-25.92
-29.39
-31.14
-30.69
-28.16
-24.06
-19.00
-13.48
-7.86
-2.33
2.88
7.52
11.36
14.24
16.18
17.30
17.79
17.83
17.57
17.08
16.41
15.59
14.67
13.67
12.65
11.67
10.86
10.29
9.99
9.80
9.51
8.89
7.89
6.65
5.47
4.59
4.03
3.58
2.88
1.67
-0.04
-1.98
-3.74
-4.97
-5.56
-5.56
-5.18
-4.65
-4.28
-4.44
-5.55
-7.95
-11.67
-16.25
-20.83
-24.35
-25.98
-25.40
-22.89
-19.12
-14.81
-10.41
-6.02
-1.59
2.90
7.26
11.10
14.03
15.80
16.49
16.40
15.89
15.24
14.59
13.98
13.39
12.84
12.33
11.81
11.13
10.11
8.64
6.74
4.58
2.46
0.65
-0.71
-1.61
-2.22
-2.81
-3.69
-5.12
-7.27
-10.15
-13.54
-17.02
-20.01
-21.98
-22.62
-21.99
-20.56
-19.11
-18.43
-19.08
-21.17
-24.35
-27.91
-31.00
-32.92
-33.25
-31.93
-29.22
-25.57
-21.47
-17.36
-13.57
-10.26
-7.46
-5.13
-3.15
-1.49
-0.17
0.66
0.70
-0.40
-2.91
-6.90
-12.14
-18.07
-23.98
-29.21
-33.38
-36.46
-38.75
-40.62
-42.24
-43.33
-43.20
-40.90
-35.58
-26.76
-14.51
0.52
17.19
34.02
49.32
61.40
68.73
70.23
65.39
54.42
38.14
17.94
-4.44
-26.93
-47.43
-63.98
-75.17
-80.40
-80.08
-75.47
-68.41
-60.73
-53.81
-48.30
-43.95
-39.85
-34.78
-27.68
-17.97
-5.71
8.44
23.64
39.18
54.84
70.89
87.79
105.59
123.52
139.76
151.81
157.15
154.08
142.35
123.37
99.96
75.62
53.71
36.76
25.94
21.02
20.53
22.34
24.16
24.20
21.45
15.73
7.52
-2.27
-12.63
-22.56
-31.22
-38.10
-43.15
-46.85
-50.13
-53.96
-58.88
-64.71
-70.54
-74.98
-76.75
-75.20
-70.54
-64.01
-57.36
-52.29
-50.02
-51.04
-54.95
-60.67
-66.91
-72.28
-76.05
-77.97
-78.15
-76.99
-75.13
-73.04
-71.20
-70.14
-69.93
-70.65
-71.95
-73.15
-73.70
-73.69
-73.40
-73.14
-72.91
-69.05
-59.33
-44.03
-26.07
-9.39
2.61
8.32
9.91
9.13
8.06
8.56
12.66
22.60
40.91
66.11
96.47
128.61
157.44
177.87
186.11
181.41
166.38
145.86
124.78
107.00
94.01
85.13
78.82
73.74
69.76
67.79
68.85
73.08
79.87
87.74
94.88
99.30
100.14
98.35
96.28
96.39
99.87
106.66
115.49
124.57
130.75
131.84
128.09
122.19
117.40
115.91
118.53
124.71
132.64
137.08
132.90
117.95
93.85
63.92
31.08
-2.75
-36.81
-71.35
-110.75
-159.29
-218.10
-284.28
-353.15
-419.95
-479.26
-524.90
-530.27
-478.79
-378.44
-259.13
-150.80
-68.47
-12.97
22.59
46.39
64.05
74.43
75.03
66.67
55.07
48.26
50.58
62.71
82.10
104.04
120.36
124.26
113.74
92.61
67.39
44.06
26.80
17.39
15.15
15.08
12.15
3.25
-11.21
-28.72
-46.33
-61.47
-72.77
-79.38
-81.95
-81.71
-80.88
-78.10
-71.46
-60.47
-47.55
-36.63
-30.90
-31.45
-36.25
-41.07
-41.26
-34.45
-21.22
-4.20
13.57
29.85
43.54
54.44
62.73
68.89
73.15
75.74
77.14
78.19
79.83
82.61
86.42
90.54
93.99
95.61
94.45
89.96
82.22
71.79
59.59
46.71
34.31
23.48
14.96
9.03
5.46
3.68
2.84
2.10
0.68
-1.99
-6.41
-13.01
-22.12
-33.82
-47.68
-62.63
-77.19
-89.82
-99.36
-105.29
-107.61
-106.51
-102.08
-94.19
-82.78
-68.25
-51.58
-34.22
-17.56
-2.53
10.59
21.97
31.93
40.65
48.07
54.04
58.43
61.23
62.60
62.75
61.97
60.58
58.82
56.87
54.72
52.22
49.15
45.36
40.91
36.12
31.50
27.53
24.44
22.06
19.91
17.38
14.03
9.80
5.12
0.75
-2.66
-5.08
-7.29
-10.73
-16.94
-26.79
-40.00
-55.01
-69.35
-80.60
-87.25
-88.99
-86.55
-81.07
-73.60
-64.71
-54.44
-42.03
-26.50
-6.93
17.03
44.59
73.23
98.62
115.48
119.43
109.63
89.15
64.10
41.65
27.77
25.39
33.70
48.89
65.83
80.69
90.76
94.19
89.97
78.34
61.12
41.37
22.73
8.67
2.83
6.82
19.30
36.49
53.72
67.06
74.16
74.54
61.99
35.87
2.38
-28.60
-50.21
-61.74
-66.46
-68.16
-69.05
-69.35
-66.95
-60.32
-49.85
-37.64
-26.22
-17.46
-12.53
-12.19
-16.73
-24.48
-32.92
-39.39
-42.08
-40.52
-35.77
-29.77
-24.83
-22.78
-23.37
-25.17
-26.28
-25.16
-21.09
-14.19
-5.50
3.05
8.89
10.45
7.16
-0.11
-9.40
-18.18
-24.30
-26.70
-25.91
-24.27
-23.14
-24.01
-27.41
-32.75
-38.69
-43.67
-46.17
-42.41
-29.78
-8.04
18.62
42.80
56.32
53.43
33.57
2.42
-29.93
-55.45
-68.44
-67.81
-56.71
-40.52
-23.84
-8.77
4.98
18.93
33.11
46.89
58.58
66.55
69.96
69.69
67.59
65.38
63.64
61.52
58.10
52.41
44.29
34.36
24.19
15.91
10.97
8.82
6.99
3.00
-4.94
-16.73
-32.04
-47.71
-60.39
-68.03
-70.75
-70.27
-68.50
-67.84
-67.58
-67.88
-68.23
-68.00
-66.73
-64.80
-62.64
-59.84
-56.37
-52.32
-47.94
-42.78
-36.21
-25.07
-8.80
7.64
22.57
36.16
47.89
57.12
63.84
68.20
70.28
69.44
65.20
58.12
48.83
38.26
27.68
18.57
12.01
8.33
6.84
6.68
7.68
9.72
12.80
17.09
22.59
28.81
34.59
38.24
38.44
35.00
28.51
20.14
11.36
3.48
-2.75
-7.18
-10.08
-11.73
-11.96
-10.49
-6.92
-0.80
8.25
20.42
35.51
52.79
71.05
88.77
104.29
116.14
123.18
124.73
120.54
110.82
96.32
78.37
58.81
39.68
22.83
9.62
0.70
-3.85
-4.41
-1.59
3.91
11.33
19.96
29.24
38.78
48.32
57.56
66.02
73.00
77.78
79.92
79.51
77.20
74.03
71.06
69.04
68.36
69.09
71.16
74.36
78.42
82.88
87.20
90.95
93.95
96.35
98.40
100.24
101.57
101.76
100.00
95.58
88.20
78.02
65.72
52.30
38.79
25.91
13.73
1.52
-12.01
-28.11
-47.36
-69.25
-92.36
-115.05
-136.15
-155.50
-173.90
-192.60
-213.00
-236.54
-264.80
-299.16
-339.82
-384.47
-427.61
-461.23
-477.20
-470.14
-439.43
-389.23
-326.48
-258.35
-190.50
-127.14
-72.14
-30.12
-6.02
-3.49
-22.90
-60.43
-109.02
-160.58
-208.18
-247.28
-275.89
-294.00
-302.74
-303.62
-298.03
-286.73
-269.63
-245.98
-214.99
-176.48
-131.23
-80.81
-27.16
27.74
81.59
131.56
174.17
205.88
224.18
228.70
221.45
206.24
187.41
168.63
152.42
140.07
132.07
128.41
128.76
132.35
137.98
144.10
149.03
151.48
150.92
147.95
144.14
141.69
142.54
147.55
156.16
166.52
176.15
182.94
186.02
186.38
187.09
193.06
210.04
242.83
292.96
356.85
425.61
487.03
529.40
545.53
535.13
504.38
462.94
420.05
381.39
348.26
318.81
290.34
261.13
231.15
201.43
172.97
145.88
119.38
92.28
63.70
33.46
1.82
-31.17
-65.92
-102.66
-139.83
-172.86
-194.33
-196.35
-174.29
-129.89
-71.78
-12.75
35.00
64.29
74.67
71.00
60.01
47.03
34.57
23.05
12.45
3.54
-2.12
-3.29
-0.11
5.51
10.52
11.99
8.51
-0.48
-13.10
-25.58
-34.57
-39.05
-40.57
-42.23
-47.16
-57.13
-72.94
-92.58
-111.76
-126.11
-133.45
-134.27
-131.12
-127.35
-125.78
-130.84
-143.71
-161.48
-179.35
-192.89
-198.21
-191.87
-172.01
-139.90
-108.81
-89.91
-86.63
-97.04
-118.31
-147.25
-179.98
-212.97
-244.17
-289.19
-353.61
-425.97
-489.04
-534.05
-562.09
-579.15
-591.83
-604.91
-646.23
-724.30
-819.51
-903.84
-963.20
-998.85
-1019.23
-1034.04
-1051.45
-1110.00
-1222.15
-1360.78
-1483.78
-1564.25
-1595.10
-1581.57
-1535.39
-1259.15
-728.12
-105.34
420.45
780.72
1000.45
1127.69
1200.62
1242.52
1266.05
1244.87
1172.66
1076.37
992.85
941.54
923.56
932.28
960.14
1000.52
1022.47
1004.19
952.78
886.50
815.84
743.66
672.04
604.59
544.54
475.89
389.23
290.55
191.76
100.47
20.81
-42.21
-82.11
-93.22
-81.41
-52.71
-9.32
45.75
104.53
156.03
190.63
202.71
191.66
158.23
107.62
49.12
-8.45
-60.51
-107.05
-150.80
-194.65
-239.52
-283.00
-319.64
-342.39
-345.54
-326.99
-289.10
-237.36
-177.48
-113.29
-46.49
21.56
87.24
143.57
181.71
194.39
179.23
139.69
83.35
18.69
-47.43
-110.38
-166.75
-212.68
-243.56
-255.33
-246.71
-220.61
-183.85
-144.98
-111.49
-87.76
-74.51
-69.50
-69.09
-69.60
-68.08
-62.53
-51.71
-34.85
-11.50
18.47
54.88
97.42
145.61
198.85
255.77
313.66
368.02
412.92
442.26
451.59
439.64
408.60
363.27
309.17
250.91
191.50
132.91
77.16
27.10
-13.76
-42.46
-57.78
-61.00
-55.43
-45.22
-34.03
-24.12
-16.38
-10.93
-7.86
-7.59
-10.78
-17.88
-28.75
-42.56
-57.92
-73.32
-87.47
-99.56
-109.28
-116.75
-122.19
-125.80
-127.66
-127.72
-125.96
-122.50
-117.74
-112.20
-106.48
-101.07
-96.25
-92.03
-88.23
-84.50
-80.48
-75.85
-70.48
-64.39
-57.76
-50.80
-43.60
-36.12
-28.25
-19.92
-11.22
-2.37
6.30
14.43
21.63
27.41
31.22
32.51
30.92
26.42
19.40
10.56
0.64
-9.80
-20.45
-31.18
-41.89
-52.21
-61.44
-68.55
-72.36
-71.90
-66.63
-56.79
-43.32
-27.71
-11.55
3.83
17.65
29.71
40.15
49.23
57.20
64.22
70.45
76.10
81.37
86.45
91.44
96.35
101.05
105.16
108.03
108.82
106.73
101.29
92.64
81.54
69.04
56.11
43.23
30.38
17.31
4.01
-9.12
-21.26
-31.58
-39.61
-45.46
-49.66
-52.82
-55.32
-57.13
-57.92
-57.36
-55.32
-51.96
-47.67
-42.80
-37.67
-32.44
-27.39
-22.89
-19.48
-17.61
-17.47
-18.84
-21.13
-23.53
-25.24
-25.69
-24.65
-22.20
-18.63
-14.34
-9.73
-5.13
-0.81
3.07
6.39
9.03
10.99
12.38
13.49
14.70
16.39
18.74
21.69
24.97
28.22
31.06
33.27
34.74
35.46
35.57
35.29
34.96
34.93
35.47
36.76
38.81
41.49
44.59
47.87
51.04
53.81
55.86
56.95
56.89
55.58
52.96
49.05
43.98
38.00
31.61
25.39
19.91
15.55
12.36
10.04
8.01
5.57
2.07
-2.85
-9.16
-16.36
-23.64
-30.08
-34.89
-37.65
-38.36
-37.36
-35.19
-32.40
-29.45
-26.65
-24.23
-22.33
-21.10
-20.71
-21.31
-23.06
-25.94
-29.72
-33.87
-37.74
-40.69
-42.43
-43.10
-43.34
-44.02
-45.89
-49.16
-53.34
-57.43
-60.33
-61.41
-60.93
-59.91
-59.70
-61.25
-64.56
-68.37
-70.46
-68.20
-59.40
-42.99
-19.64
8.02
35.65
57.82
69.26
66.17
47.32
14.52
-27.76
-73.35
-115.68
-148.78
-168.11
-170.84
-155.81
-123.33
-75.14
-14.52
53.34
121.25
180.50
222.29
239.85
230.59
197.19
147.21
91.02
39.01
-0.91
-24.51
-31.24
-23.04
-3.13
24.91
57.50
91.08
122.07
147.00
162.82
167.20
158.90
137.78
104.75
61.64
11.00
-43.88
-99.16
-150.58
-193.89
-225.26
-241.77
-241.81
-225.37
-194.26
-152.07
-103.74
-54.85
-10.44
25.92
52.67
70.14
79.84
83.55
82.74
78.34
71.00
61.38
50.22
38.31
26.27
14.55
3.47
-6.56
-14.99
-21.18
-24.64
-25.16
-22.92
-18.38
-12.14
-4.88
2.79
10.33
17.34
23.59
29.11
34.20
39.15
44.04
48.69
52.74
55.80
57.53
57.85
56.95
55.26
53.13
50.54
47.19
42.64
36.45
28.39
18.53
7.25
-4.58
-16.17
-27.07
-36.98
-45.66
-52.97
-58.84
-63.31
-66.41
-67.56
-66.74
-64.80
-62.65
-60.72
-58.90
-56.78
-53.94
-50.15
-44.22
-36.44
-28.66
-22.47
-17.90
-13.82
-9.39
-5.05
-2.74
-2.90
-6.76
-15.47
-27.35
-37.28
-39.23
-29.32
-7.25
24.66
65.82
113.32
161.18
202.48
231.18
242.56
234.05
206.39
147.48
65.86
-13.44
-70.23
-101.80
-116.53
-123.03
-125.92
-126.58
-125.39
-121.05
-116.15
-116.80
-127.18
-146.11
-167.60
-182.32
-182.24
-163.89
-128.19
-83.51
-42.99
-17.14
-9.74
-17.28
-32.01
-46.04
-53.97
-52.36
-40.98
-27.56
-17.38
-14.70
-22.23
-40.33
-66.16
-93.52
-114.09
-121.42
-113.75
-93.04
-63.92
-30.80
3.93
39.88
77.23
115.39
152.19
184.68
211.92
235.33
258.61
286.18
321.52
365.95
418.06
473.87
527.04
570.26
596.13
599.29
578.05
534.87
475.22
405.31
329.91
251.42
170.68
88.26
5.80
-73.88
-147.99
-215.26
-276.73
-335.42
-395.03
-458.47
-526.69
-597.84
-666.53
-725.16
-765.78
-782.33
-772.70
-739.58
-689.73
-631.53
-572.09
-515.01
-460.88
-408.96
-358.95
-311.67
-268.66
-231.05
-198.49
-169.00
-138.90
-105.46
-68.45
-30.00
6.73
39.03
65.60
86.82
104.55
123.90
148.46
178.34
210.90
243.31
273.79
301.37
325.28
344.57
363.37
383.43
401.93
413.79
416.17
409.82
397.51
382.33
366.82
361.46
372.40
397.24
427.77
456.77
480.32
496.36
503.23
499.73
497.07
503.51
519.03
538.18
557.60
577.88
600.43
625.00
579.49
434.84
223.54
10.35
-161.73
-283.69
-364.29
-416.31
-450.56
-474.16
-480.02
-463.98
-431.50
-394.53
-362.69
-339.57
-324.04
-314.15
-307.22
-292.20
-262.79
-222.28
-180.78
-147.70
-127.85
-121.92
-127.66
-140.76
-151.03
-151.50
-142.02
-127.43
-113.42
-102.36
-94.43
-88.83
-84.46
-78.12
-68.57
-57.62
-48.76
-44.60
-45.64
-50.96
-59.02
-67.99
-75.22
-78.68
-77.54
-71.94
-62.39
-49.44
-34.07
-17.68
-1.84
11.96
22.69
29.97
34.13
36.02
36.70
37.05
37.51
38.13
38.63
38.77
38.48
37.97
37.69
38.11
39.50
41.74
44.28
46.14
46.18
43.42
37.58
29.33
20.18
11.93
5.89
2.33
0.33
-1.63
-4.81
-9.58
-15.29
-20.70
-24.72
-26.95
-27.78
-28.06
-28.64
-30.03
-32.30
-35.17
-38.10
-40.42
-41.45
-40.63
-37.73
-32.97
-26.92
-20.29
-13.69
-7.35
-1.23
4.83
10.76
16.17
20.34
22.52
22.22
19.41
14.65
8.87
3.28
-0.93
-2.85
-2.17
0.62
4.18
6.62
6.03
1.14
-8.28
-21.35
-36.44
-51.79
-65.87
-77.59
-86.15
-90.86
-91.16
-86.85
-78.46
-67.36
-55.56
-45.18
-37.81
-34.10
-33.58
-34.79
-35.46
-32.86
-24.59
-9.43
11.72
35.63
57.34
71.80
75.73
69.11
55.07
38.55
24.24
14.94
11.12
11.68
15.16
20.60
27.60
35.75
44.13
51.29
55.88
57.28
55.92
53.04
49.95
47.46
45.67
44.24
42.74
40.86
38.32
34.82
30.07
23.97
16.78
9.17
2.03
-3.92
-8.37
-11.60
-14.24
-16.99
-20.26
-23.97
-27.56
-30.24
-31.38
-30.91
-29.48
-28.30
-28.58
-31.00
-35.25
-40.18
-44.17
-45.80
-44.26
-39.52
-32.14
-22.96
-12.77
-2.26
8.03
17.71
26.42
33.89
39.94
44.54
47.79
49.95
51.37
52.37
53.18
53.79
53.92
53.09
50.91
47.29
42.58
37.60
33.30
30.44
29.21
29.13
29.18
28.35
25.97
21.97
16.77
10.99
5.09
-0.68
-6.16
-11.13
-15.31
-18.44
-20.56
-22.09
-23.64
-25.73
-28.47
-31.51
-34.22
-36.04
-36.64
-36.02
-34.32
-31.75
-28.45
-24.50
-19.91
-14.61
-8.47
-1.44
6.32
14.37
21.99
28.36
32.85
35.18
35.49
34.30
32.22
29.79
27.40
25.21
23.29
21.61
20.14
18.87
17.80
16.92
16.17
15.43
14.55
13.38
11.83
9.94
7.81
5.53
3.15
0.61
-2.19
-5.32
-8.75
-12.29
-15.68
-18.70
-21.28
-23.61
-25.97
-28.57
-31.33
-33.84
-35.43
-35.44
-33.45
-29.38
-23.57
-16.52
-8.85
-1.16
5.98
12.08
16.73
19.75
21.29
21.80
21.93
22.22
22.95
23.93
24.72
24.76
23.74
21.67
18.99
16.28
14.08
12.59
11.64
10.77
9.41
7.19
4.10
0.51
-3.06
-6.17
-8.72
-11.05
-13.74
-17.29
-21.81
-27.00
-32.27
-37.12
-41.39
-45.21
-48.80
-52.12
-54.72
-55.88
-54.91
-51.38
-45.27
-36.91
-26.83
-15.74
-4.54
5.66
13.66
18.52
19.95
18.49
15.37
12.05
9.71
8.90
9.48
10.99
12.97
15.20
17.65
20.24
22.67
24.35
24.57
22.90
19.34
14.41
8.87
3.49
-1.16
-4.78
-7.34
-8.97
-9.98
-10.78
-11.79
-13.33
-15.53
-18.32
-21.54
-25.07
-28.96
-33.30
-38.14
-43.28
-48.21
-52.18
-54.35
-53.98
-50.54
-43.91
-34.37
-22.68
-9.91
2.68
13.93
22.96
29.36
33.18
34.89
35.20
34.94
34.85
35.41
36.81
38.92
41.32
43.49
44.89
45.10
43.89
41.31
37.63
33.34
28.96
24.90
21.38
18.36
15.56
12.58
9.00
4.47
-1.15
-7.73
-14.80
-21.62
-27.39
-31.49
-33.72
-34.30
-33.81
-32.93
-32.19
-31.79
-31.55
-30.92
-29.18
-25.61
-19.78
-11.77
-2.17
7.96
17.44
25.22
30.68
33.70
34.61
34.00
32.54
30.77
29.01
27.38
25.92
24.70
23.92
23.85
24.63
26.15
28.01
29.65
30.49
30.15
28.54
25.76
22.07
17.78
13.25
8.85
4.90
1.66
-0.77
-2.40
-3.37
-3.87
-4.03
-3.97
-3.77
-3.56
-3.51
-3.88
-4.97
-7.05
-10.28
-14.59
-19.70
-25.17
-30.48
-35.10
-38.63
-40.84
-41.73
-41.49
-40.32
-38.20
-34.70
-29.05
-20.53
-9.08
4.33
17.71
28.69
35.40
37.19
34.84
30.13
25.01
20.83
17.97
16.03
14.31
12.35
10.11
7.99
6.47
5.86
6.18
7.16
8.35
9.34
9.86
9.80
9.21
8.17
6.79
5.10
3.12
0.86
-1.74
-4.70
-8.09
-11.91
-16.12
-20.61
-25.18
-29.65
-33.87
-37.78
-41.30
-44.24
-46.21
-46.72
-45.28
-41.70
-36.17
-29.22
-21.53
-13.65
-5.86
1.80
9.30
16.46
22.85
28.02
31.69
34.00
35.46
36.71
38.16
39.75
41.00
41.28
40.18
37.74
34.44
31.01
28.11
26.16
25.16
24.78
24.61
24.27
23.61
22.68
21.56
20.38
19.16
17.79
16.11
14.08
11.85
9.71
7.91
6.46
5.21
3.97
2.49
0.58
-1.60
-3.62
-5.03
-5.68
-5.87
-5.94
-5.95
-5.85
-5.30
-3.53
0.57
7.88
18.48
31.51
45.62
59.44
71.15
78.85
81.54
80.00
76.64
74.68
76.39
82.00
88.97
91.29
81.69
54.93
10.54
-47.10
-110.74
-173.55
-230.74
-273.79
-294.41
-289.39
-263.78
-227.44
-189.24
-154.13
-124.36
-99.92
-79.28
-61.02
-44.00
-27.30
-10.22
6.87
23.99
39.65
52.53
62.30
69.11
73.71
77.29
81.51
85.40
88.74
90.51
90.59
89.60
87.97
85.15
79.45
68.99
52.75
32.89
11.67
-6.79
-18.78
-23.18
-22.49
-21.98
-27.20
-40.09
-58.34
-76.38
-85.74
-80.17
-58.83
-26.54
8.51
38.69
59.82
72.09
76.71
76.02
71.95
65.69
58.40
51.75
48.44
51.28
61.44
77.01
93.52
105.12
106.92
96.66
74.81
44.59
10.50
-23.40
-54.34
-80.13
-98.60
-107.45
-105.49
-94.80
-79.99
-66.92
-60.66
-63.51
-73.69
-86.34
-96.24
-101.18
-103.77
-108.28
-117.36
-130.22
-143.16
-151.28
-151.23
-143.20
-124.23
-98.02
-72.21
-52.64
-38.44
-23.99
-4.17
20.10
46.52
70.73
88.14
97.29
100.38
101.53
102.65
103.03
102.74
102.89
104.07
104.80
102.90
97.10
87.76
76.23
64.15
52.53
41.30
29.32
15.42
-0.12
-15.35
-27.79
-36.28
-41.21
-44.04
-46.33
-49.76
-54.12
-58.28
-60.72
-60.33
-57.10
-51.79
-45.40
-38.63
-31.83
-24.89
-17.64
-9.98
-2.03
5.68
12.52
18.05
22.23
25.28
27.71
30.05
31.82
32.92
33.26
32.86
31.82
30.32
28.58
26.88
25.36
24.01
22.85
21.77
20.65
19.44
18.15
16.86
15.64
14.47
13.18
11.66
9.79
7.60
5.14
2.49
-0.29
-3.10
-5.95
-8.93
-12.14
-15.69
-19.58
-23.80
-28.28
-32.87
-37.33
-41.46
-45.32
-49.13
-53.18
-57.58
-62.31
-66.93
-70.49
-71.53
-68.80
-62.04
-52.57
-43.19
-37.11
-37.01
-43.95
-57.97
-76.77
-96.33
-112.46
-122.09
-124.13
-117.23
-99.90
-71.48
-32.67
13.60
62.61
109.88
152.91
191.26
225.31
254.09
274.33
281.64
272.78
247.67
209.89
165.22
119.48
76.72
38.47
4.66
-25.04
-50.08
-68.95
-79.78
-81.21
-72.90
-55.74
-32.07
-5.52
19.49
38.75
49.25
49.93
41.67
26.66
7.60
-12.86
-32.27
-48.23
-58.47
-61.33
-56.40
-44.85
-29.29
-13.03
1.06
11.44
18.21
22.71
26.66
31.33
37.07
43.31
49.05
53.46
56.26
57.78
58.62
59.32
60.04
60.63
60.82
60.52
59.81
58.76
57.22
54.73
50.80
45.32
38.81
32.23
26.42
21.49
16.56
10.18
1.06
-11.06
-25.13
-39.12
-50.81
-58.62
-62.09
-61.91
-59.45
-56.26
-53.67
-52.43
-52.79
-54.46
-56.82
-59.01
-60.23
-59.93
-57.94
-54.52
-50.20
-45.59
-41.11
-36.92
-32.91
-28.82
-24.43
-19.53
-13.98
-7.67
-0.60
6.88
13.98
19.52
22.23
21.28
16.64
9.21
0.48
-7.96
-14.93
-19.88
-22.83
-24.15
-24.26
-23.52
-22.22
-20.57
-18.68
-16.64
-14.43
-12.00
-9.35
-6.59
-3.99
-1.94
-0.75
-0.60
-1.49
-3.27
-5.67
-8.40
-11.13
-13.66
-15.95
-18.13
-20.48
-23.33
-26.88
-31.01
-35.21
-38.70
-40.77
-41.12
