1604624541.00
64.000000
-0.00
-0.00
-0.00
-0.00
-0.00
-0.00
-0.00
-0.00
-0.00
-0.00
0.00
0.01
0.01
-0.00
-0.03
-0.05
-0.05
0.00
0.13
0.36
0.66
1.01
1.37
1.72
2.06
2.40
2.79
3.24
3.80
4.42
5.06
5.66
6.20
6.68
7.15
7.68
8.31
9.14
10.09
11.04
11.88
12.56
13.14
13.76
14.65
15.96
17.91
20.32
22.90
25.38
27.58
29.57
31.68
34.32
37.81
42.54
48.15
54.10
59.83
64.97
69.58
74.14
79.34
85.71
93.76
103.00
112.62
121.73
129.77
136.75
143.30
150.75
157.77
166.64
177.95
191.79
206.97
220.57
228.25
225.36
208.53
176.87
132.76
80.05
23.07
-34.94
-92.44
-149.16
-205.23
-260.37
-313.74
-363.87
-409.83
-450.91
-486.50
-515.74
-537.23
-549.22
-549.95
-538.35
-514.17
-478.62
-433.80
-382.35
-326.88
-269.64
-212.35
-156.29
-102.51
-51.90
-5.45
35.94
71.66
101.45
125.52
144.42
158.87
169.55
177.01
181.57
183.46
182.87
180.15
175.72
170.09
163.73
156.94
149.88
142.54
134.91
127.02
119.03
111.21
103.81
97.00
90.72
84.74
78.74
72.46
65.90
59.37
53.35
48.37
44.64
41.95
39.69
37.05
33.41
28.69
23.45
18.73
15.63
14.75
15.78
17.62
18.72
17.73
14.21
8.80
2.98
-1.42
-3.21
-2.49
-0.72
-0.46
-4.65
-15.34
-32.50
-53.34
-72.73
-84.55
-83.90
-69.13
-42.71
-10.90
17.97
35.91
37.82
23.22
-3.36
-33.75
-58.84
-71.67
-69.67
-54.92
-32.80
-9.25
11.65
28.49
42.14
54.33
66.35
78.53
90.00
98.60
101.46
95.94
80.79
57.47
30.24
5.14
-12.77
-21.34
-22.15
-19.19
-16.22
-14.82
-13.77
-10.62
-4.00
4.88
12.73
16.29
14.51
9.29
4.29
2.65
4.74
7.62
7.11
0.13
-13.16
-29.31
-43.16
-50.40
-49.25
-41.07
-29.39
-18.17
-10.48
-7.72
-9.68
-14.71
-20.64
-25.42
-27.91
-28.12
-26.77
-24.92
-23.57
-23.12
-23.69
-25.43
-28.50
-32.76
-37.23
-39.86
-37.84
-28.81
-12.35
9.38
32.22
51.75
65.33
73.35
78.69
85.14
94.80
106.70
117.17
121.70
117.35
104.19
85.88
66.11
48.52
35.13
26.15
20.49
17.06
15.13
13.77
11.73
6.87
-2.87
-18.37
-38.09
-58.02
-72.72
-77.44
-69.94
-51.38
-26.15
-0.20
20.44
31.23
30.05
17.39
-4.12
-30.60
-57.73
-81.49
-98.68
-107.27
-106.74
-98.01
-83.09
-64.60
-44.93
-25.71
-7.98
7.62
20.12
28.05
30.01
25.54
15.47
2.08
-11.61
-22.70
-28.69
-27.66
-18.44
-1.99
19.77
42.88
62.31
73.75
75.37
68.43
56.62
44.13
33.91
26.87
22.20
18.53
14.80
10.71
6.54
2.78
-0.26
-2.76
-5.81
-10.95
-18.91
-30.03
-43.66
-58.32
-71.82
-82.04
-85.08
-78.51
-61.73
-35.96
-3.68
31.55
64.42
88.91
100.38
96.18
77.32
49.19
19.56
-4.81
-20.10
-26.57
-27.54
-26.60
-25.50
-23.85
-20.60
-15.92
-11.80
-10.90
-14.50
-21.35
-28.13
-31.51
-29.96
-24.65
-19.17
-18.08
-24.13
-36.63
-51.03
-60.96
-61.77
-53.52
-41.42
-33.56
-36.10
-49.08
-65.52
-74.64
-67.74
-43.13
-7.18
28.88
54.37
63.84
58.60
44.74
29.35
17.47
11.03
9.67
12.44
18.47
26.61
34.80
40.66
42.58
40.02
32.86
21.53
7.06
-8.67
-22.86
-32.74
-36.74
-35.05
-29.72
-23.93
-20.20
-19.25
-19.69
-18.81
-13.56
-2.61
13.28
31.67
49.28
63.48
73.52
80.65
87.51
97.08
111.18
129.71
150.49
169.25
180.96
181.70
170.04
147.63
118.80
88.52
59.30
33.19
10.24
-11.19
-33.23
-57.36
-83.73
-110.15
-132.97
-147.85
-151.28
-143.13
-127.24
-110.13
-98.01
-94.83
-97.96
-101.61
-99.89
-89.78
-73.04
-55.16
-42.48
-38.20
-41.43
-46.70
-46.62
-34.77
-8.21
30.98
76.81
121.68
158.71
183.70
196.50
200.20
200.19
202.54
211.77
230.47
258.95
295.28
335.25
372.91
401.21
413.66
406.27
378.17
332.67
276.18
216.07
158.43
106.78
61.81
21.99
-15.45
-54.74
-99.69
-152.64
-213.89
-281.43
-351.82
-421.62
-488.50
-544.72
-585.26
-607.74
-612.60
-602.11
-577.65
-537.70
-477.98
-394.09
-285.19
-157.41
-22.98
102.63
204.21
271.01
299.15
292.02
258.74
211.21
160.49
114.88
78.99
53.41
36.37
25.67
19.87
18.57
21.12
26.05
29.05
27.86
21.15
8.97
-7.45
-26.23
-43.69
-59.06
-73.25
-88.08
-105.02
-125.23
-149.02
-176.19
-206.50
-239.74
-275.31
-310.61
-340.71
-358.87
-359.67
-341.20
-306.35
-261.83
-215.70
-174.54
-141.11
-115.52
-94.99
-77.08
-60.71
-45.96
-33.14
-22.18
-12.87
-5.16
0.01
1.02
-4.06
-16.38
-35.36
-58.56
-82.36
-103.08
-117.70
-124.57
-123.06
-113.11
-94.42
-66.16
-27.39
22.11
80.87
145.72
211.90
274.01
327.30
368.66
397.19
414.01
421.90
424.82
427.38
432.92
442.01
451.75
456.56
450.56
430.54
398.01
356.59
313.57
275.98
247.63
228.22
214.54
202.70
190.01
175.43
158.82
140.30
119.30
94.96
67.08
36.68
5.83
-22.84
-47.30
-66.71
-81.35
-92.57
-101.97
-110.69
-119.00
-126.29
-131.60
-134.17
-133.90
-131.25
-127.22
-122.89
-119.01
-115.76
-112.80
-109.54
-105.50
-100.57
-94.89
-88.92
-83.15
-77.90
-73.29
-69.14
-65.19
-61.24
-57.20
-53.09
-49.04
-45.21
-41.69
-38.51
-35.64
-33.01
-30.56
-28.26
-26.11
-24.10
-22.23
-20.49
-18.89
-17.41
-16.06
-14.83
-13.62
-12.48
-11.43
-10.49
-9.63
-8.85
-8.15
-7.52
-6.94
-6.42
-5.96
-5.55
-5.18
-4.85
-4.53
-4.25
-3.98
-3.73
-3.50
-3.29
-3.09
-2.90
-2.73
-2.55
-2.36
-2.16
-1.93
-1.69
-1.49
-1.33
-1.27
-1.26
-1.30
-1.31
-1.27
-1.13
-0.93
-0.70
-0.53
-0.43
-0.43
-0.45
-0.44
-0.33
-0.09
0.26
0.61
0.84
0.90
0.76
0.55
0.44
0.63
1.21
2.10
3.08
3.82
4.08
3.84
3.34
3.04
3.34
4.45
6.16
7.92
9.07
9.12
8.10
6.56
5.38
5.39
6.95
9.71
12.70
14.78
15.03
13.40
10.66
8.10
6.71
6.96
8.29
9.33
8.49
4.25
-4.46
-18.13
-36.41
-57.39
-77.43
-91.73
-96.05
-88.13
-70.43
-48.56
-29.23
-17.37
-14.26
-17.48
-23.03
-27.66
-30.37
-32.13
-34.21
-36.84
-38.78
-38.06
-33.31
-24.55
-12.86
0.76
15.76
32.17
49.13
64.20
72.87
71.48
58.70
36.61
10.02
-15.72
-36.68
-50.88
-57.39
-55.01
-42.10
-18.01
15.03
51.34
83.37
104.64
112.68
109.67
101.10
91.83
84.75
79.97
75.86
70.85
64.33
56.86
49.34
42.27
35.48
28.45
20.49
11.07
1.03
-8.74
-17.30
-24.03
-28.75
-31.82
-33.78
-35.15
-36.19
-36.78
-36.70
-35.76
-33.96
-31.65
-29.32
-27.46
-26.28
-25.63
-25.02
-24.03
-22.47
-20.50
-18.63
-17.42
-17.19
-17.82
-18.72
-19.12
-18.52
-16.96
-15.00
-13.51
-13.24
-14.38
-16.48
-18.55
-19.56
-18.99
-17.15
-15.03
-13.86
-14.50
-16.86
-20.09
-23.10
-24.84
-25.11
-24.22
-22.35
-19.17
-14.28
-8.34
-3.68
-3.56
-10.01
-21.65
-33.30
-37.69
-29.19
-6.86
24.88
58.81
88.33
110.88
127.11
137.88
141.56
134.06
111.89
75.73
32.03
-9.06
-38.33
-51.87
-51.66
-43.80
-35.03
-29.47
-28.31
-30.72
-35.37
-40.81
-44.96
-44.52
-35.64
-16.03
13.40
47.82
79.90
102.75
112.81
110.60
99.89
85.40
70.26
56.92
46.36
39.39
36.81
38.32
41.17
40.24
29.85
6.77
-27.83
-67.98
-105.11
-131.68
-144.21
-144.50
-137.18
-127.36
-118.30
-110.43
-102.36
-92.40
-79.95
-65.85
-51.35
-38.71
-29.23
-23.34
-20.55
-20.10
-21.29
-23.66
-27.20
-32.31
-39.36
-48.08
-57.79
-67.69
-77.33
-86.36
-93.85
-97.45
-93.05
-77.33
-48.91
-10.31
32.22
70.70
98.68
113.58
117.22
113.88
107.81
101.48
95.21
88.37
80.81
73.84
68.69
66.42
66.73
68.05
68.52
66.55
61.83
55.31
48.77
43.90
41.89
41.98
42.43
41.24
36.82
28.83
18.38
7.65
-0.98
-5.69
-6.10
-3.08
1.74
6.82
11.31
15.40
19.96
25.36
32.54
41.56
52.17
63.78
75.08
83.63
85.93
78.53
59.83
31.58
-1.22
-31.82
-54.43
-66.47
-69.10
-65.94
-60.94
-56.23
-52.01
-47.52
-42.26
-36.65
-31.88
-28.93
-27.86
-27.74
-27.16
-24.88
-20.66
-15.15
-9.56
-5.08
-2.30
-1.06
-0.54
0.32
2.31
5.59
9.81
14.23
18.09
20.91
22.57
23.22
23.15
22.45
21.06
18.82
15.50
10.98
5.30
-1.36
-8.71
-16.32
-23.41
-29.79
-35.01
-38.61
-40.68
-40.79
-39.10
-36.15
-32.74
-29.73
-27.84
-27.40
-28.50
-30.04
-31.74
-32.88
-32.84
-31.70
-30.63
-31.66
-36.49
-45.12
-54.51
-59.23
-53.40
-33.59
-0.77
39.29
78.79
109.65
125.95
125.32
108.59
79.17
42.23
4.16
-28.23
-49.26
-56.39
-51.35
-39.71
-28.63
-23.65
-26.55
-35.35
-45.90
-54.46
-59.72
-63.14
-67.67
-75.92
-87.99
-100.57
-108.10
-104.99
-88.44
-60.20
-26.34
5.25
27.55
37.77
37.75
32.52
27.43
25.75
27.92
31.92
34.71
33.12
24.46
6.61
-21.00
-56.21
-93.43
-124.20
-139.93
-134.90
-108.91
-67.26
-18.72
27.94
66.63
94.31
111.52
120.11
122.06
118.89
112.86
105.31
98.00
92.25
87.91
83.83
78.11
69.67
58.65
46.69
36.46
30.93
32.40
41.40
55.97
70.69
79.58
76.78
59.81
30.91
-3.61
-35.94
-59.98
-73.23
-76.95
-74.05
-67.04
-56.68
-42.30
-23.51
-1.62
20.15
37.82
48.18
50.23
45.12
35.06
23.78
13.78
6.13
0.68
-3.25
-6.22
-8.24
-9.02
-8.34
-6.51
-4.39
-2.74
-2.10
-2.18
-2.31
-1.73
-0.10
2.27
4.76
6.54
7.34
7.57
8.17
10.09
13.75
18.68
23.70
27.62
29.51
29.45
28.29
27.29
27.64
30.30
35.83
43.97
53.19
60.17
60.41
49.83
26.76
-6.53
-44.20
-78.97
-105.06
-120.38
-126.76
-128.17
-128.17
-128.31
-127.98
-125.81
-121.51
-115.68
-109.75
-104.79
-100.48
-95.16
-86.87
-74.24
-57.77
-38.92
-20.90
-6.15
4.48
11.55
16.21
18.83
18.87
15.82
10.87
7.33
9.94
22.48
45.43
75.28
105.70
130.64
146.67
153.45
152.05
143.26
126.65
100.98
68.29
33.13
1.90
-19.95
-30.36
-31.55
-28.66
-26.75
-28.19
-30.87
-29.92
-20.61
-1.68
23.02
45.62
57.94
55.40
39.40
16.88
-3.80
-16.74
-20.96
-19.77
-17.84
-17.96
-19.80
-21.01
-19.33
-14.70
-9.13
-5.34
-4.94
-7.79
-11.97
-14.88
-14.85
-11.73
-7.01
-2.88
-1.15
-2.33
-5.43
-8.51
-9.73
-8.33
-4.94
-1.22
1.00
0.74
-1.72
-4.93
-7.20
-7.27
-5.11
-1.72
1.31
2.44
0.45
-5.41
-15.02
-26.93
-38.06
-44.34
-42.13
-30.10
-10.42
11.74
30.09
39.90
40.14
33.31
23.59
14.60
7.88
3.03
-1.13
-5.16
-8.57
-10.31
-9.79
-7.48
-4.69
-2.91
-3.18
-5.40
-8.53
-11.17
-12.16
-11.08
-8.41
-5.21
-2.64
-1.42
-1.58
-2.58
-3.68
-4.32
-4.44
-4.48
-5.11
-6.90
-9.96
-13.81
-17.71
-20.95
-23.10
-24.28
-24.99
-25.72
-26.76
-27.79
-27.95
-26.25
-21.94
-14.84
-5.51
5.02
15.67
25.69
34.98
44.00
53.17
62.46
71.22
78.20
82.10
82.18
78.67
72.87
66.90
62.66
61.64
64.82
72.56
84.35
98.14
110.18
114.73
108.19
89.46
61.35
30.12
2.96
-14.92
-22.36
-21.95
-18.02
-14.11
-12.03
-11.65
-12.27
-13.84
-17.10
-23.16
-32.39
-43.96
-55.82
-65.23
-71.07
-73.11
-72.93
-71.15
-68.70
-66.00
-62.97
-58.97
-53.52
-46.77
-39.41
-32.45
-26.71
-22.67
-19.99
-17.86
-14.88
-9.95
-2.61
6.83
17.51
28.44
38.65
47.48
54.26
58.72
60.38
58.51
52.41
41.62
26.45
7.87
-10.50
-27.10
-40.78
-51.23
-59.02
-65.32
-71.28
-77.44
-83.50
-88.43
-91.49
-92.06
-90.33
-87.30
-84.36
-82.91
-84.08
-88.69
-96.61
-106.38
-114.21
-114.84
-103.36
-77.83
-40.97
0.27
37.15
62.80
74.75
75.52
70.43
64.60
60.35
57.04
52.70
46.34
38.86
32.89
31.21
35.30
44.83
58.49
74.73
92.82
112.26
131.65
147.96
156.73
153.52
137.75
112.44
83.21
56.04
34.90
20.48
11.14
4.28
-2.21
-9.40
-17.90
-28.49
-42.34
-60.68
-83.68
-108.30
-130.23
-143.42
-142.15
-124.27
-92.69
-54.72
-19.42
6.07
19.19
22.04
19.66
16.94
16.17
16.92
17.37
16.17
13.50
10.88
9.90
11.24
14.29
17.54
19.21
18.61
16.13
12.97
10.60
9.89
10.93
13.01
14.96
15.78
15.13
13.34
11.23
9.70
9.21
9.72
10.73
11.56
11.72
11.06
9.85
8.53
7.56
7.15
7.24
7.60
7.90
7.92
7.62
7.08
6.48
5.97
5.62
5.41
5.28
5.12
4.85
4.46
3.91
3.21
2.38
1.40
0.30
-0.92
-2.25
-3.71
-5.35
-7.25
-9.49
-12.10
-15.08
-18.40
-22.03
-25.95
-30.17
-34.75
-39.80
-45.39
-51.55
-58.24
-65.42
-73.01
-80.96
-89.32
-98.23
-107.86
-118.29
-129.39
-140.77
-151.75
-161.50
-169.13
-173.86
-175.13
-172.47
-165.74
-154.44
-138.00
-115.97
-88.33
-55.79
-19.89
17.09
52.60
84.39
111.13
132.54
149.30
162.55
173.29
181.87
187.96
190.92
190.28
186.36
180.31
173.76
168.50
166.01
167.21
172.32
180.60
189.82
196.21
194.87
181.42
153.97
114.50
68.76
24.19
-12.92
-39.62
-56.64
-66.95
-73.39
-77.20
-77.95
-74.86
-68.19
-59.75
-52.13
-47.24
-45.26
-44.60
-42.83
-38.11
-30.19
-20.42
-11.25
-5.11
-3.47
-6.38
-12.57
-19.96
-26.48
-30.82
-32.68
-32.72
-31.93
-31.01
-30.11
-28.92
-27.12
-24.81
-22.54
-20.96
-20.35
-20.30
-19.87
-18.17
-14.95
-10.99
-7.97
-7.78
-11.72
-19.87
-30.82
-42.07
-50.68
-54.28
-51.79
-43.75
-32.10
-19.51
-8.54
-1.11
1.90
0.83
-2.45
-4.65
-1.76
9.62
30.64
59.17
90.17
117.38
135.78
143.32
141.26
132.89
121.49
108.93
95.39
80.26
63.26
44.99
26.76
9.91
-4.84
-17.48
-28.38
-37.95
-46.39
-53.77
-60.32
-66.64
-73.64
-82.09
-92.13
-102.90
-112.71
-119.58
-121.97
-119.38
-112.37
-102.25
-90.52
-78.47
-67.13
-57.47
-50.41
-46.39
-44.89
-44.02
-41.05
-33.57
-20.77
-4.10
13.29
27.96
37.88
43.25
46.17
49.37
54.84
62.95
72.60
81.83
88.54
91.02
88.24
80.12
67.86
53.83
41.02
31.95
27.42
26.09
24.89
20.50
10.82
-4.00
-21.78
-39.30
-53.65
-63.20
-67.97
-69.25
-68.84
-68.31
-68.38
-68.89
-68.85
-66.88
-61.74
-52.82
-40.31
-25.46
-10.49
1.75
8.55
8.81
4.14
-1.29
-2.23
5.41
22.70
47.32
75.01
101.43
124.17
143.29
160.22
176.01
190.19
200.78
205.55
204.33
197.75
186.79
171.80
151.97
125.66
91.24
48.34
-1.48
-54.12
-104.07
-145.79
-175.26
-191.09
-194.66
-189.22
-178.59
-165.89
-152.99
-140.92
-130.21
-121.24
-114.31
-109.43
-106.13
-103.57
-100.77
-96.97
-91.96
-86.24
-81.14
-78.75
-81.36
-90.32
-104.82
-121.00
-132.60
-133.28
-119.62
-93.18
-60.27
-29.29
-6.90
4.92
9.15
11.97
19.42
34.41
55.75
79.54
101.71
120.03
134.40
145.74
154.57
160.22
161.20
156.35
145.74
131.00
114.84
99.92
87.91
79.05
72.28
65.91
58.54
49.66
39.84
30.30
22.33
16.62
13.06
10.89
9.02
6.59
3.31
-0.57
-4.38
-7.47
-9.47
-10.46
-10.77
-10.90
-11.25
-11.95
-12.91
-13.86
-14.56
-14.88
-14.83
-14.54
-14.13
-13.73
-13.38
-13.09
-12.81
-12.49
-12.12
-11.71
-11.27
-10.80
-10.32
-9.84
-9.36
-8.89
-8.43
-7.91
-7.38
-6.88
-6.42
-5.99
-5.58
-5.20
-4.86
-4.54
-4.24
-3.97
-3.73
-3.50
-3.28
-3.07
-2.87
-2.66
-2.45
-2.25
-2.04
-1.84
-1.65
-1.44
-1.24
-1.04
-0.85
-0.65
-0.47
-0.28
-0.11
0.07
0.26
0.45
0.65
0.86
1.08
1.33
1.59
1.87
2.19
2.53
2.91
3.33
3.80
4.31
4.88
5.51
6.20
6.96
7.79
8.70
9.67
10.73
11.87
13.10
14.43
15.87
17.40
19.05
20.79
22.61
24.54
26.58
28.72
30.98
33.36
35.88
38.58
41.39
44.31
47.34
50.41
53.35
55.99
58.07
59.30
59.38
57.91
54.60
49.28
41.91
32.62
21.76
9.79
-2.71
-14.72
-25.85
-35.62
-43.67
-49.76
-53.81
-55.88
-56.18
-55.34
-53.42
-50.89
-48.08
-45.25
-42.53
-39.99
-37.57
-35.23
-32.92
-30.59
-28.39
-26.45
-24.84
-23.56
-22.51
-21.52
-20.40
-19.06
-17.55
-16.15
-15.22
-14.93
-15.30
-16.09
-16.85
-17.15
-16.78
-15.94
-15.19
-15.23
-16.53
-19.12
-22.48
-25.75
-28.11
-29.15
-29.22
-29.30
-30.55
-33.82
-39.15
-45.74
-52.23
-57.50
-60.90
-62.84
-64.38
-66.75
-71.00
-77.86
-87.73
-100.49
-114.80
-127.57
-134.57
-131.74
-117.30
-93.25
-65.13
-40.10
-24.00
-19.09
-23.62
-33.52
-44.66
-54.46
-62.35
-68.54
-72.78
-73.78
-69.98
-59.76
-43.00
-20.98
4.26
30.58
56.60
81.70
105.78
127.89
147.74
164.53
177.22
185.00
187.67
185.84
180.77
173.95
167.14
160.81
154.88
149.05
142.93
136.23
128.79
120.62
112.08
102.47
91.42
78.76
64.66
49.69
34.57
19.91
5.94
-7.54
-21.09
-34.97
-49.04
-62.46
-73.88
-82.18
-86.92
-88.58
-88.43
-87.98
-87.96
-88.16
-87.31
-83.54
-75.55
-62.81
-45.47
-23.93
1.25
28.87
56.19
77.42
87.64
83.67
66.24
40.51
13.88
-7.54
-21.72
-30.97
-39.23
-48.29
-55.90
-57.29
-48.38
-29.30
-5.41
14.87
24.15
19.76
4.84
-13.94
-29.13
-36.12
-33.98
-24.19
-8.60
12.02
37.57
66.93
94.76
114.81
120.78
109.38
82.74
48.09
14.86
-9.10
-20.35
-20.50
-14.13
-6.44
-0.89
1.52
1.53
0.50
-0.42
-0.80
-0.46
0.61
2.02
3.25
3.59
1.70
-4.11
-14.82
-30.40
-48.28
-63.70
-71.58
-68.92
-56.63
-39.41
-24.47
-17.52
-20.56
-31.35
-45.06
-57.12
-65.07
-68.98
-70.29
-70.39
-69.52
-67.16
-62.83
-56.55
-49.23
-42.02
-35.87
-30.86
-26.23
-20.82
-13.73
-4.74
5.51
15.70
24.43
30.72
34.35
35.81
36.05
35.96
36.07
36.29
36.04
34.61
31.56
26.76
20.45
13.05
4.99
-3.41
-12.06
-20.98
-30.32
-39.80
-49.15
-58.06
-66.29
-73.72
-80.42
-86.63
-92.75
-99.28
-106.27
-113.81
-121.99
-130.89
-140.51
-150.83
-161.78
-173.29
-185.31
-197.19
-208.39
-218.39
-226.66
-232.61
-235.55
-234.53
-228.03
-218.31
-206.06
-191.86
-176.22
-159.59
-142.39
-124.94
-107.46
-90.15
-73.24
-56.40
-39.51
-22.62
-5.90
10.35
25.73
39.75
51.91
61.67
69.03
74.10
77.14
78.64
79.31
79.90
81.13
83.52
87.23
92.24
97.98
103.50
107.70
109.59
108.66
105.01
99.34
92.72
86.47
81.59
78.60
77.58
78.41
80.93
85.21
91.44
99.65
109.53
120.15
130.03
137.76
142.35
143.62
142.44
140.50
139.80
141.88
147.27
155.59
165.94
177.38
189.47
202.46
217.30
235.51
258.95
289.27
326.98
370.66
415.73
454.73
479.12
482.15
461.46
419.98
364.77
304.27
246.38
195.30
151.41
112.86
77.98
46.76
20.65
1.21
-11.24
-16.05
-14.45
-8.78
-1.13
8.47
22.32
43.51
73.79
112.05
157.45
205.61
249.70
281.75
295.30
287.22
258.19
212.68
158.60
110.43
80.53
75.30
92.28
122.03
152.44
173.07
178.59
142.78
60.05
-54.62
-172.70
-270.49
-339.05
-381.14
-403.66
-412.64
-411.89
-397.92
-371.59
-335.46
-293.57
-249.02
-202.68
-154.71
-106.57
-62.27
-24.92
-3.04
-2.05
-23.40
-63.27
-113.80
-166.24
-213.87
-253.32
-283.12
-304.34
-318.53
-328.03
-335.12
-341.33
-347.22
-352.30
-347.82
-327.07
-288.97
-238.42
-184.27
-134.78
-94.95
-66.22
-47.29
-35.18
-27.50
-22.39
-18.52
-15.39
-13.08
-12.10
-13.28
-17.46
-24.86
-35.12
-45.50
-50.82
-45.35
-25.73
6.68
45.70
82.69
110.28
124.64
126.83
121.30
112.96
104.87
97.57
90.25
82.36
74.53
67.94
63.56
61.34
60.17
58.52
55.01
49.34
42.29
35.39
30.06
27.05
26.24
26.66
26.99
26.15
23.72
20.08
16.19
13.14
11.61
11.76
13.11
14.84
16.12
16.51
15.92
14.71
13.61
12.87
12.89
14.01
16.51
20.39
24.94
28.63
29.44
25.64
16.77
4.19
-9.46
-21.20
-28.98
-32.28
-31.94
-29.32
-25.49
-20.97
-15.88
-10.49
-5.40
-1.22
1.68
3.37
4.16
4.13
2.87
-0.31
-5.77
-13.31
-21.57
-28.60
-32.70
-33.26
-31.07
-27.93
-25.52
-24.43
-23.81
-21.56
-15.42
-4.12
11.54
28.71
43.30
51.61
51.72
44.25
31.95
18.44
6.78
-1.52
-6.65
-9.52
-10.99
-11.34
-10.36
-8.16
-5.36
-3.08
-2.17
-2.79
-4.26
-5.64
-6.44
-6.83
-7.61
-9.25
-11.26
-12.16
-10.16
-3.89
6.82
20.64
35.11
46.66
52.16
49.48
38.06
19.17
-4.23
-28.10
-48.50
-62.56
-69.83
-71.28
-68.83
-64.41
-59.34
-54.39
-50.20
-47.85
-45.30
-42.66
-39.73
-35.58
-28.82
-18.36
-4.51
10.68
23.89
31.98
32.81
26.72
16.07
4.00
-6.81
-14.90
-19.87
-21.73
-20.37
-15.96
-8.89
-0.32
7.56
12.19
11.68
5.72
-4.21
-15.36
-24.99
-31.06
-32.82
-30.90
-26.74
-21.93
-17.50
-13.47
-8.81
-1.91
8.77
23.90
42.57
62.42
80.46
94.20
102.74
106.93
108.80
110.45
113.16
116.84
120.38
122.29
121.54
117.90
111.81
104.27
96.60
90.59
88.18
90.77
98.02
107.23
113.18
109.51
91.08
56.44
9.00
-43.61
-91.93
-127.92
-147.37
-150.52
-141.12
-124.39
-105.47
-88.54
-76.72
-71.72
-73.91
-82.17
-94.06
-106.74
-117.93
-126.69
-133.02
-136.78
-136.81
-131.00
-117.71
-97.42
-73.28
-50.21
-32.91
-23.72
-22.10
-25.35
-30.40
-35.09
-38.76
-41.74
-44.48
-47.19
-49.58
-51.39
-52.39
-52.33
-50.95
-48.13
-44.59
-41.87
-42.16
-47.38
-58.28
-73.92
-91.89
-109.24
-123.31
-132.25
-135.30
-132.73
-125.40
-114.64
-101.92
-88.83
-76.60
-65.80
-56.15
-46.95
-37.62
-28.22
-19.57
-12.86
-9.12
-8.76
-11.20
-15.08
-18.80
-20.87
-19.97
-14.75
-3.84
13.74
37.66
65.83
94.84
120.50
139.22
149.37
152.16
151.32
151.17
154.62
161.97
172.20
183.45
194.25
204.56
215.88
230.15
248.10
268.54
288.93
308.37
326.46
342.43
353.99
357.48
348.74
324.40
283.46
228.24
166.00
105.09
52.17
11.03
-16.50
-29.44
-27.87
-12.99
-0.09
0.11
-13.08
-30.81
-43.71
-47.39
-42.67
-34.69
-31.22
-39.60
-61.43
-93.12
-127.62
-157.30
-176.70
-184.09
-181.99
-175.18
-168.02
-160.82
-151.74
-139.19
-123.43
-106.75
-91.81
-80.61
-73.37
-68.80
-63.49
-54.62
-42.56
-27.78
-12.52
1.16
11.84
19.44
24.85
30.31
37.61
47.32
59.12
71.91
84.93
97.25
108.59
118.71
128.67
139.08
150.16
162.00
174.38
187.08
198.94
208.67
213.94
214.98
211.20
202.05
187.15
165.31
139.88
111.64
80.44
43.84
4.53
-36.44
-78.06
-118.60
-155.93
-188.19
-215.60
-239.65
-265.77
-291.96
-320.06
-353.52
-394.07
-439.65
-483.79
-517.77
-532.80
-527.11
-494.10
-438.03
-370.32
-301.71
-237.23
-175.19
-111.53
-17.77
63.67
130.97
174.23
181.72
149.37
83.75
-0.77
-89.28
-172.26
-251.34
-323.33
-362.02
-352.00
-297.28
-219.43
-141.64
-77.97
-32.74
-6.28
13.41
36.05
65.16
100.11
137.38
172.03
198.81
214.02
215.48
209.38
200.96
191.06
179.04
164.87
150.17
137.19
127.54
120.85
118.34
119.59
122.27
123.89
123.75
122.74
121.96
121.84
122.13
123.67
127.21
132.32
138.35
144.80
151.56
158.38
164.57
169.23
171.40
169.81
162.80
149.11
128.66
102.70
72.64
39.01
1.48
-40.28
-85.55
-131.55
-171.12
-194.68
-193.62
-165.07
-114.59
-54.79
-0.81
35.16
47.93
40.18
18.47
-6.61
-25.02
-33.01
-33.48
-31.23
-28.52
-24.26
-16.38
-4.26
10.51
24.29
33.40
36.31
34.54
31.56
30.94
34.50
41.98
51.47
60.03
64.99
65.34
62.16
57.81
54.76
53.56
54.36
56.36
58.17
58.64
57.59
55.87
54.98
56.25
59.66
64.78
70.81
76.94
82.69
88.18
93.95
100.60
108.49
116.54
123.75
129.27
132.66
133.95
133.32
130.41
123.40
115.13
104.93
91.78
75.04
55.16
33.58
12.19
-7.51
-25.29
-42.09
-60.64
-83.21
-110.84
-142.89
-177.70
-213.25
-247.98
-280.95
-311.50
-339.83
-366.50
-393.14
-422.57
-457.57
-498.66
-542.34
-580.98
-605.17
-607.97
-587.41
-547.26
-494.88
-437.69
-380.44
-324.62
-270.02
-216.84
-166.83
-122.15
-83.62
-49.58
-15.86
22.33
68.13
121.51
179.01
234.59
281.97
316.67
337.66
347.94
353.69
362.31
379.84
408.57
445.85
484.69
516.01
531.73
527.81
505.84
472.74
438.32
411.63
397.59
395.38
399.17
401.04
394.47
376.76
349.34
316.19
281.35
247.24
214.33
182.08
150.18
119.20
90.17
63.75
39.66
16.55
-7.27
-33.05
-61.27
-91.55
-123.12
-155.50
-189.22
-225.89
-267.48
-314.78
-365.78
-415.00
-454.19
-474.59
-469.50
-436.20
-376.73
-297.54
-208.04
-119.03
-40.83
18.44
54.10
65.39
54.83
27.32
-10.88
-52.49
-89.64
-114.84
-122.89
-113.28
-91.39
-67.04
-50.54
-48.09
-58.89
-75.92
-90.09
-95.41
-92.09
-85.94
-84.59
-92.98
-110.81
-133.32
-154.62
-171.41
-184.78
-199.26
-219.31
-245.80
-274.36
-296.73
-304.53
-293.17
-264.14
-224.14
-181.82
-143.83
-112.23
-84.48
-55.67
-21.75
18.22
61.80
104.83
143.79
177.28
206.25
232.94
259.34
285.81
310.68
330.62
341.54
339.66
322.64
290.61
246.96
198.31
153.77
122.95
113.46
128.38
164.92
214.65
265.74
306.18
327.08
324.61
300.20
258.89
207.20
151.01
94.78
41.38
-7.55
-51.47
-91.07
-128.55
-167.69
-212.75
-266.55
-328.48
-393.42
-452.65
-496.64
-518.56
-516.74
-495.06
-460.72
-421.11
-381.07
-342.02
-303.13
-263.13
-221.74
-180.12
-140.28
-103.69
-70.44
-38.93
-6.48
30.02
72.98
122.88
177.20
229.91
272.73
297.52
298.80
275.10
228.66
164.11
87.77
6.47
-72.42
-140.85
-190.58
-215.14
-212.01
-183.79
-137.34
-80.08
-19.72
36.46
82.24
113.37
128.13
127.27
113.64
91.52
68.51
50.19
37.72
28.74
20.40
11.50
2.73
-4.09
-6.74
1.50
24.56
60.59
103.11
145.40
183.96
218.66
251.91
287.54
335.86
403.08
486.41
574.71
654.17
713.84
747.77
755.59
702.70
580.60
415.54
252.75
123.45
33.07
-26.85
-66.45
-92.50
-108.64
-111.11
-99.57
-79.38
-59.39
-47.00
-44.20
-48.95
-57.84
-68.06
-73.41
-71.47
-66.16
-60.49
-59.20
-64.19
-74.76
-88.84
-103.87
-114.37
-116.78
-111.42
-102.16
-94.45
-92.23
-97.30
-109.33
-126.04
-142.50
-154.42
-160.31
-162.03
-164.14
-171.42
-187.72
-215.33
-254.31
-301.52
-351.30
-396.15
-427.72
-438.69
-424.55
-385.63
-328.07
-262.26
-199.34
-147.05
-107.02
-75.11
-44.93
-12.04
22.92
54.32
74.88
80.24
71.77
56.26
42.68
37.85
43.40
55.84
68.99
77.38
78.91
75.39
71.33
71.21
76.93
86.70
95.61
97.98
90.37
73.52
52.28
33.26
21.43
17.49
17.82
16.89
10.39
-2.44
-19.27
-36.77
-53.33
-70.23
-90.89
-118.64
-154.32
-195.02
-234.44
-264.93
-280.14
-277.02
-256.29
-221.99
-180.06
-136.63
-96.33
-61.20
-30.85
-3.29
23.87
53.36
88.02
130.13
180.02
234.70
287.28
327.93
346.97
338.70
304.65
253.45
197.56
148.43
113.13
93.47
87.25
90.53
96.94
100.19
96.53
86.39
72.18
55.81
38.49
21.35
5.70
-6.98
-15.21
-18.11
-16.11
-11.14
-5.88
-2.48
-1.89
-3.75
-6.84
-9.52
-10.55
-9.69
-7.93
-6.81
-7.54
-10.46
-15.07
-20.28
-24.83
-27.73
-28.70
-28.28
-27.50
-27.28
-28.12
-29.98
-32.36
-34.56
-35.95
-36.26
-35.78
-35.18
-35.21
-36.41
-38.79
-41.80
-44.58
-46.20
-46.04
-44.08
-40.86
-37.09
-33.22
-29.06
-23.56
-15.56
-4.21
10.47
27.33
44.42
59.67
71.74
79.92
85.73
90.90
96.55
102.53
107.76
111.18
112.83
113.60
114.08
113.20
107.92
95.09
74.05
48.27
23.93
6.66
-1.90
-4.78
-7.15
-11.90
-16.78
-15.46
-2.21
22.77
51.68
72.13
73.52
52.87
16.43
-23.64
-55.36
-72.14
-74.79
-69.32
-62.88
-60.16
-62.04
-66.81
-72.41
-77.98
-83.36
-87.87
-89.14
-83.28
-67.20
-40.95
-8.84
21.91
44.53
55.79
57.51
55.34
55.97
63.81
79.06
97.84
114.13
122.44
119.98
107.54
88.62
68.32
51.45
40.91
37.12
38.73
43.77
50.82
59.38
68.88
78.56
86.95
92.60
94.81
94.12
92.31
91.68
94.07
99.37
106.26
112.75
116.88
117.37
113.87
106.59
95.36
84.20
74.17
65.20
56.63
47.71
38.12
28.06
18.26
9.61
2.95
-2.00
-5.63
-8.46
-10.91
-13.16
-15.08
-16.29
-16.25
-14.36
-10.75
-5.52
1.14
9.00
17.80
27.29
37.22
47.35
57.45
66.97
75.44
82.50
87.90
91.49
93.22
93.16
91.46
88.37
84.03
78.67
72.50
65.77
58.64
51.27
43.77
36.26
28.89
21.71
14.77
8.06
1.50
-5.08
-11.85
-18.92
-26.30
-33.85
-41.27
-48.17
-54.23
-59.24
-63.21
-66.20
-68.30
-69.46
-69.43
-67.82
-64.33
-58.92
-52.05
-44.63
-37.81
-32.63
-29.63
-28.65
-28.94
-29.54
-29.78
-29.70
-30.10
-32.15
-36.79
-44.13
-53.20
-62.22
-69.48
-74.12
-76.77
-79.30
-84.14
-93.10
-106.68
-123.94
-142.97
-161.58
-177.77
-190.02
-197.29
-199.06
-195.60
-187.85
-177.42
-165.79
-153.59
-140.41
-125.44
-108.86
-93.08
-82.85
-83.66
-99.11
-128.23
-164.67
-198.28
-218.76
-220.30
-203.19
-173.45
-140.50
-113.68
-98.89
-96.69
-102.67
-109.69
-111.83
-105.88
-92.18
-73.65
-54.20
-36.66
-21.49
-6.92
9.53
27.56
45.29
60.11
69.60
71.93
66.54
54.75
39.43
24.18
7.72
-10.11
-26.46
-36.53
-36.99
-27.49
-10.42
9.86
27.76
28.19
1.59
-50.11
-115.16
-179.80
-233.35
-269.48
-286.37
-286.42
-290.19
-312.94
-355.59
-407.37
-457.38
-500.22
-534.91
-562.44
-584.05
-620.09
-681.88
-763.04
-845.34
-915.06
-969.44
-1013.56
-1054.99
-977.12
-734.74
-380.47
-21.76
267.17
470.21
605.36
698.58
770.61
832.14
864.85
853.34
799.81
723.65
646.22
582.52
539.25
515.97
507.20
490.91
453.58
395.52
335.19
287.66
258.16
243.42
237.03
233.09
218.57
187.18
143.07
97.61
60.06
35.04
22.95
22.64
32.08
44.14
53.61
59.77
66.30
76.37
93.66
117.60
146.59
178.59
210.10
238.76
264.35
288.31
311.07
331.79
347.37
355.25
354.21
344.84
329.09
309.38
287.97
265.93
243.43
217.98
187.95
153.55
116.75
80.35
46.79
18.15
-4.40
-20.29
-33.43
-48.42
-69.03
-97.76
-135.36
-181.03
-232.07
-284.82
-335.08
-383.64
-430.74
-474.44
-510.83
-536.13
-548.85
-550.37
-544.51
-513.56
-452.77
-370.57
-284.35
-209.35
-152.33
-113.06
-88.17
-76.43
-72.29
-75.65
-86.33
-102.32
-119.98
-135.84
-147.90
-154.51
-155.88
-152.64
-149.18
-148.68
-151.78
-156.96
-162.00
-165.37
-166.00
-163.54
-157.76
-150.97
-144.96
-140.05
-135.36
-129.77
-122.75
-113.35
-101.31
-86.86
-72.04
-58.61
-47.21
-37.28
-27.76
-17.75
-3.86
16.15
42.38
72.08
101.76
128.95
152.90
174.01
193.16
217.14
251.09
295.99
348.08
401.91
453.64
502.06
547.60
590.89
641.00
703.32
775.62
847.90
907.77
946.74
962.44
957.41
937.01
919.33
918.82
940.37
978.33
1023.00
1068.02
1112.64
1159.70
1136.76
1002.06
760.31
464.56
178.55
-59.11
-240.60
-377.04
-485.63
-580.94
-658.77
-710.75
-732.03
-726.48
-704.13
-675.15
-646.77
-622.93
-604.23
-580.24
-542.82
-491.49
-434.04
-383.41
-349.32
-335.37
-339.29
-354.51
-366.37
-362.32
-336.37
-292.54
-242.61
-199.25
-170.98
-159.82
-161.73
-166.62
-165.75
-155.61
-139.00
-122.20
-110.35
-105.07
-105.05
-107.38
-108.35
-105.84
-99.73
-90.35
-77.90
-61.47
-40.21
-15.04
10.49
30.91
40.76
38.28
26.73
12.74
3.28
2.30
9.51
21.40
33.67
43.34
49.96
54.68
58.62
62.15
64.61
65.24
63.96
61.67
58.61
54.98
49.75
40.62
25.13
2.64
-24.60
-50.92
-68.84
-73.45
-64.31
-45.64
-24.26
-6.51
3.82
5.22
-1.72
-16.42
-37.99
-64.07
-89.98
-109.33
-116.14
-106.07
-81.84
-49.63
-16.87
10.66
30.11
41.67
47.33
49.50
50.26
50.32
49.90
48.42
44.79
37.85
26.60
10.35
-10.86
-35.58
-60.80
-81.64
-93.07
-91.88
-78.43
-56.92
-33.73
-14.84
-3.42
1.08
2.20
4.09
9.02
16.22
22.74
25.54
23.42
17.75
11.42
7.23
6.11
6.42
4.23
-4.31
-20.81
-43.41
-67.12
-85.74
-94.37
-91.08
-75.81
-51.78
-23.80
3.38
26.10
42.16
50.91
53.07
50.88
47.58
46.07
47.99
53.03
59.25
64.13
66.12
65.37
64.11
65.09
69.39
75.62
80.71
81.66
77.02
67.35
54.68
42.05
32.00
24.89
18.77
10.59
-2.28
-20.82
-43.99
-68.74
-89.62
-100.20
-95.67
-74.48
-38.33
8.60
60.78
112.34
151.93
168.45
158.39
128.20
88.63
48.60
13.30
-14.72
-34.64
-46.94
-52.42
-52.28
-48.44
-43.68
-39.36
-35.30
-30.03
-21.82
-9.65
6.41
24.48
40.72
50.38
50.32
40.91
26.27
12.11
4.69
7.90
21.11
38.99
53.68
58.46
50.50
31.48
5.99
-20.97
-46.13
-68.85
-90.85
-114.96
-143.24
-175.41
-208.19
-235.91
-252.13
-251.91
-233.70
-200.42
-158.80
-117.33
-83.75
-63.23
-57.30
-63.80
-77.49
-90.66
-94.84
-83.08
-51.60
-0.82
64.67
136.98
206.79
264.89
304.33
321.41
315.80
290.96
253.62
211.88
172.43
138.89
111.79
91.40
79.46
78.59
91.15
116.57
149.27
178.67
193.05
184.95
156.04
116.98
81.98
63.22
66.49
90.04
126.58
168.19
204.54
226.65
234.21
227.62
203.98
158.01
89.25
2.99
-90.62
-179.45
-251.91
-299.74
-319.97
-313.89
-286.03
-243.07
-193.42
-145.39
-104.87
-73.23
-48.22
-26.80
-7.14
10.27
22.68
26.40
19.29
2.67
-17.89
-35.04
-42.53
-37.50
-21.80
-1.35
15.93
23.56
19.22
5.52
-13.01
-31.60
-46.93
-58.06
-66.60
-75.88
-89.22
-108.21
-131.50
-157.40
-181.08
-194.82
-190.59
-164.47
-119.94
-67.61
-21.57
5.57
2.44
-33.70
-95.64
-169.51
-241.05
-300.30
-342.80
-368.03
-377.64
-380.43
-385.14
-397.63
-420.74
-455.31
-500.77
-553.64
-606.57
-614.25
-549.64
-418.58
-258.10
-110.75
-1.87
63.72
94.53
103.93
103.83
95.75
76.24
46.66
12.33
-19.39
-42.88
-55.44
-56.95
-48.93
-38.08
-29.69
-24.21
-19.51
-11.79
1.67
21.51
46.63
74.69
100.22
118.61
128.44
131.57
132.29
135.16
143.78
160.18
184.30
213.20
242.84
269.66
291.42
307.70
319.34
328.03
336.04
345.87
360.29
380.30
403.51
423.57
431.79
420.41
386.46
334.30
275.03
225.38
199.24
202.18
229.99
271.61
313.90
345.72
360.06
354.32
333.99
306.40
278.31
254.63
238.81
232.79
236.43
246.79
258.59
271.62
285.43
298.53
308.43
313.15
312.21
306.08
295.25
249.94
158.48
31.15
-103.88
-219.05
-301.10
-350.90
-376.57
-384.98
-387.03
-385.20
-381.03
-376.98
-375.91
-378.25
-380.57
-376.39
-358.92
-327.11
-283.33
-237.57
-203.35
-191.11
-202.01
-226.46
-248.64
-253.14
-233.44
-190.72
-134.45
-76.69
-26.92
10.71
37.00
55.20
70.18
84.56
100.10
116.53
132.36
145.08
151.62
149.44
129.97
93.75
50.60
14.60
-6.31
-13.04
-11.32
-6.78
-1.68
2.82
6.68
7.32
0.73
-16.48
-44.75
-81.58
-121.84
-159.91
-191.70
-208.60
-205.52
-183.09
-147.68
-107.07
-66.88
-29.91
1.77
25.70
40.57
43.83
34.91
17.11
-2.24
-14.74
-14.09
0.44
21.22
36.58
36.43
18.00
-13.93
-50.38
-82.36
-102.66
-109.26
-102.30
-84.04
-59.65
-36.16
-21.17
-19.84
-31.96
-49.41
-59.50
-50.48
-15.64
43.85
119.31
197.62
266.24
306.46
307.14
271.13
212.52
146.35
81.77
22.88
-28.20
-69.07
-97.74
-112.20
-113.32
-105.68
-96.36
-91.29
-92.68
-98.96
-106.36
-110.15
-105.69
-91.64
-70.58
-47.76
-27.79
-12.51
-1.07
9.74
23.36
44.06
73.85
110.92
149.82
183.74
207.22
212.20
196.42
156.30
99.32
40.71
-4.26
-28.27
-33.54
-27.67
-18.31
-9.04
-0.38
9.68
22.08
35.26
46.08
52.32
53.83
52.11
49.79
48.45
50.01
53.80
57.35
57.33
51.43
38.91
20.92
-0.83
-25.05
-50.61
-76.61
-100.87
-123.52
-145.25
-166.57
-186.09
-202.73
-215.78
-229.16
-240.77
-249.04
-253.55
-254.38
-252.17
-245.47
-234.79
-222.33
-211.25
-202.35
-194.33
-182.89
-161.82
-125.58
-63.86
24.21
131.17
243.99
350.32
440.76
510.45
558.31
565.29
523.57
440.03
333.79
224.97
128.34
50.75
-6.70
-46.60
-74.00
-90.75
-99.34
-102.49
-104.18
-104.39
-101.55
-93.10
-76.35
-49.89
-10.93
39.02
92.09
135.03
157.13
154.45
131.51
101.72
73.73
54.42
45.21
42.12
38.53
29.19
11.21
-16.59
-55.55
-105.16
-160.54
-213.81
-255.51
-276.82
-272.07
-241.45
-192.03
-135.56
-84.61
-47.17
-25.48
-16.85
-16.22
-18.88
-22.07
-25.33
-28.86
-32.76
-36.05
-37.95
-38.40
-38.18
-38.31
-39.75
-42.88
-47.40
-52.62
-57.43
-61.15
-63.52
-64.68
-65.39
-65.40
-64.19
-60.95
-54.65
-44.16
-28.52
-7.30
19.27
50.07
82.27
112.91
139.35
159.76
173.38
180.62
182.82
181.65
178.60
175.03
172.22
171.03
171.34
171.26
167.15
154.70
131.09
96.79
56.38
17.05
-14.26
-33.62
-41.28
-40.52
-35.61
-29.66
-23.97
-18.47
-12.89
-7.48
-2.84
0.63
3.46
6.71
11.20
16.92
22.77
26.49
25.96
19.94
8.48
-7.26
-25.46
-44.43
-62.72
-79.80
-95.82
-111.49
-127.74
-144.92
-161.83
-175.19
-180.17
-172.19
-149.68
-115.54
-76.72
-41.89
-18.00
-7.43
-8.15
-15.37
-23.89
-30.78
-35.63
-39.39
-42.97
-45.96
-46.84
-44.00
-36.52
-24.50
-8.68
10.22
32.26
57.41
84.61
110.40
129.04
134.34
122.76
95.57
59.22
23.25
-4.59
-20.09
-24.26
-21.42
-16.51
-12.80
-11.57
-12.99
-16.95
-23.27
-30.39
-35.62
-35.28
-27.03
-11.62
6.78
21.99
28.90
25.78
14.98
1.35
-9.83
-15.18
-13.66
-6.30
5.14
18.51
32.65
47.04
59.56
68.43
72.49
71.57
66.55
59.15
51.59
45.74
42.81
42.88
45.46
49.64
54.68
59.67
63.95
67.08
68.57
67.86
64.05
56.50
43.49
26.68
7.35
-13.07
-33.02
-51.24
-66.71
-79.11
-88.31
-94.10
-96.09
-94.11
-87.75
-76.70
-61.06
-41.27
-18.76
4.64
26.93
46.38
61.26
70.49
73.65
69.55
59.97
46.61
31.13
15.09
-0.05
-13.30
-23.95
-31.64
-36.39
-38.35
-38.28
-37.21
-36.05
-35.38
-35.44
-36.07
-36.88
-37.64
-38.13
-38.81
-40.41
-43.57
-48.36
-54.13
-59.58
-62.81
-62.09
-56.26
-45.31
-30.20
-12.20
7.20
27.03
46.25
64.49
81.56
97.48
112.28
125.85
137.43
145.14
146.07
137.31
117.56
88.21
53.59
19.70
-7.85
-25.80
-33.99
-34.79
-31.31
-25.93
-19.77
-13.14
-6.26
0.13
4.83
6.79
5.66
1.95
-3.22
-8.49
-13.22
-17.29
-21.14
-25.34
-30.14
-35.21
-39.76
-42.81
-43.60
-41.96
-38.28
-33.41
-28.27
-23.50
-19.32
-15.59
-11.91
-7.93
-3.49
1.31
6.14
10.63
14.58
17.97
20.83
23.35
25.72
28.10
30.54
33.11
35.81
38.78
42.25
46.15
50.49
55.28
60.45
65.91
71.55
77.31
83.21
89.39
95.61
101.78
107.91
114.07
120.33
126.79
133.52
140.61
148.24
155.88
163.19
169.82
175.42
179.56
181.63
180.74
175.30
167.90
159.20
149.63
139.50
129.05
118.46
107.94
97.64
87.77
78.61
69.79
61.13
52.52
43.92
35.34
26.85
18.60
10.76
3.59
-3.14
-9.54
-15.68
-21.53
-27.07
-32.24
-36.93
-41.03
-44.37
-47.06
-49.11
-50.39
-50.68
-49.78
-47.51
-43.81
-38.79
-32.69
-26.14
-19.71
-13.92
-9.13
-5.48
-3.03
-1.76
-1.82
-3.52
-7.42
-14.08
-23.85
-36.72
-52.20
-69.54
-87.88
-107.11
-127.17
-147.90
-169.05
-190.14
-210.30
-228.15
-241.85
-249.79
-251.53
-247.42
-238.42
-225.91
-211.49
-196.41
-181.46
-166.74
-152.19
-138.98
-128.07
-120.11
-116.20
-118.89
-131.72
-157.10
-194.13
-236.88
-277.60
-304.39
-304.69
-271.66
-209.21
-131.34
-56.74
-2.13
22.97
11.63
-32.06
-94.80
-161.42
-222.13
-273.50
-315.42
-348.73
-374.37
-403.41
-440.60
-480.14
-510.41
-522.20
-511.94
-481.28
-437.27
-391.15
-368.57
-383.80
-430.94
-489.81
-538.85
-562.55
-554.26
-517.41
-382.36
-149.93
110.61
318.74
442.61
497.06
512.75
515.36
519.75
532.08
540.71
539.86
534.83
534.26
540.14
547.25
548.63
540.07
521.68
487.05
437.57
384.51
341.67
316.70
308.81
311.32
315.00
311.15
287.88
241.80
181.80
122.46
75.98
47.77
36.16
34.61
34.95
28.20
11.44
-11.15
-32.29
-46.47
-51.94
-50.03
-43.11
-32.87
-20.08
-3.63
18.71
47.90
82.31
117.82
148.84
170.03
177.88
171.56
152.47
122.31
81.97
31.80
-25.04
-82.55
-134.16
-176.00
-207.98
-232.20
-250.59
-262.51
-264.32
-251.06
-219.73
-172.25
-116.03
-61.64
-18.83
6.74
15.17
11.27
1.48
-9.01
-17.54
-23.09
-25.86
-22.81
-11.55
7.60
30.65
50.84
61.80
60.46
48.60
32.34
19.16
14.01
17.64
27.62
38.53
45.99
48.88
48.72
48.32
49.85
53.56
58.48
63.37
67.35
70.41
73.48
76.91
80.77
84.43
86.49
85.62
81.07
72.77
61.59
50.26
38.78
26.23
10.66
-9.41
-33.78
-59.52
-81.93
-96.25
-98.50
-88.57
-69.83
-47.65
-26.60
-9.75
0.76
2.68
-6.35
-25.74
-52.41
-80.28
-102.03
-110.77
-103.26
-81.20
-49.92
-15.22
21.70
62.24
109.41
160.86
213.03
261.05
299.96
325.98
324.86
291.54
231.09
156.41
80.42
11.16
-48.66
-99.01
-140.72
-174.36
-197.95
-211.00
-215.18
-214.18
-211.73
-210.77
-212.02
-214.48
-217.59
-216.06
-206.03
-186.09
-157.36
-121.98
-82.67
-41.18
-0.08
37.89
72.12
102.03
126.84
145.46
157.21
161.65
159.89
153.75
145.25
136.83
129.76
124.29
119.61
117.58
114.68
108.81
98.98
84.71
66.21
43.75
17.93
-10.33
-39.66
-68.96
-96.06
-118.31
-133.52
-140.07
-137.28
-125.16
-104.37
-75.88
-41.35
-5.91
27.01
55.11
77.32
93.32
103.48
108.62
109.97
108.61
105.76
102.84
100.71
99.68
99.57
100.09
101.04
105.68
112.41
119.71
126.52
131.40
132.70
128.98
119.52
104.67
81.54
54.70
28.33
5.34
-13.13
-27.34
-38.08
-46.40
-52.84
-57.44
-59.57
-59.20
-56.05
-49.55
-39.17
-25.75
-11.33
0.55
6.09
3.47
-6.18
-17.98
-24.95
-20.91
-3.15
25.62
59.46
91.63
116.86
132.05
136.48
130.85
116.55
95.59
69.34
40.09
10.35
-17.90
-44.17
-69.26
-95.17
-125.27
-155.68
-185.39
-213.87
-241.05
-267.33
-294.01
-322.31
-353.66
-389.36
-429.06
-470.37
-506.59
-528.28
-526.08
-494.61
-434.01
-350.59
-254.75
-157.26
-66.70
12.75
79.73
135.34
173.72
188.57
178.45
148.17
106.71
63.68
27.22
1.57
-13.42
-20.61
-22.61
-20.79
-14.62
-1.54
22.54
62.10
119.46
194.42
283.53
380.61
476.02
556.79
609.18
623.71
599.85
547.42
483.03
422.56
374.57
337.02
299.23
248.15
175.92
84.05
-17.49
-114.72
-194.68
-247.85
-269.17
-258.83
-222.83
-172.07
-119.80
-78.29
-55.51
-53.27
-67.46
-88.42
-103.40
-102.87
-85.97
-58.49
-25.94
9.62
48.12
88.49
127.70
159.79
177.46
175.52
153.33
115.02
67.77
19.21
-25.06
-59.83
-83.61
-99.84
-115.91
-140.16
-178.08
-229.43
-287.14
-338.54
-368.58
-365.15
-322.98
-245.14
-142.10
-29.15
77.15
162.72
218.85
243.85
241.79
219.99
186.43
148.10
109.68
73.54
39.74
6.09
-31.74
-80.14
-146.05
-233.94
-342.87
-464.78
-585.67
-689.50
-763.30
-801.12
-805.17
-783.48
-745.51
-698.51
-645.86
-587.76
-523.62
-454.26
-382.57
-312.67
-248.38
-191.86
-143.58
-102.89
-68.71
-39.99
-16.03
3.94
20.97
36.43
51.95
68.88
87.96
109.33
132.66
157.37
183.01
209.08
234.85
259.28
281.06
298.86
312.03
320.96
327.33
333.90
343.50
357.90
377.24
400.21
424.49
447.88
469.22
488.75
507.96
529.18
554.95
587.16
625.80
667.91
707.24
735.51
744.92
731.10
695.06
642.79
582.75
522.33
465.34
411.32
357.35
300.85
242.20
185.29
136.08
100.02
79.59
73.09
75.33
79.41
79.12
71.01
54.87
32.98
8.39
-16.81
-42.28
-69.24
-99.31
-133.34
-170.38
-207.51
-240.43
-264.43
-275.57
-272.00
-254.47
-226.55
-194.11
-164.01
-142.26
-132.43
-134.79
-146.68
-164.22
-184.08
-204.81
-226.72
-250.36
-274.64
-295.98
-309.11
-309.61
-296.73
-274.78
-251.97
-237.49
-238.25
-256.89
-291.80
-338.25
-390.00
-440.47
-483.04
-511.80
-522.81
-515.18
-491.48
-457.06
-418.15
-379.92
-345.84
-317.83
-297.29
-285.48
-282.82
-287.74
-296.06
-301.83
-299.69
-287.41
-266.90
-243.21
-222.06
-207.04
-198.26
-192.59
-185.43
-172.74
-152.69
-125.71
-93.57
-58.09
-20.24
19.56
61.38
105.44
152.03
201.19
253.03
307.62
364.87
424.40
484.98
544.59
600.99
652.36
696.84
733.36
762.26
785.73
807.58
830.92
856.48
881.61
901.04
907.19
894.27
861.44
813.68
760.17
708.63
662.98
622.57
584.52
542.85
492.69
432.38
363.67
291.31
218.08
145.93
76.54
13.12
-44.98
-99.29
-151.38
-201.77
-249.25
-296.24
-345.84
-403.83
-463.02
-513.63
-547.47
-563.79
-576.09
-589.39
-606.00
-624.48
-641.56
-640.30
-614.91
-567.35
-506.37
-442.42
-369.17
-287.42
-200.28
-123.51
-55.26
3.65
53.88
91.20
113.40
123.14
122.94
116.65
108.08
102.51
99.91
99.04
96.84
92.36
87.12
81.26
74.93
67.58
60.04
50.36
37.29
17.51
-8.98
-38.27
-65.30
-84.89
-94.14
-91.78
-80.47
-63.99
-51.70
-50.37
-61.53
-82.22
-107.57
-133.96
-159.40
-184.26
-209.43
-242.94
-290.43
-351.91
-421.83
-493.21
-561.73
-626.50
-689.38
-708.66
-660.36
-549.15
-406.47
-266.43
-148.03
-55.23
15.64
69.97
112.35
139.08
146.97
137.05
115.47
90.67
70.65
62.06
69.90
96.21
133.11
169.64
196.40
209.20
208.97
199.86
187.14
175.24
166.42
157.02
143.10
123.63
101.43
81.01
65.72
56.39
51.69
49.33
45.29
37.15
25.07
11.38
-0.86
-9.48
-13.77
-14.61
-12.41
-8.27
-2.67
4.73
14.70
27.60
42.69
57.97
70.82
78.53
78.93
70.94
54.77
31.83
4.28
-25.38
-54.80
-81.70
-104.23
-121.23
-132.12
-136.93
-136.36
-131.66
-124.60
-117.21
-110.99
-107.24
-106.77
-109.82
-116.04
-124.71
-134.92
-145.85
-157.01
-167.66
-177.32
-185.61
-191.97
-195.53
-195.08
-189.21
-176.30
-157.97
-135.15
-108.89
-80.33
-50.34
-19.48
11.90
43.35
74.13
102.90
128.51
149.71
165.81
177.13
185.03
191.61
199.00
208.66
220.91
235.50
251.62
268.57
286.28
305.25
326.29
350.39
378.59
411.93
451.12
495.20
540.37
579.87
605.25
609.25
588.71
546.15
488.91
426.39
366.43
313.18
266.94
225.82
187.77
151.78
117.96
86.76
58.24
31.92
6.98
-17.33
-41.58
-66.05
-91.01
-116.98
-144.90
-176.51
-214.05
-258.95
-310.13
-363.18
-411.41
-448.67
-472.31
-484.41
-490.22
-494.67
-499.17
-500.84
-494.62
-476.88
-448.02
-412.33
-375.45
-341.30
-310.49
-281.02
-250.59
-218.56
-186.50
-157.12
-132.77
-114.43
-101.65
-93.07
-87.40
-84.21
-83.97
-87.68
-96.29
-109.80
-127.18
-146.58
-165.84
-183.27
-197.98
-210.00
-219.90
-228.39
-235.56
-240.84
-243.08
-240.95
-233.49
-220.47
-202.49
-180.77
-156.73
-131.03
-103.71
-74.13
-41.37
-4.70
36.03
80.19
126.43
172.89
218.94
264.20
308.51
352.06
395.73
441.46
491.75
547.99
608.48
669.79
724.48
763.21
777.91
764.80
726.06
668.95
603.28
538.77
487.06
456.01
448.03
459.41
481.68
504.86
520.78
525.33
518.59
508.57
502.85
505.14
514.11
524.95
533.07
536.26
534.98
499.48
412.66
272.86
97.39
-85.52
-250.63
-383.86
-482.37
-550.07
-593.74
-615.52
-617.59
-603.31
-577.84
-547.23
-516.37
-487.74
-461.63
-437.40
-410.82
-379.13
-342.56
-304.39
-269.85
-242.70
-225.58
-218.70
-220.87
-228.01
-236.60
-244.93
-253.11
-262.82
-276.10
-294.37
-317.43
-343.13
-365.99
-378.33
-372.83
-345.16
-296.51
-233.89
-168.00
-109.22
-64.38
-34.62
-15.59
-2.52
9.59
24.03
42.29
65.12
94.04
131.61
174.61
218.14
256.08
283.73
298.64
300.40
290.21
270.55
245.04
217.64
192.40
172.02
157.75
149.30
145.13
142.69
138.39
127.75
106.68
73.84
31.76
-13.48
-54.18
-84.34
-101.60
-107.58
-106.42
-102.58
-98.56
-94.41
-88.37
-78.65
-64.84
-48.55
-32.96
-21.48
-16.29
-17.08
-20.96
-24.00
-23.27
-17.98
-9.60
-0.63
6.91
12.80
17.54
21.73
24.90
25.15
19.80
6.51
-15.12
-42.70
-70.50
-91.47
-99.37
-91.55
-70.05
-40.74
-10.81
13.70
29.54
35.48
31.12
16.33
-8.67
-42.22
-80.58
-118.10
-148.35
-165.51
-166.05
-149.56
-118.67
-79.14
-38.68
-4.95
16.80
25.44
23.96
17.61
11.04
6.49
3.17
-1.02
-7.47
-15.81
-23.80
-28.42
-27.53
-20.32
-6.88
11.98
35.55
62.32
89.16
111.34
124.01
124.12
112.34
93.25
73.48
59.18
53.48
55.51
62.10
69.55
74.87
76.27
72.59
62.73
45.81
21.78
-8.05
-40.59
-71.96
-98.78
-118.80
-131.37
-136.89
-135.92
-128.59
-114.54
-93.56
-66.48
-35.82
-5.62
19.46
35.28
39.13
30.17
9.81
-18.02
-47.44
-71.67
-85.16
-85.64
-75.07
-58.84
-43.61
-34.29
-32.19
-35.58
-41.55
-48.04
-54.89
-62.94
-71.79
-79.18
-81.42
-74.87
-57.79
-31.21
1.84
37.10
69.74
94.74
107.49
105.71
91.41
71.51
55.54
52.14
62.82
83.09
103.75
115.38
113.27
98.53
76.86
54.50
35.41
20.08
7.67
-2.31
-9.17
-10.76
-6.57
2.16
11.75
17.66
16.20
6.79
-8.21
-24.41
-36.06
-39.67
-33.48
-18.20
3.72
28.55
54.32
81.48
109.38
137.92
164.67
186.85
201.32
205.37
198.00
180.49
155.51
122.80
91.17
63.17
41.24
27.06
20.69
20.17
22.12
22.50
18.38
11.00
3.82
3.02
13.47
35.83
65.32
97.24
126.74
149.53
163.05
163.91
150.62
123.33
83.59
34.08
-22.35
-80.40
-135.62
-185.09
-230.57
-274.98
-321.37
-371.33
-423.79
-474.09
-514.79
-538.54
-540.87
-524.95
-497.41
-465.03
-431.78
-397.43
-357.92
-307.61
-242.63
-149.58
-31.15
97.86
218.57
316.87
385.79
423.26
430.24
410.28
370.31
318.23
263.76
215.96
180.28
157.58
143.94
135.15
127.44
118.20
104.38
84.99
61.94
39.33
21.85
13.11
14.77
25.52
41.33
57.53
68.59
70.97
63.40
45.94
19.13
-14.22
-50.28
-84.62
-114.96
-141.43
-165.06
-186.60
-205.35
-218.40
-220.60
-206.92
-175.07
-127.85
-73.16
-21.14
19.37
43.95
53.58
53.46
49.41
45.44
42.62
40.02
36.64
32.26
27.62
23.52
20.42
17.56
14.03
8.82
1.83
-5.72
-11.72
-13.74
-10.85
-3.35
6.32
14.94
20.30
22.75
24.95
30.24
40.39
53.73
65.91
71.74
67.92
54.51
34.71
12.80
-7.84
-25.59
-40.40
-52.64
-62.10
-68.00
-69.75
-66.74
-59.05
-48.10
-35.64
-23.46
-12.87
-4.01
3.67
11.13
19.28
28.36
37.68
45.92
51.36
52.56
49.27
42.24
33.11
23.94
16.40
11.20
8.04
5.85
3.73
1.91
1.53
4.50
12.73
27.61
49.63
78.63
113.71
149.50
180.53
200.11
201.71
181.50
141.02
87.58
32.19
-14.51
-46.09
-61.69
-65.19
-61.98
-56.03
-48.39
-38.52
-26.14
-12.65
-0.93
6.05
6.49
0.89
-9.33
-21.57
-33.67
-44.77
-55.23
-66.03
-77.66
-89.41
-98.09
-100.95
-95.62
-81.35
-59.66
-34.71
-10.59
8.45
18.99
19.01
7.51
-14.99
-46.21
-81.79
-114.73
-137.64
-145.60
-138.37
-120.60
-100.19
-85.14
-77.75
-76.26
-76.09
-72.18
-61.38
-43.25
-19.43
7.73
35.76
63.10
89.03
112.98
134.08
151.16
162.92
168.68
168.55
163.77
156.54
149.02
142.77
138.41
135.73
134.33
134.30
135.96
139.28
142.91
143.42
136.35
118.56
90.37
56.11
22.54
-3.72
-20.40
-28.27
-30.65
-31.35
-32.56
-34.50
-36.32
-37.52
-38.72
-41.34
-46.06
-52.40
-58.88
-63.36
-64.12
-60.62
-53.53
-44.15
-33.77
-23.01
-11.93
-0.87
9.83
19.69
27.93
33.98
37.60
39.06
39.19
38.96
38.64
38.51
38.76
39.60
41.39
44.55
49.16
54.33
61.81
70.10
76.77
79.47
76.94
69.22
57.88
45.23
33.36
23.22
13.46
1.27
-17.06
-44.87
-83.11
-128.49
-173.03
-205.27
-213.43
-189.54
-131.80
-45.83
56.52
160.29
251.12
318.50
357.72
369.71
359.44
333.95
300.01
262.77
225.06
187.80
150.89
114.75
81.19
52.94
33.15
24.19
26.72
39.62
60.67
87.37
117.98
151.24
185.62
218.52
246.13
264.25
269.84
262.09
242.61
214.25
179.41
138.62
91.31
37.08
-22.97
-85.92
-147.10
-201.54
-245.56
-278.08
-301.55
-320.54
-340.08
-363.81
-392.79
-425.19
-456.58
-480.94
-492.14
-486.64
-463.36
-424.11
-373.58
-318.99
-268.40
-228.64
-203.66
-194.38
-202.71
-229.02
-271.67
-327.16
-390.41
-453.81
-506.66
-536.30
-531.12
-490.31
-417.23
-317.35
-197.92
-69.91
52.82
156.51
230.63
269.67
263.74
211.80
124.06
18.32
-88.89
-186.63
-269.23
-334.43
-382.28
-427.42
-480.34
-541.18
-601.48
-653.34
-694.11
-726.17
-754.50
-704.86
-549.57
-321.17
-88.37
98.28
226.10
307.45
362.93
411.07
463.46
510.12
539.08
545.69
534.59
513.63
489.71
467.97
451.08
439.24
420.54
387.25
340.78
293.00
256.19
237.69
239.17
258.09
288.41
315.19
324.94
310.31
271.62
214.66
149.46
89.19
47.81
35.63
53.07
94.54
151.62
216.31
282.16
342.07
389.01
418.61
429.51
421.93
398.84
365.47
328.20
292.52
261.69
236.81
217.43
201.83
187.73
173.26
157.08
138.67
117.64
93.39
65.44
33.93
-0.54
-37.13
-74.37
-110.91
-145.46
-176.86
-204.24
-227.00
-245.25
-260.20
-273.49
-285.62
-294.84
-296.86
-286.34
-259.73
-217.47
-164.32
-107.33
-52.52
-1.96
45.71
93.14
140.77
185.26
220.78
242.46
249.67
245.97
238.15
232.46
231.80
234.85
237.40
235.44
227.44
215.10
201.24
188.22
177.14
167.42
157.47
145.71
131.54
115.39
98.53
81.08
63.09
45.23
28.61
14.34
2.78
-5.91
-12.28
-17.38
-27.10
-46.37
-76.90
-117.07
-163.70
-213.80
-264.56
-313.28
-356.89
-400.90
-448.20
-495.37
-534.23
-557.23
-560.94
-546.77
-518.77
-482.16
-455.38
-451.67
-472.50
-509.02
-550.55
-590.85
-628.92
-666.32
-704.96
-763.17
-852.44
-969.57
-1098.15
-1219.32
-1320.76
-1397.71
-1450.67
-1375.73
-1127.12
-739.71
-310.51
70.47
362.08
564.27
695.64
777.60
828.40
843.93
821.43
768.01
700.83
636.97
585.84
549.81
526.59
512.38
490.10
448.43
387.96
320.57
260.27
212.98
182.38
166.64
161.26
153.07
133.24
101.87
67.67
40.73
26.57
25.20
31.41
38.39
36.24
19.48
-10.61
-46.18
-77.82
-97.99
-102.16
-89.47
-61.96
-25.97
10.70
34.83
35.72
7.17
-49.67
-125.22
-203.92
-269.67
-311.74
-328.06
-324.62
-310.33
-292.76
-275.10
-256.11
-232.50
-201.75
-163.88
-121.07
-76.12
-30.22
17.04
66.75
119.41
174.58
229.70
280.37
321.78
350.32
365.19
368.26
363.14
353.93
346.05
342.40
342.20
341.70
336.25
323.11
302.31
276.50
250.11
232.76
232.40
252.84
292.74
346.83
407.88
467.05
514.79
542.81
554.35
556.58
558.01
565.18
581.80
608.56
642.20
676.47
704.63
732.01
764.86
806.12
852.77
898.27
936.57
963.71
978.20
919.06
757.05
502.21
200.73
-94.69
-350.68
-556.95
-717.48
-840.44
-933.03
-990.67
-1010.46
-996.15
-959.06
-915.08
-874.68
-842.91
-819.98
-803.44
-782.56
-749.39
-702.82
-648.83
-596.43
-552.46
-520.02
-498.33
-484.02
-469.59
-448.84
-419.57
-383.89
-345.72
-307.56
-269.77
-230.84
-188.64
-139.44
-81.45
-16.35
51.18
115.27
171.27
216.69
251.37
277.09
297.94
318.78
343.81
375.01
410.79
445.81
471.72
479.80
464.54
426.11
370.79
308.33
248.09
195.66
151.96
114.46
79.80
46.10
13.52
-16.76
-44.00
-69.02
-93.99
-121.32
-152.72
-188.96
-230.10
-276.15
-326.81
-380.46
-433.18
-478.67
-509.21
-519.11
-507.33
-478.22
-439.82
-400.57
-366.37
-339.40
-318.74
-301.49
-285.26
-268.87
-252.06
-234.81
-216.82
-197.93
-178.84
-161.44
-146.86
-136.68
-132.29
-134.26
-141.89
-152.90
-164.26
-173.14
-177.76
-173.65
-158.31
-132.13
-97.94
-59.09
-17.53
26.38
73.18
123.27
184.47
261.52
353.18
452.15
548.90
636.06
709.72
768.74
813.61
858.49
914.41
984.07
1061.15
1135.70
1200.57
1253.04
1293.66
1324.30
1363.62
1425.30
1511.51
1612.12
1711.90
1799.00
1867.24
1914.81
1837.26
1580.52
1158.26
649.99
151.04
-275.36
-607.72
-852.79
-1028.79
-1155.55
-1233.16
-1261.35
-1245.80
-1199.71
-1139.59
-1075.97
-1012.99
-951.84
-894.54
-833.53
-767.01
-701.32
-648.24
-617.81
-611.54
-622.74
-639.25
-646.18
-626.58
-575.92
-503.82
-427.75
-364.21
-321.67
-300.51
-296.09
-302.80
-312.77
-320.19
-322.74
-318.60
-307.52
-290.22
-268.46
-244.18
-218.88
-192.14
-162.79
-129.38
-89.31
-41.47
13.51
71.71
129.28
183.45
233.02
278.59
322.47
369.70
422.82
479.45
531.69
568.98
581.50
564.07
518.00
438.21
332.74
217.64
110.63
23.30
-41.14
-85.42
-113.23
-127.68
-130.86
-123.10
-107.04
-87.51
-70.02
-57.96
-52.15
-50.06
-49.15
-47.31
-42.24
-34.16
-25.75
-21.44
-25.19
-40.40
-68.42
-109.54
-159.50
-208.25
-243.38
-254.96
-240.11
-203.51
-161.51
-124.07
-99.01
-91.56
-104.13
-137.62
-189.33
-254.58
-320.02
-369.21
-387.06
-368.64
-319.78
-253.18
-182.71
-118.91
-68.02
-32.15
-11.80
-5.39
-10.63
-22.08
-31.04
-28.47
-8.57
27.94
74.07
118.62
154.10
174.36
178.30
169.73
153.98
135.23
115.18
94.10
71.78
49.01
26.72
6.19
-10.98
-24.18
-33.45
-39.20
-41.27
-39.07
-31.74
-18.66
-4.42
8.38
18.04
24.04
27.44
30.79
37.25
49.51
68.73
94.61
126.10
161.42
198.60
235.95
272.41
307.67
342.34
377.55
413.79
450.50
484.60
510.97
524.28
521.50
503.68
475.96
445.39
417.46
394.38
374.49
353.77
328.36
296.37
258.08
215.29
170.04
123.13
75.28
27.80
-17.11
-56.81
-88.85
-112.29
-127.79
-137.38
-145.60
-156.11
-170.18
-186.40
-201.82
-213.43
-219.35
-219.16
-213.78
-208.61
-208.04
-213.41
-222.67
-232.47
-240.53
-246.47
-251.54
-257.73
-272.72
-301.53
-343.61
-392.86
-441.37
-483.12
-515.50
-538.68
-554.45
-572.69
-600.55
-638.75
-681.69
-722.30
-756.44
-784.28
-808.88
-785.80
-692.70
-538.05
-358.24
-192.04
-60.06
36.89
109.61
172.15
235.74
297.47
349.55
384.98
401.96
403.37
394.57
381.32
368.13
357.21
342.38
318.06
283.57
244.53
209.12
183.67
170.64
168.33
173.82
179.77
180.88
175.84
167.40
159.33
152.96
147.34
139.72
127.14
105.87
75.33
37.79
-0.91
-33.79
-55.26
-62.54
-55.93
-37.96
-12.76
16.22
45.66
73.94
100.37
124.54
146.11
164.84
180.57
192.34
197.83
193.39
175.61
143.31
99.29
50.37
5.29
-28.59
-48.17
-55.19
-54.47
-50.83
-47.07
-43.60
-39.59
-34.61
-29.42
-25.60
-24.44
-25.97
-28.83
-31.10
-31.13
-28.46
-23.92
-19.06
-15.49
-14.04
-14.59
-16.08
-17.12
-16.68
-14.48
-11.06
-7.42
-4.53
-2.94
-2.54
-2.75
-2.75
-1.97
-0.24
2.21
4.78
7.04
8.72
9.86
10.79
11.99
13.92
17.04
21.70
27.95
35.93
45.46
56.11
67.19
77.87
86.90
93.09
95.39
92.98
85.47
72.75
55.08
33.04
7.98
-18.72
-45.29
-69.76
-90.65
-105.92
-114.12
-114.51
-107.12
-92.82
-73.30
-50.53
-26.60
-3.66
16.49
32.06
41.53
44.05
39.66
28.77
13.07
-4.96
-22.72
-37.80
-48.89
-55.96
-60.02
-62.58
-65.29
-68.85
-73.05
-77.23
-80.53
-82.72
-84.25
-86.43
-89.80
-94.93
-101.90
-110.30
-119.65
-127.52
-130.53
-124.59
-106.35
-75.32
-35.13
7.02
42.84
65.64
73.01
66.88
52.06
33.92
16.31
1.39
-9.57
-15.14
-13.42
-2.72
17.24
44.49
75.16
104.46
127.92
142.87
148.61
146.19
137.53
124.87
109.59
92.22
72.84
51.49
29.00
7.00
-12.32
-26.59
-32.62
-28.03
-12.01
13.51
43.07
68.56
81.33
74.97
47.48
3.09
-50.39
-103.97
-149.63
-181.34
-195.40
-190.48
-167.74
-131.10
-84.88
-34.39
15.45
61.51
102.95
140.65
176.16
211.08
234.85
241.00
227.12
196.08
154.16
107.88
61.49
16.76
-26.30
-67.98
-106.02
-137.67
-161.47
-176.77
-183.51
-182.54
-175.34
-163.22
-146.80
-124.18
-93.00
-50.73
-0.03
54.19
106.85
153.89
191.97
217.51
227.20
217.92
188.72
142.77
88.01
34.84
-7.58
-34.65
-47.30
-49.78
-47.35
-43.64
-39.84
-35.41
-29.91
-23.99
-19.24
-17.06
-17.45
-19.17
-20.46
-19.78
-16.61
-11.65
-6.27
-1.92
0.61
1.56
1.94
3.07
6.09
11.59
19.34
28.81
39.32
50.23
60.94
71.09
79.48
84.84
85.88
81.62
71.84
57.06
38.50
17.55
-4.08
-25.44
-45.86
-64.90
-81.89
-95.91
-105.95
-111.52
-112.71
-110.58
-106.85
-103.09
-100.55
-100.04
-101.98
-106.26
-111.62
-115.08
-112.60
-100.51
-77.37
-45.42
-10.31
21.02
43.04
54.13
56.18
53.09
48.58
44.59
41.18
37.60
33.62
29.93
27.72
27.64
29.26
31.25
32.21
31.17
28.38
24.96
22.28
21.31
22.08
23.74
25.09
25.20
23.87
21.77
20.02
19.56
20.67
22.74
24.63
25.34
24.49
22.62
20.93
20.69
22.47
26.00
29.95
32.90
33.84
32.59
29.83
26.58
23.82
22.20
22.34
24.20
26.65
27.25
22.33
8.36
-15.73
-47.36
-80.37
-107.12
-121.45
-121.11
-108.52
-88.92
-67.91
-49.22
-34.20
-22.64
-14.01
-8.43
-6.41
-8.00
-12.30
-17.26
-20.69
-21.14
-18.57
-14.12
-9.52
-6.29
-4.84
-4.57
-3.93
-1.34
3.76
10.74
18.14
24.30
28.03
29.29
29.10
29.01
30.04
32.10
33.84
33.35
29.05
20.54
8.73
-4.49
-17.15
-28.35
-38.70
-49.91
-63.75
-81.14
-101.80
-124.88
-149.46
-173.91
-195.94
-212.20
-218.46
-210.82
-187.42
-149.66
-102.24
-51.07
-0.24
48.92
95.24
137.31
172.07
194.85
201.15
189.22
159.41
119.10
80.42
54.12
44.79
48.93
58.09
65.32
66.01
59.23
47.27
33.52
20.59
10.54
3.17
-2.68
-8.32
-15.37
-24.10
-32.09
-35.50
-32.31
-22.60
-9.24
4.32
15.60
23.44
28.22
30.99
32.54
31.56
27.22
19.76
12.00
9.29
17.10
38.92
73.94
116.98
158.32
192.04
212.72
220.32
219.32
215.56
212.80
206.87
198.63
181.43
151.50
109.20
60.04
11.84
-28.89
-59.30
-80.49
-95.35
-108.06
-119.78
-130.14
-137.36
-140.35
-139.81
-138.06
-137.41
-138.73
-142.84
-145.46
-144.61
-139.69
-131.71
-123.00
-116.66
-115.26
-120.19
-132.02
-148.29
-164.27
-173.93
-172.68
-159.94
-139.24
-114.47
-88.42
-62.57
-37.32
-13.99
4.23
12.87
8.17
-10.43
-36.41
-61.66
-82.12
-99.46
-118.94
-144.65
-176.20
-209.15
-238.16
-255.55
-258.38
-250.28
-238.32
-227.00
-214.87
-195.44
-161.25
-107.55
-27.47
81.08
212.73
355.92
497.61
626.72
734.89
815.62
826.26
742.61
574.96
362.95
148.43
-43.07
-202.48
-330.06
-430.14
-508.19
-565.22
-599.79
-613.38
-611.40
-599.82
-582.37
-560.20
-532.77
-499.19
-455.36
-398.59
-330.65
-257.30
-185.00
-118.33
-59.69
-10.10
30.01
63.59
93.70
121.22
144.70
162.05
171.86
173.54
167.25
153.55
135.32
116.29
99.78
88.23
83.13
85.27
94.62
110.71
132.76
160.83
195.65
238.19
289.64
350.64
421.47
501.42
588.10
676.34
757.67
821.42
857.66
861.38
833.35
780.50
713.42
643.35
578.90
524.07
479.31
444.30
420.83
410.13
412.00
423.69
440.67
457.46
467.53
465.13
447.30
416.04
372.99
318.64
251.81
171.53
77.97
-28.99
-147.92
-273.95
-396.50
-506.26
-596.80
-665.87
-713.14
-731.90
-714.38
-661.31
-597.07
-531.54
-466.79
-399.28
-331.41
-267.76
-213.07
-175.21
-161.78
-177.10
-217.91
-275.01
-331.57
-380.21
-419.21
-439.80
-440.17
-423.75
-396.91
-365.02
-334.30
-310.26
-285.51
-254.43
-212.40
-161.17
-105.71
-51.34
-0.69
44.98
85.53
121.12
151.45
178.07
197.67
206.08
200.83
182.61
153.79
117.74
78.38
38.56
7.13
-9.83
-11.34
-1.92
11.15
21.00
24.30
21.86
16.75
12.62
9.89
6.90
1.71
-6.13
-15.24
-22.89
-26.59
-25.50
-20.29
-13.57
-8.16
-5.62
-5.88
-7.85
-9.92
-10.68
-9.72
-7.38
-5.09
-4.49
-6.79
-12.30
-20.79
-31.39
-42.61
-53.07
-61.53
-67.54
-71.35
-74.03
-75.64
-75.79
-73.43
-66.72
-53.94
-33.82
-6.47
26.66
62.91
99.51
133.08
159.38
173.94
173.24
156.73
127.85
93.32
60.91
36.74
22.99
17.93
17.90
19.60
21.58
24.32
27.61
30.18
29.68
23.38
9.40
-12.42
-40.36
-70.92
-99.20
-119.87
-129.09
-126.15
-114.15
-99.26
-88.18
-85.19
-90.44
-100.36
-109.55
-113.76
-111.38
-103.27
-91.23
-76.21
-57.72
-34.64
-6.70
24.49
55.76
83.09
102.87
113.47
115.65
112.37
107.49
104.41
104.79
108.02
111.68
112.93
109.94
102.83
93.75
85.68
81.29
81.62
85.78
91.58
96.75
99.84
99.23
93.83
82.77
65.78
44.02
20.30
-1.58
-17.83
-26.51
-28.40
-26.41
-23.79
-21.60
-17.99
-8.82
8.56
32.64
56.56
70.17
64.94
38.78
-1.87
-44.50
-76.54
-91.29
-90.33
-81.48
-73.73
-72.07
-75.42
-78.66
-76.76
-68.22
-55.93
-45.07
-40.02
-41.95
-48.92
-57.40
-64.10
-66.68
-63.43
-52.69
-33.25
-5.54
27.19
58.27
79.23
83.07
67.82
38.10
3.06
-27.52
-47.64
-56.21
-56.30
-52.42
-47.76
-42.75
-36.47
-28.87
-21.69
-18.04
-19.62
-25.47
-32.01
-34.84
-30.85
-20.35
-7.03
7.16
18.20
25.78
32.86
43.55
60.69
84.01
111.57
138.35
158.29
165.74
157.87
135.01
100.51
58.79
17.34
-18.44
-46.98
-69.72
-90.00
-110.26
-131.58
-152.71
-170.42
-179.81
-176.16
-156.32
-120.10
-71.93
-20.59
22.14
45.35
43.61
20.08
-14.42
-45.58
-61.57
-58.15
-39.37
-14.78
6.03
17.60
20.38
18.43
16.18
15.74
15.41
11.79
0.97
-17.68
-41.97
-67.19
-87.34
-97.20
-92.45
-74.37
-47.07
-15.74
15.22
43.22
67.56
88.00
102.97
109.29
103.59
85.57
59.10
31.65
11.41
3.89
9.24
21.81
32.97
34.72
23.98
3.10
-22.12
-45.59
-63.36
-74.66
-79.78
-79.06
-72.43
-59.70
-41.68
-21.01
-1.57
13.07
21.01
23.18
22.76
23.51
27.93
36.05
44.93
50.34
49.00
40.54
27.83
16.08
11.16
17.22
35.53
62.81
92.12
114.44
121.01
106.69
72.51
27.05
-16.03
-41.60
-39.51
-8.83
41.30
94.45
133.35
146.73
133.69
98.65
55.04
18.56
0.87
5.59
27.76
56.03
77.05
82.68
73.28
55.41
34.77
12.68
-12.14
-40.82
-70.48
-93.04
-99.18
-83.67
-48.69
-4.13
36.38
61.32
64.89
47.87
16.55
-20.46
-55.42
-82.35
-97.00
-96.09
-78.42
-47.06
-10.02
21.34
36.56
30.58
6.12
-27.91
-60.41
-83.38
-95.13
-99.05
-100.20
-101.66
-103.17
-102.57
-97.79
-88.42
-77.04
-67.66
-64.23
-69.45
-84.38
-108.91
-142.89
-185.40
-233.54
-275.96
-298.61
-292.98
-262.49
-220.32
-181.11
-154.41
-145.07
-146.81
-152.89
-157.20
-156.91
-151.78
-142.02
-124.64
-96.94
-56.39
-1.35
67.09
148.26
239.07
334.37
427.77
513.20
585.72
642.23
681.26
681.45
630.65
530.42
396.43
249.93
108.70
-16.50
-120.45
-201.24
-259.77
-295.96
-312.80
-316.48
-314.59
-313.96
-318.34
-327.56
-338.36
-345.99
-343.39
-325.18
-288.83
-236.38
-174.08
-111.34
-59.27
-27.49
-20.56
-33.88
-56.03
-73.05
-74.93
-59.26
-31.46
-1.65
20.27
28.57
23.44
8.21
-13.67
-40.58
-71.86
-106.12
-139.87
-167.66
-183.78
-184.33
-168.72
-139.55
-101.65
-59.52
-15.80
29.00
75.95
126.08
179.00
232.72
284.23
330.61
370.22
403.36
431.91
458.89
487.63
520.65
558.57
599.13
636.82
663.93
672.96
659.26
623.29
570.68
510.30
450.92
398.44
355.03
319.81
290.62
264.99
240.94
216.58
189.67
158.00
120.24
76.83
29.97
-17.16
-61.87
-102.93
-140.64
-176.39
-211.85
-247.57
-282.80
-315.59
-343.39
-364.90
-380.38
-391.62
-401.34
-412.67
-427.69
-445.78
-462.67
-470.29
-460.14
-425.79
-365.30
-282.55
-187.27
-92.01
-7.23
62.02
117.30
161.83
197.23
221.34
228.20
209.70
161.00
84.85
-7.65
-99.85
-178.94
-239.07
-281.61
-305.41
-309.19
-293.10
-260.63
-225.50
-188.97
-149.34
-105.36
-54.54
2.98
62.65
116.33
154.87
172.10
169.17
152.47
132.10
115.29
108.05
108.81
108.82
98.45
74.79
44.24
16.18
-1.75
-9.11
-9.99
-11.52
-20.53
-40.86
-72.16
-110.71
-150.98
-185.02
-204.88
-204.49
-183.87
-148.99
-108.22
-67.68
-29.45
6.45
39.61
67.90
88.36
98.20
97.13
88.14
76.89
69.45
69.46
76.64
87.66
97.94
103.12
101.70
93.67
81.22
67.09
52.88
37.57
18.69
-6.59
-40.16
-81.85
-129.30
-178.18
-223.66
-261.84
-291.63
-313.60
-329.92
-343.86
-358.86
-377.88
-401.96
-429.76
-450.79
-455.99
-437.54
-391.92
-321.79
-235.52
-144.44
-58.65
15.91
78.60
131.29
176.90
216.92
250.83
277.40
296.07
308.31
317.18
326.28
337.97
353.85
374.48
399.99
430.31
464.08
497.83
525.76
540.84
537.25
513.59
473.20
423.10
371.24
323.19
280.33
240.20
199.05
154.86
109.75
69.03
39.10
24.87
27.86
46.50
77.57
117.30
162.27
208.48
249.35
277.12
285.66
273.22
243.73
205.64
166.65
131.22
99.01
63.76
18.56
-39.95
-109.81
-184.62
-255.65
-317.71
-368.02
-405.92
-436.00
-464.14
-495.01
-530.76
-570.36
-608.52
-640.81
-660.66
-660.65
-640.74
-607.13
-570.77
-543.74
-535.39
-547.55
-579.77
-625.71
-647.71
-616.47
-523.03
-384.16
-227.66
-89.29
33.67
143.49
236.18
304.79
338.22
331.88
293.92
243.21
202.28
188.06
200.66
229.84
262.40
285.25
292.23
285.04
270.67
259.42
260.71
276.18
303.46
339.11
377.87
415.21
447.74
458.51
435.99
379.90
300.04
211.15
125.62
49.95
-13.79
-66.11
-108.70
-141.54
-164.47
-178.95
-187.79
-193.93
-198.80
-202.59
-205.86
-207.23
-203.77
-193.04
-174.06
-148.27
-119.01
-89.63
-63.16
-42.44
-29.62
-25.19
-31.89
-48.30
-68.84
-90.93
-112.55
-132.08
-148.41
-160.56
-167.48
-168.48
-161.43
-145.32
-120.90
-90.08
-55.84
-21.74
9.17
34.88
54.91
72.28
90.37
111.55
136.61
164.21
191.53
215.93
235.55
249.78
261.84
275.45
293.42
317.24
347.20
383.33
425.73
473.23
506.97
508.66
465.27
377.34
260.20
136.52
26.83
-56.56
-111.39
-143.03
-157.65
-160.69
-155.74
-145.98
-134.22
-124.67
-120.78
-123.96
-133.00
-142.88
-148.09
-144.94
-133.65
-118.02
-103.75
-95.50
-94.99
-100.17
-104.11
-97.65
-74.42
-35.74
8.85
46.10
65.72
64.44
46.25
19.89
-5.78
-24.75
-35.70
-38.80
-33.57
-19.22
3.73
31.86
59.45
79.70
86.65
77.03
51.31
13.20
-31.45
-77.22
-120.96
-161.25
-197.37
-228.85
-255.12
-275.35
-288.80
-295.73
-297.70
-297.12
-294.75
-288.34
-272.98
-242.69
-192.81
-122.58
-37.29
55.17
137.38
190.67
205.86
187.14
147.48
100.70
56.17
17.86
-16.03
-46.96
-73.29
-90.13
-92.37
-77.30
-45.27
2.21
59.17
118.09
172.55
218.21
253.26
275.41
280.86
266.25
231.66
182.08
126.76
78.69
41.54
15.57
-1.85
-14.09
-22.74
-26.49
-22.69
-11.14
6.10
22.47
30.92
26.72
9.88
-15.28
-42.46
-66.84
-86.89
-103.78
-120.08
-136.32
-151.23
-162.54
-168.92
-169.76
-165.55
-157.78
-147.97
-137.47
-126.14
-113.52
-99.51
-84.76
-70.32
-57.00
-45.36
-35.19
-25.82
-15.38
-2.32
14.13
34.18
55.17
75.88
95.75
114.59
132.40
149.83
166.55
181.07
191.38
196.41
196.97
195.11
193.75
196.64
208.35
230.53
260.08
288.41
304.49
298.38
264.36
203.40
115.94
13.82
-84.89
-163.22
-213.25
-236.01
-238.21
-227.86
-211.95
-194.83
-177.04
-158.48
-138.45
-116.24
-89.43
-56.04
-16.25
21.84
48.58
57.09
45.84
25.08
1.62
-18.77
-31.82
-34.85
-28.30
-11.94
14.37
49.45
90.50
133.04
173.61
209.86
240.49
264.74
282.64
294.04
297.78
291.93
274.12
244.29
204.76
159.48
112.31
66.01
21.23
-22.95
-67.27
-110.99
-150.58
-181.29
-199.67
-205.42
-201.33
-192.83
-186.07
-186.22
-196.65
-217.46
-245.23
-273.16
-292.68
-296.13
-280.69
-249.88
-211.97
-175.88
-146.50
-123.00
-100.15
-71.86
-34.91
8.93
53.34
90.17
112.27
115.24
97.50
60.17
7.79
-49.92
-99.57
-129.59
-135.44
-120.67
-92.59
-58.25
-22.32
12.65
44.64
71.36
90.09
99.77
101.71
99.62
97.78
99.18
104.53
111.96
118.28
118.71
110.08
91.84
66.13
36.57
7.04
-19.30
-40.50
-53.90
-60.06
-59.86
-53.98
-42.72
-26.23
-5.16
19.35
45.63
71.68
94.02
110.88
121.70
126.34
124.78
117.00
102.79
81.97
54.62
19.79
-21.35
-65.97
-110.27
-150.18
-182.20
-203.91
-214.15
-205.18
-179.14
-140.80
-95.49
-47.89
-1.51
41.35
78.91
109.73
133.77
148.87
154.20
149.85
136.80
116.38
90.41
60.40
27.28
-7.32
-44.55
-85.33
-128.84
-175.66
-219.82
-251.80
-262.77
-248.17
-209.18
-152.68
-87.52
-21.87
42.56
96.93
132.76
146.33
139.91
121.18
99.51
82.57
74.33
74.44
79.34
85.89
92.82
99.68
106.51
112.60
116.13
114.55
106.55
92.27
73.88
54.77
36.70
20.16
4.71
-12.32
-32.88
-57.18
-84.06
-110.67
-133.32
-150.62
-163.38
-162.14
-144.72
-114.02
-76.45
-39.02
-10.23
12.85
33.86
54.99
76.58
95.23
106.26
105.96
92.36
65.05
25.39
-23.29
-74.78
-121.06
-155.43
-172.02
-167.33
-142.29
-102.91
-58.04
-17.35
12.78
30.73
37.99
37.82
33.25
26.08
17.34
8.81
2.28
-0.70
0.13
2.89
4.57
2.60
-3.95
-13.72
-23.39
-29.35
-29.14
-22.99
-12.70
-1.22
8.72
15.92
21.02
26.22
34.45
48.50
70.13
99.28
132.93
165.21
188.98
198.03
190.70
171.62
150.45
138.18
142.57
165.00
200.51
240.15
274.03
294.34
296.76
280.42
247.40
202.00
149.71
96.48
50.64
18.89
4.24
5.85
19.88
41.18
64.66
86.12
102.74
113.21
117.20
115.46
109.35
100.13
88.67
75.17
59.66
42.54
24.87
7.93
-6.93
-18.97
-28.30
-35.97
-43.67
-52.97
-64.74
-78.89
-94.89
-112.12
-130.42
-150.27
-172.31
-196.79
-222.81
-248.01
-269.13
-282.98
-287.49
-282.41
-269.08
-250.02
-228.34
-207.36
-189.98
-178.08
-171.68
-167.73
-160.36
-142.17
-106.88
-52.21
18.47
97.02
173.14
237.89
285.43
313.73
323.76
317.93
299.00
269.46
232.43
191.89
152.55
117.81
88.67
63.24
37.37
6.58
-32.22
-77.34
-121.46
-152.97
-161.96
-144.19
-103.50
-50.60
0.28
34.85
45.45
32.85
5.85
-27.59
-61.92
-94.95
-126.20
-155.90
-188.20
-225.00
-264.79
-300.03
-328.05
-348.66
-363.93
-375.85
-386.48
-404.11
-433.02
-471.85
-509.75
-544.22
-577.08
-612.15
-648.92
-681.98
-710.98
-731.43
-736.22
-712.61
-664.34
-603.08
-543.48
-494.25
-403.36
-250.00
-49.20
112.94
223.66
288.12
329.10
355.95
376.40
396.95
412.89
420.02
417.57
415.47
413.27
408.30
396.65
379.06
359.43
336.08
310.01
287.03
282.24
301.14
345.45
404.16
458.67
491.28
489.96
456.58
404.20
358.45
326.82
308.66
297.36
286.33
271.22
248.06
211.48
157.11
88.35
9.87
-69.96
-141.79
-195.49
-222.47
-219.67
-191.14
-146.65
-97.85
-56.79
-30.12
-18.62
-18.41
-23.60
-29.70
-35.00
-39.25
-42.61
-45.67
-48.31
-50.52
-52.93
-55.93
-60.10
-65.69
-71.82
-76.69
-78.67
-77.39
-72.14
-63.59
-52.59
-40.76
-29.53
-19.24
-9.08
2.25
16.14
33.56
54.26
78.11
103.69
129.14
152.87
173.76
190.79
202.81
208.26
200.61
179.23
145.22
101.00
50.31
-2.24
-51.95
-94.90
-128.78
-154.05
-170.85
-179.66
-180.58
-172.82
-155.10
-126.49
-87.21
-38.62
14.91
69.51
120.60
162.86
190.63
199.12
186.41
155.07
112.12
67.16
29.70
5.09
-6.34
-7.85
-3.83
2.30
9.38
15.61
18.89
16.78
6.38
-14.18
-44.66
-81.80
-119.64
-150.45
-167.60
-167.43
-150.90
-123.89
-94.56
-70.26
-54.94
-48.37
-47.37
-48.44
-49.44
-50.32
-52.50
-56.51
-61.46
-65.23
-65.73
-61.84
-54.89
-46.74
-39.29
-33.87
-29.71
-24.76
-16.31
-1.91
20.19
50.96
90.75
139.45
190.21
235.41
268.32
285.98
289.62
283.32
271.32
256.42
240.06
222.95
206.84
193.71
184.68
178.32
170.69
156.55
131.62
95.90
54.22
15.05
-13.55
-26.44
-25.79
-16.60
-4.97
3.05
3.47
-5.93
-25.64
-55.03
-92.28
-134.53
-177.32
-215.69
-246.87
-269.81
-286.06
-298.80
-312.00
-328.80
-350.76
-377.09
-397.21
-402.95
-388.54
-352.68
-298.77
-233.88
-165.79
-101.10
-43.24
8.68
55.82
98.58
135.63
165.32
186.97
202.68
215.85
230.40
250.83
278.69
312.53
347.94
379.21
400.13
406.69
397.29
361.38
298.42
219.70
143.63
84.59
49.68
31.00
21.17
15.98
13.75
11.88
5.85
-10.31
-41.37
-88.36
-148.32
-213.32
-274.15
-315.22
-323.59
-296.51
-242.84
-177.03
-111.60
-53.64
-3.08
41.99
87.58
135.58
181.45
218.00
239.58
242.97
227.30
192.64
140.86
82.61
34.58
9.35
9.98
28.69
49.02
49.63
22.15
-31.50
-101.07
-172.76
-239.60
-301.15
-349.46
-366.14
-340.42
-271.48
-169.52
-63.28
40.07
134.27
212.15
270.32
303.99
310.51
292.64
258.24
219.20
189.34
174.65
174.07
180.81
183.36
170.07
135.76
84.28
27.56
-18.18
-43.80
-46.50
-28.32
5.15
47.26
92.18
135.00
170.89
195.42
199.47
176.55
126.05
53.51
-32.03
-120.97
-205.60
-281.46
-347.20
-409.22
-472.69
-536.93
-594.76
-636.36
-653.93
-644.94
-613.02
-566.42
-521.06
-489.23
-475.11
-475.14
-482.84
-492.91
-501.76
-506.07
-467.14
-367.72
-220.37
-61.34
74.27
169.33
223.70
247.00
251.23
246.21
231.63
205.83
170.31
130.76
93.97
64.10
42.10
25.54
13.09
-1.15
-20.54
-44.08
-67.02
-84.40
-93.99
-96.48
-93.81
-88.31
-84.90
-85.97
-90.44
-94.39
-93.18
-82.99
-65.55
-42.39
-15.32
12.15
37.53
59.53
77.65
91.14
98.51
97.85
88.11
68.81
39.78
2.91
-38.81
-81.98
-123.43
-160.44
-190.45
-210.34
-217.42
-209.58
-182.95
-135.38
-67.66
16.20
110.03
206.96
300.64
385.19
455.23
511.90
556.46
588.42
605.45
605.21
587.57
555.19
512.35
463.07
419.81
392.00
382.62
387.91
401.32
418.06
436.72
458.27
483.53
525.08
591.52
683.18
791.28
903.05
1007.71
1098.64
1172.40
1163.09
1035.65
795.76
490.26
177.25
-102.75
-332.96
-512.42
-639.81
-732.19
-790.35
-813.23
-803.81
-770.97
-725.36
-674.33
-619.19
-558.76
-495.34
-423.61
-342.09
-255.02
-172.49
-107.07
-69.06
-63.33
-87.97
-135.49
-187.38
-226.59
-243.66
-239.20
-220.89
-197.69
-176.07
-158.71
-145.90
-133.35
-118.07
-99.58
-79.58
-60.20
-42.08
-24.66
-7.13
10.42
28.39
45.47
59.65
68.78
71.29
66.75
55.62
38.76
17.00
-7.90
-34.58
-61.56
-87.30
-110.53
-130.25
-146.06
-159.96
-171.14
-178.80
-181.90
-178.99
-168.91
-151.55
-128.03
-100.95
-73.75
-49.69
-32.17
-24.09
-27.03
-39.16
-57.31
-75.18
-85.56
-83.47
-68.34
-44.98
-21.42
-5.17
0.00
-5.18
-16.55
-29.25
-40.22
-48.96
-56.02
-61.75
-65.37
-65.17
-60.01
-50.02
-36.90
-23.50
-12.74
-6.68
-6.09
-10.05
-16.43
-23.06
-28.30
-31.61
-33.65
-35.72
-39.16
-44.92
-52.74
-61.13
-68.48
-73.76
-76.85
-78.04
-77.16
-72.49
-64.44
-52.15
-34.51
-12.43
11.45
34.19
54.60
74.45
97.68
127.66
165.45
210.61
259.37
305.95
344.29
369.94
381.26
379.27
366.61
346.98
327.17
312.95
308.07
313.55
327.82
347.40
367.00
379.80
362.45
301.93
200.66
78.69
-36.93
-126.22
-182.12
-208.38
-214.03
-207.66
-191.07
-165.55
-133.86
-101.89
-77.44
-67.37
-75.28
-100.73
-141.77
-185.90
-218.20
-227.55
-211.65
-177.47
-137.16
-102.60
-80.90
-72.55
-71.19
-70.01
-65.08
-56.67
-47.83
-41.50
-38.69
-38.53
-39.21
-38.34
-35.51
-31.93
-29.75
-30.84
-36.03
-44.96
-56.35
-68.90
-80.27
-88.42
-91.75
-89.15
-79.70
-62.48
-36.76
-2.31
37.69
77.51
109.29
125.49
121.91
99.99
66.65
31.62
3.42
-13.66
-20.03
-19.47
-16.25
-12.96
-9.98
-6.63
-2.54
1.38
3.66
3.39
0.86
-2.53
-4.97
-5.01
-2.45
1.75
5.98
8.72
9.33
8.17
6.35
5.16
5.58
7.77
11.17
14.84
18.08
20.77
23.48
27.16
32.73
40.80
51.33
63.50
75.91
87.08
95.47
99.87
99.47
93.79
82.74
66.61
46.10
22.34
-3.17
-28.71
-52.40
-72.42
-87.33
-96.19
-98.62
-95.02
-86.07
-72.80
-56.42
-38.34
-19.96
-2.58
12.65
24.88
33.40
37.91
38.28
34.72
27.63
17.81
6.50
-5.00
-15.75
-24.77
-31.30
-35.26
-36.87
-37.06
-36.58
-35.92
-35.49
-35.66
-36.45
-37.62
-39.50
-42.12
-45.68
-50.21
-55.02
-59.63
-63.69
-67.03
-69.72
-72.81
-77.07
-83.59
-92.83
-104.07
-116.09
-128.13
-140.47
-154.57
-173.82
-196.27
-221.64
-249.14
-276.27
-299.94
-318.84
-334.03
-337.29
-322.86
-286.74
-228.70
-159.46
-77.70
19.86
132.83
254.17
372.06
474.48
554.03
607.60
635.93
622.57
561.13
458.95
334.12
206.83
90.61
-8.06
-88.26
-151.28
-197.82
-229.44
-247.37
-253.98
-252.48
-246.65
-239.17
-231.66
-223.41
-212.96
-197.83
-177.13
-152.58
-127.48
-105.53
-89.40
-80.41
-76.20
-73.07
-66.55
-53.95
-35.02
-11.16
15.64
43.31
70.34
99.24
132.90
173.20
219.28
267.68
313.87
353.71
384.53
405.31
421.48
439.11
462.66
493.22
529.25
568.75
610.75
654.89
671.68
639.55
550.49
415.39
257.55
101.21
-35.19
-140.91
-212.90
-255.56
-273.33
-272.08
-257.51
-235.19
-209.80
-185.05
-163.79
-148.11
-139.68
-135.10
-129.76
-120.02
-104.40
-84.55
-63.37
-43.64
-27.38
-16.54
-9.46
-3.96
1.72
7.81
13.23
16.35
15.92
11.48
2.10
-10.86
-26.15
-42.55
-59.53
-77.13
-96.34
-119.06
-140.42
-158.67
-171.98
-180.34
-184.05
-183.41
-178.62
-169.98
-158.05
-143.80
-129.63
-117.61
-111.18
-112.45
-121.20
-134.67
-148.63
-158.76
-161.58
-155.94
-142.20
-124.47
-107.12
-93.19
-83.93
-79.57
-80.75
-88.75
-106.11
-120.66
-125.45
-120.11
-110.72
-104.14
-103.38
-106.98
-110.07
-106.13
-88.68
-56.75
-13.80
32.96
75.10
105.72
121.79
124.90
119.67
111.43
101.37
88.51
71.87
52.16
32.13
15.41
5.02
1.67
5.18
12.64
20.97
28.68
35.91
43.74
53.04
63.79
75.51
87.20
97.13
103.79
106.33
104.52
98.84
90.56
81.63
75.24
74.22
79.53
89.52
100.21
106.52
104.47
93.15
72.66
48.09
26.33
12.74
9.19
13.45
20.76
25.97
25.14
16.15
-0.96
-24.79
-52.23
-78.55
-98.10
-106.65
-104.17
-95.89
-91.37
-100.33
-128.51
-174.17
-227.95
-276.34
-306.87
-312.77
-294.70
-259.57
-216.89
-175.18
-139.38
-110.42
-86.11
-62.77
-36.59
-4.76
33.96
78.39
124.48
165.63
193.71
201.61
185.86
148.20
96.15
41.33
-3.37
-27.06
-23.96
5.39
54.86
114.86
175.23
228.28
270.09
300.37
321.29
336.06
348.13
361.22
379.03
404.13
436.59
472.38
503.10
518.30
509.07
471.94
410.74
335.10
257.01
186.10
126.69
77.51
34.02
-8.33
-51.61
-94.91
-135.53
-170.91
-200.45
-225.83
-250.14
-276.03
-304.67
-335.40
-366.38
-395.80
-422.75
-446.58
-465.60
-476.61
-475.08
-456.82
-419.93
-365.62
-297.90
-221.75
-141.49
-60.96
15.47
81.39
128.92
150.68
142.54
106.47
51.14
-10.18
-63.38
-98.20
-111.62
-108.92
-101.69
-103.01
-121.52
-157.28
-201.65
-241.43
-264.73
-265.84
-246.75
-214.65
-177.12
-138.75
-100.36
-61.11
-21.18
17.41
51.90
80.76
105.55
129.82
157.65
191.38
230.45
271.30
308.90
339.25
361.25
377.64
392.82
411.29
435.76
464.94
491.76
505.19
494.56
453.97
386.11
299.23
205.05
115.14
36.87
-29.21
-86.71
-139.55
-188.95
-231.91
-266.19
-290.74
-306.04
-305.18
-283.24
-240.42
-183.34
-129.82
-82.89
-41.76
-6.10
25.42
51.63
69.98
78.85
78.33
69.90
56.78
39.91
18.86
-6.52
-35.51
-66.70
-97.44
-124.24
-143.55
-152.21
-150.52
-141.10
-127.48
-113.18
-101.61
-95.48
-96.77
-106.48
-124.77
-152.43
-190.57
-240.01
-300.87
-371.92
-448.94
-524.30
-587.71
-628.52
-639.92
-621.29
-577.91
-519.32
-455.35
-393.02
-335.29
-281.87
-231.44
-183.52
-138.93
-99.03
-64.30
-33.83
-5.59
22.75
52.62
84.45
117.14
149.00
178.43
204.52
227.31
247.86
267.57
287.67
308.68
329.94
350.03
367.34
380.53
389.43
395.14
399.99
407.23
420.33
442.68
476.73
522.44
576.17
630.14
673.81
697.22
694.38
665.81
618.01
560.26
500.68
442.91
386.18
327.57
265.42
201.70
141.38
89.51
48.11
14.63
-17.20
-54.00
-99.95
-154.95
-215.43
-276.90
-335.75
-389.81
-436.92
-473.40
-494.69
-497.84
-484.55
-461.98
-440.09
-426.56
-422.25
-420.39
-410.73
-386.15
-347.72
-304.88
-270.02
-251.56
-248.90
-252.98
-251.90
-238.11
-212.90
-185.33
-166.53
-162.46
-169.87
-177.20
-171.29
-145.35
-103.93
-61.85
-36.49
-38.78
-66.76
-106.22
-138.07
-148.09
-134.33
-106.82
-81.01
-68.26
-69.80
-76.71
-76.15
-59.21
-26.02
14.40
49.73
70.71
75.80
70.60
63.97
64.29
76.68
102.32
139.75
186.52
239.58
295.42
349.47
395.62
428.62
445.70
447.30
436.31
416.38
389.80
356.86
315.50
261.92
194.81
117.22
35.73
-41.77
-108.43
-160.70
-197.01
-218.82
-232.42
-241.48
-245.34
-242.29
-231.38
-213.54
-191.59
-164.55
-131.46
-98.74
-69.36
-41.48
-14.39
11.04
32.87
49.02
65.33
87.61
108.76
125.72
142.76
162.88
187.62
217.40
251.95
299.64
366.26
438.08
504.53
564.19
615.11
655.59
684.59
645.50
506.46
353.52
227.53
113.70
10.86
-80.35
-158.48
-222.38
-272.04
-299.94
-302.06
-293.88
-286.70
-281.32
-277.82
-275.62
-273.95
-272.08
-262.85
-241.23
-216.90
-196.32
-178.05
-160.53
-142.19
-121.66
-97.77
-65.28
-20.64
29.15
76.80
117.63
145.95
157.57
151.80
132.42
108.54
89.30
77.06
71.17
69.96
70.65
72.04
75.53
83.86
99.30
120.60
141.76
156.41
161.50
158.24
151.34
146.23
145.64
148.14
149.26
144.37
131.08
109.89
82.51
50.23
13.75
-25.59
-64.06
-95.51
-113.67
-115.95
-105.97
-93.30
-89.41
-101.99
-130.77
-166.92
-196.93
-208.72
-196.75
-164.11
-120.77
-79.10
-49.20
-35.96
-38.67
-52.94
-73.37
-95.64
-117.31
-137.36
-155.17
-169.62
-179.19
-182.46
-179.30
-171.72
-163.52
-158.88
-160.43
-167.59
-176.50
-181.62
-178.28
-164.86
-143.44
-118.73
-95.71
-77.61
-64.82
-55.29
-46.01
-34.51
-19.98
-3.43
12.88
26.24
34.45
36.52
33.04
25.95
17.97
11.67
8.73
9.71
14.17
21.22
29.97
39.83
50.06
59.53
66.55
69.29
66.40
57.80
44.90
30.33
17.32
8.92
7.64
15.05
31.50
56.10
86.57
119.67
152.00
180.87
204.93
223.97
238.13
247.15
250.18
246.15
234.65
216.03
191.10
160.47
124.62
84.53
42.89
4.66
-23.90
-37.15
-32.40
-10.96
22.53
62.15
102.84
141.43
176.42
206.81
231.11
247.17
252.57
245.64
226.06
194.93
154.49
107.66
57.34
5.92
-45.10
-94.85
-142.49
-186.68
-225.53
-257.48
-282.52
-303.05
-323.31
-347.52
-377.14
-409.34
-437.28
-452.60
-448.79
-423.62
-379.85
-323.88
-263.65
-206.96
-160.61
-129.96
-118.43
-126.30
-149.63
-180.15
-206.82
-218.78
-208.68
-174.54
-119.76
-51.31
22.89
96.07
163.56
222.74
272.62
313.29
345.69
371.57
393.54
414.43
436.50
460.13
483.07
500.70
507.34
498.65
473.78
436.26
392.77
350.35
313.30
281.66
251.82
218.88
179.41
132.94
81.70
29.11
-21.85
-69.50
-113.19
-152.47
-186.68
-214.79
-236.14
-251.09
-261.17
-268.82
-277.01
-288.48
-304.88
-326.00
-349.28
-370.35
-384.49
-388.32
-380.87
-363.17
-336.75
-302.36
-259.94
-209.87
-154.64
-99.45
-50.67
-12.94
13.51
33.41
54.73
85.21
129.13
185.13
246.28
301.60
338.80
347.77
323.85
270.23
198.11
124.34
66.31
36.66
39.14
67.79
109.51
148.99
173.84
178.12
162.89
134.08
99.45
65.48
35.80
11.42
-8.23
-24.49
-38.79
-52.30
-65.40
-77.42
-86.70
-91.04
-88.46
-78.18
-61.08
-39.35
-15.69
7.61
28.93
46.90
59.77
65.22
60.93
46.05
22.57
-4.50
-28.33
-42.96
-46.03
-40.01
-31.65
-29.61
-40.95
-68.81
-111.55
-163.33
-215.66
-259.52
-287.18
-293.78
-278.23
-243.55
-196.24
-144.57
-96.48
-57.38
-28.92
-9.05
6.90
24.37
47.36
76.83
110.45
143.65
171.40
189.83
196.76
191.68
175.48
150.13
118.44
84.36
52.98
29.85
19.87
24.96
43.97
73.32
108.35
144.47
177.60
203.94
219.56
220.85
203.94
168.61
120.29
69.89
30.25
10.83
13.62
32.56
56.74
72.04
68.58
43.71
1.71
-49.66
-103.06
-153.94
-200.24
-240.67
-278.13
-315.05
-352.36
-389.38
-425.11
-459.68
-494.59
-531.05
-548.26
-529.20
-465.62
-364.29
-242.61
-118.49
-4.38
92.87
166.75
222.19
260.82
284.04
293.73
292.75
283.41
265.91
237.72
196.81
143.73
77.57
-0.20
-85.17
-169.45
-242.75
-294.41
-316.08
-303.54
-257.68
-187.47
-104.97
-21.47
55.90
124.65
184.67
234.65
270.15
285.85
275.20
235.99
172.85
96.69
21.08
-42.97
-90.70
-124.78
-152.43
-181.19
-214.25
-248.19
-274.18
-281.72
-263.58
-219.05
-154.52
-80.90
-9.75
48.79
87.09
100.91
90.26
59.96
19.64
-18.13
-40.95
-39.42
-11.67
36.12
93.18
149.21
197.74
237.29
269.64
298.16
327.47
359.32
391.31
417.62
431.32
426.80
402.05
359.38
295.24
217.95
143.60
87.22
54.44
41.97
41.15
46.51
55.20
65.34
75.77
83.58
84.48
74.82
53.67
23.18
-12.25
-48.76
-83.88
-115.89
-145.75
-176.56
-211.83
-253.51
-301.49
-353.95
-408.64
-462.04
-508.14
-540.05
-551.64
-539.17
-502.33
-444.63
-372.30
-293.23
-214.03
-138.73
-69.92
-10.54
35.83
66.11
79.24
77.07
63.21
43.00
22.13
5.65
-3.32
-3.74
3.77
17.12
35.09
51.84
60.47
58.34
50.23
43.56
42.28
44.09
43.64
36.45
21.63
3.55
-10.22
-11.53
3.71
34.37
74.95
118.84
161.34
200.94
239.64
272.34
294.64
303.59
299.34
284.74
264.14
242.16
222.76
208.84
201.25
199.31
198.98
193.76
177.09
145.90
102.84
55.81
14.96
-11.97
-21.39
-16.01
-2.32
12.88
25.64
35.39
43.12
49.68
54.64
57.44
57.14
54.07
49.88
46.91
47.35
52.15
60.82
71.71
83.38
94.07
103.22
111.17
118.57
125.85
132.54
137.09
136.73
133.69
128.30
121.19
113.35
105.68
98.85
93.00
87.88
83.11
78.47
73.28
67.42
61.22
54.99
49.06
43.50
38.28
33.31
28.70
24.15
19.61
15.14
10.80
6.46
1.90
-3.13
-8.72
-14.68
-21.02
-27.45
-33.71
-39.72
-45.61
-51.77
-58.62
-66.35
-74.83
-83.80
-92.75
-101.25
-109.21
-116.99
-125.31
-134.98
-146.50
-159.90
-174.76
-190.40
-206.11
-221.47
-236.55
-251.73
-267.82
-285.94
-307.24
-332.46
-360.97
-390.21
-415.67
-431.97
-434.66
-421.85
-394.95
-358.04
-316.30
-274.29
-234.95
-199.57
-168.48
-141.73
-119.31
-100.84
-85.43
-71.71
-58.39
-44.79
-31.11
-18.09
-6.61
2.84
10.39
16.48
21.62
26.03
29.65
32.25
33.66
33.86
32.92
30.99
28.05
24.08
19.10
13.35
7.34
1.81
-2.54
-5.18
-5.91
-4.77
-1.99
2.23
7.74
14.42
22.17
30.79
39.92
49.06
57.55
64.82
70.48
74.41
76.75
77.79
77.74
76.64
74.39
70.94
66.48
61.47
56.53
52.24
48.93
46.53
44.76
43.24
41.75
40.20
38.56
36.64
34.06
30.28
24.85
17.60
8.87
-0.71
-10.36
-19.38
-27.32
-33.96
-39.12
-42.53
-43.79
-42.43
-38.24
-31.38
-22.55
-12.80
-3.27
5.19
12.28
18.14
23.24
27.94
32.38
36.34
39.48
41.61
42.84
43.60
44.24
44.93
45.39
45.11
43.63
40.76
36.77
32.19
27.51
22.95
18.44
13.80
8.96
4.11
-0.31
-3.85
-6.28
-7.77
-8.92
-10.51
-13.23
-17.41
-22.88
-28.95
-34.64
-38.93
-41.01
-40.47
-37.28
-31.67
-24.01
-14.73
-4.33
6.45
16.61
25.00
30.63
32.99
32.38
29.87
26.99
25.16
25.28
27.43
30.90
34.49
36.87
37.02
34.59
29.99
24.25
18.67
14.36
11.91
11.32
12.08
13.51
15.00
16.01
16.00
14.30
10.23
3.34
-6.24
-17.68
-29.52
-40.12
-48.09
-52.53
-53.20
-50.30
-44.25
-35.64
-25.08
-13.32
-1.20
10.36
20.49
28.58
34.31
37.67
38.93
38.57
37.13
35.20
33.19
31.40
29.91
28.56
27.09
25.14
22.45
18.93
14.76
10.27
5.88
1.99
-1.17
-3.46
-5.04
-6.20
-7.37
-8.96
-11.20
-14.18
-17.79
-21.88
-26.30
-30.93
-35.48
-39.34
-41.54
-40.99
-36.89
-29.13
-18.52
-6.49
5.28
15.57
23.83
30.21
35.20
39.29
42.67
45.16
46.55
46.68
45.70
43.96
41.80
39.40
36.68
33.34
29.10
23.94
18.18
12.41
7.25
3.06
-0.11
-2.43
-4.15
-5.49
-6.61
-7.70
-9.04
-10.99
-13.96
-18.12
-23.32
-28.92
-33.86
-36.90
-36.95
-33.42
-26.51
-17.15
-6.68
3.65
13.00
21.20
28.51
35.22
41.43
46.78
50.70
52.68
52.52
50.43
47.04
43.14
39.41
36.25
33.70
31.46
29.13
26.29
22.67
18.26
13.19
7.75
2.22
-3.17
-8.19
-12.64
-16.33
-19.28
-21.76
-24.33
-27.63
-32.16
-37.84
-43.89
-48.95
-51.51
-50.54
-45.89
-38.40
-29.53
-20.78
-13.10
-6.69
-1.23
3.79
8.54
12.78
15.90
17.35
16.92
14.90
11.94
8.74
5.87
3.49
1.48
-0.52
-2.80
-5.42
-8.18
-10.66
-12.56
-13.69
-14.24
-14.61
-15.19
-16.31
-18.09
-20.50
-23.42
-26.68
-29.97
-32.71
-34.05
-33.01
-28.93
-21.80
-12.38
-2.08
7.65
15.80
22.16
27.24
31.78
36.28
40.67
44.34
46.54
46.82
45.33
42.67
39.57
36.48
33.38
29.92
25.73
20.76
15.42
10.34
6.02
2.50
-0.74
-4.42
-9.10
-14.85
-21.19
-27.43
-32.99
-37.82
-42.24
-46.71
-51.27
-55.37
-57.84
-57.41
-53.21
-45.28
-34.53
-22.43
-10.48
0.30
9.62
17.75
25.12
31.98
38.13
43.02
45.97
46.50
44.58
40.66
35.49
29.91
24.50
19.40
14.46
9.39
4.07
-1.27
-5.99
-9.31
-10.70
-10.23
-8.74
-7.58
-8.17
-11.53
-17.93
-26.93
-37.45
-48.09
-57.14
-62.72
-62.91
-56.35
-42.89
-24.12
-3.27
15.74
29.59
36.89
38.51
37.14
35.87
36.87
40.62
45.95
50.95
53.97
54.38
52.52
49.32
45.61
41.77
37.73
33.21
28.24
23.27
19.03
16.11
14.57
13.76
12.47
9.49
4.01
-4.01
-13.90
-24.65
-35.20
-44.74
-52.67
-58.55
-61.87
-62.04
-58.58
-51.42
-41.11
-28.79
-15.80
-3.35
7.80
17.43
25.74
33.00
39.37
44.62
48.31
50.05
49.80
47.97
45.36
42.95
41.54
41.58
42.89
44.81
46.60
47.69
47.86
47.26
46.29
45.46
45.03
44.80
44.13
42.52
39.81
36.08
31.73
27.27
23.46
20.92
19.93
20.42
22.90
28.20
37.04
49.77
66.82
89.03
117.16
151.03
188.32
225.34
256.46
274.67
272.86
246.05
193.09
116.98
24.58
-74.05
-165.08
-234.50
-271.25
-269.93
-231.36
-161.88
-71.82
26.10
111.10
161.79
166.08
128.45
64.93
-6.55
-71.82
-122.09
-153.23
-169.72
-177.09
-182.21
-192.80
-215.41
-252.56
-301.56
-352.34
-391.65
-405.74
-378.28
-308.46
-216.69
-135.06
-87.14
-74.53
-79.66
-79.75
-57.32
-10.92
49.39
109.80
159.84
196.27
222.18
243.70
255.77
256.79
245.95
223.31
190.80
152.97
116.45
87.05
67.30
55.45
48.48
42.34
33.97
22.80
10.91
1.51
-3.34
-4.37
-4.90
-7.64
-14.49
-25.32
-37.57
-47.16
-50.10
-44.42
-31.03
-13.30
5.31
21.91
35.40
46.63
57.60
70.32
85.50
102.13
117.71
129.27
133.66
128.37
112.16
85.40
50.62
12.13
-24.76
-55.43
-77.30
-90.34
-96.02
-95.24
-87.29
-70.41
-44.26
-12.48
16.28
30.16
18.20
-25.35
-98.32
-190.94
-288.54
-375.45
-438.46
-469.26
-465.50
-430.70
-373.08
-303.03
-230.31
-161.47
-99.24
-43.45
7.06
52.64
92.47
125.23
150.08
167.26
177.65
182.03
180.37
172.23
157.64
138.06
116.61
97.19
83.23
76.30
75.59
78.31
80.98
80.87
76.85
69.62
61.01
53.02
46.83
42.50
39.10
35.38
30.41
23.98
16.50
8.54
0.52
-7.49
-15.55
-23.49
-30.54
-35.43
-36.83
-33.87
-26.64
-16.16
-4.06
7.99
18.79
27.73
34.65
39.56
42.43
43.07
41.29
37.17
31.13
24.07
17.15
11.55
8.17
7.37
8.98
12.38
16.75
21.21
24.96
27.33
27.78
25.94
21.72
15.59
8.54
1.92
-2.93
-5.30
-5.28
-3.89
-2.58
-2.74
-4.99
-9.12
-14.17
-18.95
-22.49
-24.39
-24.77
-23.89
-21.85
-18.35
-12.89
-5.10
4.98
16.66
28.85
40.28
50.08
57.78
63.24
66.45
67.24
65.35
60.58
53.14
43.76
33.68
24.31
16.74
11.56
8.64
7.40
6.93
6.47
5.45
3.64
1.11
-1.93
-5.28
-8.86
-12.73
-16.98
-21.57
-26.23
-30.54
-34.15
-37.00
-39.52
-42.30
-45.75
-49.67
-53.14
-54.78
-53.19
-47.48
-37.48
-23.66
-6.94
11.56
30.52
48.29
62.94
72.63
76.24
74.04
67.93
60.96
56.32
56.07
60.41
67.49
74.20
77.30
74.49
64.94
49.46
29.79
8.08
-13.61
-33.70
-51.01
-64.74
-74.36
-79.69
-80.85
-78.46
-73.50
-67.16
-60.57
-54.61
-49.74
-46.17
-44.08
-43.65
-44.98
-47.84
-51.44
-54.47
-55.50
-53.44
-48.10
-40.28
-31.42
-23.04
-16.02
-10.32
-5.12
0.77
8.25
17.56
28.20
39.15
49.24
57.53
63.45
66.73
67.37
65.51
61.41
55.55
48.63
41.45
34.80
29.11
24.41
20.27
16.14
11.64
6.78
2.06
-1.75
-3.97
-4.36
-3.25
-1.47
-0.15
-0.23
-2.27
-6.22
-11.55
-17.48
-23.14
-27.82
-31.01
-32.41
-31.85
-29.29
-24.75
-18.41
-10.55
-1.57
7.99
17.57
26.62
34.70
41.43
46.71
50.44
52.68
53.48
52.89
50.99
48.01
44.45
40.93
37.88
35.54
34.02
33.30
33.18
33.42
33.90
34.52
35.31
36.12
36.81
37.45
38.40
40.07
42.79
46.70
51.58
57.04
62.07
66.04
69.34
73.19
79.16
88.53
102.03
119.38
139.87
160.92
180.86
200.14
221.04
245.87
275.46
308.90
342.66
372.24
389.58
388.77
368.52
331.84
282.93
224.69
159.06
85.67
4.78
-87.62
-192.27
-304.03
-413.20
-510.16
-589.01
-646.46
-684.14
-704.52
-717.97
-732.93
-752.16
-773.32
-793.40
-811.83
-828.02
-844.12
-811.50
-701.50
-521.28
-310.67
-111.68
53.24
168.76
251.23
312.24
359.28
389.77
401.47
395.97
377.42
349.67
314.21
273.16
225.76
172.27
107.84
29.83
-49.34
-109.36
-132.94
-115.80
-65.00
3.46
73.34
128.55
160.23
169.05
161.87
146.96
130.07
115.04
102.62
93.45
86.91
82.91
81.79
82.57
82.69
79.07
70.48
57.50
42.62
28.37
16.69
8.38
2.37
-3.28
-10.82
-19.64
-27.40
-30.88
-27.38
-15.39
5.08
32.09
61.85
88.98
108.00
114.43
106.25
84.70
54.56
22.54
-5.22
-25.29
-37.76
-44.46
-47.31
-47.31
-45.01
-40.69
-35.50
-31.68
-32.24
-40.09
-55.65
-76.41
-96.11
-107.66
-104.30
-82.11
-41.74
12.24
67.22
108.05
124.72
116.92
91.86
59.58
27.45
-1.41
-27.20
-51.59
-74.60
-94.49
-109.01
-118.12
-120.99
-117.80
-109.34
-96.90
-82.33
-66.51
-49.46
-30.95
-11.21
10.13
33.10
57.85
85.21
114.29
146.07
182.00
221.97
256.30
272.79
261.07
219.28
156.28
87.57
29.12
-8.92
-24.79
-23.79
-14.15
-2.61
6.45
11.15
10.21
2.57
-12.71
-35.16
-61.56
-86.01
-101.93
-103.63
-86.78
-52.09
-5.19
45.64
93.01
133.13
164.79
187.21
198.17
193.58
168.83
121.83
55.63
-22.42
-94.49
-140.98
-151.41
-129.27
-87.17
-38.31
8.95
51.59
89.62
123.93
153.56
176.20
191.09
198.62
200.97
201.39
202.74
206.32
212.38
219.20
224.18
225.29
221.99
215.10
205.47
195.84
187.66
181.76
177.93
175.39
173.40
171.39
168.88
164.88
157.91
146.12
128.26
103.81
73.16
37.49
-1.82
-43.57
-87.06
-131.72
-176.91
-221.04
-261.85
-296.93
-324.47
-344.33
-357.87
-367.77
-377.00
-388.40
-403.69
-422.96
-444.11
-462.50
-471.45
-463.60
-433.13
-378.09
-301.85
-212.33
-119.49
-31.94
45.80
113.70
174.35
229.70
278.66
316.73
338.04
338.78
319.51
285.52
244.54
203.78
167.35
135.87
108.10
82.95
61.10
44.66
35.53
33.68
36.47
39.40
37.95
29.49
14.08
-5.81
-26.96
-46.98
-65.44
-83.81
-104.27
-128.60
-157.44
-190.61
-227.65
-267.86
-309.45
-348.37
-378.26
-391.57
-382.37
-348.68
-293.47
-223.21
-145.15
-65.10
12.97
85.37
147.01
191.07
211.01
203.59
171.16
121.46
64.48
8.88
-40.89
-84.98
-126.12
-165.70
-201.26
-226.81
-235.92
-226.32
-201.86
-171.54
-145.58
-131.11
-129.21
-135.08
-141.19
-140.78
-131.11
-112.10
-84.50
-48.50
-4.03
48.06
104.98
162.29
215.54
259.59
292.88
317.47
336.40
350.17
355.50
346.92
320.03
274.30
209.07
129.57
46.30
-28.95
-88.32
-130.65
-160.35
-184.37
-209.20
-246.47
-300.95
-367.85
-436.30
-496.36
-543.66
-578.76
-604.79
-625.47
-654.13
-698.36
-755.34
-813.58
-859.57
-883.84
-882.55
-857.33
-751.48
-551.51
-292.10
-35.17
172.38
316.59
404.83
450.68
466.36
461.85
435.43
388.99
331.36
273.39
225.54
191.48
169.63
156.71
150.46
142.23
127.83
109.60
94.16
87.29
90.12
100.86
113.15
121.59
117.40
95.86
58.15
10.04
-41.35
-90.48
-133.43
-167.29
-189.18
-199.26
-197.61
-183.32
-155.07
-111.94
-54.85
13.72
90.32
171.63
253.66
332.98
407.41
475.87
539.23
598.97
656.60
712.67
766.40
814.45
850.26
865.21
850.91
804.26
727.26
626.26
510.44
390.51
277.36
180.69
107.40
60.32
41.07
47.06
71.31
103.87
135.06
158.29
170.61
171.94
163.76
152.74
146.42
150.66
167.91
198.19
240.76
294.64
358.17
396.44
381.85
304.04
176.88
29.03
-110.93
-223.09
-298.50
-338.40
-347.96
-338.58
-319.21
-295.81
-273.50
-256.60
-247.69
-247.86
-259.58
-277.26
-290.20
-290.33
-276.18
-253.65
-231.63
-215.89
-207.30
-203.83
-202.27
-198.29
-194.61
-194.10
-199.29
-210.20
-218.40
-215.29
-193.90
-152.67
-96.87
-36.54
17.59
61.39
93.74
115.97
128.95
132.50
124.99
104.05
66.94
17.88
-36.31
-89.46
-136.70
-175.13
-201.93
-213.85
-208.13
-184.05
-143.86
-94.29
-44.97
-4.19
23.72
39.34
46.42
48.89
48.55
45.33
38.12
26.39
12.17
-0.59
-8.27
-8.83
-2.33
8.97
23.76
40.42
56.26
67.92
71.61
63.90
43.36
11.63
-27.10
-67.65
-104.65
-136.86
-165.73
-192.35
-215.56
-231.03
-233.33
-219.76
-192.67
-159.53
-130.01
-112.38
-106.76
-108.63
-110.87
-107.06
-94.06
-72.04
-43.51
-11.40
22.54
57.25
91.87
125.00
154.31
176.89
190.45
194.41
189.93
179.86
167.76
156.33
146.89
139.26
132.28
124.82
116.37
107.03
97.68
89.39
82.69
77.43
72.98
68.60
63.89
58.96
54.22
50.23
47.27
45.16
43.45
41.87
40.18
38.43
36.63
34.56
32.19
29.87
28.72
30.16
34.59
39.88
41.64
35.05
16.67
-12.15
-45.44
-75.10
-94.38
-100.49
-94.92
-81.02
-61.78
-38.39
-11.08
18.51
46.60
68.07
79.14
79.17
71.02
58.98
46.07
32.80
16.96
-3.65
-28.66
-53.77
-71.84
-75.39
-60.30
-28.07
14.07
54.47
81.51
87.26
70.13
35.12
-8.11
-49.46
-81.79
-102.11
-111.08
-110.38
-101.82
-87.05
-68.43
-49.53
-34.89
-28.53
-31.51
-41.44
-52.47
-58.38
-53.64
-38.09
-14.61
12.64
39.36
64.11
85.76
103.71
116.73
123.42
122.23
112.37
94.07
68.45
38.82
8.29
-20.26
-45.55
-67.22
-85.97
-102.35
-116.53
-128.04
-136.08
-142.31
-145.19
-144.69
-141.58
-137.27
-133.30
-131.25
-131.79
-133.70
-133.41
-124.82
-102.19
-62.35
-7.23
55.95
116.78
164.92
194.10
203.36
196.50
179.11
156.75
133.76
113.24
97.41
87.13
81.62
77.92
71.91
59.49
39.49
13.95
-11.89
-31.84
-41.53
-39.97
-29.47
-13.61
4.47
24.22
46.13
70.36
95.41
117.93
133.99
140.49
136.34
122.06
100.24
73.03
42.35
10.68
-18.32
-39.60
-48.14
-40.76
-18.13
17.07
58.67
98.46
127.53
138.37
127.38
96.10
56.08
12.30
-25.48
-51.65
-64.56
-65.02
-54.18
-32.47
-0.38
39.60
81.27
117.90
143.05
154.00
152.76
144.54
134.82
126.99
121.54
116.94
113.03
111.08
113.98
124.75
145.05
174.21
209.54
247.05
282.17
311.59
332.74
344.24
345.54
336.87
318.98
293.12
260.92
224.16
184.95
144.85
104.82
64.97
24.89
-15.96
-57.63
-99.34
-139.39
-175.32
-204.66
-225.46
-236.91
-239.29
-233.82
-222.43
-207.16
-189.88
-172.11
-155.14
-140.08
-127.97
-119.24
-113.45
-109.32
-104.68
-97.02
-84.31
-65.85
-42.76
-18.06
4.08
19.19
23.37
14.10
-9.89
-48.56
-101.17
-166.36
-242.22
-326.23
-415.43
-506.84
-597.45
-684.03
-762.23
-825.81
-867.23
-879.76
-860.19
-811.03
-740.58
-660.46
-582.31
-514.51
-460.60
-420.03
-390.14
-367.94
-350.80
-336.25
-321.40
-303.08
-278.34
-245.31
-203.63
-154.32
-99.34
-40.74
19.64
80.21
139.34
194.80
244.17
285.22
316.63
338.22
351.05
356.93
357.97
355.83
351.28
344.49
335.59
325.03
313.72
303.08
295.08
292.48
298.23
313.72
337.89
366.32
391.76
405.98
402.76
380.27
341.98
294.99
245.35
197.36
153.02
112.99
77.84
48.70
27.15
15.03
13.27
18.36
26.57
35.40
44.32
53.08
60.27
62.80
57.02
39.86
5.29
-48.68
-118.30
-194.46
-266.64
-326.45
-368.97
-392.66
-398.36
-394.63
-389.04
-385.69
-384.89
-386.52
-392.51
-406.27
-431.21
-431.14
-386.54
-301.66
-201.39
-108.96
-31.92
34.87
100.19
168.87
239.32
299.10
337.04
349.31
341.22
322.74
302.64
285.96
273.63
264.54
252.86
235.37
213.32
191.25
173.26
160.51
151.66
144.33
137.04
126.92
113.01
96.71
80.96
68.17
58.62
50.97
43.34
34.44
22.79
8.20
-8.31
-24.73
-39.14
-50.69
-59.31
-65.18
-68.96
-70.08
-67.91
-61.93
-51.77
-37.69
-21.06
-3.91
11.72
24.44
34.05
41.09
46.33
50.74
54.93
58.46
60.28
59.21
54.54
46.79
37.35
27.56
18.99
12.63
8.16
4.65
1.54
-0.84
-0.56
5.11
18.17
38.57
66.10
99.37
135.90
172.00
202.69
222.25
228.79
218.43
190.81
150.38
104.28
59.38
19.63
-15.24
-48.16
-81.88
-116.59
-147.93
-168.63
-172.87
-159.60
-133.31
-102.12
-74.09
-54.15
-43.45
-41.84
-47.16
-57.12
-70.82
-88.76
-111.61
-138.61
-167.27
-194.70
-219.29
-240.35
-258.60
-275.70
-292.92
-310.25
-326.24
-338.55
-344.23
-341.80
-331.17
-313.69
-291.75
-267.74
-243.22
-218.77
-194.16
-169.15
-143.88
-118.74
-94.60
-72.51
-53.33
-37.22
-23.70
-11.72
-0.12
11.89
24.72
38.13
51.52
64.22
75.84
86.42
96.42
106.52
117.07
127.95
138.45
147.41
153.61
156.43
156.13
153.98
151.88
151.60
154.27
159.94
167.64
175.70
182.53
187.09
189.33
190.50
192.96
199.78
213.51
234.58
260.05
283.47
296.49
292.12
267.85
227.32
179.59
136.29
107.81
100.32
114.37
145.28
184.83
223.47
252.33
265.10
259.29
236.47
201.49
160.90
120.91
86.04
58.25
36.89
19.94
5.53
-6.96
-16.30
-19.96
-15.66
-2.63
17.48
41.18
64.43
83.95
97.76
104.95
105.18
98.36
85.29
68.17
50.69
37.06
30.63
32.82
43.35
60.98
84.18
111.43
140.68
168.76
191.28
203.37
200.99
182.29
147.97
100.88
45.53
-12.91
-69.42
-119.79
-161.47
-194.10
-219.22
-239.63
-258.06
-276.11
-294.05
-311.19
-326.67
-340.17
-352.02
-362.88
-373.32
-383.53
-393.02
-400.96
-406.01
-406.41
-399.97
-384.32
-357.10
-316.82
-263.55
-199.13
-127.44
-53.38
18.15
83.32
139.88
186.96
224.18
250.77
265.74
268.40
259.80
243.32
224.31
208.63
200.63
201.72
209.91
220.86
229.45
231.81
226.25
213.38
195.72
176.54
159.21
146.25
139.05
137.27
139.14
141.81
142.06
137.41
126.50
109.81
89.62
69.72
54.54
48.21
53.34
70.09
95.88
125.65
153.05
171.61
176.19
163.76
133.85
88.44
31.11
-33.99
-103.46
-175.15
-248.17
-321.69
-393.35
-458.26
-509.34
-539.35
-543.51
-521.88
-479.84
-426.63
-372.54
-325.75
-290.50
-267.06
-252.73
-243.70
-236.25
-227.00
-212.72
-189.98
-155.25
-105.83
-40.90
37.96
127.07
221.43
315.48
403.60
480.13
539.75
577.95
592.27
583.10
553.66
509.06
454.64
394.61
331.48
266.67
201.35
137.23
76.51
21.16
-27.71
-69.97
-106.02
-136.08
-159.93
-176.95
-186.61
-189.18
-185.92
-178.89
-170.49
-162.79
-157.01
-153.33
-151.00
-148.78
-145.41
-140.08
-132.66
-123.75
-114.55
-106.52
-101.05
-98.96
-100.41
-104.82
-111.09
-117.97
-124.36
-129.29
-131.78
-130.80
-125.22
-114.35
-98.57
-79.65
-60.62
-44.82
-34.59
-30.17
-29.58
-29.35
-25.97
-17.28
-3.16
14.58
33.17
49.89
63.00
72.15
78.23
82.90
87.87
94.40
102.90
112.95
123.55
133.36
141.13
146.08
148.03
147.48
145.60
143.72
143.07
144.39
147.61
152.08
156.79
160.68
162.81
162.39
158.88
152.19
143.02
132.85
123.74
117.67
115.78
117.78
122.18
126.96
130.73
133.67
137.48
144.49
156.34
172.85
191.80
209.77
223.36
230.21
229.24
219.83
200.86
170.39
126.56
69.01
0.12
-75.00
-149.87
-218.43
-276.65
-323.17
-358.36
-382.80
-396.49
-399.09
-390.68
-372.84
-348.47
-321.84
-297.69
-280.31
-271.90
-272.17
-278.03
-283.82
-282.00
-264.03
-224.13
-161.80
-83.37
1.13
80.56
146.09
192.89
220.52
232.89
234.52
229.05
217.89
203.52
188.99
177.59
171.27
170.97
178.44
193.96
215.52
236.99
251.91
254.16
240.16
210.03
159.21
93.71
27.14
-15.18
-25.58
-6.75
29.38
70.63
104.73
120.81
111.77
73.07
4.00
-91.70
-201.24
-305.57
-384.58
-424.72
-423.71
-390.09
-340.52
-292.61
-259.34
-242.72
-235.98
-228.84
-213.74
-188.46
-154.99
-117.55
-79.63
-43.83
-10.33
21.13
50.07
74.41
91.73
100.71
101.82
97.56
90.80
84.43
79.83
76.54
72.56
65.82
55.51
42.62
29.63
19.16
13.18
12.07
14.56
18.19
20.57
20.12
16.70
11.60
6.67
3.61
3.23
5.16
8.08
10.31
10.66
9.00
6.20
3.54
1.98
1.71
2.01
1.63
-0.32
-3.88
-8.09
-11.56
-13.25
-12.97
-11.46
-10.13
-10.26
-12.24
-15.48
-18.70
-20.61
-20.68
-19.27
-17.44
-16.28
-16.29
-17.02
-17.48
-16.75
-14.42
-11.00
-7.51
-5.08
-4.19
-4.67
-5.67
-6.30
-6.06
-5.04
-3.97
-3.68
-4.63
-6.52
-8.54
-9.74
-9.72
-8.78
-7.91
-8.38
-10.78
-14.84
-19.43
-23.23
-25.37
-25.83
-25.41
-25.21
-25.92
-27.37
-28.62
-28.55
-26.38
-22.15
-16.65
-11.09
-6.43
-2.86
0.19
3.64
8.15
13.60
19.06
23.26
25.27
25.03
23.33
21.43
20.25
20.02
20.19
19.75
18.00
14.95
11.39
8.48
7.09
7.28
8.20
8.50
7.02
3.59
-0.88
-4.85
-7.02
-7.04
-5.70
-4.50
-4.74
-6.86
-10.26
-13.74
-16.31
-17.70
-18.39
-19.27
-20.82
-22.70
-23.83
-22.93
-19.27
-13.17
-5.91
0.80
5.63
8.28
9.53
10.63
12.59
15.54
18.65
20.64
20.49
18.18
14.66
11.38
9.52
9.40
10.40
11.28
10.93
8.98
6.04
3.27
1.69
1.54
2.20
2.46
1.29
-1.52
-5.21
-8.41
-10.00
-9.58
-7.75
-5.71
-4.56
-4.61
-5.18
-4.98
-2.79
1.84
8.44
15.75
22.40
27.54
31.16
33.86
36.28
38.52
39.85
39.10
35.26
28.12
18.65
8.57
-0.30
-6.82
-10.76
-12.76
-13.59
-13.57
-12.46
-9.53
-4.28
3.10
11.56
19.46
25.21
28.04
28.19
26.67
24.66
22.70
20.44
16.94
11.21
3.02
-6.83
-16.94
-25.93
-33.06
-38.56
-43.31
-48.10
-53.05
-57.38
-59.70
-58.82
-54.36
-46.99
-38.28
-29.95
-22.99
-17.47
-12.58
-7.34
-1.40
4.82
10.21
13.54
14.29
12.84
10.24
7.57
5.28
2.91
-0.50
-5.86
-13.34
-21.93
-29.95
-35.69
-38.19
-37.62
-35.20
-32.49
-30.66
-29.94
-29.66
-28.77
-26.56
-23.06
-19.10
-15.89
-14.25
-14.17
-14.85
-15.06
-13.87
-10.94
-6.58
-1.46
3.92
9.56
15.89
23.34
31.88
40.81
48.92
54.93
58.19
58.91
58.15
57.07
56.34
55.82
54.59
51.53
46.10
38.75
30.84
24.06
19.49
17.12
15.93
14.35
11.10
5.87
-0.73
-7.54
-13.51
-18.28
-22.09
-25.54
-29.03
-32.37
-34.84
-35.55
-34.07
-30.74
-26.60
-23.10
-21.20
-21.13
-22.14
-22.90
-22.18
-19.43
-14.98
-9.91
-5.46
-2.31
-0.42
1.02
2.93
5.72
8.97
11.58
12.35
10.80
7.42
3.48
0.39
-1.03
-0.85
0.05
0.72
0.67
0.20
0.11
1.17
3.57
6.77
9.64
11.15
10.90
9.27
7.21
5.55
4.57
3.79
2.22
-0.99
-5.80
-11.29
-15.95
-18.49
-18.55
-16.83
-14.75
-13.67
-13.99
-15.04
-15.46
-14.12
-10.71
-5.96
-1.17
2.41
4.43
5.44
6.47
8.38
11.26
14.42
16.70
17.23
15.87
13.46
11.26
10.34
10.96
12.52
13.85
13.83
12.17
9.44
6.90
5.74
6.33
8.13
9.85
10.05
7.91
3.70
-1.52
-6.37
-9.80
-11.61
-12.36
-12.95
-14.00
-15.46
-16.63
-16.67
-15.12
-12.15
-8.66
-5.57
-3.47
-2.16
-0.83
1.45
5.09
9.84
14.76
18.66
20.80
21.11
20.28
19.36
19.18
19.88
20.99
21.60
21.04
19.33
17.18
15.48
14.90
15.42
16.19
16.16
14.60
11.52
7.80
4.67
2.99
2.88
3.51
3.68
2.38
-0.46
-4.11
-7.36
-9.36
-10.10
-10.44
-11.74
-14.93
-19.90
-25.47
-29.97
-32.00
-31.16
-28.02
-23.87
-19.85
-16.45
-13.46
-10.31
-6.68
-2.73
0.83
3.07
3.43
2.10
-0.00
-1.63
-1.82
-0.38
2.13
4.65
6.23
6.67
6.40
6.22
6.71
7.84
9.00
9.29
8.12
5.48
2.06
-1.15
-3.35
-4.38
-4.68
-5.13
-6.50
-9.03
-12.24
-15.16
-17.00
-17.42
-16.87
-16.25
-16.39
-17.39
-18.55
-18.70
-16.85
-12.87
-7.51
-2.10
2.10
4.64
6.01
7.14
8.81
11.14
13.46
14.75
14.30
12.07
8.86
5.95
4.36
4.41
5.61
6.92
7.44
6.87
5.69
4.80
4.92
6.09
7.66
8.54
7.79
5.32
1.87
-1.35
-3.28
-3.59
-2.87
-2.23
-2.76
-4.96
-8.35
-11.90
-14.51
-15.57
-15.18
-14.10
-13.12
-12.61
-12.30
-11.34
-8.80
-4.28
1.88
8.60
14.50
18.54
20.49
20.89
20.83
21.32
22.83
25.21
27.79
29.87
31.13
31.69
31.93
32.10
32.02
31.21
29.31
26.59
24.10
23.21
24.51
27.14
28.64
25.84
16.21
-0.78
-23.36
-48.31
-72.72
-95.59
-118.36
-143.92
-174.59
-210.24
-247.34
-280.10
-302.41
-310.10
-302.03
-279.75
-246.21
-204.26
-155.92
-102.56
-45.52
13.30
71.25
125.35
172.71
210.91
238.31
254.38
259.81
256.56
247.32
234.62
220.15
204.41
187.14
168.01
147.22
125.56
104.10
83.70
64.72
47.08
30.42
14.32
-1.72
-18.12
-35.16
-52.71
-70.17
-86.57
-100.99
-112.92
-122.41
-129.67
-134.56
-136.19
-133.02
-123.27
-105.76
-80.44
-48.51
-11.94
27.35
68.32
111.12
156.85
206.69
260.68
316.78
370.38
414.74
442.36
446.72
424.18
375.08
303.97
218.35
127.05
38.32
-41.52
-108.65
-161.65
-201.19
-229.68
-250.62
-267.46
-282.01
-293.36
-297.89
-291.03
-269.97
-235.73
-193.58
-151.27
-116.04
-92.01
-79.47
-75.83
-77.60
-81.79
-86.18
-88.86
-87.76
-80.92
-67.42
-48.21
-26.29
-5.68
9.94
18.56
20.30
17.07
11.62
6.46
3.21
2.35
3.51
5.92
8.83
11.65
14.06
16.00
17.61
19.09
20.62
22.29
24.24
26.57
29.42
33.00
37.53
43.13
49.88
57.78
66.67
76.79
88.19
100.74
114.09
127.74
141.28
154.65
168.05
181.49
195.57
210.18
224.86
238.95
251.88
263.44
273.74
282.94
290.41
296.42
300.38
301.43
298.29
289.21
272.23
245.63
208.27
159.24
100.50
34.37
-35.95
-106.96
-175.08
-236.51
-287.03
-317.10
-328.33
-317.71
-285.53
-234.94
-172.07
-105.13
-42.87
7.08
39.24
49.90
39.28
8.48
-40.02
-102.66
-175.01
-251.92
-328.01
-398.41
-459.38
-506.30
-535.24
-542.11
-523.91
-480.39
-415.27
-336.03
-252.32
-173.76
-106.38
-53.02
-13.24
14.83
33.12
43.53
49.18
55.34
68.62
95.07
136.32
187.77
238.42
273.66
281.07
256.14
204.74
140.79
80.70
37.25
16.36
16.04
27.60
38.53
36.67
13.16
-35.71
-108.28
-198.03
-289.16
-361.10
-396.17
-387.67
-341.89
-272.72
-193.09
-110.90
-30.03
47.38
118.67
181.97
233.46
269.63
289.12
292.55
281.21
256.47
213.74
156.43
92.99
32.88
-17.28
-55.87
-86.24
-114.01
-143.61
-175.36
-206.29
-232.50
-251.87
-263.88
-268.37
-264.46
-250.47
-224.73
-186.27
-135.62
-76.06
-13.07
45.53
93.03
125.65
142.89
147.24
143.07
135.64
129.06
125.32
124.70
126.97
132.21
140.93
154.04
172.74
198.07
230.29
268.49
310.74
354.26
395.35
428.94
449.52
453.09
439.33
412.55
380.76
352.59
333.55
323.15
314.03
295.17
256.42
193.00
107.34
7.79
-94.55
-191.07
-270.48
-322.33
-340.03
-323.95
-280.40
-218.84
-149.34
-81.65
-21.19
27.82
61.81
78.58
76.46
55.33
16.66
-37.90
-104.21
-176.76
-249.63
-317.11
-367.67
-390.66
-378.99
-331.88
-255.55
-160.35
-57.50
43.15
132.27
208.59
270.67
316.15
344.15
356.10
355.81
348.20
335.52
320.01
303.48
285.69
263.72
235.77
202.47
167.10
133.75
105.05
81.77
63.14
46.70
26.02
-3.33
-42.18
-87.93
-137.08
-188.23
-242.57
-302.98
-373.02
-460.89
-571.96
-705.88
-854.77
-1004.52
-1138.46
-1241.58
-1304.50
-1289.53
-1179.35
-981.89
-729.43
-462.62
-213.30
1.20
173.55
301.01
384.49
424.53
427.91
407.02
376.74
349.67
333.60
331.45
342.69
363.53
382.91
389.07
374.56
340.21
294.38
248.59
212.08
188.33
175.46
166.27
154.99
140.36
125.49
114.52
109.71
110.23
113.33
117.12
120.09
122.83
127.15
135.29
146.47
157.80
164.84
163.00
148.80
120.29
78.25
26.07
-27.97
-74.49
-105.25
-115.82
-107.13
-85.09
-58.05
-33.87
-15.33
-2.03
8.40
18.03
26.67
32.09
31.65
24.54
12.57
0.36
-7.08
-6.09
5.09
25.91
54.69
89.16
126.35
161.90
190.35
205.96
205.02
187.83
158.45
124.17
92.40
68.22
52.83
44.47
40.07
37.31
35.38
33.53
31.05
26.24
17.13
2.38
-17.91
-42.45
-70.05
-94.35
-113.16
-126.74
-137.39
-148.33
-162.72
-182.63
-208.29
-237.44
-265.23
-286.16
-294.50
-286.69
-262.47
-225.48
-182.13
-139.72
-104.44
-79.74
-66.77
-63.63
-66.23
-69.13
-66.76
-55.07
-32.60
-0.96
35.77
71.78
101.47
120.28
125.37
115.85
93.04
61.00
25.89
-4.99
-25.55
-32.78
-27.76
-15.06
-0.66
10.35
15.49
15.08
11.55
7.57
4.64
2.58
0.04
-4.44
-11.87
-22.99
-38.64
-59.25
-84.71
-114.33
-146.51
-178.10
-204.50
-220.44
-221.61
-206.15
-174.13
-128.48
-75.47
-24.13
16.00
37.83
39.25
23.62
-0.83
-21.43
-25.23
-3.25
46.42
119.02
205.71
296.68
383.27
449.17
479.00
466.23
417.58
347.56
270.08
194.51
126.15
67.40
18.89
-18.39
-44.21
-59.71
-67.91
-72.57
-76.52
-81.30
-87.60
-95.73
-104.58
-113.11
-121.08
-129.23
-138.84
-150.48
-163.70
-177.53
-191.56
-202.46
-207.29
-204.27
-192.80
-173.89
-149.64
-122.76
-97.04
-75.28
-58.19
-45.89
-37.78
-31.95
-26.48
-19.79
-10.74
0.07
13.24
30.66
53.81
83.75
121.96
168.66
222.45
280.86
339.68
390.82
429.76
453.80
452.47
420.79
359.26
273.79
184.45
96.73
11.88
-69.20
-146.97
-218.18
-277.13
-318.80
-340.17
-340.51
-322.70
-286.23
-231.64
-162.67
-85.87
-8.36
63.12
123.27
168.73
196.70
207.82
205.17
193.02
176.28
160.13
148.71
144.04
145.09
146.53
141.35
122.88
87.79
38.51
-16.67
-66.77
-102.62
-120.40
-122.83
-116.14
-106.92
-99.31
-94.18
-90.28
-85.92
-79.99
-71.72
-60.41
-45.35
-26.75
-6.59
11.86
25.09
30.95
29.55
23.00
14.41
6.45
1.07
-0.82
1.01
6.25
13.94
22.42
29.41
33.10
31.86
25.48
14.98
1.94
-11.80
-24.40
-34.42
-40.69
-42.42
-39.29
-31.16
-18.16
-0.78
19.95
42.39
63.95
81.89
93.73
97.51
92.24
78.20
56.51
29.46
-0.11
-29.80
-56.95
-79.06
-94.18
-101.40
-100.47
-92.67
-79.83
-64.02
-48.69
-36.15
-27.69
-23.59
-23.75
-27.35
-34.19
-43.65
-54.71
-67.92
-82.71
-97.74
-111.14
-121.51
-127.45
-129.27
-127.74
-112.96
-84.65
-46.40
-3.44
39.79
77.30
110.34
139.20
163.46
183.53
198.74
210.35
219.18
227.19
235.68
245.95
256.40
263.96
265.89
258.32
238.82
204.62
159.07
109.58
65.24
30.21
3.94
-15.24
-30.08
-42.28
-52.26
-58.59
-66.82
-72.96
-74.60
-72.65
-68.58
-64.89
-63.66
-65.55
-69.72
-75.47
-82.15
-81.63
-73.50
-60.10
-45.48
-34.28
-30.80
-37.99
-56.87
-84.52
-115.83
-145.58
-168.24
-181.04
-185.73
-188.16
-196.02
-215.96
-249.97
-295.68
-348.26
-400.90
-447.67
-485.16
-512.77
-531.40
-541.84
-542.87
-531.45
-503.89
-456.96
-390.98
-311.24
-227.03
-148.68
-84.66
-38.83
-10.63
2.74
4.77
-2.25
-17.13
-38.57
-64.16
-90.31
-113.33
-130.65
-141.95
-148.70
-153.47
-158.33
-163.85
-169.03
-171.77
-170.13
-163.23
-152.09
-139.25
-127.96
-121.03
-119.84
-124.10
-131.88
-140.10
-145.38
-144.73
-135.79
-116.94
-87.34
-46.77
3.99
63.12
127.63
193.45
255.99
310.81
354.38
384.74
401.57
406.17
401.03
389.22
373.76
357.11
340.91
325.96
312.41
300.06
288.80
278.62
269.58
261.36
253.39
244.78
234.91
223.71
211.82
200.25
189.55
179.18
167.13
150.53
126.61
93.98
53.47
8.23
-37.13
-77.97
-111.06
-135.29
-151.39
-161.18
-166.21
-166.79
-162.02
-150.17
-129.52
-99.11
-59.21
-11.93
38.06
83.30
114.21
121.55
100.24
52.42
-11.81
-77.12
-128.27
-155.59
-157.72
-140.75
-114.23
-86.55
-62.30
-42.38
-25.94
-12.74
-3.63
0.15
-1.61
-7.37
-14.08
-18.77
-19.95
-18.05
-15.31
-14.44
-17.17
-23.46
-30.93
-36.44
-37.60
-33.70
-25.69
-15.63
-5.78
2.59
9.28
15.61
23.08
32.62
44.08
56.45
68.39
78.53
86.27
91.33
95.20
98.96
102.68
105.31
105.67
103.22
98.08
91.73
85.52
84.59
92.44
109.71
134.38
163.96
197.67
235.52
280.18
333.15
402.27
491.01
595.89
707.32
813.99
908.20
984.92
1047.39
1100.46
1162.16
1244.65
1347.71
1457.52
1553.04
1616.21
1633.85
1609.30
1552.66
1494.19
1457.78
1451.72
1467.36
1487.49
1498.64
1491.20
1471.56
1335.74
1030.60
570.85
40.43
-459.15
-863.02
-1121.40
-1275.19
-1360.84
-1403.76
-1403.49
-1359.39
-1283.57
-1193.88
-1109.92
-1043.88
-1003.30
-980.80
-967.82
-944.86
-899.45
-831.11
-750.23
-671.93
-607.38
-564.68
-540.18
-528.24
-515.26
-491.08
-452.64
-403.74
-351.68
-302.28
-260.77
-226.94
-200.44
-177.80
-157.18
-140.80
-133.53
-140.55
-163.97
-203.05
-253.38
-307.95
-357.16
-390.74
-403.35
-393.77
-364.19
-318.26
-261.06
-201.33
-146.45
-102.18
-69.99
-54.53
-60.32
-90.38
-143.94
-216.90
-308.58
-413.67
-523.60
-624.01
-708.39
-774.16
-822.16
-853.93
-871.41
-883.24
-891.63
-891.88
-868.12
-813.11
-726.21
-615.52
-494.38
-331.15
-130.46
75.90
213.51
280.45
291.89
274.65
244.07
212.39
189.45
174.08
178.16
203.82
249.81
301.86
348.56
385.46
415.76
443.18
466.68
483.82
490.74
491.19
484.61
471.01
443.21
390.80
310.39
203.77
82.46
-37.69
-135.59
-205.32
-245.80
-261.45
-259.43
-247.73
-235.07
-222.11
-210.71
-197.18
-179.27
-155.68
-128.29
-99.05
-68.56
-36.66
-2.47
33.65
74.70
121.72
173.79
226.94
277.25
321.62
357.87
384.04
397.55
400.28
394.49
382.14
363.89
342.06
320.51
304.39
297.94
281.91
245.56
188.57
120.72
53.59
-4.46
-50.93
-86.00
-111.67
-130.38
-139.87
-139.07
-124.82
-104.30
-83.63
-68.19
-61.09
-64.92
-81.48
-106.64
-136.18
-170.23
-208.89
-248.06
-289.02
-326.75
-355.07
-368.27
-357.10
-316.21
-250.98
-169.39
-77.81
15.20
101.53
173.04
223.21
253.77
268.32
264.50
244.65
218.29
194.52
181.45
183.60
173.55
135.33
109.06
108.73
120.49
140.20
164.84
191.95
218.72
242.62
266.23
291.43
311.02
320.70
321.28
312.98
296.41
272.56
242.43
209.74
175.62
133.56
82.02
25.37
-31.37
-84.12
-131.06
-173.11
-211.13
-247.15
-285.73
-323.65
-352.20
-363.27
-352.81
-321.44
-274.03
-217.03
-157.51
-102.86
-52.94
-4.16
46.09
97.46
148.00
196.13
242.45
289.22
316.37
311.43
275.12
220.64
161.93
105.84
53.83
5.83
-37.49
-74.75
-101.29
-114.23
-114.44
-106.61
-96.77
-89.54
-87.35
-90.50
-97.88
-105.03
-108.27
-106.78
-102.59
-98.87
-97.65
-99.35
-102.80
-105.40
-102.37
-89.75
-66.17
-33.69
2.87
37.59
64.68
80.22
83.65
78.94
72.41
70.31
76.58
92.02
114.75
140.44
163.89
180.83
189.76
192.59
194.15
200.71
216.07
241.60
272.97
300.01
310.27
293.88
247.66
176.52
91.13
3.61
-76.32
-143.50
-196.32
-234.46
-257.49
-265.42
-259.95
-245.66
-229.07
-215.87
-209.01
-207.35
-206.84
-203.05
-193.89
-180.58
-166.69
-155.73
-148.89
-145.16
-142.40
-138.97
-135.17
-133.41
-136.89
-147.79
-165.43
-185.97
-205.20
-219.25
-226.03
-225.83
-221.35
-215.79
-211.15
-206.83
-199.52
-186.99
-166.01
-131.64
-78.44
-2.99
94.35
208.46
329.54
444.29
533.50
580.15
575.64
522.04
429.83
313.86
189.39
68.63
-41.91
-147.09
-254.30
-366.52
-478.72
-580.41
-659.79
-707.51
-718.79
-660.28
-521.18
-322.77
-112.06
66.46
191.71
266.40
305.42
326.16
341.41
352.03
355.33
350.48
342.34
336.98
338.21
345.29
354.78
360.46
353.36
329.56
293.33
254.92
224.14
209.21
211.67
228.65
250.96
267.32
271.22
262.95
247.08
227.88
206.70
181.64
149.98
103.34
35.60
-51.88
-150.27
-247.89
-335.39
-407.95
-465.57
-510.57
-554.78
-608.26
-673.67
-746.25
-818.44
-884.42
-941.44
-989.60
-976.67
-873.90
-689.77
-466.03
-247.93
-60.89
89.73
208.83
302.59
378.19
432.99
464.96
478.08
480.94
481.26
482.92
485.93
485.59
479.28
459.06
415.88
352.87
279.56
206.17
139.93
84.45
33.00
-16.10
-66.24
-118.56
-170.27
-217.20
-255.69
-284.34
-282.28
-248.80
-190.74
-120.84
-50.44
14.22
70.38
117.76
157.39
190.61
215.17
231.65
241.24
245.54
247.16
248.52
250.43
253.38
257.36
259.21
257.78
253.15
244.84
233.36
218.60
200.83
180.60
158.24
132.38
102.74
69.55
29.53
-12.56
-52.96
-87.71
-113.96
-130.79
-139.69
-142.97
-142.30
-143.64
-150.73
-164.72
-183.66
-204.54
-224.66
-241.80
-254.57
-260.43
-263.27
-265.50
-267.31
-266.65
-262.17
-254.51
-245.89
-240.79
-212.06
-152.80
-76.10
-5.24
45.00
73.39
86.78
94.25
92.31
87.56
77.62
59.27
31.49
-3.98
-45.63
-94.39
-140.30
-179.68
-207.79
-225.89
-234.94
-234.23
-221.61
-196.31
-159.49
-112.97
-59.69
0.19
62.22
120.18
166.97
196.43
203.42
186.06
147.31
93.36
38.72
-0.66
-14.76
-5.88
16.14
41.99
68.14
95.75
125.99
159.24
192.05
219.07
236.05
244.58
246.62
245.20
242.57
238.80
232.23
219.07
194.73
153.19
98.79
38.97
-17.89
-65.18
-99.25
-119.76
-129.50
-133.17
-135.26
-138.28
-143.82
-151.54
-159.19
-162.70
-157.13
-138.86
-107.74
-67.68
-25.59
10.42
34.75
46.29
48.37
46.09
43.64
42.85
43.40
44.04
42.63
37.00
25.46
7.86
-13.51
-33.72
-46.81
-48.78
-39.43
-23.11
-6.30
5.77
11.37
12.15
11.15
10.23
9.06
5.98
-0.30
-9.29
-18.89
-26.73
-31.87
-34.88
-37.96
-43.50
-52.72
-64.97
-77.83
-88.53
-93.84
-91.97
-82.91
-68.10
-49.80
-30.20
-10.98
6.96
23.19
37.50
49.51
58.65
64.38
66.41
65.04
60.97
55.39
49.50
44.33
40.33
37.47
35.38
33.63
31.81
29.49
26.56
22.98
19.01
14.79
10.51
6.37
2.51
-0.92
-3.87
-6.38
-8.57
-10.43
-11.99
-13.32
-14.44
-15.51
-16.79
-18.65
-21.55
-25.94
-31.73
-38.61
-46.00
-53.12
-59.25
-64.05
-67.53
-70.22
-72.78
-75.30
-77.50
-78.62
-77.60
-73.49
-65.82
-54.62
-40.15
-25.06
-10.13
5.22
22.83
45.16
74.41
111.60
156.12
205.95
258.15
310.12
359.63
405.14
445.66
480.73
510.47
535.25
554.77
567.07
568.26
552.69
515.24
453.95
372.02
277.60
181.39
93.18
19.18
-38.35
-80.25
-108.17
-123.18
-125.94
-118.02
-103.17
-87.52
-78.16
-80.97
-98.86
-131.22
-174.57
-223.97
-274.70
-323.33
-367.93
-407.80
-443.23
-475.27
-505.52
-535.36
-565.03
-592.72
-614.92
-627.82
-629.40
-620.82
-606.17
-590.64
-578.08
-569.48
-562.80
-554.75
-542.73
-526.02
-505.65
-483.17
-459.50
-434.60
-408.04
-380.05
-352.02
-326.08
-304.49
-288.36
-276.90
-267.60
-256.86
-241.18
-218.21
-187.22
-148.82
-104.24
-54.39
0.72
61.86
130.05
205.49
286.83
371.14
454.25
531.76
600.09
656.96
701.76
735.25
759.16
775.57
786.19
791.38
789.47
776.93
749.39
703.52
639.09
559.84
472.95
387.02
309.52
244.85
193.88
154.87
124.94
101.48
82.75
67.68
55.68
46.38
39.62
35.62
34.77
37.34
43.05
50.69
58.13
62.73
62.12
55.00
41.65
23.86
4.28
-14.36
-30.05
-41.91
-50.19
-56.00
-60.76
-65.62
-71.12
-77.05
-82.58
-86.57
-88.09
-86.64
-82.30
-75.57
-67.05
-57.24
-46.54
-35.32
-24.10
-13.54
-4.28
3.18
8.50
11.64
12.67
11.74
9.05
4.69
-1.22
-8.49
-16.61
-24.69
-31.35
-35.35
-35.58
-31.50
-23.32
-12.01
0.86
13.47
24.14
31.96
36.59
38.74
39.61
40.33
41.51
43.00
44.27
44.76
44.70
43.84
42.24
39.57
35.12
28.24
18.95
8.15
-2.70
-11.28
-18.07
-23.48
-28.51
-34.10
-40.64
-47.74
-54.52
-60.10
-61.94
-62.08
-60.78
-58.43
-55.42
-51.96
-47.95
-42.92
-36.02
-23.16
-6.98
12.91
36.64
64.05
94.90
128.86
165.30
203.24
245.63
287.00
326.95
365.66
402.95
437.68
467.00
486.62
465.81
434.01
384.87
319.04
239.14
148.72
52.15
-45.74
-139.62
-224.09
-290.49
-340.67
-374.23
-392.38
-397.81
-393.63
-383.19
-369.67
-355.79
-340.14
-326.42
-312.72
-294.88
-268.48
-230.08
-178.29
-114.01
-40.52
38.73
114.51
179.43
227.19
252.81
253.81
230.89
188.04
131.10
67.27
0.86
-65.70
-125.49
-169.79
-191.81
-190.07
-168.25
-132.90
-90.30
-46.08
-3.03
38.14
77.30
114.44
149.49
182.38
212.67
241.22
266.54
286.97
301.40
308.77
308.34
300.09
284.93
263.70
237.47
205.67
167.99
124.43
75.12
19.97
-42.04
-106.85
-172.43
-238.15
-306.45
-379.21
-456.70
-536.26
-612.18
-677.14
-723.43
-745.51
-741.02
-713.36
-667.79
-610.56
-547.19
-482.18
-420.21
-365.43
-320.93
-270.18
-204.06
-120.86
-28.49
59.82
131.67
178.94
200.22
200.60
186.76
166.25
148.11
135.52
123.64
109.89
92.71
72.63
56.88
50.92
57.40
76.24
103.16
131.95
157.49
176.91
190.77
202.34
214.98
229.01
242.45
251.73
254.50
251.14
244.97
238.19
231.82
225.06
214.40
194.92
161.84
113.32
52.03
-15.67
-81.63
-137.53
-176.57
-195.96
-197.26
-186.05
-169.77
-155.85
-150.25
-156.59
-175.46
-198.70
-217.04
-221.05
-203.84
-163.76
-105.62
-40.02
21.70
63.91
77.66
65.94
42.47
22.96
17.27
26.48
45.87
69.21
91.62
112.23
132.73
151.76
165.86
172.32
171.39
166.93
164.52
163.31
164.37
164.40
157.47
138.98
108.58
70.35
30.69
-4.77
-33.07
-52.52
-63.77
-68.51
-68.50
-65.52
-61.37
-57.83
-56.33
-57.76
-61.03
-65.05
-68.90
-71.99
-74.38
-76.60
-79.50
-83.70
-89.24
-94.96
-99.53
-101.58
-100.06
-95.23
-87.19
-76.82
-65.40
-54.29
-44.41
-36.52
-31.05
-28.12
-27.68
-29.64
-33.82
-39.64
-46.44
-53.56
-60.54
-67.15
-73.31
-79.14
-85.08
-91.32
-97.42
-103.09
-108.59
-114.73
-122.68
-133.21
-146.51
-162.27
-178.61
-191.40
-196.65
-191.61
-175.34
-148.64
-113.00
-69.84
-24.14
20.20
62.22
100.76
134.07
160.03
177.19
185.94
189.17
190.63
196.88
217.51
259.40
324.66
409.80
506.97
606.25
697.72
771.33
798.69
761.92
658.01
501.61
318.03
132.67
-36.11
-170.14
-273.30
-351.22
-405.35
-436.91
-448.06
-442.38
-424.49
-398.31
-366.80
-333.52
-299.71
-263.84
-225.38
-185.13
-144.87
-106.19
-69.27
-32.86
3.31
39.59
75.38
107.17
129.36
135.89
122.37
88.12
37.11
-23.08
-81.16
-124.92
-145.59
-140.66
-114.74
-77.69
-40.64
-11.76
5.92
15.12
21.70
30.97
45.55
65.20
88.14
112.57
137.25
161.23
183.37
202.10
215.66
223.29
225.71
224.98
223.40
222.48
222.33
221.91
219.71
214.28
204.63
190.14
170.52
146.09
117.89
87.48
56.30
24.81
-7.62
-42.02
-78.54
-115.65
-150.46
-180.23
-203.78
-222.12
-237.39
-250.95
-261.90
-267.00
-262.32
-245.50
-217.54
-182.96
-148.64
-121.92
-108.61
-111.64
-130.60
-162.06
-200.50
-239.73
-273.99
-298.82
-311.27
-309.79
-294.20
-265.83
-227.60
-183.60
-138.13
-94.35
-53.39
-14.40
24.16
62.90
100.45
133.78
159.65
176.35
184.42
186.20
184.44
180.98
176.19
169.54
160.73
150.52
140.79
133.53
129.72
128.86
129.68
130.83
131.64
132.06
131.98
131.27
129.46
125.98
120.74
115.07
110.88
109.83
112.38
116.81
121.01
123.07
121.99
118.28
114.30
112.57
114.86
121.38
129.84
138.11
144.11
145.56
140.41
127.91
107.81
80.91
49.38
15.28
-16.64
-41.25
-55.03
-64.12
-74.35
-90.37
-113.25
-131.92
-142.30
-141.69
-128.16
-104.34
-72.62
-34.97
6.18
48.47
90.01
128.28
164.11
200.12
238.85
281.47
328.14
377.38
426.73
473.08
501.22
499.94
464.72
399.26
312.89
217.49
123.01
35.64
-42.26
-112.33
-178.02
-240.44
-298.36
-351.20
-398.16
-438.75
-473.01
-501.83
-519.49
-522.30
-508.33
-478.01
-437.06
-393.14
-354.09
-325.86
-311.33
-310.34
-320.22
-336.71
-344.37
-331.94
-292.30
-224.69
-134.66
-31.09
77.01
181.95
273.91
352.07
414.16
458.07
482.95
489.49
480.09
458.07
425.15
381.62
328.70
266.08
194.63
116.79
35.67
-45.76
-125.21
-201.40
-276.85
-353.76
-434.62
-519.47
-605.59
-688.84
-764.80
-829.50
-857.78
-831.94
-745.74
-609.59
-445.49
-276.59
-119.85
16.38
130.47
224.69
298.94
353.28
389.76
410.03
416.08
409.74
391.64
361.11
317.04
256.30
178.09
85.73
-11.61
-99.17
-162.08
-190.90
-183.69
-145.32
-86.46
-18.76
48.59
110.09
163.32
206.96
238.51
254.94
254.13
235.45
200.57
153.56
99.62
43.41
-12.29
-67.24
-120.17
-165.24
-192.95
-194.76
-168.45
-120.61
-66.25
-14.33
31.18
71.51
111.44
156.46
206.56
254.12
288.36
299.01
281.55
238.74
179.63
114.90
52.53
-4.30
-55.46
-100.91
-140.65
-172.38
-193.78
-204.02
-204.08
-196.28
-183.09
-165.14
-140.61
-103.80
-52.09
13.05
86.24
159.07
221.24
262.23
274.01
253.99
206.65
143.00
77.27
22.05
-15.86
-36.75
-45.96
-49.73
-51.82
-52.69
-50.89
-45.51
-37.49
-29.72
-25.28
-25.75
-30.49
-37.28
-43.43
-46.74
-45.53
-38.79
-26.59
-10.59
5.80
18.46
24.46
23.54
18.87
15.54
18.05
27.80
42.89
58.28
69.08
71.98
65.77
51.08
29.91
5.41
-18.55
-36.70
-45.72
-45.80
-40.61
-35.74
-35.69
-41.50
-50.53
-57.82
-58.91
-51.97
-38.08
-20.21
-1.35
16.52
32.61
46.37
57.02
63.25
64.08
59.65
51.72
42.80
34.59
27.05
18.59
7.48
-6.27
-19.38
-26.92
-24.70
-11.56
9.76
33.83
55.92
72.71
82.74
85.98
82.56
72.31
55.12
31.46
2.82
-29.03
-60.96
-88.55
-107.13
-113.67
-108.74
-97.10
-86.12
-82.81
-91.65
-111.49
-136.28
-157.84
-170.03
-170.77
-162.09
-148.33
-129.09
-106.18
-81.46
-57.33
-37.00
-23.88
-19.86
-23.22
-28.61
-27.53
-14.77
8.25
32.75
47.47
45.05
24.77
-8.00
-45.35
-80.47
-110.52
-135.18
-156.20
-173.63
-185.92
-191.73
-190.67
-183.84
-173.31
-162.15
-152.41
-144.51
-137.10
-127.29
-114.38
-98.65
-81.52
-65.00
-51.29
-41.62
-35.92
-32.82
-29.17
-22.56
-11.94
1.81
16.56
29.84
39.97
46.60
50.81
57.05
69.33
89.97
118.33
151.40
185.38
216.95
243.97
265.75
286.74
311.23
341.35
375.75
410.45
441.00
464.52
480.07
488.44
496.61
510.60
533.11
562.61
595.22
627.75
658.80
687.84
680.73
613.79
481.47
302.92
111.93
-60.29
-194.90
-286.74
-340.55
-367.31
-374.49
-367.55
-351.97
-333.61
-319.03
-313.79
-320.94
-339.52
-365.96
-388.42
-395.80
-381.99
-347.66
-299.01
-244.14
-190.24
-141.94
-99.09
-58.92
-19.98
16.60
47.09
66.56
71.06
53.11
13.90
-40.51
-100.49
-155.47
-195.42
-212.70
-204.20
-172.62
-126.16
-75.54
-31.35
-0.29
16.38
21.90
21.04
17.48
12.55
5.90
-2.81
-13.80
-26.84
-41.31
-56.03
-69.67
-81.06
-88.34
-89.87
-84.39
-72.18
-54.87
-34.90
-14.53
4.29
20.47
33.29
42.48
48.56
52.15
53.41
51.61
45.28
31.13
9.16
-17.58
-42.97
-59.63
-62.33
-50.40
-28.31
-2.52
20.41
35.86
41.84
38.59
28.43
14.61
-0.04
-15.95
-33.34
-53.67
-78.36
-105.27
-132.54
-157.62
-179.56
-200.79
-226.96
-265.06
-317.98
-381.23
-443.94
-493.56
-520.93
-524.17
-508.38
-478.71
-441.96
-401.84
-357.61
-306.27
-246.17
-179.06
-109.83
-44.43
12.88
60.23
98.44
129.68
155.98
178.53
198.02
215.91
235.00
259.57
294.13
342.67
407.09
485.86
573.17
659.29
732.01
779.46
793.32
770.90
716.09
637.82
546.67
451.88
359.87
274.30
197.30
130.93
77.26
37.93
13.19
1.26
-1.20
2.31
9.12
17.72
27.55
38.21
48.83
58.22
65.13
69.32
71.96
75.30
81.44
91.60
105.53
121.87
138.75
154.60
169.71
186.30
207.36
234.25
265.88
298.32
325.70
341.66
340.62
320.90
285.05
238.38
185.03
127.50
66.39
1.08
-69.30
-146.12
-228.07
-311.20
-390.16
-462.11
-525.39
-578.23
-618.30
-643.87
-656.12
-656.11
-644.05
-618.84
-581.02
-530.70
-467.30
-391.39
-296.37
-191.21
-95.22
-30.49
4.45
19.10
24.45
30.18
44.02
69.54
105.84
152.65
211.75
284.57
365.20
441.16
496.29
515.10
485.54
401.97
269.69
104.46
-72.97
-245.92
-403.92
-541.79
-640.29
-679.91
-652.96
-569.42
-450.72
-318.55
-189.76
-74.71
21.78
98.79
155.97
196.03
221.35
235.45
242.33
243.67
238.57
225.20
197.57
155.04
100.20
37.68
-25.35
-80.11
-118.50
-134.96
-127.72
-100.40
-61.70
-23.16
4.75
17.49
16.75
9.56
2.60
0.60
2.53
1.78
-7.71
-29.30
-60.89
-93.25
-116.36
-122.81
-110.70
-84.89
-53.39
-23.24
2.14
24.02
46.37
71.97
100.43
128.37
151.41
165.64
169.86
165.00
153.25
136.58
116.06
91.59
66.80
46.23
34.10
32.79
41.28
55.30
69.29
78.65
81.94
80.72
77.02
71.26
61.47
44.19
16.57
-20.32
-61.27
-98.14
-122.86
-130.91
-122.74
-102.72
-76.54
-48.75
-21.37
5.68
33.08
60.70
87.05
109.51
126.35
137.59
144.87
150.51
156.45
163.33
170.43
176.29
178.88
177.13
171.44
163.21
154.15
145.44
137.01
127.23
117.78
108.58
99.61
91.19
83.98
78.57
75.38
74.33
75.00
76.87
78.82
79.99
79.70
77.43
72.74
65.38
55.46
43.46
30.35
16.82
3.43
-9.61
-22.58
-36.16
-50.98
-67.25
-84.55
-101.85
-118.34
-133.59
-147.91
-162.40
-178.57
-197.60
-219.71
-244.02
-268.88
-292.64
-314.29
-333.87
-352.42
-371.77
-394.19
-421.97
-457.17
-500.35
-549.36
-598.52
-639.31
-662.76
-662.66
-638.12
-593.90
-538.62
-481.30
-428.46
-382.83
-344.20
-311.24
-283.17
-260.02
-241.89
-228.07
-216.60
-204.94
-190.94
-173.69
-153.71
-132.62
-112.25
-93.78
-77.41
-62.35
-47.29
-31.06
-13.00
6.67
27.10
47.13
65.86
82.93
98.73
114.19
130.39
148.21
167.89
189.04
210.60
231.39
250.46
267.49
282.80
297.06
311.02
325.33
340.63
357.56
376.46
396.64
415.57
428.77
430.74
416.76
384.79
336.58
277.00
212.32
148.13
88.17
34.30
-12.72
-52.27
-84.11
-108.84
-128.74
-147.51
-169.16
-196.25
-228.68
-263.69
-296.48
-321.87
-335.50
-334.88
-319.66
-291.35
-252.68
-206.80
-156.75
-105.01
-53.69
-4.80
39.23
75.37
100.42
111.56
107.26
87.51
53.85
8.96
-43.64
-99.92
-155.57
-206.08
-247.37
-276.11
-290.20
-289.08
-273.76
-246.64
-210.73
-169.22
-124.82
-79.68
-35.43
6.70
45.60
80.34
110.13
134.61
154.10
169.56
182.31
193.76
204.99
216.52
228.46
240.69
253.24
266.56
281.47
298.85
319.27
342.65
368.18
394.65
420.95
446.37
470.91
495.27
520.66
548.71
581.09
618.79
661.17
705.16
745.07
773.68
784.26
772.78
739.28
687.76
624.68
556.92
489.99
427.46
371.25
322.36
281.40
248.49
222.96
203.21
186.91
171.53
155.05
136.33
115.17
92.02
67.45
41.76
14.85
-13.57
-43.67
-75.18
-107.13
-138.09
-166.34
-190.14
-207.89
-218.34
-220.42
-213.19
-196.01
-168.67
-131.77
-86.98
-37.02
14.64
64.20
108.04
143.14
167.23
178.92
177.61
163.47
137.45
101.30
57.69
9.85
-38.90
-85.77
-129.05
-168.45
-204.99
-240.38
-276.24
-313.07
-350.17
-386.24
-419.89
-450.14
-476.69
-499.69
-519.56
-536.97
-552.24
-565.94
-578.64
-589.83
-596.63
-593.61
-574.46
-534.83
-475.04
-399.32
-315.82
-234.23
-162.93
-106.81
-66.42
-39.25
-21.38
-8.89
4.03
22.38
48.86
82.88
121.21
159.83
195.14
224.54
246.67
264.68
282.75
304.45
331.01
361.07
391.29
416.38
430.09
408.15
336.93
220.96
84.71
-41.01
-135.78
-194.96
-225.35
-237.21
-238.69
-230.66
-212.16
-183.85
-150.72
-120.79
-98.18
-83.80
-74.12
-63.72
-46.28
-21.40
5.46
24.84
27.32
8.67
-29.44
-82.36
-145.52
-213.61
-284.18
-352.54
-408.31
-440.58
-441.24
-408.87
-348.65
-274.08
-187.98
-93.16
5.42
100.59
185.47
251.39
295.13
318.95
328.77
332.55
335.85
342.02
352.60
352.42
334.35
300.60
260.28
223.07
195.26
177.39
167.48
162.28
156.93
147.76
131.48
106.25
73.40
38.60
8.98
-9.28
-13.75
-7.04
7.10
24.65
42.35
58.42
72.21
83.02
89.85
91.86
88.78
83.02
78.09
76.42
79.32
86.36
95.60
104.35
109.93
110.08
103.47
94.39
85.09
76.96
70.33
64.83
59.76
54.48
48.72
43.02
38.39
35.08
33.26
