1596653112.00
64.000000
-0.00
-0.00
-0.00
-0.00
-0.00
-0.00
-0.00
-0.00
-0.00
-0.00
0.00
0.01
0.01
-0.00
-0.03
-0.05
-0.05
0.00
0.13
0.36
0.66
1.01
1.37
1.72
2.06
2.40
2.79
3.24
3.80
4.42
5.06
5.66
6.20
6.68
7.15
7.68
8.31
9.14
10.09
11.04
11.88
12.56
13.14
13.76
14.65
15.96
17.91
20.32
22.90
25.38
27.58
29.57
31.68
34.32
37.81
42.54
48.15
54.10
59.83
64.97
69.58
74.14
79.34
85.71
93.76
103.00
112.62
121.73
129.77
136.75
143.30
150.75
157.77
166.64
177.95
191.79
206.97
220.57
228.25
225.36
208.53
176.87
132.76
80.05
23.07
-34.94
-92.44
-149.16
-205.23
-260.37
-313.74
-363.87
-409.83
-450.91
-486.50
-515.74
-537.23
-549.22
-549.96
-538.37
-514.21
-478.67
-433.88
-382.45
-327.02
-269.84
-212.63
-156.66
-102.95
-52.37
-5.90
35.58
71.43
101.35
125.50
144.38
158.69
169.15
176.37
180.75
182.57
182.07
179.51
175.23
169.65
163.18
156.15
148.81
141.30
133.69
126.02
118.33
110.69
103.16
95.80
88.68
81.83
75.25
68.95
62.95
57.25
51.86
46.78
42.03
37.59
33.45
29.61
26.07
22.81
19.83
17.11
14.67
12.48
10.54
8.83
7.35
6.07
4.97
4.05
3.27
2.62
2.09
1.65
1.30
1.01
0.79
0.61
0.47
0.37
0.29
0.23
0.19
0.16
0.14
0.14
0.15
0.16
0.18
0.21
0.24
0.28
0.32
0.36
0.40
0.45
0.49
0.53
0.58
0.64
0.71
0.79
0.86
0.91
0.93
0.92
0.91
0.92
0.97
1.08
1.23
1.41
1.59
1.76
1.90
2.05
2.23
2.47
2.79
3.17
3.56
3.94
4.27
4.55
4.84
5.22
5.73
6.40
7.19
7.97
8.62
9.08
9.34
9.53
9.86
10.51
11.52
12.79
14.07
15.07
15.56
15.53
15.11
14.54
14.02
13.51
12.74
11.23
8.52
4.35
-1.14
-7.51
-14.02
-20.13
-25.43
-29.92
-33.80
-37.30
-40.66
-44.16
-48.10
-52.65
-57.40
-61.08
-61.71
-57.40
-47.31
-32.41
-15.37
0.42
12.19
18.72
20.56
19.24
16.39
13.07
9.74
6.73
4.64
4.26
6.14
10.06
14.87
18.88
20.56
19.18
15.18
9.96
5.18
2.16
1.40
2.66
5.23
8.42
11.78
15.13
18.45
21.58
24.15
25.65
25.71
24.17
21.16
17.11
12.53
7.86
3.38
-0.81
-4.69
-8.12
-10.86
-12.66
-13.42
-13.41
-13.22
-13.23
-13.94
-15.66
-18.25
-21.18
-23.70
-24.97
-24.28
-21.27
-16.09
-9.52
-2.80
2.74
6.09
6.96
5.85
3.71
1.50
-0.22
-1.53
-2.81
-4.43
-6.44
-8.41
-9.66
-9.54
-7.76
-4.46
-0.24
4.13
7.91
10.59
11.95
12.10
11.33
10.00
8.49
6.99
5.43
3.42
0.28
-4.80
-12.37
-22.36
-33.81
-45.02
-54.00
-59.07
-59.38
-55.04
-47.06
-36.97
-26.39
-16.72
-8.95
-3.55
-0.46
0.81
0.96
0.70
0.43
0.24
-0.01
-0.48
-1.25
-2.15
-2.93
-3.31
-3.06
-2.04
-0.17
2.50
5.81
9.40
12.81
15.55
17.31
18.06
18.14
18.03
18.19
18.69
19.20
19.05
17.58
14.48
10.01
4.94
0.25
-3.24
-5.16
-5.63
-5.08
-3.96
-2.48
-0.55
2.12
5.72
10.16
14.90
19.06
21.80
22.64
21.74
19.88
18.05
17.06
17.20
18.15
19.25
19.80
19.40
17.99
15.75
12.93
9.77
6.47
3.23
0.26
-2.31
-4.57
-6.82
-9.51
-13.04
-17.61
-22.99
-28.57
-33.41
-36.39
-36.59
-33.43
-27.02
-18.09
-7.88
2.12
10.55
16.51
19.70
20.42
19.36
17.40
15.27
13.47
12.14
11.21
10.43
9.58
8.44
6.96
5.15
3.12
1.18
-0.29
-0.81
-0.03
2.06
5.06
8.12
10.23
10.53
8.64
4.77
-0.30
-5.51
-9.86
-12.76
-14.21
-14.69
-14.91
-15.42
-16.29
-17.13
-17.28
-16.18
-13.63
-9.89
-5.49
-0.88
3.77
8.53
13.53
18.66
23.44
27.10
28.89
28.37
25.54
20.81
14.79
8.12
1.33
-5.13
-10.89
-15.61
-19.06
-21.25
-22.38
-22.88
-23.19
-23.69
-24.63
-26.08
-28.04
-30.28
-32.44
-33.93
-34.14
-32.65
-29.58
-25.62
-21.89
-19.50
-19.05
-20.38
-22.63
-24.69
-25.76
-25.71
-25.09
-24.79
-25.57
-27.69
-30.92
-34.72
-38.72
-42.94
-47.81
-53.89
-61.55
-70.69
-80.74
-90.85
-100.17
-108.17
-114.73
-120.17
-125.13
-130.40
-136.59
-143.57
-150.25
-154.69
-154.64
-148.40
-135.42
-116.29
-92.11
-63.83
-31.67
4.64
45.33
90.12
138.28
189.16
242.27
296.72
350.08
397.67
433.19
450.84
447.77
425.57
389.56
346.32
300.96
255.64
210.12
163.76
117.39
73.57
35.18
3.47
-22.97
-47.47
-73.17
-100.95
-128.68
-152.28
-167.72
-173.31
-170.50
-163.13
-155.59
-150.83
-149.34
-149.33
-147.93
-142.13
-129.63
-109.13
-80.88
-47.30
-13.41
13.71
26.82
21.23
-2.77
-39.41
-79.26
-112.78
-133.74
-140.89
-137.26
-127.45
-114.73
-99.37
-78.90
-49.94
-10.55
38.25
92.25
145.15
190.37
222.66
239.03
238.86
223.60
196.17
160.55
121.31
83.07
49.87
24.54
8.12
-0.20
-2.73
-2.65
-3.13
-6.52
-13.77
-24.14
-35.51
-45.13
-50.65
-51.10
-47.34
-41.84
-38.03
-39.11
-46.86
-60.76
-77.72
-92.74
-100.48
-97.10
-81.75
-56.92
-27.45
1.41
25.96
45.24
60.77
75.13
90.20
106.07
121.09
133.04
140.43
143.21
142.56
140.09
136.96
133.50
129.41
124.38
118.45
112.17
106.23
101.04
96.45
91.75
85.97
78.28
68.34
56.52
43.82
31.64
21.40
14.14
10.24
9.36
10.63
13.04
15.82
18.68
21.89
26.08
31.97
39.96
49.95
61.34
73.29
84.88
95.41
104.44
111.62
116.72
119.53
120.02
118.38
114.84
109.35
101.36
89.80
73.62
52.64
28.14
2.81
-20.06
-38.01
-50.58
-59.58
-68.34
-80.24
-97.26
-119.38
-144.88
-171.27
-196.22
-218.14
-236.05
-249.42
-257.92
-261.62
-261.04
-256.98
-249.91
-239.21
-223.19
-199.77
-167.98
-129.21
-87.34
-47.57
-14.33
10.23
26.80
37.83
45.84
52.15
56.74
58.98
58.77
57.24
56.56
59.17
66.77
79.52
95.85
112.92
127.53
137.25
141.26
140.37
136.46
131.40
126.19
120.62
113.69
104.33
92.02
76.88
59.57
40.89
21.74
3.18
-13.47
-26.82
-35.73
-39.82
-39.83
-37.61
-35.85
-37.28
-44.00
-56.74
-74.53
-94.85
-114.37
-129.97
-139.68
-143.27
-142.21
-139.13
-137.04
-138.54
-145.28
-157.88
-176.12
-199.09
-225.17
-251.67
-274.75
-289.59
-291.39
-276.62
-244.41
-197.00
-139.39
-78.20
-20.15
29.15
66.00
89.13
99.89
102.11
101.16
102.30
108.82
120.79
135.25
147.81
154.82
154.88
149.12
140.04
129.92
119.83
109.51
98.22
85.69
72.44
59.49
47.74
37.49
28.39
19.68
10.66
0.95
-9.33
-19.75
-29.67
-38.52
-45.83
-51.27
-54.45
-54.98
-52.60
-47.49
-40.40
-32.59
-25.21
-18.68
-12.33
-4.62
6.19
21.28
40.92
64.38
90.09
115.70
138.19
154.24
161.12
157.60
144.56
124.72
101.46
77.53
54.21
31.65
9.69
-11.35
-30.39
-46.10
-57.54
-64.40
-67.01
-66.14
-63.14
-60.37
-61.20
-69.54
-88.52
-118.95
-158.52
-202.24
-243.98
-278.34
-301.87
-313.24
-312.38
-299.70
-275.62
-240.83
-196.69
-145.59
-90.79
-35.86
15.91
61.95
100.51
130.75
152.60
166.81
174.65
177.45
176.07
170.74
161.47
148.65
133.62
118.33
104.65
93.34
83.63
73.74
61.97
47.97
33.16
20.22
11.73
8.75
10.06
12.65
12.97
8.56
-0.96
-13.88
-27.11
-37.56
-43.12
-43.25
-38.93
-32.13
-25.15
-20.11
-18.65
-21.81
-29.98
-42.59
-57.93
-73.08
-84.33
-88.03
-81.79
-65.51
-41.61
-14.51
10.82
30.44
42.76
48.61
50.59
51.60
53.58
56.98
60.93
64.01
65.01
63.37
59.19
52.91
45.06
36.11
26.50
16.83
7.79
0.08
-5.78
-9.59
-11.38
-11.17
-8.83
-4.07
3.31
13.04
24.03
34.48
42.24
45.44
43.05
35.13
22.74
7.65
-8.11
-22.55
-33.96
-41.12
-43.51
-41.42
-35.90
-28.44
-20.58
-13.55
-8.09
-4.42
-2.38
-1.60
-1.60
-1.97
-2.41
-2.84
-3.36
-4.19
-5.58
-7.67
-10.32
-13.02
-14.78
-14.32
-10.36
-2.22
9.76
24.07
38.47
50.77
59.69
65.26
68.68
71.53
74.96
79.08
82.85
84.51
82.19
74.62
61.52
43.68
22.71
0.57
-20.98
-40.73
-58.07
-72.74
-84.54
-93.01
-97.54
-97.70
-93.58
-85.99
-76.29
-65.88
-55.78
-46.38
-37.46
-28.43
-18.53
-7.09
6.43
22.28
40.20
59.30
78.02
94.49
107.17
115.34
119.37
120.37
119.57
117.65
114.47
109.28
101.30
90.28
76.71
61.60
45.99
30.76
16.56
4.24
-4.84
-8.83
-5.97
4.56
21.86
43.21
64.74
82.62
94.27
98.93
97.53
91.76
83.25
72.97
61.24
48.10
33.77
18.72
3.62
-10.92
-24.51
-36.90
-47.73
-56.45
-62.40
-65.08
-64.45
-61.03
-55.83
-49.99
-44.55
-40.22
-37.33
-35.87
-35.50
-35.69
-35.85
-35.54
-34.60
-33.16
-31.53
-29.94
-28.44
-26.87
-25.10
-23.17
-21.37
-20.08
-19.63
-20.11
-21.46
-23.54
-26.25
-29.58
-33.43
-37.72
-42.22
-46.70
-50.93
-54.65
-57.49
-59.03
-58.90
-56.94
-53.41
-48.84
-43.95
-39.31
-35.21
-31.65
-28.53
-25.84
-23.71
-22.42
-22.14
-22.82
-24.12
-25.57
-26.78
-27.65
-28.35
-29.19
-30.35
-31.64
-32.60
-32.59
-31.16
-28.23
-24.08
-19.21
-14.10
-9.09
-4.36
-0.07
3.56
6.15
7.33
6.97
5.38
3.27
1.66
1.38
2.73
5.28
7.98
9.70
9.69
7.94
5.06
1.85
-1.17
-4.06
-7.23
-11.04
-15.34
-19.49
-22.52
-23.68
-22.72
-19.86
-15.62
-10.50
-4.91
0.81
6.26
10.95
14.43
16.50
17.29
17.21
16.72
16.07
15.20
13.76
11.38
7.85
3.33
-1.68
-6.49
-10.37
-12.83
-13.64
-12.87
-10.84
-8.04
-5.00
-2.23
-0.14
1.05
1.35
0.95
0.11
-0.94
-2.03
-3.05
-3.98
-4.75
-5.31
-5.59
-5.62
-5.51
-5.48
-5.80
-6.75
-8.55
-11.30
-14.92
-19.07
-23.18
-26.57
-28.56
-28.73
-27.02
-23.77
-19.60
-15.13
-10.80
-6.72
-2.77
1.18
5.10
8.63
11.22
12.33
11.74
9.70
6.90
4.14
2.08
1.03
0.96
1.78
3.44
6.06
9.70
14.21
19.16
23.89
27.84
30.75
32.76
34.24
35.53
36.71
37.58
37.80
37.12
35.51
33.16
30.36
27.39
24.43
21.59
18.90
16.33
13.85
11.38
8.91
6.54
4.50
3.18
2.93
4.01
6.35
9.62
13.25
16.64
19.27
20.79
21.07
20.08
17.94
14.86
11.12
7.17
3.45
0.40
-1.68
-2.76
-3.08
-3.12
-3.44
-4.56
-6.79
-10.12
-14.25
-18.61
-22.64
-25.83
-27.99
-29.22
-29.88
-30.57
-31.91
-34.50
-38.75
-44.78
-52.30
-60.65
-68.82
-75.66
-80.21
-81.96
-80.98
-77.96
-73.94
-69.98
-66.86
-64.81
-63.55
-62.49
-61.09
-59.19
-57.17
-55.91
-56.35
-59.10
-63.98
-69.76
-74.21
-74.48
-67.79
-52.28
-27.69
4.31
40.40
76.48
108.68
134.30
152.21
162.68
166.87
166.30
162.41
156.47
149.55
142.51
135.84
129.57
123.21
116.03
107.29
96.47
83.33
67.95
50.71
32.29
13.76
-3.60
-18.54
-30.14
-38.06
-42.61
-44.68
-45.52
-46.47
-48.55
-51.95
-55.70
-57.75
-55.79
-48.45
-36.41
-22.60
-11.18
-5.66
-7.15
-13.93
-22.08
-26.99
-24.84
-13.31
8.42
39.69
77.80
117.75
152.59
175.59
183.36
178.41
169.17
166.82
180.04
210.89
254.00
299.66
339.02
367.88
387.37
401.28
412.17
419.11
418.31
405.87
380.61
345.19
304.65
263.96
225.86
190.25
155.15
118.64
80.14
40.68
2.30
-33.16
-65.25
-95.22
-125.34
-157.59
-192.10
-226.64
-257.33
-280.07
-292.50
-295.01
-290.54
-283.29
-276.98
-273.70
-273.67
-275.86
-278.79
-281.18
-282.08
-280.87
-277.18
-270.97
-262.76
-253.48
-244.25
-235.92
-228.86
-222.63
-216.15
-207.98
-196.75
-181.62
-162.63
-140.84
-118.18
-96.99
-79.29
-66.18
-57.44
-51.69
-46.88
-41.09
-33.19
-23.23
-12.39
-2.45
4.91
8.81
9.46
7.97
5.93
4.67
4.99
7.05
10.55
14.95
19.57
23.64
26.31
26.82
24.77
20.41
14.85
9.95
7.90
10.60
18.94
32.24
48.20
63.24
73.41
75.53
68.01
51.35
27.83
0.84
-25.91
-49.01
-65.85
-74.83
-75.74
-69.93
-60.05
-49.29
-40.28
-34.11
-30.04
-26.23
-20.93
-13.58
-5.05
3.04
9.43
14.00
17.78
22.25
28.38
36.21
44.67
52.03
56.38
56.21
50.61
39.67
24.49
7.05
-10.28
-25.79
-39.06
-51.19
-63.96
-78.61
-94.78
-110.43
-122.67
-129.08
-128.80
-122.57
-111.76
-97.39
-79.58
-57.88
-32.11
-3.38
25.75
51.62
70.32
78.46
73.94
56.72
29.19
-4.08
-37.38
-65.56
-85.74
-98.06
-105.07
-110.11
-115.78
-123.12
-131.68
-140.39
-147.90
-152.64
-152.38
-144.53
-126.88
-98.88
-62.56
-22.42
15.72
46.50
66.38
74.20
71.12
59.65
42.98
24.35
6.68
-7.67
-17.11
-20.85
-18.79
-11.23
1.36
18.48
39.54
63.56
89.10
114.32
137.06
155.12
166.69
170.69
167.26
157.93
145.52
133.51
125.11
122.35
125.50
133.04
142.18
149.65
152.67
149.64
140.53
126.81
110.83
94.98
81.01
69.59
60.59
53.54
48.10
44.35
42.62
43.32
46.73
52.99
62.04
73.55
86.65
99.79
110.78
117.34
117.71
111.40
99.44
84.32
69.29
57.42
50.60
48.95
50.78
53.13
52.77
47.17
35.11
16.90
-5.89
-30.98
-56.03
-79.23
-99.51
-116.42
-129.63
-138.53
-142.12
-139.42
-130.25
-115.83
-98.91
-83.13
-71.86
-67.13
-69.13
-76.47
-86.84
-97.83
-107.42
-114.15
-117.13
-115.98
-110.88
-102.58
-92.41
-82.00
-73.02
-66.72
-63.63
-63.49
-65.30
-67.65
-69.03
-68.22
-64.50
-57.86
-49.03
-39.43
-30.75
-24.39
-20.97
-19.99
-20.16
-20.06
-18.99
-17.29
-16.14
-16.74
-19.54
-23.95
-28.64
-32.41
-34.95
-37.02
-40.14
-45.82
-54.87
-67.15
-81.85
-98.05
-115.07
-132.61
-150.64
-169.43
-189.57
-211.96
-237.52
-266.46
-297.40
-326.91
-350.06
-361.89
-359.21
-341.88
-312.65
-275.86
-235.63
-194.50
-153.30
-111.99
-70.87
-31.11
5.47
37.35
64.19
87.15
108.61
131.38
157.85
189.40
225.93
265.58
304.92
339.71
366.12
382.15
388.38
387.70
384.01
380.60
379.08
379.24
379.79
379.39
377.38
373.79
369.09
363.69
357.75
351.20
344.00
336.22
328.06
319.78
311.44
302.73
292.87
280.83
265.80
247.55
226.61
204.17
181.73
160.95
143.82
132.62
129.40
134.73
146.39
159.18
166.25
161.94
144.46
117.02
86.40
59.88
42.30
34.56
34.60
39.52
47.65
59.07
74.57
93.85
114.34
131.44
139.99
136.35
119.86
93.03
60.60
27.74
-1.76
-26.60
-48.00
-68.85
-92.19
-119.84
-151.69
-185.99
-220.20
-252.10
-280.77
-306.86
-332.37
-360.11
-393.01
-433.45
-482.30
-537.82
-594.91
-645.52
-680.38
-691.99
-677.35
-639.05
-584.07
-520.77
-455.54
-391.04
-326.50
-259.77
-189.69
-117.48
-46.87
16.51
66.35
96.90
104.54
89.34
55.85
12.24
-32.25
-70.48
-99.45
-120.00
-134.55
-144.07
-146.57
-137.89
-114.55
-76.64
-29.03
19.81
61.09
89.11
102.92
105.71
102.48
97.35
92.12
86.68
80.39
73.49
67.46
64.32
65.49
71.42
81.86
96.76
116.51
141.32
170.03
199.52
225.37
243.48
251.77
250.77
242.85
230.59
215.66
198.66
179.75
159.53
139.35
120.79
104.85
91.42
79.50
67.96
56.53
46.18
38.75
35.94
38.09
43.63
49.50
52.34
49.89
41.82
29.72
16.17
3.68
-6.24
-13.20
-17.59
-20.06
-21.19
-21.47
-21.50
-21.92
-23.29
-25.70
-28.47
-30.23
-29.18
-23.78
-13.38
1.40
18.73
36.14
51.23
62.40
69.21
72.15
72.25
70.41
67.01
61.93
54.93
46.08
36.30
27.45
22.00
22.43
30.39
45.89
67.10
90.60
112.14
127.78
134.92
132.96
123.14
107.81
89.22
68.31
44.35
15.12
-22.30
-70.57
-131.15
-203.30
-283.21
-363.78
-435.57
-489.21
-518.67
-523.81
-510.52
-488.20
-465.76
-448.21
-435.63
-424.85
-412.49
-397.25
-380.13
-362.71
-344.74
-323.11
-293.00
-250.63
-195.94
-133.39
-70.52
-14.57
30.76
66.85
99.23
134.79
178.63
231.91
291.75
352.60
408.16
453.03
483.53
498.28
498.33
486.97
468.74
448.05
427.70
408.19
388.46
367.37
344.82
322.33
302.36
287.26
278.34
275.55
277.63
282.65
288.43
293.00
294.87
293.47
289.37
284.14
279.60
276.83
275.14
271.84
263.13
245.98
220.07
188.72
158.22
135.57
125.71
129.70
144.49
164.62
184.55
200.32
209.86
212.41
207.83
196.62
180.42
162.29
146.12
135.12
130.37
130.05
130.31
126.91
117.01
100.07
77.56
51.93
25.43
-0.34
-24.60
-47.00
-67.57
-86.68
-105.05
-123.57
-142.88
-163.04
-183.43
-203.00
-220.65
-235.87
-248.90
-260.74
-272.77
-286.22
-301.79
-319.40
-338.39
-357.83
-377.12
-396.32
-416.33
-438.69
-465.01
-496.18
-531.60
-568.60
-602.50
-627.40
-637.62
-629.45
-602.49
-559.98
-507.82
-452.78
-400.45
-354.14
-314.81
-282.01
-254.82
-232.38
-213.75
-197.46
-181.36
-163.26
-141.83
-117.19
-90.70
-63.96
-37.87
-12.26
13.62
40.17
66.86
92.27
114.91
133.88
149.03
160.52
168.05
170.57
166.65
155.71
139.07
120.09
103.39
93.21
91.78
98.64
110.87
124.36
135.23
141.18
141.84
138.57
133.59
129.03
126.16
125.06
124.75
123.87
121.51
117.82
114.08
111.86
111.82
112.89
112.46
107.72
97.45
83.18
69.27
61.41
64.41
80.23
107.04
139.72
171.33
195.14
206.36
203.15
186.88
161.62
133.05
106.82
87.16
75.75
71.59
71.71
72.41
70.47
63.93
52.27
36.19
16.99
-3.80
-24.77
-44.65
-62.41
-77.25
-88.69
-96.60
-101.33
-103.80
-105.52
-108.53
-115.01
-126.74
-144.36
-166.86
-191.64
-215.01
-233.06
-242.57
-241.85
-231.21
-212.97
-190.92
-169.06
-150.16
-134.68
-120.70
-104.89
-84.14
-57.15
-25.02
9.00
40.49
64.92
78.40
78.18
63.19
34.39
-4.88
-49.36
-92.92
-130.05
-156.94
-171.90
-174.94
-167.11
-150.02
-125.56
-95.88
-63.15
-29.20
4.76
38.09
69.90
98.31
120.16
131.73
130.24
115.08
88.14
52.92
13.06
-28.59
-69.75
-107.49
-137.33
-153.54
-151.20
-129.04
-91.32
-47.45
-9.03
14.40
18.98
7.80
-10.76
-26.67
-31.99
-23.46
-2.84
24.94
54.20
80.83
103.23
122.04
138.71
154.28
168.62
180.60
188.90
192.96
193.32
191.34
188.45
185.15
180.73
173.57
162.13
145.97
126.43
106.05
87.55
72.47
60.42
49.29
36.40
19.75
-1.02
-24.37
-47.60
-67.85
-83.08
-92.58
-96.89
-97.34
-95.44
-92.40
-89.02
-85.79
-83.06
-81.10
-79.93
-79.21
-78.12
-75.62
-70.89
-63.69
-54.52
-44.41
-34.50
-25.75
-18.83
-14.12
-11.79
-11.90
-14.27
-18.44
-23.78
-29.48
-34.72
-38.38
-39.01
-34.98
-24.96
-8.45
13.84
39.91
66.88
91.51
110.88
123.02
127.27
124.45
116.50
105.84
94.53
83.95
74.86
67.99
64.42
65.43
71.55
81.62
92.46
99.81
100.16
92.31
77.83
60.13
42.70
27.68
15.28
4.49
-5.77
-15.76
-24.94
-32.80
-39.87
-48.33
-61.31
-81.24
-108.04
-138.14
-165.05
-181.40
-181.50
-163.28
-128.61
-82.04
-29.12
24.77
74.79
116.69
147.12
164.55
170.11
167.46
161.04
153.61
144.66
131.08
110.12
82.80
55.38
37.21
35.79
51.83
77.33
98.29
101.01
78.39
33.25
-22.96
-75.30
-111.45
-125.98
-120.82
-102.48
-78.18
-53.20
-30.20
-10.32
5.47
15.99
20.79
21.47
21.93
27.00
39.84
59.80
82.08
99.82
107.57
103.96
92.31
78.64
68.55
64.66
65.89
68.76
69.49
65.95
58.31
48.51
38.88
30.94
24.76
19.14
12.25
2.58
-10.36
-25.83
-42.02
-56.74
-68.17
-75.28
-77.98
-76.79
-72.55
-66.17
-58.75
-51.55
-45.97
-43.12
-43.23
-45.16
-46.63
-45.14
-38.96
-28.40
-15.76
-4.68
1.26
-0.31
-9.70
-25.14
-43.39
-60.85
-74.87
-84.81
-92.18
-100.00
-111.23
-127.34
-147.46
-168.76
-187.93
-202.76
-213.01
-219.94
-225.00
-228.23
-227.79
-220.67
-204.45
-179.12
-147.84
-116.32
-90.82
-75.95
-72.73
-78.51
-87.94
-94.99
-94.68
-84.07
-62.56
-32.07
2.62
33.95
52.81
51.54
27.39
-15.17
-64.98
-108.11
-133.14
-135.22
-116.78
-84.76
-46.25
-5.07
38.58
85.80
135.78
184.31
224.79
251.28
261.19
256.07
240.17
217.85
191.62
161.91
128.58
92.93
58.48
30.06
11.71
4.91
8.14
18.04
31.27
45.87
61.25
77.35
93.77
109.23
121.97
130.31
133.18
130.31
122.17
109.96
95.58
81.53
70.32
63.81
62.56
65.75
71.68
78.43
84.47
88.80
90.83
90.28
87.27
82.43
76.84
71.65
67.52
64.31
61.26
57.49
52.61
46.96
41.36
36.62
33.19
31.19
30.59
31.55
34.36
39.22
45.78
52.97
59.02
61.90
59.86
52.00
38.58
21.03
1.55
-17.44
-33.87
-46.35
-54.29
-57.71
-57.18
-53.67
-48.65
-43.93
-41.42
-42.60
-47.78
-55.67
-63.51
-67.74
-65.13
-53.98
-34.79
-10.24
15.62
38.52
55.28
64.50
66.67
63.58
57.39
49.78
41.61
33.00
23.94
14.80
6.53
0.44
-2.36
-1.55
2.25
7.63
12.94
16.89
18.80
18.70
17.01
14.04
9.69
3.48
-5.21
-16.66
-30.48
-45.64
-60.76
-74.57
-86.09
-94.62
-99.51
-100.04
-95.60
-86.03
-72.09
-55.46
-38.48
-23.45
-11.94
-4.58
-1.16
-1.09
-3.78
-8.75
-15.53
-23.43
-31.41
-38.17
-42.36
-42.86
-39.01
-30.76
-18.61
-3.57
12.98
29.44
44.17
55.61
62.53
64.15
60.40
52.06
40.92
29.61
21.16
18.41
23.26
36.20
56.04
79.93
103.57
121.87
129.90
124.40
105.05
75.26
41.72
12.62
-4.91
-7.29
4.35
24.57
45.62
59.95
62.33
50.85
26.94
-5.18
-39.28
-68.09
-84.70
-84.59
-67.46
-38.34
-6.50
17.53
26.02
17.12
-4.69
-31.18
-54.64
-71.32
-82.47
-92.25
-104.39
-119.47
-134.78
-146.26
-151.45
-151.12
-148.70
-147.92
-150.08
-153.10
-152.59
-144.74
-128.82
-107.78
-86.60
-69.21
-56.10
-44.27
-29.77
-11.31
7.60
19.44
16.70
-3.38
-35.91
-69.64
-91.94
-94.77
-78.32
-50.26
-21.27
0.52
12.95
19.56
26.22
37.12
52.54
69.42
83.89
93.68
99.00
101.51
102.58
102.33
100.20
96.53
93.80
96.38
108.68
132.80
166.71
204.17
236.46
255.19
254.88
234.44
196.95
148.26
95.11
43.51
-1.87
-37.74
-61.90
-73.25
-72.28
-61.77
-46.96
-34.83
-32.19
-43.27
-68.10
-102.14
-137.83
-166.97
-183.42
-184.82
-172.89
-152.46
-129.52
-109.16
-94.22
-84.74
-78.57
-72.68
-64.69
-54.04
-42.52
-33.53
-30.52
-35.14
-45.93
-58.38
-66.44
-64.84
-51.10
-26.30
5.79
40.46
73.67
102.61
125.13
138.91
141.38
130.83
107.89
76.70
44.23
18.17
4.20
3.88
14.25
29.28
42.61
50.33
52.74
54.22
61.13
78.57
107.38
142.85
175.87
196.21
196.16
172.82
128.24
67.63
-2.50
-75.35
-143.52
-198.70
-232.57
-239.19
-217.81
-174.20
-119.35
-65.83
-23.59
2.66
13.67
13.69
8.02
1.46
-2.32
-0.66
7.91
22.98
41.81
59.81
72.13
75.70
70.58
59.79
47.53
37.02
29.15
22.48
14.63
3.92
-9.68
-24.70
-39.10
-51.24
-60.35
-66.26
-68.88
-67.73
-62.08
-51.37
-35.78
-16.62
3.77
22.56
37.25
46.34
49.74
48.61
44.86
40.27
35.63
30.40
23.00
11.93
-3.03
-20.06
-35.81
-46.88
-51.62
-51.01
-48.02
-45.66
-44.98
-44.29
-40.25
-30.11
-13.79
5.64
23.43
35.49
40.36
39.69
37.03
35.88
38.10
43.23
49.16
53.29
53.82
50.39
44.01
36.52
29.70
24.76
22.04
21.33
22.21
24.31
27.38
31.10
34.85
37.80
39.16
38.50
35.95
32.11
27.72
23.37
19.26
15.22
10.92
6.07
0.64
-5.02
-10.26
-14.26
-16.32
-16.10
-13.80
-10.09
-5.92
-2.29
-0.10
-0.10
-3.01
-9.21
-18.55
-30.08
-42.05
-52.49
-59.96
-64.19
-66.13
-67.26
-68.63
-70.14
-70.55
-68.26
-62.37
-53.46
-43.55
-35.27
-30.62
-30.02
-32.16
-34.77
-35.65
-33.67
-29.06
-22.94
-16.65
-11.15
-6.77
-3.45
-1.05
0.50
1.14
0.91
0.04
-1.14
-2.24
-2.94
-2.97
-2.14
-0.35
2.23
5.18
7.90
9.87
10.91
11.26
11.31
11.34
11.23
10.51
8.58
5.07
0.13
-5.59
-11.11
-15.51
-18.19
-19.02
-18.31
-16.68
-14.77
-13.16
-12.22
-12.17
-13.18
-15.40
-18.91
-23.59
-28.91
-34.04
-38.13
-40.67
-41.79
-42.14
-42.41
-42.86
-43.11
-42.41
-40.34
-37.26
-34.35
-32.87
-33.30
-34.84
-35.61
-33.64
-27.85
-18.56
-7.07
5.15
17.33
29.43
41.59
53.49
64.00
71.56
75.04
74.22
69.77
62.73
53.75
42.92
30.26
16.37
2.93
-7.63
-13.02
-12.11
-5.66
3.90
13.45
20.43
23.86
24.53
24.41
25.50
28.67
33.19
37.02
38.00
34.90
28.10
19.39
11.13
5.28
2.76
3.42
6.32
10.07
13.24
14.49
12.98
8.63
2.26
-4.61
-10.28
-13.54
-14.23
-13.10
-11.42
-10.23
-10.04
-10.87
-12.61
-15.26
-18.82
-22.87
-26.23
-27.06
-23.60
-15.22
-3.04
10.16
20.93
26.50
25.91
20.20
11.91
4.12
-0.59
-0.72
3.93
12.19
21.90
30.44
35.70
36.85
34.76
31.67
30.07
31.60
36.25
42.50
48.18
51.48
51.54
48.42
42.65
34.71
24.86
13.37
0.73
-12.19
-24.34
-34.81
-43.08
-49.07
-52.96
-55.00
-55.34
-54.06
-51.19
-46.85
-41.23
-34.65
-27.58
-20.65
-14.64
-10.20
-7.56
-6.29
-5.31
-3.32
0.61
6.49
13.33
19.61
24.00
25.97
26.03
25.44
25.60
27.48
31.23
36.12
40.77
43.44
42.60
37.40
28.08
16.12
3.83
-6.46
-13.22
-16.30
-16.72
-16.12
-15.90
-16.73
-18.50
-20.72
-22.96
-25.06
-27.03
-28.70
-29.60
-29.05
-26.60
-22.52
-17.81
-13.95
-12.39
-13.96
-18.76
-26.19
-35.25
-44.67
-52.96
-58.44
-59.51
-55.15
-45.52
-32.26
-18.03
-5.64
3.07
7.89
10.09
11.59
13.85
17.31
21.32
24.69
26.42
26.15
24.33
21.92
19.92
18.96
19.02
19.51
19.59
18.75
17.09
15.26
14.05
13.83
14.38
15.23
16.13
17.50
20.19
24.78
30.91
37.13
41.42
42.22
39.18
33.17
25.72
18.20
11.32
5.24
-0.01
-4.16
-6.68
-7.32
-6.42
-5.08
-4.74
-6.49
-10.42
-15.55
-20.20
-22.74
-22.32
-19.08
-13.97
-8.17
-2.60
2.37
6.73
10.60
14.01
16.87
19.03
20.34
20.72
20.16
18.75
16.73
14.57
12.82
11.93
12.05
12.97
14.24
15.45
16.26
16.52
16.08
14.75
12.42
9.21
5.64
2.56
0.90
1.36
4.04
8.43
13.61
18.56
22.56
25.18
26.24
25.67
23.43
19.72
15.10
10.53
7.08
5.52
5.83
7.22
8.44
8.45
6.86
3.91
0.24
-3.66
-7.56
-11.45
-15.25
-18.78
-21.72
-23.93
-25.54
-26.87
-28.26
-29.68
-30.78
-30.96
-29.64
-26.62
-22.15
-16.89
-11.72
-7.44
-4.57
-3.21
-3.16
-4.12
-5.89
-8.41
-11.71
-15.74
-20.20
-24.58
-28.32
-31.00
-32.51
-33.06
-33.15
-33.39
-34.31
-36.19
-38.96
-42.22
-45.50
-48.48
-51.27
-54.27
-58.06
-62.91
-68.61
-74.46
-79.53
-83.07
-84.75
-84.74
-83.59
-82.04
-80.78
-80.23
-80.36
-80.59
-79.86
-76.89
-70.63
-60.79
-48.10
-34.14
-20.88
-9.98
-2.33
2.03
3.80
4.12
4.31
5.64
8.96
14.47
21.51
28.82
35.03
39.43
42.31
44.90
48.68
54.65
62.78
72.08
81.20
89.00
94.79
98.20
98.78
95.92
89.07
78.26
64.45
49.52
35.81
25.55
20.34
20.80
26.32
35.10
44.42
51.25
53.27
49.85
42.44
34.02
27.73
25.33
26.29
28.18
28.04
24.08
16.60
7.75
0.20
-4.30
-5.77
-5.66
-5.73
-6.82
-8.34
-8.75
-6.75
-2.35
2.77
5.98
4.99
-0.85
-10.02
-19.40
-25.60
-26.32
-21.20
-11.72
-0.30
10.87
20.63
29.06
36.91
44.79
52.40
58.41
60.94
58.46
50.60
38.51
24.63
11.85
2.59
-1.97
-2.14
0.59
4.26
7.24
8.83
9.36
9.92
11.74
15.59
21.44
28.50
35.49
40.93
43.19
40.56
31.53
15.59
-5.82
-29.01
-48.76
-60.37
-61.89
-55.40
-46.16
-40.09
-40.69
-47.34
-56.02
-61.86
-61.97
-56.72
-48.96
-41.80
-36.88
-33.91
-31.60
-29.16
-27.02
-26.56
-29.05
-34.69
-42.36
-50.01
-55.45
-56.97
-53.76
-46.12
-35.45
-24.10
-14.67
-9.06
-7.59
-8.86
-10.53
-10.60
-8.45
-4.94
-1.67
0.18
0.55
0.24
0.03
-0.10
-1.17
-4.42
-10.26
-17.63
-24.20
-27.44
-25.92
-19.88
-11.06
-1.57
7.05
14.61
21.96
30.16
39.52
48.97
56.11
58.00
52.24
37.91
16.02
-10.81
-39.25
-66.08
-88.92
-106.26
-117.13
-120.82
-116.87
-105.49
-88.09
-67.42
-47.02
-30.13
-18.45
-11.70
-8.00
-4.85
-0.19
7.03
16.79
28.24
39.87
49.72
55.74
56.35
51.33
42.34
32.60
25.76
24.31
28.38
35.61
42.06
43.97
39.50
29.85
19.23
13.71
19.07
38.47
70.84
110.64
149.44
178.58
192.09
188.40
170.41
143.84
114.95
88.45
66.54
49.16
35.09
23.13
12.77
4.12
-2.62
-7.83
-12.57
-18.09
-24.90
-32.23
-38.11
-40.30
-37.46
-29.97
-19.93
-10.39
-4.21
-3.22
-7.79
-16.89
-28.56
-40.33
-49.91
-55.76
-57.44
-55.68
-51.94
-47.75
-44.06
-40.95
-37.91
-34.43
-30.42
-26.43
-23.24
-21.39
-20.80
-20.67
-19.95
-17.72
-13.60
-7.92
-1.51
4.71
10.06
14.32
17.63
20.29
22.49
24.07
24.57
23.35
19.71
12.97
2.45
-12.46
-32.00
-55.49
-80.90
-104.84
-123.40
-133.47
-134.01
-126.54
-114.55
-102.04
-92.04
-85.73
-82.68
-81.88
-82.82
-86.03
-92.64
-103.46
-117.78
-132.85
-144.33
-147.67
-139.85
-120.65
-92.82
-61.11
-30.57
-5.05
13.48
24.69
29.20
27.90
21.81
12.20
0.50
-11.97
-24.68
-38.24
-54.31
-74.80
-100.79
-131.77
-165.38
-197.90
-225.00
-242.82
-248.86
-242.62
-225.81
-201.87
-175.04
-149.04
-126.04
-106.24
-88.26
-70.05
-49.93
-27.27
-2.39
23.84
50.60
77.68
105.44
134.59
166.22
201.64
241.91
287.01
334.61
379.75
415.58
435.62
436.41
419.08
389.00
353.62
319.60
290.74
267.74
249.41
234.33
221.95
212.34
205.48
200.50
195.82
189.74
181.21
170.11
157.08
143.21
129.63
117.34
107.19
99.83
95.55
94.16
95.10
97.46
100.38
103.08
104.99
105.66
104.62
101.50
96.14
88.72
79.76
69.95
59.85
49.75
39.72
29.76
20.09
11.03
3.05
-3.51
-8.42
-11.58
-12.87
-12.18
-9.46
-4.93
0.88
7.25
13.43
19.07
24.24
29.43
35.25
42.08
49.64
56.56
60.56
58.87
49.19
30.61
4.15
-27.45
-60.54
-91.68
-118.54
-140.20
-156.84
-169.31
-178.57
-185.58
-191.21
-196.25
-201.26
-206.47
-211.60
-215.97
-218.65
-218.76
-215.82
-209.85
-201.54
-192.00
-182.43
-173.80
-166.56
-160.51
-154.96
-149.07
-142.21
-134.28
-125.69
-117.20
-109.30
-101.70
-93.13
-81.57
-65.16
-43.11
-16.26
13.08
42.05
68.29
90.52
108.45
122.03
130.89
134.13
131.02
121.76
108.10
92.97
79.56
70.15
65.24
63.61
63.03
61.17
56.48
48.46
37.60
25.06
12.28
0.56
-9.32
-17.38
-24.30
-31.12
-38.63
-46.90
-55.23
-62.57
-68.08
-71.55
-73.35
-74.02
-73.82
-72.58
-70.06
-66.41
-62.45
-59.47
-58.55
-60.02
-63.16
-66.63
-69.10
-69.90
-69.22
-67.91
-66.96
-67.04
-68.41
-70.94
-74.32
-78.13
-81.87
-85.02
-87.14
-88.13
-88.47
-89.09
-91.03
-94.94
-100.64
-107.11
-112.92
-116.85
-118.48
-118.27
-117.20
-116.15
-115.24
-113.56
-109.40
-100.94
-86.81
-66.62
-40.98
-11.23
21.01
54.12
86.61
117.06
144.12
166.62
183.62
194.59
199.35
197.94
190.66
178.24
162.34
145.77
132.33
125.76
128.28
139.31
155.21
170.30
178.71
176.33
161.75
135.99
101.45
60.87
17.03
-26.93
-67.10
-99.03
-118.93
-125.13
-119.04
-104.81
-87.80
-72.50
-61.08
-52.94
-45.76
-36.85
-24.36
-7.84
11.94
33.49
55.10
75.27
93.02
108.17
121.31
133.42
144.91
154.77
160.07
156.54
140.23
109.74
67.88
21.77
-19.04
-45.95
-54.76
-47.60
-32.20
-18.68
-15.02
-23.45
-39.47
-53.86
-56.77
-41.97
-9.27
35.53
82.90
122.77
147.50
153.57
141.87
116.61
83.35
47.17
11.43
-22.09
-52.32
-77.75
-96.06
-104.63
-101.54
-86.39
-60.37
-25.95
13.51
53.73
89.62
115.97
128.94
127.68
114.86
95.75
75.75
58.22
43.75
31.16
19.40
8.93
1.24
-2.87
-4.96
-9.12
-20.28
-41.51
-71.80
-105.79
-135.37
-152.73
-153.31
-137.28
-109.37
-76.96
-47.42
-25.78
-13.54
-9.21
-9.80
-12.74
-16.95
-22.89
-31.41
-42.60
-55.21
-67.20
-76.93
-84.17
-90.06
-96.03
-102.67
-108.88
-112.27
-110.27
-101.51
-86.50
-67.37
-46.97
-27.83
-11.62
0.98
9.96
15.49
17.84
17.28
14.26
9.51
4.09
-0.72
-3.65
-3.82
-0.98
4.35
11.08
17.88
23.62
27.49
29.06
28.03
24.19
17.55
8.55
-1.72
-11.78
-20.29
-26.64
-31.24
-35.12
-39.21
-43.65
-47.61
-49.73
-48.94
-45.06
-38.90
-31.87
-25.31
-19.98
-15.85
-12.32
-8.51
-3.51
3.30
12.10
22.38
32.97
42.27
48.79
51.71
51.25
48.61
45.66
44.41
46.55
53.10
64.10
78.55
94.25
108.17
117.14
118.90
112.90
100.58
84.65
67.96
52.45
38.60
25.99
14.06
3.10
-5.68
-10.55
-10.24
-4.63
5.02
16.38
26.65
33.25
34.30
29.02
18.04
3.39
-11.95
-24.82
-32.92
-35.46
-33.28
-28.36
-22.95
-18.72
-16.54
-16.48
-18.13
-20.88
-24.07
-27.15
-29.87
-32.38
-35.43
-40.02
-47.02
-56.56
-67.84
-79.23
-88.80
-95.06
-97.48
-96.67
-94.13
-91.70
-90.76
-91.80
-94.25
-96.68
-97.40
-94.99
-88.73
-78.77
-65.96
-51.69
-37.70
-25.73
-17.16
-12.63
-11.71
-12.83
-13.83
-12.76
-8.63
-1.81
6.24
13.71
19.22
22.26
23.17
22.70
21.62
20.40
19.37
18.82
19.05
20.22
22.10
23.98
24.94
24.26
21.92
18.68
15.83
14.66
15.84
19.14
23.64
27.97
30.94
31.81
30.47
27.45
23.77
20.69
19.41
20.71
24.67
30.62
37.40
43.84
49.15
53.18
56.18
58.59
60.61
62.17
63.04
63.07
62.30
61.01
59.51
58.07
56.80
55.65
54.30
52.06
47.87
40.61
29.65
15.30
-0.86
-16.46
-29.11
-37.37
-41.22
-41.87
-41.08
-40.35
-40.50
-41.71
-43.90
-47.10
-51.44
-57.04
-63.61
-70.38
-76.18
-79.68
-79.88
-76.40
-69.61
-60.55
-50.57
-40.91
-32.26
-24.68
-17.80
-11.22
-4.89
0.78
5.20
7.90
8.91
8.72
8.12
7.84
8.34
9.67
11.59
13.57
14.88
14.79
12.77
8.76
3.32
-2.59
-7.99
-12.33
-15.66
-18.61
-21.87
-25.90
-30.89
-36.84
-43.65
-50.89
-57.51
-61.86
-62.09
-57.03
-46.79
-32.81
-17.13
-1.49
13.38
27.54
41.15
53.67
63.70
69.64
70.67
67.39
61.75
56.11
52.18
50.33
49.77
49.21
47.63
44.79
41.29
37.98
35.41
33.52
31.81
29.92
28.00
26.88
27.66
31.11
37.17
44.87
52.79
59.63
64.58
67.20
67.10
63.54
55.61
42.64
24.88
3.79
-18.15
-38.26
-54.50
-66.07
-73.38
-77.57
-79.82
-81.00
-81.71
-82.68
-85.16
-90.87
-101.49
-118.04
-140.19
-166.20
-193.38
-218.89
-240.33
-255.97
-264.51
-264.75
-255.57
-236.27
-206.97
-168.91
-124.05
-74.47
-21.92
32.11
85.71
136.21
180.33
215.13
239.10
252.74
258.17
257.99
254.20
247.66
238.33
225.83
210.05
191.44
170.99
150.11
130.29
112.75
98.03
85.78
74.68
63.09
49.80
34.72
18.85
3.90
-8.39
-16.75
-20.44
-19.29
-13.66
-4.69
5.65
14.92
20.86
22.29
19.45
13.85
7.43
1.66
-2.98
-6.93
-11.03
-15.82
-21.10
-25.95
-29.08
-29.26
-25.71
-18.23
-7.31
5.93
19.85
32.59
42.45
48.31
49.96
48.01
43.77
38.77
34.35
31.40
30.18
30.42
31.46
32.50
32.95
32.66
32.02
31.84
33.04
36.23
41.38
47.74
54.07
59.11
62.16
63.30
63.40
63.63
64.94
67.65
71.43
75.36
78.38
79.53
78.00
73.25
65.03
53.46
39.21
23.45
7.67
-6.61
-18.16
-26.16
-30.36
-31.01
-28.87
-24.98
-20.41
-15.93
-11.82
-8.11
-4.93
-2.98
-3.40
-7.48
-15.84
-28.15
-43.06
-58.82
-73.81
-86.93
-97.54
-105.22
-109.69
-110.83
-109.03
-105.16
-100.39
-95.65
-91.30
-87.03
-82.08
-75.84
-68.11
-59.27
-50.11
-41.54
-34.29
-28.74
-24.85
-22.29
-20.53
-18.99
-17.27
-15.28
-13.39
-12.46
-13.47
-17.14
-23.25
-30.56
-37.03
-40.60
-40.18
-36.30
-31.04
-27.26
-27.35
-32.08
-40.18
-48.60
-53.57
-51.85
-41.71
-23.35
1.32
29.51
58.42
85.79
109.88
129.06
141.56
145.71
140.71
127.57
109.37
90.44
74.86
64.81
59.85
57.46
54.68
49.72
42.77
35.68
30.64
28.99
30.56
33.96
37.30
38.90
37.43
31.82
21.04
4.32
-18.27
-45.16
-73.21
-98.19
-116.11
-124.56
-123.51
-115.27
-103.54
-92.04
-83.45
-78.80
-77.70
-78.84
-80.72
-82.01
-81.76
-79.36
-74.39
-66.60
-55.97
-42.93
-28.44
-13.95
-1.05
8.96
15.56
19.21
21.11
22.63
24.60
26.86
28.30
27.50
23.53
16.47
7.47
-1.90
-10.49
-18.04
-25.16
-32.59
-40.43
-47.69
-52.59
-53.34
-49.08
-40.32
-28.69
-16.13
-4.17
6.46
15.71
23.72
30.45
35.69
39.14
40.64
40.30
38.36
35.12
30.91
26.22
21.68
18.01
15.75
15.02
15.44
16.32
16.97
17.03
16.53
15.65
14.47
12.90
10.66
7.57
3.67
-0.73
-5.20
-9.52
-13.76
-18.30
-23.52
-29.60
-36.30
-43.15
-49.62
-55.39
-60.44
-65.00
-69.25
-73.17
-76.46
-78.55
-78.80
-76.70
-72.05
-65.08
-56.39
-46.81
-37.15
-27.97
-19.45
-11.40
-3.49
4.55
12.71
20.74
28.21
34.71
39.94
43.72
46.03
47.09
47.39
47.74
49.12
52.34
57.64
64.49
71.82
78.49
83.84
87.81
90.70
92.64
93.20
91.41
86.27
77.38
65.33
51.50
37.53
24.77
13.97
5.43
-0.72
-4.31
-5.20
-3.45
0.41
5.34
10.06
13.38
14.48
13.12
9.60
4.58
-1.19
-7.12
-12.97
-18.94
-25.49
-33.12
-41.86
-51.06
-59.30
-64.82
-66.11
-62.66
-55.25
-45.81
-36.68
-29.59
-25.03
-22.13
-19.20
-14.71
-8.05
0.15
8.36
14.89
18.55
18.99
16.73
12.83
8.61
5.37
4.19
5.74
10.12
16.76
24.65
32.60
39.83
46.26
52.56
59.68
68.22
77.77
86.78
93.08
94.81
91.20
82.89
71.52
58.87
46.12
33.57
21.13
8.83
-2.79
-12.82
-20.62
-26.33
-30.94
-35.78
-41.77
-48.88
-56.17
-62.40
-66.72
-69.15
-70.57
-72.22
-75.11
-79.58
-85.16
-90.76
-95.04
-96.82
-95.32
-90.34
-82.22
-71.78
-60.06
-48.17
-37.06
-27.45
-19.81
-14.32
-10.90
-9.16
-8.44
-7.91
-6.82
-4.65
-1.33
2.87
7.46
11.93
15.97
19.42
22.30
24.68
26.64
28.29
29.66
30.82
31.74
32.35
32.59
32.41
31.83
30.85
29.38
27.23
24.08
19.59
13.49
5.74
-3.29
-12.75
-21.35
-27.56
-30.10
-28.42
-23.08
-15.60
-7.96
-1.84
1.95
3.62
4.01
4.03
4.13
4.26
4.16
3.69
3.06
2.82
3.58
5.74
9.38
14.30
20.04
25.95
31.11
34.42
34.82
31.71
25.33
16.84
8.13
1.09
-2.97
-3.82
-2.30
0.11
1.96
2.35
1.17
-1.01
-3.40
-5.33
-6.45
-6.67
-5.94
-4.11
-0.94
3.62
9.18
14.86
19.52
22.29
23.03
22.41
21.51
21.04
20.83
19.70
16.09
8.77
-2.60
-17.47
-34.78
-53.47
-72.45
-90.37
-105.20
-114.35
-115.28
-106.58
-88.72
-64.16
-36.73
-10.44
11.50
27.29
36.62
40.31
39.90
37.07
33.20
29.20
25.54
22.56
20.63
20.24
21.70
24.86
28.89
32.55
34.80
35.33
34.63
33.77
33.65
34.42
35.38
35.31
33.05
27.96
20.10
10.09
-0.96
-11.56
-19.95
-24.43
-23.90
-18.46
-9.64
-0.05
7.56
11.37
11.10
7.92
3.63
-0.36
-3.58
-6.45
-9.64
-13.34
-17.05
-19.76
-20.66
-19.53
-16.85
-13.30
-9.32
-4.90
0.05
5.22
9.61
11.75
10.46
5.64
-1.57
-9.23
-15.61
-19.93
-22.57
-24.48
-26.42
-28.48
-30.16
-30.81
-30.21
-28.62
-26.59
-24.60
-22.82
-21.15
-19.41
-17.47
-15.32
-12.98
-10.60
-8.52
-7.26
-7.44
-9.40
-12.99
-17.49
-21.88
-25.31
-27.45
-28.50
-28.94
-29.32
-29.93
-30.87
-32.07
-33.36
-34.46
-34.88
-33.95
-30.85
-24.78
-15.14
-1.71
15.15
34.51
54.93
74.80
92.86
108.52
121.84
133.20
142.73
149.91
153.68
152.99
147.41
137.51
124.62
110.25
95.43
80.41
64.92
48.68
31.92
15.44
0.39
-12.33
-22.44
-30.35
-36.79
-42.36
-47.22
-51.13
-53.89
-55.69
-57.21
-59.31
-62.42
-66.17
-69.36
-70.44
-68.29
-62.73
-54.62
-45.40
-36.42
-28.58
-22.20
-17.32
-14.06
-12.77
-13.82
-17.24
-22.42
-28.15
-33.00
-35.97
-37.01
-37.08
-37.60
-39.62
-42.94
-46.01
-46.56
-42.83
-34.74
-24.36
-15.43
-11.92
-16.49
-29.54
-49.18
-72.13
-94.91
-114.89
-130.73
-142.43
-151.25
-159.76
-171.52
-190.22
-218.04
-254.10
-293.61
-328.88
-351.78
-356.65
-342.25
-311.74
-270.87
-225.44
-179.43
-134.54
-91.06
-49.05
-8.96
28.55
63.41
96.85
131.44
170.06
214.32
262.93
311.26
352.62
380.95
393.80
393.60
386.55
379.70
377.85
381.87
389.17
395.73
398.23
395.08
385.91
370.61
348.75
320.04
285.49
247.88
211.28
179.31
153.70
133.54
116.12
98.44
78.88
57.85
37.48
20.47
8.67
2.11
-1.01
-3.50
-7.94
-15.79
-26.99
-40.24
-53.70
-65.69
-75.14
-81.53
-84.67
-84.33
-80.25
-72.48
-61.63
-49.11
-36.65
-25.86
-17.65
-11.94
-7.83
-3.90
1.37
9.09
19.46
31.59
43.40
52.17
55.37
51.47
40.51
24.00
4.27
-16.42
-36.54
-55.50
-73.20
-89.52
-103.83
-114.98
-121.79
-123.65
-121.11
-115.81
-109.93
-105.30
-102.67
-101.43
-100.06
-97.00
-91.52
-84.19
-76.62
-70.56
-67.12
-66.22
-66.76
-67.32
-66.82
-65.08
-62.65
-60.34
-58.68
-57.51
-55.99
-52.96
-47.45
-39.02
-27.98
-15.29
-2.22
10.04
20.79
29.90
37.69
44.51
50.44
55.11
57.88
58.17
55.89
51.48
45.71
39.44
33.25
27.43
21.98
16.77
11.64
6.47
1.17
-4.27
-9.84
-15.63
-21.72
-28.24
-35.15
-42.17
-48.68
-54.06
-58.03
-61.07
-64.44
-69.65
-77.72
-88.34
-99.82
-109.66
-115.75
-117.56
-116.73
-116.58
-120.83
-132.11
-150.84
-175.02
-200.79
-223.16
-236.78
-236.71
-219.59
-184.89
-135.80
-78.89
-22.21
27.24
65.87
94.06
114.84
131.66
146.53
159.48
169.57
176.13
179.51
180.87
181.43
181.95
182.79
184.34
187.25
192.33
199.99
210.04
221.79
234.26
246.38
256.94
264.49
267.59
265.44
258.34
247.54
234.40
219.15
200.21
174.67
139.56
93.58
38.09
-23.11
-84.93
-142.58
-192.81
-234.35
-267.71
-294.45
-316.52
-335.55
-352.39
-366.93
-378.30
-385.35
-387.12
-383.09
-373.19
-357.58
-336.51
-310.25
-279.00
-242.81
-201.70
-155.91
-106.40
-55.10
-4.72
41.92
83.03
118.39
149.03
176.20
200.19
219.89
233.41
239.39
238.05
231.44
222.59
214.13
207.25
201.41
194.94
186.01
173.57
157.80
140.10
122.83
108.95
101.26
101.45
108.95
119.92
127.40
122.96
100.02
57.34
1.10
-56.12
-99.78
-119.13
-111.55
-83.20
-45.68
-10.56
15.16
30.52
38.79
44.13
48.92
53.23
56.23
57.77
59.31
63.13
70.87
82.54
96.75
111.90
127.79
146.34
170.67
203.11
242.98
285.66
323.60
348.84
356.03
344.22
316.77
279.48
238.23
197.10
157.99
121.24
86.64
54.06
23.48
-5.46
-33.76
-63.06
-95.12
-130.92
-169.77
-208.89
-243.91
-270.14
-284.40
-286.30
-278.42
-265.24
-251.48
-240.59
-234.33
-233.13
-236.86
-245.02
-256.45
-268.80
-278.59
-282.19
-277.46
-264.94
-247.91
-231.08
-218.54
-211.92
-209.81
-208.71
-204.82
-196.03
-182.80
-167.74
-154.03
-143.77
-136.98
-131.90
-126.16
-117.85
-105.92
-89.55
-67.76
-39.63
-5.65
30.97
64.14
86.61
93.16
83.44
62.64
39.52
22.69
17.19
23.21
37.22
54.44
71.03
84.57
93.38
95.39
88.04
69.35
39.48
1.58
-38.67
-74.87
-102.06
-118.08
-123.84
-122.11
-116.00
-107.79
-98.32
-87.46
-74.90
-60.99
-47.03
-35.04
-27.06
-24.33
-26.79
-33.15
-41.41
-49.60
-56.25
-60.65
-62.62
-62.36
-60.34
-57.20
-53.48
-49.20
-43.49
-34.68
-21.17
-2.50
19.84
42.59
62.01
75.50
82.55
84.57
83.65
81.21
77.49
72.00
64.73
56.91
50.99
49.61
54.30
64.76
78.87
93.37
104.85
110.58
109.09
100.55
86.76
70.72
55.78
44.42
37.51
34.10
31.87
27.73
18.38
0.91
-26.23
-61.98
-101.74
-137.70
-161.28
-166.56
-153.22
-126.90
-96.65
-70.62
-52.70
-41.93
-34.85
-28.82
-24.02
-22.60
-26.02
-32.54
-37.14
-33.95
-19.83
3.42
29.49
50.55
61.10
60.35
52.04
42.12
35.60
34.52
37.85
42.88
47.16
49.52
50.01
48.92
46.01
40.48
31.81
20.70
9.42
1.13
-1.48
2.70
12.93
27.31
43.76
60.68
76.82
90.88
101.22
106.31
105.61
100.22
92.64
85.44
79.70
74.14
65.77
51.86
32.01
9.09
-11.90
-26.33
-32.48
-32.49
-31.10
-32.80
-39.14
-47.76
-53.68
-52.18
-41.55
-24.22
-5.70
8.11
13.42
9.92
0.16
-12.11
-23.74
-33.17
-40.11
-44.74
-47.00
-46.45
-42.66
-35.67
-26.19
-15.40
-4.38
6.11
15.73
24.21
31.04
35.37
36.16
32.57
24.31
12.02
-2.62
-17.14
-28.79
-35.37
-35.92
-31.12
-22.99
-14.11
-6.67
-1.81
0.46
0.99
0.98
1.45
3.12
6.32
10.97
16.61
22.35
27.02
29.44
28.81
24.90
18.22
9.88
1.28
-6.22
-11.74
-15.06
-16.70
-17.63
-18.80
-20.67
-22.93
-24.58
-24.35
-21.26
-15.02
-6.24
3.78
13.48
21.43
26.65
28.81
28.15
25.41
21.60
17.82
15.04
13.95
14.95
18.10
23.23
29.84
37.11
43.92
49.02
51.36
50.54
47.01
41.97
36.88
32.85
30.17
28.29
26.23
23.23
19.30
15.32
12.70
12.75
16.03
22.01
29.21
35.52
38.84
37.51
30.85
19.26
4.14
-12.50
-28.66
-42.84
-54.51
-64.13
-72.78
-81.52
-90.65
-99.19
-104.90
-104.89
-96.67
-79.25
-53.89
-24.17
4.96
28.67
43.89
50.36
50.50
48.28
47.52
50.45
57.09
65.59
73.32
78.04
78.61
75.16
68.84
61.26
54.12
48.77
46.06
46.18
48.85
53.60
60.05
67.91
76.64
85.08
91.29
93.07
88.82
78.38
63.17
45.55
27.60
10.29
-6.68
-24.14
-42.42
-60.77
-77.61
-91.39
-101.48
-108.41
-113.27
-116.82
-118.71
-117.57
-111.75
-100.25
-83.26
-62.10
-38.50
-14.07
9.90
32.11
50.84
64.03
69.98
68.30
60.63
50.31
41.27
36.41
36.52
40.01
43.79
44.73
40.95
32.52
21.21
9.53
-0.61
-8.72
-15.81
-23.69
-33.81
-46.34
-60.04
-72.80
-82.63
-88.45
-90.24
-88.62
-84.20
-77.24
-67.85
-56.31
-43.38
-30.12
-17.41
-5.44
6.27
18.40
31.11
43.62
54.33
61.50
64.20
62.74
58.64
53.85
49.88
47.19
45.30
43.53
41.70
40.65
41.88
46.79
55.94
68.57
82.76
95.90
105.27
108.69
104.95
94.18
77.87
58.59
39.38
23.03
11.66
6.58
8.66
18.36
35.53
58.73
84.79
108.99
126.22
132.45
125.85
106.86
77.43
39.84
-3.88
-51.91
-102.06
-151.22
-195.42
-230.50
-253.07
-261.35
-255.52
-237.41
-209.80
-175.64
-137.40
-97.04
-56.26
-17.00
18.36
47.36
68.31
81.11
87.57
90.82
93.94
98.69
104.81
110.30
112.54
109.61
101.22
88.83
74.82
61.29
49.07
37.31
24.04
7.26
-13.91
-38.54
-64.10
-87.27
-105.12
-116.11
-120.65
-120.82
-119.64
-119.82
-122.82
-128.23
-133.94
-136.97
-134.45
-124.53
-106.69
-81.77
-51.77
-19.58
11.33
37.63
57.16
69.90
78.20
85.86
95.77
107.96
118.88
123.02
116.02
97.61
72.48
48.14
31.31
24.43
24.83
26.79
25.36
19.53
12.79
10.91
18.17
34.63
55.94
75.60
88.13
91.40
86.84
78.01
68.40
59.91
52.57
45.41
37.58
29.24
21.46
15.76
13.30
14.46
18.62
24.26
29.39
32.09
31.10
26.41
19.19
11.27
4.22
-1.51
-6.81
-13.35
-22.49
-34.24
-46.66
-56.18
-58.46
-49.63
-27.48
7.81
53.28
103.46
151.15
188.77
210.12
212.04
195.51
165.41
129.25
95.05
69.26
55.26
53.06
59.85
71.12
81.85
87.29
83.64
68.38
40.76
2.23
-43.41
-90.53
-132.90
-165.45
-185.76
-194.81
-196.51
-196.38
-199.83
-210.98
-232.00
-262.97
-301.95
-344.99
-386.66
-420.81
-441.97
-446.68
-434.41
-407.70
-371.64
-332.83
-298.08
-272.89
-259.88
-257.68
-261.02
-262.22
-253.94
-231.98
-196.81
-152.88
-106.26
-61.96
-22.24
13.04
45.07
74.39
100.46
122.23
139.31
152.83
165.35
180.12
199.98
226.88
261.56
303.77
352.19
404.14
455.45
500.83
535.00
554.20
557.19
545.21
520.92
487.01
445.41
397.53
345.07
290.72
237.86
189.41
146.56
108.32
72.25
35.92
-1.96
-41.33
-81.03
-119.18
-153.20
-179.76
-195.30
-197.34
-186.09
-165.25
-141.02
-119.62
-104.37
-94.05
-83.64
-66.99
-40.19
-3.70
37.63
76.61
106.50
123.39
127.14
120.82
108.97
95.84
83.97
73.67
63.54
51.18
33.93
9.63
-22.55
-61.37
-102.64
-139.30
-162.81
-165.91
-145.59
-104.94
-52.50
0.51
44.01
71.82
82.31
77.04
58.60
29.12
-9.72
-55.60
-104.47
-150.53
-187.70
-211.75
-221.80
-220.35
-212.09
-201.68
-192.06
-183.73
-174.93
-162.65
-143.69
-115.71
-77.77
-30.86
22.02
76.24
126.50
168.52
200.69
224.62
244.15
262.91
281.87
298.20
306.47
301.54
281.70
250.03
213.27
178.45
149.28
124.34
98.05
63.86
18.31
-36.36
-92.33
-139.11
-167.74
-174.63
-162.94
-141.18
-119.44
-105.28
-101.03
-103.83
-108.02
-108.30
-102.14
-90.14
-74.71
-58.13
-41.42
-24.55
-7.58
8.16
20.07
25.14
21.40
9.05
-9.49
-30.57
-50.85
-68.58
-83.96
-98.54
-113.86
-130.20
-145.94
-157.83
-162.26
-156.71
-140.85
-116.83
-88.53
-60.32
-35.77
-16.89
-4.05
3.55
7.18
8.06
7.11
4.90
1.76
-2.12
-6.63
-11.68
-17.05
-22.32
-26.75
-29.32
-28.85
-24.31
-15.21
-1.90
14.36
31.63
47.69
60.58
68.91
72.05
70.00
63.31
52.88
40.00
26.42
14.23
5.73
2.83
6.54
16.51
30.97
47.25
62.82
76.23
87.59
98.06
108.82
119.85
129.52
135.09
133.93
124.64
107.48
83.92
55.82
24.59
-8.92
-44.11
-80.00
-114.65
-145.16
-168.37
-182.19
-186.53
-183.59
-177.16
-171.34
-169.26
-171.93
-178.35
-186.48
-194.53
-201.40
-206.58
-209.44
-208.96
-204.42
-195.38
-181.98
-165.15
-146.38
-126.95
-107.27
-86.44
-62.49
-33.80
0.77
40.82
83.43
122.87
152.29
166.23
162.89
144.80
116.64
84.24
52.88
26.28
6.31
-5.89
-9.43
-3.85
15.32
46.12
80.12
107.14
121.96
125.98
124.69
123.75
126.35
133.19
142.52
152.47
162.18
171.72
179.35
183.48
182.79
176.81
166.28
152.00
135.25
117.53
99.95
82.79
66.04
49.69
33.97
19.39
5.93
-6.39
-17.39
-26.61
-33.72
-38.40
-40.65
-40.70
-39.05
-36.77
-35.07
-34.92
-36.62
-39.50
-41.70
-40.65
-33.77
-19.43
2.41
30.33
62.17
95.56
128.01
156.49
177.24
186.30
180.65
159.56
124.91
80.36
29.58
-25.18
-83.37
-145.27
-210.44
-276.77
-340.57
-397.68
-444.76
-479.98
-502.80
-513.18
-510.85
-495.14
-465.51
-422.23
-367.02
-303.21
-235.46
-168.78
-107.36
-53.78
-8.51
29.62
62.50
91.59
117.39
139.50
157.34
170.79
180.54
187.76
193.55
198.52
202.68
205.89
208.19
209.96
211.62
213.02
213.10
210.16
202.64
190.10
173.60
155.45
138.22
123.81
112.86
104.84
98.56
92.73
86.16
77.52
65.00
46.32
19.58
-15.23
-55.06
-93.67
-123.19
-136.93
-131.93
-110.25
-78.01
-42.87
-11.00
14.64
34.29
49.72
62.35
72.20
78.27
79.91
78.04
75.48
76.18
83.67
99.64
123.06
150.31
176.08
194.91
202.75
198.09
182.22
158.57
131.33
104.07
78.89
56.38
36.31
18.35
2.56
-10.91
-22.25
-32.35
-42.64
-54.32
-67.64
-81.50
-93.74
-102.05
-104.93
-102.36
-95.79
-87.69
-80.60
-76.44
-75.98
-78.80
-83.64
-88.93
-93.25
-95.61
-95.53
-92.90
-87.96
-81.18
-73.24
-64.98
-57.20
-50.55
-45.31
-41.36
-38.16
-34.98
-31.11
-26.09
-19.93
-13.13
-6.59
-1.30
1.90
2.74
1.57
-0.71
-2.96
-4.19
-3.83
-1.92
0.99
4.08
6.51
7.64
7.12
4.89
1.11
-3.88
-9.59
-15.35
-20.44
-24.12
-25.95
-25.91
-24.46
-22.44
-20.78
-20.08
-20.35
-21.01
-21.02
-19.38
-15.45
-9.22
-1.34
7.24
15.47
22.51
27.83
31.20
32.62
32.28
30.58
28.03
25.27
22.89
21.35
20.79
21.12
21.94
22.84
23.52
23.91
24.26
24.92
26.16
27.95
29.95
31.63
32.56
32.73
32.51
32.56
33.50
35.64
38.96
43.24
48.31
54.19
61.00
68.77
77.24
85.76
93.49
99.74
104.34
107.79
111.13
115.57
122.02
130.75
141.35
152.88
164.19
173.99
180.83
182.97
178.51
165.73
143.78
113.05
75.27
32.87
-12.01
-58.23
-105.73
-154.61
-203.83
-250.51
-290.23
-318.57
-333.01
-334.14
-325.61
-312.68
-300.32
-291.68
-287.86
-288.71
-294.10
-304.58
-321.06
-343.76
-371.03
-399.10
-422.82
-437.12
-438.52
-425.94
-400.46
-364.21
-319.32
-267.44
-210.35
-151.07
-94.65
-47.76
-16.87
-5.76
-13.63
-35.02
-61.59
-85.15
-100.27
-105.30
-101.40
-90.74
-74.68
-53.21
-25.70
7.97
46.80
88.93
132.39
175.63
217.42
256.21
289.67
314.99
329.80
333.37
327.02
313.63
296.52
278.26
260.22
242.73
225.74
209.28
193.58
178.95
165.53
153.34
142.44
133.04
125.40
119.60
115.42
112.24
109.25
105.66
100.86
94.55
86.79
78.02
68.98
60.62
53.73
48.68
45.22
42.59
39.88
36.45
32.25
27.63
23.15
19.15
15.68
12.53
9.47
6.46
3.56
0.86
-1.76
-4.51
-7.69
-11.40
-15.57
-19.99
-24.45
-28.88
-33.39
-38.09
-42.99
-47.85
-52.25
-55.65
-57.59
-57.82
-56.40
-53.61
-49.83
-45.37
-40.37
-34.87
-28.93
-22.80
-16.98
-12.08
-8.59
-6.65
-5.97
-5.97
-6.03
-5.79
-5.24
-4.63
-4.24
-4.19
-4.35
-4.37
-3.80
-2.37
0.05
3.34
7.31
11.74
16.39
21.02
25.35
29.13
32.15
34.26
35.36
35.32
34.04
31.42
27.59
22.96
18.29
14.49
12.32
12.07
13.44
15.67
17.75
18.91
18.72
17.24
14.82
11.94
8.94
6.01
3.17
0.47
-1.94
-3.78
-4.71
-4.51
-3.22
-1.18
1.06
3.05
4.54
5.60
6.56
7.73
9.24
10.99
12.64
13.85
14.26
13.70
12.09
9.52
6.18
2.40
-1.52
-5.36
-9.08
-12.77
-16.53
-20.29
-23.75
-26.31
-27.40
-26.66
-24.11
-20.16
-15.44
-10.56
-5.96
-1.87
1.58
4.34
6.31
7.40
7.59
6.95
5.74
4.28
2.94
2.04
1.73
2.01
2.73
3.67
4.65
5.53
6.26
6.83
7.18
7.16
6.61
5.38
3.44
0.92
-1.93
-4.81
-7.45
-9.71
-11.57
-13.17
-14.68
-16.34
-18.29
-20.55
-22.99
-25.29
-27.01
-27.69
-26.93
-24.61
-20.90
-16.22
-11.22
-6.53
-2.66
0.15
1.89
2.71
2.85
2.53
1.88
1.03
0.08
-0.84
-1.62
-2.22
-2.73
-3.35
-4.25
-5.41
-6.56
-7.27
-7.18
-6.28
-4.94
-3.84
-3.58
-4.53
-6.58
-9.34
-12.33
-15.18
-17.76
-20.14
-22.53
-25.14
-28.18
-31.69
-35.52
-39.24
-42.16
-43.52
-42.59
-38.90
-32.41
-23.52
-13.07
-2.12
8.15
16.71
22.79
25.98
26.25
23.94
19.68
14.37
9.02
4.62
1.84
0.88
1.49
3.07
5.05
7.08
9.11
11.19
13.30
15.14
16.23
16.18
14.86
12.59
9.94
7.49
5.57
4.21
3.23
2.42
1.66
0.86
-0.18
-1.79
-4.33
-7.89
-12.07
-15.93
-18.22
-17.96
-14.80
-9.27
-2.44
4.43
10.48
15.41
19.32
22.45
24.85
26.37
26.73
25.84
23.90
21.38
18.87
16.81
15.41
14.63
14.26
14.02
13.69
13.15
12.37
11.42
10.49
9.77
9.45
9.61
10.19
10.99
11.72
12.13
12.08
11.60
10.85
10.10
9.71
9.87
10.65
11.87
13.14
14.01
14.23
13.83
13.24
13.08
13.87
15.81
18.73
22.12
25.45
28.28
30.41
31.73
32.19
31.72
30.28
27.90
24.72
20.96
16.92
12.93
9.26
6.16
3.75
2.02
0.82
-0.11
-0.98
-1.93
-2.99
-4.09
-5.22
-6.43
-7.78
-9.34
-11.03
-12.64
-13.92
-14.65
-14.78
-14.39
-13.77
-13.26
-13.20
-13.84
-15.25
-17.23
-19.37
-21.20
-22.23
-22.18
-20.98
-18.73
-15.66
-12.05
-8.29
-4.79
-1.94
-0.03
0.90
1.10
0.97
0.95
1.34
2.22
3.53
5.20
7.28
9.88
13.19
17.33
22.28
27.87
33.80
39.63
44.89
49.09
51.76
52.55
51.28
47.95
42.75
36.13
28.70
21.25
14.49
8.91
4.62
1.31
-1.54
-4.39
-7.37
-10.27
-12.60
-13.91
-13.99
-13.00
-11.26
-9.15
-6.88
-4.52
-2.10
0.31
2.51
4.18
5.11
5.19
4.56
3.49
2.29
1.24
0.51
0.15
0.09
0.19
0.27
0.19
-0.12
-0.61
-1.18
-1.69
-2.15
-2.66
-3.36
-4.33
-5.53
-6.79
-7.92
-8.85
-9.66
-10.59
-11.88
-13.65
-15.89
-18.42
-21.05
-23.56
-25.78
-27.51
-28.56
-28.70
-27.75
-25.63
-22.46
-18.46
-13.97
-9.34
-4.85
-0.71
2.97
6.13
8.70
10.60
11.81
12.35
12.39
12.21
12.11
12.26
12.66
13.08
13.17
12.65
11.45
9.74
7.83
6.02
4.41
2.92
1.30
-0.70
-3.20
-6.20
-9.56
-13.08
-16.54
-19.77
-22.65
-25.19
-27.50
-29.82
-32.32
-35.03
-37.64
-39.62
-40.36
-39.45
-36.81
-32.68
-27.49
-21.67
-15.59
-9.54
-3.80
1.35
5.61
8.78
10.76
11.60
11.41
10.41
8.89
7.15
5.50
4.13
2.99
1.89
0.54
-1.20
-3.29
-5.39
-7.05
-7.85
-7.62
-6.49
-4.85
-3.09
-1.41
0.39
2.82
6.70
12.84
21.91
34.22
49.49
66.41
82.49
94.66
100.52
99.99
96.35
95.71
105.03
129.56
170.95
227.10
293.06
362.46
428.18
482.72
518.44
528.85
510.54
464.98
398.79
321.92
244.57
174.22
114.30
64.68
23.28
-12.51
-45.14
-76.83
-109.40
-143.68
-178.60
-210.89
-236.06
-250.00
-250.98
-240.77
-224.17
-207.26
-195.11
-190.06
-191.41
-196.37
-201.84
-205.92
-208.65
-211.65
-217.07
-226.53
-240.44
-257.77
-276.12
-292.08
-301.77
-301.68
-289.62
-265.71
-232.61
-194.95
-157.88
-125.29
-98.57
-76.42
-55.85
-33.67
-7.90
21.74
54.22
87.95
121.55
154.08
184.73
212.32
234.82
249.46
253.36
244.74
224.04
194.26
160.32
127.53
99.91
79.15
64.67
54.60
47.09
41.10
36.40
32.93
30.05
26.52
20.96
12.84
3.09
-6.02
-11.65
-11.61
-5.23
6.37
20.73
34.93
46.51
54.07
57.46
57.36
54.78
50.51
44.92
38.05
29.90
20.68
10.93
1.34
-7.70
-16.25
-24.80
-33.93
-43.94
-54.61
-65.35
-75.61
-85.15
-94.19
-103.16
-112.38
-121.79
-130.93
-139.09
-145.53
-149.77
-151.55
-150.91
-148.10
-143.58
-138.03
-132.26
-127.02
-122.72
-119.26
-115.96
-111.79
-105.77
-97.37
-86.72
-74.40
-61.06
-47.08
-32.42
-16.83
-0.27
16.90
33.92
49.99
64.54
77.38
88.41
97.40
103.80
106.95
106.41
102.32
95.44
86.95
78.11
70.02
63.59
59.52
58.37
60.36
65.26
72.22
79.84
86.50
90.77
91.61
88.50
81.31
70.13
55.22
36.98
15.98
-6.94
-30.63
-53.78
-74.97
-92.86
-106.45
-115.28
-119.63
-120.62
-120.10
-120.22
-122.86
-128.91
-137.90
-147.99
-156.25
-159.21
-153.61
-137.18
-109.51
-72.64
-31.18
8.52
39.81
57.59
59.75
47.68
25.58
-1.00
-26.84
-48.06
-62.59
-69.87
-70.36
-65.30
-56.40
-45.71
-35.23
-26.53
-20.37
-16.58
-14.33
-12.48
-10.16
-7.03
-3.22
0.89
4.96
8.87
12.67
16.42
19.98
23.11
25.49
26.85
27.01
26.02
24.26
22.49
21.91
23.76
28.84
37.00
46.91
56.25
62.47
63.58
58.85
48.99
35.87
21.98
9.61
0.39
-4.99
-6.62
-5.01
-0.77
5.60
13.65
22.73
31.82
39.49
44.00
43.72
37.43
24.74
6.35
-15.99
-39.52
-61.00
-77.30
-86.15
-86.78
-80.08
-68.30
-54.39
-41.22
-30.90
-24.42
-21.60
-21.45
-22.55
-23.54
-23.50
-22.11
-19.64
-16.62
-13.49
-10.35
-6.73
-1.89
4.80
13.36
23.02
32.34
39.71
43.80
43.98
40.34
33.44
24.11
13.34
2.33
-7.54
-14.81
-18.36
-17.84
-13.91
-8.09
-2.35
1.34
1.46
-2.86
-11.50
-23.25
-35.73
-45.99
-51.40
-50.71
-44.69
-35.86
-27.44
-21.80
-19.58
-19.65
-20.01
-19.02
-16.20
-12.12
-7.69
-3.35
1.25
6.82
13.73
21.36
28.13
32.16
32.17
28.05
20.98
12.84
5.48
0.16
-2.61
-2.82
-0.72
3.32
8.73
14.65
20.11
24.36
27.29
29.50
32.00
35.66
40.75
46.95
53.57
60.01
65.91
71.02
74.87
76.66
75.44
70.71
62.96
53.85
45.80
41.22
41.63
47.24
57.02
69.24
82.17
94.57
105.79
115.68
124.34
132.40
141.16
152.58
168.60
190.04
215.57
241.27
261.56
270.78
264.96
242.83
205.62
155.92
96.54
30.21
-39.85
-108.90
-170.62
-218.54
-248.81
-262.50
-266.04
-268.54
-277.29
-293.55
-311.01
-317.75
-301.52
-255.26
-180.77
-88.93
3.57
79.44
125.84
137.72
118.57
78.56
30.99
-12.29
-44.25
-64.05
-76.22
-88.20
-107.48
-139.22
-184.86
-241.48
-302.06
-356.89
-396.00
-412.10
-402.82
-371.14
-324.05
-269.68
-214.57
-162.27
-113.56
-67.31
-21.83
24.34
71.69
118.94
162.50
196.86
216.21
216.74
198.54
165.59
124.16
80.12
36.88
-4.73
-44.84
-82.39
-114.00
-134.71
-140.22
-129.30
-104.96
-73.58
-42.61
-17.68
-0.69
10.27
19.17
29.72
43.82
61.19
80.52
100.93
122.67
146.86
174.41
205.03
236.99
267.77
294.80
315.95
329.32
333.01
325.27
305.22
273.97
235.14
194.33
157.54
129.23
111.00
101.36
96.56
92.17
84.60
72.14
55.24
36.28
18.66
5.69
-0.45
0.74
8.20
20.03
34.42
50.25
67.04
84.51
101.80
117.31
128.97
135.00
134.59
128.04
116.43
100.99
82.50
61.17
36.84
9.63
-19.43
-48.04
-72.73
-89.66
-95.74
-89.84
-73.38
-49.85
-23.64
1.69
24.36
44.47
63.10
81.24
99.13
116.54
133.30
149.60
165.49
179.99
190.52
193.46
185.78
166.77
138.71
105.65
71.14
36.14
-1.06
-42.80
-89.22
-136.53
-177.83
-206.25
-218.37
-216.09
-205.50
-193.83
-185.98
-182.97
-182.66
-182.13
-179.78
-176.28
-173.73
-173.91
-177.12
-181.81
-185.39
-185.44
-180.74
-171.60
-159.52
-146.38
-133.63
-121.73
-110.25
-98.40
-85.78
-72.92
-61.24
-52.45
-47.72
-47.02
-49.07
-51.83
-53.34
-52.40
-48.80
-43.25
-36.86
-30.64
-25.24
-20.72
-16.81
-13.07
-9.27
-5.50
-2.18
0.20
1.38
1.52
1.18
1.00
1.44
2.50
3.77
4.58
4.26
2.38
-1.15
-6.02
-11.55
-16.73
-20.55
-22.26
-21.64
-19.21
-15.96
-13.06
-11.37
-11.22
-12.30
-13.80
-14.68
-13.91
-10.72
-4.68
4.23
15.81
29.61
44.93
60.77
75.80
88.40
97.13
101.34
101.54
99.32
96.81
95.81
97.18
100.71
105.42
110.02
113.07
113.08
108.68
99.09
84.70
67.40
50.22
36.19
26.97
22.01
18.72
13.67
4.13
-10.85
-30.19
-51.47
-71.73
-88.25
-99.13
-103.43
-101.29
-93.93
-83.46
-72.37
-62.96
-56.80
-54.55
-56.10
-60.92
-68.43
-78.03
-88.89
-99.77
-109.17
-115.61
-118.11
-116.40
-110.92
-102.45
-91.91
-80.49
-70.02
-63.20
-63.17
-72.31
-90.86
-116.02
-142.37
-163.56
-174.48
-172.97
-160.11
-138.98
-113.01
-84.60
-54.82
-24.15
6.46
35.28
60.18
79.56
93.18
102.22
108.59
114.14
119.88
125.82
131.28
135.41
137.53
137.38
134.97
130.50
124.13
115.96
105.99
94.16
80.53
65.41
49.42
33.49
18.68
6.12
-3.22
-8.64
-9.91
-7.43
-2.22
4.25
10.43
15.08
17.62
18.06
16.87
14.58
11.57
8.07
4.22
0.27
-3.22
-5.56
-6.02
-4.05
0.55
7.66
16.85
27.49
38.82
50.02
60.36
69.25
76.42
81.90
86.04
89.30
92.10
94.68
97.15
99.54
101.98
104.71
108.01
112.11
117.03
122.60
128.49
134.38
140.04
145.43
150.65
155.89
161.37
167.22
173.37
179.48
184.89
188.75
190.21
188.66
183.88
176.15
166.15
154.76
142.84
130.92
118.89
105.97
90.81
72.08
49.04
22.16
-6.84
-35.48
-61.28
-82.59
-98.89
-110.68
-119.02
-124.98
-129.41
-132.85
-135.70
-138.33
-141.05
-144.02
-147.27
-150.65
-153.89
-156.83
-159.45
-161.96
-164.77
-168.20
-172.34
-176.83
-180.91
-183.77
-184.94
-184.53
-183.22
-181.94
-181.43
-181.92
-182.94
-183.47
-182.11
-177.39
-168.01
-153.06
-132.10
-105.21
-73.08
-36.92
1.56
40.33
77.31
110.62
138.79
160.93
176.72
186.32
190.16
188.66
182.09
170.40
153.34
130.63
102.44
69.81
34.69
-0.27
-32.36
-59.55
-80.94
-96.74
-107.95
-115.79
-121.35
-125.34
-128.29
-130.54
-132.05
-132.21
-129.80
-123.36
-111.87
-95.50
-75.95
-56.30
-40.25
-30.91
-29.86
-36.83
-49.79
-65.80
-81.88
-95.95
-107.22
-116.23
-124.01
-131.58
-139.56
-147.54
-153.62
-153.87
-143.54
-119.18
-80.66
-31.66
21.34
71.24
112.88
144.07
165.75
179.81
187.15
187.39
180.69
168.91
155.58
144.48
137.79
136.85
142.57
155.31
174.84
200.06
227.80
253.00
270.33
271.79
254.01
222.97
190.94
167.21
153.40
145.31
137.30
127.24
115.55
103.92
93.09
81.26
64.55
42.92
17.26
-10.05
-36.01
-58.62
-76.89
-91.14
-103.13
-115.33
-129.55
-146.58
-165.81
-184.97
-200.98
-210.54
-211.78
-205.39
-194.46
-182.46
-171.52
-161.01
-147.57
-127.13
-97.28
-59.37
-18.78
17.03
41.59
51.74
48.16
35.38
19.76
7.35
2.36
7.10
22.80
50.36
89.93
138.58
192.40
246.95
297.52
339.45
369.15
384.90
386.66
375.11
347.57
303.89
247.56
183.96
117.29
49.66
-18.29
-86.38
-154.42
-227.31
-305.63
-384.50
-456.93
-518.75
-570.04
-613.94
-654.70
-695.77
-744.58
-798.91
-845.44
-866.36
-849.24
-791.56
-699.45
-583.46
-409.16
-181.15
60.06
264.29
403.54
475.72
493.01
473.22
435.57
396.67
359.79
325.81
296.54
274.38
259.71
251.33
247.50
246.58
246.47
239.27
221.70
197.34
173.38
155.58
146.14
143.76
145.47
147.39
142.49
127.81
105.76
82.02
61.77
47.30
37.84
30.89
23.01
9.55
-11.36
-38.28
-67.61
-95.52
-117.26
-130.63
-133.14
-123.24
-102.23
-73.46
-41.99
-12.85
10.51
28.16
41.57
53.47
65.73
77.26
84.92
84.59
72.85
50.39
22.48
-2.98
-18.48
-20.54
-11.33
2.80
13.39
15.18
8.44
-2.18
-10.94
-14.49
-13.12
-9.87
-7.81
-8.18
-9.53
-8.94
-3.84
7.13
23.05
41.82
61.49
81.27
101.08
120.56
137.87
147.75
146.79
133.25
109.01
79.44
51.62
31.22
20.53
18.16
20.48
23.98
26.03
25.55
22.08
15.49
5.73
-6.87
-21.28
-35.97
-49.36
-60.79
-69.38
-76.60
-83.46
-90.32
-96.72
-101.85
-104.74
-104.88
-102.65
-99.06
-95.66
-93.97
-95.34
-100.31
-107.68
-114.08
-114.56
-104.62
-82.39
-50.36
-14.62
17.37
39.81
50.86
52.75
49.93
46.42
44.13
42.63
40.63
37.44
33.55
30.31
28.87
29.37
31.02
32.44
32.27
30.00
26.04
21.42
17.38
14.92
14.41
15.51
17.25
18.44
18.08
15.70
11.62
6.86
2.82
0.76
1.23
3.71
6.78
8.64
7.85
4.16
-1.39
-6.79
-10.10
-10.39
-8.11
-4.71
-1.65
0.26
0.77
-0.64
-5.39
-15.22
-30.67
-49.43
-66.23
-74.86
-71.52
-57.28
-37.92
-21.18
-11.93
-9.89
-9.79
-4.90
8.51
28.26
47.13
56.95
53.31
38.05
17.78
0.18
-10.09
-13.16
-12.57
-11.86
-11.59
-9.28
-1.74
11.22
25.34
33.56
30.23
14.84
-7.05
-26.40
-35.28
-30.49
-14.66
5.73
23.77
34.97
38.38
35.84
30.55
25.47
22.52
22.18
23.69
25.30
24.95
21.16
13.59
3.29
-7.73
-17.22
-23.31
-24.98
-22.29
-16.23
-8.65
-1.95
1.55
0.09
-6.98
-19.19
-34.85
-51.45
-66.07
-76.13
-80.25
-78.73
-73.60
-67.36
-62.47
-60.30
-60.76
-62.58
-63.94
-63.04
-58.64
-50.61
-40.45
-31.70
-29.17
-37.03
-56.40
-83.61
-110.39
-126.39
-123.45
-98.82
-56.23
-3.85
49.33
96.94
136.77
170.03
199.05
224.95
246.57
261.09
265.70
259.46
243.99
222.96
200.41
178.80
157.87
134.94
106.53
70.47
27.53
-18.29
-60.93
-94.23
-113.87
-118.56
-109.98
-91.99
-69.18
-45.63
-24.28
-6.82
6.32
15.87
23.43
30.84
39.21
48.24
55.95
59.54
56.32
45.15
27.07
4.91
-17.89
-38.40
-54.82
-67.07
-74.37
-75.95
-71.54
-61.72
-48.06
-32.99
-19.04
-8.06
-0.65
3.95
7.09
10.16
14.01
18.72
23.68
28.04
31.15
32.96
34.09
35.32
37.35
40.63
45.10
50.20
55.24
59.62
63.03
65.50
67.17
68.17
68.59
68.40
67.23
64.95
61.28
56.40
50.77
45.10
40.12
36.63
35.41
36.61
40.15
46.00
54.39
65.63
79.81
96.65
115.62
136.00
156.22
174.68
190.25
202.51
211.61
218.02
222.35
225.26
227.63
229.24
229.41
227.94
225.17
221.68
217.49
211.24
199.69
186.62
172.08
153.28
128.39
97.62
63.09
27.20
-8.56
-43.80
-78.55
-113.52
-153.43
-200.24
-251.52
-301.30
-343.52
-374.94
-395.59
-407.68
-414.39
-426.56
-451.03
-487.73
-530.51
-572.11
-608.43
-639.00
-665.79
-691.42
-729.82
-790.99
-875.59
-974.48
-1073.54
-1159.16
-1221.00
-1253.83
-1196.32
-1026.22
-766.18
-473.11
-202.51
17.07
183.26
306.96
392.58
455.91
496.11
511.85
508.36
496.99
489.14
491.24
503.46
521.23
539.97
546.37
531.55
495.56
445.60
390.50
330.93
267.81
203.45
142.99
88.27
36.03
-14.10
-58.82
-94.30
-118.24
-130.07
-131.19
-123.33
-111.63
-100.28
-90.05
-79.41
-66.50
-50.52
-31.36
-10.01
12.25
32.68
48.80
60.01
66.87
70.23
70.72
69.03
65.46
60.21
53.22
44.35
34.08
23.13
12.15
1.67
-7.81
-16.06
-23.16
-29.40
-35.24
-40.88
-46.39
-51.75
-56.88
-61.53
-65.48
-68.48
-70.35
-71.02
-70.38
-68.44
-65.34
-61.36
-56.84
-52.21
-47.89
-44.22
-41.44
-39.67
-38.84
-38.74
-39.07
-39.47
-39.57
-39.07
-37.79
-35.65
-32.74
-29.24
-25.41
-21.52
-17.84
-14.55
-11.73
-9.38
-7.38
-5.56
-3.72
-1.66
0.75
3.61
6.91
10.57
14.47
18.41
22.17
25.54
28.33
30.50
32.04
33.04
33.63
33.92
33.94
33.68
33.07
32.03
30.51
28.50
26.08
23.34
20.36
17.20
13.83
10.25
6.45
2.60
-0.97
-3.84
-5.52
-5.67
-4.18
-1.26
2.75
7.49
12.82
18.96
26.35
35.49
46.58
59.37
73.08
86.72
99.45
111.03
121.92
133.15
145.84
160.64
177.39
195.15
212.57
228.58
242.88
256.17
269.85
285.57
304.72
328.01
355.33
385.62
416.74
445.50
468.05
480.80
481.73
471.36
452.69
429.89
406.14
381.96
355.18
322.57
282.27
235.38
185.60
137.44
94.20
56.99
25.33
-1.44
-23.22
-39.39
-49.93
-56.46
-61.93
-69.30
-79.89
-92.30
-102.76
-106.65
-100.36
-82.72
-55.38
-22.28
11.15
39.05
56.15
58.95
46.93
23.40
-4.96
-30.02
-45.22
-48.26
-42.22
-34.35
-32.99
-43.93
-67.74
-99.40
-130.15
-150.81
-155.27
-142.64
-117.63
-88.87
-65.38
-52.83
-51.32
-55.78
-58.75
-54.26
-40.33
-19.21
4.52
26.28
42.54
50.45
47.07
29.43
-3.90
-50.35
-102.09
-147.34
-174.27
-175.84
-153.07
-114.91
-74.65
-44.84
-32.84
-39.25
-59.26
-85.96
-113.48
-138.58
-160.10
-177.40
-188.87
-191.69
-182.92
-161.19
-127.85
-87.00
-44.30
-5.14
26.78
50.24
66.17
76.85
84.79
92.03
99.73
108.27
117.50
126.78
135.21
141.62
144.67
143.05
135.69
121.95
101.92
76.64
48.17
19.37
-6.78
-27.98
-43.34
-53.38
-59.56
-63.35
-65.57
-66.23
-64.93
-61.58
-56.85
-51.98
-48.17
-46.02
-45.28
-45.16
-44.94
-44.39
-43.80
-43.62
-44.15
-45.41
-47.13
-48.87
-49.97
-49.46
-46.18
-39.19
-28.50
-15.45
-2.68
6.86
10.97
9.13
2.57
-6.46
-15.84
-24.38
-32.02
-39.23
-46.10
-51.81
-54.67
-52.81
-44.99
-31.16
-12.41
9.48
32.67
55.68
77.41
96.92
113.24
125.28
132.15
133.47
129.63
121.71
111.18
99.43
87.41
75.57
63.93
52.39
40.89
29.61
18.99
9.62
2.13
-3.10
-6.06
-7.19
-7.26
-7.06
-7.12
-7.58
-8.23
-8.72
-8.81
-8.42
-7.52
-5.93
-3.21
1.27
7.91
16.56
26.25
35.17
41.11
41.90
36.05
23.18
4.28
-18.40
-41.73
-62.41
-77.71
-86.07
-87.37
-82.70
-73.88
-62.83
-51.18
-40.01
-29.97
-21.46
-14.61
-9.32
-5.16
-1.53
2.00
5.32
7.73
8.18
5.81
0.61
-6.40
-13.40
-18.42
-20.07
-17.95
-12.68
-5.52
2.07
8.80
13.77
16.50
16.99
15.78
13.78
11.96
10.95
10.58
9.90
7.48
1.99
-7.14
-19.36
-33.03
-45.75
-54.84
-58.03
-54.07
-43.31
-27.79
-10.79
4.17
14.59
19.72
20.52
18.76
15.87
12.16
6.93
-0.71
-10.99
-22.89
-34.53
-43.73
-48.86
-49.22
-45.05
-37.35
-27.70
-17.89
-9.45
-3.07
1.77
6.82
14.55
27.22
45.87
69.60
95.54
119.50
137.22
145.68
144.24
134.83
121.49
109.02
101.50
101.03
107.24
117.67
128.85
137.45
141.33
139.93
134.04
125.38
115.87
106.92
98.90
90.95
81.01
66.37
44.60
14.72
-21.94
-61.51
-98.45
-127.26
-144.36
-149.24
-144.36
-133.82
-121.83
-111.63
-105.33
-104.15
-108.35
-116.81
-126.32
-131.45
-125.83
-104.32
-65.42
-12.42
47.45
105.41
154.00
188.93
209.35
216.63
212.87
199.89
179.21
152.59
122.57
92.34
65.00
42.60
25.51
12.54
1.71
-8.76
-19.84
-31.59
-43.55
-55.13
-66.00
-76.01
-85.09
-93.02
-99.44
-103.93
-106.19
-106.04
-103.51
-98.75
-91.99
-83.62
-74.15
-64.27
-54.70
-46.10
-38.89
-33.25
-29.26
-26.96
-26.45
-27.78
-30.87
-35.23
-40.07
-44.36
-47.18
-48.05
-47.11
-45.04
-42.94
-41.94
-42.85
-45.93
-50.54
-55.26
-58.09
-57.07
-51.01
-39.94
-25.24
-9.16
5.98
18.45
27.43
32.85
34.99
34.06
30.16
23.52
14.71
4.69
-5.36
-14.42
-21.89
-27.76
-32.47
-36.65
-40.90
-45.53
-50.55
-55.62
-60.21
-63.74
-65.77
-66.05
-64.44
-60.83
-54.86
-46.08
-34.21
-19.49
-3.02
13.48
27.99
38.91
45.48
47.89
47.03
44.03
39.84
35.05
29.97
24.68
19.24
13.71
8.16
2.75
-2.29
-6.73
-10.50
-13.77
-17.03
-21.02
-26.41
-33.58
-42.21
-51.11
-58.24
-61.03
-57.08
-44.97
-24.93
0.87
28.82
54.73
74.92
86.94
89.81
83.76
69.98
50.39
27.64
5.02
-14.03
-26.50
-30.58
-26.13
-14.59
1.59
19.74
37.70
54.00
67.84
78.72
86.36
90.56
91.30
88.65
82.48
72.34
57.56
37.81
13.82
-12.07
-36.10
-54.01
-62.42
-59.91
-47.62
-28.89
-8.38
8.87
18.30
16.45
1.68
-25.50
-62.41
-104.95
-148.80
-190.61
-228.52
-261.60
-288.89
-308.47
-317.52
-313.38
-294.87
-263.15
-221.51
-174.26
-125.44
-78.08
-34.24
4.48
36.58
60.68
76.26
84.15
86.75
87.63
90.75
99.36
115.03
136.85
161.26
182.80
195.85
196.72
185.24
164.84
141.10
119.27
102.13
89.18
77.64
64.59
49.04
33.01
21.11
19.10
32.08
62.86
111.03
172.69
240.77
306.23
359.84
394.01
404.54
391.33
357.96
310.39
255.25
198.35
143.66
93.10
46.66
2.77
-40.93
-86.50
-134.46
-183.13
-228.89
-267.69
-297.00
-317.37
-332.47
-347.98
-369.62
-401.22
-443.28
-492.38
-541.43
-580.93
-601.25
-595.39
-561.33
-502.91
-428.55
-348.32
-270.67
-200.18
-137.42
-80.26
-25.69
28.59
83.21
136.78
186.18
227.34
256.61
272.24
275.30
269.28
258.92
248.49
240.52
235.40
231.83
227.48
219.74
206.25
185.44
157.05
122.48
84.56
46.69
11.71
-18.94
-45.34
-68.60
-90.04
-110.70
-130.95
-150.56
-168.60
-183.44
-192.82
-194.31
-186.11
-167.90
-141.39
-110.09
-78.49
-50.87
-30.19
-17.50
-11.94
-11.29
-12.82
-14.00
-13.18
-9.86
-4.63
1.16
5.87
8.23
7.91
5.66
3.24
2.75
5.85
13.10
23.68
35.69
46.77
54.93
59.18
59.88
58.70
58.46
62.63
74.62
96.74
129.27
169.76
213.30
253.92
286.49
308.47
320.54
325.89
328.55
331.67
336.43
341.95
345.97
345.82
339.19
324.57
301.47
270.47
233.01
191.19
147.06
101.84
55.33
6.06
-47.21
-103.49
-158.07
-202.85
-228.92
-230.00
-205.30
-160.16
-104.14
-47.90
-0.24
33.29
50.39
51.14
37.48
12.98
-17.21
-47.05
-70.94
-85.34
-89.81
-86.73
-80.19
-74.51
-72.87
-76.51
-84.64
-94.64
-102.99
-106.28
-102.33
-91.01
-74.29
-55.55
-38.55
-26.12
-19.41
-17.81
-19.59
-22.93
-26.76
-31.18
-37.30
-46.73
-60.83
-80.06
-103.65
-129.70
-155.70
-179.13
-198.04
-211.28
-218.23
-218.38
-211.37
-197.32
-177.46
-154.35
-131.36
-111.51
-96.31
-85.26
-76.72
-69.21
-62.63
-58.17
-57.23
-60.05
-64.88
-68.57
-68.26
-63.06
-54.67
-46.52
-41.69
-41.12
-42.83
-42.92
-37.47
-24.46
-4.73
18.72
42.47
64.29
83.99
102.73
121.55
139.87
155.05
163.23
161.07
147.22
122.69
90.19
52.87
13.45
-25.94
-63.19
-95.66
-120.12
-133.60
-134.35
-122.63
-100.61
-71.56
-38.93
-5.52
26.62
55.84
80.38
98.37
108.21
109.36
103.00
92.32
81.66
75.01
74.27
78.23
83.19
84.71
79.82
68.59
53.97
40.21
30.75
26.73
26.92
28.91
30.60
31.19
31.16
31.47
32.70
34.76
37.20
39.79
42.87
47.04
52.64
59.07
64.78
67.92
67.27
63.15
57.37
52.49
50.74
53.07
58.96
66.96
75.68
84.29
92.38
99.32
103.73
103.63
97.28
84.24
65.81
44.47
22.64
1.36
-20.00
-43.29
-70.46
-102.57
-139.67
-181.48
-228.03
-279.64
-335.72
-393.21
-445.86
-485.21
-503.42
-496.32
-465.28
-416.74
-359.52
-301.44
-247.05
-197.33
-150.91
-105.99
-61.67
-18.34
22.50
58.66
87.63
107.07
115.37
112.38
99.41
78.28
50.24
15.46
-26.08
-72.85
-120.73
-163.36
-194.29
-209.53
-208.95
-195.68
-174.09
-147.57
-117.62
-84.59
-49.09
-12.88
21.24
50.76
74.83
94.68
113.10
133.43
158.36
189.02
224.27
260.64
293.02
316.43
327.67
326.28
314.54
296.41
276.03
256.44
238.90
223.10
207.96
192.64
177.46
163.90
153.67
147.37
143.53
138.93
130.15
115.63
96.69
76.92
59.94
47.26
37.73
28.84
18.84
8.23
-0.79
-5.96
-6.48
-3.35
1.40
6.13
10.24
13.92
17.60
21.42
25.34
29.32
33.67
38.91
45.66
54.38
65.33
78.36
92.43
105.42
114.55
117.32
112.71
102.23
89.64
79.61
75.83
79.28
87.86
97.53
104.31
106.17
103.84
100.20
98.56
100.84
106.67
113.73
119.13
120.58
116.94
107.96
93.51
73.46
48.32
19.95
-8.49
-33.83
-54.81
-73.63
-95.61
-126.53
-169.02
-219.94
-270.74
-310.99
-333.02
-335.09
-321.22
-298.05
-270.93
-241.59
-208.77
-170.94
-128.91
-86.41
-48.42
-18.54
2.87
18.35
31.34
43.84
55.36
63.66
66.39
62.85
54.61
44.92
37.02
32.66
31.34
30.82
28.53
23.22
15.86
9.15
6.14
8.38
15.14
23.74
30.97
34.66
34.51
31.73
28.05
24.71
21.96
19.12
15.06
8.74
-0.60
-13.42
-29.85
-49.69
-72.07
-95.34
-117.05
-134.54
-146.28
-153.05
-158.08
-165.73
-178.85
-196.07
-210.97
-214.34
-198.74
-163.14
-114.36
-64.58
-25.72
-4.02
2.25
0.87
0.80
7.27
19.61
32.48
39.59
37.37
26.81
12.68
0.93
-4.17
-1.59
6.83
18.19
30.45
43.12
56.98
72.57
88.94
103.79
114.74
120.71
122.53
122.29
122.06
123.00
125.01
127.45
129.86
132.38
135.35
138.90
142.61
145.73
147.63
148.17
147.72
146.86
145.94
144.78
142.77
139.22
133.80
126.96
119.86
114.06
110.86
110.54
112.18
114.17
115.02
114.00
111.33
107.58
102.90
96.48
86.65
71.65
50.73
24.89
-3.37
-30.98
-55.62
-76.53
-94.24
-109.46
-122.13
-131.22
-135.68
-135.80
-133.86
-133.36
-137.29
-146.38
-158.55
-170.22
-178.33
-181.94
-182.33
-181.66
-181.39
-181.42
-180.43
-176.98
-170.39
-160.89
-149.21
-136.08
-122.08
-107.83
-94.11
-81.62
-70.64
-60.90
-51.92
-43.37
-35.55
-29.14
-24.71
-22.22
-20.93
-19.70
-17.57
-13.93
-8.52
-1.18
8.22
19.60
32.46
45.73
58.03
67.99
74.44
76.63
74.20
67.32
56.91
44.66
32.70
22.75
15.39
9.95
5.04
-0.46
-6.39
-11.52
-14.16
-13.19
-8.61
-1.45
6.90
15.19
22.45
27.82
30.35
29.05
23.20
12.85
-0.89
-15.98
-29.87
-40.25
-45.67
-46.00
-42.36
-36.45
-29.81
-23.20
-16.40
-8.49
1.50
14.12
29.18
45.94
63.25
79.62
93.47
103.30
108.12
107.84
103.34
96.20
88.22
80.75
74.15
67.59
59.25
46.95
29.13
5.63
-21.99
-50.72
-76.94
-97.46
-110.26
-114.87
-112.09
-103.41
-90.47
-74.57
-56.54
-36.97
-16.57
3.52
21.57
35.79
45.20
50.33
53.21
56.49
62.13
70.50
80.68
91.53
102.84
115.69
131.74
152.15
176.85
204.77
234.59
265.28
295.80
324.28
347.40
360.96
361.46
347.91
322.69
290.79
257.87
228.16
203.55
183.86
167.94
154.92
144.52
136.82
131.78
128.76
126.57
123.81
119.15
111.64
100.89
87.08
70.78
52.80
33.76
13.92
-7.03
-29.86
-55.45
-84.30
-116.09
-149.59
-182.96
-214.40
-242.98
-268.94
-293.52
-318.38
-344.78
-373.38
-404.54
-438.83
-476.89
-518.22
-559.81
-596.18
-621.40
-632.52
-632.05
-627.28
-626.47
-633.69
-645.80
-653.70
-647.25
-620.78
-575.98
-520.65
-464.29
-413.65
-370.75
-333.91
-300.21
-267.77
-235.99
-204.56
-172.37
-137.48
-98.68
-57.51
-19.38
7.45
14.87
-1.08
-37.55
-85.10
-130.74
-162.95
-175.72
-169.89
-151.38
-127.60
-104.23
-83.95
-67.04
-53.01
-41.76
-33.70
-29.03
-27.16
-26.60
-25.37
-21.94
-15.92
-8.08
0.13
7.36
13.07
17.77
22.81
29.76
39.72
52.93
68.70
85.82
103.03
119.42
134.51
148.16
160.21
170.23
177.59
181.50
181.38
177.01
168.63
156.81
142.35
126.18
109.31
92.90
78.32
66.94
59.94
57.99
61.06
68.48
79.25
92.35
107.17
123.56
141.78
162.38
186.11
213.71
245.52
280.73
316.74
349.09
372.29
381.57
374.48
351.69
316.32
272.35
223.08
170.52
116.19
62.50
13.73
-24.33
-45.99
-47.78
-29.83
4.23
48.76
98.04
147.88
196.24
242.79
288.00
332.45
376.74
421.49
466.94
511.94
552.96
583.91
597.50
587.81
552.89
495.84
423.77
345.06
266.63
192.64
124.90
64.38
12.48
-29.04
-59.09
-78.22
-88.86
-94.37
-97.56
-99.76
-100.93
-100.36
-97.85
-94.37
-92.10
-93.70
-101.25
-115.43
-134.92
-156.77
-177.12
-192.33
-199.96
-199.20
-190.76
-176.30
-157.84
-137.32
-116.54
-97.14
-80.51
-67.65
-58.93
-53.94
-51.69
-50.86
-50.19
-48.79
-46.13
-42.13
-36.98
-31.11
-25.05
-19.37
-14.61
-11.17
-9.22
-8.63
-8.95
-9.55
-9.79
-9.30
-8.07
-6.52
-5.23
-4.67
-4.95
-5.82
-6.85
-7.70
-8.26
-8.66
-9.09
-9.63
-10.16
-10.42
-10.15
-9.24
-7.73
-5.85
-3.89
-2.18
-0.94
-0.25
0.01
0.17
0.63
1.73
3.58
5.92
8.26
10.05
10.89
10.69
9.74
8.50
7.42
6.81
6.75
7.12
7.72
8.40
9.14
10.07
11.45
13.56
16.53
20.17
23.90
26.78
27.77
26.06
21.35
13.92
4.59
-5.57
-15.48
-24.29
-31.47
-36.85
-40.61
-43.16
-45.10
-46.94
-49.11
-51.78
-54.99
-58.73
-62.96
-67.64
-72.53
-76.99
-79.88
-79.64
-74.81
-64.63
-49.59
-31.62
-13.64
1.36
11.33
15.73
15.52
12.48
8.36
4.31
0.76
-2.31
-4.85
-6.60
-7.17
-6.50
-5.10
-4.17
-5.13
-9.12
-16.43
-26.30
-37.12
-47.06
-54.65
-59.26
-61.17
-61.28
-60.77
-60.74
-61.95
-64.74
-68.94
-73.92
-78.73
-82.35
-83.97
-83.17
-79.88
-74.27
-66.63
-57.29
-46.70
-35.46
-24.28
-13.76
-4.22
4.38
12.22
19.34
25.50
30.31
33.51
35.24
36.10
36.87
38.20
40.50
43.96
48.70
54.85
62.46
71.25
80.58
89.61
97.52
103.76
108.02
109.96
109.10
104.84
96.78
85.11
70.80
55.44
40.74
28.13
18.40
11.75
7.84
6.05
5.60
5.71
5.77
5.47
4.72
3.50
1.58
-1.56
-6.70
-14.66
-25.98
-40.85
-59.07
-80.12
-102.95
-125.87
-146.60
-162.63
-171.80
-172.98
-166.28
-152.88
-134.54
-113.07
-90.06
-66.77
-44.27
-23.36
-4.51
12.17
26.77
39.24
49.23
56.07
59.14
58.26
53.94
47.30
39.74
32.69
27.42
24.97
26.12
31.18
39.68
50.26
60.91
69.65
75.26
77.61
77.53
76.11
73.96
70.95
66.45
60.04
52.06
43.66
36.20
30.58
26.70
23.55
19.81
14.64
8.09
1.07
-5.17
-9.64
-12.07
-13.02
-13.57
-14.95
-18.17
-23.81
-32.09
-43.03
-56.51
-72.15
-89.21
-106.48
-122.40
-135.53
-144.94
-150.43
-152.12
-149.98
-143.38
-131.11
-112.05
-86.05
-54.56
-20.61
11.98
39.79
60.68
74.20
81.33
83.84
83.58
82.06
80.39
79.28
79.25
80.57
83.21
86.81
90.74
94.28
96.88
98.37
98.84
98.44
97.02
93.97
88.34
79.22
66.19
49.58
30.38
9.91
-10.59
-30.27
-48.71
-65.75
-81.35
-95.46
-107.93
-118.69
-127.63
-134.52
-138.88
-139.96
-137.00
-129.58
-118.04
-103.58
-87.98
-73.12
-60.50
-50.86
-44.29
-40.31
-37.86
-35.32
-30.44
-20.76
-4.40
18.94
47.49
77.66
105.13
126.29
139.33
144.35
142.85
136.69
127.43
116.11
103.41
90.00
76.54
63.54
51.14
39.14
27.26
15.42
3.88
-6.79
-15.97
-23.16
-28.02
-30.35
-30.17
-27.75
-23.68
-18.89
-14.29
-10.51
-7.65
-5.29
-2.78
0.42
4.45
9.02
13.63
17.79
21.22
23.91
25.94
27.45
28.47
28.92
28.69
27.69
25.96
23.67
20.97
17.88
14.22
9.64
3.88
-3.08
-10.82
-18.57
-25.35
-30.27
-32.80
-32.91
-31.03
-27.90
-24.34
-21.03
-18.33
-16.21
-14.36
-12.31
-9.60
-5.95
-1.34
3.89
9.07
13.35
15.93
16.38
14.89
12.26
9.72
8.30
8.46
9.84
11.45
12.19
11.40
9.10
6.02
3.09
1.04
0.05
-0.25
-0.48
-1.20
-2.63
-4.64
-6.85
-8.94
-10.76
-12.43
-14.18
-16.29
-18.92
-22.06
-25.58
-29.26
-32.81
-35.87
-37.88
-38.18
-36.11
-31.29
-23.90
-14.82
-5.52
2.16
6.51
6.34
1.33
-7.86
-19.68
-31.98
-42.62
-50.11
-54.04
-55.10
-54.60
-53.71
-52.81
-51.39
-48.41
-43.00
-34.80
-24.15
-11.91
0.82
12.81
22.72
29.25
31.40
28.84
22.16
12.79
2.61
-6.50
-12.92
-15.38
-12.97
-5.38
6.79
21.82
37.16
50.06
58.60
62.24
62.03
60.06
58.62
59.36
62.89
68.71
75.60
82.11
86.81
88.62
86.92
81.62
73.24
62.96
52.39
43.18
36.58
32.91
31.51
31.00
30.03
27.89
24.83
21.87
20.04
19.79
20.68
21.62
21.62
20.41
18.66
17.71
18.91
23.05
30.05
39.07
48.89
58.34
66.46
72.65
76.58
78.13
77.45
74.90
71.05
66.53
61.83
56.98
51.45
44.18
33.98
20.24
3.56
-14.04
-29.54
-39.93
-43.30
-39.53
-30.22
-17.90
-4.92
7.22
18.12
28.01
37.20
45.62
52.87
58.58
62.78
66.13
69.74
74.68
81.46
89.84
98.92
107.58
114.88
120.27
123.40
123.75
120.49
112.57
99.31
80.86
58.51
34.42
10.96
-9.95
-27.29
-40.91
-51.14
-58.44
-63.09
-65.33
-65.43
-63.87
-61.40
-58.88
-57.04
-56.20
-56.11
-55.86
-54.12
-49.55
-41.33
-29.55
-15.32
-0.52
12.82
23.07
29.43
32.03
31.74
29.88
27.90
27.09
28.29
31.63
36.38
41.07
43.82
42.85
37.10
26.54
12.25
-3.84
-19.50
-32.87
-43.13
-50.79
-57.48
-65.25
-75.63
-88.89
-103.97
-119.05
-132.34
-142.93
-150.92
-157.22
-163.00
-169.42
-177.60
-188.64
-203.44
-222.20
-243.91
-266.26
-286.25
-301.00
-308.42
-307.46
-297.72
-279.30
-252.72
-219.26
-181.06
-140.89
-101.46
-64.66
-31.40
-1.86
23.85
45.25
61.54
72.10
76.96
76.90
73.17
67.03
59.38
50.65
40.69
28.86
14.32
-3.53
-24.53
-47.38
-69.92
-89.80
-105.32
-115.86
-121.64
-123.06
-120.10
-112.24
-98.83
-79.65
-55.09
-26.25
5.37
37.99
69.51
97.63
120.02
134.87
141.20
139.03
129.14
112.65
90.72
64.54
35.33
4.44
-26.78
-57.13
-85.22
-109.10
-125.84
-131.87
-124.15
-101.62
-66.23
-22.68
22.97
65.36
101.36
130.39
153.54
172.15
186.78
196.96
201.96
201.62
196.81
189.18
180.41
171.58
162.99
154.44
145.68
136.73
127.91
119.38
110.90
101.73
90.99
78.05
62.98
46.54
29.93
14.23
0.00
-12.78
-24.48
-35.28
-44.97
-52.88
-58.33
-61.13
-61.81
-61.44
-61.13
-61.38
-61.87
-61.64
-59.65
-55.10
-47.60
-36.95
-22.95
-5.37
15.61
39.03
63.06
85.61
105.14
121.41
135.55
149.31
164.08
179.99
195.94
210.13
220.98
227.58
229.44
225.78
214.93
194.46
162.39
118.70
66.60
12.51
-35.61
-70.93
-90.22
-94.93
-90.34
-82.96
-77.84
-76.80
-78.46
-79.78
-78.14
-72.55
-63.78
-53.58
-43.78
-35.94
-31.79
-33.26
-41.94
-58.17
-80.15
-104.25
-126.31
-143.17
-153.78
-159.04
-160.87
-161.17
-161.16
-161.51
-162.65
-164.86
-168.01
-171.24
-173.18
-172.64
-169.18
-163.20
-155.42
-146.05
-134.49
-119.76
-101.53
-80.74
-59.41
-39.66
-22.66
-8.08
5.09
17.41
28.04
34.77
35.39
29.31
18.53
7.31
0.63
2.13
12.82
30.65
51.71
71.96
88.64
100.65
108.12
111.57
111.28
107.20
99.24
87.59
72.76
55.19
34.93
11.88
-13.54
-39.67
-63.51
-81.57
-91.33
-92.57
-87.58
-79.98
-72.82
-67.21
-61.96
-54.55
-42.87
-26.55
-7.33
11.73
27.65
38.58
44.07
44.55
40.69
32.93
21.81
8.45
-5.24
-16.90
-24.66
-28.05
-28.01
-26.41
-24.91
-24.20
-23.92
-23.33
-22.10
-20.63
-19.81
-20.29
-21.95
-23.83
-24.64
-23.49
-20.33
-15.90
-11.22
-7.07
-3.63
-0.55
2.68
6.21
9.71
12.60
14.43
15.29
15.91
17.25
20.01
24.18
28.89
32.78
34.56
33.46
29.55
23.61
16.80
10.30
4.96
1.18
-1.04
-2.00
-2.24
-2.36
-2.96
-4.37
-6.62
-9.40
-12.27
-14.87
-16.99
-18.52
-19.28
-18.90
-17.00
-13.38
-8.36
-2.74
2.36
5.98
7.66
7.55
6.24
4.36
2.33
0.26
-1.91
-4.17
-6.31
-7.96
-8.70
-8.28
-6.76
-4.55
-2.30
-0.64
0.07
-0.08
-0.70
-1.30
-1.60
-1.66
-1.78
-2.26
-3.19
-4.39
-5.53
-6.34
-6.64
-6.37
-5.48
-3.89
-1.57
1.34
4.56
7.65
10.28
12.33
13.84
14.89
15.43
15.34
14.44
12.67
10.12
7.02
3.61
0.17
-2.97
-5.36
-6.47
-5.90
-3.71
-0.66
1.97
2.79
0.95
-3.38
-9.03
-14.32
-17.80
-18.83
-17.77
-15.58
-13.11
-10.67
-7.94
-4.39
0.14
5.26
10.13
13.94
16.31
17.48
18.00
18.33
18.59
18.50
17.68
15.96
13.60
11.23
9.51
8.94
9.64
11.31
13.51
15.73
17.62
18.95
19.68
19.83
19.48
18.72
17.67
16.39
14.92
13.18
11.06
8.57
5.95
3.72
2.54
2.95
5.14
8.89
13.60
18.64
23.44
27.56
30.64
32.20
31.77
29.08
24.26
17.92
10.82
3.36
-4.54
-13.29
-23.15
-33.86
-44.51
-53.94
-61.23
-65.98
-68.32
-68.68
-67.52
-65.35
-62.66
-59.88
-57.09
-53.95
-49.86
-44.62
-39.15
-35.69
-37.16
-45.83
-62.10
-83.75
-106.54
-125.57
-136.85
-138.50
-131.14
-117.47
-101.16
-85.76
-73.64
-65.78
-61.81
-60.66
-61.18
-62.56
-64.42
-66.49
-68.41
-69.48
-68.72
-64.97
-56.84
-42.91
-21.79
7.56
45.12
89.12
135.84
179.87
215.22
236.65
240.95
227.53
198.13
155.91
104.37
46.66
-14.51
-76.49
-136.06
-189.17
-231.17
-257.93
-266.87
-257.85
-233.04
-196.14
-151.34
-102.68
-54.01
-9.05
28.66
56.46
73.65
82.04
85.56
88.91
95.77
107.56
123.39
141.25
159.28
176.56
192.94
208.26
221.52
230.85
234.36
231.20
222.33
210.14
197.35
185.45
173.98
160.87
143.91
122.31
97.62
73.18
52.64
38.32
30.32
26.88
25.47
23.98
21.43
18.01
14.82
13.59
16.35
24.95
40.12
60.63
82.94
101.99
112.76
112.37
101.34
83.61
65.26
52.38
49.39
58.00
77.25
104.15
134.43
163.11
185.11
195.99
193.13
176.91
151.03
121.69
95.74
78.21
70.78
71.38
75.47
78.15
75.97
67.85
54.83
39.01
22.56
7.09
-6.42
-17.42
-25.65
-31.12
-34.21
-35.67
-36.33
-36.97
-37.88
-38.78
-38.87
-37.13
-32.85
-26.03
-17.62
-9.20
-2.48
1.43
2.39
1.04
-1.73
-5.48
-10.63
-18.26
-29.50
-44.71
-63.08
-82.72
-101.35
-116.94
-128.27
-135.04
-137.59
-136.52
-132.53
-126.28
-118.60
-110.51
-103.14
-97.54
-94.38
-93.75
-95.23
-98.19
-101.99
-106.25
-110.80
-115.48
-120.02
-123.84
-126.23
-126.54
-124.35
-119.61
-112.63
-103.98
-94.40
-84.80
-76.12
-69.12
-63.99
-59.96
-55.21
-47.14
-32.98
-10.55
20.79
59.54
101.83
141.84
173.08
190.00
189.69
172.80
143.41
107.59
71.29
38.49
10.28
-14.53
-37.93
-61.31
-84.91
-108.30
-131.24
-153.87
-175.89
-195.31
-207.71
-207.11
-188.43
-150.54
-97.78
-39.17
14.83
55.97
80.73
90.19
88.04
78.10
62.87
43.68
21.68
-1.61
-24.51
-45.98
-65.99
-85.12
-103.53
-120.14
-132.70
-138.56
-135.52
-122.20
-97.92
-62.66
-17.50
34.79
89.58
141.09
184.10
215.59
235.38
245.13
246.57
239.94
223.95
197.11
159.49
113.90
65.35
19.57
-19.02
-48.56
-69.96
-85.93
-99.62
-113.50
-128.70
-145.20
-161.78
-176.11
-184.84
-184.28
-171.67
-146.72
-112.33
-74.07
-38.80
-11.83
5.04
14.20
20.75
29.82
44.14
63.21
84.10
102.51
114.97
119.64
116.86
108.72
98.19
88.26
81.11
77.45
74.73
67.97
50.67
17.62
-32.71
-97.43
-170.10
-242.86
-301.76
-334.29
-332.65
-297.82
-238.66
-167.63
-95.87
-30.73
23.95
66.97
96.47
113.26
117.27
108.49
87.22
53.88
8.82
-47.01
-111.10
-179.61
-244.67
-298.01
-332.80
-345.84
-338.53
-315.87
-283.96
-247.53
-209.35
-170.17
-130.63
-91.44
-53.30
-16.35
20.19
58.01
98.96
143.79
191.66
239.55
283.13
318.13
341.64
353.06
354.16
348.24
338.74
327.93
316.13
302.39
285.60
265.46
242.89
219.63
197.48
177.63
160.47
145.51
131.82
118.26
103.70
87.33
69.05
49.67
30.77
13.91
-0.12
-11.86
-22.94
-35.04
-48.78
-63.02
-75.35
-83.31
-85.80
-83.68
-79.16
-74.38
-70.07
-65.24
-57.99
-46.84
-31.80
-14.32
3.65
20.78
36.96
52.93
69.19
85.09
98.70
107.35
108.78
102.02
87.51
66.74
41.50
13.30
-16.62
-46.95
-76.02
-101.68
-121.65
-134.01
-137.73
-132.82
-120.18
-101.39
-78.36
-53.28
-28.45
-6.17
11.63
23.70
29.76
30.51
27.36
21.92
15.59
9.28
3.40
-2.01
-7.02
-11.70
-16.12
-20.33
-24.53
-29.08
-34.35
-40.50
-47.21
-53.66
-58.59
-60.80
-59.47
-54.65
-47.40
-39.51
-32.98
-29.07
-27.65
-27.12
-25.11
-19.70
-10.44
1.23
12.69
21.38
26.04
27.06
26.00
24.44
23.16
21.95
20.17
17.55
14.69
12.81
13.06
15.75
20.09
24.53
27.45
27.98
26.29
23.43
20.72
19.21
19.27
20.67
22.92
25.55
28.24
30.76
32.77
33.88
33.82
32.64
30.87
29.20
28.25
28.22
28.92
29.98
31.16
32.46
33.99
35.76
37.47
38.58
38.59
37.33
35.15
32.82
31.29
31.34
33.34
37.17
42.20
47.44
51.79
54.39
54.91
53.73
51.56
49.12
46.61
43.62
39.44
33.68
26.72
19.61
13.42
8.47
3.93
-2.02
-11.46
-26.05
-46.60
-72.98
-104.32
-138.99
-174.77
-208.96
-238.58
-260.77
-273.26
-274.85
-265.64
-247.16
-222.19
-194.06
-165.89
-139.84
-117.01
-98.03
-84.14
-77.22
-78.98
-89.01
-103.35
-114.75
-115.45
-101.24
-74.27
-42.83
-17.42
-5.26
-6.23
-12.90
-14.58
-3.42
21.29
53.10
82.21
101.23
108.77
109.59
111.06
118.64
133.07
150.55
165.71
174.88
177.97
177.66
177.21
178.09
179.02
176.96
169.02
154.12
133.32
109.22
84.58
61.27
40.09
20.99
3.69
-11.96
-25.85
-37.77
-47.25
-53.55
-55.71
-52.82
-44.67
-32.10
-16.87
-1.02
13.91
27.44
40.03
52.47
65.19
77.71
88.93
97.76
103.84
107.82
110.82
113.44
114.93
113.08
105.16
89.37
65.99
37.60
8.07
-18.98
-41.42
-58.89
-72.12
-81.85
-88.09
-90.20
-87.69
-80.94
-71.46
-61.44
-52.91
-47.00
-43.65
-41.83
-40.25
-37.98
-34.78
-31.00
-27.24
-23.94
-21.12
-18.47
-15.46
-11.62
-6.74
-0.97
5.21
11.01
15.54
17.95
17.64
14.38
8.37
0.26
-8.95
-18.04
-25.85
-31.53
-34.82
-36.06
-36.13
-36.03
-36.56
-38.00
-40.18
-42.65
-45.00
-47.09
-49.02
-50.92
-52.80
-54.48
-55.75
-56.61
-57.37
-58.48
-60.21
-62.18
-63.22
-61.45
-54.83
-41.95
-22.69
1.25
26.60
49.23
65.39
72.83
71.56
63.76
52.91
42.46
34.63
29.84
27.00
24.44
20.85
15.86
9.95
4.00
-1.40
-6.08
-10.26
-14.17
-17.71
-20.46
-21.99
-22.21
-21.55
-20.84
-20.85
-21.89
-23.74
-25.69
-27.01
-27.36
-26.87
-26.03
-25.43
-25.37
-25.74
-26.06
-25.67
-23.97
-20.66
-15.83
-9.92
-3.66
2.16
6.85
10.06
11.80
12.41
12.37
12.08
11.73
11.26
10.48
9.26
7.69
6.09
5.02
5.01
6.42
9.26
13.08
17.18
20.83
23.50
25.10
25.93
26.45
27.02
27.75
28.45
28.84
28.81
28.47
28.24
28.63
30.11
32.95
37.29
43.12
50.42
59.14
69.12
80.07
91.57
103.14
114.35
124.87
134.48
143.02
150.46
156.97
163.10
169.75
177.99
188.68
202.04
217.30
232.68
245.74
253.81
254.56
246.46
229.15
203.55
171.67
136.35
100.58
67.09
37.82
13.61
-5.77
-21.49
-35.08
-48.04
-61.47
-76.12
-92.09
-109.05
-126.48
-144.09
-161.85
-179.80
-198.05
-216.55
-235.66
-255.22
-274.42
-292.20
-307.87
-321.73
-335.05
-350.25
-369.76
-395.82
-427.79
-461.47
-489.88
-505.37
-502.27
-478.56
-437.20
-385.00
-331.85
-286.06
-251.75
-228.12
-210.73
-194.16
-174.01
-149.25
-111.86
-61.17
-2.18
56.68
107.89
147.81
173.79
189.31
197.76
202.21
204.38
206.90
213.09
225.32
243.78
266.10
288.40
305.91
315.27
314.30
303.58
285.68
263.94
241.10
218.67
197.37
177.10
157.94
139.51
121.83
105.07
89.55
75.54
63.18
52.69
43.88
36.57
30.19
24.32
18.76
13.50
8.74
4.58
1.15
-1.72
-4.21
-6.63
-9.03
-11.10
-12.19
-11.52
-8.58
-3.45
3.01
9.40
14.42
17.36
18.38
18.28
17.93
17.60
16.79
14.41
9.41
1.39
-9.07
-20.43
-30.55
-37.21
-38.60
-33.76
-22.88
-7.38
10.18
26.61
38.94
45.28
45.37
40.56
33.41
26.95
23.94
26.15
33.71
44.92
56.37
63.85
63.49
53.14
33.11
6.03
-24.15
-53.60
-79.52
-100.04
-113.35
-116.89
-107.90
-84.93
-49.65
-7.35
34.26
67.78
88.71
96.80
95.42
89.10
81.07
71.74
59.05
40.40
15.11
-14.14
-41.83
-61.99
-71.44
-71.95
-70.01
-73.88
-89.44
-116.88
-150.46
-181.34
-202.02
-209.75
-207.15
-199.90
-193.23
-189.27
-186.74
-182.58
-174.27
-161.33
-145.30
-128.41
-112.03
-95.95
-78.64
-58.58
-35.37
-10.28
14.31
35.93
53.05
65.40
73.71
79.11
82.62
84.94
86.50
87.54
88.09
87.99
86.80
84.11
79.65
73.54
66.29
58.56
51.01
44.12
38.11
32.96
28.47
24.30
20.15
15.93
11.92
8.71
6.93
6.98
8.66
11.32
14.06
16.14
17.22
17.41
17.06
16.47
15.81
15.04
14.00
12.50
10.40
7.66
4.36
0.78
-2.70
-5.66
-7.81
-9.15
-9.96
-10.70
-11.86
-13.81
-16.59
-20.02
-23.66
-27.12
-30.15
-32.87
-35.71
-39.27
-44.01
-49.95
-56.49
-62.51
-66.71
-68.03
-65.96
-60.68
-52.90
-43.57
-33.55
-23.51
-13.80
-4.61
3.92
11.65
18.46
24.36
29.55
34.39
39.29
44.52
50.13
55.87
61.29
65.91
69.37
71.54
72.49
72.40
71.39
69.43
66.29
61.61
55.19
47.11
37.91
28.53
20.08
13.39
8.91
6.54
5.84
6.24
7.28
8.67
10.19
11.68
12.89
13.61
13.69
13.10
11.99
10.50
8.80
7.02
5.28
3.81
3.01
3.42
5.45
9.21
14.29
19.92
25.23
29.66
33.19
36.20
39.26
42.58
45.96
48.80
50.50
50.79
49.84
48.08
45.87
43.41
40.72
37.83
34.92
32.24
29.93
27.85
25.51
22.26
17.55
11.04
2.78
-6.93
-17.54
-28.25
-38.04
-45.82
-50.80
-52.65
-51.74
-48.93
-45.15
-41.05
-36.89
-32.80
-29.13
-26.68
-26.42
-28.98
-34.11
-40.53
-46.37
-50.02
-50.83
-49.34
-46.83
-44.51
-42.86
-41.52
-39.80
-37.34
-34.48
-32.04
-30.68
-30.29
-29.95
-28.37
-24.58
-18.49
-10.97
-3.30
3.42
8.77
12.97
16.60
20.14
23.75
27.25
30.32
32.72
34.36
35.33
35.82
35.98
35.99
35.96
35.99
36.11
36.27
36.21
35.47
33.54
30.07
25.09
19.11
12.95
7.38
2.93
-0.33
-2.65
-4.35
-5.51
-5.98
-5.49
-3.91
-1.38
1.74
4.95
7.85
10.15
11.67
12.25
11.68
9.85
6.85
3.02
-1.05
-4.72
-7.53
-9.31
-10.18
-10.43
-10.27
-9.73
-8.71
-7.11
-5.00
-2.73
-0.75
0.59
1.22
1.33
1.20
0.98
0.60
-0.16
-1.45
-3.16
-4.96
-6.39
-7.10
-7.00
-6.22
-5.03
-3.69
-2.40
-1.25
-0.34
0.30
0.67
0.81
0.82
0.80
0.83
1.02
1.48
2.33
3.57
5.10
6.60
7.64
7.86
7.13
5.54
3.45
1.21
-0.96
-2.94
-4.78
-6.47
-7.92
-9.05
-9.82
-10.31
-10.72
-11.22
-11.75
-12.00
-11.48
-9.70
-6.37
-1.57
4.32
10.69
16.82
22.18
26.49
29.87
32.71
35.48
38.55
42.00
45.58
48.90
51.75
54.16
56.32
58.31
59.89
60.75
60.92
60.89
61.48
63.52
67.25
72.18
77.21
81.21
83.66
85.04
86.19
87.74
89.86
92.35
95.05
97.94
100.74
102.40
100.69
92.19
73.27
41.69
-2.05
-54.57
-110.73
-165.36
-214.71
-254.45
-280.01
-287.99
-277.82
-252.43
-216.99
-177.10
-137.36
-100.90
-69.36
-43.43
-23.23
-8.40
1.89
8.82
13.62
17.26
20.39
23.42
26.47
29.35
31.82
33.84
35.63
37.53
39.82
42.57
45.78
49.25
52.58
55.40
57.41
58.56
58.94
58.74
58.08
56.91
55.29
53.23
50.80
48.16
45.61
43.46
42.07
41.36
41.24
41.62
42.33
43.27
44.38
45.77
47.69
50.47
53.94
57.97
62.43
67.20
72.13
77.14
82.23
87.55
93.34
99.15
104.66
109.54
113.35
115.61
115.79
113.21
106.76
99.47
92.27
85.49
79.06
72.69
66.12
59.34
52.73
46.99
42.94
40.46
39.07
37.79
35.44
30.98
23.98
14.85
4.73
-5.00
-13.94
-22.36
-31.44
-42.81
-57.82
-76.92
-99.26
-123.18
-146.68
-168.69
-189.05
-208.55
-228.52
-250.58
-276.51
-307.60
-343.89
-382.91
-419.04
-443.90
-448.70
-427.45
-379.55
-310.36
-229.52
-148.00
-75.28
-18.07
19.81
36.66
32.29
7.88
-33.78
-87.84
-147.38
-203.72
-247.81
-271.83
-271.28
-246.59
-203.15
-149.74
-95.59
-47.62
-8.73
21.72
45.87
65.59
81.46
93.04
99.82
102.00
100.36
95.55
87.13
73.53
52.98
25.36
-6.20
-35.26
-53.81
-55.31
-37.78
-4.84
35.59
74.56
105.52
126.27
138.55
145.74
150.41
152.98
152.14
146.35
135.23
119.72
101.19
80.21
56.05
27.59
-4.97
-38.57
-67.52
-85.34
-87.45
-73.25
-46.39
-13.17
19.94
48.29
69.84
84.58
93.20
96.34
94.28
87.32
76.37
63.08
49.51
37.81
29.82
26.50
27.66
31.52
34.62
32.71
21.98
1.03
-27.76
-58.29
-82.87
-95.09
-92.78
-79.09
-60.93
-45.87
-38.81
-40.38
-47.48
-55.19
-58.78
-54.98
-42.41
-21.44
5.74
35.43
63.02
84.33
97.02
101.35
99.58
94.44
87.86
80.27
71.57
62.43
54.99
52.12
55.70
65.23
77.57
88.82
96.06
98.81
98.75
98.15
98.32
99.12
99.60
99.65
100.78
105.40
114.94
127.86
138.88
140.54
126.30
93.85
46.77
-6.27
-54.41
-88.08
-101.55
-93.52
-65.92
-22.19
33.68
96.91
161.16
218.18
259.01
276.53
267.93
236.26
189.34
137.01
87.58
45.55
11.18
-18.19
-46.21
-76.09
-109.79
-147.90
-189.52
-231.93
-270.58
-299.92
-314.93
-313.07
-295.11
-264.71
-226.76
-185.57
-143.88
-102.97
-63.78
-27.69
3.55
28.57
47.10
59.95
68.20
72.13
71.09
64.10
50.95
33.14
13.74
-3.51
-15.61
-21.46
-22.04
-19.90
-18.07
-18.99
-23.68
-31.54
-40.51
-48.01
-52.09
-52.10
-48.80
-44.11
-40.37
-39.60
-43.08
-51.15
-63.16
-77.98
-92.97
-104.18
-107.27
-99.18
-79.70
-52.01
-22.08
3.11
17.23
17.94
7.43
-8.63
-24.17
-35.57
-42.82
-48.53
-55.42
-65.02
-75.41
-82.50
-82.65
-75.18
-62.55
-48.60
-35.95
-18.14
7.64
39.05
68.92
89.82
97.76
93.28
80.05
62.90
45.98
30.53
16.62
4.12
-6.96
-16.72
-25.47
-33.62
-41.62
-49.49
-57.86
-66.57
-74.91
-81.85
-87.26
-90.40
-91.20
-90.02
-87.21
-83.84
-80.41
-77.29
-74.62
-72.54
-71.17
-70.84
-71.90
-74.39
-78.60
-84.04
-90.22
-96.54
-102.41
-107.19
-110.33
-111.16
-108.17
-103.16
-96.60
-88.92
-80.58
-71.99
-63.41
-55.08
-47.26
-39.00
-29.60
-18.43
-5.88
7.02
19.24
30.11
39.37
47.02
55.57
67.15
83.01
102.43
123.41
143.87
162.45
178.69
192.61
208.28
229.13
256.68
289.42
323.74
355.99
383.78
406.25
423.51
441.25
464.62
496.48
536.27
581.11
628.27
676.70
726.91
747.78
717.75
629.77
496.75
344.26
196.57
68.39
-35.13
-114.95
-175.01
-215.34
-236.73
-241.87
-235.66
-224.25
-212.66
-203.51
-197.29
-193.25
-186.33
-172.09
-149.10
-120.20
-92.48
-74.19
-71.27
-84.89
-111.02
-139.60
-159.78
-166.71
-160.38
-145.53
-128.27
-113.06
-101.48
-92.85
-84.57
-74.81
-63.33
-50.77
-38.51
-27.00
-15.65
-3.38
10.49
26.10
42.72
59.12
74.48
87.85
99.24
109.34
118.94
128.29
136.75
142.70
143.67
141.82
137.64
131.81
125.15
118.39
111.97
105.94
100.07
94.05
87.85
80.99
73.43
65.38
57.14
48.93
40.87
33.05
25.53
18.55
11.91
5.67
0.03
-4.81
-8.64
-11.39
-13.02
-13.65
-13.49
-13.13
-13.13
-13.87
-15.59
-18.34
-21.96
-26.20
-30.86
-35.87
-41.44
-47.68
-54.58
-61.86
-68.95
-75.13
-79.80
-82.69
-84.02
-84.45
-84.77
-85.58
-87.02
-88.79
-90.32
-91.19
-91.49
-92.03
-94.13
-99.22
-108.33
-121.63
-138.46
-157.73
-178.31
-199.47
-221.04
-243.26
-266.81
-292.84
-322.98
-358.84
-400.60
-445.36
-486.62
-516.06
-526.77
-516.41
-488.42
-450.69
-412.28
-380.17
-357.91
-346.16
-344.41
-352.08
-368.07
-389.66
-412.12
-429.73
-437.91
-435.05
-422.25
-402.18
-377.25
-348.93
-317.68
-284.11
-249.24
-214.60
-181.77
-150.91
-121.35
-92.50
-64.65
-38.73
-16.11
2.97
18.93
32.60
46.42
62.42
80.98
100.74
119.70
135.66
148.60
159.32
168.82
180.42
196.99
219.12
244.96
271.79
296.45
318.90
340.01
360.63
384.38
414.21
450.07
488.65
525.38
554.94
575.94
588.12
572.23
515.96
421.80
306.88
191.48
98.57
25.54
-32.15
-77.57
-112.40
-136.67
-148.86
-149.64
-142.41
-131.60
-122.19
-115.19
-110.55
-108.24
-106.04
-101.81
-95.37
-88.56
-83.77
-83.77
-88.29
-96.32
-106.99
-118.21
-127.84
-134.91
-139.63
-142.49
-144.41
-144.75
-142.92
-138.99
-132.74
-124.00
-112.95
-99.92
-85.11
-68.80
-50.66
-30.71
-9.50
12.42
34.64
56.98
79.58
102.89
127.60
154.81
185.53
220.02
257.16
294.02
326.04
348.24
357.09
351.99
335.68
313.04
288.91
265.86
243.19
217.69
185.81
146.06
100.28
53.39
11.42
-20.67
-40.55
-48.65
-46.85
-36.94
-19.41
6.43
41.35
84.70
134.04
185.84
236.94
285.68
331.49
373.05
406.40
425.04
422.59
396.91
353.02
302.20
257.25
226.37
209.74
200.65
190.70
175.10
154.79
134.06
116.17
100.58
83.81
63.03
39.22
17.22
2.44
-3.27
-3.49
-5.75
-17.38
-42.09
-78.64
-121.82
-164.66
-200.59
-224.57
-234.04
-229.56
-215.10
-197.33
-183.87
-180.84
-190.98
-213.25
-244.47
-281.48
-322.72
-367.75
-415.12
-460.07
-494.10
-507.27
-492.60
-450.12
-388.03
-319.73
-258.09
-210.16
-175.07
-146.28
-116.45
-81.73
-43.09
-4.56
29.99
59.03
83.36
104.55
123.21
138.40
148.08
150.69
146.23
136.52
124.65
114.16
107.93
107.46
112.36
120.35
127.96
131.74
129.54
121.41
109.41
96.53
85.36
77.06
71.29
67.03
63.67
61.75
62.94
69.19
81.46
98.59
117.24
132.81
141.13
140.00
129.90
113.58
94.79
76.78
61.31
48.48
37.40
27.15
17.60
9.59
4.44
3.44
7.32
16.18
29.66
47.06
67.37
89.16
110.64
129.89
145.31
156.05
162.11
164.23
163.45
160.70
156.63
151.59
145.66
138.83
131.30
123.54
116.18
109.75
104.41
99.83
95.23
89.50
81.71
71.69
60.29
49.16
40.16
34.71
33.51
36.04
40.28
43.16
41.54
33.34
18.21
-2.33
-25.53
-47.82
-66.31
-79.83
-89.05
-95.80
-102.09
-109.54
-118.96
-130.58
-144.30
-156.67
-162.64
-158.66
-144.64
-122.98
-96.63
-67.76
-39.79
-12.99
12.34
35.11
53.94
67.88
76.81
81.13
82.96
83.56
84.02
84.72
85.41
85.63
85.06
83.87
82.61
81.73
81.18
80.83
80.16
78.48
75.21
70.26
64.15
57.90
52.61
49.04
47.75
48.81
51.81
56.13
61.11
66.09
70.62
74.37
77.00
78.39
78.47
77.41
75.68
74.12
73.78
75.99
82.00
92.83
109.18
131.05
157.74
187.78
219.02
248.74
274.12
292.21
300.51
297.34
281.89
254.47
216.37
169.82
117.63
63.00
9.10
-41.15
-85.25
-121.47
-148.90
-167.44
-177.85
-181.50
-180.17
-175.86
-170.43
-165.25
-161.27
-158.80
-157.77
-157.92
-158.91
-160.46
-162.32
-164.21
-165.71
-166.42
-165.86
-163.78
-160.50
-156.89
-154.22
-153.88
-156.86
-163.42
-173.09
-184.84
-197.64
-211.00
-225.10
-240.85
-259.31
-281.15
-306.16
-333.36
-361.34
-388.80
-415.15
-440.54
-465.80
-492.19
-521.26
-554.69
-593.64
-637.58
-683.05
-723.40
-749.91
-754.58
-733.08
-686.60
-621.48
-546.77
-470.86
-399.10
-333.31
-272.87
-216.53
-163.82
-114.72
-69.01
-25.53
17.46
61.25
105.56
147.98
184.61
211.67
227.41
232.82
231.19
226.31
220.90
215.99
211.54
207.76
205.99
208.43
216.40
228.55
240.26
244.95
236.99
214.40
179.92
140.06
102.58
73.82
57.42
54.09
62.37
79.45
101.90
126.16
148.94
168.09
183.69
198.43
216.63
241.85
274.01
307.78
333.70
341.32
323.33
278.70
212.85
134.99
54.30
-23.51
-97.28
-169.30
-242.42
-317.31
-390.85
-456.33
-505.67
-532.08
-532.83
-510.21
-470.65
-422.29
-371.80
-322.55
-274.72
-227.12
-179.40
-133.15
-91.17
-55.56
-25.93
0.99
29.85
64.66
106.67
154.12
202.97
249.29
290.88
327.72
361.06
392.03
420.92
446.95
469.03
486.13
496.92
499.06
489.12
463.67
421.36
365.02
301.98
242.31
195.35
165.89
152.12
146.39
138.35
119.51
86.87
43.60
-2.45
-42.38
-69.99
-83.60
-85.40
-79.52
-69.70
-58.05
-45.36
-31.65
-16.86
-0.85
17.31
38.53
62.56
86.73
105.66
112.87
103.87
78.67
42.28
2.93
-31.69
-57.97
-77.73
-96.84
-121.83
-156.34
-199.70
-247.28
-292.34
-328.49
-350.66
-355.37
-340.46
-305.90
-254.55
-192.90
-130.35
-76.66
-38.98
-19.14
-13.61
-15.65
-18.42
-17.68
-12.30
-3.04
9.12
23.84
41.35
61.20
81.59
99.66
112.96
120.86
124.92
127.92
131.83
136.77
140.58
140.20
133.16
118.61
97.60
72.34
45.26
18.08
-8.38
-33.79
-57.66
-78.25
-92.50
-96.55
-87.36
-64.46
-31.02
6.19
39.05
61.09
69.72
66.61
56.27
43.43
31.44
21.45
13.22
6.13
-0.16
-5.50
-10.07
-14.48
-19.71
-26.41
-34.12
-41.13
-44.79
-42.37
-31.86
-12.76
13.58
44.15
74.45
99.55
115.14
118.75
110.56
93.74
73.77
56.76
47.97
50.42
64.35
87.31
114.99
141.97
162.80
173.03
169.79
152.59
123.51
86.67
47.23
10.01
-21.51
-45.53
-61.39
-68.82
-67.75
-58.94
-44.72
-29.02
-16.72
-11.62
-15.26
-26.45
-42.13
-59.22
-76.08
-92.62
-109.34
-126.19
-142.00
-155.24
-164.76
-170.30
-171.99
-169.63
-162.50
-150.05
-133.34
-115.91
-103.49
-102.10
-115.58
-143.60
-181.28
-220.82
-254.35
-276.82
-287.18
-287.83
-282.70
-275.02
-266.12
-255.24
-240.55
-220.54
-194.94
-164.78
-131.92
-98.20
-64.88
-32.50
-0.94
30.20
61.31
92.50
124.04
156.29
189.57
223.47
256.19
284.58
305.11
315.60
316.78
312.29
307.20
305.55
308.21
312.76
315.04
311.60
301.34
285.66
267.20
248.49
230.97
215.12
201.37
190.36
183.25
181.60
187.02
200.81
223.14
252.50
285.54
317.34
342.53
356.50
356.58
342.26
314.99
277.37
232.69
184.38
135.86
89.86
48.03
10.75
-22.69
-53.34
-82.07
-109.34
-135.45
-161.09
-187.60
-216.60
-249.78
-288.71
-334.43
-387.04
-444.79
-503.26
-555.49
-593.28
-609.62
-601.15
-569.58
-520.67
-462.04
-400.15
-338.63
-278.18
-218.26
-159.25
-103.42
-54.32
-14.81
15.06
38.31
59.72
83.34
110.45
139.05
165.17
185.16
197.64
204.00
207.77
213.34
224.78
245.14
275.75
315.34
359.52
401.52
434.34
453.37
458.34
452.96
443.13
434.17
429.03
427.68
428.00
427.07
422.02
410.67
391.79
365.11
331.73
293.85
254.22
215.40
179.10
146.11
116.52
89.92
65.53
42.09
18.27
-6.88
-33.35
-60.05
-85.17
-106.90
-124.66
-139.63
-154.73
-173.15
-196.22
-221.65
-243.55
-254.53
-249.00
-226.09
-190.22
-149.10
-110.02
-77.21
-51.39
-31.46
-16.19
-4.73
4.41
14.35
29.28
52.13
81.84
112.47
135.37
143.09
132.97
107.89
74.31
38.79
5.34
-25.05
-53.16
-79.65
-104.55
-127.70
-149.59
-171.61
-195.34
-221.59
-249.82
-278.04
-303.65
-324.61
-340.38
-352.36
-363.91
-379.76
-404.64
-441.15
-487.67
-537.49
-579.90
-603.55
-600.65
-570.16
-518.18
-455.27
-391.99
-334.84
-284.70
-237.96
-189.84
-137.50
-81.60
-25.74
25.35
67.89
100.19
122.54
136.50
143.82
145.75
143.62
139.20
134.70
131.72
130.14
127.45
120.01
105.16
83.32
58.70
37.25
23.13
15.50
8.17
-7.47
-37.21
-79.93
-126.68
-164.05
-180.10
-169.11
-133.63
-82.78
-28.38
19.27
53.74
72.63
76.27
66.07
44.32
14.71
-16.93
-43.14
-56.61
-52.51
-30.30
6.13
49.51
91.69
125.85
148.10
157.88
157.72
152.38
147.46
147.92
156.47
172.43
191.85
209.09
219.18
219.69
211.32
197.19
181.34
167.63
159.22
158.35
165.78
180.07
197.22
210.90
214.28
202.34
173.73
131.22
80.23
26.20
-27.51
-80.43
-133.74
-187.73
-239.76
-284.13
-313.84
-323.71
-313.02
-285.74
-248.46
-207.78
-168.05
-131.64
-100.42
-77.33
-65.79
-67.58
-80.33
-97.37
-110.01
-111.73
-101.38
-83.54
-65.92
-55.28
-54.09
-59.98
-67.49
-70.91
-66.79
-54.66
-36.14
-13.72
10.33
34.36
56.99
76.55
91.15
99.06
99.25
91.91
78.71
62.22
45.45
31.11
21.26
16.87
18.01
23.90
33.44
45.36
58.19
69.88
77.94
80.23
76.18
67.98
60.35
58.52
65.66
80.65
98.02
110.35
111.87
101.49
83.19
64.01
50.66
46.62
51.27
61.01
71.58
79.92
85.15
87.92
89.03
88.11
83.37
72.43
53.95
29.08
1.66
-23.14
-40.66
-48.61
-47.55
-40.05
-29.14
-16.75
-3.42
10.71
25.00
37.68
46.42
49.61
47.21
41.05
33.74
27.55
23.24
19.96
15.98
9.95
1.93
-6.79
-14.64
-21.35
-28.28
-37.45
-49.26
-60.69
-65.77
-58.04
-34.28
2.74
44.38
79.37
98.52
97.92
79.54
48.99
12.49
-24.84
-58.95
-85.90
-101.66
-103.05
-89.19
-62.39
-27.57
9.16
42.76
70.48
92.14
109.59
125.31
141.18
157.69
173.68
186.75
193.98
192.96
182.59
163.14
135.78
101.96
62.53
17.68
-32.46
-86.91
-142.85
-195.61
-239.25
-268.30
-279.25
-271.82
-249.24
-216.92
-180.93
-145.75
-113.55
-84.30
-57.60
-34.49
-18.31
-13.52
-22.59
-43.52
-69.22
-90.06
-97.81
-89.32
-67.56
-39.40
-11.82
11.58
31.02
48.54
64.80
77.44
82.00
74.32
53.96
25.08
-4.39
-25.57
-31.35
-18.27
12.89
57.88
110.29
163.02
209.08
242.12
257.10
251.14
224.21
179.11
120.75
54.74
-13.97
-82.38
-149.49
-215.64
-280.72
-342.61
-396.97
-437.99
-460.51
-462.21
-444.52
-412.04
-370.47
-324.74
-277.66
-230.35
-183.64
-139.19
-99.33
-66.02
-39.44
-17.00
6.22
35.75
74.74
121.41
168.28
204.04
216.98
199.11
149.04
72.84
-17.35
-106.68
-181.34
-231.77
-253.63
-248.25
-221.33
-180.84
-134.55
-88.43
-46.03
-8.93
22.25
48.82
72.24
94.07
115.59
137.82
161.06
184.72
207.10
225.96
242.32
257.97
274.47
291.96
309.43
325.39
338.36
346.97
349.89
351.00
354.46
362.42
373.71
384.90
392.63
394.93
391.31
382.16
374.85
376.89
392.81
422.32
461.95
508.23
559.64
616.22
637.78
595.90
483.76
322.58
147.66
-12.20
-143.70
-245.80
-323.54
-383.53
-425.42
-447.61
-450.79
-439.94
-422.59
-405.53
-392.83
-386.24
-382.73
-378.59
-370.00
-355.60
-337.85
-321.48
-310.68
-307.41
-311.64
-322.22
-334.26
-342.81
-344.94
-340.67
-331.84
-320.08
-305.67
-287.13
-267.34
-245.86
-222.01
-196.10
-169.82
-145.43
-124.59
-107.69
-94.00
-82.35
-70.58
-57.01
-40.91
-22.59
-2.80
17.90
39.48
62.30
86.61
112.61
139.71
166.74
192.34
215.49
235.88
253.84
270.22
286.14
303.13
322.33
344.14
367.49
389.43
405.45
410.58
401.42
377.66
342.79
302.70
263.68
230.20
203.79
183.42
166.79
151.94
138.11
125.72
115.49
107.59
101.25
94.92
87.03
76.55
63.53
48.91
34.06
19.98
6.90
-5.70
-18.56
-32.06
-45.74
-58.51
-69.19
-77.09
-82.17
-84.70
-84.67
-81.63
-74.91
-64.39
-50.98
-36.64
-23.68
-13.83
-7.64
-4.56
-3.63
-4.22
-6.29
-10.15
-15.89
-23.07
-30.81
-38.22
-44.93
-51.15
-57.41
-64.13
-71.29
-78.27
-84.18
-88.21
-89.96
-89.67
-88.13
-86.33
-85.18
-85.10
-85.97
-87.21
-88.14
-88.25
-87.42
-85.88
-84.00
-81.98
-79.78
-77.18
-73.92
-69.92
-65.39
-60.75
-56.53
-53.08
-50.55
-48.84
-47.67
-46.66
-45.40
-43.56
-41.05
-38.05
-35.02
-32.58
-31.27
-31.26
-32.16
-33.01
-32.58
-29.70
-23.69
-14.55
-3.11
9.22
20.76
29.94
35.68
37.63
36.18
32.31
27.26
22.17
17.86
14.73
12.77
11.70
11.08
10.52
9.64
8.27
6.48
4.67
3.47
3.53
5.33
8.92
13.88
19.32
24.17
27.39
28.28
26.60
22.56
16.73
9.91
3.07
-2.75
-6.61
-7.90
-6.57
-3.10
1.69
7.08
12.79
19.01
26.10
34.15
42.66
50.54
56.58
59.94
60.49
58.75
55.55
51.53
46.95
41.99
37.00
32.93
31.16
33.04
39.25
49.30
61.59
73.90
84.22
91.24
94.66
94.81
92.31
87.69
81.35
73.69
65.25
56.60
47.96
38.81
27.77
12.85
-7.74
-34.86
-67.90
-104.92
-143.04
-179.25
-210.89
-235.96
-253.26
-262.25
-263.13
-256.76
-244.67
-228.85
-211.49
-194.68
-179.97
-167.99
-158.19
-149.00
-138.53
-125.57
-110.36
-94.57
-80.34
-68.98
-60.08
-51.67
-41.39
-27.97
-12.03
4.30
18.51
29.10
36.19
41.01
45.16
49.64
54.57
59.56
64.16
68.23
71.94
75.64
79.38
82.92
85.70
87.06
86.47
83.69
78.89
72.45
64.85
56.43
47.23
37.05
25.58
12.71
-1.21
-15.30
-28.23
-38.63
-45.58
-48.90
-49.39
-48.52
-48.01
-49.26
-52.94
-58.77
-65.83
-72.91
-79.01
-83.65
-86.81
-88.69
-89.45
-89.10
-87.61
-85.12
-82.01
-78.60
-74.75
-69.68
-62.18
-51.42
-37.67
-22.43
-7.91
4.04
12.65
18.42
22.48
25.67
27.85
28.09
25.33
19.36
11.15
2.58
-4.24
-7.80
-7.44
-3.36
3.85
13.44
24.74
37.09
49.81
62.18
73.48
83.06
90.32
94.80
96.20
94.49
90.08
83.84
76.86
70.10
64.02
58.47
52.95
46.96
40.48
34.13
28.82
25.30
23.74
23.55
23.76
23.47
22.32
20.63
19.15
18.47
18.80
19.92
21.25
22.16
22.38
21.85
20.86
19.92
19.13
18.38
17.48
16.17
14.12
11.32
7.64
3.32
-0.92
-4.67
-7.33
-8.20
-6.94
-4.11
-0.80
0.82
-1.25
-7.95
-19.45
-34.31
-49.54
-61.73
-68.64
-69.62
-67.11
-65.21
-62.91
-59.98
-56.51
-51.85
-44.24
-35.68
-24.66
-11.94
-0.48
5.69
3.86
-8.04
-28.84
-53.55
-74.23
-81.48
-68.61
-33.80
18.62
78.40
132.67
170.23
184.63
175.22
146.97
107.50
65.27
27.64
-0.45
-16.72
-21.01
-14.95
-1.59
15.53
32.38
45.55
52.92
53.82
48.95
40.05
29.05
17.31
5.43
-6.71
-19.08
-30.86
-40.30
-45.28
-44.21
-36.98
-25.35
-12.35
-1.06
6.59
10.53
12.16
13.25
14.86
16.84
18.15
17.78
15.49
11.98
8.35
5.34
2.68
-0.66
-5.70
-12.54
-19.99
-25.96
-28.48
-26.85
-22.05
-16.36
-12.27
-11.20
-13.06
-16.42
-19.54
-21.33
-21.87
-22.12
-23.21
-25.65
-28.94
-31.94
-33.49
-33.04
-30.83
-27.62
-24.19
-20.96
-18.02
-15.30
-12.86
-10.78
-8.98
-6.87
-3.46
2.29
10.94
22.12
34.57
46.40
55.69
61.02
61.78
58.28
51.55
43.03
34.12
25.87
18.70
12.48
6.70
0.76
-5.70
-12.63
-19.66
-26.36
-32.32
-37.29
-41.26
-44.44
-47.26
-50.05
-52.87
-55.34
-56.71
-56.10
-52.81
-46.64
-37.91
-27.39
-16.07
-4.90
5.29
13.87
20.41
24.74
26.91
27.35
26.72
25.83
25.31
25.54
26.43
27.54
28.21
27.88
26.37
23.94
21.11
18.44
16.24
14.51
12.89
10.91
8.05
4.13
-0.67
-5.76
-10.27
-13.28
-14.18
-12.78
-9.33
-4.44
1.24
7.16
13.01
18.59
23.81
28.60
33.00
37.24
41.57
46.10
50.58
54.27
56.22
55.61
52.15
46.36
39.35
32.45
26.68
22.36
18.91
15.12
9.32
-0.12
-14.34
-33.69
-57.28
-82.90
-107.27
-126.80
-138.35
-140.21
-132.63
-117.76
-98.96
-79.70
-62.54
-48.56
-37.34
-27.57
-17.78
-6.87
5.61
19.44
34.04
48.53
61.95
73.35
81.90
86.98
88.44
86.65
82.37
76.62
70.21
63.60
56.85
49.70
41.88
33.35
24.43
15.74
8.06
1.95
-2.35
-5.01
-6.48
-7.27
-7.81
-8.30
-8.70
-8.90
-8.88
-8.81
-9.11
-10.24
-12.50
-15.83
-19.74
-23.37
-25.80
-26.30
-24.63
-21.09
-16.44
-11.62
-7.62
-5.29
-5.19
-7.59
-12.48
-19.43
-27.74
-36.54
-45.13
-53.27
-61.35
-70.01
-79.59
-89.41
-97.49
-100.94
-97.13
-84.78
-64.71
-39.55
-12.68
13.02
35.90
55.40
71.32
83.18
90.16
91.69
88.07
80.80
72.22
64.63
59.59
57.56
58.02
59.91
61.92
62.83
61.84
58.75
54.00
48.42
42.80
37.40
31.97
26.01
19.36
12.61
6.90
3.42
2.86
5.12
9.51
15.21
21.64
28.60
36.11
44.18
52.71
61.61
70.81
80.24
89.72
98.70
106.23
110.88
110.96
104.91
91.71
71.31
44.94
14.94
-15.56
-43.43
-66.34
-83.31
-94.83
-102.34
-107.40
-110.94
-112.81
-112.08
-107.67
-99.15
-87.26
-73.73
-60.77
-50.36
-43.68
-40.97
-41.80
-45.41
-50.94
-57.43
-63.66
-68.21
-69.75
-67.53
-61.72
-53.48
-44.60
-36.81
-31.24
-28.11
-26.93
-26.88
-27.19
-27.23
-26.50
-24.42
-20.46
-14.29
-6.05
3.60
13.76
23.67
32.95
41.63
49.81
57.32
63.50
67.37
68.08
65.35
59.69
52.16
44.01
36.31
29.87
25.13
22.26
20.92
20.25
18.91
15.51
9.28
0.55
-9.16
-17.69
-23.05
-24.33
-21.99
-17.61
-13.13
-10.18
-9.54
-11.20
-14.66
-19.22
-24.28
-29.33
-33.94
-37.67
-40.05
-40.70
-39.50
-36.75
-33.16
-29.60
-26.58
-23.86
-20.33
-14.40
-4.92
7.99
22.57
36.07
45.72
50.03
49.32
45.45
40.92
37.89
37.59
40.25
45.46
52.57
60.71
68.57
74.05
74.63
68.04
53.38
31.99
7.41
-15.81
-33.65
-43.99
-47.01
-44.66
-39.63
-34.27
-30.09
-27.69
-27.20
-28.42
-30.92
-33.91
-36.37
-37.54
-37.06
-35.08
-31.98
-28.40
-24.99
-22.42
-21.22
-21.72
-24.13
-28.34
-33.80
-39.23
-43.55
-45.70
-44.59
-38.61
-25.84
-5.25
22.98
57.13
94.95
132.88
167.28
195.27
215.87
229.75
237.32
238.53
232.66
219.75
199.54
172.64
140.22
104.72
68.58
31.90
-6.70
-49.49
-97.30
-149.55
-203.26
-254.99
-300.96
-332.55
-341.97
-326.84
-305.76
-291.39
-288.80
-291.82
-294.69
-290.67
-273.61
-240.88
-192.47
-132.26
-67.54
-5.65
49.79
97.44
139.41
179.20
207.02
213.46
210.52
200.63
173.94
128.07
66.52
-0.93
-61.45
-103.91
-120.78
-110.97
-80.91
-38.44
11.30
64.83
120.48
176.94
231.50
281.30
322.80
351.07
363.95
363.54
353.78
339.48
324.71
311.25
299.18
286.65
269.92
246.86
218.21
185.90
152.00
117.69
82.89
47.27
10.81
-26.21
-62.06
-93.78
-118.78
-135.78
-145.20
-148.91
-149.33
-148.65
-148.47
-149.14
-149.92
-149.74
-147.72
-143.61
-137.78
-130.97
-123.95
-117.23
-110.92
-104.70
-98.01
-90.25
-81.03
-70.23
-58.10
-45.07
-31.62
-17.99
-4.20
10.01
25.00
41.15
58.66
77.41
96.88
116.20
134.30
150.20
163.33
173.74
182.08
189.42
196.85
205.08
214.03
222.69
229.16
231.09
226.41
214.27
195.65
173.40
151.44
133.51
121.85
116.47
115.31
115.09
112.46
104.94
91.33
71.63
46.71
17.90
-13.25
-45.08
-75.99
-104.48
-129.43
-150.12
-166.41
-178.69
-187.83
-194.93
-201.18
-207.61
-215.00
-223.62
-233.06
-242.13
-249.13
-252.27
-250.30
-242.96
-231.14
-216.57
-201.29
-187.09
-175.13
-165.88
-159.16
-154.43
-151.00
-148.19
-145.43
-142.29
-138.49
-133.89
-128.65
-123.12
-117.88
-113.40
-109.83
-106.84
-103.71
-99.71
-94.42
-87.80
-80.02
-71.21
-61.33
-50.48
-39.25
-28.80
-20.47
-15.13
-12.64
-11.91
-11.51
-10.58
-9.11
-7.73
-6.95
-6.56
-5.59
-3.03
1.46
7.08
12.26
15.45
15.90
13.93
10.50
6.59
2.68
-1.34
-5.79
-10.81
-16.17
-21.41
-26.21
-30.60
-34.99
-39.79
-45.14
-50.65
-55.60
-59.32
-61.62
-63.03
-64.56
-67.23
-71.57
-77.38
-83.87
-90.11
-95.61
-100.50
-105.31
-110.64
-116.60
-122.70
-127.89
-130.84
-130.21
-124.77
-113.54
-95.91
-71.98
-42.86
-10.81
21.15
49.85
72.87
89.23
99.56
105.76
110.13
114.49
119.51
124.85
129.56
132.90
135.01
136.97
140.41
146.78
156.68
169.43
182.96
194.28
200.15
198.13
187.64
170.45
150.28
131.62
118.01
110.86
109.18
110.37
111.53
110.67
107.09
100.98
92.61
81.76
67.52
48.97
25.85
-0.83
-28.93
-55.88
-79.67
-99.66
-116.64
-132.02
-146.66
-159.95
-169.71
-173.22
-168.56
-155.67
-136.51
-114.29
-92.15
-72.22
-55.11
-40.30
-26.81
-13.93
-1.59
9.68
19.12
26.18
30.90
33.98
36.60
40.16
45.55
52.59
59.61
63.53
60.93
49.60
30.04
5.57
-18.74
-37.90
-48.49
-48.93
-38.89
-18.53
11.48
49.13
90.45
130.15
163.72
189.75
210.66
230.75
252.75
275.08
292.12
297.56
288.41
266.91
239.15
211.04
184.70
157.81
126.12
87.30
43.56
0.98
-33.88
-57.94
-73.31
-85.85
-101.25
-121.47
-143.37
-160.43
-166.48
-159.04
-140.63
-117.42
-96.18
-81.21
-73.10
-69.41
-66.89
-63.70
-60.07
-57.57
-57.74
-60.93
-66.04
-71.19
-74.74
-76.00
-75.53
-74.51
-73.79
-73.39
-72.22
-68.66
-61.04
-48.58
-31.87
-13.79
1.75
11.13
12.26
5.39
-6.81
-19.77
-28.74
-30.29
-25.14
-16.41
-7.82
-2.18
-0.87
-4.24
-11.57
-22.39
-36.05
-55.04
-80.71
-111.59
-143.37
-171.25
-192.32
-204.97
-210.00
-208.27
-206.12
-208.42
-216.12
-226.22
-234.21
-236.65
-230.43
-215.62
-193.93
-177.38
-177.72
-201.02
-246.14
-306.91
-376.00
-444.80
-507.61
-519.82
-456.18
-321.87
-152.80
8.78
137.49
217.15
266.87
306.29
351.11
400.96
452.07
501.95
547.97
587.31
615.76
620.28
590.25
547.13
498.78
442.07
381.49
323.43
271.58
224.19
177.77
130.31
85.92
47.53
21.62
15.20
29.28
57.37
87.87
110.67
121.00
120.99
112.34
98.03
81.36
63.74
45.74
28.11
12.70
1.00
-7.28
-17.43
-34.99
-61.91
-95.54
-128.48
-151.43
-157.36
-144.73
-118.32
-88.25
-64.89
-55.20
-61.35
-80.77
-107.92
-136.98
-163.50
-185.55
-203.83
-220.18
-236.30
-253.10
-270.01
-284.75
-293.68
-292.19
-275.65
-240.72
-186.54
-115.65
-34.04
49.85
126.98
189.73
233.64
257.93
264.94
258.77
243.81
223.71
200.97
177.20
153.49
130.92
110.70
94.04
81.81
74.19
70.41
68.77
66.92
62.31
52.82
37.06
14.81
-12.93
-43.97
-75.23
-103.17
-124.52
-136.97
-139.64
-133.22
-119.64
-101.35
-80.73
-59.55
-38.89
-19.28
-1.13
15.14
28.93
39.75
47.41
52.22
54.97
56.57
57.79
58.83
59.34
58.57
55.69
50.06
41.49
30.20
16.87
2.60
-11.14
-22.72
-30.75
-34.62
-34.77
-32.61
-29.96
-28.27
-28.00
-28.61
-28.91
-27.97
-25.57
-22.37
-19.47
-17.71
-17.23
-17.32
-16.88
-14.88
-10.83
-4.79
2.93
12.01
22.24
33.25
44.20
53.53
59.26
59.53
53.37
41.27
25.19
7.97
-7.56
-19.38
-26.62
-29.34
-28.07
-23.40
-15.89
-6.26
4.51
15.17
24.69
32.50
38.81
44.18
49.13
53.48
56.29
56.13
51.78
42.85
30.11
15.45
1.43
-9.44
-15.27
-15.42
-10.60
-2.63
6.20
13.72
18.36
19.23
15.95
8.54
-2.69
-16.98
-33.08
-49.39
-64.25
-76.40
-85.11
-90.19
-91.61
-89.43
-83.73
-74.72
-62.65
-47.66
-29.48
-7.36
19.59
51.69
87.85
125.32
160.01
187.54
204.60
209.81
203.89
189.18
168.78
145.75
122.56
100.89
81.63
64.92
50.32
36.99
24.05
10.97
-2.35
-15.63
-28.64
-41.63
-55.52
-71.48
-90.18
-111.12
-132.38
-151.21
-165.06
-172.75
-174.93
-173.65
-171.21
-168.80
-166.06
-161.36
-153.20
-141.43
-127.90
-115.97
-109.16
-109.59
-116.99
-128.74
-140.74
-148.71
-149.15
-140.11
-121.34
-94.28
-61.82
-27.62
5.07
34.53
61.30
87.62
115.69
145.50
173.56
193.63
199.35
187.70
161.38
128.33
98.84
81.38
79.32
90.26
107.72
124.20
133.91
133.92
123.43
102.43
70.62
27.56
-26.05
-87.22
-150.34
-208.26
-254.31
-284.29
-297.26
-294.86
-279.84
-254.77
-221.84
-183.74
-144.35
-108.69
-81.24
-63.85
-54.57
-48.43
-39.73
-24.84
-3.87
19.91
41.92
58.43
67.75
69.95
66.07
57.46
45.96
34.23
25.60
23.21
28.72
41.46
58.37
75.15
87.96
94.98
97.04
97.30
99.91
108.41
124.36
146.55
171.22
193.15
207.33
210.43
201.55
181.96
154.00
120.01
81.66
40.14
-3.10
-45.77
-84.81
-117.04
-140.13
-153.55
-158.61
-157.93
-154.50
-150.84
-148.56
-148.20
-149.43
-151.22
-151.92
-149.41
-141.52
-126.80
-105.24
-78.74
-50.61
-24.51
-3.07
12.98
24.71
33.91
41.85
48.66
53.58
55.94
56.12
55.48
55.51
56.80
58.56
59.28
58.08
55.55
53.58
54.21
58.51
66.22
76.36
88.02
100.51
112.75
122.53
126.76
122.72
109.98
91.52
72.98
60.34
57.09
62.55
72.33
80.64
82.90
77.44
65.43
49.46
31.83
13.57
-5.50
-25.95
-47.72
-69.69
-90.02
-107.07
-120.21
-130.02
-137.71
-144.23
-149.67
-153.24
-153.60
-149.62
-140.69
-126.86
-108.84
-88.00
-66.20
-45.51
-27.58
-13.04
-1.34
8.90
18.94
29.21
39.10
47.59
54.15
59.35
64.62
71.34
79.91
89.49
98.46
105.38
109.80
112.39
114.46
117.32
121.58
126.93
131.95
134.24
130.98
119.77
99.75
72.48
41.88
13.25
-8.76
-21.87
-26.97
-27.49
-27.72
-31.04
-38.86
-50.63
-64.58
-78.50
-90.29
-98.07
-100.37
-96.44
-86.67
-72.93
-58.27
-46.25
-39.89
-40.85
-48.96
-62.37
-78.13
-92.73
-102.81
-105.72
-100.03
-85.82
-64.70
-39.41
-13.11
11.49
32.70
50.00
63.71
74.37
82.30
87.35
89.20
87.77
83.54
77.56
71.10
65.23
60.51
57.10
55.04
54.48
55.76
59.18
64.55
71.10
77.66
83.23
87.51
91.01
94.60
98.87
103.44
106.90
107.30
102.93
92.93
77.50
57.60
34.37
8.99
-17.29
-43.06
-66.70
-86.61
-101.47
-110.73
-114.70
-114.45
-111.27
-106.00
-98.96
-90.13
-79.49
-67.34
-54.43
-41.81
-30.67
-22.03
-16.17
-13.27
-13.90
-19.23
-30.48
-47.70
-68.79
-89.22
-102.95
-103.18
-86.10
-52.71
-8.60
38.78
83.21
121.27
151.83
174.43
190.22
198.67
197.70
185.45
162.86
134.83
108.30
89.10
79.90
83.60
99.77
124.67
152.43
177.84
198.33
213.46
223.52
228.87
234.93
246.48
265.35
289.90
317.30
345.62
373.38
398.12
385.08
313.06
186.02
33.61
-109.54
-221.85
-297.39
-340.23
-359.46
-364.98
-359.83
-345.18
-323.15
-298.28
-275.51
-257.92
-245.98
-238.84
-234.83
-228.16
-214.19
-192.02
-165.40
-140.15
-121.00
-108.90
-101.24
-92.77
-75.16
-42.92
2.85
53.89
98.54
124.45
128.38
113.57
87.60
59.81
36.69
20.22
8.94
0.60
-6.29
-11.85
-17.43
-25.92
-40.05
-61.09
-87.56
-114.77
-136.13
-146.12
-141.18
-122.03
-92.72
-58.65
-24.94
4.32
26.45
40.14
44.62
40.90
30.21
14.72
-2.07
-15.74
-22.19
-18.78
-1.93
25.22
56.97
85.92
107.27
121.18
129.72
133.13
129.70
117.46
95.44
66.86
35.13
4.59
-20.54
-38.47
-48.34
-53.18
-58.08
-68.39
-85.99
-112.70
-147.12
-184.09
-205.76
-197.64
-157.33
-95.86
-39.56
7.90
47.63
81.10
110.38
132.89
143.02
135.20
107.08
62.85
14.08
-29.10
-60.28
-77.88
-84.48
-85.33
-85.66
-88.24
-92.48
-94.31
-92.17
-85.97
-76.57
-65.98
-56.99
-52.17
-52.62
-57.79
-65.01
-72.91
-79.52
-81.69
-76.29
-61.91
-40.21
-15.80
3.76
15.63
17.88
11.48
0.26
-11.00
-18.50
-20.58
-17.45
-10.28
0.00
11.99
24.55
36.53
46.65
53.76
56.97
56.11
52.01
46.39
40.85
36.72
34.64
34.18
34.27
33.52
30.82
26.16
20.17
13.83
8.58
5.84
6.47
10.32
16.21
22.34
27.10
29.79
30.79
31.30
32.47
34.67
37.29
39.07
39.01
37.04
34.26
32.48
33.31
37.28
43.52
50.31
55.94
59.58
61.70
63.67
66.98
72.28
78.78
84.92
89.42
92.12
94.02
96.72
101.59
109.37
120.22
133.36
148.15
164.13
180.59
195.64
206.03
207.95
198.76
178.00
146.10
105.04
57.74
7.53
-42.58
-90.07
-132.79
-168.65
-195.90
-216.21
-232.49
-247.41
-261.80
-274.64
-283.84
-287.11
-282.84
-270.66
-255.17
-242.44
-237.64
-243.41
-260.38
-288.76
-328.67
-379.23
-416.77
-420.14
-378.98
-300.28
-202.32
-104.22
-20.26
41.95
81.61
103.35
111.44
109.35
99.50
84.16
65.85
47.28
31.31
20.66
16.37
17.36
20.88
24.25
26.46
28.14
30.57
35.02
42.50
53.55
67.20
81.48
94.52
105.44
114.37
122.21
130.45
141.24
152.68
163.10
170.34
172.56
169.58
163.00
155.30
147.94
140.00
127.75
106.60
73.03
27.04
-27.39
-84.33
-138.72
-187.77
-230.23
-264.26
-285.30
-287.48
-266.47
-222.55
-162.01
-95.26
-32.75
19.18
60.02
94.65
130.20
172.84
225.39
286.31
349.81
407.42
450.30
471.91
470.37
448.68
413.22
371.66
330.71
294.89
266.30
244.63
227.12
208.87
183.74
146.38
94.88
32.57
-32.62
-90.95
-135.01
-162.47
-176.24
-182.19
-186.00
-190.85
-197.24
-204.02
-210.05
-214.99
-219.06
-222.23
-223.82
-222.64
-217.91
-209.74
-199.10
-187.04
-174.09
-159.99
-144.16
-126.74
-109.24
-94.46
-85.71
-85.48
-94.24
-109.82
-127.68
-141.88
-146.59
-137.75
-114.42
-79.53
-39.38
-2.23
24.06
34.47
28.47
10.18
-12.97
-32.52
-41.48
-36.14
-16.73
12.97
46.73
77.52
99.08
107.56
102.64
87.56
68.10
50.52
39.40
36.27
39.47
45.24
49.53
49.29
43.14
31.23
14.92
-3.57
-21.29
-34.84
-41.09
-38.15
-26.26
-8.02
12.30
30.06
41.55
44.88
40.12
28.91
13.90
-1.79
-15.02
-23.05
-24.10
-17.92
-6.10
8.18
20.94
28.52
28.76
21.55
8.94
-5.55
-17.83
-24.32
-22.89
-13.36
2.47
21.27
38.99
51.80
56.81
52.81
40.40
21.97
1.22
-17.57
-30.42
-34.72
-29.96
-18.05
-2.95
10.41
17.49
15.66
5.04
-11.38
-28.55
-40.94
-44.27
-36.92
-20.54
0.50
20.55
34.35
38.73
33.32
20.40
3.93
-11.70
-22.79
-27.15
-24.41
-16.05
-4.97
5.21
11.10
10.72
4.32
-5.45
-14.49
-18.80
-16.07
-6.47
7.58
22.52
34.88
42.18
43.21
37.91
27.33
13.61
-0.05
-9.90
-12.72
-7.05
5.90
22.38
37.27
45.83
45.38
36.05
20.44
2.68
-12.98
-23.18
-26.03
-21.23
-10.10
4.71
19.64
30.82
35.06
30.70
18.24
0.28
-19.13
-35.67
-45.88
-48.05
-42.52
-31.46
-18.24
-6.49
0.67
1.45
-4.31
-15.17
-28.21
-39.50
-44.77
-40.57
-25.57
-1.28
27.94
56.04
77.07
87.11
85.18
73.22
55.01
35.00
17.44
5.85
2.65
8.68
22.66
41.09
58.68
69.94
70.95
60.97
42.77
21.65
3.54
-6.73
-6.50
4.38
23.88
48.37
73.46
94.79
108.93
114.17
111.15
102.54
91.84
81.78
73.00
64.00
52.27
36.05
15.57
-6.83
-27.87
-44.70
-55.96
-61.88
-63.67
-62.61
-59.57
-55.04
-49.59
-44.28
-40.58
-39.69
-41.98
-46.67
-51.90
-55.32
-55.01
-50.33
-42.26
-33.15
-25.72
-22.06
-22.73
-26.54
-31.16
-34.25
-34.55
-32.36
-29.20
-26.89
-26.48
-27.76
-29.42
-29.77
-27.72
-23.20
-17.09
-10.76
-5.41
-1.84
-0.32
-0.76
-2.84
-6.06
-9.72
-13.02
-15.31
-16.32
-16.24
-15.63
-15.00
-14.37
-13.18
-10.54
-5.76
1.07
8.92
16.09
20.91
22.30
20.15
15.14
8.35
0.81
-6.57
-12.93
-17.30
-18.73
-16.64
-11.31
-4.09
2.86
7.26
7.51
3.27
-4.39
-13.29
-20.75
-24.42
-22.98
-16.60
-6.86
3.73
12.61
17.89
18.74
15.28
8.29
-1.18
-11.82
-21.87
-29.17
-31.54
-27.59
-17.47
-3.32
11.35
22.74
28.00
26.23
18.56
7.71
-3.02
-10.83
-14.05
-12.57
-7.65
-1.45
3.63
5.68
3.86
-1.41
-8.48
-15.10
-19.10
-19.14
-15.16
-8.45
-1.14
4.56
7.18
6.42
3.30
-0.37
-2.56
-1.86
1.97
7.86
13.87
17.98
19.02
17.22
14.05
11.55
11.39
14.12
19.05
24.67
29.46
32.46
33.54
33.11
31.67
29.41
26.07
21.13
14.27
5.82
-3.07
-10.65
-15.28
-16.04
-13.13
-7.86
-2.03
2.70
5.15
4.89
2.10
-2.51
-7.83
-12.49
-15.14
-14.92
-11.79
-6.78
-1.56
2.23
3.63
2.71
0.38
-2.10
-3.77
-4.32
-4.31
-4.68
-6.31
-9.59
-14.01
-18.33
-20.94
-20.65
-17.27
-11.89
-6.47
-3.03
-2.81
-5.70
-10.48
-15.38
-18.93
-20.42
-20.05
-18.54
-16.76
-15.31
-14.41
-13.98
-13.88
-14.00
-14.38
-15.12
-16.23
-17.59
-18.77
-19.06
-17.78
-14.51
-9.43
-3.35
2.53
7.03
9.43
9.75
8.65
7.02
5.61
4.80
4.57
4.81
5.48
6.72
8.72
11.44
14.47
17.16
18.82
19.02
17.65
14.88
11.01
6.46
1.79
-2.24
-4.70
-4.81
-2.30
2.35
7.94
12.93
15.91
15.97
12.94
7.33
0.19
-7.21
-13.57
-17.92
-19.80
-19.32
-16.98
-13.49
-9.43
-5.15
-0.77
3.74
8.39
13.14
17.86
22.33
26.13
28.72
29.53
28.16
24.63
19.45
13.54
8.03
4.07
2.44
3.42
6.64
11.27
16.37
21.49
27.24
34.96
46.11
61.24
79.55
99.33
118.97
137.92
156.78
176.51
197.21
217.54
235.16
247.73
253.84
253.19
245.94
232.24
212.35
187.26
159.34
131.97
108.38
90.13
76.45
64.93
52.92
38.92
22.84
5.46
-12.57
-31.20
-50.51
-69.98
-87.96
-102.00
-109.93
-110.85
-105.74
-97.13
-88.22
-81.72
-79.16
-80.63
-85.22
-91.59
-98.63
-105.73
-112.84
-120.19
-127.99
-136.20
-144.36
-151.73
-157.38
-160.45
-160.16
-155.97
-147.67
-135.69
-121.21
-106.24
-93.06
-83.35
-77.36
-73.45
-68.77
-60.43
-46.96
-28.92
-8.65
10.84
27.02
38.47
44.89
46.75
45.00
41.00
36.64
34.16
35.45
41.28
50.71
61.34
70.36
75.83
77.45
76.56
75.34
75.54
77.81
81.52
85.40
88.47
90.64
92.51
94.73
97.04
97.80
94.57
85.14
68.60
45.76
18.91
-9.14
-35.85
-59.55
-79.71
-96.73
-111.87
-127.03
-144.57
-166.91
-195.97
-232.23
-273.86
-316.43
-353.32
-377.25
-382.42
-366.46
-331.28
-282.56
-227.56
-172.54
-120.65
-71.67
-23.63
24.73
72.06
114.20
145.90
163.46
166.58
158.38
143.66
126.51
108.93
91.10
73.09
56.34
43.75
38.17
40.19
46.88
52.40
50.32
36.43
10.57
-23.58
-60.10
-93.19
-119.00
-136.01
-144.51
-145.45
-139.69
-127.67
-109.92
-87.53
-62.25
-35.87
-9.33
17.99
48.12
83.55
126.07
176.19
233.19
295.68
361.54
427.46
488.17
536.44
564.51
566.60
541.23
492.19
427.31
355.70
284.93
219.54
161.11
109.67
64.94
26.68
-5.65
-33.62
-60.21
-89.16
-123.70
-165.07
-211.46
-257.79
-296.96
-321.90
-327.86
-314.25
-284.94
-247.02
-208.28
-174.59
-148.39
-128.99
-114.14
-101.93
-91.90
-84.74
-81.19
-80.82
-81.84
-81.85
-79.06
-73.26
-65.93
-59.30
-55.22
-54.48
-56.77
-61.33
-67.57
-75.49
-85.62
-98.67
-114.74
-132.67
-149.73
-162.12
-166.35
-160.71
-146.21
-126.04
-103.96
-82.51
-62.24
-42.50
-23.03
-5.15
8.48
15.40
14.97
9.00
0.81
-6.56
-11.64
-14.58
-16.13
-16.49
-14.93
-10.54
-3.27
5.41
13.03
17.42
18.02
16.20
14.81
16.89
24.32
37.20
53.82
71.30
86.42
96.26
98.80
93.17
80.03
61.54
41.14
22.84
10.09
4.80
6.61
12.68
18.15
17.29
5.20
-20.12
-56.26
-96.24
-130.23
-148.45
-144.41
-117.01
-70.51
-12.83
47.15
101.87
146.10
177.00
193.42
195.52
184.82
164.37
138.61
112.67
91.10
76.62
69.55
67.95
68.62
68.64
66.41
62.02
56.47
50.60
43.93
34.73
20.64
-0.02
-27.36
-59.79
-94.64
-129.11
-161.03
-189.15
-212.98
-232.29
-246.72
-255.62
-258.35
-254.73
-245.67
-233.26
-220.18
-208.59
-198.96
-189.60
-177.18
-158.18
-130.50
-94.37
-52.01
-6.54
39.23
83.28
124.06
159.79
188.13
206.75
214.14
210.46
197.59
178.39
155.81
132.21
109.31
88.52
71.40
59.50
53.94
54.73
60.45
68.51
76.03
80.67
81.36
78.28
72.44
65.08
57.21
49.59
42.83
37.48
33.96
32.27
31.86
31.72
30.68
27.84
22.85
15.93
7.84
-0.17
-6.51
-9.38
-7.19
0.76
13.69
29.25
43.93
54.17
57.58
53.76
44.39
32.63
22.03
15.61
15.05
20.50
30.58
42.80
54.11
61.62
63.47
59.29
50.34
39.01
27.94
19.16
13.46
10.37
8.71
7.20
5.02
1.86
-2.50
-8.59
-17.39
-29.78
-45.73
-63.73
-81.00
-94.51
-102.38
-104.73
-103.51
-101.20
-99.43
-98.03
-95.42
-89.79
-80.44
-68.57
-57.01
-49.18
-47.69
-53.31
-64.39
-77.18
-86.74
-88.34
-79.02
-58.65
-30.01
1.95
31.55
53.90
65.92
66.73
57.47
40.88
20.67
0.87
-14.85
-24.03
-25.88
-21.41
-13.00
-3.59
4.21
8.86
10.15
8.98
6.95
5.58
5.80
7.61
10.29
12.85
14.64
15.71
16.80
18.90
22.92
29.35
38.27
49.43
62.35
76.06
89.06
99.39
105.09
105.00
99.28
89.55
78.28
67.98
60.29
55.69
53.68
53.27
53.46
53.46
52.63
50.41
46.35
40.21
32.31
23.47
14.85
7.58
2.34
-0.77
-2.20
-2.67
-2.90
-3.42
-4.49
-6.16
-8.31
-10.71
-13.10
-15.22
-16.94
-18.19
-18.98
-19.32
-19.22
-18.62
-17.50
-15.80
-13.53
-10.73
-7.52
-4.12
-0.81
2.14
4.48
6.11
7.00
7.23
6.91
6.14
5.05
3.84
2.70
1.82
1.21
0.81
0.48
0.10
-0.39
-0.94
-1.51
-2.05
-2.57
-3.08
-3.62
-4.13
-4.60
-4.96
-5.20
-5.35
-5.47
-5.68
-6.07
-6.70
-7.47
-8.14
-8.22
-7.21
-4.76
-0.88
3.97
9.02
13.53
16.98
19.30
20.80
21.89
22.92
24.00
25.08
26.07
27.00
28.01
29.27
30.87
32.71
34.62
36.48
38.31
40.21
42.24
44.24
45.90
46.76
46.55
45.34
43.56
41.81
40.68
40.45
40.99
41.81
42.15
41.17
38.30
33.32
26.59
19.00
11.69
5.80
2.08
0.79
1.68
4.23
7.84
11.95
16.12
20.01
23.40
26.18
28.33
29.76
30.31
29.68
27.57
23.84
18.69
12.68
6.55
1.02
-3.53
-7.07
-9.86
-12.22
-14.35
-16.23
-17.69
-18.64
-19.09
-19.27
-19.48
-19.90
-20.59
-21.50
-22.62
-24.13
-26.28
-29.22
-32.79
-36.36
-39.00
-39.85
-38.41
-34.82
-29.69
-23.90
-18.16
-12.97
-8.57
-5.03
-2.50
-1.13
-0.93
-1.75
-3.17
-4.67
-5.88
-6.75
-7.55
-8.72
-10.60
-13.19
-16.25
-19.37
-22.16
-24.36
-25.86
-26.71
-27.09
-27.36
-28.00
-29.47
-31.96
-35.26
-38.68
-41.42
-42.91
-43.23
-43.11
-43.62
-45.69
-49.56
-54.70
-59.95
-64.10
-66.32
-66.56
-65.53
-64.31
-63.99
-65.00
-66.85
-68.07
-66.62
-60.54
-48.74
-31.66
-11.27
9.30
26.82
38.88
44.58
44.61
40.67
34.81
28.71
23.55
19.85
17.80
17.33
18.13
19.61
20.92
21.19
19.80
16.71
12.54
8.33
5.16
3.70
3.95
5.32
6.97
8.31
9.32
10.49
12.56
16.03
20.80
26.16
31.00
34.23
35.19
33.80
30.56
26.23
21.59
17.10
12.93
8.97
5.07
1.23
-2.31
-5.17
-7.02
-7.84
-7.99
-8.08
-8.69
-10.24
-12.90
-16.84
-22.26
-29.26
-37.45
-45.55
-51.40
-52.58
-47.43
-35.82
-19.36
-0.75
17.24
32.61
44.38
52.39
56.82
57.89
56.03
52.02
47.11
42.70
39.98
39.45
40.96
43.71
46.75
49.25
50.61
50.55
49.00
46.00
41.54
35.65
28.53
20.68
12.96
6.33
1.44
-1.69
-3.75
-5.73
-8.39
-11.85
-15.59
-18.84
-21.16
-22.77
-24.45
-27.20
-31.68
-37.80
-44.76
-51.33
-56.24
-58.75
-58.70
-56.65
-53.46
-49.86
-46.34
-42.99
-39.83
-37.01
-34.91
-33.82
-33.67
-33.70
-32.57
-28.95
-22.06
-12.13
-0.35
11.57
22.03
29.89
34.70
36.57
35.99
33.72
30.66
27.76
25.73
24.91
25.12
25.76
26.16
25.92
25.01
23.75
22.57
21.71
21.17
20.81
20.49
20.20
20.05
20.15
20.38
20.32
19.35
16.88
12.60
6.74
0.05
-6.40
-11.63
-15.05
-16.64
-16.83
-16.19
-15.06
-13.35
-10.53
-5.95
0.80
9.48
19.19
28.47
35.75
39.86
40.27
37.29
31.80
24.90
17.59
10.61
4.39
-0.94
-5.42
-9.33
-13.18
-17.55
-22.92
-29.37
-36.45
-43.28
-48.84
-52.32
-53.40
-52.34
-49.76
-46.46
-43.14
-40.31
-38.16
-36.57
-35.18
-33.56
-31.39
-28.60
-25.46
-22.47
-20.15
-18.87
-18.76
-19.75
-21.71
-24.48
-27.76
-31.10
-33.78
-34.98
-34.15
-31.22
-26.88
-22.28
-18.69
-17.01
-17.42
-19.34
-21.62
-22.98
-22.26
-18.69
-11.90
-1.92
10.79
25.38
40.61
54.98
66.96
75.25
79.03
78.04
72.55
63.21
50.93
36.77
21.91
7.58
