1608048804.00
64.000000
-0.00
-0.00
-0.00
-0.00
-0.00
-0.00
-0.00
-0.00
-0.00
-0.00
0.00
0.01
0.01
-0.00
-0.03
-0.05
-0.05
0.00
0.13
0.36
0.66
1.01
1.37
1.72
2.06
2.40
2.79
3.24
3.80
4.42
5.06
5.66
6.20
6.68
7.15
7.68
8.31
9.14
10.09
11.04
11.88
12.56
13.14
13.76
14.65
15.96
17.91
20.32
22.90
25.38
27.58
29.57
31.68
34.32
37.81
42.54
48.15
54.11
59.84
64.98
69.58
74.14
79.34
85.70
93.76
103.02
112.66
121.78
129.80
136.71
143.15
150.45
157.33
166.09
177.33
191.16
206.35
219.94
227.57
224.59
207.63
175.84
131.65
78.92
21.97
-36.00
-93.51
-150.37
-206.70
-262.18
-315.87
-366.22
-412.23
-453.22
-488.73
-518.04
-539.92
-552.63
-554.30
-543.62
-520.09
-484.79
-439.89
-388.30
-333.00
-276.57
-220.77
-166.65
-114.77
-65.53
-19.63
21.95
58.10
87.90
110.99
127.76
139.26
146.88
151.91
155.16
156.85
156.74
154.46
149.72
142.39
132.52
120.49
107.30
94.85
85.80
82.77
87.21
98.45
113.61
128.60
139.70
144.84
144.05
138.86
131.16
122.22
112.50
102.04
91.08
80.29
70.73
62.95
56.92
52.03
47.45
42.51
36.97
31.10
25.50
20.76
17.29
15.10
13.83
12.87
11.56
9.48
6.62
3.39
0.39
-1.82
-2.98
-3.24
-3.11
-3.13
-3.67
-4.72
-5.92
-6.82
-7.21
-7.17
-6.98
-6.84
-6.63
-5.99
-4.60
-2.52
-0.28
1.34
1.72
0.73
-1.16
-3.28
-5.03
-6.25
-7.10
-7.88
-8.64
-9.09
-8.75
-7.45
-5.65
-4.34
-4.57
-6.73
-10.18
-13.30
-14.23
-11.79
-6.09
1.52
9.03
14.61
17.25
16.95
14.41
10.63
6.47
2.54
-0.70
-2.98
-4.08
-3.91
-2.45
0.12
3.39
6.74
9.46
11.04
11.41
10.93
10.30
10.20
10.98
12.48
14.16
15.30
15.39
14.28
12.24
9.80
7.47
5.52
3.88
2.32
0.48
-1.72
-4.14
-6.44
-8.33
-9.67
-10.55
-11.17
-11.72
-12.23
-12.61
-12.70
-12.45
-11.88
-11.19
-10.55
-10.09
-9.76
-9.46
-9.00
-8.31
-7.46
-6.68
-6.18
-6.07
-6.20
-6.30
-6.05
-5.25
-3.98
-2.49
-1.07
0.13
1.14
2.09
3.01
3.70
3.82
3.01
1.19
-1.40
-4.22
-6.66
-8.28
-8.88
-8.55
-7.51
-6.10
-4.71
-3.73
-3.39
-3.65
-4.13
-4.25
-3.50
-1.78
0.51
2.61
3.83
3.83
2.78
1.19
-0.45
-1.92
-3.11
-4.05
-4.70
-4.88
-4.39
-3.13
-1.28
0.74
2.41
3.34
3.37
2.62
1.38
0.04
-1.11
-1.85
-2.13
-1.98
-1.57
-1.11
-0.79
-0.69
-0.79
-0.96
-1.09
-1.17
-1.26
-1.46
-1.79
-2.20
-2.57
-2.74
-2.68
-2.41
-2.02
-1.58
-1.14
-0.67
-0.18
0.36
0.92
1.46
1.97
2.43
2.83
3.22
3.60
3.98
4.34
4.65
4.86
4.98
5.03
5.01
4.94
4.77
4.44
3.92
3.23
2.46
1.72
1.11
0.67
0.37
0.14
-0.11
-0.42
-0.78
-1.11
-1.34
-1.45
-1.50
-1.63
-2.00
-2.65
-3.49
-4.29
-4.82
-4.94
-4.66
-4.12
-3.44
-2.68
-1.80
-0.74
0.48
1.75
2.85
3.58
3.83
3.64
3.17
2.59
2.05
1.59
1.21
0.91
0.70
0.65
0.84
1.31
2.01
2.80
3.50
3.93
4.03
3.84
3.41
2.85
2.16
1.33
0.35
-0.70
-1.68
-2.42
-2.84
-2.99
-3.06
-3.22
-3.56
-4.03
-4.46
-4.66
-4.48
-3.86
-2.82
-1.45
0.12
1.73
3.17
4.22
4.76
4.81
4.53
4.17
3.97
4.01
4.19
4.36
4.39
4.30
4.18
4.19
4.39
4.77
5.19
5.48
5.55
5.43
5.20
4.99
4.87
4.89
5.04
5.25
5.46
5.55
5.44
5.04
4.33
3.37
2.23
1.05
-0.08
-1.04
-1.76
-2.18
-2.27
-2.08
-1.79
-1.56
-1.52
-1.59
-1.49
-0.88
0.46
2.49
4.84
6.98
8.45
9.01
8.75
7.97
7.01
6.15
5.49
5.03
4.70
4.43
4.16
3.86
3.51
3.12
2.75
2.49
2.43
2.71
3.36
4.35
5.54
6.70
7.60
8.04
7.94
7.28
6.12
4.52
2.56
0.35
-2.01
-4.35
-6.48
-8.25
-9.60
-10.53
-11.11
-11.44
-11.62
-11.74
-11.77
-11.65
-11.26
-10.53
-9.52
-8.41
-7.44
-6.83
-6.64
-6.78
-7.06
-7.30
-7.46
-7.64
-8.07
-8.92
-10.26
-12.04
-14.15
-16.48
-18.99
-21.62
-24.27
-26.77
-28.90
-30.49
-31.50
-32.04
-32.39
-32.82
-33.53
-34.57
-35.90
-37.43
-39.12
-40.97
-43.03
-45.29
-47.69
-50.11
-52.39
-54.48
-56.36
-58.15
-60.02
-62.11
-64.47
-66.95
-69.17
-70.56
-70.53
-68.64
-64.75
-59.05
-52.03
-44.23
-36.11
-27.93
-19.75
-11.59
-3.50
4.35
11.71
18.35
24.14
29.09
33.35
37.13
40.61
43.86
46.69
48.77
49.73
49.40
47.96
45.98
44.18
43.16
43.22
44.33
46.37
49.32
53.35
58.66
65.18
72.49
79.85
86.60
92.40
97.24
101.11
103.58
103.68
100.24
92.59
81.07
67.20
53.10
40.67
30.98
24.04
19.18
15.64
13.00
11.18
10.21
9.87
9.67
8.96
7.31
4.67
1.42
-1.83
-4.52
-6.32
-7.24
-7.48
-7.31
-6.94
-6.43
-5.71
-4.67
-3.21
-1.31
0.89
3.15
5.13
6.52
7.14
7.03
6.44
5.72
5.10
4.48
3.45
1.37
-2.20
-7.22
-13.08
-18.73
-23.10
-25.55
-26.11
-25.31
-23.89
-22.41
-20.99
-19.45
-17.52
-15.13
-12.48
-9.90
-7.64
-5.72
-3.93
-2.03
0.13
2.46
4.71
6.61
8.02
8.97
9.57
9.90
9.99
9.76
9.16
8.16
6.85
5.32
3.67
1.97
0.28
-1.33
-2.77
-3.94
-4.80
-5.41
-5.89
-6.42
-7.08
-7.84
-8.53
-8.96
-9.01
-8.64
-8.00
-7.31
-6.84
-6.78
-7.20
-7.97
-8.86
-9.55
-9.84
-9.68
-9.20
-8.66
-8.26
-8.07
-8.05
-8.05
-7.96
-7.72
-7.34
-6.84
-6.30
-5.73
-5.24
-4.88
-4.67
-4.54
-4.32
-3.81
-2.92
-1.76
-0.56
0.40
0.97
1.25
1.48
1.93
2.70
3.68
4.59
5.15
5.22
4.87
4.35
3.94
3.88
4.27
5.12
6.32
7.73
9.08
10.08
10.44
9.96
8.69
6.89
4.99
3.34
2.05
0.92
-0.43
-2.34
-4.81
-7.45
-9.63
-10.77
-10.64
-9.47
-7.82
-6.32
-5.37
-5.07
-5.27
-5.70
-6.05
-6.12
-5.80
-5.07
-3.94
-2.48
-0.79
1.06
3.00
5.04
7.10
9.01
10.46
11.18
11.04
10.16
8.85
7.48
6.40
5.68
5.12
4.42
3.40
2.21
1.21
0.78
1.18
2.63
4.91
7.41
9.36
10.23
10.02
9.19
8.32
8.02
9.10
11.69
15.15
18.29
20.06
20.33
19.59
18.62
18.26
19.82
23.61
28.94
34.27
38.11
40.05
40.22
39.06
37.68
38.75
44.54
55.94
71.44
87.24
98.58
100.43
88.83
57.64
8.25
-49.97
-103.24
-140.71
-161.08
-166.11
-157.65
-138.67
-113.80
-85.69
-59.81
-41.00
-31.29
-29.07
-29.76
-29.11
-25.21
-18.59
-10.29
-2.01
5.01
9.77
11.68
11.00
8.23
3.90
-1.07
-4.96
-6.64
-5.72
-2.88
0.56
3.43
4.91
4.62
2.84
0.56
-1.38
-2.41
-2.49
-1.93
-1.00
0.06
1.03
1.80
2.41
2.83
3.04
3.03
2.83
2.53
2.24
1.98
1.75
1.51
1.23
0.94
0.68
0.48
0.34
0.22
0.05
-0.22
-0.59
-0.99
-1.30
-1.42
-1.34
-1.14
-0.98
-1.01
-1.27
-1.72
-2.25
-2.71
-3.05
-3.21
-3.23
-3.17
-3.04
-2.87
-2.62
-2.25
-1.72
-1.10
-0.52
-0.11
0.07
0.06
0.09
0.33
0.88
1.62
2.32
2.79
2.94
2.88
2.79
2.79
2.88
2.96
2.89
2.62
2.20
1.76
1.39
1.11
0.84
0.51
0.09
-0.35
-0.70
-0.82
-0.68
-0.35
0.00
0.20
0.13
-0.19
-0.67
-1.17
-1.63
-2.02
-2.36
-2.61
-2.75
-2.71
-2.49
-2.11
-1.64
-1.09
-0.47
0.23
0.97
1.63
2.05
2.13
1.93
1.62
1.42
1.43
1.64
1.89
2.06
2.11
2.14
2.25
2.50
2.81
2.99
2.86
2.36
1.57
0.71
0.04
-0.27
-0.17
0.19
0.54
0.64
0.33
-0.34
-1.16
-1.82
-2.11
-1.98
-1.59
-1.22
-1.13
-1.43
-2.03
-2.72
-3.24
-3.40
-3.13
-2.47
-1.59
-0.67
0.13
0.68
0.95
0.97
0.83
0.67
0.61
0.76
1.15
1.70
2.27
2.68
2.80
2.60
2.16
1.60
1.06
0.63
0.33
0.20
0.23
0.38
0.64
0.90
1.08
1.14
1.07
0.88
0.56
0.07
-0.56
-1.25
-1.84
-2.15
-2.10
-1.77
-1.36
-1.11
-1.12
-1.34
-1.62
-1.82
-1.88
-1.87
-1.87
-1.92
-2.01
-2.03
-1.94
-1.72
-1.38
-0.93
-0.40
0.19
0.83
1.46
2.04
2.54
2.95
3.25
3.43
3.42
3.18
2.74
2.23
1.81
1.64
1.73
1.98
2.20
2.21
1.96
1.52
1.05
0.70
0.50
0.36
0.13
-0.34
-0.98
-1.63
-2.03
-2.05
-1.74
-1.32
-1.04
-1.04
-1.33
-1.76
-2.18
-2.49
-2.70
-2.86
-3.00
-3.13
-3.20
-3.13
-2.90
-2.55
-2.13
-1.71
-1.35
-1.11
-0.98
-0.93
-0.88
-0.75
-0.47
-0.04
0.48
0.92
1.16
1.04
0.52
-0.33
-1.29
-2.12
-2.60
-2.64
-2.39
-2.15
-2.25
-2.84
-3.88
-5.13
-6.30
-7.18
-7.78
-8.24
-8.77
-9.58
-10.74
-12.25
-14.09
-16.21
-18.33
-19.85
-19.85
-17.49
-12.54
-5.70
1.45
7.06
9.88
9.76
7.69
5.19
3.52
3.08
3.47
3.97
4.11
3.96
3.95
4.44
5.41
6.47
7.03
6.76
5.63
4.03
2.52
1.57
1.43
2.00
2.98
3.96
4.58
4.71
4.41
3.92
3.46
3.16
2.95
2.69
2.24
1.64
1.06
0.71
0.72
1.02
1.39
1.56
1.38
0.84
0.09
-0.61
-1.13
-1.38
-1.44
-1.43
-1.46
-1.59
-1.75
-1.85
-1.75
-1.40
-0.86
-0.28
0.18
0.46
0.59
0.69
0.87
1.18
1.57
1.94
2.20
2.31
2.32
2.28
2.25
2.24
2.22
2.14
1.93
1.60
1.21
0.84
0.55
0.37
0.20
-0.08
-0.52
-1.04
-1.40
-1.36
-0.83
0.05
0.91
1.37
1.21
0.53
-0.39
-1.20
-1.72
-1.97
-2.11
-2.24
-2.34
-2.26
-1.84
-1.08
-0.13
0.73
1.25
1.37
1.23
1.10
1.23
1.66
2.26
2.78
2.96
2.70
2.07
1.28
0.57
0.09
-0.10
-0.05
0.13
0.35
0.53
0.62
0.57
0.37
-0.04
-0.61
-1.28
-1.93
-2.45
-2.72
-2.70
-2.39
-1.83
-1.15
-0.50
-0.07
0.05
-0.15
-0.58
-1.07
-1.43
-1.49
-1.25
-0.79
-0.29
0.12
0.41
0.64
1.00
1.64
2.57
3.70
4.70
5.27
5.29
4.88
4.33
3.99
4.15
4.88
5.99
7.02
7.53
7.43
6.82
5.98
5.38
5.54
6.79
9.17
11.98
14.30
15.51
15.14
13.28
10.72
8.73
8.59
10.93
15.04
19.41
22.73
23.74
21.99
18.19
14.14
12.35
15.30
23.78
36.76
51.52
62.90
64.83
52.27
23.16
-20.28
-67.92
-109.64
-140.66
-156.12
-155.14
-140.25
-116.12
-87.98
-60.32
-36.13
-17.43
-4.68
3.29
7.73
9.90
11.00
11.98
13.46
15.66
17.89
19.39
20.01
19.56
18.24
16.56
15.24
14.86
15.72
17.37
19.04
20.19
20.19
18.75
16.09
12.79
9.70
7.55
6.58
6.60
7.21
7.77
7.79
7.12
6.01
4.95
4.38
4.48
5.12
5.96
6.57
6.54
5.74
4.27
2.48
0.80
-0.36
-0.80
-0.56
0.11
0.82
1.29
1.38
1.17
0.84
0.58
0.49
0.52
0.60
0.61
0.56
0.43
0.28
0.11
-0.03
-0.16
-0.30
-0.43
-0.55
-0.64
-0.69
-0.72
-0.76
-0.84
-1.00
-1.17
-1.28
-1.26
-1.05
-0.67
-0.17
0.38
0.89
1.33
1.60
1.67
1.52
1.20
0.82
0.45
0.14
-0.11
-0.31
-0.43
-0.40
-0.18
0.20
0.59
0.82
0.76
0.43
-0.03
-0.42
-0.62
-0.63
-0.57
-0.60
-0.79
-1.13
-1.52
-1.81
-1.96
-1.95
-1.92
-2.03
-2.35
-2.88
-3.43
-3.81
-3.83
-3.48
-2.84
-2.10
-1.44
-0.91
-0.48
-0.02
0.52
1.15
1.76
2.25
2.57
2.73
2.85
3.00
3.20
3.34
3.26
2.83
2.06
1.12
0.29
-0.18
-0.22
0.06
0.46
0.78
0.96
1.04
1.10
1.19
1.26
1.21
0.97
0.55
0.01
-0.51
-0.99
-1.40
-1.81
-2.27
-2.79
-3.31
-3.72
-3.92
-3.85
-3.50
-2.96
-2.35
-1.75
-1.24
-0.79
-0.38
0.03
0.46
0.89
1.33
1.75
2.16
2.53
2.85
3.11
3.32
3.46
3.51
3.33
2.82
1.98
0.94
-0.01
-0.57
-0.57
-0.06
0.71
1.44
1.91
2.08
2.02
1.82
1.52
1.10
0.53
-0.16
-0.91
-1.56
-2.03
-2.26
-2.28
-2.18
-2.08
-2.11
-2.38
-2.89
-3.57
-4.25
-4.78
-5.02
-4.89
-4.41
-3.61
-2.59
-1.45
-0.36
0.51
1.05
1.24
1.19
1.06
0.99
1.06
1.29
1.63
2.02
2.38
2.63
2.73
2.75
2.80
3.00
3.38
3.80
4.05
3.93
3.41
2.62
1.83
1.28
1.08
1.21
1.54
2.00
2.50
2.97
3.28
3.25
2.73
1.73
0.39
-1.06
-2.37
-3.40
-4.11
-4.53
-4.73
-4.75
-4.64
-4.41
-4.09
-3.74
-3.39
-3.03
-2.65
-2.21
-1.71
-1.14
-0.55
-0.01
0.39
0.63
0.72
0.71
0.65
0.55
0.44
0.37
0.42
0.66
1.10
1.67
2.23
2.57
2.58
2.24
1.64
0.98
0.42
0.07
-0.07
-0.07
-0.05
-0.09
-0.24
-0.51
-0.83
-1.13
-1.40
-1.66
-1.99
-2.44
-2.99
-3.60
-4.17
-4.60
-4.83
-4.83
-4.55
-4.01
-3.25
-2.37
-1.47
-0.64
0.10
0.79
1.47
2.13
2.70
3.07
3.14
2.90
2.44
1.85
1.26
0.75
0.39
0.26
0.39
0.78
1.34
1.91
2.33
2.55
2.61
2.59
2.55
2.43
2.14
1.60
0.82
-0.03
-0.79
-1.30
-1.58
-1.72
-1.89
-2.19
-2.59
-2.96
-3.18
-3.15
-2.93
-2.65
-2.48
-2.52
-2.80
-3.22
-3.60
-3.79
-3.69
-3.33
-2.91
-2.72
-2.98
-3.74
-4.82
-5.88
-6.55
-6.68
-6.38
-6.08
-6.30
-7.36
-9.22
-11.51
-13.67
-15.24
-16.11
-16.51
-16.89
-17.59
-18.74
-20.24
-21.91
-23.66
-25.31
-26.23
-25.23
-20.84
-12.24
-0.06
13.36
24.73
31.16
31.49
26.77
19.62
12.82
8.10
5.66
4.63
4.00
3.30
2.69
2.54
2.95
3.55
3.75
3.06
1.44
-0.71
-2.72
-3.93
-4.08
-3.31
-2.13
-1.22
-1.10
-1.95
-3.57
-5.37
-6.79
-7.42
-7.28
-6.80
-6.58
-7.12
-8.59
-10.81
-13.36
-15.79
-17.90
-19.75
-21.60
-23.75
-26.41
-29.67
-33.46
-37.61
-41.86
-45.80
-48.92
-50.58
-50.22
-47.45
-42.27
-35.12
-26.75
-18.10
-10.04
-3.17
2.29
6.49
9.82
12.76
15.68
18.83
22.28
25.97
29.79
33.54
36.98
39.76
41.48
41.76
40.38
37.38
33.09
28.12
23.12
18.68
15.14
12.56
10.77
9.53
8.64
8.06
7.87
8.19
9.07
10.41
11.97
13.46
14.67
15.48
15.94
16.15
16.23
16.24
16.18
16.03
15.73
15.27
14.67
13.97
13.23
12.49
11.74
10.97
10.19
9.40
8.67
8.03
7.50
7.01
6.47
5.78
4.93
4.01
3.16
2.53
2.22
2.22
2.48
2.90
3.43
4.01
4.62
5.19
5.67
5.98
6.06
5.93
5.62
5.15
4.57
3.92
3.27
2.68
2.22
1.91
1.68
1.46
1.16
0.73
0.24
-0.23
-0.60
-0.89
-1.12
-1.35
-1.53
-1.55
-1.28
-0.64
0.26
1.21
1.92
2.20
2.02
1.51
0.89
0.36
0.01
-0.18
-0.29
-0.41
-0.56
-0.71
-0.83
-0.88
-0.84
-0.74
-0.60
-0.47
-0.40
-0.43
-0.59
-0.86
-1.22
-1.59
-1.92
-2.23
-2.57
-3.00
-3.59
-4.31
-5.10
-5.85
-6.45
-6.85
-7.03
-7.02
-6.87
-6.65
-6.43
-6.32
-6.37
-6.58
-6.83
-6.98
-6.88
-6.51
-6.00
-5.60
-5.56
-5.98
-6.76
-7.68
-8.46
-8.89
-8.89
-8.52
-7.86
-6.97
-5.91
-4.68
-3.29
-1.80
-0.24
1.32
2.80
4.13
5.29
6.26
7.07
7.78
8.43
9.03
9.53
9.82
9.78
9.35
8.56
7.55
6.57
5.79
5.33
5.15
5.10
5.10
5.15
5.37
5.87
6.60
7.33
7.77
7.75
7.32
6.76
6.38
6.35
6.59
6.84
6.85
6.54
5.97
5.35
4.83
4.47
4.22
3.98
3.71
3.36
2.96
2.55
2.18
1.91
1.74
1.68
1.68
1.70
1.72
1.69
1.61
1.41
1.02
0.36
-0.52
-1.53
-2.47
-3.14
-3.38
-3.16
-2.56
-1.75
-0.90
-0.17
0.35
0.64
0.79
0.89
1.03
1.23
1.48
1.74
2.01
2.30
2.65
3.04
3.40
3.63
3.63
3.40
2.99
2.51
2.05
1.64
1.27
0.94
0.63
0.34
0.09
-0.10
-0.21
-0.24
-0.23
-0.26
-0.45
-0.85
-1.42
-2.02
-2.46
-2.62
-2.50
-2.22
-1.96
-1.84
-1.85
-1.86
-1.72
-1.35
-0.81
-0.22
0.27
0.59
0.82
1.10
1.56
2.20
2.85
3.29
3.32
2.89
2.16
1.38
0.82
0.61
0.74
1.09
1.50
1.89
2.20
2.41
2.50
2.43
2.19
1.79
1.32
0.90
0.60
0.44
0.36
0.30
0.17
-0.09
-0.49
-1.05
-1.75
-2.54
-3.30
-3.89
-4.19
-4.12
-3.75
-3.23
-2.72
-2.35
-2.12
-1.94
-1.67
-1.21
-0.51
0.35
1.26
2.11
2.81
3.30
3.56
3.62
3.52
3.34
3.20
3.20
3.37
3.67
3.96
4.10
3.97
3.57
2.99
2.39
1.89
1.54
1.36
1.30
1.30
1.27
1.17
0.93
0.53
-0.00
-0.61
-1.21
-1.74
-2.16
-2.47
-2.67
-2.81
-2.93
-3.10
-3.39
-3.78
-4.24
-4.62
-4.79
-4.60
-4.00
-3.06
-1.89
-0.66
0.46
1.33
1.89
2.17
2.23
2.19
2.15
2.17
2.27
2.48
2.83
3.26
3.69
3.98
3.97
3.63
3.00
2.23
1.50
0.93
0.54
0.30
0.17
0.13
0.21
0.38
0.56
0.60
0.41
-0.06
-0.74
-1.50
-2.18
-2.66
-2.91
-2.95
-2.87
-2.76
-2.69
-2.69
-2.75
-2.82
-2.84
-2.78
-2.63
-2.39
-2.08
-1.71
-1.29
-0.87
-0.47
-0.10
0.22
0.52
0.86
1.25
1.70
2.17
2.60
2.90
2.99
2.86
2.55
2.14
1.72
1.36
1.05
0.76
0.42
0.02
-0.44
-0.92
-1.39
-1.90
-2.49
-3.15
-3.85
-4.51
-5.11
-5.68
-6.27
-6.89
-7.51
-8.06
-8.46
-8.74
-9.03
-9.46
-10.12
-10.95
-11.74
-12.24
-12.24
-11.68
-10.65
-9.31
-7.84
-6.31
-4.71
-2.96
-0.99
1.17
3.44
5.63
7.59
9.21
10.46
11.38
12.04
12.45
12.63
12.54
12.18
11.57
10.79
9.92
9.04
8.19
7.38
6.59
5.80
5.02
4.29
3.65
3.10
2.63
2.14
1.56
0.85
0.06
-0.71
-1.33
-1.70
-1.82
-1.76
-1.65
-1.59
-1.60
-1.61
-1.47
-1.08
-0.46
0.23
0.78
1.02
0.92
0.62
0.33
0.19
0.26
0.45
0.63
0.73
0.76
0.77
0.82
0.93
1.04
1.10
1.02
0.76
0.31
-0.24
-0.74
-1.01
-0.95
-0.56
-0.04
0.37
0.45
0.17
-0.34
-0.83
-1.15
-1.30
-1.45
-1.77
-2.30
-2.90
-3.30
-3.37
-3.15
-2.84
-2.71
-2.84
-3.16
-3.43
-3.45
-3.15
-2.62
-2.05
-1.58
-1.25
-1.00
-0.70
-0.31
0.20
0.78
1.38
1.90
2.29
2.48
2.46
2.23
1.87
1.49
1.21
1.09
1.08
1.11
1.04
0.82
0.45
0.06
-0.22
-0.26
-0.05
0.30
0.61
0.74
0.62
0.30
-0.10
-0.51
-0.88
-1.23
-1.62
-2.04
-2.43
-2.73
-2.88
-2.88
-2.81
-2.75
-2.73
-2.71
-2.61
-2.36
-1.91
-1.27
-0.53
0.23
0.87
1.31
1.49
1.44
1.19
0.89
0.64
0.55
0.63
0.84
1.12
1.41
1.70
1.97
2.20
2.32
2.25
1.92
1.36
0.72
0.19
-0.11
-0.13
0.04
0.26
0.38
0.37
0.22
-0.06
-0.45
-0.94
-1.51
-2.08
-2.54
-2.80
-2.88
-2.83
-2.79
-2.83
-2.95
-3.07
-3.08
-2.87
-2.42
-1.74
-0.90
-0.01
0.81
1.46
1.83
1.96
1.91
1.80
1.71
1.65
1.58
1.47
1.34
1.24
1.22
1.29
1.40
1.43
1.32
1.07
0.75
0.47
0.30
0.26
0.28
0.29
0.23
0.09
-0.11
-0.34
-0.59
-0.87
-1.23
-1.71
-2.28
-2.82
-3.23
-3.39
-3.32
-3.09
-2.83
-2.62
-2.47
-2.34
-2.12
-1.76
-1.24
-0.59
0.08
0.70
1.18
1.46
1.57
1.59
1.63
1.80
2.06
2.33
2.47
2.39
2.13
1.83
1.60
1.51
1.49
1.40
1.18
0.84
0.50
0.28
0.22
0.24
0.19
-0.02
-0.41
-0.91
-1.40
-1.80
-2.10
-2.29
-2.40
-2.45
-2.44
-2.38
-2.29
-2.22
-2.22
-2.27
-2.37
-2.48
-2.53
-2.53
-2.45
-2.32
-2.13
-1.88
-1.51
-0.97
-0.25
0.63
1.59
2.48
3.13
3.42
3.26
2.68
1.81
0.89
0.15
-0.19
-0.08
0.43
1.13
1.81
2.26
2.38
2.16
1.68
1.06
0.41
-0.19
-0.69
-1.08
-1.35
-1.52
-1.57
-1.48
-1.26
-0.99
-0.74
-0.62
-0.65
-0.76
-0.87
-0.88
-0.78
-0.60
-0.38
-0.13
0.19
0.62
1.16
1.72
2.17
2.40
2.40
2.25
2.10
2.07
2.20
2.44
2.68
2.81
2.79
2.63
2.42
2.28
2.27
2.40
2.57
2.62
2.42
1.91
1.17
0.31
-0.51
-1.22
-1.80
-2.29
-2.74
-3.16
-3.53
-3.84
-4.08
-4.27
-4.42
-4.54
-4.58
-4.50
-4.27
-3.90
-3.43
-2.89
-2.34
-1.78
-1.23
-0.67
-0.11
0.42
0.92
1.33
1.65
1.87
2.00
2.06
2.07
2.05
2.02
1.98
1.90
1.74
1.45
1.01
0.48
-0.07
-0.50
-0.73
-0.75
-0.64
-0.49
-0.35
-0.22
-0.05
0.18
0.46
0.68
0.72
0.51
0.07
-0.50
-1.08
-1.54
-1.85
-1.99
-2.04
-2.09
-2.22
-2.47
-2.79
-3.04
-3.02
-2.64
-1.93
-1.07
-0.34
0.06
0.09
-0.12
-0.33
-0.32
0.01
0.60
1.28
1.87
2.24
2.38
2.32
2.12
1.77
1.27
0.61
-0.11
-0.71
-0.99
-0.83
-0.26
0.49
1.11
1.40
1.29
0.88
0.36
-0.15
-0.63
-1.10
-1.58
-2.01
-2.29
-2.33
-2.15
-1.85
-1.58
-1.47
-1.63
-2.03
-2.59
-3.16
-3.59
-3.75
-3.63
-3.24
-2.68
-2.03
-1.34
-0.64
0.06
0.70
1.21
1.53
1.63
1.58
1.46
1.35
1.32
1.35
1.41
1.43
1.33
1.07
0.68
0.25
-0.06
-0.14
0.03
0.35
0.66
0.79
0.67
0.35
-0.05
-0.39
-0.59
-0.66
-0.64
-0.60
-0.60
-0.70
-0.90
-1.19
-1.52
-1.85
-2.18
-2.46
-2.71
-2.90
-3.01
-2.99
-2.82
-2.47
-1.98
-1.43
-0.88
-0.42
-0.09
0.12
0.29
0.46
0.69
0.94
1.16
1.30
1.34
1.34
1.35
1.35
1.28
1.04
0.62
0.09
-0.37
-0.60
-0.52
-0.23
0.08
0.21
0.07
-0.30
-0.74
-1.06
-1.15
-1.02
-0.79
-0.62
-0.58
-0.68
-0.82
-0.92
-0.91
-0.87
-0.93
-1.17
-1.59
-2.05
-2.35
-2.33
-1.94
-1.26
-0.48
0.17
0.56
0.64
0.48
0.22
0.07
0.17
0.57
1.19
1.83
2.31
2.49
2.41
2.18
1.95
1.77
1.62
1.45
1.22
1.00
0.88
0.89
1.02
1.19
1.31
1.35
1.31
1.24
1.14
0.98
0.75
0.46
0.17
-0.06
-0.17
-0.18
-0.12
-0.02
0.03
-0.08
-0.47
-1.19
-2.16
-3.15
-3.86
-4.11
-3.92
-3.48
-3.03
-2.70
-2.43
-2.04
-1.38
-0.43
0.60
1.45
1.92
2.03
1.96
1.95
2.14
2.50
2.91
3.17
3.22
3.11
3.04
3.16
3.52
3.99
4.30
4.24
3.73
2.91
2.04
1.37
1.02
0.93
0.98
0.99
0.89
0.69
0.45
0.19
-0.08
-0.42
-0.91
-1.59
-2.40
-3.22
-3.84
-4.10
-3.94
-3.46
-2.90
-2.51
-2.42
-2.61
-2.94
-3.20
-3.29
-3.15
-2.77
-2.22
-1.51
-0.74
0.03
0.70
1.22
1.59
1.86
2.05
2.18
2.21
2.15
2.01
1.85
1.74
1.69
1.67
1.61
1.50
1.36
1.25
1.24
1.32
1.41
1.39
1.18
0.76
0.25
-0.20
-0.46
-0.49
-0.38
-0.33
-0.53
-1.02
-1.66
-2.23
-2.54
-2.56
-2.46
-2.46
-2.72
-3.26
-3.90
-4.44
-4.76
-4.86
-4.84
-4.77
-4.64
-4.40
-3.97
-3.42
-2.84
-2.37
-2.10
-2.00
-1.99
-1.97
-1.92
-1.83
-1.78
-1.80
-1.90
-2.05
-2.23
-2.42
-2.68
-3.05
-3.58
-4.25
-4.98
-5.69
-6.25
-6.61
-6.76
-6.73
-6.57
-6.34
-6.09
-5.85
-5.62
-5.38
-5.03
-4.42
-3.39
-1.88
0.06
2.24
4.40
6.24
7.55
8.22
8.25
7.77
6.98
6.09
5.34
4.86
4.70
4.81
5.06
5.32
5.53
5.63
5.65
5.58
5.43
5.19
4.85
4.43
3.91
3.32
2.65
1.96
1.31
0.77
0.40
0.21
0.16
0.16
0.14
0.05
-0.11
-0.28
-0.42
-0.48
-0.48
-0.54
-0.74
-1.19
-1.81
-2.44
-2.81
-2.75
-2.26
-1.51
-0.82
-0.43
-0.41
-0.65
-0.92
-1.01
-0.91
-0.70
-0.53
-0.47
-0.48
-0.42
-0.16
0.30
0.91
1.51
1.97
2.26
2.45
2.68
3.03
3.54
4.12
4.65
4.98
5.01
4.73
4.20
3.53
2.85
2.21
1.64
1.15
0.73
0.43
0.31
0.42
0.76
1.22
1.65
1.84
1.69
1.25
0.74
0.41
0.40
0.70
1.12
1.45
1.55
1.45
1.27
1.14
1.13
1.17
1.18
1.09
0.92
0.76
0.69
0.78
1.05
1.53
2.20
2.98
3.77
4.39
4.70
4.55
3.90
2.80
1.42
0.02
-1.13
-1.80
-1.88
-1.44
-0.67
0.19
0.96
1.52
1.86
1.99
1.93
1.72
1.39
1.02
0.68
0.41
0.19
-0.01
-0.18
-0.29
-0.27
-0.05
0.37
0.92
1.46
1.84
1.90
1.55
0.80
-0.26
-1.43
-2.54
-3.43
-4.05
-4.44
-4.64
-4.72
-4.71
-4.62
-4.48
-4.31
-4.08
-3.77
-3.32
-2.69
-1.89
-1.00
-0.16
0.46
0.71
0.49
-0.14
-1.05
-1.97
-2.65
-2.97
-2.93
-2.68
-2.41
-2.26
-2.25
-2.32
-2.45
-2.65
-2.92
-3.23
-3.46
-3.45
-3.12
-2.55
-1.92
-1.48
-1.35
-1.50
-1.81
-2.07
-2.15
-2.03
-1.76
-1.43
-1.16
-1.02
-1.06
-1.24
-1.49
-1.65
-1.64
-1.42
-1.01
-0.45
0.22
0.97
1.75
2.46
3.00
3.24
3.14
2.76
2.26
1.79
1.44
1.23
1.10
1.00
0.89
0.77
0.66
0.54
0.41
0.27
0.13
0.04
-0.01
0.01
0.07
0.13
0.15
0.09
-0.05
-0.24
-0.41
-0.50
-0.47
-0.31
-0.10
0.10
0.17
0.08
-0.16
-0.49
-0.82
-1.06
-1.10
-0.90
-0.45
0.17
0.80
1.28
1.52
1.51
1.38
1.30
1.37
1.65
2.04
2.44
2.76
2.97
3.11
3.22
3.28
3.22
2.94
2.40
1.65
0.81
0.07
-0.46
-0.69
-0.67
-0.53
-0.40
-0.43
-0.67
-1.10
-1.60
-2.07
-2.40
-2.54
-2.53
-2.41
-2.25
-2.07
-1.83
-1.54
-1.22
-0.95
-0.83
-0.90
-1.12
-1.33
-1.38
-1.16
-0.71
-0.12
0.48
1.04
1.63
2.35
3.25
4.25
5.18
5.82
6.06
5.91
5.54
5.17
4.97
5.01
5.22
5.44
5.52
5.37
4.99
4.46
3.87
3.33
2.84
2.39
1.99
1.66
1.46
1.42
1.51
1.61
1.58
1.34
0.86
0.22
-0.47
-1.10
-1.65
-2.15
-2.67
-3.26
-3.93
-4.64
-5.30
-5.78
-6.03
-6.04
-5.90
-5.77
-5.82
-6.14
-6.69
-7.32
-7.83
-8.07
-8.00
-7.71
-7.37
-7.12
-7.00
-7.00
-7.01
-6.97
-6.86
-6.80
-6.93
-7.42
-8.38
-9.80
-11.54
-13.35
-14.95
-16.11
-16.72
-16.89
-16.84
-16.86
-17.17
-17.88
-18.90
-19.94
-20.49
-19.88
-17.46
-12.85
-6.20
1.70
9.60
16.22
20.66
22.67
22.67
21.35
19.40
17.24
14.98
12.67
10.45
8.64
7.57
7.37
7.80
8.27
8.04
6.54
3.59
-0.43
-4.84
-8.88
-12.09
-14.46
-16.36
-18.30
-20.70
-23.68
-27.14
-30.87
-34.65
-38.35
-41.89
-45.10
-47.71
-49.44
-50.04
-49.55
-48.13
-45.91
-42.69
-37.90
-30.75
-20.77
-8.26
5.55
18.87
29.93
37.65
41.97
43.62
43.68
43.07
42.30
41.51
40.70
39.89
39.20
38.75
38.59
38.62
38.70
38.67
38.48
38.22
38.06
38.18
38.64
39.31
39.82
39.73
38.66
36.54
33.65
30.65
28.26
26.96
26.81
27.37
27.94
27.91
27.11
26.03
25.54
26.53
29.30
33.25
36.96
38.57
36.45
29.67
18.11
2.40
-16.31
-36.52
-56.45
-74.09
-87.42
-94.86
-95.78
-90.77
-81.51
-70.27
-59.24
-49.92
-43.02
-38.34
-35.06
-31.79
-27.01
-19.46
-8.69
4.50
18.18
29.96
37.91
41.25
40.61
37.49
33.57
29.99
27.19
25.15
23.72
22.88
22.64
22.89
23.28
23.23
22.23
20.08
16.96
13.40
10.09
7.65
6.40
6.35
7.14
8.30
9.39
10.12
10.44
10.37
10.03
9.46
8.76
8.03
7.37
6.83
6.42
6.02
5.52
4.88
4.16
3.53
3.11
2.95
2.92
2.77
2.26
1.27
-0.19
-1.97
-3.92
-5.93
-7.96
-10.06
-12.25
-14.41
-16.36
-17.82
-18.56
-18.47
-17.57
-16.04
-14.04
-11.75
-9.29
-6.68
-3.92
-1.06
1.88
4.81
7.67
10.46
13.24
16.13
19.30
22.88
26.88
31.07
35.00
38.03
39.56
39.21
37.07
33.77
30.31
27.83
27.24
28.94
32.71
37.80
43.09
47.36
49.58
49.04
45.55
39.42
31.39
22.42
13.43
5.05
-2.53
-9.44
-16.04
-22.69
-29.66
-37.07
-44.91
-53.05
-61.16
-68.66
-74.76
-78.61
-79.62
-77.64
-73.05
-66.69
-59.51
-52.36
-45.79
-39.96
-34.78
-30.06
-25.61
-21.46
-17.75
-14.70
-12.42
-10.83
-9.60
-8.32
-6.64
-4.49
-2.12
-0.02
1.32
1.58
0.78
-0.74
-2.40
-3.65
-4.16
-3.93
-3.31
-2.83
-3.00
-4.10
-6.06
-8.64
-11.50
-14.47
-17.53
-20.78
-24.30
-28.03
-31.74
-35.15
-38.02
-40.26
-41.94
-43.21
-44.20
-44.86
-44.95
-44.11
-41.96
-38.29
-33.15
-26.83
-19.76
-12.37
-5.01
2.12
8.95
15.35
21.16
26.15
30.10
32.96
34.77
35.67
35.77
35.13
33.79
31.86
29.61
27.35
25.38
23.66
21.83
19.30
15.53
10.33
3.99
-2.81
-9.23
-14.60
-18.66
-21.51
-23.46
-24.70
-25.21
-24.74
-23.01
-19.91
-15.64
-10.87
-6.51
-3.25
-1.18
0.27
2.05
5.00
9.44
14.94
20.37
24.44
26.50
26.95
27.08
28.39
31.71
36.76
41.84
44.38
41.94
33.55
20.32
5.00
-9.06
-19.38
-25.10
-26.33
-24.04
-21.01
-21.60
-29.82
-46.40
-66.72
-83.49
-87.88
-73.77
-40.72
5.08
52.73
90.93
110.17
106.46
83.82
52.76
25.36
10.02
8.45
16.36
26.83
34.09
35.97
33.49
29.02
23.97
18.09
10.39
0.56
-10.47
-21.16
-30.10
-37.14
-42.89
-47.90
-51.84
-53.02
-49.16
-38.59
-21.46
0.23
23.14
43.80
59.51
68.92
72.07
70.02
64.29
56.53
48.33
41.02
35.53
32.14
30.41
29.33
27.69
24.60
19.80
13.84
7.83
2.98
0.04
-0.95
-0.68
-0.26
-0.70
-2.53
-5.59
-9.18
-12.43
-14.70
-15.80
-16.02
-15.86
-15.80
-16.06
-16.54
-16.98
-17.12
-16.90
-16.45
-16.02
-15.85
-16.07
-16.62
-17.27
-17.75
-17.86
-17.54
-16.91
-16.16
-15.43
-14.85
-14.35
-13.78
-12.98
-11.96
-10.86
-9.87
-9.11
-8.56
-8.16
-7.69
-6.74
-4.90
-2.02
1.79
6.10
10.29
13.62
15.16
14.47
11.84
8.10
4.17
0.66
-2.21
-4.50
-6.44
-8.56
-10.95
-13.02
-14.05
-13.78
-12.65
-11.54
-11.37
-12.83
-16.93
-24.02
-33.42
-43.61
-52.58
-58.26
-58.91
-53.85
-40.56
-21.08
-1.50
11.93
17.11
16.48
13.80
11.91
11.61
12.23
12.20
10.76
8.87
7.85
8.49
10.55
13.08
14.94
15.35
13.76
10.58
6.98
4.24
2.97
2.88
3.22
3.24
2.65
1.42
-0.02
-0.93
-0.80
0.32
1.91
3.42
4.57
5.49
6.40
7.60
9.35
11.68
14.42
17.22
19.74
21.69
22.88
23.19
22.70
21.65
20.38
19.17
18.19
17.44
16.81
16.16
15.29
14.02
12.19
9.71
6.66
3.27
-0.08
-3.00
-5.20
-6.55
-7.11
-7.03
-6.48
-5.63
-4.64
-3.62
-2.72
-2.05
-1.73
-1.81
-2.30
-3.09
-4.02
-4.87
-5.45
-5.64
-5.47
-5.03
-4.47
-3.92
-3.47
-3.15
-2.97
-2.92
-2.97
-3.07
-3.19
-3.26
-3.25
-3.12
-2.83
-2.39
-1.81
-1.18
-0.58
-0.12
0.13
0.17
-0.00
-0.40
-1.04
-1.88
-2.82
-3.71
-4.38
-4.76
-4.86
-4.77
-4.60
-4.39
-4.13
-3.80
-3.43
-3.10
-2.91
-2.87
-2.90
-2.85
-2.55
-1.93
-0.99
0.15
1.40
2.59
3.61
4.36
4.78
4.87
4.71
4.43
4.14
3.91
3.74
3.56
3.29
2.89
2.39
1.89
1.52
1.38
1.45
1.63
1.68
1.31
0.29
-1.49
-3.97
-6.87
-9.72
-12.01
-13.24
-13.07
-11.44
-8.56
-4.81
-0.65
3.50
7.34
10.67
13.37
15.34
16.48
16.65
15.69
13.48
10.03
5.57
0.57
-4.33
-8.55
-11.72
-13.80
-15.03
-15.70
-16.02
-16.09
-15.93
-15.64
-15.41
-15.45
-15.87
-16.55
-17.22
-17.64
-17.72
-17.66
-17.78
-18.40
-19.64
-21.39
-23.39
-25.35
-27.09
-28.56
-29.91
-31.37
-33.14
-35.32
-37.77
-40.16
-41.95
-42.54
-41.35
-37.96
-32.16
-24.03
-13.95
-2.51
9.53
21.35
32.25
41.71
49.54
55.83
60.81
64.64
67.22
68.20
67.07
63.44
57.36
49.40
40.61
32.23
25.30
20.39
17.43
15.86
14.83
13.58
11.68
9.11
6.18
3.29
0.68
-1.68
-4.03
-6.60
-9.50
-12.68
-16.10
-20.00
-24.85
-31.09
-38.45
-45.65
-50.49
-50.76
-45.29
-34.78
-21.68
-9.26
-0.15
4.70
6.23
6.52
7.69
10.92
16.20
22.77
29.78
36.67
43.15
48.88
53.29
55.70
55.75
53.68
50.36
46.87
43.84
41.08
37.65
32.46
25.04
15.96
6.74
-0.85
-5.65
-7.62
-7.84
-7.96
-9.39
-12.74
-17.64
-23.00
-27.57
-30.48
-31.53
-31.19
-30.24
-29.38
-28.99
-29.10
-29.50
-30.05
-30.80
-31.89
-33.36
-34.99
-36.18
-36.21
-34.56
-31.18
-26.62
-21.84
-17.79
-15.05
-13.64
-13.06
-12.63
-11.80
-10.30
-8.25
-5.99
-3.91
-2.26
-1.10
-0.28
0.47
1.40
2.64
4.20
5.93
7.68
9.32
10.80
12.17
13.50
14.84
16.23
17.60
18.85
19.81
20.32
20.37
20.10
19.83
19.97
20.78
22.31
24.32
26.34
27.83
28.28
27.32
24.81
20.89
16.06
11.02
6.52
3.03
0.59
-1.24
-3.08
-5.37
-8.00
-10.36
-11.46
-10.48
-7.06
-1.54
5.20
11.98
17.66
21.50
23.18
22.84
20.92
17.98
14.57
11.20
8.28
6.18
5.18
5.37
6.54
8.17
9.45
9.57
7.99
4.70
0.25
-4.46
-8.47
-11.15
-12.30
-12.18
-11.24
-9.86
-8.18
-6.06
-3.30
0.24
4.38
8.68
12.50
15.20
16.36
15.85
13.90
10.91
7.37
3.75
0.37
-2.55
-4.86
-6.52
-7.51
-7.87
-7.65
-7.05
-6.31
-5.70
-5.41
-5.46
-5.65
-5.72
-5.49
-5.02
-4.62
-4.73
-5.68
-7.54
-10.02
-12.62
-14.84
-16.35
-17.05
-17.04
-16.45
-15.40
-13.96
-12.26
-10.51
-8.95
-7.71
-6.70
-5.56
-3.87
-1.34
1.96
5.63
9.09
11.88
13.89
15.25
16.26
17.06
17.60
17.68
17.17
16.11
14.76
13.39
12.18
11.05
9.82
8.24
6.14
3.46
0.29
-3.17
-6.56
-9.50
-11.61
-12.71
-12.88
-12.47
-11.93
-11.63
-11.77
-12.33
-13.22
-14.31
-15.57
-16.98
-18.43
-19.77
-20.79
-21.36
-21.47
-21.28
-21.00
-20.87
-20.99
-21.27
-21.47
-21.22
-20.20
-18.22
-15.31
-11.67
-7.61
-3.46
0.53
4.18
7.40
10.17
12.54
14.63
16.58
18.52
20.49
22.38
23.99
25.09
25.46
24.95
23.59
21.55
19.15
16.77
14.81
13.47
12.74
12.44
12.26
11.95
11.35
10.39
9.08
7.46
5.62
3.70
1.94
0.62
-0.07
-0.12
0.28
0.75
0.96
0.67
-0.15
-1.35
-2.71
-4.03
-5.22
-6.26
-7.18
-8.00
-8.70
-9.22
-9.54
-9.66
-9.65
-9.56
-9.42
-9.19
-8.81
-8.27
-7.62
-6.97
-6.47
-6.23
-6.31
-6.72
-7.42
-8.30
-9.25
-10.08
-10.65
-10.86
-10.70
-10.27
-9.70
-9.12
-8.61
-8.13
-7.57
-6.85
-5.96
-4.99
-4.13
-3.55
-3.32
-3.41
-3.67
-4.01
-4.34
-4.65
-4.97
-5.25
-5.42
-5.40
-5.19
-4.87
-4.65
-4.68
-5.01
-5.61
-6.33
-7.05
-7.71
-8.30
-8.87
-9.43
-9.97
-10.46
-10.84
-11.05
-11.06
-10.83
-10.30
-9.44
-8.31
-7.03
-5.75
-4.56
-3.50
-2.49
-1.39
-0.02
1.81
4.28
7.46
11.28
15.42
19.45
22.88
25.42
27.03
27.91
28.42
28.82
29.23
29.64
30.06
30.54
31.21
32.14
33.28
34.48
35.60
36.58
37.50
38.48
39.61
40.87
42.11
43.08
43.55
43.33
42.34
40.68
38.60
36.53
34.88
33.94
33.67
33.65
33.01
30.69
25.76
17.87
7.51
-3.97
-14.80
-23.37
-28.78
-31.10
-31.19
-30.19
-29.05
-28.22
-27.74
-27.42
-27.12
-26.82
-26.48
-25.95
-24.91
-23.06
-20.30
-16.91
-13.45
-10.64
-9.04
-8.89
-10.02
-11.99
-14.22
-16.24
-17.82
-18.98
-19.90
-20.82
-21.95
-23.34
-24.96
-26.70
-28.44
-30.10
-31.59
-32.85
-33.80
-34.35
-34.39
-33.92
-33.02
-31.85
-30.57
-29.27
-27.92
-26.40
-24.61
-22.56
-20.44
-18.47
-16.86
-15.68
-14.82
-14.10
-13.35
-12.50
-11.54
-10.50
-9.46
-8.51
-7.70
-7.13
-6.83
-6.77
-6.78
-6.54
-5.68
-3.90
-1.10
2.69
7.27
12.31
17.43
22.17
26.21
29.33
31.39
32.33
32.16
30.96
28.85
25.98
22.56
19.07
16.03
13.77
12.39
11.82
11.94
12.68
13.83
15.10
16.62
18.35
20.00
21.11
21.42
21.09
20.61
20.50
21.02
22.87
26.27
30.70
35.20
38.95
41.75
43.90
45.84
47.86
51.04
56.12
63.18
71.58
80.43
88.80
95.72
100.13
94.95
76.75
47.57
14.38
-15.54
-38.20
-52.79
-60.03
-60.90
-56.45
-47.24
-35.08
-23.37
-16.38
-17.43
-27.36
-44.15
-63.73
-81.45
-92.83
-95.60
-90.31
-79.69
-67.01
-54.43
-42.47
-30.55
-18.12
-4.96
8.08
19.22
26.74
29.92
29.26
25.94
21.06
15.10
8.35
1.06
-6.24
-12.74
-17.64
-20.49
-21.48
-21.24
-20.47
-19.31
-17.45
-14.32
-9.62
-3.60
2.97
9.12
13.95
16.93
18.02
17.26
15.13
12.39
9.77
7.82
6.83
6.82
7.66
9.16
11.06
13.06
14.76
15.66
15.39
13.85
11.29
8.18
5.02
2.08
-0.59
-3.04
-5.30
-7.20
-8.50
-8.95
-8.57
-7.64
-6.67
-6.13
-6.32
-7.31
-8.93
-10.96
-13.19
-15.54
-17.99
-20.46
-22.69
-24.30
-24.85
-24.13
-22.30
-19.85
-17.48
-15.78
-15.00
-15.06
-15.62
-16.31
-16.87
-17.20
-17.25
-16.98
-16.33
-15.30
-13.93
-12.35
-10.70
-9.08
-7.51
-5.92
-4.14
-1.98
0.70
3.90
7.43
10.93
13.97
16.16
17.35
17.59
17.11
16.18
15.01
13.63
11.97
9.95
7.54
4.87
2.17
-0.24
-2.13
-3.44
-4.33
-5.11
-6.06
-7.24
-8.54
-9.67
-10.39
-10.62
-10.50
-10.26
-10.11
-10.14
-10.31
-10.53
-10.73
-10.90
-11.08
-11.31
-11.59
-11.85
-12.00
-11.94
-11.62
-11.04
-10.23
-9.23
-8.08
-6.77
-5.31
-3.73
-2.15
-0.73
0.35
0.94
1.02
0.71
0.24
-0.10
-0.06
0.48
1.47
2.66
3.76
4.54
4.90
4.90
4.70
4.45
4.20
3.96
3.80
3.85
4.38
5.63
7.68
10.37
13.28
15.91
17.76
18.46
17.76
15.55
11.87
7.07
1.92
-2.43
-4.69
-3.89
0.21
6.89
14.64
21.69
26.62
28.74
28.18
25.58
21.69
17.06
12.04
6.90
2.03
-2.03
-4.77
-5.96
-5.79
-4.80
-3.76
-3.31
-3.82
-5.40
-7.88
-10.96
-14.32
-17.66
-20.69
-23.17
-24.83
-25.45
-24.83
-22.88
-19.66
-15.44
-10.70
-5.93
-1.56
2.26
5.56
8.53
11.32
13.99
16.49
18.74
20.75
22.56
24.25
25.78
27.03
27.78
27.89
27.31
26.24
24.91
23.50
22.02
20.32
18.13
15.22
11.52
7.17
2.44
-2.30
-6.71
-10.48
-13.39
-15.27
-16.10
-15.93
-14.88
-13.09
-10.60
-7.40
-3.49
1.03
5.89
10.67
14.95
18.46
21.18
23.25
24.82
25.94
26.39
25.75
23.40
18.70
11.24
1.09
-10.90
-23.19
-33.82
-41.01
-43.75
-42.05
-36.90
-29.71
-21.91
-14.46
-7.93
-2.56
1.50
4.14
5.31
5.14
4.00
2.35
0.74
-0.39
-0.78
-0.37
0.69
2.13
3.64
5.03
6.20
7.24
8.30
9.46
10.71
11.88
12.71
12.99
12.60
11.60
10.08
8.14
5.82
3.15
0.26
-2.53
-4.75
-5.97
-6.01
-5.08
-3.76
-2.78
-2.79
-4.13
-6.80
-10.51
-14.79
-19.11
-23.00
-26.05
-28.02
-28.82
-28.55
-27.42
-25.77
-24.00
-22.53
-21.64
-21.39
-21.57
-21.75
-21.48
-20.41
-18.43
-15.64
-12.36
-8.90
-5.49
-2.28
0.68
3.41
5.98
8.58
11.33
14.26
17.35
20.50
23.60
26.52
29.11
31.24
32.97
34.34
35.39
36.17
36.78
37.25
37.49
37.30
36.43
34.71
31.86
27.57
21.78
14.78
7.31
0.34
-5.12
-9.21
-11.55
-11.91
-10.75
-9.21
-8.64
-9.97
-13.44
-18.48
-23.86
-27.94
-29.50
-28.15
-24.47
-19.86
-15.65
-12.96
-12.34
-13.60
-15.92
-18.36
-20.19
-21.08
-20.96
-19.95
-18.19
-15.83
-12.99
-9.92
-7.05
-4.81
-3.39
-2.69
-2.30
-1.84
-1.05
0.08
1.37
2.55
3.38
3.80
3.88
3.77
3.58
3.35
3.04
2.63
2.09
1.43
0.67
-0.15
-0.95
-1.63
-2.08
-2.16
-1.81
-1.06
-0.02
1.14
2.24
3.22
4.09
4.94
5.86
6.86
7.84
8.66
9.18
9.36
9.29
9.14
9.07
9.19
9.53
10.03
10.59
11.14
11.59
11.87
11.93
11.74
11.36
10.88
10.42
10.07
9.86
9.74
9.62
9.47
9.31
9.22
9.28
9.51
9.85
10.17
10.38
10.44
10.43
10.51
10.89
11.68
12.85
14.25
15.66
16.92
17.99
18.88
19.66
20.35
20.93
21.35
21.55
21.48
21.07
20.16
18.54
16.02
12.54
8.27
3.61
-0.93
-4.99
-8.41
-11.32
-13.92
-16.41
-18.83
-21.03
-22.81
-24.02
-24.72
-25.08
-25.31
-25.52
-25.71
-25.79
-25.58
-24.85
-23.42
-21.30
-18.71
-16.03
-13.76
-12.41
-12.33
-13.49
-15.33
-17.11
-18.32
-18.85
-18.93
-18.96
-19.30
-20.09
-21.03
-21.54
-21.30
-20.75
-21.01
-23.28
-28.17
-35.14
-42.47
-47.39
-46.93
-39.17
-24.21
-4.05
18.20
39.27
56.14
65.29
62.61
46.36
19.53
-11.24
-38.44
-56.06
-61.00
-53.71
-37.75
-17.99
1.34
17.65
29.85
37.83
41.86
42.24
39.25
33.48
26.29
19.66
15.38
14.23
15.75
18.61
21.24
22.50
21.71
19.10
15.57
12.14
9.43
7.44
5.76
3.89
1.58
-0.93
-3.02
-3.97
-3.32
-1.26
1.39
3.55
4.28
3.26
0.81
-2.22
-5.02
-6.93
-7.80
-7.80
-7.19
-6.15
-4.58
-2.23
0.98
4.82
8.68
11.60
12.73
11.89
9.21
5.28
0.89
-3.32
-6.99
-10.14
-12.97
-15.65
-18.19
-20.56
-22.57
-24.01
-24.86
-25.21
-25.29
-25.23
-25.00
-23.83
-21.30
-17.27
-12.06
-6.49
-1.69
1.28
1.87
0.29
-2.62
-5.85
-8.49
-10.07
-10.62
-10.49
-10.06
-9.50
-8.68
-7.33
-5.29
-2.56
0.62
3.78
6.42
8.17
9.04
9.42
9.95
11.19
13.36
16.25
19.18
21.28
21.83
20.64
18.26
15.68
13.96
13.76
15.16
17.45
19.36
19.58
17.53
13.67
9.41
6.39
5.84
8.19
12.56
16.99
19.36
18.52
14.94
10.31
6.63
5.50
8.17
15.11
25.62
37.49
47.14
50.05
42.19
22.25
-6.34
-34.99
-53.30
-53.89
-35.82
-4.71
30.13
59.83
79.30
84.51
75.72
57.81
36.96
16.42
-3.46
-22.49
-38.82
-50.20
-54.89
-52.42
-44.65
-35.39
-28.67
-26.76
-29.48
-34.26
-38.46
-40.25
-38.91
-35.15
-30.80
-27.77
-27.06
-28.43
-30.71
-32.67
-33.35
-32.24
-29.54
-26.10
-23.01
-20.99
-20.07
-19.46
-17.94
-14.25
-7.56
2.15
14.11
27.11
40.06
51.12
58.26
60.08
56.62
49.22
39.75
30.06
21.62
15.46
11.87
10.53
10.74
11.73
12.86
13.80
14.76
15.73
16.72
17.64
18.40
18.88
18.84
17.81
15.31
11.20
5.75
-0.39
-6.51
-12.02
-16.68
-20.00
-21.93
-22.67
-22.48
-21.61
-20.30
-18.76
-17.20
-15.73
-14.32
-13.00
-11.75
-10.51
-9.29
-8.15
-7.21
-6.64
-6.54
-6.93
-7.84
-9.19
-10.93
-13.01
-15.37
-17.90
-20.37
-22.44
-23.74
-24.02
-23.22
-21.49
-19.13
-16.50
-13.94
-11.68
-9.86
-8.48
-7.47
-6.61
-5.70
-4.54
-3.06
-1.32
0.59
2.57
4.58
6.62
8.69
10.75
12.69
14.36
15.61
16.38
16.70
16.70
16.55
16.42
16.44
16.67
17.14
17.77
18.40
18.85
18.95
18.65
18.09
17.50
17.09
16.92
16.86
16.69
16.22
15.48
14.62
13.95
13.70
13.95
14.62
15.50
16.35
16.86
16.71
15.52
12.95
8.95
3.87
-1.49
-6.12
-9.07
-9.87
-8.69
-6.25
-3.63
-1.78
-1.35
-2.49
-4.93
-8.16
-11.64
-14.86
-17.45
-19.19
-20.03
-20.06
-19.47
-18.55
-17.59
-16.88
-16.61
-16.89
-17.60
-18.49
-19.13
-19.12
-18.26
-16.65
-14.69
-12.85
-11.46
-10.58
-10.02
-9.54
-8.97
-8.32
-7.67
-7.04
-6.28
-5.19
-3.58
-1.49
0.86
3.19
5.30
7.21
9.03
10.86
12.64
14.18
15.25
15.70
15.58
15.07
14.42
13.84
13.38
13.00
12.56
11.95
11.13
10.11
8.95
7.71
6.44
5.17
3.93
2.77
1.77
0.99
0.46
0.18
0.12
0.23
0.45
0.66
0.74
0.55
0.05
-0.74
-1.64
-2.47
-3.08
-3.41
-3.51
-3.49
-3.40
-3.23
-2.92
-2.40
-1.72
-0.99
-0.37
0.03
0.18
0.13
0.01
-0.03
0.10
0.40
0.77
1.08
1.18
0.93
0.28
-0.67
-1.74
-2.70
-3.42
-3.90
-4.27
-4.74
-5.46
-6.43
-7.41
-8.06
-8.18
-7.75
-7.06
-6.47
-6.34
-6.81
-7.68
-8.48
-8.62
-7.96
-6.74
-5.58
-5.09
-5.65
-7.23
-9.34
-11.04
-11.28
-9.55
-5.91
-1.11
3.89
7.99
10.21
9.99
7.35
2.79
-3.56
-11.70
-21.82
-33.48
-45.89
-58.33
-70.25
-81.32
-87.89
-86.29
-73.51
-48.87
-14.41
24.75
61.23
87.56
98.88
94.88
79.32
59.95
41.30
26.03
14.79
6.86
1.45
-1.43
-1.12
2.56
8.74
15.32
20.23
22.44
21.82
19.40
16.83
15.64
16.24
17.96
18.80
17.54
13.80
8.16
1.90
-3.49
-6.91
-8.17
-7.90
-7.29
-7.13
-7.82
-9.24
-10.95
-12.40
-13.19
-13.32
-13.02
-12.71
-12.51
-12.42
-12.24
-11.74
-10.65
-8.76
-6.07
-2.77
0.67
3.80
6.19
7.58
8.00
7.72
7.15
6.68
6.50
6.54
6.54
6.21
5.36
4.06
2.64
1.46
0.77
0.49
0.23
-0.42
-1.68
-3.37
-5.04
-6.13
-6.28
-5.43
-3.95
-2.40
-1.23
-0.62
-0.48
-0.55
-0.57
-0.21
0.80
2.46
4.41
6.13
7.23
7.59
7.48
7.44
8.31
10.69
14.47
18.63
21.74
22.65
20.98
17.19
12.55
8.94
8.12
11.02
17.35
25.86
34.69
41.51
43.62
36.68
18.14
-10.15
-41.43
-67.23
-81.39
-82.07
-71.45
-54.26
-35.69
-19.32
-6.59
2.71
9.20
13.30
15.10
14.60
12.03
8.20
4.55
2.58
3.14
5.88
9.50
12.35
13.17
11.37
7.03
0.70
-7.00
-15.56
-24.36
-32.28
-37.58
-38.21
-32.99
-21.38
-4.35
15.70
35.45
51.35
60.57
61.61
54.73
41.76
25.67
9.61
-3.85
-13.32
-18.68
-20.56
-19.85
-17.34
-13.72
-9.58
-5.60
-2.41
-0.34
0.69
1.10
1.39
1.79
2.07
1.78
0.55
-1.59
-4.04
-5.92
-6.44
-5.33
-2.70
0.68
3.82
5.92
6.78
6.73
6.52
6.82
7.98
9.93
12.17
14.09
15.23
15.36
14.53
12.94
10.84
8.51
6.15
3.95
2.08
0.72
-0.03
-0.24
-0.10
0.07
0.00
-0.50
-1.48
-2.87
-4.50
-6.23
-7.96
-9.73
-11.61
-13.73
-16.13
-18.78
-21.59
-24.39
-27.04
-29.43
-31.45
-32.99
-33.91
-34.13
-33.65
-32.60
-31.18
-29.61
-28.06
-26.59
-25.13
-23.54
-21.67
-19.41
-16.78
-13.92
-11.04
-8.34
-5.96
-3.88
-1.96
-0.06
1.95
4.10
6.38
8.78
11.36
14.16
17.20
20.34
23.33
25.83
27.54
28.21
27.73
26.07
23.34
19.76
15.78
12.09
9.53
8.86
10.41
13.83
18.07
21.75
23.61
22.97
20.03
15.70
11.20
7.58
5.41
4.73
5.19
6.31
7.67
8.98
10.10
11.03
11.76
12.32
12.74
13.10
13.51
13.92
14.24
14.37
14.31
14.03
13.52
12.75
11.74
10.57
9.12
7.30
5.22
3.23
1.66
0.67
0.21
0.08
0.05
-0.46
-1.91
-4.28
-6.95
-9.18
-10.55
-11.03
-10.97
-10.86
-11.71
-14.43
-19.42
-26.45
-35.06
-44.78
-54.81
-63.83
-67.05
-60.73
-45.06
-24.72
-5.51
8.63
16.37
18.38
16.36
12.14
6.70
0.61
-5.50
-10.46
-13.19
-13.19
-10.77
-6.73
-2.00
2.13
5.21
7.20
8.59
9.83
11.17
12.65
14.46
16.90
19.96
23.25
25.56
25.89
23.57
18.54
11.51
3.85
-2.82
-7.42
-9.54
-9.34
-7.12
-3.26
1.46
5.45
6.47
2.39
-7.51
-21.31
-34.59
-41.95
-39.81
-28.51
-12.61
1.28
7.78
5.42
-2.92
-11.96
-16.93
-15.94
-10.29
-2.85
3.99
9.57
14.71
20.44
26.66
31.94
34.14
31.78
25.12
16.12
7.62
2.07
0.64
2.56
5.69
7.38
5.44
-0.86
-10.57
-21.32
-30.00
-33.64
-30.37
-19.86
-3.34
16.28
35.56
51.13
60.47
62.37
57.21
46.63
33.12
19.20
6.78
-3.06
-10.16
-14.87
-17.71
-19.12
-19.42
-18.87
-17.91
-17.06
-16.70
-16.98
-17.67
-18.37
-18.74
-18.64
-18.06
-17.11
-15.83
-14.11
-11.85
-9.04
-5.90
-2.78
-0.10
1.83
2.87
3.13
2.87
2.38
1.92
1.70
1.82
2.30
3.05
3.88
4.51
4.72
4.37
3.53
2.46
1.50
0.91
0.84
1.16
1.61
1.94
1.95
1.66
1.22
0.85
0.73
0.92
1.34
1.81
2.09
2.04
1.63
0.94
0.15
-0.55
-1.01
-1.23
-1.31
-1.37
-1.48
-1.58
-1.47
-0.95
0.07
1.39
2.56
3.06
2.53
1.03
-1.01
-2.90
-4.09
-4.22
-3.11
-0.73
2.70
6.70
10.43
12.83
12.93
10.35
5.52
-0.33
-5.74
-9.54
-11.25
-11.09
-9.61
-7.29
-4.39
-1.13
2.05
4.31
4.60
2.17
-2.95
-9.77
-16.53
-21.30
-22.79
-20.74
-16.02
-10.12
-4.54
-0.21
2.73
4.74
6.40
7.98
9.27
9.74
8.92
6.68
3.40
-0.13
-2.99
-4.43
-4.09
-2.10
1.02
4.46
7.39
9.21
9.78
9.43
8.67
7.93
7.26
6.43
5.07
2.91
0.16
-2.50
-4.14
-4.10
-2.40
0.39
3.45
6.11
7.94
9.00
9.80
10.95
12.66
14.51
15.59
15.15
12.80
8.63
3.46
-1.13
-3.44
-2.43
1.82
8.26
15.73
22.97
28.56
29.92
24.48
11.11
-8.71
-31.69
-54.48
-74.26
-89.97
-102.35
-112.37
-119.83
-122.72
-117.77
-102.15
-75.36
-40.72
-1.99
35.21
65.94
87.88
101.56
109.42
114.27
114.34
112.16
109.45
105.94
100.29
90.99
77.13
58.96
38.03
16.75
-1.66
-15.32
-24.19
-29.28
-31.85
-32.83
-32.66
-31.52
-29.84
-27.89
-26.57
-26.79
-28.59
-31.10
-33.05
-33.36
-31.64
-28.44
-24.53
-21.06
-18.84
-18.05
-17.86
-17.28
-15.52
-12.40
-8.33
-3.98
-0.14
2.57
3.99
4.33
4.04
3.62
3.51
3.99
5.10
6.50
7.63
7.96
7.24
5.57
3.44
1.50
0.30
-0.05
0.16
0.38
0.12
-0.79
-2.15
-3.52
-4.33
-4.26
-3.36
-2.08
-1.06
-0.81
-1.40
-2.56
-3.69
-4.00
-2.89
-0.23
3.51
7.37
10.38
11.89
11.84
10.63
9.21
8.58
9.36
11.54
14.58
17.81
20.80
23.53
24.95
23.99
20.30
14.75
8.89
3.52
-1.74
-8.07
-16.48
-27.20
-38.69
-47.90
-51.30
-46.50
-33.67
-15.71
2.57
17.84
27.95
32.68
33.54
32.91
32.93
34.22
35.69
35.06
29.81
17.65
-2.31
-29.29
-60.90
-91.18
-111.94
-117.16
-105.89
-82.02
-51.68
-20.58
7.09
28.96
44.33
51.66
50.03
40.75
27.94
17.06
12.77
17.15
28.39
42.12
52.65
55.89
51.21
41.48
31.21
24.23
22.05
23.72
27.02
29.52
29.90
27.99
24.33
19.53
13.82
7.25
0.12
-6.66
-11.96
-14.91
-15.52
-14.86
-14.64
-16.44
-20.97
-27.63
-34.71
-40.18
-42.44
-40.93
-36.34
-30.39
-25.18
-22.43
-22.75
-25.58
-29.52
-32.88
-34.25
-32.91
-28.87
-22.56
-14.62
-5.79
3.13
11.26
17.78
22.05
23.82
23.26
21.02
17.91
14.70
11.90
9.68
7.84
5.96
3.72
1.07
-1.69
-4.02
-5.46
-5.84
-5.44
-4.79
-4.41
-4.51
-4.88
-5.12
-4.89
-4.17
-3.29
-2.84
-3.30
-4.80
-6.97
-9.16
-10.64
-10.93
-9.95
-8.00
-5.56
-3.05
-0.64
1.70
4.08
6.48
8.69
10.29
10.86
10.20
8.41
5.85
3.07
0.56
-1.37
-2.64
-3.34
-3.62
-3.55
-3.17
-2.45
-1.40
-0.17
0.97
1.72
1.87
1.48
0.85
0.45
0.67
1.66
3.23
4.92
6.19
6.61
6.06
4.76
3.15
1.74
0.86
0.58
0.69
0.94
1.11
1.23
1.46
1.93
2.65
3.34
3.68
3.42
2.59
1.52
0.66
0.37
0.69
1.36
1.96
2.19
2.01
1.69
1.60
1.99
2.82
3.77
4.40
4.42
3.84
3.01
2.43
2.47
3.21
4.34
5.38
5.95
5.88
5.36
4.78
4.44
4.43
4.56
4.47
3.95
3.02
1.98
1.26
1.19
1.77
2.71
3.56
3.93
3.69
3.04
2.36
2.02
2.11
2.42
2.57
2.26
1.45
0.47
-0.17
-0.07
0.79
2.00
2.96
3.18
2.62
1.74
1.20
1.50
2.68
4.25
5.47
5.81
5.24
4.22
3.50
3.62
4.61
5.94
6.83
6.67
5.38
3.44
1.66
0.71
0.79
1.44
1.82
1.18
-0.83
-3.98
-7.64
-11.16
-14.07
-16.12
-17.12
-16.69
-14.31
-9.63
-2.78
5.31
13.11
19.04
21.96
21.59
18.48
13.81
8.92
4.91
2.29
1.05
0.81
1.17
1.80
2.60
3.69
5.18
7.05
8.77
9.67
9.33
7.76
5.43
2.94
0.80
-0.89
-2.46
-4.68
-8.24
-13.26
-19.24
-25.30
-30.45
-33.97
-35.50
-33.75
-28.40
-20.53
-12.29
-5.52
-1.01
1.37
2.32
2.82
3.86
5.81
8.30
10.52
11.64
11.17
9.18
6.06
2.34
-1.76
-6.62
-11.91
-16.73
-20.09
-21.47
-21.24
-20.47
-20.08
-20.09
-19.48
-16.61
-10.59
-2.04
6.80
13.83
17.53
17.84
16.11
14.21
13.63
14.68
16.60
18.31
19.05
18.73
17.90
17.35
16.86
16.22
14.88
12.40
8.80
4.73
1.19
-0.90
-1.19
-0.09
1.47
2.39
2.01
0.40
-1.77
-3.62
-4.62
-4.74
-4.46
-4.29
-4.53
-5.13
-5.71
-5.88
-5.49
-4.74
-4.07
-3.87
-4.26
-5.04
-5.79
-6.06
-5.64
-4.63
-3.41
-2.44
-2.05
-2.23
-2.73
-3.16
-3.24
-2.86
-2.18
-1.46
-0.91
-0.63
-0.54
-0.56
-0.61
-0.70
-0.88
-1.13
-1.34
-1.34
-0.96
-0.21
0.77
1.68
2.20
2.17
1.60
0.69
-0.27
-1.02
-1.39
-1.32
-0.88
-0.21
0.51
1.07
1.32
1.21
0.78
0.15
-0.52
-1.11
-1.56
-1.84
-1.91
-1.73
-1.29
-0.63
0.12
0.74
1.08
1.07
0.79
0.43
0.16
0.09
0.17
0.26
0.21
-0.02
-0.38
-0.72
-0.89
-0.84
-0.68
-0.57
-0.62
-0.78
-0.87
-0.66
-0.09
0.73
1.50
1.96
2.00
1.78
1.59
1.68
2.09
2.60
2.93
2.84
2.35
1.68
1.14
0.98
1.20
1.63
2.00
2.09
1.85
1.41
0.97
0.70
0.63
0.62
0.49
0.09
-0.58
-1.37
-2.05
-2.48
-2.62
-2.59
-2.53
-2.54
-2.59
-2.59
-2.45
-2.14
-1.73
-1.35
-1.12
-1.12
-1.33
-1.69
-2.04
-2.23
-2.14
-1.76
-1.20
-0.64
-0.28
-0.24
-0.50
-0.95
-1.39
-1.67
-1.74
-1.64
-1.47
-1.34
-1.26
-1.23
-1.18
-1.10
-1.02
-1.01
-1.14
-1.42
-1.76
-2.01
-2.03
-1.80
-1.43
-1.12
-1.05
-1.25
-1.61
-1.91
-1.97
-1.74
-1.29
-0.85
-0.55
-0.46
-0.52
-0.62
-0.65
-0.61
-0.54
-0.50
-0.48
-0.39
-0.17
0.23
0.79
1.36
1.79
1.97
1.86
1.55
1.15
0.78
0.52
0.36
0.27
0.21
0.14
0.10
0.09
0.16
0.30
0.45
0.53
0.44
0.11
-0.42
-1.03
-1.57
-1.87
-1.90
-1.70
-1.43
-1.21
-1.14
-1.23
-1.42
-1.69
-1.99
-2.28
-2.53
-2.66
-2.56
-2.17
-1.48
-0.59
0.30
0.92
1.04
0.60
-0.27
-1.25
-1.99
-2.23
-1.97
-1.43
-0.98
-0.87
-1.12
-1.50
-1.69
-1.46
-0.83
-0.05
0.54
0.72
0.49
0.07
-0.25
-0.30
-0.09
0.15
0.22
0.02
-0.32
-0.57
-0.51
-0.08
0.56
1.14
1.42
1.34
1.04
0.76
0.73
1.02
1.53
2.07
2.48
2.69
2.76
2.79
2.88
3.02
3.09
2.97
2.58
1.98
1.35
0.89
0.79
1.04
1.53
2.03
2.36
2.37
2.07
1.56
0.98
0.49
0.15
-0.01
-0.05
-0.05
-0.07
-0.14
-0.24
-0.30
-0.27
-0.17
-0.08
-0.09
-0.22
-0.40
-0.48
-0.32
0.09
0.63
1.05
1.18
1.03
0.75
0.59
0.70
1.06
1.48
1.71
1.60
1.16
0.59
0.10
-0.15
-0.17
-0.09
-0.13
-0.37
-0.73
-1.00
-0.98
-0.57
0.11
0.80
1.25
1.31
1.05
0.65
0.32
0.15
0.11
0.11
0.04
-0.11
-0.29
-0.44
-0.50
-0.48
-0.41
-0.37
-0.45
-0.70
-1.12
-1.57
-1.88
-1.84
-1.36
-0.53
0.43
1.22
1.65
1.68
1.45
1.17
1.01
1.02
1.13
1.19
1.14
0.97
0.78
0.67
0.64
0.67
0.63
0.43
0.06
-0.39
-0.76
-0.89
-0.74
-0.39
-0.02
0.20
0.24
0.20
0.25
0.46
0.78
1.06
1.16
1.03
0.79
0.58
0.54
0.68
0.91
1.08
1.11
0.99
0.84
0.79
1.00
1.53
2.34
3.29
4.11
4.53
4.40
3.77
2.88
2.09
1.71
1.86
2.43
3.15
3.76
4.08
4.16
4.18
4.34
4.77
5.41
6.07
6.53
6.67
6.57
6.44
6.51
6.94
7.69
8.54
9.21
9.49
9.32
8.81
8.15
7.54
7.09
6.83
6.73
6.71
6.68
6.53
6.13
5.39
4.26
2.79
1.13
-0.59
-2.18
-3.51
-4.53
-5.34
-6.27
-7.88
-10.60
-14.42
-18.59
-21.77
-22.57
-20.32
-15.45
-9.47
-4.22
-1.04
-0.22
-1.07
-2.49
-3.65
-4.40
-5.10
-6.18
-7.77
-9.53
-10.90
-11.47
-11.22
-10.55
-10.05
-10.18
-10.99
-12.14
-13.03
-13.16
-12.38
-10.93
-9.34
-8.09
-7.43
-7.25
-7.14
-6.68
-5.66
-4.19
-2.61
-1.28
-0.36
0.26
0.88
1.76
2.95
4.25
5.32
5.92
6.04
5.94
5.93
6.22
6.78
7.34
7.54
7.16
6.25
5.09
4.06
3.45
3.29
3.33
3.23
2.73
1.85
0.82
0.00
-0.38
-0.35
-0.13
-0.01
-0.13
-0.44
-0.74
-0.80
-0.53
-0.00
0.54
0.87
0.87
0.62
0.41
0.56
1.29
2.56
4.02
5.12
5.47
4.97
3.95
3.00
2.61
2.90
3.58
4.10
4.01
3.26
2.16
1.23
0.84
0.93
1.11
0.87
-0.07
-1.58
-3.19
-4.33
-4.66
-4.21
-3.38
-2.70
-2.52
-2.87
-3.41
-3.69
-3.35
-2.39
-1.15
-0.18
0.05
-0.62
-2.01
-3.68
-5.17
-6.19
-6.76
-7.05
-7.24
-7.38
-7.40
-7.15
-6.60
-5.87
-5.28
-5.11
-5.50
-6.30
-7.11
-7.52
-7.29
-6.56
-5.77
-5.49
-6.07
-7.48
-9.21
-10.56
-10.88
-9.89
-7.73
-4.92
-2.16
-0.12
0.79
0.56
-0.44
-1.57
-2.19
-1.85
-0.42
1.86
4.51
7.09
9.37
11.18
12.29
12.52
11.96
11.06
10.53
11.05
13.08
16.64
21.02
24.88
26.95
26.72
24.58
21.52
18.67
16.87
16.63
17.62
18.77
19.05
18.17
16.57
14.91
13.68
13.08
13.58
15.41
18.36
21.84
24.96
26.36
24.39
17.98
5.24
-11.44
-26.19
-33.83
-33.79
-29.48
-24.16
-19.56
-16.13
-13.45
-10.46
-6.79
-3.02
-0.20
0.99
0.52
-1.16
-3.43
-5.50
-6.33
-5.29
-2.40
1.88
6.98
11.81
15.27
16.53
15.55
13.02
9.51
5.26
0.39
-4.77
-10.21
-15.61
-20.50
-24.36
-26.62
-27.07
-25.90
-22.79
-18.55
-14.38
-11.13
-9.05
-7.99
-7.82
-8.66
-10.59
-13.40
-16.42
-18.45
-18.16
-15.02
-9.73
-3.88
0.95
4.34
7.01
9.95
14.02
19.29
24.76
28.65
29.33
25.32
17.74
9.11
2.04
-1.79
-2.41
-1.32
-0.61
-1.74
-4.78
-8.37
-10.64
-10.24
-6.90
-1.54
4.13
8.40
10.27
9.70
7.50
4.65
1.68
-1.39
-5.00
-9.38
-14.07
-17.94
-19.49
-17.62
-12.38
-5.07
2.27
7.81
10.63
10.86
9.23
6.43
2.76
-1.80
-6.98
-11.81
-14.80
-14.62
-10.85
-4.36
3.07
9.49
13.52
14.83
14.04
12.22
10.34
8.94
8.01
7.56
7.55
7.84
8.33
8.92
9.57
10.23
10.75
10.93
10.64
9.73
8.04
5.54
2.36
-1.21
-4.88
-8.48
-11.85
-14.73
-16.05
-15.12
-12.17
-8.33
-4.92
-2.69
-1.83
-2.19
-3.07
-3.88
-4.45
-4.84
-5.27
-5.99
-6.86
-7.98
-9.32
-10.72
-11.99
-13.12
-14.15
-15.15
-16.09
-16.77
-16.97
-16.38
-14.70
-11.89
-8.31
-4.53
-1.12
1.60
3.84
5.68
7.27
8.85
10.64
12.61
14.35
15.38
15.32
14.07
11.77
8.88
5.93
3.39
1.50
0.32
-0.05
0.45
1.66
3.43
5.53
7.76
9.87
11.44
11.91
10.88
8.21
4.25
-0.17
-3.81
-5.36
-4.01
0.02
5.44
10.52
13.60
13.24
8.32
-2.16
-17.56
-34.70
-48.64
-54.95
-51.35
-38.74
-20.88
-2.85
10.95
18.63
21.02
21.15
20.94
21.29
21.98
22.24
21.48
19.86
18.35
17.96
18.88
20.09
20.03
16.77
9.79
0.23
-9.43
-16.33
-18.57
-16.18
-11.06
-5.83
-2.64
-2.14
-3.56
-5.34
-6.10
-5.32
-3.53
-1.85
-1.20
-1.89
-3.52
-5.35
-6.61
-6.83
-5.97
-4.40
-2.63
-1.08
0.12
1.14
2.36
4.22
6.98
10.53
14.38
17.81
20.14
20.98
20.24
18.25
15.68
13.18
11.08
9.37
7.96
6.89
6.37
6.44
7.01
7.81
8.23
7.40
4.75
0.48
-4.35
-8.31
-10.68
-11.40
-10.90
-9.95
-9.47
-9.99
-11.37
-13.08
-14.63
-16.61
-19.78
-24.41
-30.06
-35.97
-41.11
-44.40
-45.08
-39.58
-27.61
-12.71
0.62
10.34
16.65
20.64
23.31
25.24
26.51
26.33
24.36
21.07
17.48
14.05
10.75
7.65
4.86
2.40
-0.19
-3.07
-5.90
-8.14
-10.00
-12.11
-15.03
-18.92
-23.69
-29.19
-34.84
-39.54
-39.52
-32.77
-20.46
-6.19
6.51
15.70
21.03
23.49
24.02
23.34
21.46
18.25
13.70
8.61
4.04
0.85
-0.50
-0.04
1.81
4.18
6.25
7.67
8.62
9.36
10.04
10.59
10.76
10.42
9.38
7.68
5.67
3.91
2.91
2.84
3.50
4.43
5.14
5.25
4.72
3.89
3.33
3.43
4.20
5.22
5.91
5.89
5.09
3.81
2.53
1.54
0.68
-0.62
-2.99
-6.68
-11.28
-15.70
-18.57
-18.84
-16.32
-11.79
-6.75
-2.69
-0.54
-0.30
-1.15
-2.03
-2.19
-1.60
-0.77
-0.38
-0.85
-2.12
-3.74
-5.25
-6.44
-7.39
-8.24
-9.03
-9.54
-9.52
-8.90
-7.96
-7.35
-7.70
-9.33
-11.97
-14.85
-17.02
-17.72
-16.72
-14.37
-11.47
-8.88
-7.20
-6.51
-6.29
-5.61
-3.49
0.65
6.65
13.65
20.40
25.81
29.36
31.24
32.13
32.68
33.16
33.41
33.01
31.65
29.38
26.52
23.54
20.73
18.15
15.79
13.69
12.09
11.27
11.37
12.17
13.04
13.18
11.99
9.39
5.90
2.42
-0.18
-1.45
-1.53
-0.96
-0.41
-0.29
-0.61
-1.13
-1.53
-1.70
-1.86
-2.41
-3.78
-6.10
-9.22
-12.72
-16.12
-19.11
-21.52
-23.31
-24.41
-24.63
-23.76
-21.77
-18.92
-15.80
-13.13
-11.47
-10.93
-11.20
-11.72
-11.94
-11.65
-11.01
-10.40
-10.21
-10.48
-10.88
-10.82
-9.73
-7.42
-4.22
-0.90
1.68
2.97
2.91
1.97
0.84
0.13
0.20
1.09
2.69
4.82
7.33
10.07
12.77
15.09
16.65
17.15
16.51
14.85
12.50
9.88
7.40
5.34
3.83
2.78
1.96
1.10
0.07
-1.07
-2.03
-2.41
-1.92
-0.53
1.44
3.43
4.87
5.39
4.94
3.79
2.33
0.96
-0.09
-0.77
-1.06
-0.94
-0.36
0.68
2.07
3.47
4.43
4.50
3.50
1.60
-0.69
-2.73
-4.02
-4.40
-4.06
-3.43
-2.90
-2.66
-2.64
-2.61
-2.30
-1.62
-0.66
0.38
1.31
2.12
2.94
4.07
5.79
8.21
11.15
14.12
16.38
17.19
15.96
12.46
6.90
-0.13
-7.80
-15.18
-21.30
-25.30
-26.56
-24.92
-20.76
-15.12
-9.45
-5.29
-3.81
-5.33
-9.25
-14.32
-19.06
-22.37
-23.78
-23.54
-22.35
-20.96
-19.78
-18.84
-17.92
-16.87
-15.79
-14.84
-14.18
-13.78
-13.37
-12.58
-11.04
-8.69
-5.84
-3.11
-0.94
0.51
1.34
1.83
2.46
3.71
5.90
8.98
12.60
16.45
20.39
24.38
28.47
32.81
37.45
42.17
46.44
48.41
46.69
41.49
34.62
28.01
22.65
18.75
16.23
15.00
15.05
16.34
18.64
21.15
22.48
20.94
15.09
4.40
-10.14
-25.82
-38.63
-44.97
-43.41
-35.59
-25.28
-16.45
-11.47
-10.44
-11.95
-14.42
-17.32
-21.18
-26.77
-34.01
-41.49
-47.38
-50.34
-50.37
-48.64
-46.89
-46.49
-48.07
-51.03
-53.71
-54.01
-50.21
-41.89
-30.12
-16.95
-4.33
7.10
17.66
28.21
39.18
49.87
58.68
64.06
65.01
62.76
59.17
55.86
53.59
52.14
50.79
49.10
47.03
45.12
44.09
44.51
46.50
49.64
52.68
53.78
50.91
42.73
29.34
12.52
-5.02
-20.65
-32.80
-41.20
-46.65
-49.93
-51.35
-50.63
-47.39
-41.88
-35.01
-28.18
-22.58
-18.56
-15.47
-12.18
-7.69
-1.77
4.70
10.20
13.13
12.71
9.26
4.15
-0.84
-4.22
-5.38
-4.68
-3.15
-1.85
-1.46
-2.00
-2.98
-3.77
-3.99
-3.68
-3.21
-2.93
-2.96
-3.10
-2.97
-2.34
-1.35
-0.45
-0.16
-0.69
-1.81
-2.97
-3.54
-3.22
-2.23
-1.08
-0.35
-0.25
-0.58
-0.88
-0.71
0.03
1.06
1.89
2.13
1.74
1.01
0.39
0.18
0.37
0.65
0.61
0.07
-0.84
-1.74
-2.25
-2.18
-1.64
-0.90
-0.35
-0.26
-0.68
-1.39
-2.09
-2.48
-2.43
-2.03
-1.51
-1.19
-1.24
-1.64
-2.22
-2.69
-2.78
-2.44
-1.83
-1.23
-0.84
-0.63
-0.30
0.59
2.34
4.85
7.53
9.62
10.45
9.86
8.18
6.16
4.52
3.68
3.55
3.67
3.51
2.77
1.52
0.16
-0.81
-1.11
-0.82
-0.33
-0.11
-0.41
-1.11
-1.84
-2.16
-1.84
-1.00
-0.06
0.57
0.68
0.38
-0.08
-0.46
-0.75
-1.18
-2.06
-3.48
-5.23
-6.79
-7.58
-7.25
-5.78
-3.50
-0.91
1.55
3.56
4.96
5.69
5.71
5.02
3.72
2.02
0.15
-1.64
-3.20
-4.45
-5.34
-5.78
-5.74
-5.22
-4.41
-3.54
-2.83
-2.39
-2.14
-1.84
-1.32
-0.52
0.39
1.15
1.57
1.67
1.67
1.89
2.47
3.33
4.12
4.48
4.22
3.50
2.72
2.36
2.69
3.60
4.73
5.59
5.91
5.74
5.41
5.30
5.69
6.51
7.46
8.14
8.31
7.97
7.38
6.83
6.49
6.25
5.85
5.06
3.86
2.48
1.27
0.51
0.17
-0.05
-0.58
-1.72
-3.50
-5.63
-7.65
-9.12
-9.84
-9.87
-9.46
-8.86
-8.23
-7.60
-6.92
-6.14
-5.29
-4.53
-3.98
-3.73
-3.69
-3.65
-3.35
-2.67
-1.67
-0.63
0.09
0.17
-0.46
-1.67
-3.14
-4.54
-5.58
-6.12
-6.16
-5.83
-5.28
-4.64
-4.04
-3.52
-3.13
-2.86
-2.70
-2.68
-2.82
-3.06
-3.33
-3.48
-3.37
-3.02
-2.53
-2.10
-1.90
-2.02
-2.35
-2.70
-2.81
-2.46
-1.61
-0.38
0.92
2.00
2.67
3.01
3.26
3.75
4.64
5.83
6.98
7.72
7.85
7.49
6.98
6.67
6.69
6.89
6.93
6.57
5.77
4.77
3.88
3.30
3.02
2.88
2.66
2.22
1.61
0.97
0.46
0.20
0.23
0.54
1.01
1.52
1.83
1.74
1.11
-0.07
-1.61
-3.17
-4.39
-4.96
-4.77
-3.88
-2.51
-0.97
0.46
1.53
2.16
2.33
2.15
1.79
1.43
1.16
1.02
0.96
0.90
0.76
0.58
0.41
0.31
0.29
0.32
0.33
0.30
0.32
0.48
0.85
1.40
2.04
2.61
2.98
3.10
2.96
2.62
2.12
1.54
0.94
0.43
0.10
0.07
0.42
1.18
2.31
3.63
4.86
5.67
5.85
5.35
4.36
3.18
2.09
1.25
0.66
0.22
-0.16
-0.50
-0.77
-0.95
-1.07
-1.22
-1.49
-1.98
-2.74
-3.80
-5.15
-6.72
-8.38
-9.85
-10.79
-10.92
-10.12
-8.49
-6.37
-4.21
-2.47
-1.43
-1.10
-1.27
-1.57
-1.65
-1.28
-0.51
0.48
1.36
1.95
2.18
2.20
2.20
2.35
2.69
3.16
3.69
4.26
4.89
5.57
6.18
6.45
6.13
5.12
3.60
2.01
0.86
0.56
1.17
2.49
4.11
5.65
6.84
7.60
7.97
8.03
7.85
7.51
7.11
6.72
6.39
6.09
5.73
5.17
4.30
3.13
1.70
0.14
-1.37
-2.62
-3.44
-3.72
-3.52
-3.07
-2.75
-2.91
-3.75
-5.20
-6.91
-8.39
-9.24
-9.27
-8.56
-7.38
-6.10
-5.01
-4.27
-3.87
-3.73
-3.71
-3.71
-3.65
-3.49
-3.20
-2.76
-2.20
-1.55
-0.91
-0.36
0.03
0.27
0.49
0.89
1.61
2.70
4.00
5.21
5.94
5.87
4.97
3.41
1.63
0.09
-0.85
-1.05
-0.63
0.17
1.08
1.91
2.58
3.07
3.40
3.56
3.56
3.37
3.02
2.56
2.02
1.39
0.65
-0.23
-1.25
-2.30
-3.22
-3.83
-4.02
-3.75
-3.16
-2.48
-2.02
-2.04
-2.69
-3.84
-5.16
-6.14
-6.32
-5.50
-3.83
-1.77
0.07
1.22
1.51
1.04
0.11
-0.92
-1.78
-2.31
-2.47
-2.28
-1.84
-1.29
-0.76
-0.41
-0.33
-0.56
-1.04
-1.60
-2.05
-2.16
-1.83
-1.13
-0.32
0.25
0.25
-0.46
-1.70
-3.03
-3.89
-3.79
-2.54
-0.27
2.61
5.53
8.03
9.80
10.76
10.97
10.55
9.65
8.41
6.96
5.42
3.92
2.49
1.11
-0.22
-1.46
-2.50
-3.21
-3.49
-3.36
-2.95
-2.45
-2.09
-2.04
-2.34
-2.96
-3.68
-4.22
-4.28
-3.72
-2.58
-1.12
0.32
1.46
2.16
2.45
2.40
2.12
1.62
0.95
0.19
-0.51
-1.04
-1.33
-1.45
-1.53
-1.65
-1.82
-1.95
-1.94
-1.72
-1.32
-0.78
-0.19
0.35
0.67
0.63
0.16
-0.60
-1.30
-1.46
-0.75
0.85
3.02
5.22
6.93
7.92
8.21
7.99
7.46
6.67
5.56
4.08
2.27
0.34
-1.46
-2.90
-3.86
-4.35
-4.44
-4.20
-3.63
-2.75
-1.63
-0.44
0.54
1.02
0.89
0.25
-0.54
-1.03
-0.89
-0.05
1.27
2.66
3.66
3.93
3.37
2.08
0.39
-1.37
-2.87
-3.96
-4.68
-5.21
-5.74
-6.38
-7.10
-7.72
-8.05
-7.94
-7.40
-6.49
-5.32
-3.99
-2.63
-1.45
-0.70
-0.67
-1.41
-2.73
-4.07
-4.73
-4.12
-2.03
1.22
4.95
8.35
10.85
12.26
12.66
12.29
11.31
9.79
7.78
5.38
2.84
0.48
-1.45
-2.79
-3.57
-3.85
-3.72
-3.24
-2.45
-1.47
-0.44
0.47
1.08
1.31
1.17
0.73
0.12
-0.52
-1.05
-1.37
-1.46
-1.35
-1.15
-0.99
-1.03
-1.34
-1.93
-2.67
-3.38
-3.84
-3.97
-3.80
-3.53
-3.37
-3.43
-3.67
-3.92
-3.97
-3.69
-3.10
-2.32
-1.46
-0.59
0.23
0.95
1.49
1.79
1.91
2.00
2.28
2.90
3.89
5.06
6.16
6.95
7.30
7.20
6.74
5.99
5.05
3.97
2.84
1.74
0.70
-0.24
-1.10
-1.82
-2.35
-2.62
-2.59
-2.31
-1.87
-1.42
-1.13
-1.13
-1.48
-2.19
-3.12
-4.07
-4.74
-4.87
-4.32
-3.16
-1.59
-0.00
1.21
1.73
1.44
0.43
-0.96
-2.29
-3.18
-3.43
-3.12
-2.49
-1.86
-1.39
-1.09
-0.80
-0.38
0.25
1.01
1.76
2.39
2.80
2.92
2.69
2.10
1.23
0.34
-0.27
-0.34
0.21
1.25
2.49
3.66
4.57
5.17
5.47
5.47
5.15
4.50
3.60
2.56
1.47
0.37
-0.79
-2.06
-3.38
-4.55
-5.30
-5.39
-4.82
-3.80
-2.73
-2.01
-1.93
-2.49
-3.51
-4.64
-5.50
-5.77
-5.28
-4.04
-2.28
-0.38
1.23
2.15
2.22
1.49
0.26
-1.08
-2.17
-2.82
-2.97
-2.74
-2.25
-1.64
-1.03
-0.50
-0.09
0.20
0.40
0.61
0.90
1.29
1.71
2.00
1.96
1.48
0.61
-0.39
-1.10
-1.13
-0.30
1.27
3.19
4.99
6.35
7.18
7.64
7.94
8.17
8.23
7.92
7.06
5.63
3.81
1.88
0.11
-1.32
-2.32
-2.94
-3.25
-3.38
-3.46
-3.59
-3.86
-4.27
-4.78
-5.25
-5.53
-5.45
-4.95
-4.05
-2.96
-1.92
-1.16
-0.72
-0.46
-0.13
0.45
1.31
2.27
3.06
3.50
3.57
3.46
3.40
3.57
4.01
4.61
5.22
5.69
5.97
6.13
6.23
6.33
6.37
6.24
5.82
5.07
4.11
3.14
2.43
2.17
2.40
2.98
3.66
4.16
4.30
4.06
3.53
2.86
2.19
1.57
0.96
0.29
-0.49
-1.39
-2.35
-3.31
-4.23
-5.06
-5.77
-6.36
-6.80
-7.12
-7.38
-7.65
-8.02
-8.51
-9.11
-9.79
-10.49
-11.09
-11.50
-11.57
-11.19
-10.33
-9.08
-7.66
-6.38
-5.53
-5.29
-5.67
-6.51
-7.59
-8.74
-9.86
-10.99
-12.15
-13.32
-14.42
-15.33
-16.01
-16.51
-16.94
-17.39
-17.85
-18.21
-18.35
-18.17
-17.62
-16.66
-15.25
-13.35
-10.98
-8.25
-5.38
-2.60
-0.06
2.17
4.13
5.91
7.63
9.41
11.33
13.42
15.59
17.66
19.37
20.49
20.96
20.87
20.43
19.86
19.24
18.62
17.95
17.23
16.51
15.85
15.26
14.72
14.17
13.58
12.93
12.22
11.44
10.57
9.62
8.63
7.69
6.88
6.21
5.62
5.02
4.32
3.56
2.82
2.24
1.89
1.75
1.69
1.59
1.36
1.00
0.61
0.24
-0.10
-0.47
-0.97
-1.64
-2.39
-3.05
-3.41
-3.36
-2.95
-2.37
-1.86
-1.58
-1.56
-1.65
-1.68
-1.49
-1.07
-0.47
0.17
0.74
1.16
1.40
1.46
1.36
1.15
0.88
0.62
0.42
0.34
0.38
0.50
0.66
0.81
0.95
1.06
1.19
1.32
1.42
1.44
1.37
1.20
0.97
0.74
0.52
0.31
0.10
-0.11
-0.25
-0.27
-0.17
-0.02
0.07
0.02
-0.18
-0.41
-0.53
-0.44
-0.16
0.18
0.41
0.41
0.20
-0.17
-0.58
-0.98
-1.32
-1.57
-1.68
-1.60
-1.31
-0.87
-0.44
-0.13
-0.04
-0.14
-0.28
-0.30
-0.09
0.34
0.88
1.39
1.72
1.79
1.62
1.30
0.92
0.57
0.26
-0.02
-0.34
-0.71
-1.11
-1.43
-1.56
-1.41
-0.97
-0.28
0.53
1.31
1.95
2.37
2.58
2.60
2.49
2.31
2.10
1.89
1.69
1.49
1.27
1.04
0.79
0.54
0.32
0.17
0.14
0.26
0.53
0.90
1.29
1.59
1.67
1.44
0.86
-0.04
-1.13
-2.21
-3.08
-3.59
-3.67
-3.43
-3.09
-2.88
-2.96
-3.31
-3.73
-3.97
-3.83
-3.27
-2.43
-1.56
-0.86
-0.45
-0.30
-0.32
-0.44
-0.68
-1.07
-1.64
-2.29
-2.81
-3.01
-2.79
-2.23
-1.56
-1.06
-0.89
-1.03
-1.33
-1.58
-1.65
-1.52
-1.24
-0.87
-0.46
0.02
0.54
1.05
1.47
1.70
1.72
1.57
1.38
1.27
1.33
1.63
2.16
2.89
3.77
4.70
5.58
6.28
6.73
6.93
6.94
6.83
6.67
6.41
5.96
5.24
4.19
2.88
1.44
0.00
-1.32
-2.49
-3.50
-4.34
-5.01
-5.53
-5.99
-6.53
-7.19
-7.93
-8.50
-8.60
-8.02
-6.76
-5.10
-3.46
-2.30
-1.89
-2.27
-3.30
-4.70
-6.12
-7.24
-7.80
-7.67
-6.87
-5.62
-4.22
-2.97
-2.09
-1.64
-1.57
-1.78
-2.12
-2.42
-2.53
-2.33
-1.74
-0.79
0.41
1.68
2.80
3.60
4.02
4.13
4.07
4.04
4.19
4.52
4.94
5.29
5.48
5.50
5.44
5.40
5.39
5.29
4.92
4.13
2.95
1.56
0.23
-0.83
-1.51
-1.89
-2.12
-2.30
-2.46
-2.51
-2.35
-1.90
-1.23
-0.53
-0.06
0.01
-0.39
-1.14
-2.05
-2.95
-3.71
-4.28
-4.61
-4.61
-4.14
-3.15
-1.75
-0.24
0.94
1.41
1.08
0.14
-1.00
-1.90
-2.32
-2.30
-2.05
-1.81
-1.69
-1.64
-1.48
-1.07
-0.37
0.50
1.35
2.01
2.41
2.63
2.86
3.23
3.76
4.27
4.44
4.01
2.95
1.60
0.53
0.29
1.19
3.10
5.52
7.75
9.26
9.84
9.65
9.08
8.51
8.18
8.06
7.99
7.74
7.16
6.26
5.15
4.00
2.94
2.02
1.17
0.27
-0.78
-2.00
-3.43
-5.09
-7.01
-9.17
-11.48
-13.66
-15.28
-15.96
-15.49
-13.99
-11.90
-9.80
-8.26
-7.65
-8.03
-9.20
-10.81
-12.44
-13.75
-14.51
-14.67
-14.29
-13.49
-12.31
-10.79
-8.87
-6.63
-4.28
-2.14
-0.54
0.40
0.82
1.03
1.38
2.01
2.84
3.69
4.37
4.88
5.37
6.03
6.92
7.98
9.02
9.90
10.56
11.09
11.60
12.15
12.65
13.00
13.08
12.83
12.22
11.27
10.11
8.86
7.70
6.78
6.15
5.79
5.58
5.33
4.93
4.35
3.57
2.51
1.08
-0.65
-2.42
-3.78
-4.27
-3.69
-2.10
-0.07
1.53
2.04
1.34
-0.09
-1.53
-2.32
-2.23
-1.17
0.38
1.65
2.12
1.83
1.29
1.12
1.78
3.37
6.10
9.38
12.07
13.20
12.67
11.21
9.99
9.97
11.65
15.69
21.60
28.02
33.39
36.50
36.37
32.11
23.09
6.72
-14.98
-37.04
-55.08
-68.25
-77.94
-85.00
-88.33
-85.55
-76.17
-58.81
-35.24
-9.78
12.83
29.59
39.93
45.26
47.91
47.58
45.37
41.62
36.24
29.34
21.65
14.27
8.15
3.76
1.04
0.43
1.73
4.34
7.60
10.95
13.86
15.71
15.87
13.83
9.92
4.53
-1.83
-8.54
-14.98
-20.65
-25.29
-28.93
-31.83
-34.04
-35.84
-37.55
-39.30
-40.96
-42.12
-42.19
-40.55
-36.78
-30.68
-22.57
-13.16
-3.43
5.60
13.06
18.46
21.81
23.39
23.68
23.02
21.64
19.89
18.16
16.81
16.04
15.72
15.42
14.58
12.98
10.94
9.43
9.44
11.43
15.21
20.04
24.92
28.98
31.76
33.23
33.89
34.10
33.88
32.97
31.00
27.66
22.96
17.37
10.45
3.24
-2.61
-5.86
-6.48
-5.44
-4.06
-3.66
-5.24
-9.26
-15.23
-21.97
-27.89
-31.18
-30.51
-25.47
-16.82
-6.14
4.68
14.24
21.57
25.63
25.96
22.70
16.38
7.58
-3.16
-15.40
-28.42
-41.23
-52.59
-61.06
-65.46
-65.19
-60.47
-52.41
-42.74
-33.24
-25.32
-19.66
-16.10
-13.97
-12.41
-10.79
-9.03
-7.51
-6.72
-6.87
-7.73
-8.70
-9.14
-8.53
-6.59
-3.32
1.05
6.37
12.73
20.22
28.72
36.73
41.85
42.37
38.34
31.24
22.89
14.90
8.42
4.07
1.85
1.42
2.19
3.38
4.24
4.31
3.67
2.77
2.13
1.78
1.57
1.30
0.88
0.35
-0.07
-0.18
0.01
0.26
0.18
-0.46
-1.50
-2.62
-3.48
-3.93
-4.00
-3.94
-3.96
-4.13
-4.35
-4.39
-4.13
-3.62
-3.03
-2.54
-2.16
-1.77
-1.21
-0.37
0.71
1.87
2.89
3.66
4.18
4.61
5.10
5.74
6.48
7.20
7.75
8.04
8.10
7.97
7.74
7.44
7.08
6.64
6.13
5.58
5.04
4.53
4.07
3.62
3.14
2.63
2.09
1.52
0.90
0.19
-0.65
-1.58
-2.50
-3.26
-3.72
-3.80
-3.49
-2.82
-1.85
-0.65
0.64
1.85
2.73
2.99
2.40
0.93
-1.19
-3.48
-5.33
-6.21
-5.87
-4.49
-2.58
-0.78
0.43
0.83
0.54
-0.19
-1.10
-1.98
-2.68
-3.08
-3.10
-2.73
-2.08
-1.38
-0.86
-0.71
-0.96
-1.49
-2.07
-2.44
-2.44
-2.01
-1.29
-0.56
-0.12
-0.18
-0.76
-1.65
-2.57
-3.23
-3.51
-3.44
-3.12
-2.69
-2.24
-1.85
-1.58
-1.49
-1.62
-1.95
-2.42
-2.95
-3.45
-3.81
-3.96
-3.83
-3.42
-2.80
-2.13
-1.58
-1.29
-1.27
-1.47
-1.72
-1.88
-1.88
-1.69
-1.33
-0.84
-0.31
0.16
0.46
0.50
0.28
-0.12
-0.55
-0.82
-0.80
-0.47
0.02
0.40
0.32
-0.44
-1.85
-3.54
-4.94
-5.52
-5.05
-3.71
-2.01
-0.48
0.56
1.11
1.37
1.56
1.72
1.78
1.64
1.34
1.06
1.09
1.65
2.76
4.16
5.42
6.01
5.54
3.97
1.61
-0.88
-2.74
-3.38
-2.62
-0.69
1.83
4.26
5.94
6.46
5.68
3.81
1.38
-0.92
-2.37
-2.51
-1.30
0.92
3.49
5.68
6.84
6.61
5.00
2.41
-0.39
-2.53
-3.33
-2.57
-0.58
1.91
4.04
5.15
4.99
3.71
1.76
-0.27
-1.86
-2.61
-2.34
-1.09
0.80
2.81
4.35
4.89
4.20
2.38
-0.08
-2.48
-4.11
-4.49
-3.57
-1.69
0.50
2.25
2.96
2.38
0.63
-1.83
-4.30
-6.08
-6.70
-6.03
-4.30
-1.98
0.34
2.15
3.06
2.88
1.65
-0.30
-2.40
-3.99
-4.46
-3.51
-1.25
1.80
4.86
7.10
7.90
7.06
4.89
2.10
-0.42
-1.87
-1.89
-0.55
1.60
3.88
5.60
6.29
5.77
4.12
1.67
-1.05
-3.41
-4.86
-5.06
-4.05
-2.24
-0.32
0.99
1.14
-0.01
-2.15
-4.57
-6.46
-7.11
-6.22
-3.93
-0.79
2.39
4.78
5.74
4.99
2.75
-0.27
-3.10
-4.81
-4.82
-3.12
-0.26
2.87
5.29
6.30
5.57
3.28
0.05
-3.19
-5.51
-6.16
-4.94
-2.24
1.05
3.81
5.08
4.43
2.09
-1.16
-4.29
-6.32
-6.70
-5.37
-2.80
0.26
2.95
4.60
4.89
3.93
2.17
0.26
-1.13
-1.55
-0.82
0.93
3.26
5.54
7.06
7.27
5.93
3.29
0.10
-2.61
-3.92
-3.34
-1.06
2.13
5.13
6.90
6.86
5.04
2.00
-1.31
-3.94
-5.18
-4.74
-2.77
0.19
3.38
5.95
7.17
6.66
4.51
1.37
-1.73
-3.71
-3.87
-2.15
0.84
4.04
6.33
6.97
5.79
3.23
0.18
-2.32
-3.41
-2.68
-0.37
2.77
5.69
7.41
7.27
5.19
1.67
-2.36
-5.82
-7.79
-7.80
-5.80
-2.19
2.21
6.38
9.24
9.96
8.15
4.06
-1.40
-6.71
-10.38
-11.46
-9.82
-6.11
-1.33
3.62
8.15
12.03
15.43
18.49
21.19
23.38
24.97
26.15
27.29
28.83
29.38
27.74
23.25
16.27
7.92
-0.56
-8.13
-14.11
-18.35
-21.15
-23.01
-24.52
-25.98
-27.35
-28.24
-28.23
-27.18
-25.72
-24.34
-23.33
-22.71
-22.13
-21.15
-19.46
-17.12
-14.56
-12.36
-10.90
-10.16
-9.83
-9.51
-9.02
-8.42
-7.94
-7.75
-7.86
-7.97
-7.63
-6.41
-4.08
-0.73
3.26
7.35
10.98
13.74
15.42
15.99
15.51
14.13
12.08
9.64
7.11
4.81
2.96
1.66
0.89
0.63
0.82
1.42
2.31
3.29
4.12
4.61
4.74
4.65
4.58
4.72
5.05
5.42
5.64
5.62
5.43
5.26
5.27
5.52
5.92
6.27
6.47
6.48
6.39
6.29
6.17
5.94
5.41
4.45
3.08
1.49
0.00
-1.06
-1.50
-1.29
-0.56
0.49
1.65
2.74
3.62
4.21
4.41
4.23
3.70
2.99
2.26
1.75
1.66
2.16
3.37
5.24
7.51
9.73
11.34
11.83
10.92
8.74
5.76
2.65
0.04
-1.70
-2.57
-2.84
-2.90
-3.11
-3.67
-4.63
-5.95
-7.56
-9.43
-11.54
-13.83
-16.19
-18.51
-20.72
-22.87
-25.00
-27.08
-28.88
-29.97
-29.86
-28.25
-25.25
-21.32
-17.17
-13.40
-10.32
-7.98
-6.37
-5.51
-5.33
-5.46
-5.13
-3.46
0.02
4.88
9.72
12.89
13.40
11.51
8.63
6.48
6.10
7.41
9.38
10.77
10.97
10.17
9.09
8.39
8.21
8.24
8.08
7.54
6.65
5.62
4.73
4.11
3.71
3.39
3.01
2.73
2.80
3.33
4.22
5.29
6.37
7.33
8.09
8.62
9.19
9.84
10.26
9.90
8.38
5.89
3.09
0.94
0.40
2.54
7.60
14.84
22.64
29.20
33.09
33.43
29.87
20.65
6.26
-10.23
-24.54
-33.73
-37.69
-37.75
-35.04
-30.43
-24.58
-17.61
-10.21
-3.47
1.41
3.67
3.37
1.24
-1.79
-4.93
-7.44
-9.12
-10.26
-11.29
-12.41
-13.40
-13.88
-13.64
-12.73
-11.22
-9.41
-7.74
-6.74
-6.85
-8.18
-10.48
-13.20
-15.46
-16.34
-15.20
-12.00
-7.28
-1.93
3.10
7.08
9.60
10.74
10.95
10.82
10.95
11.74
13.31
15.53
18.06
20.50
22.67
24.39
25.43
25.64
24.94
23.48
21.58
19.61
17.74
16.15
14.65
12.79
10.38
7.63
5.28
4.28
5.37
8.64
13.73
19.53
24.53
27.66
28.57
27.87
26.77
26.61
26.10
24.77
22.78
20.24
16.47
9.99
-0.33
-14.23
-29.73
-43.79
-53.24
-56.55
-55.32
-51.37
-46.61
-42.29
-38.67
-35.29
-31.65
-27.49
-23.31
-19.97
-17.88
-16.87
-15.64
-13.04
-8.24
-1.21
7.53
16.88
25.63
33.07
39.00
43.84
48.26
52.92
58.08
63.46
68.22
71.21
71.37
67.77
59.87
47.79
32.68
16.86
3.50
-4.44
-5.33
0.22
9.28
17.64
21.58
19.29
11.41
0.40
-10.85
-20.21
-26.72
-30.46
-32.09
-32.82
-34.45
-39.31
-49.45
-65.41
-85.17
-104.10
-116.29
-116.96
-104.53
-81.52
-53.64
-27.73
-9.35
-1.08
-2.02
-8.58
-16.06
-20.25
-18.61
-10.82
1.32
14.38
24.71
29.74
28.87
23.34
15.40
7.34
0.64
-4.39
-8.62
-13.35
-19.38
-26.55
-33.82
-39.62
-42.20
-40.17
-33.02
-21.91
-9.35
1.66
8.72
10.66
7.88
2.20
-3.94
-6.72
-3.68
4.19
13.34
20.95
26.46
30.77
34.80
38.52
40.93
40.58
36.64
30.20
23.15
17.34
13.81
12.66
13.26
14.86
16.90
19.23
21.45
22.65
20.23
11.20
-5.31
-26.73
-47.25
-60.25
-61.04
-50.06
-29.31
-3.15
23.39
46.39
63.34
73.13
75.63
71.57
62.57
51.08
39.15
27.06
15.80
5.42
-5.05
-17.06
-31.52
-47.02
-59.05
-62.92
-56.72
-42.22
-24.00
-6.97
5.42
12.00
13.64
12.70
10.14
6.15
1.02
-4.79
-10.41
-14.75
-16.91
-16.56
-14.13
-10.42
-6.51
-2.56
1.09
4.16
6.61
8.88
11.61
15.15
19.10
22.56
24.70
24.93
23.23
20.05
16.00
11.61
7.17
2.75
-1.62
-5.72
-9.33
-12.15
-14.02
-14.93
-15.01
-14.46
-13.49
-12.25
-10.82
-9.46
-8.15
-6.95
-5.91
-5.13
-4.67
-4.57
-4.82
-5.33
-6.00
-6.65
-7.09
-7.17
-6.80
-5.92
-4.55
-2.75
-0.58
1.87
4.53
7.19
9.51
11.09
11.60
10.94
9.33
7.22
5.15
3.45
2.42
2.16
2.53
3.28
4.12
4.82
5.21
5.22
4.84
4.16
3.31
2.44
1.70
1.20
1.01
1.15
1.52
1.98
2.31
2.32
1.94
1.24
0.47
-0.08
-0.25
-0.05
0.31
0.56
0.49
0.02
-0.75
-1.63
-2.41
-2.96
-3.25
-3.30
-3.13
-2.79
-2.30
-1.74
-1.18
-0.71
-0.35
-0.14
-0.07
-0.16
-0.42
-0.80
-1.20
-1.46
-1.45
-1.13
-0.58
-0.01
0.39
0.51
0.38
0.09
-0.19
-0.37
-0.40
-0.28
-0.06
0.16
0.28
0.20
-0.12
-0.61
-1.08
-1.40
-1.47
-1.34
-1.15
-1.00
-0.94
-0.89
-0.77
-0.53
-0.23
0.02
0.13
0.09
-0.00
-0.05
0.01
0.16
0.29
0.32
0.24
0.13
0.12
0.30
0.61
0.88
0.89
0.51
-0.23
-1.11
-1.82
-2.11
-1.91
-1.35
-0.66
-0.07
0.31
0.47
0.45
0.30
-0.00
-0.45
-1.01
-1.56
-1.93
-2.00
-1.71
-1.17
-0.58
-0.15
0.00
-0.09
-0.24
-0.24
0.01
0.51
1.07
1.50
1.62
1.43
1.03
0.61
0.35
0.37
0.67
1.16
1.66
1.98
1.95
1.54
0.80
-0.07
-0.87
-1.45
-1.73
-1.76
-1.58
-1.26
-0.87
-0.51
-0.28
-0.32
-0.67
-1.25
-1.85
-2.20
-2.15
-1.67
-0.94
-0.17
0.45
0.80
0.90
0.82
0.65
0.50
0.46
0.55
0.75
0.99
1.12
1.05
0.77
0.39
0.08
-0.02
0.12
0.39
0.62
0.64
0.43
0.02
-0.45
-0.93
-1.38
-1.80
-2.22
-2.57
-2.79
-2.80
-2.62
-2.35
-2.13
-2.06
-2.15
-2.34
-2.54
-2.64
-2.57
-2.26
-1.71
-0.95
-0.05
0.86
1.70
2.39
2.93
3.33
3.56
3.61
3.43
3.04
2.54
2.09
1.82
1.72
1.68
1.51
1.07
0.41
-0.31
-0.89
-1.21
-1.29
-1.28
-1.34
-1.55
-1.85
-2.14
-2.26
-2.11
-1.66
-0.92
0.03
1.07
2.05
2.88
3.53
4.06
4.60
5.19
5.76
6.14
6.18
5.80
5.01
3.94
2.66
1.25
-0.24
-1.71
-2.94
-3.69
-3.82
-3.37
-2.61
-1.95
-1.74
-2.17
-3.23
-4.71
-6.34
-7.86
-9.11
-10.08
-10.95
-11.89
-13.10
-14.60
-16.27
-17.90
-19.23
-20.09
-20.45
-20.40
-20.00
-19.33
-18.46
-17.45
-16.40
-15.40
-14.52
-13.81
-13.22
-12.52
-11.43
-9.75
-7.49
-4.84
-2.10
0.37
2.25
3.39
4.23
5.31
7.05
9.52
12.44
15.34
17.78
19.44
20.41
21.52
23.64
27.14
31.66
36.34
40.19
42.52
43.10
42.18
40.99
40.57
41.40
43.24
45.51
47.73
49.46
50.25
46.18
34.92
16.91
-4.17
-23.60
-37.88
-45.34
-46.10
-41.68
-34.68
-26.34
-17.61
-9.37
-2.49
2.36
4.93
5.45
4.58
2.58
0.77
0.22
1.29
3.54
6.15
8.44
10.13
11.26
12.00
12.79
13.58
13.83
12.74
9.58
4.02
-3.75
-13.11
-23.04
-32.08
-38.95
-42.72
-43.17
-40.74
-36.37
-31.17
-26.05
-21.52
-17.64
-14.31
-11.45
-9.10
-7.35
-6.26
-5.70
-5.36
-4.87
-4.00
-2.75
-1.30
0.00
0.76
0.74
0.05
-0.89
-1.44
-1.15
0.09
2.13
4.64
7.28
9.88
12.26
13.95
14.88
14.94
13.59
10.74
6.79
2.53
-1.16
-3.62
-4.56
-4.12
-2.72
-0.77
1.72
4.84
8.52
12.35
15.71
18.02
19.00
18.65
16.60
13.04
8.53
3.60
-1.40
-6.17
-9.94
-11.89
-11.13
-7.75
-2.64
2.75
6.90
8.76
8.13
5.59
2.21
-0.84
-2.72
-2.98
-1.87
-0.30
0.51
-0.54
-4.09
-10.17
-18.20
-27.19
-35.85
-42.94
-47.51
-49.11
-47.77
-43.92
-38.29
-31.70
-25.02
-18.92
-13.87
-10.06
-7.25
-4.88
-2.17
1.55
6.52
12.43
18.54
23.95
27.93
30.14
30.64
29.71
27.61
24.45
20.33
15.46
10.29
5.44
1.49
-1.21
-2.61
-2.78
-1.71
0.89
5.41
12.08
20.57
29.96
39.01
46.49
51.42
53.06
50.86
44.41
33.68
19.33
3.00
-12.80
-25.32
-32.52
-33.66
-29.32
-20.92
-10.06
1.75
13.44
24.24
33.42
39.94
42.63
40.65
33.99
23.67
11.20
-1.57
-12.95
-21.68
-27.43
-30.66
-32.11
-32.38
-31.74
-30.77
-30.03
-30.04
-30.92
-32.72
-35.42
-38.56
-41.43
-40.68
-34.61
-24.44
-13.74
-5.28
-0.10
1.91
1.33
-1.33
-5.73
-12.49
-21.34
-31.15
-39.50
-43.99
-43.20
-36.86
-25.83
-11.80
2.92
17.19
27.99
34.66
38.80
41.20
42.51
43.28
43.89
44.10
43.27
40.42
35.16
27.17
16.45
3.53
-10.19
-22.72
-32.35
-38.10
-39.83
-37.60
-31.95
-22.49
-10.71
0.90
10.43
17.95
24.24
29.71
34.82
38.64
40.47
39.84
36.87
32.18
26.32
19.48
11.69
3.38
-4.58
-10.93
-14.75
-15.63
-13.96
-10.75
-7.41
-5.00
-3.96
-4.22
-5.35
-6.95
-8.62
-9.99
-10.86
-11.27
-11.25
-10.69
-9.32
-6.75
-2.97
1.50
5.64
8.25
8.48
6.42
3.05
-0.07
-1.63
-1.14
0.93
3.43
5.10
4.93
2.45
-2.24
-8.55
-15.51
-21.99
-26.90
-29.43
-29.33
-27.00
-23.36
-19.56
-16.65
-15.25
-15.49
-17.06
-19.34
-21.66
-23.44
-24.26
-23.87
-22.19
-19.29
-15.36
-10.71
-5.77
-1.10
2.75
5.28
6.27
5.89
4.79
4.01
4.66
7.55
12.81
19.82
27.36
34.06
38.85
41.15
40.85
38.18
33.50
27.38
20.60
14.24
9.36
6.76
6.59
8.33
11.04
13.75
15.82
17.10
17.80
18.19
18.39
18.24
17.44
15.71
13.04
9.72
6.33
3.46
1.51
0.58
0.47
0.82
1.30
1.64
1.66
1.20
0.11
-1.68
-4.13
-7.00
-9.96
-12.62
-14.68
-15.90
-16.11
-15.22
-13.25
-10.46
-7.36
-4.60
-2.81
-2.33
-3.13
-4.87
-7.02
-9.07
-10.62
-11.43
-11.32
-10.19
-8.02
-4.96
-1.35
2.28
5.34
7.32
7.98
7.39
5.88
3.97
2.15
0.84
0.30
0.65
1.84
3.72
6.01
8.46
10.83
13.04
15.19
17.49
20.11
22.96
25.57
27.05
26.38
22.77
16.03
6.83
-3.45
-13.11
-20.67
-25.32
-27.13
-26.82
-25.42
-23.83
-22.55
-21.69
-21.10
-20.62
-20.20
-19.84
-19.52
-19.11
-18.35
-17.02
-15.03
-12.55
-9.80
-7.00
-4.10
-0.86
2.98
7.48
12.34
16.96
20.59
22.63
22.82
21.32
18.67
15.57
12.66
10.45
9.20
8.93
9.51
10.67
12.12
13.51
14.36
14.19
12.70
9.99
6.55
3.14
0.59
-0.51
0.03
1.68
3.58
4.93
5.35
4.97
4.16
3.38
2.90
2.76
2.37
1.07
-1.51
-5.15
-9.25
-13.09
-16.11
-17.96
-18.46
-18.06
-17.37
-16.98
-17.25
-18.52
-21.26
-25.79
-32.07
-36.63
-35.89
-28.20
-15.38
-1.06
11.67
21.21
27.52
31.41
34.17
35.72
35.03
30.85
22.44
9.98
-5.65
-21.97
-36.05
-45.12
-47.76
-43.91
-34.67
-21.73
-6.95
7.89
21.38
32.42
40.35
44.75
45.71
43.88
40.29
35.95
31.39
26.57
20.97
14.09
5.73
-3.63
-12.89
-20.59
-25.44
-26.74
-24.53
-19.52
-12.86
-5.82
0.47
5.13
7.67
8.01
6.53
3.94
1.12
-1.26
-2.96
-4.36
-6.21
-9.28
-13.94
-19.74
-25.52
-29.68
-30.70
-27.70
-20.80
-11.04
-0.16
9.95
17.74
22.35
23.67
22.18
18.61
13.77
8.40
3.25
-0.98
-3.75
-4.83
-4.50
-3.47
-2.54
-2.24
-2.56
-2.85
-2.24
0.02
4.09
9.49
15.29
20.41
24.04
25.70
25.29
22.98
19.12
14.14
8.54
2.84
-2.52
-7.24
-11.29
-14.87
-18.33
-21.98
-25.90
-29.80
-33.06
-34.83
-34.30
-30.94
-24.78
-16.49
-7.26
1.42
8.22
12.34
13.71
12.92
10.90
8.51
6.22
3.92
1.15
-2.64
-7.68
-13.69
-19.84
-24.96
-27.82
-27.48
-23.53
-16.18
-6.21
5.18
16.61
26.83
34.83
40.05
42.31
41.79
38.84
33.85
27.15
19.04
9.94
0.53
-8.21
-15.18
-19.43
-20.47
-18.39
-13.81
-7.63
-0.70
6.31
12.97
19.06
24.44
29.10
33.01
36.13
38.25
38.95
37.69
34.08
28.12
20.36
11.70
3.16
-4.56
-11.29
-17.44
-23.68
-30.68
-38.69
-47.50
-56.38
-64.23
-69.85
-72.08
-70.11
-63.62
-53.02
-39.47
-24.83
-11.27
-0.76
5.45
7.15
5.14
0.87
-4.16
-8.84
-12.69
-15.76
-18.38
-20.96
-23.81
-27.12
-30.72
-33.90
-35.28
-33.08
-25.72
-12.71
4.70
23.56
39.95
50.32
52.65
46.99
35.10
19.48
2.32
-15.02
-31.79
-47.20
-59.79
-67.48
-68.23
-61.10
-46.91
-28.17
-8.31
9.66
23.97
34.29
41.29
45.83
48.37
49.03
47.94
45.57
42.80
40.62
39.78
40.40
41.76
42.44
40.83
35.72
26.78
14.67
0.72
-13.34
-25.94
-36.08
-43.44
-47.87
-48.95
-46.03
-38.60
-27.19
-13.08
1.98
16.16
27.92
36.61
42.33
45.61
47.00
46.50
44.33
40.97
36.70
30.84
22.23
10.05
-5.67
-23.65
-42.09
-58.30
-69.54
-74.07
-72.24
-65.50
-55.36
-43.06
-26.04
-5.56
14.06
28.25
37.83
44.53
49.33
53.17
56.59
59.36
59.38
54.03
41.49
22.11
-2.13
-27.33
-48.48
-61.46
-63.94
-56.84
-43.13
-26.31
-8.79
7.44
21.12
31.84
39.36
44.13
46.34
46.27
44.48
42.09
38.95
33.35
22.90
4.09
-21.82
-48.52
-68.50
-80.78
-85.51
-83.56
-76.62
-63.47
-44.91
-22.00
3.17
27.45
47.41
61.03
67.41
66.86
61.06
51.72
40.55
28.38
15.39
1.76
-11.20
-22.12
-30.13
-34.51
-35.40
-33.24
-28.93
-23.59
-18.22
-13.27
-9.19
-6.39
-4.06
-1.02
3.98
11.63
21.92
34.45
48.78
64.34
76.87
82.78
81.19
74.14
64.12
52.66
40.79
29.65
21.06
14.20
8.70
3.88
-1.40
-8.24
-16.95
-26.82
-35.45
-40.28
-39.69
-32.76
-20.11
-3.82
13.32
28.69
40.36
46.98
47.41
40.69
27.03
7.75
-14.90
-38.13
-59.21
-76.15
-88.17
-95.83
-100.60
-103.76
-106.16
-108.02
-109.05
-108.63
-106.05
-100.75
-92.59
-81.90
-69.24
-55.34
-40.92
-26.46
-12.27
1.38
14.17
25.61
35.17
42.58
47.91
51.50
53.77
54.97
55.09
53.99
51.63
48.30
44.62
41.31
38.91
37.52
36.80
36.19
35.13
33.34
30.87
28.02
25.18
22.60
20.30
18.16
15.99
13.74
11.52
9.55
8.03
7.02
6.37
5.81
5.04
3.90
2.45
0.89
-0.51
-1.55
-2.17
-2.46
-2.59
-2.73
-2.93
-3.17
-3.28
-3.14
-2.72
-2.12
-1.49
-0.99
-0.67
-0.47
-0.26
0.07
0.57
1.18
1.78
2.23
2.43
2.39
2.17
1.93
1.78
1.80
1.94
2.10
2.17
2.12
2.04
2.06
2.25
2.53
2.73
2.63
2.09
1.17
0.09
-0.86
-1.46
-1.68
-1.67
-1.69
-1.94
-2.46
-3.08
-3.53
-3.54
-3.04
-2.15
-1.17
-0.40
0.02
0.11
0.08
0.16
0.48
1.02
1.63
2.12
2.38
2.40
2.29
2.17
2.13
2.18
2.29
2.39
2.44
2.43
2.37
2.25
2.08
1.85
1.54
1.20
0.85
0.58
0.40
0.27
0.12
-0.14
-0.54
-1.02
-1.47
-1.79
-1.92
-1.92
-1.89
-1.96
-2.12
-2.33
-2.44
-2.31
-1.86
-1.09
-0.09
0.93
1.74
2.14
2.05
1.59
1.02
0.63
0.57
0.79
1.06
1.15
0.97
0.62
0.36
0.43
0.86
1.47
1.93
1.96
1.47
0.59
-0.39
-1.20
-1.67
-1.79
-1.70
-1.56
-1.45
-1.40
-1.37
-1.41
-1.61
-2.09
-2.87
-3.79
-4.55
-4.79
-4.32
-3.19
-1.70
-0.26
0.80
1.38
1.60
1.68
1.84
2.15
2.55
2.88
3.01
2.85
2.45
1.92
1.46
1.20
1.24
1.49
1.80
1.98
1.90
1.58
1.15
0.79
0.66
0.79
1.07
1.38
1.57
1.60
1.51
1.36
1.16
0.87
0.39
-0.34
-1.18
-1.91
-2.20
-1.89
-0.97
0.43
2.10
3.96
5.98
8.18
10.46
12.60
14.32
15.43
16.01
16.39
17.06
18.51
21.05
24.79
29.55
34.90
40.20
44.75
47.94
49.41
49.19
47.61
45.08
41.93
38.23
33.87
28.72
22.76
16.22
9.51
3.14
-2.42
-6.85
-10.01
-11.97
-13.02
-13.56
-14.06
-14.85
-16.08
-17.68
-19.36
-20.80
-21.72
-22.06
-21.96
-21.70
-21.51
-21.51
-21.58
-21.36
-20.44
-18.38
-14.93
-10.12
-4.36
1.60
6.83
10.52
12.22
11.92
10.10
7.37
4.22
0.82
-2.89
-6.99
-11.34
-15.52
-19.22
-22.39
-25.48
-29.41
-35.19
-43.50
-54.30
-66.75
-79.33
-90.58
-99.36
-105.09
-107.81
-107.96
-105.95
-101.84
-95.37
-85.82
-72.92
-56.54
-36.87
-14.68
8.74
31.70
52.53
69.94
83.65
93.39
99.76
103.57
105.15
103.91
98.41
87.72
72.03
53.86
35.74
20.42
9.78
4.28
2.94
3.86
5.02
2.01
-4.42
-13.97
-24.97
-34.81
-40.69
-40.63
-34.31
-23.50
-12.23
-0.41
8.14
10.62
6.13
-4.41
-18.75
-34.22
-48.27
-59.47
-66.52
-69.52
-68.33
-63.30
-55.46
-46.26
-37.24
-29.50
-24.30
-21.78
-21.75
-23.11
-24.97
-27.26
-30.34
-34.24
-33.11
-22.99
-3.95
19.92
44.18
65.02
79.47
85.91
84.57
77.44
66.68
54.57
43.11
34.08
28.68
27.51
30.72
37.89
47.69
57.63
64.30
65.00
58.81
46.76
31.50
16.40
4.33
-3.28
-7.08
-8.34
-8.75
-9.49
-10.93
-12.98
-15.53
-18.74
-22.83
-27.94
-33.70
-39.09
-42.69
-43.43
-40.84
-35.37
-28.10
-20.95
-15.04
-11.44
-10.55
-11.88
-14.26
-15.87
-14.74
-9.09
2.10
18.01
36.08
53.27
66.65
73.80
73.78
66.98
55.18
40.30
24.11
7.55
-8.84
-23.93
-36.96
-46.92
-52.52
-52.48
-48.17
-40.85
-33.15
-27.78
-26.17
-27.75
-29.82
-28.35
-19.17
-0.43
27.37
60.79
94.55
123.17
142.61
151.80
146.93
128.41
98.76
62.87
25.45
-9.91
-41.07
-67.48
-89.89
-109.36
-127.44
-145.94
-163.30
-175.89
-178.76
-166.98
-137.55
-90.87
-30.42
35.86
96.79
143.54
169.74
172.72
154.12
119.24
68.85
15.21
-25.70
-55.62
-77.96
-95.82
-111.72
-126.27
-137.64
-142.05
-134.08
-110.70
-72.34
-20.29
41.47
106.28
165.94
211.92
236.99
237.85
214.46
170.70
115.47
58.43
6.76
-36.41
-71.75
-101.53
-126.61
-146.03
-156.64
-153.17
-131.29
-89.83
-31.68
36.38
104.88
163.81
203.98
219.17
208.29
175.17
127.41
74.13
23.10
-21.43
-59.03
-92.11
-123.11
-151.96
-175.43
-188.05
-184.18
-160.26
-116.31
-56.42
11.63
77.80
131.57
164.19
170.81
151.86
112.94
62.80
10.26
-38.51
-81.05
-117.25
-147.04
-168.37
-177.21
-169.17
-141.72
-95.62
-35.26
32.32
98.66
155.13
194.34
211.23
204.19
175.59
131.20
78.43
24.01
-27.60
-74.39
-115.48
-149.35
-173.00
-182.42
-174.10
-146.51
-100.86
-41.23
25.95
92.52
149.68
189.33
205.73
196.96
165.48
117.29
59.86
-0.10
-57.73
-109.89
-153.66
-185.41
-200.91
-196.69
-171.48
-126.95
-67.59
0.18
68.69
129.74
175.58
200.06
200.13
176.90
135.40
82.96
26.94
-27.22
-76.43
-118.88
-152.40
-173.69
-178.75
-164.19
-128.86
-74.94
-8.14
62.88
127.83
176.76
202.26
201.12
175.06
129.98
74.05
15.31
-40.08
-88.43
-128.00
-157.81
-176.71
-183.25
-175.93
-153.62
-116.26
-65.19
-3.66
62.70
126.03
177.31
208.30
214.02
194.33
153.78
100.15
42.00
-13.76
-63.06
-104.48
-137.95
-162.81
-176.83
-177.14
-161.02
-127.08
-76.53
-13.86
53.11
113.99
159.01
181.86
179.88
154.97
112.92
61.15
6.48
-46.19
-94.98
-137.60
-169.54
-187.21
-187.78
-169.42
-132.30
-79.17
-15.30
50.02
107.71
151.67
175.11
173.78
148.61
105.10
51.33
-4.87
-60.16
-111.66
-154.14
-185.59
-204.49
-208.28
-195.09
-165.03
-106.09
-24.46
50.46
114.17
167.53
206.50
226.09
222.52
195.40
148.74
87.80
21.11
-40.34
-91.70
-131.88
-160.06
-174.64
-173.47
-154.89
-120.75
-73.45
-14.27
51.43
116.00
171.36
209.93
225.93
216.92
183.57
131.31
69.30
4.95
-56.61
-111.50
-156.32
-187.39
-201.06
-195.26
-169.55
-125.12
-66.23
0.85
68.75
129.38
174.88
199.01
198.51
174.40
131.69
77.08
17.07
-42.99
-99.04
-147.25
-183.14
-202.01
-200.23
-176.79
-133.91
-76.57
-11.30
54.85
114.90
162.39
192.17
201.42
190.52
163.06
124.52
80.29
34.12
-12.27
-57.85
-100.48
-135.87
-158.12
-161.59
-143.19
-103.98
-49.34
12.20
71.00
118.47
149.09
161.16
156.41
138.62
111.68
78.04
38.58
-6.50
-55.64
-104.57
-146.39
-173.30
-179.08
-161.19
-121.37
-65.18
-0.68
62.95
116.84
153.71
168.74
160.59
131.28
85.45
29.03
-31.75
-90.82
-142.17
-179.80
-198.49
-194.85
-168.58
-122.66
-62.70
4.18
70.32
128.17
170.72
192.33
189.92
163.82
117.83
58.34
-7.18
-71.32
-127.38
-169.32
-192.60
-194.08
-173.12
-131.98
-75.63
-10.93
54.40
112.66
157.36
182.88
186.89
170.08
135.86
89.25
35.53
-20.40
-73.87
-119.24
-151.67
-165.51
-156.99
-125.72
-75.40
-13.11
52.35
112.23
159.97
189.61
199.29
189.85
164.38
127.11
82.13
32.50
-23.96
-77.12
-125.78
-165.40
-190.32
-195.65
-179.17
-142.32
-89.86
-28.44
35.44
94.04
141.78
174.13
188.01
182.34
158.46
119.95
71.63
19.13
-33.93
-83.51
-125.78
-156.79
-172.65
-170.52
-149.69
-112.38
-63.18
-9.32
42.35
86.07
118.01
136.33
140.73
131.57
109.61
76.26
33.37
-15.58
-65.83
-111.71
-147.57
-168.69
-172.56
-159.11
-130.47
-90.71
-44.80
2.08
45.23
80.87
106.58
120.77
123.00
113.87
94.65
66.88
32.21
-7.43
-49.16
-88.47
-120.02
-138.22
-138.76
-119.84
-82.66
-31.07
28.59
87.41
139.18
177.36
196.39
193.06
167.80
124.81
70.91
13.26
-42.38
-92.04
-133.42
-163.97
-180.19
-178.39
-156.45
-115.49
-60.33
1.72
62.98
116.55
157.54
183.05
191.65
183.28
159.31
122.59
77.20
27.53
-22.87
-71.41
-115.81
-153.23
-179.71
-190.92
-183.64
-157.15
-114.11
-60.34
-3.32
49.58
92.25
120.66
132.50
127.02
105.44
70.66
26.75
-21.47
-68.93
-110.61
-141.17
-156.37
-153.83
-132.59
-93.88
-41.03
20.73
84.84
143.84
191.13
220.31
226.49
209.05
171.39
119.95
62.21
5.03
-46.58
-88.07
-117.14
-132.80
-133.37
-118.03
-87.78
-45.80
4.09
49.93
86.29
114.98
133.25
139.42
132.31
111.48
77.79
34.24
-14.46
-61.39
-101.80
-133.05
-153.04
-161.33
-159.45
-150.32
-136.73
-120.66
-96.60
-65.08
-32.00
-3.63
16.83
30.14
37.00
38.96
36.09
30.96
25.18
19.73
15.36
12.09
9.18
5.77
1.83
-2.07
-4.81
-6.86
-9.14
-12.12
-15.72
-19.51
-22.89
-24.95
-24.99
-22.51
-18.20
-12.87
-6.98
-0.58
6.20
12.90
18.97
23.80
27.03
28.25
27.54
25.42
22.84
20.53
18.82
17.73
17.17
16.95
16.68
16.01
14.67
13.04
11.54
10.38
9.76
10.02
11.64
14.97
20.36
27.64
36.76
46.80
55.95
62.34
65.00
64.13
60.90
57.11
54.08
53.13
54.28
56.19
57.16
56.14
52.70
46.74
38.25
21.95
-2.64
-30.54
-54.99
-71.87
-80.17
-80.88
-77.74
-72.41
-66.54
-60.80
-55.67
-51.82
-49.94
-48.85
-47.46
-44.74
-39.41
-30.85
-18.47
-2.68
14.68
30.83
43.41
51.34
54.65
54.67
52.67
49.82
46.48
41.92
34.55
23.13
7.46
-12.01
-31.52
-46.35
-53.94
-54.71
-50.73
-44.22
-38.88
-33.75
-27.99
-21.79
-15.91
-11.03
-7.58
-5.08
-3.81
-3.11
-0.95
4.60
13.68
25.90
40.80
57.78
73.92
85.96
92.01
91.77
85.41
71.52
50.56
25.80
2.15
-18.90
-37.42
-53.57
-67.60
-80.64
-97.24
-120.15
-148.38
-177.54
-205.53
-229.41
-244.36
-245.30
-211.36
-140.89
-53.49
21.72
86.06
143.21
190.96
223.30
234.33
221.10
182.94
126.31
63.51
7.45
-37.71
-73.61
-103.62
-129.40
-149.13
-160.13
-157.70
-136.92
-95.33
-37.59
28.28
93.59
150.07
190.34
207.60
198.97
167.17
119.87
64.93
9.36
-41.76
-85.64
-120.79
-145.90
-158.86
-156.93
-137.74
-101.58
-51.36
8.00
70.37
128.83
176.63
206.88
214.34
198.00
161.64
112.11
56.85
2.32
-47.14
-88.04
-119.57
-142.38
-156.17
-159.21
-150.34
-129.74
-97.86
-55.29
-2.29
56.55
112.30
155.44
179.18
179.98
157.79
116.92
55.23
-14.32
-72.22
-110.66
-136.17
-153.69
-160.32
-154.06
-133.96
-100.57
-54.35
1.22
60.28
117.16
167.27
205.23
224.90
222.27
196.89
153.22
96.81
32.95
-32.51
-92.86
-141.84
-174.53
-186.91
-176.76
-143.97
-92.42
-29.09
38.44
103.47
159.70
201.01
222.94
223.48
204.06
168.21
120.23
64.07
2.74
-61.67
-126.46
-186.52
-234.33
-261.76
-263.12
-237.29
-188.05
-122.86
-51.14
17.48
74.59
113.86
131.71
127.60
103.83
64.63
15.14
-39.27
-93.07
-140.21
-174.30
-189.59
-182.60
-153.27
-105.02
-43.69
23.73
90.00
147.91
190.44
211.58
207.65
178.57
128.20
63.63
-6.50
-73.53
-129.70
-168.69
-186.07
-179.75
-150.30
-100.94
-37.27
33.22
101.74
159.11
197.04
209.94
196.40
159.35
104.92
40.37
-27.41
-92.54
-149.49
-192.54
-216.19
-216.57
-192.89
-147.86
-86.88
-16.79
54.99
120.77
172.72
203.78
209.21
188.03
143.58
82.51
13.19
-56.03
-117.50
-164.55
-191.78
-195.70
-175.51
-133.46
-74.44
-5.32
65.73
130.03
179.01
205.52
205.59
179.45
131.61
69.55
1.66
-64.25
-121.58
-164.78
-189.27
-191.82
-171.34
-129.43
-70.53
-1.53
68.99
131.73
177.85
200.48
196.24
165.86
113.98
48.07
-23.07
-90.51
-145.98
-182.68
-196.02
-184.38
-149.37
-95.30
-28.47
43.62
112.79
170.58
209.18
223.13
210.76
174.56
120.19
54.70
-15.06
-82.70
-141.78
-185.51
-207.44
-203.17
-172.04
-117.88
-48.36
26.57
96.49
151.91
185.37
192.49
172.59
128.76
67.39
-3.01
-73.13
-134.01
-177.95
-199.34
-195.37
-166.48
-116.34
-51.35
20.20
89.15
146.49
184.53
198.16
186.11
151.13
99.13
37.52
-26.42
-86.48
-137.33
-174.25
-193.17
-191.42
-168.59
-126.84
-70.54
-5.50
61.51
123.09
171.59
200.23
204.49
183.29
139.40
78.62
8.45
-62.99
-127.53
-177.42
-206.02
-208.95
-185.42
-138.75
-75.82
-5.58
62.62
120.48
161.50
181.56
179.32
156.21
115.95
63.70
5.20
-53.63
-106.68
-147.69
-170.87
-172.14
-150.48
-108.58
-52.43
9.94
70.03
120.18
154.47
169.42
164.19
140.44
101.71
52.55
-2.13
-57.09
-106.57
-144.34
-164.48
-162.87
-138.56
-94.35
-36.21
27.97
89.92
141.94
177.60
192.29
183.97
153.71
105.68
46.38
-16.51
-75.29
-123.02
-153.93
-163.89
-151.05
-116.56
-64.77
-2.71
61.08
118.04
160.93
184.69
186.89
167.71
129.71
77.34
16.41
-46.51
-104.61
-151.44
-181.33
-190.22
-176.53
-141.78
-90.62
-30.13
31.42
86.03
127.21
150.81
155.20
141.03
110.52
66.97
14.72
-40.74
-92.69
-133.54
-156.08
-155.18
-129.65
-83.17
-23.50
39.62
96.82
140.59
166.20
172.01
159.05
129.97
88.07
37.02
-18.73
-73.73
-122.28
-159.06
-179.43
-180.08
-159.94
-120.87
-67.16
-4.39
60.95
120.80
165.96
188.62
184.69
155.01
104.91
43.54
-17.44
-66.19
-94.19
-98.10
-78.82
-40.31
11.25
68.09
115.33
136.24
125.84
94.39
56.38
21.45
-6.79
-26.91
-42.96
-57.30
-69.82
-78.52
-82.11
-81.37
-77.11
-70.44
-62.40
-53.91
-45.16
-35.50
-23.74
-11.17
-0.62
5.93
8.26
7.43
4.83
2.64
1.76
3.09
6.65
11.54
16.62
21.03
23.33
22.80
19.13
12.38
3.37
-6.67
-16.25
-23.68
-27.60
-27.39
-23.44
-17.29
-10.82
-5.44
-2.01
-0.86
-2.29
-6.50
-13.30
-21.75
-30.46
-37.58
-41.61
-42.05
-39.54
-35.56
-31.31
-26.86
-19.73
-8.52
6.19
21.53
34.03
42.29
46.18
46.42
44.48
42.17
39.43
36.54
33.38
29.58
24.81
18.91
12.26
5.72
0.26
-3.52
-5.29
-5.37
-4.40
-3.35
-3.48
-6.15
-12.60
-23.45
-38.12
-54.32
-68.98
-78.84
-81.55
-76.54
-65.24
-50.46
-35.33
-21.72
-10.06
-0.36
7.46
13.46
17.69
20.36
21.92
23.05
25.33
30.10
37.05
44.72
51.43
56.08
58.35
58.37
53.41
42.55
27.46
10.59
-6.72
-24.77
-44.42
-65.89
-87.81
-106.96
-119.63
-119.66
-103.68
-72.47
-30.40
16.16
61.02
99.91
125.30
133.86
127.61
110.54
86.52
58.88
30.94
6.04
-12.74
-25.58
-32.38
-33.79
-31.91
-29.11
-26.94
-25.85
-25.52
-25.51
-25.43
-24.39
-21.85
-18.24
-14.44
-11.19
-8.86
-7.43
-6.67
-6.37
-5.77
-4.34
-2.20
0.08
1.94
3.09
3.58
3.71
3.75
4.12
4.98
6.07
6.99
7.40
7.15
6.30
5.05
3.67
2.57
2.10
2.40
3.37
4.70
5.91
6.54
6.28
5.08
3.15
0.86
-1.45
-3.50
-5.17
-6.48
-7.48
-8.25
-8.83
-9.22
-9.42
-9.41
-9.18
-8.70
-7.99
-7.13
-6.25
-5.53
-5.00
-4.58
-4.07
-3.20
-1.87
-0.17
1.61
3.10
3.99
4.15
3.62
2.63
1.46
0.36
-0.50
-1.13
-1.63
-2.11
-2.66
-3.22
-3.63
-3.65
-3.15
-2.08
-0.54
1.33
3.29
5.00
6.08
6.25
5.48
4.18
3.08
2.94
4.19
6.68
9.70
12.34
13.89
14.17
13.48
12.37
11.37
10.75
10.56
10.75
11.24
11.98
12.92
13.91
14.75
15.20
15.07
14.21
12.67
10.53
8.03
5.38
2.82
0.45
-1.68
-3.62
-5.37
-6.86
-7.94
-8.47
-8.40
-7.84
-7.03
-6.25
-5.76
-5.70
-6.09
-6.89
-8.04
-9.49
-11.22
-13.24
-15.53
-18.02
-20.57
-22.97
-24.99
-26.47
-27.31
-27.51
-27.11
-26.14
-24.56
-22.33
-19.44
-15.96
-12.18
-8.51
-5.43
-3.22
-1.84
-0.88
0.30
2.24
5.08
8.47
11.73
14.17
15.37
15.40
14.65
13.64
12.81
12.36
12.31
12.60
13.22
14.16
15.44
16.97
18.52
19.74
20.30
20.02
18.94
17.23
15.02
12.24
8.64
4.04
-1.49
-7.45
-13.03
-17.47
-20.22
-21.02
-19.79
-16.41
-10.84
-3.31
5.40
13.98
21.01
25.47
27.19
26.85
25.57
24.35
23.64
23.32
22.84
21.55
18.89
14.46
8.09
-0.07
-9.42
-18.80
-26.71
-31.81
-33.55
-32.45
-30.02
-28.01
-27.42
-27.97
-28.14
-26.03
-20.41
-11.54
-1.15
8.40
15.19
18.60
19.35
18.90
18.54
18.77
19.25
19.34
18.69
17.63
17.02
17.72
20.10
23.68
27.23
29.26
28.62
24.93
18.69
11.06
3.35
-3.27
-8.21
-11.52
-13.70
-15.34
-16.79
-18.12
-19.14
-19.70
-19.54
-18.77
-17.84
-17.33
-17.59
-18.53
-19.69
-20.44
-20.08
-17.51
-11.80
-2.70
9.24
22.84
36.58
48.89
58.49
64.70
68.33
70.41
71.46
71.17
69.05
65.07
59.79
54.26
49.42
46.69
46.54
48.19
50.22
51.68
52.49
52.91
52.68
45.14
26.93
0.70
-26.11
-46.73
-58.15
-61.29
-58.96
-53.32
-45.76
-36.13
-24.17
-10.55
2.57
12.80
18.61
19.79
17.32
12.66
7.83
4.06
1.10
-2.45
-7.94
-15.87
-25.68
-36.11
-45.82
-53.32
-57.85
-59.66
-59.76
-59.10
-58.05
-56.30
-53.15
-48.00
-40.44
-30.67
-19.54
-8.38
1.46
8.84
12.99
13.68
11.25
6.77
1.77
-2.11
-3.58
-2.04
2.38
8.85
16.09
22.53
26.59
26.99
23.10
15.23
4.80
-6.05
-14.97
-20.17
-21.00
-18.07
-13.02
-7.92
-4.65
-4.42
-7.60
-13.95
-22.86
-33.55
-45.25
-57.20
-68.54
-78.31
-85.54
-89.28
-88.68
-83.12
-72.53
-57.70
-40.52
-23.57
-9.29
0.99
7.69
12.78
18.79
27.59
39.47
53.04
66.01
76.13
81.79
82.20
77.35
67.94
55.29
41.19
27.37
15.43
6.44
0.63
-2.68
-4.74
-6.58
-8.98
-12.17
-16.39
-21.29
-25.82
-28.92
-30.12
-29.81
-29.06
-29.13
-31.01
-35.42
-41.34
-46.26
-47.71
-44.97
-39.33
-33.47
-30.22
-31.38
-38.10
-49.11
-61.17
-70.57
-74.72
-71.97
-61.37
-42.34
-10.00
32.47
74.51
105.30
120.09
120.32
111.15
98.32
86.36
77.25
69.27
60.33
48.60
34.19
18.34
3.62
-7.29
-12.15
-10.07
-2.69
7.48
18.13
28.09
35.03
37.14
32.83
22.30
8.27
-5.84
-16.91
-22.93
-23.30
-20.85
-16.38
-11.08
-6.16
-2.59
-1.20
-2.30
-4.22
-5.62
-5.57
-3.15
1.81
9.03
17.58
25.69
31.40
33.35
31.03
24.99
16.83
8.06
-0.12
-6.95
-12.19
-15.84
-17.95
-18.86
-19.10
-19.02
-18.84
-18.53
-18.03
-17.75
-18.42
-20.78
-24.98
-30.01
-33.64
-33.33
-27.51
-16.53
-3.23
8.45
14.88
13.81
4.99
-9.71
-26.53
-40.32
-45.55
-38.56
-18.19
12.68
46.73
74.00
85.75
78.44
55.43
25.50
-2.25
-20.59
-27.07
-24.59
-19.32
-17.12
-20.83
-29.86
-41.79
-55.89
-70.90
-85.45
-98.49
-109.27
-116.76
-119.13
-114.33
-94.08
-59.30
-16.96
25.49
64.02
96.17
118.70
127.34
118.81
95.84
60.03
18.37
-18.37
-40.46
-44.24
-33.38
-16.54
-2.57
3.08
-2.61
-15.04
-24.50
-20.33
0.94
32.65
63.44
85.50
97.22
100.30
97.94
91.29
78.74
57.94
30.60
0.05
-26.94
-44.17
-49.79
-45.55
-35.99
-26.15
-19.62
-16.98
-15.61
-11.33
-1.47
13.20
29.80
44.75
55.36
60.67
58.77
50.10
37.10
22.63
8.39
-4.49
-15.53
-24.73
-32.69
-40.21
-47.32
-53.47
-56.60
-54.45
-45.11
-28.63
-7.43
14.19
31.56
41.74
44.32
41.17
33.48
23.82
14.29
5.89
-1.35
-7.57
-12.37
-15.04
-15.19
-13.40
-10.74
-8.72
-8.40
-9.94
-12.56
-15.04
-16.50
-16.69
-16.07
-15.17
-14.71
-15.08
-16.29
-17.90
-19.16
-19.43
-18.42
-16.39
-13.74
-11.00
-8.49
-6.23
-3.92
-1.31
1.60
4.53
7.07
9.06
10.43
11.08
10.77
9.35
6.92
3.96
1.37
0.06
0.77
3.36
6.77
9.50
10.61
10.01
8.45
7.00
6.32
6.76
8.08
9.75
11.34
13.01
15.20
18.12
21.59
24.94
27.95
30.64
33.25
33.92
31.12
24.66
15.93
8.01
0.81
-6.03
-12.64
-18.76
-23.57
-25.86
-24.76
-20.22
-13.27
-6.04
-0.62
0.89
-2.06
-7.94
-13.96
-17.91
-19.16
-18.56
-17.73
-17.65
-18.44
-19.45
-19.81
-18.83
-16.35
-12.60
-8.08
-3.46
0.78
4.22
6.56
7.61
7.42
6.22
4.41
2.44
0.70
-0.41
-0.43
1.13
4.56
9.74
16.02
22.32
27.37
30.27
30.27
27.27
21.89
15.18
8.37
2.63
-1.18
-2.74
-2.30
-0.65
1.11
1.88
0.74
-2.90
-9.01
-17.00
-25.68
-33.54
-39.07
-41.14
-39.31
-33.81
-25.41
-14.99
-3.50
8.03
18.42
26.45
31.14
32.16
30.29
26.54
22.24
18.39
15.30
12.63
9.84
6.60
3.07
-0.28
-2.99
-4.82
-5.88
-6.53
-7.08
-7.63
-8.04
-8.06
-7.48
-6.40
-5.10
-4.05
-3.65
-4.10
-5.22
-6.56
-7.51
-7.66
-6.92
-5.45
-3.52
-1.40
0.80
3.06
5.31
7.31
8.61
8.78
7.43
5.07
2.75
1.59
2.16
4.08
6.15
6.98
5.68
2.36
-1.90
-5.74
-8.21
-9.24
-9.43
-9.50
-9.70
-9.72
-9.32
-8.81
-9.26
-11.66
-16.02
-20.69
-23.01
-20.81
-13.36
-2.20
9.52
18.50
22.87
22.73
19.71
15.71
11.92
8.52
5.06
1.25
-2.67
-5.90
-7.66
-7.64
-6.20
-4.17
-2.40
-1.49
-1.51
-2.14
-2.82
-3.06
-2.72
-1.94
-1.16
-0.75
-0.90
-1.45
-2.13
-2.53
-2.39
-1.64
-0.48
0.78
1.84
2.47
2.66
2.51
2.26
2.12
2.21
2.51
2.86
3.05
2.94
2.54
2.02
1.60
1.45
1.55
1.73
1.72
1.32
0.46
-0.76
-2.06
-3.12
-3.71
-3.78
-3.44
-2.94
-2.49
-2.17
-1.90
-1.52
-0.87
0.07
1.15
2.15
2.88
3.28
3.43
3.50
3.62
3.79
3.97
4.02
3.88
3.54
3.09
2.65
2.32
2.12
2.04
2.01
1.98
1.93
1.85
1.77
1.67
1.52
1.28
0.90
0.42
-0.09
-0.51
-0.71
-0.64
-0.36
-0.05
0.06
-0.21
-0.87
-1.71
-2.40
-2.64
-2.30
-1.51
-0.58
0.20
0.65
0.85
1.00
1.27
1.69
2.14
2.43
2.49
2.41
2.38
2.61
3.13
3.84
4.54
5.05
5.31
5.38
5.41
5.54
5.81
6.21
6.66
7.06
7.30
7.31
7.11
6.76
6.36
5.99
5.69
5.39
4.99
4.46
3.82
3.22
2.81
2.72
2.89
3.17
3.35
3.29
3.00
2.63
2.37
2.35
2.56
2.85
3.04
3.08
3.04
3.18
3.80
5.11
7.08
9.37
11.46
12.94
13.67
13.82
13.74
13.77
13.98
14.25
14.26
13.92
13.49
13.47
14.23
15.70
17.20
17.78
16.55
12.99
7.41
0.81
-5.55
-10.78
-14.56
-16.99
-18.22
-18.19
-17.09
-15.07
-12.42
-9.95
-9.01
-11.06
-16.92
-26.27
-37.65
-49.70
-61.00
-70.24
-76.57
-79.64
-79.39
-75.81
-68.99
-59.59
-49.93
-42.63
-39.43
-40.59
-44.85
-50.01
-53.63
-53.73
-44.56
-25.08
0.48
25.86
47.14
63.61
75.57
82.84
85.02
82.07
74.09
62.42
49.83
37.40
25.33
12.94
-0.52
-14.49
-26.76
-34.89
-36.84
-31.86
-21.28
-7.81
6.36
18.40
26.81
31.78
34.14
34.95
35.09
35.03
35.19
35.83
36.77
36.39
32.55
23.52
9.56
-6.92
-22.50
-33.97
-39.63
-39.89
-36.50
-31.38
-25.73
-19.79
-13.29
-6.29
0.55
5.98
8.87
9.07
7.70
6.62
7.25
9.85
13.65
17.43
20.08
20.97
20.26
18.72
17.26
16.43
15.85
14.92
13.30
11.11
8.76
6.89
6.04
6.47
7.86
9.16
9.35
8.02
5.23
1.15
-4.15
-10.67
-18.38
-27.15
-37.18
-47.89
-57.94
-65.85
-70.68
-72.06
-69.88
-64.17
-51.34
-32.08
-10.89
7.25
20.08
28.10
33.14
37.06
40.81
44.23
45.80
44.55
40.78
35.75
30.76
26.53
23.18
20.52
18.44
16.76
15.84
16.12
17.37
18.44
17.91
15.15
10.95
6.82
4.11
3.37
3.81
3.35
-0.67
-10.15
-24.88
-42.51
-59.17
-70.83
-74.56
-69.43
-56.88
-40.14
-23.15
-9.15
-0.13
3.47
2.40
-1.89
-7.81
-13.83
-18.40
-20.04
-17.47
-10.00
1.86
16.42
31.40
44.74
55.24
63.09
68.54
72.77
75.69
76.08
72.31
63.57
50.41
34.46
18.11
2.24
-12.89
-27.99
-43.59
-59.23
-72.93
-81.45
-83.33
-78.72
-69.69
-58.85
-48.40
-38.78
-29.14
-17.15
-1.49
17.55
38.40
58.72
76.36
89.31
95.97
94.90
85.09
65.92
38.12
4.67
-29.63
-59.15
-79.41
-86.91
-82.59
-70.27
-55.30
-42.21
-33.03
-27.36
-22.30
-15.14
-3.85
12.21
32.28
53.89
73.22
87.33
94.44
93.03
82.99
63.18
34.67
0.69
-34.52
-66.00
-88.92
-99.67
-96.23
-82.67
-64.92
-48.87
-35.65
-25.12
-15.44
-3.65
13.66
36.76
62.97
88.22
108.66
120.98
121.80
108.90
82.27
45.34
1.61
-45.44
-91.93
-131.90
-156.18
-159.91
-146.46
-132.62
-123.71
-120.28
-116.31
-106.66
-86.77
-54.27
-10.04
42.30
97.62
151.05
195.66
224.35
231.37
214.36
175.31
120.62
58.75
-1.95
-54.62
-96.59
-127.72
-148.60
-159.16
-157.88
-141.62
-108.82
-60.97
-2.49
59.30
116.28
160.97
187.25
191.80
176.03
143.58
99.13
47.99
-4.46
-53.99
-91.04
-109.54
-116.44
-116.33
-110.62
-96.97
-75.21
-46.25
-11.94
24.84
58.24
79.11
83.00
72.16
52.96
31.54
12.35
-1.59
-11.56
-19.31
-25.85
-29.75
-29.64
-25.56
-18.98
-11.94
-6.16
-2.79
-2.43
-4.80
-7.87
-9.72
-9.62
-8.10
-5.94
-3.58
-1.38
0.16
0.45
-0.22
-1.26
-2.14
-2.61
-2.39
-0.97
1.75
4.94
7.24
7.85
6.80
4.69
2.55
1.60
3.26
8.28
15.99
24.94
33.70
41.09
45.44
44.52
33.60
11.08
-18.06
-44.67
-61.23
-65.53
-60.17
-50.76
-42.64
-38.25
-36.74
-33.84
-26.54
-14.06
2.45
21.78
43.15
65.18
85.51
102.76
115.84
122.63
120.30
106.29
82.99
51.25
14.16
-23.55
-56.16
-79.36
-91.81
-95.55
-95.45
-96.16
-97.22
-97.99
-96.91
-90.36
-74.67
-47.56
-6.35
43.05
89.49
122.43
136.51
135.35
121.55
96.17
60.80
17.68
-31.03
-78.83
-118.82
-140.98
-152.21
-154.53
-151.43
-145.01
-135.28
-120.31
-96.43
-60.98
-14.22
39.41
93.43
140.16
174.75
193.51
194.22
176.95
143.57
97.61
43.23
-13.56
-67.13
-112.59
-146.75
-167.83
-174.82
-167.37
-146.01
-112.95
-71.36
-26.20
16.80
52.02
75.42
85.63
83.95
73.96
59.77
45.27
32.85
23.46
16.97
13.04
11.61
12.71
16.45
22.02
27.65
31.14
30.99
27.12
21.00
15.18
11.79
12.40
16.80
22.74
27.25
28.18
25.02
19.18
13.57
10.72
12.81
20.25
31.16
43.04
53.56
60.80
63.30
60.08
45.61
18.63
-14.62
-44.02
-61.96
-67.21
-63.70
-58.53
-53.93
-49.97
-44.51
-35.20
-20.68
0.39
28.71
60.46
89.01
108.58
115.71
110.85
100.18
84.51
64.20
38.67
7.37
-28.85
-66.16
-99.59
-124.84
-140.78
-148.54
-149.36
-145.09
-136.11
-120.02
-92.69
-52.48
1.93
59.63
104.51
130.56
139.88
136.53
120.89
94.92
60.32
19.11
-26.28
-71.03
-108.83
-135.92
-150.61
-152.71
-142.86
-122.93
-95.19
-62.62
-27.51
10.47
44.00
64.54
69.35
62.49
50.00
37.74
26.65
17.28
10.25
5.08
1.67
0.57
1.87
4.59
7.34
8.78
8.83
8.03
6.46
4.62
3.21
2.47
1.97
1.22
-0.16
-1.80
-3.15
-4.25
-5.01
-5.26
-5.11
-5.05
-5.47
-6.39
-7.12
-6.74
-4.53
0.00
7.05
15.57
23.18
27.01
25.02
17.19
5.68
-5.93
-13.83
-14.95
-8.79
2.33
14.60
24.67
31.07
34.18
35.46
36.43
38.74
43.05
48.91
55.35
61.62
67.23
71.53
73.28
66.37
47.87
20.50
-9.22
-35.65
-55.96
-69.54
-76.74
-78.49
-75.88
-69.26
-59.14
-46.72
-33.66
-21.51
-11.35
-3.65
1.55
4.61
6.69
8.72
10.79
12.26
12.60
11.09
7.64
2.62
-3.25
-8.59
-12.01
-12.66
-10.33
-5.26
1.47
8.51
14.56
18.85
21.44
22.85
23.54
23.55
22.63
20.17
15.77
9.50
2.12
-5.38
-11.75
-16.02
-17.82
-17.25
-15.15
-12.37
-9.48
-6.70
-4.04
-1.46
1.15
4.01
7.64
12.13
17.34
22.46
25.94
25.62
19.62
7.23
-10.73
-30.02
-46.03
-55.60
-57.90
-54.05
-46.09
-35.76
-24.12
-12.32
-0.24
10.80
18.97
22.82
22.03
17.45
10.69
3.70
-1.73
-4.33
-4.08
-1.70
1.94
6.49
11.45
16.03
19.79
22.76
25.21
26.79
26.90
25.04
21.13
15.53
8.55
1.13
-5.24
-9.21
-10.53
-9.87
-8.45
-7.61
-8.69
-13.44
-22.59
-35.36
-49.69
-63.19
-73.51
-78.58
-77.04
-64.24
-41.05
-14.26
8.42
23.54
31.49
34.16
33.49
30.91
27.31
22.50
17.32
12.44
9.03
7.91
9.04
11.88
15.56
19.18
21.46
21.96
21.31
19.79
17.94
15.96
13.85
11.55
9.00
5.93
2.47
-0.83
-3.21
-4.14
-3.57
-1.73
0.81
3.36
5.10
5.55
4.60
2.46
-0.57
-4.24
-8.23
-12.13
-15.48
-17.89
-19.18
-19.62
-20.02
-21.49
-24.86
-29.61
-34.14
-36.91
-37.24
-35.16
-31.32
-26.58
-21.44
-16.27
-10.92
-4.96
1.99
9.94
18.44
26.56
33.26
37.88
40.32
41.09
40.83
40.04
38.94
37.59
35.96
34.03
31.88
29.60
27.31
25.06
22.80
20.53
18.25
16.02
13.88
11.85
9.94
8.19
6.57
5.05
3.58
2.09
0.53
-1.20
-3.22
-5.58
-8.29
-11.21
-14.16
-16.87
-19.15
-20.90
-22.12
-22.90
-23.43
-23.96
-24.75
-25.92
-27.42
-28.96
-30.09
-30.32
-29.33
-27.18
-24.32
-21.41
-18.94
-17.05
-15.50
-13.77
-11.36
-8.00
-3.86
0.59
4.83
8.70
12.26
15.63
18.67
21.10
22.49
22.51
21.03
18.23
14.81
11.47
8.49
5.76
3.25
1.28
0.48
1.49
4.61
10.13
17.79
26.55
34.87
41.41
45.41
46.61
45.10
41.33
36.87
33.73
33.62
37.36
44.84
54.66
63.96
68.74
60.93
36.01
-3.29
-47.90
-88.28
-118.28
-135.35
-139.05
-130.20
-110.79
-83.43
-52.11
-21.99
1.63
15.80
19.86
14.74
2.65
-13.62
-30.67
-45.53
-56.17
-61.82
-62.67
-59.65
-54.09
-47.40
-40.76
-34.24
-28.14
-22.56
-17.57
-13.00
-8.72
-4.68
-1.05
1.98
4.57
7.19
10.56
15.29
21.66
29.36
37.62
45.41
51.72
55.96
57.96
58.05
56.79
54.74
52.28
49.56
46.57
43.25
39.67
36.00
32.52
29.47
26.86
24.51
22.16
19.67
17.09
14.56
12.26
10.26
8.49
6.82
5.14
3.43
1.83
0.41
-0.75
-1.71
-2.55
-3.33
-4.05
-4.67
-5.15
-5.51
-5.85
-6.23
-6.68
-7.13
-7.49
-7.63
-7.51
-7.13
-6.55
-5.82
-5.01
-4.14
-3.25
-2.40
-1.64
-1.04
-0.66
-0.53
-0.64
-0.91
-1.13
-1.00
-0.24
1.29
3.52
6.23
9.07
11.75
14.08
16.00
17.49
18.56
19.20
19.46
19.48
19.47
19.56
19.74
19.89
19.81
19.33
18.40
17.14
15.80
14.62
13.61
12.55
10.99
8.56
5.10
0.79
-3.80
-7.94
-11.09
-13.17
-14.61
-16.02
-17.97
-20.81
-24.79
-30.12
-36.35
-42.31
-46.29
-46.98
-43.99
-37.86
-29.91
-21.96
-15.79
-12.48
-12.10
-13.78
-16.19
-18.04
-18.55
-17.65
-15.86
-13.87
-12.21
-11.04
-10.30
-9.97
-10.26
-11.67
-14.34
-17.88
-21.22
-22.77
-21.15
-15.81
-7.33
2.94
13.56
23.28
31.98
39.97
47.30
53.22
56.37
55.52
50.30
41.54
30.97
20.48
11.33
3.96
-1.83
-6.42
-10.10
-12.90
-14.80
-15.86
-16.22
-16.20
-16.06
-15.91
-15.70
-15.30
-14.56
-13.44
-12.07
-10.47
-8.76
-7.08
-5.52
-4.12
-2.89
-1.81
-0.92
-0.25
0.16
0.27
0.11
-0.22
-0.56
-0.80
-0.87
-0.82
-0.74
-0.68
-0.63
-0.55
-0.37
-0.02
0.45
0.98
1.43
1.70
1.75
1.57
1.21
0.78
0.31
-0.16
-0.62
-1.07
-1.44
-1.64
-1.60
-1.29
-0.78
-0.23
0.15
0.22
-0.00
-0.36
-0.60
-0.56
-0.20
0.38
1.01
1.53
1.90
2.14
2.31
2.41
2.36
2.02
1.32
0.32
-0.78
-1.69
-2.20
-2.21
-1.81
-1.25
-0.76
-0.45
-0.30
-0.19
-0.03
0.22
0.51
0.75
0.90
0.94
0.91
0.82
0.70
0.59
0.50
0.47
0.48
0.46
0.32
0.03
-0.35
-0.70
-0.93
-1.02
-1.04
-1.09
-1.20
-1.31
-1.33
-1.21
-1.03
-0.93
-1.07
-1.51
-2.15
-2.81
-3.26
-3.44
-3.36
-3.15
-2.97
-2.89
-2.90
-2.91
-2.78
-2.44
-1.90
-1.27
-0.71
-0.34
-0.20
-0.18
-0.15
0.06
0.49
1.08
1.69
2.17
2.41
2.39
2.16
1.84
1.52
1.26
1.10
1.01
0.96
0.93
0.91
0.91
0.88
0.75
0.45
-0.03
-0.61
-1.13
-1.48
-1.62
-1.60
-1.57
-1.63
-1.80
-2.02
-2.15
-2.13
-1.96
-1.70
-1.42
-1.14
-0.87
-0.55
-0.15
0.36
0.96
1.61
2.16
2.51
2.57
2.38
2.04
1.72
1.54
1.55
1.72
1.94
2.13
2.21
2.17
2.05
1.87
1.65
1.40
1.13
0.84
0.58
0.38
0.27
0.22
0.15
-0.04
-0.44
-1.03
-1.76
-2.47
-3.04
-3.35
-3.36
-3.08
-2.57
-1.94
-1.28
-0.75
-0.40
-0.24
-0.17
-0.07
0.19
0.67
1.31
1.99
2.55
2.90
3.02
2.99
2.88
2.73
2.58
2.44
2.31
2.21
2.16
2.19
2.30
2.44
2.52
2.61
2.83
3.22
3.76
4.32
4.73
4.84
4.56
3.89
3.23
2.96
3.33
4.22
5.36
6.40
7.13
7.42
7.34
7.38
8.06
9.60
11.84
14.42
17.01
19.36
21.26
22.62
23.97
25.98
29.09
33.33
38.42
44.03
49.73
54.98
56.04
50.13
36.77
18.24
-2.02
-21.02
-36.53
-47.23
-52.90
-54.52
-53.43
-51.11
-48.64
-46.39
-43.93
-40.45
-35.44
-29.20
-22.89
-17.60
-14.22
-13.18
-14.41
-17.34
-21.15
-25.02
-28.39
-30.92
-32.14
-31.58
-29.04
-24.63
-18.95
-12.76
-6.89
-1.97
1.76
4.63
7.23
9.96
12.87
15.60
17.61
18.44
18.05
16.55
14.45
12.28
10.45
9.00
7.75
6.35
4.58
2.35
0.04
-1.80
-2.56
-1.81
0.59
4.43
9.13
14.01
18.35
21.67
23.72
24.54
24.21
22.81
20.38
17.09
13.35
9.80
7.12
5.60
5.03
4.65
3.62
1.44
-1.79
-5.42
-8.63
-10.86
-12.02
-12.41
-12.48
-12.55
-12.72
-12.88
-12.83
-12.43
-11.58
-10.28
-8.67
-6.94
-5.33
-4.01
-3.09
-2.52
-2.17
-1.92
-1.69
-1.48
-1.29
-1.14
-0.96
-0.66
-0.14
0.60
1.48
2.33
2.98
3.30
3.31
3.14
2.95
2.87
2.94
3.07
3.14
3.01
2.64
2.06
1.30
0.42
-0.55
-1.60
-2.70
-3.79
-4.82
-5.75
-6.50
-7.08
-7.48
-7.72
-7.75
-7.57
-7.23
-6.89
-6.66
-6.60
-6.68
-6.74
-6.61
-6.14
-5.24
-4.00
-2.56
-1.02
0.64
2.47
4.44
6.43
8.32
10.03
11.48
12.64
13.55
14.27
14.84
15.30
14.92
13.40
11.12
8.86
7.32
6.60
6.37
6.10
5.36
4.25
2.96
1.91
1.41
1.59
2.24
3.06
3.88
4.69
5.50
6.39
7.44
8.41
8.85
8.15
5.91
2.13
-2.81
-8.29
-13.66
-18.29
-21.96
-23.71
-23.06
-20.43
-16.81
-13.18
-10.03
-8.03
-6.91
-6.54
-6.78
-7.51
-8.56
-9.28
-9.27
-8.46
-7.09
-5.46
-3.87
-2.36
-0.86
0.73
2.54
4.56
6.67
8.70
10.49
11.85
12.64
12.67
11.89
10.35
8.20
5.66
2.89
0.10
-2.62
-5.16
-7.51
-9.69
-11.67
-13.38
-14.62
-15.10
-14.53
-12.81
-10.14
-7.01
-3.99
-1.54
0.19
1.31
2.15
3.00
4.02
5.22
6.54
7.87
9.17
10.34
11.27
11.78
11.72
11.02
9.75
8.10
6.30
4.59
3.16
2.17
1.73
1.81
2.34
3.12
3.94
4.56
4.85
4.75
4.33
3.69
2.93
2.16
1.41
0.69
-0.02
-0.73
-1.44
-2.13
-2.76
-3.31
-3.77
-4.17
-4.51
-4.78
-4.92
-4.89
-4.67
-4.30
-3.86
-3.41
-2.97
-2.49
-1.91
-1.18
-0.35
0.48
1.17
1.63
1.81
1.74
1.48
1.12
0.76
0.48
0.33
0.34
0.48
0.68
0.84
0.85
0.66
0.25
-0.27
-0.81
-1.24
-1.48
-1.51
-1.40
-1.23
-1.08
-1.02
-1.06
-1.15
-1.25
-1.35
-1.44
-1.56
-1.68
-1.72
-1.56
-1.14
-0.46
0.38
1.17
1.72
1.88
1.63
1.08
0.40
-0.22
-0.63
-0.76
-0.64
-0.39
-0.13
0.03
0.03
-0.12
-0.36
-0.64
-0.94
-1.22
-1.48
-1.73
-1.98
-2.23
-2.50
-2.77
-3.04
-3.30
-3.55
-3.76
-3.92
-4.01
-4.01
-3.92
-3.81
-3.74
-3.79
-3.95
-4.18
-4.41
-4.58
-4.65
-4.61
-4.46
-4.21
-3.85
-3.36
-2.77
-2.11
-1.45
-0.85
-0.33
0.14
0.61
1.18
1.96
3.06
4.49
6.20
8.06
9.93
11.65
13.13
14.33
15.26
15.88
16.09
15.73
14.76
13.33
11.80
10.54
9.79
9.57
9.60
9.42
8.63
7.13
5.21
3.35
1.94
1.18
1.13
1.59
2.15
2.30
1.67
0.28
-1.57
-3.39
-4.69
-4.93
-3.91
-1.80
0.86
3.58
5.98
7.75
8.53
7.10
3.13
-2.19
-7.03
-10.37
-12.41
-14.11
-16.07
-18.19
-19.80
-19.87
-17.72
-13.08
-6.85
-0.59
4.15
6.49
6.52
5.05
3.32
2.23
1.88
1.64
0.81
-0.75
-2.58
-3.88
-4.09
-3.09
-1.34
0.42
1.49
1.74
1.61
1.66
2.06
2.21
1.15
-1.69
-6.08
-11.06
-15.40
-17.99
-18.81
-18.11
-16.43
-14.43
-12.59
-11.14
-10.14
-9.65
-9.40
-9.30
-9.28
-9.29
-9.11
-8.31
-6.37
-3.07
1.33
6.41
11.50
16.08
19.88
23.05
26.10
29.58
33.76
37.03
37.98
35.96
31.42
25.27
18.26
10.98
3.95
-2.31
-7.42
-10.98
-13.18
-14.24
-14.48
-14.12
-13.20
-11.65
-9.47
-6.81
-3.79
-0.63
2.33
4.72
6.25
6.89
6.70
5.84
4.39
2.56
0.58
-1.26
-2.63
-3.22
-2.79
-1.33
0.96
3.66
6.38
8.79
10.69
11.99
12.65
12.72
12.26
11.31
9.87
7.96
5.64
3.12
0.63
-1.56
-3.36
-4.87
-6.37
-8.11
-10.18
-12.40
-14.40
-15.80
-16.43
-16.36
-15.82
-15.09
-14.36
-13.67
-12.98
-12.21
-11.33
-10.38
-9.43
-8.62
-8.06
-7.76
-7.59
-7.33
-6.74
-5.72
-4.32
-2.74
-1.23
0.02
0.95
1.61
2.04
2.30
2.44
2.48
2.52
2.61
2.70
2.61
2.12
1.09
-0.39
-2.00
-3.32
-3.97
-3.81
-3.01
-1.93
-1.00
-0.55
-0.66
-1.28
-2.20
-3.19
-4.02
-4.54
-4.75
-4.76
-4.73
-4.70
-4.66
-4.46
-3.86
-2.66
-0.85
1.38
3.77
6.26
9.02
12.13
15.48
18.72
21.39
23.12
23.84
24.03
24.56
26.35
29.54
33.36
36.63
38.36
38.41
37.55
37.02
37.70
39.24
39.50
35.56
25.35
8.99
-11.25
-32.35
-52.37
-71.30
-87.26
-97.80
-100.45
-94.22
-80.54
-63.43
-48.42
-40.54
-41.34
-47.55
-53.03
-51.98
-41.92
-24.87
-6.00
9.51
19.00
23.44
26.08
29.64
34.79
39.98
43.08
41.45
34.15
21.73
6.23
-9.69
-23.39
-32.30
-34.12
-27.21
-11.51
11.06
34.75
52.96
60.75
56.83
44.18
28.74
16.94
13.05
17.82
28.41
40.18
48.32
49.47
42.62
29.41
13.58
-0.13
-7.51
-6.39
2.51
15.60
27.68
33.97
32.08
22.80
9.38
-4.16
-14.97
-22.16
-26.42
-28.94
-30.25
-29.92
-27.40
-22.85
-17.68
-14.01
-13.48
-16.35
-21.17
-25.64
-27.63
-26.22
-22.03
-16.74
-12.23
-9.71
-9.17
-9.71
-10.10
-9.34
-7.15
-3.91
-0.46
2.35
4.04
4.59
4.35
3.83
3.46
3.40
3.60
3.88
4.06
4.09
4.09
4.17
4.39
4.69
4.95
5.05
4.99
4.95
5.16
5.88
7.17
8.95
11.02
12.93
14.15
13.90
11.31
5.91
-1.89
-10.58
-17.90
-21.73
-21.05
-16.47
-9.86
-3.45
1.28
4.07
5.62
6.84
8.09
9.03
9.02
7.67
5.25
2.58
0.47
-0.58
-0.65
-0.21
0.19
0.19
-0.31
-1.26
-2.62
-4.40
-6.60
-9.09
-11.45
-12.98
-12.94
-10.77
-6.42
-0.52
5.71
10.70
13.09
12.13
8.12
2.28
-3.55
-7.57
-8.60
-6.47
-1.95
3.57
8.67
12.33
14.14
14.23
12.97
10.78
7.90
4.49
0.71
-3.14
-6.55
-8.95
-10.04
-9.90
-9.00
-7.90
-7.00
-6.35
-5.65
-4.50
-2.70
-0.51
1.62
3.08
3.46
2.78
1.44
-0.02
-1.21
-2.07
-2.77
-3.53
-4.41
-5.26
-5.85
-5.99
-5.62
-4.78
-3.53
-1.89
-0.07
1.62
2.83
3.29
2.86
1.67
0.04
-1.60
-2.74
-2.90
-1.61
1.29
5.52
10.20
14.04
15.84
15.04
12.09
8.25
5.07
3.63
4.05
5.60
7.17
7.91
7.64
6.78
5.93
5.42
5.16
4.73
3.74
2.08
0.05
-1.82
-3.06
-3.54
-3.50
-3.42
-3.75
-4.75
-6.30
-8.02
-9.42
-10.11
-9.92
-8.95
-7.52
-5.94
-4.51
-3.34
-2.42
-1.66
-0.96
-0.27
0.41
1.03
1.48
1.71
1.72
1.60
1.50
1.56
1.83
2.21
2.54
2.67
2.54
2.23
1.83
1.44
1.06
0.64
0.18
-0.27
-0.60
-0.74
-0.67
-0.42
-0.05
0.47
1.19
2.16
3.32
4.51
5.50
6.12
6.31
6.14
5.77
5.34
4.94
4.65
4.47
4.37
4.28
4.11
3.75
3.18
2.45
1.63
0.81
0.05
-0.64
-1.28
-1.87
-2.38
-2.77
-3.07
-3.37
-3.76
-4.30
-4.99
-5.71
-6.35
-6.81
-7.07
-7.16
-7.18
-7.22
-7.35
-7.61
-7.97
-8.37
-8.76
-9.05
-9.20
-9.17
-8.94
-8.51
-7.94
-7.28
-6.63
-6.09
-5.74
-5.61
-5.65
-5.79
-5.91
-5.92
-5.71
-5.26
-4.56
-3.66
-2.69
-1.83
-1.29
-1.25
-1.75
-2.65
-3.67
-4.44
-4.62
-4.07
-2.87
-1.27
0.38
1.80
2.82
3.44
3.76
3.89
3.92
3.83
3.58
3.14
2.52
1.81
1.10
0.49
-0.00
-0.38
-0.66
-0.83
-0.92
-0.94
-1.02
-1.28
-1.82
-2.60
-3.41
-3.94
-3.91
-3.23
-2.03
-0.57
0.88
2.18
3.29
4.18
4.78
4.90
4.42
3.38
2.06
0.92
0.36
0.59
1.46
2.63
3.74
4.54
5.01
5.20
5.19
4.99
4.52
3.75
2.70
1.53
0.45
-0.34
-0.75
-0.81
-0.66
-0.40
-0.05
0.45
1.14
1.98
2.79
3.37
3.60
3.56
3.51
3.71
4.27
5.04
5.73
6.06
5.90
5.35
4.66
4.02
3.55
3.21
2.95
2.76
2.70
2.82
3.16
3.62
4.02
4.15
3.88
3.22
2.31
1.38
0.64
0.23
0.11
0.15
0.16
-0.04
-0.53
-1.27
-2.10
-2.82
-3.28
-3.38
-3.20
-2.92
-2.80
-3.03
-3.66
-4.55
-5.43
-6.03
-6.26
-6.18
-6.01
-5.96
-6.08
-6.28
-6.35
-6.07
-5.29
-4.00
-2.25
-0.22
1.89
3.85
5.44
6.53
7.09
7.25
7.11
6.84
6.48
6.09
5.80
5.78
6.17
6.95
7.92
8.67
8.99
8.79
8.31
7.96
8.10
8.83
9.93
11.06
11.78
11.96
11.39
9.82
6.96
2.73
-2.50
-7.72
-11.40
-12.62
-10.61
-5.85
0.06
5.53
9.86
13.08
15.40
17.46
18.43
17.53
14.51
9.99
5.27
1.68
-0.02
-0.06
0.99
2.31
3.34
3.82
3.78
3.40
2.93
2.47
2.06
1.70
1.20
0.46
-0.68
-2.34
-4.57
-7.28
-10.24
-13.18
-15.75
-17.78
-19.18
-20.04
-20.54
-20.86
-21.14
-21.43
-21.70
-21.90
-22.02
-22.03
-21.89
-21.51
-20.82
-19.78
-18.45
-16.96
-15.50
-14.21
-13.14
-12.23
-11.35
-10.40
-9.34
-8.19
-7.03
-5.95
-5.02
-4.29
-3.73
-3.21
-2.57
-1.64
-0.32
1.38
3.31
5.23
6.89
8.12
8.86
9.16
9.14
8.99
8.87
8.93
9.26
9.87
10.69
11.60
12.47
13.19
13.71
14.00
14.07
13.92
13.59
13.10
12.52
11.88
11.24
10.60
9.94
9.17
8.20
6.96
5.41
3.56
1.48
-0.68
-2.72
-4.35
-5.24
-5.15
-4.04
-2.11
0.14
2.16
3.52
4.08
3.99
3.57
3.11
2.69
2.22
1.59
0.78
-0.02
-0.53
-0.54
-0.01
0.87
1.78
2.45
2.74
2.70
2.43
2.04
1.52
0.84
-0.05
-1.12
-2.26
-3.30
-4.08
-4.48
-4.48
-4.17
-3.70
-3.24
-2.94
-2.87
-3.00
-3.20
-3.33
-3.28
-3.03
-2.65
-2.21
-1.81
-1.46
-1.15
-0.85
-0.56
-0.33
-0.22
-0.27
-0.43
-0.60
-0.62
-0.41
0.06
0.66
1.20
1.53
1.59
1.46
1.27
1.18
1.23
1.39
1.54
1.59
1.47
1.20
0.83
0.40
-0.05
-0.54
-1.06
-1.57
-1.96
-2.10
-1.84
-1.16
-0.16
0.91
1.74
2.13
2.01
1.54
0.96
0.50
0.23
0.12
0.08
0.06
0.11
0.27
0.60
1.03
1.44
1.67
1.65
1.37
0.91
0.42
0.04
-0.13
-0.07
0.15
0.40
0.53
0.43
0.08
-0.39
-0.83
-1.10
-1.18
-1.11
-0.99
-0.93
-0.96
-1.07
-1.23
-1.39
-1.58
-1.83
-2.15
-2.47
-2.67
-2.59
-2.18
-1.47
-0.67
-0.05
0.19
0.01
-0.43
-0.88
-1.15
-1.15
-0.98
-0.74
-0.54
-0.34
-0.10
0.24
0.65
1.01
1.18
1.06
0.68
0.15
-0.34
-0.64
-0.68
-0.52
-0.29
-0.13
-0.13
-0.27
-0.49
-0.72
-0.90
-1.03
-1.13
-1.20
-1.19
-1.09
-0.91
-0.71
-0.58
-0.55
-0.58
-0.59
-0.46
-0.12
0.39
0.97
1.48
1.80
1.88
1.71
1.37
0.95
0.55
0.23
0.08
0.11
0.32
0.65
0.98
1.17
1.12
0.81
0.32
-0.21
-0.65
-0.93
-1.09
-1.23
-1.42
-1.63
-1.76
-1.72
-1.48
-1.10
-0.73
-0.49
-0.41
-0.41
-0.42
-0.35
-0.19
-0.01
0.14
0.23
0.28
0.35
0.44
0.51
0.48
0.30
-0.01
-0.33
-0.50
-0.41
-0.03
0.55
1.15
1.59
1.75
1.64
1.34
1.01
0.74
0.56
0.44
0.28
0.05
-0.26
-0.57
-0.79
-0.88
-0.85
-0.79
-0.80
-0.95
-1.21
-1.46
-1.60
-1.54
-1.27
-0.88
-0.47
-0.10
0.18
0.39
0.55
0.67
0.74
0.74
0.66
0.50
0.28
0.05
-0.15
-0.28
-0.30
-0.23
-0.12
-0.04
-0.01
-0.01
0.04
0.24
0.59
1.00
1.31
1.37
1.13
0.66
0.07
-0.48
-0.91
-1.20
-1.39
-1.53
-1.63
-1.67
-1.60
-1.35
-0.91
-0.31
0.30
0.79
1.04
1.07
1.00
0.99
1.15
1.41
1.63
1.61
1.30
0.79
0.32
0.16
0.44
1.12
1.95
2.59
2.79
2.49
1.81
1.04
0.43
0.11
0.04
0.06
0.01
-0.16
-0.38
-0.56
-0.59
-0.52
-0.42
-0.43
-0.63
-0.99
-1.42
-1.81
-2.08
-2.20
-2.17
-1.98
-1.65
-1.21
-0.70
-0.17
0.35
0.82
1.22
1.51
1.68
1.72
1.66
1.56
1.48
1.41
1.32
1.15
0.86
0.51
0.17
-0.06
-0.16
-0.19
-0.25
-0.43
-0.77
-1.19
-1.58
-1.81
-1.83
-1.66
-1.44
-1.33
-1.46
-1.81
-2.26
-2.57
-2.58
-2.24
-1.69
-1.16
-0.89
-0.92
-1.14
-1.30
-1.19
-0.74
-0.05
0.66
1.18
1.44
1.48
1.43
1.37
1.27
1.00
0.51
-0.14
-0.70
-0.87
-0.51
0.29
1.20
1.82
1.92
1.51
0.86
0.29
-0.02
-0.07
-0.07
-0.19
-0.49
-0.86
-1.12
-1.14
-0.94
-0.68
-0.58
-0.77
-1.24
-1.81
-2.24
-2.32
-1.99
-1.35
-0.55
0.23
0.89
1.41
1.77
1.94
1.89
1.65
1.29
0.94
0.71
0.61
0.59
0.54
0.36
0.06
-0.28
-0.55
-0.71
-0.77
-0.77
-0.77
-0.77
-0.73
-0.61
-0.39
-0.12
0.10
0.14
-0.09
-0.55
-1.12
-1.58
-1.78
-1.69
-1.41
-1.15
-1.03
-1.05
-1.09
-0.97
-0.62
-0.13
0.30
0.50
0.42
0.19
0.02
0.08
0.38
0.81
1.20
1.42
1.47
1.42
1.36
1.35
1.40
1.45
1.42
1.27
0.98
0.58
0.16
-0.22
-0.53
-0.77
-0.96
-1.11
-1.14
-0.99
-0.65
-0.21
0.16
0.26
-0.01
-0.63
-1.42
-2.15
-2.59
-2.64
-2.31
-1.72
-1.05
-0.46
-0.08
0.11
0.20
0.29
0.46
0.67
0.83
0.85
0.74
0.63
0.69
1.00
1.50
1.95
2.13
1.93
1.44
0.93
0.68
0.82
1.25
1.70
1.89
1.66
1.08
0.33
-0.36
-0.83
-1.05
-1.04
-0.85
-0.51
-0.08
0.34
0.60
0.59
0.24
-0.32
-0.91
-1.30
-1.35
-1.10
-0.69
-0.28
0.01
0.19
0.32
0.51
0.74
0.95
1.04
0.95
0.69
0.38
0.15
0.09
0.29
0.75
1.41
2.16
2.82
3.21
3.18
2.73
1.95
1.04
0.19
-0.46
-0.88
-1.13
-1.24
-1.26
-1.18
-1.06
-0.94
-0.93
-1.08
-1.37
-1.73
-2.04
-2.15
-1.95
-1.38
-0.50
0.52
1.46
2.08
2.27
2.06
1.65
1.24
0.99
0.94
0.98
1.01
0.96
0.86
0.78
0.81
0.96
1.19
1.38
1.42
1.23
0.87
0.46
0.14
0.03
0.10
0.21
0.21
-0.02
-0.46
-0.95
-1.31
-1.43
-1.30
-1.04
-0.78
-0.64
-0.66
-0.82
-1.04
-1.24
-1.37
-1.40
-1.34
-1.22
-1.04
-0.75
-0.32
0.26
0.91
1.48
1.88
2.08
2.14
2.18
2.22
2.21
2.05
1.70
1.25
0.86
0.69
0.83
1.16
1.48
1.56
1.33
0.87
0.37
-0.01
-0.18
-0.12
0.16
0.61
1.16
1.71
2.15
2.32
2.10
1.45
0.53
-0.37
-1.02
-1.29
-1.15
-0.66
0.08
0.94
1.71
2.40
3.03
3.60
4.09
4.47
4.81
5.18
5.57
5.89
6.28
6.86
7.57
8.18
8.52
8.64
8.74
9.02
9.48
10.41
12.05
14.54
17.91
22.16
27.23
32.75
37.92
39.14
33.91
22.28
7.05
-8.15
-20.71
-29.47
-34.13
-34.79
-31.82
-25.63
-17.29
-8.69
-2.15
0.52
-1.08
-5.69
-10.96
-14.48
-14.52
-10.87
-4.83
1.45
6.07
8.02
7.47
5.22
2.14
-1.08
-4.11
-6.82
-9.05
-10.20
-9.78
-7.76
-4.76
-1.91
-0.14
0.14
-0.77
-2.15
-3.32
-3.97
-4.32
-4.83
-5.92
-7.67
-9.79
-11.77
-13.18
-13.73
-13.42
-12.36
-10.84
-9.10
-7.34
-5.79
-4.43
-3.28
-2.38
-1.78
-1.46
-1.30
-1.07
-0.57
0.28
1.32
2.20
2.54
2.15
1.18
0.08
-0.57
-0.30
1.08
3.33
5.90
8.11
9.39
9.41
8.14
5.87
3.02
0.05
-2.65
-4.83
-6.35
-7.15
-7.31
-6.97
-6.33
-5.65
-4.98
-4.42
-4.05
-3.89
-3.92
-4.09
-4.37
-4.74
-5.19
-5.75
-6.41
-7.08
-7.61
-7.81
-7.58
-6.95
-6.11
-5.29
-4.66
-4.21
-3.64
-2.54
-0.46
2.81
7.16
11.95
16.13
18.45
17.75
13.48
5.98
-3.47
-12.98
-20.61
-24.95
-25.50
-22.74
-17.83
-12.17
-7.01
-3.23
-1.24
-1.06
-2.38
-4.68
-7.33
-9.74
-11.48
-12.36
-12.35
-11.58
-10.20
-8.37
-6.25
-3.98
-1.68
0.57
2.75
4.90
7.07
9.33
11.77
14.48
17.63
21.36
25.68
30.38
34.96
38.76
41.15
41.79
40.74
38.48
35.70
33.03
30.85
29.19
27.81
26.35
24.55
22.31
19.66
16.72
13.60
10.29
6.75
2.95
-1.05
-5.07
-8.82
-12.07
-14.69
-16.72
-18.29
-19.56
-20.56
-21.18
-21.24
-20.64
-19.44
-17.95
-16.62
-15.88
-16.00
-16.90
-18.25
-19.55
-20.36
-20.49
-20.07
-19.48
-19.09
-19.16
-19.68
-20.52
-21.58
-22.88
-24.55
-26.72
-29.30
-32.01
-34.43
-36.19
-37.17
-37.39
-36.95
-35.80
-33.72
-30.45
-25.84
-20.01
-13.30
-6.22
0.83
7.59
13.96
19.97
25.64
30.95
35.88
40.35
44.24
47.41
49.67
50.83
50.78
49.47
46.99
43.56
39.47
35.09
30.75
26.76
23.25
20.25
17.67
15.34
13.08
10.76
8.36
5.92
3.60
1.60
0.10
-0.83
-1.26
-1.39
-1.42
-1.51
-1.66
-1.80
-1.87
-1.83
-1.77
-1.72
-1.68
-1.56
-1.26
-0.77
-0.23
0.11
0.02
-0.63
-1.76
-3.10
-4.35
-5.26
-5.75
-5.89
-5.84
-5.78
-5.82
-5.96
-6.11
-6.11
-5.86
-5.38
-4.81
-4.37
-4.17
-4.20
-4.27
-4.14
-3.71
-3.10
-2.55
-2.31
-2.43
-2.75
-2.96
-2.85
-2.40
-1.85
-1.50
-1.49
-1.78
-2.13
-2.27
-2.10
-1.69
-1.25
-0.98
-0.91
-0.98
-1.02
-0.93
-0.69
-0.41
-0.21
-0.21
-0.43
-0.80
-1.16
-1.33
-1.18
-0.72
-0.12
0.36
0.48
0.16
-0.47
-1.17
-1.64
-1.77
-1.60
-1.34
-1.18
-1.19
-1.34
-1.46
-1.40
-1.08
-0.49
0.23
0.89
1.29
1.28
0.87
0.21
-0.43
-0.79
-0.78
-0.44
0.04
0.47
0.74
0.90
1.00
1.06
0.99
0.68
0.09
-0.65
-1.26
-1.46
-1.14
-0.40
0.45
1.09
1.33
1.22
0.95
0.75
0.67
0.62
0.39
-0.16
-0.98
-1.86
-2.53
-2.78
-2.60
-2.13
-1.59
-1.15
-0.90
-0.78
-0.71
-0.57
-0.30
0.08
0.50
0.85
1.02
0.94
0.63
0.22
-0.11
-0.26
-0.23
-0.15
-0.19
-0.43
-0.84
-1.25
-1.52
-1.60
-1.57
-1.53
-1.49
-1.36
-0.96
-0.22
0.73
1.59
1.99
1.76
0.97
-0.07
-0.99
-1.53
-1.63
-1.37
-0.93
-0.45
-0.01
0.37
0.70
0.98
1.22
1.39
1.45
1.37
1.13
0.81
0.56
0.51
0.70
1.05
1.35
1.42
1.15
0.60
-0.06
-0.59
-0.83
-0.74
-0.39
0.06
0.47
0.72
0.77
0.63
0.33
-0.12
-0.70
-1.37
-2.02
-2.52
-2.73
-2.57
-2.07
-1.37
-0.70
-0.25
-0.13
-0.32
-0.70
-1.06
-1.26
-1.20
-0.92
-0.53
-0.18
0.06
0.15
0.16
0.13
0.12
0.13
0.16
0.21
0.31
0.45
0.60
0.68
0.61
0.34
-0.09
-0.55
-0.90
-0.96
-0.68
-0.13
0.53
1.06
1.25
1.05
0.55
-0.02
-0.40
-0.42
-0.11
0.31
0.56
0.42
-0.10
-0.81
-1.41
-1.65
-1.46
-0.93
-0.27
0.32
0.71
0.86
0.82
0.67
0.53
0.49
0.57
0.78
1.03
1.21
1.29
1.28
1.22
1.13
0.96
0.68
0.34
0.10
0.14
0.53
1.14
1.69
1.86
1.51
0.73
-0.22
-1.03
-1.58
-1.89
-2.08
-2.27
-2.47
-2.56
-2.40
-1.94
-1.24
-0.47
0.19
0.62
0.82
0.89
0.94
1.04
1.16
1.19
1.02
0.61
0.01
-0.62
-1.06
-1.16
-0.86
-0.28
0.37
0.85
1.03
0.88
0.53
0.18
-0.03
-0.06
0.05
0.16
0.14
-0.03
-0.27
-0.46
-0.51
-0.42
-0.27
-0.17
-0.21
-0.34
-0.46
-0.45
-0.22
0.20
0.68
1.08
1.27
1.22
0.95
0.58
0.23
0.02
0.04
0.26
0.57
0.82
0.90
0.81
0.64
0.55
0.64
0.88
1.16
1.29
1.18
0.87
0.52
0.31
0.28
0.34
0.30
-0.00
-0.56
-1.22
-1.76
-2.04
-2.06
-1.99
-2.00
-2.17
-2.40
-2.51
-2.32
-1.84
-1.20
-0.62
-0.26
-0.16
-0.24
-0.37
-0.40
-0.28
-0.07
0.15
0.29
0.32
0.28
0.23
0.23
0.30
0.43
0.57
0.70
0.74
0.68
0.51
0.25
-0.03
-0.24
-0.31
-0.22
0.01
0.31
0.63
0.91
1.13
1.26
1.23
0.97
0.47
-0.15
-0.72
-1.01
-0.92
-0.48
0.12
0.64
0.93
0.97
0.90
0.92
1.14
1.52
1.91
2.06
1.86
1.32
0.62
-0.01
-0.37
-0.34
0.07
0.78
1.60
2.29
2.63
2.47
1.88
1.05
0.28
-0.21
-0.35
-0.20
0.10
0.47
0.88
1.32
1.72
1.91
1.74
1.21
0.50
-0.10
-0.39
-0.37
-0.25
-0.28
-0.61
-1.16
-1.72
-2.08
-2.18
-2.09
-1.92
-1.75
-1.52
-1.17
-0.65
-0.05
0.44
0.64
0.45
-0.11
-0.85
-1.54
-1.95
-1.90
-1.40
-0.57
0.32
0.96
1.12
0.76
0.04
-0.72
-1.25
-1.43
-1.29
-0.99
-0.63
-0.22
0.31
1.01
1.82
2.56
3.03
3.14
2.95
2.69
2.59
2.81
3.35
4.05
4.68
5.08
5.18
5.07
4.87
4.73
4.72
4.77
4.76
4.55
4.10
3.47
2.79
2.20
1.76
1.41
1.04
0.54
-0.17
-1.13
-2.25
-3.45
-4.57
-5.48
-6.12
-6.52
-6.74
-6.90
-7.04
-7.16
-7.19
-7.08
-6.90
-6.75
-6.78
-6.99
-7.30
-7.51
-7.47
-7.14
-6.65
-6.19
-5.89
-5.76
-5.65
-5.39
-4.84
-4.00
-2.98
-1.95
-1.09
-0.49
-0.16
0.02
0.22
0.61
1.28
2.21
3.23
4.15
4.88
5.36
5.65
5.80
5.76
5.36
4.50
3.32
2.21
1.70
2.08
3.21
4.50
5.22
4.93
3.76
2.39
1.66
2.13
3.73
5.83
7.64
8.62
8.77
8.56
8.58
9.16
10.22
11.35
12.06
12.07
11.40
10.44
9.63
9.26
9.39
9.88
10.58
11.49
12.75
14.39
16.13
17.28
16.96
14.52
9.93
3.85
-2.54
-8.10
-12.13
-14.52
-15.67
-16.12
-16.27
-16.30
-16.21
-15.92
-15.41
-14.68
-13.75
-12.69
-11.58
-10.55
-9.73
-9.17
-8.88
-8.83
-8.94
-9.15
-9.39
-9.53
-9.47
-9.11
-8.39
-7.37
-6.15
-4.90
-3.80
-3.03
-2.69
-2.80
-3.25
-3.88
-4.46
-4.83
-4.93
-4.79
-4.52
-4.24
-4.03
-3.86
-3.67
-3.37
-2.94
-2.37
-1.69
-0.94
-0.13
0.68
1.42
1.97
2.22
2.15
1.84
1.49
1.28
1.31
1.51
1.70
1.68
1.32
0.69
-0.06
-0.70
-1.07
-1.11
-0.87
-0.50
-0.11
0.22
0.48
0.71
0.91
1.04
0.96
0.54
-0.24
-1.25
-2.20
-2.78
-2.77
-2.16
-1.15
-0.06
0.80
1.25
1.25
0.91
0.40
-0.12
-0.56
-0.90
-1.16
-1.36
-1.48
-1.46
-1.26
-0.86
-0.32
0.27
0.81
1.24
1.54
1.76
1.96
2.18
2.45
2.71
2.87
2.79
2.39
1.74
0.97
0.29
-0.17
-0.41
-0.49
-0.52
-0.47
-0.26
0.18
0.81
1.43
1.78
1.67
1.12
0.32
-0.43
-0.89
-0.96
-0.71
-0.27
0.22
0.64
0.94
1.09
1.12
1.05
0.92
0.73
0.47
0.14
-0.15
-0.26
-0.08
0.42
1.12
1.78
2.19
2.21
1.89
1.37
0.83
0.42
0.22
0.20
0.34
0.53
0.69
0.72
0.60
0.42
0.32
0.45
0.79
1.24
1.60
1.70
1.50
1.14
0.79
0.63
0.71
0.92
1.13
1.20
1.12
0.97
0.82
0.71
0.56
0.25
-0.29
-1.02
-1.75
-2.26
-2.42
-2.23
-1.81
-1.36
-0.99
-0.73
-0.57
-0.51
-0.60
-0.89
-1.40
-2.06
-2.76
-3.38
-3.81
-4.02
-4.00
-3.79
-3.44
-3.03
-2.68
-2.45
-2.36
-2.39
-2.45
-2.50
-2.54
-2.59
-2.67
-2.74
-2.69
-2.39
-1.78
-0.88
0.18
1.25
2.13
2.67
2.79
2.43
1.61
0.40
-1.06
-2.53
-3.77
-4.55
-4.74
-4.35
-3.55
-2.67
-1.99
-1.73
-1.87
-2.22
-2.50
-2.50
-2.18
-1.65
-1.13
-0.76
-0.53
-0.29
0.16
0.93
1.97
3.04
3.86
4.22
4.15
3.82
3.54
3.57
4.03
4.82
5.73
6.56
7.18
7.56
7.72
7.70
7.50
7.10
6.51
5.79
5.05
4.40
3.93
3.65
3.51
3.47
3.44
3.39
3.25
3.01
2.68
2.32
1.97
1.69
1.44
1.21
0.98
0.76
0.65
0.71
0.97
1.38
1.84
2.27
2.60
2.85
3.07
3.26
3.40
3.42
3.24
2.85
2.27
1.62
1.07
0.74
0.71
0.94
1.30
1.61
1.69
1.47
0.96
0.27
-0.44
-1.01
-1.34
-1.42
-1.33
-1.20
-1.13
-1.14
-1.21
-1.29
-1.37
-1.44
-1.53
-1.64
-1.72
-1.71
-1.54
-1.24
-0.91
-0.67
-0.56
-0.56
-0.54
-0.41
-0.17
0.12
0.34
0.41
0.34
0.21
0.12
0.13
0.25
0.45
0.65
0.81
0.90
0.87
0.67
0.31
-0.17
-0.67
-1.10
-1.39
-1.56
-1.67
-1.75
-1.83
-1.84
-1.76
-1.55
-1.28
-1.03
-0.91
-0.96
-1.15
-1.38
-1.53
-1.56
-1.47
-1.36
-1.32
-1.35
-1.38
-1.30
-1.02
-0.58
-0.11
0.28
0.55
0.71
0.80
0.84
0.77
0.50
0.01
-0.61
-1.20
-1.56
-1.60
-1.29
-0.76
-0.17
0.30
0.48
0.29
-0.25
-0.97
-1.59
-1.90
-1.79
-1.37
-0.87
-0.52
-0.43
-0.55
-0.72
-0.79
-0.72
-0.54
-0.31
-0.07
0.19
0.49
0.82
1.10
1.22
1.12
0.82
0.41
0.04
-0.18
-0.17
0.04
0.37
0.65
0.78
0.68
0.40
0.06
-0.16
-0.14
0.09
0.40
0.60
0.55
0.24
-0.20
-0.58
-0.75
-0.67
-0.46
-0.27
-0.26
-0.48
-0.85
-1.23
-1.48
-1.55
-1.47
-1.33
-1.21
-1.08
-0.86
-0.45
0.23
1.09
1.93
2.50
2.62
2.29
1.68
1.06
0.66
0.56
0.66
0.80
0.85
0.81
0.75
0.76
0.86
0.95
0.91
0.68
0.31
-0.03
-0.19
-0.11
0.11
0.27
0.17
-0.26
-0.91
-1.54
-1.89
-1.81
-1.28
-0.48
0.36
1.03
1.40
1.43
1.20
0.79
0.30
-0.18
-0.58
-0.87
-0.99
-0.91
-0.66
-0.29
0.13
0.48
0.70
0.77
0.78
0.83
1.02
1.34
1.71
1.94
1.88
1.48
0.85
0.21
-0.21
-0.29
-0.06
0.33
0.67
0.79
0.68
0.40
0.06
-0.21
-0.38
-0.46
-0.50
-0.55
-0.57
-0.46
-0.16
0.33
0.85
1.17
1.09
0.56
-0.26
-1.05
-1.52
-1.51
-1.11
-0.58
-0.16
0.04
0.08
0.11
0.27
0.56
0.89
1.11
1.17
1.06
0.86
0.67
0.52
0.42
0.34
0.25
0.14
0.04
-0.06
-0.12
-0.15
-0.12
-0.03
0.11
0.23
0.28
0.23
0.09
-0.04
-0.06
0.11
0.43
0.79
1.04
1.05
0.81
0.38
-0.10
-0.50
-0.76
-0.84
-0.79
-0.63
-0.40
-0.11
0.18
0.43
0.54
0.45
0.14
-0.31
-0.76
-1.07
-1.13
-0.92
-0.48
0.07
0.59
0.94
1.02
0.85
0.52
0.22
0.13
0.34
0.77
1.20
1.40
1.20
0.62
-0.16
-0.93
-1.50
-1.82
-1.92
-1.83
-1.58
-1.20
-0.75
-0.36
-0.17
-0.31
-0.76
-1.40
-2.03
-2.43
-2.46
-2.12
-1.53
-0.93
-0.56
-0.52
-0.78
-1.16
-1.42
-1.47
-1.36
-1.24
-1.25
-1.40
-1.55
-1.53
-1.26
-0.82
-0.40
-0.18
-0.26
-0.57
-0.96
-1.30
-1.55
-1.74
-1.94
-2.18
-2.44
-2.62
-2.61
-2.36
-1.91
-1.43
-1.09
-1.02
-1.21
-1.49
-1.64
-1.49
-1.00
-0.31
0.36
0.78
0.88
0.68
0.31
-0.05
-0.25
-0.19
0.12
0.57
0.99
1.21
1.15
0.84
0.40
-0.08
-0.60
-1.22
-2.00
-2.89
-3.70
-4.18
-4.16
-3.68
-2.99
-2.39
-2.09
-2.05
-2.05
-1.82
-1.21
-0.25
0.90
2.00
2.87
3.42
3.64
3.63
3.54
3.50
3.60
3.82
4.06
4.23
4.26
4.17
4.05
3.97
3.97
3.95
3.84
3.57
3.19
2.84
2.70
2.84
3.28
3.86
4.41
4.76
4.86
4.74
4.51
4.26
4.03
3.80
3.60
3.45
3.42
3.54
3.73
3.87
3.83
3.56
3.13
2.63
2.18
1.79
1.42
0.99
0.51
0.04
-0.31
-0.48
-0.48
-0.38
-0.30
-0.32
-0.49
-0.86
-1.38
-1.97
-2.48
-2.72
-2.53
-1.87
-0.87
0.21
1.08
1.52
1.48
1.11
0.66
0.37
0.37
0.63
1.03
1.42
1.67
1.78
1.76
1.65
1.47
1.19
0.81
0.36
-0.09
-0.43
-0.60
-0.55
-0.34
-0.05
0.22
0.38
0.41
0.32
0.18
0.04
-0.07
-0.17
-0.33
-0.61
-1.02
-1.48
-1.85
-2.01
-1.91
-1.58
-1.12
-0.66
-0.24
0.17
0.66
1.34
2.19
3.11
3.90
4.35
4.35
3.97
3.40
2.88
2.59
2.56
2.71
2.88
2.95
2.87
2.68
2.47
2.29
2.14
1.97
1.70
1.30
0.75
0.10
-0.56
-1.15
-1.62
-1.99
-2.31
-2.67
-3.13
-3.70
-4.33
-4.96
-5.57
-6.19
-6.85
-7.54
-8.18
-8.61
-8.66
-8.28
-7.51
-6.51
-5.44
-4.40
-3.37
-2.28
-1.08
0.20
1.47
2.66
3.76
4.84
6.03
7.44
9.06
10.81
12.61
14.44
16.37
18.52
20.98
23.73
26.70
29.85
33.18
36.79
40.79
45.22
50.03
55.07
60.16
65.22
70.20
75.20
80.35
85.81
91.77
98.35
105.69
113.83
122.81
132.57
143.03
154.10
165.65
177.46
189.21
200.46
210.67
219.35
226.01
230.16
231.31
228.97
222.78
212.65
198.74
181.40
160.93
137.48
110.95
81.18
48.15
12.17
-26.23
-66.30
-107.12
-147.40
-185.29
-218.27
-243.66
-259.47
-265.23
-262.49
-254.41
-244.79
-236.92
-232.70
-232.53
-235.68
-240.84
-246.62
-251.70
-254.84
-254.99
-251.60
-244.87
-235.84
-226.15
-217.35
-210.36
-205.02
-200.27
-194.66
-187.06
-177.06
-165.16
-152.40
-139.90
-128.40
-118.09
-108.55
-99.02
-88.57
-76.44
-62.25
-46.16
-28.87
-11.62
4.08
16.75
25.32
29.30
28.76
24.16
16.38
6.49
-4.25
-14.60
-23.50
-30.12
-34.00
-35.18
-34.09
-31.24
-27.09
-22.14
-16.94
-12.06
-7.68
-3.63
0.08
2.90
3.70
0.95
-6.88
-20.86
-41.15
-66.41
-94.04
-120.92
-143.78
-159.14
-163.60
-154.56
-131.14
-94.39
-46.56
9.20
68.92
127.90
181.47
225.49
256.93
274.40
275.96
261.41
235.80
207.96
184.83
168.53
157.28
147.96
137.90
125.78
112.69
99.89
88.31
78.07
68.91
60.58
52.99
46.15
40.14
35.38
32.31
30.69
29.58
27.96
25.23
21.39
16.89
12.37
8.60
6.04
4.55
3.42
1.81
-0.73
-4.10
-7.81
-11.22
-13.71
-14.92
-14.88
-13.93
-12.41
-10.53
-8.30
-5.81
-3.20
-0.74
1.34
2.85
3.74
4.06
3.96
3.63
3.20
2.79
2.49
2.33
2.28
2.24
2.11
1.75
1.14
0.26
-0.85
-2.13
-3.52
-4.89
-6.01
-6.66
-6.70
-6.17
-5.27
-4.35
-3.71
-3.49
-3.63
-3.93
-4.14
-4.08
-3.68
-2.98
-2.05
-0.98
0.14
1.26
2.28
3.13
3.74
4.09
4.20
4.18
4.16
4.25
4.55
5.07
5.76
6.52
7.29
8.03
8.74
9.47
10.19
10.87
11.49
12.04
12.57
13.16
13.87
14.65
15.36
15.84
15.94
15.61
14.91
13.97
12.90
11.77
10.62
9.49
8.42
7.53
6.89
6.54
6.40
6.35
6.23
5.96
5.53
5.01
4.50
4.08
3.77
3.52
3.24
2.86
2.40
1.92
1.51
1.23
1.08
0.97
0.82
0.59
0.30
0.08
0.01
0.10
0.26
0.33
0.17
-0.24
-0.82
-1.39
-1.78
-1.89
-1.73
-1.44
-1.17
-1.07
-1.19
-1.47
-1.81
-2.08
-2.22
-2.25
-2.20
-2.10
-2.00
-1.92
-1.91
-2.02
-2.25
-2.55
-2.83
-2.97
-2.95
-2.79
-2.57
-2.37
-2.21
-2.06
-1.90
-1.72
-1.51
-1.29
-1.02
-0.69
-0.28
0.16
0.57
0.89
1.08
1.15
1.11
1.02
0.93
0.90
0.98
1.15
1.33
1.40
1.29
1.02
0.72
0.53
0.50
0.61
0.72
0.74
0.62
0.43
0.26
0.17
0.15
0.18
0.22
0.22
0.20
0.10
-0.10
-0.43
-0.88
-1.36
-1.69
-1.76
-1.49
-0.99
-0.41
0.08
0.39
0.52
0.56
0.59
0.62
0.58
0.42
0.12
-0.20
-0.41
-0.39
-0.15
0.20
0.47
0.51
0.30
-0.10
-0.56
-0.97
-1.29
-1.51
-1.66
-1.73
-1.70
-1.56
-1.33
-1.07
-0.87
-0.77
-0.77
-0.82
-0.87
-0.93
-1.02
-1.15
-1.31
-1.44
-1.48
-1.40
-1.25
-1.13
-1.10
-1.16
-1.21
-1.15
-0.94
-0.65
-0.41
-0.31
-0.34
-0.35
-0.23
0.11
0.58
1.00
1.16
0.92
0.31
-0.50
-1.30
-1.90
-2.20
-2.20
-1.98
-1.62
-1.23
-0.86
-0.59
-0.47
-0.54
-0.78
-1.17
-1.62
-2.01
-2.24
-2.21
-1.92
-1.45
-0.91
-0.39
0.06
0.46
0.83
1.13
1.31
1.28
1.02
0.62
0.24
0.06
0.15
0.44
0.77
0.99
1.05
0.99
0.90
0.84
0.81
0.75
0.59
0.33
0.00
-0.29
-0.44
-0.41
-0.21
0.08
0.33
0.40
0.24
-0.13
-0.59
-0.95
-1.05
-0.84
-0.38
0.17
0.60
0.77
0.60
0.16
-0.37
-0.78
-0.89
-0.65
-0.17
0.37
0.77
0.95
0.92
0.82
0.75
0.74
0.71
0.57
0.29
-0.05
-0.33
-0.43
-0.32
-0.11
0.05
