1594235058.00
64.000000
-0.00
-0.00
-0.00
-0.00
-0.00
-0.00
-0.00
-0.00
-0.00
-0.00
0.00
0.01
0.01
-0.00
-0.03
-0.05
-0.05
0.00
0.13
0.36
0.66
1.01
1.37
1.72
2.06
2.40
2.79
3.24
3.80
4.42
5.06
5.66
6.20
6.68
7.15
7.68
8.31
9.14
10.09
11.04
11.88
12.56
13.14
13.76
14.65
15.96
17.91
20.32
22.90
25.38
27.58
29.57
31.68
34.32
37.81
42.54
48.15
54.10
59.83
64.97
69.58
74.14
79.34
85.71
93.76
103.00
112.62
121.73
129.77
136.75
143.31
150.75
157.78
166.64
177.93
191.77
206.96
220.60
228.33
225.48
208.62
176.84
132.50
79.49
22.20
-36.06
-93.69
-150.44
-206.47
-261.59
-315.04
-365.37
-411.62
-453.00
-488.81
-518.11
-539.52
-551.40
-552.13
-540.77
-517.13
-482.33
-438.28
-387.38
-332.11
-274.77
-217.29
-161.32
-108.19
-58.90
-14.23
25.39
59.84
89.21
113.58
132.95
147.25
156.49
161.03
161.64
159.51
155.96
151.97
147.85
143.14
136.89
128.25
117.01
103.86
90.26
77.69
67.23
59.02
52.33
46.00
38.87
29.83
17.88
2.42
-15.73
-33.37
-44.91
-43.90
-25.94
8.61
53.86
100.20
137.96
161.06
168.93
165.59
156.90
147.56
139.61
132.78
125.91
118.34
110.51
103.46
98.03
94.30
91.62
88.90
85.64
82.37
80.43
80.81
82.59
82.39
75.34
57.58
29.00
-5.68
-38.48
-61.76
-71.82
-70.35
-62.91
-55.50
-51.47
-50.55
-50.43
-49.25
-47.14
-45.81
-46.69
-49.31
-51.24
-49.68
-43.31
-33.33
-22.91
-15.39
-12.45
-13.50
-16.26
-18.20
-17.85
-15.19
-11.36
-7.68
-4.99
-3.34
-2.26
-1.15
0.39
2.35
4.44
6.11
6.81
6.16
4.19
1.38
-1.37
-3.17
-3.48
-2.47
-0.90
0.27
0.40
-0.44
-1.59
-2.21
-1.75
-0.26
1.73
3.53
4.62
4.81
4.20
3.11
1.97
1.20
1.13
1.85
3.03
4.10
4.45
3.74
1.97
-0.53
-3.30
-5.95
-8.22
-10.00
-11.26
-12.11
-12.75
-13.41
-14.23
-15.19
-16.02
-16.31
-15.81
-14.45
-12.39
-9.89
-7.16
-4.30
-1.49
0.93
2.54
3.06
2.54
1.38
0.13
-0.87
-1.61
-2.36
-3.41
-4.75
-5.93
-6.34
-5.57
-3.67
-1.30
0.66
1.51
1.06
-0.29
-1.89
-3.19
-4.12
-4.97
-6.12
-7.59
-8.94
-9.39
-8.28
-5.50
-1.62
2.38
5.61
7.64
8.65
9.05
9.11
8.75
7.59
5.30
1.87
-2.25
-6.69
-10.72
-13.82
-15.92
-17.14
-17.55
-16.91
-14.71
-10.43
-4.01
4.04
12.63
20.51
26.76
31.06
33.63
34.88
35.10
34.31
32.44
29.47
25.65
21.44
17.35
13.66
10.39
7.39
4.47
1.63
-0.99
-3.28
-5.17
-6.75
-8.13
-9.39
-10.53
-11.50
-12.29
-12.94
-13.49
-13.86
-13.88
-13.31
-12.02
-10.13
-8.02
-6.14
-4.83
-4.14
-3.83
-3.50
-2.82
-1.71
-0.36
0.87
1.60
1.62
0.91
-0.37
-1.96
-3.58
-4.94
-5.81
-6.03
-5.60
-4.72
-3.72
-2.98
-2.70
-2.80
-2.99
-2.90
-2.28
-1.11
0.42
1.98
3.26
4.08
4.39
4.32
4.04
3.70
3.35
2.95
2.40
1.62
0.60
-0.54
-1.65
-2.59
-3.33
-3.85
-4.15
-4.21
-3.97
-3.42
-2.66
-1.88
-1.26
-0.94
-0.93
-1.14
-1.45
-1.76
-2.02
-2.24
-2.47
-2.74
-3.11
-3.57
-4.08
-4.59
-5.07
-5.51
-5.96
-6.43
-6.86
-7.15
-7.16
-6.78
-6.00
-4.92
-3.71
-2.48
-1.31
-0.13
1.17
2.75
4.69
6.95
9.39
11.75
13.76
15.24
16.09
16.33
16.00
15.20
14.02
12.60
11.10
9.75
8.71
8.04
7.69
7.51
7.33
7.03
6.55
5.86
4.97
3.86
2.54
1.07
-0.49
-2.06
-3.63
-5.23
-6.89
-8.64
-10.40
-11.98
-13.15
-13.71
-13.63
-13.03
-12.18
-11.32
-10.59
-9.97
-9.32
-8.53
-7.54
-6.44
-5.30
-4.19
-3.07
-1.88
-0.60
0.65
1.72
2.48
2.94
3.25
3.63
4.21
5.02
5.89
6.59
6.88
6.67
6.00
5.04
4.01
3.07
2.30
1.67
1.07
0.41
-0.44
-1.61
-3.25
-5.46
-8.27
-11.50
-14.83
-17.88
-20.30
-21.94
-22.80
-22.96
-22.52
-21.48
-19.86
-17.78
-15.45
-13.13
-10.95
-8.86
-6.61
-3.93
-0.75
2.73
6.05
8.76
10.54
11.35
11.33
10.71
9.70
8.45
7.12
5.93
5.06
4.65
4.63
4.81
4.90
4.70
4.14
3.30
2.37
1.52
0.91
0.63
0.69
1.00
1.43
1.84
2.14
2.33
2.43
2.45
2.35
2.04
1.47
0.67
-0.21
-0.97
-1.47
-1.75
-1.93
-2.20
-2.60
-3.00
-3.15
-2.74
-1.65
0.04
2.05
4.03
5.69
6.90
7.68
8.09
8.19
7.98
7.47
6.76
6.05
5.55
5.41
5.55
5.66
5.35
4.31
2.52
0.29
-1.86
-3.44
-4.12
-3.85
-2.87
-1.53
-0.17
1.00
1.91
2.54
2.88
2.86
2.49
1.88
1.33
1.20
1.81
3.24
5.24
7.36
9.12
10.23
10.67
10.64
10.41
10.16
9.93
9.62
9.14
8.45
7.61
6.79
6.17
5.86
5.83
5.93
5.93
5.64
5.00
4.08
3.00
1.78
0.36
-1.40
-3.50
-5.75
-7.80
-9.31
-10.16
-10.56
-10.88
-11.49
-12.47
-13.64
-14.65
-15.28
-15.54
-15.68
-15.96
-16.53
-17.26
-17.90
-18.18
-18.00
-17.39
-16.44
-15.19
-13.65
-11.80
-9.72
-7.61
-5.67
-3.98
-2.35
-0.34
2.55
6.66
11.93
17.81
23.43
27.86
30.40
30.85
29.55
27.20
24.68
22.73
21.76
21.82
22.63
23.71
24.56
24.71
23.91
22.11
19.43
16.11
12.37
8.43
4.42
0.46
-3.30
-6.70
-9.59
-11.84
-13.41
-14.27
-14.45
-14.01
-13.10
-11.96
-10.90
-10.19
-9.97
-10.08
-10.18
-9.84
-8.77
-6.97
-4.72
-2.48
-0.69
0.38
0.72
0.51
0.06
-0.31
-0.35
0.09
0.98
2.14
3.25
3.97
4.06
3.47
2.33
0.81
-0.99
-3.10
-5.53
-8.20
-10.86
-13.13
-14.71
-15.55
-15.92
-16.23
-16.89
-18.06
-19.61
-21.29
-22.84
-24.18
-25.38
-26.56
-27.79
-29.05
-30.24
-31.22
-31.77
-31.53
-29.98
-26.50
-20.68
-12.63
-3.11
6.57
14.98
21.08
24.61
26.06
26.31
26.22
26.21
26.35
26.47
26.53
26.69
27.28
28.55
30.48
32.67
34.52
35.39
34.94
33.22
30.63
27.76
25.06
22.71
20.53
18.09
14.99
11.03
6.43
1.67
-2.57
-5.69
-7.38
-7.63
-6.73
-5.10
-3.12
-1.01
1.17
3.43
5.75
7.95
9.74
10.72
10.62
9.36
7.18
4.53
2.00
0.09
-0.91
-0.97
-0.29
0.79
1.90
2.77
3.20
3.10
2.46
1.38
0.07
-1.20
-2.16
-2.69
-2.81
-2.66
-2.33
-1.90
-1.33
-0.64
0.05
0.54
0.62
0.26
-0.40
-1.06
-1.49
-1.65
-1.72
-1.97
-2.58
-3.52
-4.57
-5.42
-5.80
-5.61
-4.97
-4.08
-3.26
-2.73
-2.64
-2.97
-3.59
-4.30
-4.98
-5.55
-6.02
-6.42
-6.73
-6.94
-7.05
-7.14
-7.31
-7.65
-8.15
-8.64
-8.89
-8.70
-8.02
-6.98
-5.85
-4.89
-4.27
-3.97
-3.85
-3.68
-3.29
-2.58
-1.58
-0.44
0.68
1.65
2.40
2.95
3.32
3.50
3.45
3.10
2.44
1.57
0.68
0.01
-0.23
0.04
0.73
1.60
2.33
2.69
2.59
2.17
1.66
1.31
1.25
1.38
1.52
1.49
1.21
0.76
0.36
0.18
0.31
0.72
1.27
1.80
2.20
2.39
2.33
2.05
1.63
1.18
0.82
0.62
0.63
0.82
1.16
1.61
2.08
2.47
2.65
2.50
1.96
1.13
0.20
-0.60
-1.15
-1.44
-1.57
-1.66
-1.73
-1.68
-1.37
-0.74
0.12
0.95
1.49
1.58
1.27
0.79
0.38
0.27
0.48
0.92
1.39
1.74
1.89
1.88
1.84
1.87
2.02
2.23
2.35
2.23
1.78
1.10
0.39
-0.07
-0.13
0.19
0.64
0.94
0.89
0.51
-0.00
-0.35
-0.34
0.02
0.56
1.02
1.22
1.13
0.87
0.64
0.58
0.67
0.76
0.64
0.19
-0.58
-1.50
-2.31
-2.80
-2.90
-2.70
-2.35
-2.03
-1.86
-1.87
-2.07
-2.45
-2.96
-3.54
-4.08
-4.44
-4.53
-4.35
-3.97
-3.49
-2.98
-2.43
-1.80
-1.09
-0.36
0.24
0.57
0.59
0.42
0.23
0.20
0.41
0.81
1.29
1.73
2.09
2.32
2.39
2.26
1.90
1.40
0.93
0.72
0.93
1.52
2.35
3.14
3.73
4.03
4.13
4.17
4.27
4.52
4.90
5.37
5.84
6.26
6.56
6.76
6.88
6.99
7.17
7.44
7.77
8.11
8.40
8.65
8.93
9.32
9.86
10.54
11.24
11.90
12.35
12.36
11.61
9.78
6.73
2.63
-2.05
-6.71
-10.95
-14.86
-18.97
-23.84
-29.56
-35.51
-40.61
-43.88
-44.97
-44.25
-42.64
-41.03
-39.70
-38.11
-35.25
-30.18
-22.66
-13.34
-3.42
5.40
11.36
13.33
11.23
6.12
-0.08
-5.11
-6.91
-3.76
4.26
14.96
24.56
29.01
25.51
13.62
-4.15
-22.80
-35.60
-37.68
-27.87
-8.54
16.33
43.26
70.59
98.35
127.26
158.13
188.90
214.67
229.73
230.25
215.63
188.17
151.52
103.29
47.19
-8.27
-54.24
-86.60
-106.07
-115.32
-116.75
-112.41
-104.10
-92.76
-80.10
-68.32
-59.21
-52.90
-48.17
-43.35
-37.66
-31.34
-24.45
-17.71
-11.97
-7.89
-5.01
-3.16
-0.96
1.67
3.87
5.16
5.33
4.89
4.60
5.84
9.60
15.78
22.59
27.50
28.84
26.45
22.00
17.70
15.84
17.26
20.57
22.33
18.42
5.74
-17.40
-46.61
-79.00
-111.88
-142.36
-166.61
-180.33
-180.36
-167.15
-145.83
-124.61
-111.47
-108.99
-112.74
-113.53
-102.74
-77.46
-42.38
-7.36
18.11
29.39
29.33
25.97
27.89
39.64
59.71
81.50
96.92
100.77
93.02
78.89
66.13
61.39
67.21
81.49
99.27
115.40
126.79
132.34
132.03
125.21
110.10
84.52
47.88
3.08
-43.04
-81.15
-103.75
-109.06
-102.59
-95.23
-98.25
-117.60
-150.17
-184.89
-206.99
-206.76
-184.51
-149.53
-114.10
-87.06
-70.98
-63.30
-59.97
-56.40
-51.74
-48.74
-50.32
-56.55
-65.17
-74.18
-83.28
-93.29
-100.38
-100.10
-90.07
-70.15
-40.99
-3.78
39.34
86.06
134.73
189.73
253.95
324.67
394.56
455.46
500.13
521.96
516.25
452.95
327.94
171.93
28.35
-77.83
-145.28
-184.60
-208.75
-227.34
-245.08
-256.58
-255.13
-238.81
-210.72
-175.87
-138.74
-105.16
-75.85
-51.50
-28.84
-6.61
11.15
18.18
11.76
-3.36
-17.52
-20.65
-7.91
20.62
58.12
93.43
118.04
126.13
122.66
118.38
122.62
137.19
157.26
174.22
179.68
170.33
149.53
125.44
104.67
88.27
71.96
47.82
16.20
-14.86
-34.81
-37.81
-26.30
-7.90
8.06
13.81
5.69
-14.43
-41.73
-70.66
-96.64
-115.81
-125.04
-121.97
-105.69
-77.62
-41.87
-5.78
22.06
35.10
31.97
16.89
-2.49
-18.31
-25.56
-23.14
-14.10
-3.74
2.92
2.84
-4.63
-18.63
-37.65
-59.72
-82.15
-102.13
-117.51
-128.09
-136.26
-146.26
-161.82
-183.29
-205.96
-220.80
-217.79
-189.83
-136.10
-63.13
16.97
89.97
143.24
168.25
162.09
127.96
75.37
18.14
-29.31
-56.14
-57.96
-37.88
-5.23
27.56
49.23
54.19
43.50
22.99
-0.23
-20.30
-34.00
-40.83
-42.03
-39.26
-32.33
-19.55
0.58
27.72
60.07
95.26
130.93
165.00
188.84
193.20
175.55
143.28
107.14
74.60
48.79
30.16
17.83
10.17
5.90
3.62
1.39
-3.24
-11.50
-22.39
-33.35
-41.81
-46.57
-47.42
-45.06
-41.11
-37.94
-37.45
-40.56
-47.51
-58.30
-72.27
-86.65
-96.97
-96.99
-82.53
-53.60
-15.10
24.17
54.58
69.43
67.89
54.83
38.09
24.52
17.88
18.51
24.45
33.06
42.01
49.44
53.61
52.77
45.61
32.28
15.16
-1.61
-13.35
-16.56
-10.01
4.85
24.76
45.12
60.79
68.03
65.89
56.62
45.01
36.67
35.94
44.38
60.26
79.77
98.95
115.29
128.22
138.33
146.16
151.15
151.65
145.85
133.13
114.90
94.30
74.85
58.99
47.14
37.90
29.07
19.06
7.79
-3.33
-12.33
-17.97
-20.46
-21.54
-23.69
-28.93
-37.88
-49.47
-61.28
-70.79
-75.95
-75.93
-71.36
-64.21
-57.07
-52.23
-50.85
-52.62
-56.09
-58.98
-59.00
-54.81
-46.68
-36.38
-26.52
-19.41
-16.17
-16.70
-19.34
-21.53
-21.27
-18.42
-14.88
-13.60
-17.15
-26.27
-40.77
-57.97
-73.50
-83.59
-87.11
-85.87
-83.07
-81.46
-82.15
-87.36
-96.95
-108.36
-118.64
-126.78
-133.39
-139.09
-143.43
-145.10
-147.45
-152.59
-159.71
-166.60
-172.33
-177.25
-181.51
-184.64
-186.05
-191.73
-205.45
-225.74
-247.84
-267.98
-284.58
-297.04
-305.08
-271.23
-184.05
-65.23
49.95
140.27
201.75
238.56
257.36
265.31
269.09
267.83
261.04
251.12
241.70
234.23
228.04
222.49
218.03
215.73
212.37
207.03
203.08
205.68
217.59
235.90
254.66
266.64
265.62
245.43
205.21
150.30
89.19
29.43
-23.79
-66.72
-96.80
-112.57
-115.63
-109.07
-96.68
-83.51
-75.52
-77.33
-90.06
-111.30
-136.32
-160.32
-179.09
-189.32
-190.08
-183.27
-172.48
-161.48
-153.37
-149.56
-148.88
-146.94
-136.74
-112.43
-72.45
-20.29
36.65
89.01
128.26
147.28
140.15
111.34
74.34
41.69
18.91
5.88
0.13
-1.03
0.04
2.22
6.19
13.49
25.76
44.47
69.55
98.12
125.28
144.77
152.13
146.82
131.45
109.71
84.94
59.37
34.29
11.07
-8.04
-18.96
-18.07
-5.59
13.66
32.21
42.79
41.46
28.82
9.33
-10.58
-25.68
-32.81
-31.58
-23.72
-11.95
1.07
13.16
22.89
29.79
34.32
37.63
41.11
45.63
51.39
58.04
65.04
72.17
79.98
88.90
97.83
102.79
97.57
76.84
39.79
-7.97
-56.30
-95.20
-119.61
-130.69
-133.15
-130.86
-124.08
-110.79
-91.08
-70.29
-57.78
-61.29
-80.75
-106.27
-122.63
-117.57
-89.32
-48.15
-10.58
10.11
11.14
1.26
-4.88
4.23
30.27
63.98
89.80
93.60
68.55
17.09
-51.17
-124.06
-190.57
-242.51
-274.03
-281.68
-265.14
-228.97
-182.53
-137.08
-101.09
-76.12
-56.52
-33.37
-0.64
40.29
80.97
111.16
125.03
123.96
115.12
106.98
105.22
110.91
121.34
132.68
142.63
150.97
158.35
165.26
171.49
176.91
181.81
185.50
185.26
177.11
157.85
126.70
86.20
41.66
0.24
-30.78
-46.95
-47.54
-34.02
-8.87
24.87
63.29
95.03
106.26
93.10
65.42
38.01
21.89
20.62
31.70
48.68
65.46
76.60
79.25
72.42
56.47
33.50
5.79
-22.96
-48.30
-64.05
-66.83
-56.79
-37.95
-16.88
-0.12
5.42
-2.81
-22.14
-46.38
-69.29
-86.15
-95.42
-99.30
-103.00
-116.00
-144.62
-188.12
-238.94
-287.08
-323.64
-344.04
-349.06
-321.34
-258.94
-177.66
-99.44
-37.22
6.41
33.55
47.13
50.62
48.24
41.66
32.74
24.16
18.48
15.77
16.22
19.13
23.33
28.14
32.31
36.53
43.62
56.25
74.66
96.35
117.69
136.16
144.34
139.78
125.82
108.90
93.74
81.74
71.65
61.92
51.66
41.60
33.94
30.98
35.59
46.95
62.44
77.62
86.92
84.05
64.64
28.48
-20.69
-75.82
-128.71
-171.53
-198.95
-203.02
-181.06
-135.62
-72.61
0.36
75.55
145.98
206.37
252.78
282.26
291.99
280.77
250.22
204.78
149.55
88.18
22.22
-48.13
-122.19
-197.59
-268.29
-325.07
-357.38
-358.45
-328.90
-276.67
-213.73
-151.66
-98.30
-55.83
-22.00
8.40
38.86
69.04
96.05
117.40
133.18
145.80
158.69
165.62
162.71
151.04
134.93
117.51
100.43
85.13
73.35
66.38
64.21
67.08
74.15
82.19
86.03
80.56
63.59
37.72
9.94
-11.32
-20.93
-18.84
-10.98
-5.94
-9.76
-22.51
-38.79
-49.81
-50.32
-40.90
-26.79
-14.60
-8.28
-7.30
-8.01
-6.69
-2.63
3.63
9.51
12.53
11.32
6.19
-1.21
-8.52
-13.78
-16.14
-16.20
-16.56
-19.77
-27.75
-41.32
-60.10
-82.95
-109.10
-139.15
-169.57
-200.45
-232.54
-266.71
-303.27
-342.76
-385.94
-432.86
-481.20
-525.25
-557.57
-570.10
-557.52
-519.27
-460.58
-390.73
-319.49
-253.78
-196.24
-146.95
-104.58
-68.21
-36.70
-9.68
12.83
31.13
46.32
59.94
72.56
84.06
93.46
102.82
113.36
124.25
133.42
139.74
143.85
147.19
151.14
156.42
169.33
193.01
224.57
257.22
285.56
308.27
326.95
344.12
361.68
390.17
434.55
489.65
543.88
587.93
619.26
640.60
656.72
672.47
704.87
764.30
846.77
937.37
1019.70
1081.96
1117.11
1122.17
1017.64
777.65
448.98
119.41
-147.12
-334.97
-457.69
-535.41
-583.88
-612.78
-615.18
-588.76
-546.01
-504.56
-477.91
-469.56
-475.39
-488.68
-503.81
-508.34
-490.25
-454.88
-415.79
-385.00
-367.52
-362.28
-364.61
-367.86
-358.54
-327.03
-273.97
-208.11
-141.70
-85.34
-45.43
-23.14
-14.84
-11.32
-5.04
5.38
16.99
25.63
29.08
27.72
23.83
20.11
19.65
23.74
31.12
39.42
46.23
50.05
50.48
48.32
45.30
44.28
47.38
55.50
67.60
80.48
89.82
91.92
85.56
71.77
52.94
31.56
9.92
-9.60
-24.24
-31.14
-28.74
-17.86
-3.18
8.95
13.98
12.47
10.18
14.43
29.47
53.34
79.14
97.00
100.01
88.05
68.22
50.69
42.91
46.07
55.27
63.70
63.04
49.11
23.69
-5.81
-30.05
-42.27
-41.21
-31.46
-19.61
-15.74
-26.40
-51.80
-85.31
-113.42
-125.29
-118.22
-108.84
-107.57
-122.73
-151.51
-189.78
-231.77
-273.29
-313.27
-351.55
-385.54
-390.98
-353.40
-276.50
-180.95
-89.07
-14.97
36.66
67.88
84.14
91.70
90.59
78.98
56.43
27.60
0.00
-18.52
-25.16
-20.68
-8.16
4.82
11.78
10.24
3.49
-2.98
-4.90
-1.02
7.55
18.92
30.27
41.37
50.76
61.11
75.24
94.14
116.53
140.27
163.33
183.25
198.12
206.57
208.61
204.67
195.73
183.45
170.05
157.48
146.18
135.39
124.04
112.30
101.17
92.06
85.98
82.99
82.23
81.93
80.38
76.88
72.48
68.97
67.98
70.20
75.25
82.14
88.95
93.54
94.58
92.04
86.64
79.38
71.39
64.02
58.88
56.00
53.38
47.66
35.44
14.34
-16.15
-54.26
-98.63
-141.61
-173.93
-190.67
-193.61
-187.86
-177.85
-165.78
-152.27
-137.56
-121.92
-106.85
-94.35
-85.55
-79.96
-75.98
-71.87
-66.53
-59.68
-51.49
-43.15
-36.19
-31.52
-28.91
-27.33
-25.66
-23.15
-19.64
-15.18
-10.51
-6.58
-3.97
-2.61
-1.94
-1.34
-0.37
1.10
3.10
5.32
7.34
8.83
9.79
10.42
10.96
11.60
12.40
13.47
14.74
16.09
17.36
18.48
19.40
20.14
20.75
21.30
21.99
22.90
24.00
25.08
25.76
25.63
24.38
21.96
18.41
14.29
10.00
5.74
1.37
-3.49
-9.27
-16.10
-23.29
-30.30
-36.16
-40.09
-41.83
-41.94
-41.52
-41.79
-43.51
-46.89
-50.91
-54.22
-55.90
-55.66
-54.13
-52.55
-52.10
-53.50
-57.08
-62.83
-70.27
-78.06
-83.56
-83.25
-73.94
-54.52
-27.03
3.60
31.36
51.64
62.81
66.32
65.10
61.80
57.72
53.00
47.69
42.61
39.22
38.79
41.32
45.22
48.29
48.74
46.10
41.63
37.59
36.40
39.91
49.04
63.06
79.53
94.30
102.38
99.62
84.77
60.52
32.63
8.67
-6.17
-10.72
-7.64
-1.35
4.43
8.42
11.39
14.83
19.31
23.82
26.64
26.46
23.24
17.96
12.25
7.49
3.93
0.95
-2.65
-7.82
-14.80
-22.44
-29.82
-35.62
-39.02
-39.96
-39.05
-37.33
-35.72
-34.98
-34.80
-34.77
-34.36
-33.21
-31.37
-29.17
-27.12
-25.65
-24.91
-24.75
-24.90
-25.03
-24.88
-24.42
-23.80
-23.25
-22.97
-23.06
-23.47
-24.01
-24.50
-24.71
-24.43
-23.57
-22.05
-19.85
-16.88
-13.36
-8.91
-3.36
3.29
10.85
18.75
26.23
32.48
36.75
38.63
38.19
35.76
31.90
27.13
21.48
14.89
7.12
-1.88
-11.73
-21.47
-29.87
-35.70
-38.20
-37.74
-35.21
-31.86
-28.81
-26.50
-24.46
-21.71
-17.58
-11.97
-6.14
-1.82
-0.83
-4.67
-14.25
-29.86
-51.01
-75.82
-98.57
-114.48
-118.38
-107.37
-82.79
-50.34
-18.08
6.83
20.87
24.90
22.49
17.88
13.67
10.26
6.89
3.12
-0.37
-2.18
-1.23
2.12
6.60
10.45
12.14
11.31
8.72
6.04
4.90
6.10
9.18
12.90
15.60
15.85
12.94
6.94
-1.46
-11.23
-21.86
-32.88
-43.94
-54.70
-64.60
-72.67
-77.72
-78.65
-74.39
-64.62
-49.74
-30.83
-9.29
13.37
35.80
56.92
74.62
88.62
98.83
105.37
108.43
108.43
105.95
101.56
95.91
89.51
83.03
76.72
70.72
65.01
59.60
54.46
49.58
44.94
40.52
36.54
33.00
29.84
26.92
24.19
21.58
19.03
16.59
14.29
12.32
10.73
9.85
9.29
8.87
8.48
8.06
7.63
7.30
7.25
7.59
8.21
8.92
9.49
9.66
9.27
8.36
7.18
6.03
5.45
5.12
4.61
3.46
1.24
-2.14
-6.25
-10.24
-13.10
-14.09
-13.15
-10.89
-8.35
-6.64
-6.29
-6.98
-7.59
-6.72
-3.37
2.48
9.79
16.86
22.04
24.40
24.20
22.74
21.81
23.19
28.14
37.10
49.09
61.25
68.90
66.73
50.83
20.83
-18.90
-60.20
-93.69
-112.44
-114.54
-103.32
-85.45
-67.65
-54.13
-45.63
-40.24
-35.10
-28.13
-18.58
-6.81
6.36
20.10
33.74
46.92
59.32
70.80
80.83
88.49
92.50
91.37
83.68
68.55
46.13
17.14
-14.71
-44.07
-65.50
-75.19
-72.49
-60.34
-44.31
-30.74
-24.69
-28.46
-41.88
-62.96
-88.79
-116.18
-142.27
-164.93
-183.09
-197.20
-208.64
-219.36
-230.71
-242.49
-252.67
-258.11
-256.04
-245.22
-226.49
-201.95
-174.21
-145.11
-115.12
-83.65
-49.77
-13.36
24.76
63.48
102.45
142.03
183.37
228.23
278.16
333.32
391.16
446.16
490.76
517.64
521.23
499.55
455.58
396.19
329.69
262.81
199.31
140.39
86.18
35.59
-13.63
-63.93
-117.62
-176.70
-243.17
-318.38
-401.75
-483.17
-545.27
-571.91
-557.16
-508.14
-440.14
-370.21
-312.09
-272.78
-251.68
-242.96
-240.59
-240.88
-242.31
-244.15
-245.46
-244.47
-238.48
-224.52
-200.81
-171.60
-140.85
-111.58
-84.90
-60.30
-36.44
-11.91
14.00
40.47
65.10
85.75
101.21
111.71
118.52
123.25
127.23
131.37
135.56
138.82
140.52
140.64
140.02
139.82
141.01
143.92
148.52
154.29
160.52
167.03
174.15
182.76
194.05
209.36
229.67
255.44
285.18
314.99
339.32
352.65
351.73
336.84
311.58
281.29
252.10
227.76
208.76
193.23
178.83
164.34
149.83
135.96
123.23
114.38
111.35
114.42
122.07
131.96
142.10
151.10
158.11
162.70
169.09
180.65
197.96
218.24
237.40
252.44
262.31
267.46
269.13
274.18
287.75
310.79
339.73
369.37
395.86
417.27
432.46
406.21
319.27
176.14
5.27
-159.07
-294.09
-392.04
-455.44
-491.63
-509.07
-509.68
-494.74
-467.27
-433.03
-398.59
-368.70
-345.50
-329.01
-317.97
-306.43
-289.66
-266.40
-239.31
-212.77
-190.15
-172.92
-160.94
-153.16
-145.56
-134.99
-120.53
-103.76
-87.35
-73.28
-62.42
-54.66
-49.46
-44.82
-39.23
-32.20
-24.34
-16.79
-10.16
-4.72
-0.47
2.53
4.57
5.78
6.08
5.31
3.10
0.00
-3.57
-7.42
-11.69
-16.79
-23.13
-30.82
-38.84
-46.80
-53.75
-58.97
-62.18
-63.60
-63.81
-63.60
-63.95
-66.03
-70.99
-78.80
-87.65
-93.63
-91.79
-78.30
-52.76
-19.13
15.43
43.28
59.66
64.36
61.00
54.56
49.04
45.84
44.34
43.51
43.11
43.48
44.13
42.77
36.03
21.70
0.94
-21.21
-37.60
-42.57
-34.90
-18.41
0.05
14.24
21.26
22.12
20.14
18.62
19.11
21.40
24.59
28.07
31.99
36.87
43.01
50.23
57.72
64.40
69.51
72.87
75.32
78.49
83.63
90.35
95.95
96.46
88.66
72.06
49.40
25.48
4.70
-11.05
-22.18
-30.92
-38.90
-45.90
-50.28
-50.54
-46.71
-40.55
-34.46
-30.03
-27.43
-25.56
-23.24
-19.92
-15.71
-11.27
-7.32
-4.28
-1.97
-0.05
1.95
4.42
7.50
10.98
14.37
17.17
19.07
19.97
19.96
19.22
17.73
15.56
12.70
9.03
4.58
-0.47
-5.84
-11.21
-15.81
-19.80
-23.09
-25.59
-27.26
-28.07
-28.05
-27.36
-26.59
-25.87
-25.60
-25.83
-26.41
-26.95
-27.07
-26.57
-25.63
-24.78
-24.62
-25.72
-28.06
-31.14
-34.09
-36.10
-36.82
-36.59
-36.36
-37.24
-40.09
-44.94
-50.97
-56.83
-61.40
-64.09
-65.26
-65.89
-67.18
-70.18
-75.63
-83.97
-95.04
-107.43
-118.03
-122.58
-116.92
-99.30
-71.70
-39.58
-9.81
12.20
24.65
29.55
31.05
33.23
37.91
44.72
52.27
59.48
66.50
74.20
83.31
92.87
101.94
108.87
112.14
111.26
106.85
100.53
94.14
89.48
86.67
85.17
83.61
80.46
74.98
66.80
56.83
46.73
38.19
32.17
28.74
26.87
24.99
21.61
16.32
9.92
4.08
0.54
0.15
2.83
7.90
14.67
22.64
31.18
38.69
42.02
37.42
22.28
-2.89
-34.40
-65.20
-89.65
-105.74
-115.05
-120.40
-122.81
-120.07
-108.47
-85.06
-51.64
-14.84
16.65
36.08
41.62
36.47
26.52
16.50
9.64
5.30
1.15
-4.43
-11.06
-16.62
-18.68
-16.14
-9.67
-1.06
6.71
11.67
13.54
13.64
14.13
16.91
22.67
30.60
38.84
45.16
48.18
47.97
45.81
43.65
43.24
45.65
51.07
59.07
68.28
76.66
81.45
79.78
69.86
52.16
29.74
7.39
-10.17
-20.19
-22.73
-20.18
-15.98
-12.72
-11.30
-11.19
-11.32
-11.12
-10.96
-11.86
-14.87
-20.68
-28.97
-38.43
-47.30
-54.02
-57.88
-59.38
-60.08
-60.43
-61.46
-63.74
-67.17
-71.14
-74.81
-77.21
-77.23
-73.45
-64.36
-49.09
-27.73
-1.56
27.16
56.03
83.37
108.71
132.45
155.04
175.91
193.34
204.82
208.00
201.64
186.21
163.99
138.44
113.27
91.26
73.45
58.63
43.72
24.84
-1.20
-35.48
-76.73
-122.13
-169.10
-216.50
-264.82
-314.81
-365.61
-413.69
-453.42
-478.99
-486.76
-476.33
-449.94
-410.72
-361.40
-304.36
-242.68
-181.01
-125.28
-80.61
-48.86
-27.25
-9.16
12.77
42.90
80.53
120.55
156.40
183.69
202.36
216.16
230.06
247.02
266.25
284.09
296.57
301.92
301.46
298.47
295.78
293.88
290.82
283.49
270.29
252.51
233.79
217.84
206.07
196.62
185.49
168.78
144.20
113.01
79.83
50.92
31.29
22.55
22.59
27.10
31.69
32.49
28.21
20.57
13.21
9.34
9.67
12.04
12.58
7.28
-8.16
-35.64
-73.82
-118.53
-164.86
-209.18
-249.59
-285.35
-305.57
-301.29
-271.22
-224.14
-172.25
-124.50
-85.04
-54.47
-31.17
-12.50
2.16
13.10
20.44
24.85
27.05
27.53
26.71
25.35
24.47
22.19
17.73
10.19
-0.63
-14.30
-29.97
-46.37
-61.83
-71.64
-76.72
-78.86
-80.04
-81.45
-83.60
-86.81
-91.42
-97.47
-103.99
-109.24
-109.29
-99.92
-78.60
-46.41
-8.48
27.96
56.57
74.29
81.43
81.30
77.47
72.26
66.39
59.91
53.37
48.07
45.42
45.56
47.59
49.39
48.88
44.85
37.68
29.34
22.85
21.21
25.82
35.69
46.63
52.42
47.35
28.10
-4.19
-44.27
-84.49
-117.28
-136.86
-140.23
-127.13
-99.88
-63.03
-22.70
14.39
42.52
58.66
63.22
59.38
51.53
43.34
36.89
33.35
33.15
36.05
40.46
43.22
39.82
26.46
2.04
-30.67
-65.44
-95.00
-113.83
-119.99
-114.57
-101.09
-83.30
-64.26
-46.04
-30.23
-18.92
-14.71
-19.57
-32.14
-48.30
-62.05
-68.15
-64.06
-50.54
-30.99
-9.44
11.71
34.68
61.57
95.39
137.42
186.45
239.91
294.98
349.47
391.27
410.75
402.50
367.66
313.05
248.09
182.25
122.39
72.11
31.86
1.54
-19.41
-31.71
-35.05
-31.17
-21.78
-9.52
2.19
9.76
11.17
5.44
-8.07
-29.17
-55.08
-77.44
-86.07
-74.08
-42.16
-1.20
37.40
62.91
68.76
54.70
26.26
-9.11
-45.73
-78.22
-103.03
-118.07
-123.22
-120.35
-112.95
-105.74
-104.27
-112.89
-132.04
-157.14
-178.99
-187.67
-177.71
-149.37
-108.06
-61.80
-17.55
21.62
56.42
89.08
119.98
144.37
157.49
158.44
151.47
143.34
139.27
139.67
139.62
131.52
105.82
59.48
-1.98
-67.88
-128.57
-179.38
-220.75
-256.85
-293.19
-339.33
-399.94
-471.61
-543.64
-602.94
-638.52
-643.78
-618.42
-539.17
-407.73
-249.99
-100.77
17.82
101.89
155.58
192.92
224.70
258.08
292.58
326.92
357.30
379.55
387.55
375.19
333.51
265.16
185.06
109.53
51.75
18.26
9.90
22.51
47.97
75.94
96.46
102.24
89.30
61.95
32.13
13.95
15.72
36.19
66.24
95.17
115.32
122.75
118.07
104.39
85.15
62.37
38.31
14.72
-4.44
-15.23
-17.02
-12.76
-7.22
-4.03
-4.27
-6.10
-6.14
-1.06
10.11
24.41
36.35
40.76
35.37
21.82
4.86
-9.57
-16.32
-12.91
-1.71
11.08
17.81
12.03
-9.94
-48.92
-102.84
-167.02
-228.36
-270.42
-280.09
-254.24
-199.99
-130.38
-59.63
0.52
43.69
69.72
82.01
85.41
84.18
81.26
78.44
76.50
75.56
75.21
75.63
74.68
70.38
62.17
51.16
39.88
30.82
25.48
24.14
26.07
29.29
31.50
30.76
26.07
17.73
7.07
-4.01
-13.57
-19.75
-22.22
-21.77
-20.01
-18.37
-17.54
-17.39
-17.36
-16.85
-15.47
-13.54
-11.50
-9.68
-8.03
-6.29
-4.25
-2.05
0.08
2.07
3.98
6.33
9.79
14.84
21.35
28.63
35.63
41.57
46.34
49.68
51.41
51.22
48.85
44.22
37.69
29.95
22.47
17.16
14.54
14.21
14.95
15.28
13.71
8.84
-1.25
-17.26
-37.84
-61.05
-82.73
-97.29
-98.88
-84.22
-54.82
-18.76
12.92
29.99
24.14
-6.67
-58.17
-121.41
-186.54
-245.86
-296.40
-335.91
-347.79
-317.44
-241.13
-132.60
-16.05
83.35
158.40
206.41
229.05
232.61
218.62
191.62
157.39
122.94
95.21
79.50
75.63
79.91
87.02
89.72
82.60
63.63
35.83
5.02
-18.62
-26.97
-18.28
4.05
33.89
65.13
91.23
107.67
113.11
109.55
99.50
85.66
70.43
54.40
36.84
16.12
-8.51
-36.03
-62.15
-81.97
-92.61
-94.41
-90.59
-84.67
-78.86
-73.16
-66.16
-56.40
-44.30
-32.22
-22.78
-17.84
-17.41
-19.94
-22.61
-22.57
-18.06
-9.57
0.19
7.96
11.06
8.77
2.49
-4.64
-9.13
-8.90
-4.28
1.20
3.78
0.16
-10.72
-27.58
-47.44
-66.90
-82.98
-92.06
-93.00
-84.83
-68.16
-44.95
-18.65
6.97
29.15
47.54
63.81
79.70
95.71
107.61
110.01
97.18
67.47
25.58
-17.72
-48.88
-56.79
-37.23
4.17
54.03
96.19
118.00
114.71
90.39
55.00
18.81
-8.50
-24.11
-30.38
-31.48
-30.12
-26.43
-19.49
-9.33
2.01
11.26
15.19
13.14
7.31
1.39
-1.47
-0.18
3.70
7.11
6.86
1.69
-7.68
-18.84
-29.29
-37.64
-44.12
-50.46
-57.98
-68.95
-83.73
-99.92
-112.57
-115.82
-105.33
-80.60
-45.77
-8.52
22.96
43.48
52.60
54.27
54.09
56.54
62.86
70.56
74.93
71.12
56.92
33.48
5.16
-22.05
-42.76
-54.06
-56.58
-53.60
-48.87
-46.52
-48.27
-52.07
-54.61
-52.42
-43.30
-27.27
-6.69
14.44
31.94
42.66
46.47
45.20
41.31
36.39
30.54
23.19
14.29
5.25
-1.32
-3.06
0.42
7.21
14.09
18.09
17.95
14.72
11.22
10.79
15.29
24.40
35.85
46.67
54.27
57.72
57.76
56.39
55.94
58.29
64.38
73.91
84.91
93.67
95.43
85.88
63.48
30.75
-6.12
-39.37
-62.59
-73.20
-72.81
-64.81
-54.35
-44.45
-35.51
-26.68
-17.35
-8.09
-0.39
4.60
6.85
7.37
7.83
9.75
13.51
18.38
22.95
25.71
25.98
23.83
20.29
16.80
14.57
14.05
14.91
16.20
16.60
15.28
11.82
6.34
-0.53
-7.98
-15.31
-22.12
-27.38
-31.96
-36.44
-41.20
-46.32
-51.39
-55.72
-58.53
-59.30
-58.06
-55.68
-53.32
-52.22
-53.17
-56.09
-60.15
-63.96
-66.44
-67.03
-66.23
-65.09
-64.77
-66.19
-69.97
-76.57
-85.81
-96.35
-105.17
-108.08
-101.05
-82.42
-54.62
-22.84
5.86
25.80
34.80
34.53
28.84
21.50
14.48
7.91
1.04
-6.46
-13.76
-19.29
-21.84
-21.21
-18.23
-14.12
-9.77
-5.15
0.40
7.93
18.18
31.04
45.52
59.92
71.86
80.43
85.41
87.28
87.00
85.59
83.69
81.50
79.18
76.14
72.28
67.76
62.97
58.43
54.53
51.41
48.96
46.81
44.61
42.27
39.77
37.13
34.47
31.77
28.94
26.14
22.92
19.16
15.04
10.77
6.66
2.93
-0.30
-3.03
-5.28
-7.06
-8.24
-8.52
-7.63
-5.46
-2.15
1.88
5.95
9.38
11.61
12.48
12.23
11.38
10.51
10.09
10.29
11.10
12.28
13.58
14.92
16.39
18.40
21.68
27.16
35.59
46.82
59.16
69.34
73.18
67.38
50.97
26.05
-2.72
-29.84
-50.72
-62.89
-66.01
-61.42
-51.15
-37.72
-24.06
-13.28
-8.12
-9.98
-18.28
-30.41
-42.85
-52.22
-56.72
-56.10
-51.02
-42.05
-29.37
-12.98
7.76
31.29
54.43
72.58
81.57
79.28
66.65
47.32
26.19
7.49
-6.70
-16.36
-23.38
-29.69
-36.07
-42.11
-47.31
-52.27
-59.12
-70.60
-83.90
-94.59
-97.92
-91.17
-74.83
-52.15
-27.43
-4.53
14.31
28.86
39.55
47.04
52.15
55.83
58.62
60.83
62.33
63.04
62.88
60.61
55.65
48.00
38.48
27.69
16.15
3.71
-9.71
-24.27
-36.96
-47.95
-57.08
-63.28
-65.98
-65.15
-62.06
-58.14
-54.90
-53.37
-53.91
-57.69
-61.53
-63.70
-61.34
-57.12
-53.81
-53.44
-56.66
-63.21
-71.87
-80.76
-88.43
-92.88
-91.89
-82.50
-63.18
-35.01
-2.18
29.63
55.77
73.91
85.24
92.33
97.25
99.18
94.52
79.36
52.15
16.03
-22.70
-56.64
-81.18
-96.05
-105.22
-114.72
-129.06
-148.43
-168.04
-180.44
-178.21
-158.30
-123.26
-80.23
-37.90
-3.20
21.14
36.76
47.00
55.56
63.35
68.88
70.08
66.28
58.90
51.22
46.57
46.08
49.89
56.19
62.76
68.85
75.49
84.77
99.68
122.94
146.18
164.07
172.76
170.90
160.10
143.69
124.96
107.12
92.51
80.49
70.02
59.21
46.57
32.30
20.86
11.68
4.61
0.67
-0.21
2.40
7.84
13.55
15.88
9.80
-9.71
-50.25
-106.72
-168.64
-225.05
-269.96
-305.56
-334.53
-357.87
-373.87
-378.06
-365.50
-335.79
-293.02
-243.25
-195.07
-153.88
-121.24
-95.38
-72.20
-47.08
-17.97
15.00
50.28
85.97
122.29
159.30
196.60
233.82
271.17
308.81
347.54
388.75
433.88
484.79
539.48
591.33
630.76
648.73
639.81
604.51
548.81
481.92
414.18
351.56
295.09
243.02
193.57
146.31
102.28
62.47
15.74
-40.07
-98.93
-151.25
-190.20
-214.25
-227.42
-233.12
-234.64
-235.66
-237.37
-242.17
-252.45
-268.56
-288.70
-309.92
-329.87
-347.07
-348.16
-323.79
-274.80
-212.23
-148.63
-91.84
-44.35
-7.05
20.73
41.14
54.62
63.84
69.98
74.18
77.41
80.07
79.23
72.47
59.38
40.07
18.60
-3.48
-25.31
-46.82
-68.58
-95.03
-128.98
-169.57
-213.56
-257.21
-298.98
-338.83
-377.94
-394.40
-377.51
-332.77
-277.99
-229.63
-194.09
-169.12
-146.97
-118.89
-79.02
-30.85
18.05
59.51
88.19
102.92
105.95
101.99
95.82
90.32
82.98
71.84
57.23
42.29
31.18
26.26
27.63
33.55
41.54
47.17
49.29
48.93
48.65
50.75
55.88
63.00
69.98
74.66
74.13
68.85
60.44
51.16
42.97
36.87
33.05
31.35
32.62
26.31
9.11
-18.60
-53.32
-90.43
-126.27
-158.99
-188.36
-211.98
-232.04
-248.03
-259.41
-265.77
-267.08
-263.53
-255.04
-244.04
-231.26
-218.56
-204.97
-189.69
-172.38
-153.23
-132.92
-112.43
-92.73
-72.56
-53.94
-35.54
-16.23
4.72
27.34
51.14
75.23
98.74
124.62
149.15
172.87
195.88
217.79
238.04
256.88
275.76
296.90
326.78
358.65
388.12
408.53
414.09
402.74
377.32
343.84
308.69
282.24
257.93
235.01
213.66
196.41
187.10
188.39
199.49
175.97
165.61
157.38
151.19
148.19
147.87
145.16
130.77
94.71
32.63
-44.03
-128.35
-201.83
-248.80
-261.26
-242.48
-204.40
-162.54
-127.84
-99.36
-80.67
-67.38
-55.73
-41.86
-24.07
-1.97
22.47
49.08
79.43
106.08
122.98
125.48
116.69
104.04
96.43
98.10
113.26
144.06
186.14
233.83
280.80
325.36
364.09
391.00
395.55
375.16
334.54
282.84
230.47
158.68
62.06
-52.20
-145.04
-213.84
-263.67
-304.83
-337.73
-360.05
-369.69
-362.23
-337.80
-301.35
-264.25
-232.24
-207.25
-188.12
-173.72
-163.22
-152.85
-140.54
-126.25
-114.39
-105.73
-99.53
-93.98
-87.57
-78.39
-61.64
-33.45
6.87
53.47
98.65
133.20
150.18
147.55
129.22
104.13
80.86
63.86
51.73
41.10
28.69
14.09
-0.60
-13.61
-25.28
-38.70
-57.49
-82.86
-111.19
-135.73
-148.48
-143.18
-118.76
-79.56
-33.28
12.59
53.73
89.91
123.37
151.28
170.89
180.11
178.56
166.65
145.31
116.69
88.87
63.42
41.44
24.02
10.51
-1.72
-16.42
-36.79
-63.61
-95.24
-128.97
-160.66
-186.08
-202.63
-209.58
-207.60
-198.06
-182.72
-163.85
-144.70
-127.41
-112.39
-98.58
-84.13
-67.45
-48.19
-27.47
-7.85
7.17
14.46
11.59
-2.79
-28.07
-60.72
-93.91
-118.53
-125.80
-110.64
-73.37
-19.86
40.44
97.72
144.63
177.49
195.88
201.01
193.93
175.02
144.20
101.87
49.76
-8.99
-70.27
-130.02
-185.14
-233.96
-275.94
-310.76
-337.45
-354.07
-358.32
-348.58
-325.03
-289.70
-246.32
-199.18
-152.09
-107.48
-66.25
-28.23
7.19
40.62
72.76
103.45
131.62
155.75
174.81
188.66
197.76
202.16
200.56
191.04
170.79
138.47
96.71
53.25
19.08
4.47
15.20
50.67
106.05
172.46
239.72
299.01
344.68
374.42
388.65
389.82
381.69
370.16
358.74
347.19
332.15
309.48
276.42
232.37
178.87
107.63
21.86
-66.18
-141.80
-196.34
-229.16
-244.15
-246.23
-239.93
-229.00
-214.68
-198.63
-183.06
-169.90
-159.64
-151.40
-143.88
-136.34
-128.75
-120.15
-110.56
-100.99
-92.59
-85.81
-80.31
-75.51
-71.20
-67.45
-63.48
-58.93
-53.97
-49.06
-44.61
-41.00
-38.45
-37.19
-37.00
-36.48
-34.42
-30.48
-25.66
-21.76
-20.04
-19.99
-19.01
-13.22
0.37
22.59
50.69
79.69
104.42
121.22
128.47
126.06
114.27
93.68
65.55
33.06
1.34
-24.02
-39.42
-45.36
-46.56
-49.67
-59.11
-74.18
-88.18
-91.47
-76.95
-44.79
-3.71
32.67
51.47
46.67
21.28
-14.51
-47.76
-68.27
-72.23
-62.46
-45.89
-31.21
-24.76
-29.07
-42.55
-59.54
-72.93
-76.88
-68.57
-47.95
-19.30
13.18
44.93
69.77
83.42
83.72
71.26
49.36
23.96
-2.43
-29.07
-57.99
-91.52
-127.59
-161.56
-187.74
-200.95
-196.78
-177.32
-146.62
-109.80
-70.62
-27.11
22.74
78.31
125.77
171.42
207.88
230.31
237.33
232.41
226.42
228.01
238.64
252.53
261.60
255.46
228.66
182.01
103.03
2.35
-94.86
-168.77
-215.64
-244.27
-258.38
-254.96
-226.62
-172.01
-94.27
-5.24
78.12
141.23
177.99
189.71
182.79
165.20
143.61
125.17
112.66
104.34
96.64
87.08
74.50
58.64
39.78
18.43
-2.82
-22.45
-40.52
-57.40
-72.55
-84.48
-91.91
-94.16
-91.60
-84.64
-75.00
-65.40
-58.30
-54.65
-53.58
-53.19
-51.20
-45.85
-36.09
-22.34
-6.34
9.70
23.99
35.62
44.52
51.07
55.73
58.83
60.50
60.82
59.90
57.89
54.69
49.82
42.37
31.41
16.56
-1.40
-20.51
-38.07
-51.61
-59.86
-63.15
-63.26
-62.44
-62.36
-63.43
-64.95
-65.64
-64.64
-62.03
-58.82
-56.28
-55.18
-55.28
-55.49
-54.43
-51.17
-45.68
-38.56
-30.62
-22.13
-12.75
-1.81
11.11
25.66
40.68
54.59
66.15
75.14
82.56
90.17
99.82
112.57
128.27
145.69
162.93
178.29
190.75
200.09
206.52
210.10
210.26
205.76
195.10
177.28
152.29
121.29
86.28
49.46
12.69
-22.75
-56.03
-86.31
-112.51
-133.43
-148.15
-156.65
-160.03
-160.28
-159.54
-159.19
-159.37
-159.10
-156.98
-151.96
-143.92
-133.58
-121.99
-109.77
-96.87
-82.69
-66.73
-49.17
-31.09
-14.24
-0.36
9.58
15.68
18.89
20.44
21.14
21.02
19.43
15.51
8.86
-0.11
-10.33
-20.50
-29.71
-37.77
-45.10
-52.32
-59.56
-66.26
-71.25
-73.36
-72.05
-67.76
-61.76
-55.56
-50.19
-45.77
-41.69
-37.02
-31.27
-24.70
-18.35
-13.47
-10.93
-10.70
-11.98
-13.59
-14.57
-14.68
-14.34
-14.28
-14.90
-15.90
-16.36
-15.18
-11.70
-6.08
0.78
7.68
13.80
18.96
23.65
28.59
34.25
40.51
46.72
51.96
55.57
57.46
58.12
58.36
58.85
59.72
60.44
60.05
57.70
53.24
47.36
41.44
36.87
34.41
33.84
34.10
33.89
32.34
29.40
25.76
22.36
19.77
17.95
16.33
14.35
11.98
9.89
9.20
10.70
14.39
19.36
24.11
27.11
27.56
25.56
21.90
17.55
12.84
7.34
0.21
-9.17
-20.67
-33.29
-45.41
-55.49
-62.65
-67.28
-70.65
-74.28
-79.14
-85.56
-93.27
-101.66
-110.07
-117.92
-125.31
-132.00
-136.55
-136.39
-128.79
-112.12
-86.45
-53.54
-16.22
20.95
54.01
81.11
102.90
121.07
137.03
151.39
163.95
173.85
177.76
172.41
157.02
133.99
107.04
79.00
51.49
25.60
2.68
-18.15
-37.89
-56.67
-74.50
-93.36
-117.62
-151.41
-195.78
-229.81
-233.53
-202.31
-150.31
-95.83
-49.86
-15.58
8.86
27.34
43.54
56.67
64.38
65.70
62.33
57.30
53.07
51.09
52.14
56.59
62.17
66.08
66.80
64.12
59.47
53.35
45.73
36.78
27.06
16.05
3.01
-10.56
-24.09
-36.63
-47.74
-57.44
-66.04
-74.16
-82.89
-92.27
-100.00
-101.89
-93.24
-71.97
-40.17
-3.82
29.50
53.47
65.57
67.71
64.13
59.26
55.31
52.21
48.84
44.53
39.83
36.09
34.46
34.97
36.76
38.42
38.58
36.74
33.31
29.34
26.06
24.37
24.47
25.95
27.92
29.39
29.67
28.59
26.57
24.34
22.68
21.99
22.26
23.09
24.15
25.41
26.86
28.22
28.50
25.99
19.02
7.07
-8.46
-24.54
-37.51
-44.64
-45.29
-41.00
-34.46
-28.04
-22.78
-18.44
-14.22
-9.78
-5.67
-3.01
-2.69
-4.66
-7.79
-10.43
-11.18
-9.65
-6.56
-3.36
-1.37
-1.19
-2.35
-3.74
-4.25
-3.42
-1.59
0.32
1.43
1.36
0.48
-0.41
-0.52
0.50
2.30
4.13
5.17
5.00
3.83
2.36
1.36
1.37
2.37
3.88
5.24
5.99
6.17
6.20
6.62
7.70
9.24
10.67
11.36
11.04
9.99
8.86
8.36
8.81
9.97
11.19
11.76
11.16
9.61
7.56
5.66
4.43
3.98
4.04
4.12
3.84
3.22
2.60
2.46
3.14
4.51
6.03
6.96
6.71
5.23
2.99
0.82
-0.56
-0.83
-0.24
0.54
0.75
0.00
-1.58
-3.42
-4.78
-5.23
-4.77
-3.85
-3.10
-2.83
-2.98
-3.09
-2.67
-1.53
-0.01
1.24
1.52
0.61
-1.14
-2.98
-4.16
-4.30
-3.59
-2.64
-2.08
-2.24
-3.01
-3.95
-4.58
-4.67
-4.33
-3.93
-3.89
-4.34
-5.11
-5.85
-6.19
-6.01
-5.48
-4.99
-4.94
-5.41
-6.19
-6.90
-7.25
-7.30
-7.44
-8.18
-9.79
-12.02
-14.12
-15.23
-14.79
-12.85
-10.14
-7.83
-6.92
-7.70
-9.56
-11.24
-11.43
-9.50
-5.87
-2.00
0.12
-1.16
-6.46
-15.02
-24.69
-32.67
-36.20
-33.46
-24.35
-10.68
4.27
16.79
24.00
24.95
20.67
14.18
9.29
9.02
14.29
23.64
33.88
41.47
43.75
39.26
28.71
14.83
1.44
-7.85
-10.70
-6.82
1.87
11.87
18.61
19.51
15.04
7.84
0.63
-5.55
-11.83
-20.58
-33.66
-52.06
-73.62
-93.79
-107.85
-113.03
-109.12
-97.51
-80.08
-51.91
-14.27
25.74
59.13
80.26
88.19
84.94
73.88
58.79
42.61
26.34
11.24
-1.20
-10.06
-15.54
-18.86
-21.56
-25.08
-28.17
-31.19
-34.02
-35.91
-35.83
-33.06
-27.53
-19.71
-10.56
-1.23
6.43
11.45
13.98
14.87
14.77
13.70
11.06
6.10
-1.41
-11.28
-22.12
-31.79
-38.21
-40.24
-38.29
-34.07
-29.85
-27.36
-27.56
-30.07
-33.54
-35.92
-35.45
-31.13
-23.03
-12.27
-0.22
11.25
20.47
26.50
30.08
33.07
37.69
45.27
55.60
67.49
78.54
86.29
89.04
87.48
83.94
81.63
83.31
90.36
102.94
118.80
134.04
144.13
146.89
142.53
133.82
124.91
114.81
104.84
95.87
89.95
81.36
64.79
36.60
-1.16
-42.31
-78.77
-102.83
-110.96
-104.46
-88.74
-69.54
-51.55
-37.23
-27.22
-20.72
-15.59
-9.83
-2.00
8.09
20.34
33.91
47.81
61.07
73.03
83.29
90.38
91.46
82.83
62.15
29.81
-10.38
-52.05
-87.91
-111.56
-119.30
-110.58
-87.86
-55.42
-18.87
15.37
40.58
50.88
42.90
17.31
-20.32
-60.53
-92.54
-107.92
-103.48
-81.92
-49.94
-14.99
17.55
45.32
67.78
84.34
93.45
93.20
83.15
65.68
45.70
28.77
18.72
16.22
19.00
23.49
26.64
27.09
25.26
22.73
21.41
22.68
26.86
32.83
38.23
39.99
35.37
23.11
4.03
-19.09
-42.41
-62.41
-76.95
-85.70
-89.80
-91.01
-90.93
-90.51
-90.06
-89.69
-89.55
-89.97
-91.22
-93.14
-94.94
-95.34
-93.03
-87.18
-77.90
-66.26
-53.90
-42.35
-32.51
-24.35
-17.26
-10.61
-4.13
1.90
6.95
10.69
13.25
15.11
16.93
19.03
21.23
22.85
23.01
21.07
16.84
10.73
3.58
-3.66
-10.33
-16.34
-22.10
-28.20
-35.03
-42.42
-49.65
-55.60
-59.19
-59.77
-57.31
-52.39
-46.18
-40.16
-35.79
-34.24
-35.80
-39.77
-44.46
-47.69
-47.48
-42.74
-33.55
-21.13
-7.44
5.41
15.64
22.21
24.93
24.32
21.40
17.30
13.06
9.40
6.79
5.48
5.65
7.32
10.39
14.56
19.46
24.68
29.96
35.08
39.89
44.24
47.98
50.93
52.84
53.29
51.70
47.48
40.31
30.44
18.81
6.87
-3.75
-11.85
-16.87
-18.87
-18.35
-15.88
-11.92
-6.77
-0.71
5.86
12.33
17.87
21.64
23.01
21.72
17.99
12.32
5.37
-2.25
-10.09
-17.91
-25.67
-33.57
-41.98
-51.29
-61.80
-73.39
-85.40
-96.56
-105.24
-109.92
-109.71
-104.63
-95.66
-84.43
-72.62
-61.42
-51.25
-41.77
-32.20
-21.87
-10.50
1.64
13.94
25.65
36.02
44.22
49.33
50.39
46.81
38.78
27.66
15.86
6.24
1.12
1.45
6.56
14.56
23.10
30.29
35.16
37.68
38.37
37.78
36.28
33.92
30.57
26.17
20.84
14.98
9.08
3.53
-1.52
-6.24
-10.91
-15.79
-20.89
-26.08
-31.26
-36.53
-42.20
-48.55
-55.49
-62.27
-67.59
-69.96
-68.31
-62.26
-52.21
-39.12
-24.24
-8.96
5.31
17.21
25.73
30.37
31.26
29.00
24.43
18.46
12.06
6.41
2.92
3.04
7.83
17.53
31.34
47.50
63.71
77.57
87.16
91.37
90.13
84.40
75.66
65.30
54.17
42.38
29.76
16.46
3.38
-8.00
-16.17
-20.46
-21.33
-20.10
-18.27
-16.78
-15.80
-15.00
-14.08
-13.09
-12.41
-12.45
-13.38
-14.97
-16.84
-18.68
-20.30
-21.59
-22.24
-21.72
-19.39
-14.80
-8.01
0.40
9.51
18.30
25.79
31.07
33.33
32.02
27.23
19.83
11.48
4.16
-0.54
-1.99
-0.70
2.11
5.06
7.26
8.40
8.68
8.37
7.61
6.26
4.18
1.31
-2.17
-5.89
-9.43
-12.42
-14.69
-16.23
-17.08
-17.29
-16.76
-15.36
-12.93
-9.45
-5.17
-0.61
3.57
6.82
8.91
10.08
10.99
12.46
15.15
19.30
24.66
30.56
36.23
41.00
44.56
47.03
48.74
50.04
51.06
51.68
51.61
50.56
48.51
45.68
42.52
39.43
36.70
34.41
32.45
30.60
28.50
25.83
22.29
17.79
12.53
6.95
1.56
-3.28
-7.57
-11.58
-15.71
-20.23
-25.07
-29.80
-33.82
-36.58
-37.78
-37.46
-36.02
-34.10
-32.37
-31.46
-31.77
-33.46
-36.51
-40.65
-45.43
-50.17
-53.97
-55.93
-55.34
-51.97
-46.15
-38.60
-30.12
-21.37
-12.64
-4.08
4.14
11.66
17.99
22.76
25.89
27.71
28.81
29.69
30.60
31.41
31.79
31.46
30.32
28.57
26.64
25.03
24.09
23.94
24.28
24.57
24.18
22.66
19.87
16.00
11.38
6.35
1.17
-3.90
-8.51
-12.22
-14.60
-15.39
-14.58
-12.24
-8.42
-3.08
3.71
11.46
19.06
25.01
28.03
27.70
24.74
20.69
17.09
14.69
13.30
12.02
10.05
7.18
3.92
1.07
-0.79
-1.58
-1.72
-1.84
-2.44
-3.70
-5.51
-7.73
-10.26
-13.10
-16.17
-19.34
-22.43
-25.30
-27.87
-30.06
-31.75
-32.69
-32.61
-31.12
-28.03
-23.43
-17.57
-10.67
-2.79
5.90
15.06
23.84
31.55
37.28
40.19
39.81
36.38
30.86
24.27
17.75
12.02
8.53
8.29
11.41
17.16
24.22
31.34
36.94
40.38
41.25
41.46
42.94
46.68
52.54
59.53
66.79
73.05
78.31
82.52
87.97
96.36
107.77
121.13
134.87
148.45
161.43
175.30
175.35
152.29
106.59
49.20
-5.96
-50.42
-75.61
-87.05
-89.72
-87.37
-80.23
-68.00
-55.23
-45.62
-42.27
-46.26
-57.29
-71.96
-86.41
-95.53
-95.99
-87.33
-71.30
-51.06
-29.39
-8.84
9.72
25.27
37.31
44.54
45.13
38.10
24.00
5.58
-13.61
-29.64
-40.43
-45.70
-47.18
-47.76
-50.09
-56.11
-66.46
-80.68
-96.75
-111.62
-121.50
-123.10
-114.90
-97.92
-75.75
-53.30
-34.98
-23.01
-16.90
-14.12
-11.50
-6.62
1.36
11.81
23.48
35.28
46.77
58.04
69.31
80.71
92.26
104.30
117.58
133.06
151.14
170.95
190.15
205.69
215.29
218.83
219.03
220.86
230.02
251.14
286.07
332.88
385.67
435.73
473.63
491.87
487.00
460.30
416.94
363.82
307.18
251.16
197.80
147.96
102.39
62.06
27.21
-3.31
-32.36
-63.75
-100.56
-143.73
-191.45
-240.06
-285.41
-325.41
-360.34
-392.73
-426.28
-464.44
-509.59
-562.25
-620.62
-680.16
-735.17
-778.62
-804.22
-808.43
-791.44
-757.07
-710.81
-657.35
-599.02
-538.05
-476.06
-415.43
-359.61
-311.27
-271.18
-237.20
-204.69
-168.14
-125.60
-77.33
-26.30
22.10
61.90
87.00
92.48
75.60
51.70
34.69
37.82
69.12
128.52
208.62
294.87
368.94
414.86
425.93
406.49
371.50
339.54
318.87
308.85
302.49
292.50
276.45
256.58
235.23
213.31
188.67
157.91
121.68
85.05
58.80
53.41
70.76
101.55
130.50
143.37
133.04
103.89
69.18
44.99
43.55
65.49
100.96
135.07
152.92
143.45
102.92
35.07
-51.16
-144.13
-236.36
-323.71
-403.00
-462.95
-492.64
-488.58
-456.23
-415.40
-368.51
-316.12
-259.69
-196.09
-126.88
-56.07
11.94
74.13
129.34
178.46
219.50
250.18
273.19
292.35
311.29
332.36
356.99
385.78
418.81
451.79
478.20
495.56
501.91
496.59
481.02
459.96
440.98
432.35
437.93
431.61
396.68
329.64
241.33
147.03
58.30
-18.76
-81.93
-132.26
-172.11
-199.56
-214.29
-216.25
-207.54
-192.39
-176.29
-164.95
-163.43
-174.73
-196.04
-221.20
-245.51
-267.47
-288.24
-309.65
-332.06
-352.96
-367.11
-366.43
-345.50
-304.31
-248.56
-186.92
-127.62
-76.20
-34.99
-3.97
19.38
38.48
57.30
80.12
110.38
148.67
190.98
228.81
251.95
252.79
229.32
185.52
129.31
69.30
12.28
-37.70
-78.58
-109.32
-129.17
-137.88
-136.18
-126.04
-110.37
-92.15
-73.64
-56.16
-40.36
-26.72
-15.90
-8.91
-6.89
-10.67
-20.11
-33.67
-48.46
-60.84
-67.78
-68.00
-62.46
-53.90
-45.60
-40.10
-38.32
-39.50
-41.65
-42.43
-39.93
-33.18
-22.33
-8.37
7.07
22.09
34.77
43.56
47.68
47.36
43.88
39.14
35.00
32.56
31.82
31.77
31.04
28.58
24.21
18.56
12.74
7.78
4.33
2.56
2.37
3.66
6.34
10.37
15.73
22.29
29.82
38.02
46.49
54.79
62.32
68.38
72.20
72.93
69.80
62.41
51.25
37.97
25.21
15.73
11.23
11.51
14.57
17.61
18.41
16.23
11.68
5.97
-0.24
-7.25
-16.01
-27.16
-40.24
-53.44
-64.19
-70.17
-70.11
-64.14
-53.63
-40.63
-27.21
-15.00
-4.90
2.77
8.02
11.03
12.11
11.68
10.33
8.61
6.81
4.86
2.53
-0.18
-2.77
-4.17
-2.96
2.06
11.38
24.39
39.29
53.47
64.11
68.99
67.05
58.67
45.50
29.92
14.36
0.75
-9.73
-16.60
-19.92
-20.17
-18.17
-15.03
-12.03
-10.25
-10.35
-12.38
-15.96
-20.48
-25.26
-29.70
-33.21
-35.22
-35.23
-32.98
-28.63
-22.91
-17.08
-12.57
-10.47
-11.12
-13.89
-17.49
-20.43
-21.64
-20.84
-18.50
-15.49
-12.64
-10.40
-8.81
-7.79
-7.32
-7.62
-8.90
-11.19
-14.09
-16.91
-18.88
-19.42
-18.32
-15.66
-11.76
-7.11
-2.45
1.22
2.85
1.85
-1.38
-5.21
-7.24
-5.22
1.97
13.81
28.40
43.29
56.50
66.95
74.34
78.68
79.93
78.04
73.31
66.66
59.61
53.73
50.08
48.75
48.85
48.87
47.16
42.44
34.11
22.37
8.06
-7.51
-22.87
-36.68
-47.93
-56.01
-60.72
-62.13
-60.54
-56.47
-50.67
-44.04
-37.54
-32.00
-27.96
-25.49
-24.22
-23.49
-22.64
-21.30
-19.55
-17.75
-16.20
-14.74
-12.64
-9.02
-3.24
4.58
13.47
21.94
28.55
32.40
33.40
32.19
29.84
27.53
26.30
26.84
29.42
33.79
39.31
45.01
49.90
53.15
54.26
53.15
50.08
45.55
40.16
34.39
28.54
22.69
16.71
10.43
3.69
-3.64
-11.65
-20.36
-29.61
-38.83
-47.04
-52.95
-55.46
-54.12
-49.48
-42.99
-36.48
-31.53
-28.91
-28.47
-29.46
-30.98
-32.36
-33.35
-33.93
-33.97
-32.98
-30.15
-24.75
-16.77
-7.24
1.94
8.70
11.80
11.37
8.82
6.11
4.74
5.05
6.36
7.65
8.29
8.39
8.49
8.91
9.38
9.12
7.52
4.62
1.34
-1.07
-1.67
-0.34
2.18
4.87
6.88
8.03
8.56
8.91
9.29
9.72
9.98
9.98
9.79
9.61
9.57
9.61
9.48
8.84
7.43
5.15
2.11
-1.40
-5.08
-8.61
-11.81
-14.61
-16.94
-18.64
-19.39
-18.86
-16.85
-13.51
-9.41
-5.43
-2.43
-0.99
-1.30
-3.13
-6.03
-9.44
-12.83
-15.62
-17.23
-17.17
-15.21
-11.57
-6.96
-2.45
0.90
2.47
2.36
1.31
0.42
0.63
2.35
5.35
8.95
12.36
15.06
16.89
17.93
18.24
17.64
15.88
12.84
8.83
4.57
0.98
-1.14
-1.45
-0.10
2.36
5.19
7.75
9.59
10.54
10.65
10.07
8.95
7.32
5.11
2.34
-0.71
-3.44
-4.98
-4.63
-2.25
1.56
5.65
8.79
10.21
9.88
8.35
6.34
4.29
2.15
-0.47
-3.84
-7.83
-11.87
-15.23
-17.45
-18.56
-19.00
-19.24
-19.32
-18.81
-16.99
-13.33
-7.92
-1.53
4.66
9.66
13.12
15.41
17.34
19.72
22.90
26.59
30.03
32.37
33.01
31.94
29.60
26.73
23.97
21.58
19.36
16.80
13.42
9.06
3.97
-1.22
-5.73
-8.89
-10.32
-10.00
-8.20
-5.42
-2.24
0.85
3.55
5.82
7.80
9.64
11.32
12.62
13.24
13.02
12.08
10.81
9.55
8.38
7.06
5.12
2.23
-1.52
-5.60
-9.29
-12.02
-13.67
-14.53
-15.00
-15.29
-15.14
-13.99
-11.34
-7.02
-1.41
4.63
10.12
14.16
16.28
16.46
15.16
13.13
11.21
10.09
10.03
10.93
12.33
13.70
14.60
14.71
13.83
11.84
8.77
4.95
1.09
-1.91
-3.29
-2.85
-1.17
0.57
1.07
-0.60
-4.67
-10.65
-17.58
-24.35
-29.95
-33.74
-35.47
-35.31
-33.82
-31.79
-30.00
-29.07
-29.29
-30.64
-32.88
-35.62
-38.40
-40.73
-42.13
-42.25
-41.04
-38.75
-35.90
-33.13
-30.95
-29.61
-29.08
-29.12
-29.43
-29.77
-29.99
-30.04
-29.90
-29.58
-29.17
-28.74
-28.16
-26.99
-24.45
-19.72
-12.31
-2.50
8.63
19.37
28.02
33.46
35.56
35.09
33.27
31.27
29.73
28.76
28.20
27.93
28.17
29.39
32.12
36.55
42.36
48.64
54.19
57.87
59.05
57.70
54.29
49.57
44.13
38.20
31.53
23.62
14.14
3.27
-8.16
-18.84
-27.34
-32.62
-34.26
-32.59
-28.43
-22.86
-16.85
-11.12
-6.08
-1.80
1.78
4.77
7.12
8.60
8.81
7.43
4.32
-0.26
-5.76
-11.50
-16.83
-21.22
-24.22
-25.50
-24.79
-22.04
-17.57
-12.09
-6.64
-2.26
0.31
0.90
-0.11
-1.95
-3.85
-5.28
-6.14
-6.79
-7.77
-9.54
-12.22
-15.56
-19.00
-21.91
-23.79
-24.23
-22.88
-19.33
-13.39
-5.24
4.32
13.96
22.04
27.21
28.78
26.98
22.96
18.41
15.20
14.77
17.87
24.22
32.63
41.34
48.51
52.95
54.42
53.63
51.75
49.77
47.97
45.72
41.95
35.72
26.90
16.49
6.32
-1.67
-6.32
-7.68
-6.90
-5.56
-4.85
-5.14
-6.09
-7.16
-8.21
-9.70
-12.39
-16.69
-22.17
-27.47
-30.82
-30.86
-27.34
-21.25
-14.34
-8.37
-4.31
-2.12
-1.05
-0.19
1.03
2.64
4.35
5.94
7.46
9.21
11.51
14.38
17.44
19.99
21.21
20.46
17.51
12.59
6.36
-0.26
-6.39
-11.40
-15.11
-17.72
-19.65
-21.30
-22.93
-24.60
-26.19
-27.45
-28.06
-27.63
-25.84
-22.61
-18.20
-13.29
-8.73
-5.28
-3.35
-2.95
-3.85
-5.82
-8.70
-12.44
-16.82
-21.33
-25.23
-27.77
-28.55
-27.76
-26.23
-25.11
-25.50
-27.97
-32.42
-38.22
-44.51
-50.44
-55.28
-58.21
-58.16
-53.99
-45.03
-31.74
-16.02
-0.74
11.38
19.04
22.94
25.37
28.99
35.41
44.56
54.94
64.60
72.09
76.83
78.91
78.50
75.50
69.69
61.20
50.82
39.97
30.14
22.32
16.56
12.10
7.83
2.90
-2.91
-9.13
-14.96
-19.58
-22.43
-23.31
-22.32
-19.79
-16.14
-11.88
-7.56
-3.72
-0.84
0.74
0.88
-0.35
-2.62
-5.41
-8.16
-10.35
-11.60
-11.73
-10.68
-8.60
-5.81
-2.77
-0.06
1.83
2.74
2.95
3.08
3.82
5.58
8.26
11.27
13.90
15.57
16.10
15.64
14.48
12.82
10.72
8.17
5.34
2.66
0.77
0.24
1.39
4.09
7.79
11.73
15.14
17.36
17.99
16.91
14.29
10.59
6.43
2.48
-0.75
-2.99
-4.33
-5.09
-5.72
-6.63
-8.10
-10.21
-12.84
-15.65
-18.17
-19.88
-20.33
-19.21
-16.51
-12.52
-7.85
-3.30
0.33
2.46
2.93
2.12
0.82
-0.09
0.12
1.73
4.51
7.91
11.26
13.99
15.79
16.55
16.34
15.27
13.42
10.86
7.60
3.69
-0.82
-5.80
-11.15
-16.66
-22.10
-27.10
-31.24
-34.04
-35.14
-34.43
-32.15
-28.84
-25.23
-21.99
-19.55
-17.98
-17.10
-16.46
-15.58
-13.98
-11.31
-7.41
-2.45
3.13
8.68
13.55
17.27
19.67
20.88
21.19
20.96
20.42
19.78
19.14
18.68
18.57
18.91
19.73
20.82
21.82
22.28
21.78
20.01
16.90
12.66
7.79
2.94
-1.28
-4.56
-6.92
-8.74
-10.58
-12.90
-15.77
-18.84
-21.38
-22.62
-22.04
-19.63
-15.96
-11.98
-8.71
-6.83
-6.45
-7.10
-7.89
-7.99
-6.90
-4.67
-1.76
1.24
3.83
5.76
6.89
7.19
6.59
5.13
3.05
0.81
-1.06
-2.11
-2.24
-1.65
-0.72
0.16
0.76
1.02
1.03
0.93
0.85
0.90
1.12
1.50
1.90
2.18
2.24
2.12
2.00
2.14
2.74
3.80
5.06
6.09
6.40
5.68
3.90
1.36
-1.36
-3.53
-4.51
-3.98
-2.05
0.73
3.52
5.53
6.25
5.66
4.13
2.18
0.30
-1.28
-2.55
-3.62
-4.66
-5.86
-7.43
-9.64
-12.59
-16.17
-19.94
-23.21
-25.27
-25.64
-24.20
-21.21
-17.20
-12.74
-8.39
-4.55
-1.48
0.79
2.34
3.38
4.15
5.00
6.27
8.35
11.44
15.39
19.55
22.96
24.69
24.36
22.40
19.91
18.18
17.97
19.16
20.89
22.03
21.81
20.18
17.67
14.96
12.40
9.94
7.27
4.15
0.75
-2.45
-4.92
-6.42
-7.11
-7.45
-7.89
-8.55
-9.18
-9.26
-8.38
-6.45
-3.78
-0.93
1.47
2.94
3.22
2.27
0.23
-2.65
-6.00
-9.36
-12.24
-14.25
-15.16
-14.89
-13.58
-11.51
-9.10
-6.78
-4.85
-3.38
-2.20
-0.95
0.62
2.48
4.23
5.22
4.79
2.73
-0.65
-4.47
-7.63
-9.13
-8.47
-5.89
-2.21
1.36
3.78
4.53
3.84
2.43
1.21
0.73
0.97
1.34
1.12
-0.24
-2.80
-6.16
-9.73
-13.06
-16.02
-18.80
-21.62
-24.45
-26.90
-28.29
-27.94
-25.47
-20.98
-15.01
-8.29
-1.49
4.87
10.44
15.05
18.60
21.15
22.89
24.24
25.62
27.36
29.48
31.66
33.36
33.97
33.08
30.59
26.80
22.26
17.65
13.54
10.27
7.93
6.33
5.17
4.16
3.05
1.67
-0.07
-2.15
-4.48
-6.84
-8.97
-10.62
-11.64
-12.08
-12.14
-12.15
-12.38
-13.01
-13.93
-14.89
-15.49
-15.44
-14.63
-13.25
-11.71
-10.51
-10.08
-10.57
-11.88
-13.70
-15.67
-17.50
-18.98
-19.99
-20.37
-19.90
-18.46
-16.09
-13.19
-10.41
-8.45
-7.82
-8.49
-9.94
-11.34
-11.88
-11.23
-9.61
-7.72
-6.39
-6.24
-7.39
-9.51
-11.94
-13.98
-15.02
-14.72
-12.89
-9.62
-5.23
-0.30
4.53
8.73
11.97
14.16
15.40
15.95
16.06
16.01
16.21
17.27
19.86
24.52
31.35
39.92
49.40
58.67
66.49
71.74
73.83
72.74
68.95
63.32
56.87
50.75
45.45
40.51
34.60
26.47
15.66
2.94
-9.73
-19.77
-24.60
-23.34
-17.47
-10.33
-5.22
-3.96
-6.06
-9.03
-9.45
-4.25
7.18
22.09
35.30
41.90
38.72
24.68
0.11
-36.19
-80.79
-124.70
-156.26
-166.87
-153.86
-121.11
-77.48
-34.04
-0.14
20.33
29.07
32.59
34.88
38.29
43.41
49.28
54.09
56.42
56.52
55.65
54.67
53.31
51.37
47.12
40.45
32.23
24.29
17.97
15.55
17.72
21.63
21.92
13.23
-6.67
-34.95
-66.52
-95.02
-115.15
-124.78
-125.24
-119.44
-107.23
-88.98
-64.81
-35.17
-1.30
34.33
67.82
94.49
110.87
116.24
112.95
105.77
99.66
97.85
100.79
106.23
109.88
107.90
98.48
82.28
62.02
40.94
22.04
7.87
0.19
-1.63
0.27
2.74
2.92
-0.91
-9.25
-21.15
-33.99
-44.03
-49.55
-50.93
-51.40
-55.58
-68.11
-92.28
-128.54
-173.87
-213.62
-232.53
-221.90
-186.75
-140.74
-96.07
-58.06
-26.02
3.11
31.55
55.35
71.27
75.38
66.52
47.06
21.52
-5.28
-30.39
-48.91
-61.39
-70.96
-81.89
-96.35
-113.88
-132.39
-149.02
-160.92
-165.08
-159.50
-142.64
-115.34
-80.85
-44.60
-12.75
10.63
24.58
31.03
32.80
32.81
30.73
25.06
15.23
2.80
-7.95
-12.69
-8.98
3.24
22.08
43.10
60.14
66.42
52.06
14.38
-38.96
-99.55
-155.65
-194.65
-208.77
-197.61
-167.63
-128.71
-88.97
-52.64
-19.83
7.58
29.80
46.83
58.34
64.45
66.71
68.58
73.91
84.95
102.43
125.72
152.39
179.05
202.76
221.84
236.47
247.74
256.52
262.95
266.23
264.15
254.19
235.16
208.13
176.42
144.15
114.48
88.94
67.87
50.68
36.81
26.08
18.36
13.19
9.59
6.41
3.01
-0.18
-2.27
-2.67
-1.78
-1.01
-2.08
-6.12
-13.08
-21.58
-29.51
-35.01
-37.22
-36.47
-33.98
-31.20
-29.30
-28.95
-30.29
-33.08
-36.84
-41.01
-45.11
-48.87
-52.27
-55.40
-58.24
-60.54
-61.75
-61.42
-59.65
-57.26
-55.54
-55.61
-57.75
-61.08
-63.91
-64.53
-62.19
-57.43
-51.72
-46.66
-43.22
-41.49
-40.76
-40.05
-38.54
-35.89
-32.37
-28.71
-25.87
-24.50
-24.67
-25.49
-25.31
-22.25
-15.11
-4.21
8.49
19.85
26.88
27.90
23.15
14.48
4.62
-3.69
-8.36
-8.14
-2.77
7.18
20.24
34.13
46.07
53.56
55.26
51.32
43.13
32.45
20.53
7.72
-6.18
-20.90
-34.88
-45.11
-48.22
-42.16
-27.83
-9.29
7.65
17.88
19.23
13.42
5.06
-0.70
-0.40
6.26
16.92
28.02
36.73
41.87
43.82
43.61
41.84
38.44
32.93
25.20
16.00
6.91
-0.37
-4.93
-7.05
-7.98
-9.05
-10.65
-11.87
-10.88
-5.95
3.46
16.25
29.95
41.56
48.51
49.25
43.47
31.97
16.47
-0.52
-16.00
-26.97
-31.23
-28.06
-18.60
-5.51
7.92
18.79
25.41
27.68
26.74
24.28
21.77
19.77
17.90
15.19
10.68
3.91
-4.81
-14.59
-24.24
-32.59
-38.74
-42.06
-42.21
-39.08
-32.94
-24.51
-15.05
-6.14
0.67
4.17
3.84
-0.00
-6.18
-12.86
-17.93
-19.47
-16.26
-8.11
3.80
17.24
29.23
36.74
37.52
30.72
17.25
-0.32
-18.34
-33.05
-41.48
-42.18
-35.55
-23.44
-8.38
7.26
21.70
33.83
42.99
48.71
50.46
47.79
40.69
29.91
16.99
4.22
-5.76
-10.54
-8.33
0.93
15.32
31.53
45.93
55.75
59.64
57.66
50.90
41.65
32.05
23.72
17.60
13.83
11.82
10.43
8.68
6.53
6.18
9.49
16.72
26.15
35.17
41.89
46.28
50.28
56.56
68.18
84.65
101.78
113.73
115.96
106.96
87.95
61.52
23.88
-22.99
-72.32
-115.17
-145.83
-163.90
-172.19
-173.79
-170.11
-162.54
-146.46
-118.60
-79.25
-32.39
15.97
60.25
97.09
126.19
146.17
158.93
166.15
168.41
165.06
154.70
136.13
108.67
72.56
29.12
-18.03
-65.63
-111.78
-156.08
-198.74
-239.24
-275.36
-303.50
-320.26
-323.40
-313.86
-294.93
-269.97
-240.47
-205.79
-164.77
-118.00
-69.13
-23.71
12.51
35.90
46.12
45.59
37.92
26.34
13.40
1.36
-7.18
-9.45
-3.34
11.53
33.18
57.73
80.66
98.59
110.36
117.28
121.95
126.81
132.97
140.01
146.69
151.70
154.01
152.70
146.59
134.35
115.06
88.89
57.33
23.02
-10.67
-39.91
-60.30
-66.99
-55.46
-23.53
26.45
86.54
144.37
186.66
203.36
190.76
152.20
96.38
34.58
-22.13
-64.70
-87.19
-87.40
-67.13
-31.90
10.06
49.78
79.76
95.61
96.55
84.84
64.50
40.04
15.54
-6.24
-24.25
-39.25
-53.06
-67.45
-82.86
-97.70
-108.95
-113.53
-110.06
-99.82
-86.59
-75.21
-69.60
-71.04
-77.54
-84.56
-86.78
-80.37
-64.59
-42.18
-18.30
1.59
13.70
17.02
13.09
4.71
-5.45
-15.62
-24.94
-33.01
-39.48
-43.97
-46.33
-46.78
-45.78
-43.82
-41.16
-37.67
-33.06
-27.21
-20.40
-13.28
-6.51
-0.57
4.46
8.70
12.15
14.50
15.17
13.62
9.85
4.64
-0.61
-4.49
-6.20
-5.93
-4.53
-2.97
-1.70
-0.66
0.35
1.19
1.15
-0.63
-4.55
-9.93
-15.09
-18.02
-17.39
-13.16
-6.60
0.32
5.71
8.49
8.60
6.79
4.19
1.73
-0.07
-1.17
-1.84
-2.33
-2.75
-3.17
-3.78
-5.07
-7.74
-12.28
-18.48
-25.27
-30.93
-33.79
-32.88
-28.30
-21.06
-12.57
-4.15
3.24
8.94
12.59
14.02
13.35
11.04
7.60
3.44
-1.35
-6.85
-12.90
-18.84
-23.70
-26.54
-27.08
-25.96
-24.51
-24.11
-25.48
-28.41
-31.92
-35.00
-37.37
-39.70
-43.24
-48.83
-55.74
-61.31
-61.83
-54.27
-38.13
-16.02
7.19
26.45
38.55
42.92
41.01
34.95
26.43
16.58
6.56
-1.98
-7.13
-7.80
-4.79
-0.96
-0.13
-5.28
-17.13
-33.66
-50.78
-63.80
-68.83
-63.96
-49.66
-28.43
-3.93
20.05
40.55
55.93
65.97
71.53
74.06
75.10
75.79
76.59
77.29
77.20
75.57
72.10
67.09
61.36
55.89
51.41
48.23
46.45
46.05
47.02
49.04
51.31
52.59
51.60
47.61
40.80
32.16
22.92
13.93
5.28
-3.52
-12.93
-22.71
-31.74
-38.51
-41.89
-41.94
-39.92
-37.77
-37.13
-38.42
-40.78
-42.54
-42.23
-39.29
-34.14
-27.78
-20.95
-13.83
-6.06
2.55
11.48
19.21
23.59
22.86
16.50
5.79
-6.63
-17.56
-24.33
-25.31
-19.85
-7.86
10.45
34.31
61.75
89.12
111.60
124.56
125.37
114.56
95.50
72.87
50.56
30.60
13.25
-1.68
-13.51
-20.28
-19.62
-10.31
6.50
27.02
45.84
57.68
59.10
49.50
31.19
8.57
-13.23
-29.84
-38.85
-40.31
-36.34
-30.03
-24.17
-20.17
-17.84
-15.83
-12.71
-7.85
-1.81
3.76
6.84
5.86
0.37
-8.64
-18.96
-27.82
-32.72
-32.03
-25.41
-13.66
1.57
18.11
33.49
45.15
50.61
47.89
36.01
15.51
-11.30
-40.34
-66.26
-83.50
-87.77
-77.43
-54.31
-23.39
8.85
36.68
57.13
70.55
79.56
86.89
93.38
97.34
95.52
85.15
65.93
40.68
14.39
-7.77
-22.29
-28.31
-27.15
-21.14
-12.43
-2.41
8.06
18.20
27.14
34.22
39.47
43.77
48.32
53.61
58.58
60.86
58.20
50.10
38.85
28.79
24.42
27.87
37.59
48.66
54.92
51.72
37.93
16.49
-6.54
-24.11
-30.35
-22.32
-0.78
30.15
64.16
94.43
115.12
122.46
114.97
92.94
57.87
12.20
-40.56
-95.49
-146.37
-186.44
-210.03
-214.05
-198.74
-167.20
-124.10
-73.81
-19.13
38.79
99.19
159.84
215.71
259.33
282.96
281.56
255.15
209.41
153.77
98.29
50.28
12.51
-16.56
-41.17
-65.90
-94.34
-128.67
-170.29
-220.04
-277.65
-340.57
-403.30
-457.77
-495.22
-509.27
-498.06
-464.77
-416.00
-358.80
-298.06
-235.49
-170.77
-103.84
-37.04
24.78
76.19
114.21
140.79
162.79
189.35
227.43
277.89
333.73
382.40
410.76
410.50
381.27
330.27
268.67
206.82
150.85
101.63
55.89
8.74
-44.20
-104.75
-171.12
-237.86
-296.80
-338.94
-356.66
-346.17
-309.04
-252.51
-188.30
-130.53
-92.84
-85.29
-111.42
-166.66
-238.51
-309.79
-363.60
-388.55
-381.96
-349.47
-301.39
-247.77
-195.31
-146.69
-102.62
-63.89
-32.11
-8.59
7.16
17.78
26.28
33.79
38.55
37.57
29.90
18.79
11.49
15.73
35.48
68.44
107.15
142.84
169.43
185.54
193.55
197.15
199.15
200.70
201.90
202.81
203.73
204.73
204.98
202.66
195.81
183.64
167.34
149.96
135.15
125.60
121.84
121.99
122.62
120.34
113.14
101.15
86.43
72.07
60.89
54.51
52.93
54.66
57.34
58.63
57.08
52.73
47.14
42.78
42.00
45.92
53.86
63.56
72.05
76.87
77.03
73.13
66.83
59.65
52.11
43.32
31.41
14.42
-8.71
-37.41
-69.35
-100.75
-127.29
-145.20
-152.39
-148.99
-137.22
-120.48
-102.13
-84.26
-67.37
-50.71
-33.37
-15.21
2.69
18.46
30.41
37.92
41.75
43.75
46.15
50.98
59.58
72.42
88.88
107.19
124.56
137.94
145.28
146.58
144.34
142.71
145.78
155.82
172.32
192.15
210.49
221.99
221.88
206.91
176.34
132.78
82.21
32.53
-9.10
-38.67
-56.49
-66.11
-71.79
-76.10
-79.20
-79.87
-77.54
-73.45
-70.06
-69.57
-72.42
-77.19
-81.69
-84.76
-87.02
-90.17
-94.91
-99.21
-98.55
-87.94
-64.86
-31.25
6.46
39.50
60.33
65.55
56.92
39.54
19.29
0.45
-15.09
-27.28
-36.76
-43.88
-48.46
-50.08
-49.21
-47.33
-46.65
-49.23
-56.40
-68.60
-85.56
-106.66
-128.77
-147.65
-159.55
-163.25
-160.12
-152.44
-142.03
-130.10
-117.50
-104.85
-93.06
-83.34
-76.39
-71.96
-68.48
-63.32
-53.61
-37.63
-15.64
9.20
33.12
53.05
67.90
78.84
88.27
98.10
108.60
118.79
126.93
131.60
133.82
135.92
139.94
146.34
153.66
159.53
162.79
163.90
160.96
155.52
149.86
145.27
141.54
137.49
129.40
116.78
104.39
93.55
83.29
71.55
54.79
29.17
-7.64
-54.93
-107.91
-159.44
-202.47
-230.83
-241.52
-235.49
-216.91
-191.75
-166.38
-145.99
-134.33
-133.19
-140.56
-151.19
-157.92
-154.06
-135.93
-104.63
-65.50
-26.40
5.16
24.98
32.81
31.17
23.54
12.85
0.90
-11.17
-22.33
-31.43
-37.11
-38.57
-35.99
-30.40
-23.01
-14.48
-4.67
7.03
20.91
36.40
51.90
65.18
74.08
77.35
75.03
68.34
59.22
49.74
41.44
35.07
30.56
27.14
23.78
19.52
13.87
6.97
-0.49
-7.63
-13.69
-18.29
-21.39
-23.16
-23.65
-22.85
-20.73
-17.46
-13.60
-9.95
-7.30
-6.07
-6.09
-6.72
-7.17
-6.87
-5.74
-4.10
-2.52
-1.54
-1.44
-2.22
-3.68
-5.53
-7.45
-9.19
-10.56
-11.47
-11.81
-11.56
-10.67
-9.15
-7.08
-4.70
-2.35
-0.45
0.66
0.87
0.32
-0.61
-1.53
-2.18
-2.54
-2.69
-2.70
-2.42
-1.55
0.27
3.15
6.80
10.56
13.59
15.26
15.38
14.23
12.40
10.49
8.90
7.78
7.10
6.87
7.05
7.55
8.13
8.38
7.77
5.98
3.03
-0.61
-4.16
-6.84
-8.19
-8.22
-7.33
-6.15
-5.25
-4.92
-5.15
-5.64
-6.07
-6.24
-6.25
-6.40
-7.05
-8.27
-9.80
-11.11
-11.65
-11.17
-9.86
-8.21
-6.77
-5.79
-5.20
-4.68
-3.89
-2.71
-1.31
-0.06
0.72
0.93
0.73
0.48
0.52
1.00
1.75
2.38
2.46
1.81
0.61
-0.67
-1.52
-1.67
-1.23
-0.59
-0.20
-0.27
-0.68
-1.07
-1.12
-0.72
-0.13
0.26
0.09
-0.74
-1.97
-3.24
-4.21
-4.75
-5.02
-5.33
-6.05
-7.31
-9.06
-11.05
-13.06
-14.96
-16.79
-18.65
-20.57
-22.35
-23.58
-23.70
-22.25
-19.03
-14.28
-8.60
-2.77
2.52
6.82
10.07
12.42
14.12
15.31
15.96
15.88
14.87
12.95
10.37
7.57
5.03
3.08
1.75
0.85
0.11
-0.68
-1.50
-2.13
-2.36
-2.18
-1.86
-1.95
-3.03
-5.41
-8.92
-12.90
-16.45
-18.82
-19.74
-19.52
-18.91
-18.68
-19.30
-20.80
-22.83
-25.06
-27.40
-30.16
-33.85
-38.83
-45.07
-52.12
-59.39
-66.54
-73.79
-81.70
-90.64
-100.31
-109.57
-116.82
-120.82
-121.37
-119.42
-116.56
-114.09
-112.28
-110.41
-107.28
-102.06
-94.85
-86.49
-78.04
-70.04
-62.23
-53.81
-44.04
-32.82
-20.88
-9.49
0.18
7.70
13.72
19.62
26.90
36.38
47.79
59.88
70.98
79.77
85.88
89.95
93.28
97.18
102.37
108.69
115.25
120.80
124.31
125.19
123.43
119.43
113.77
107.15
100.22
93.74
88.41
84.74
82.79
82.00
81.44
80.16
77.64
74.00
69.84
65.77
62.02
58.16
53.29
46.45
37.10
25.48
12.66
0.38
-9.35
-14.66
-14.31
-7.96
3.69
19.02
35.88
52.00
65.48
74.99
79.84
80.03
76.14
69.27
60.70
51.55
42.31
32.82
22.51
11.06
-1.02
-12.28
-20.74
-24.78
-23.84
-18.66
-10.99
-2.84
4.13
9.05
11.73
12.44
11.56
9.42
6.21
2.16
-2.36
-6.59
-9.58
-10.48
-8.91
-5.32
-0.89
2.86
4.69
4.04
1.20
-3.12
-8.19
-13.52
-18.99
-24.55
-30.06
-35.17
-39.39
-42.22
-43.24
-42.15
-38.92
-33.88
-27.82
-21.86
-16.94
-13.39
-10.60
-7.34
-2.60
3.58
9.87
14.42
16.05
15.13
13.48
13.34
15.89
20.51
25.10
27.38
26.18
22.05
16.77
12.24
9.53
8.63
8.95
9.99
11.69
14.21
17.52
21.10
23.99
25.23
24.34
21.51
17.50
13.18
9.28
6.17
3.96
2.56
1.64
0.61
-1.32
-4.84
-10.09
-16.40
-22.42
-26.73
-28.56
-28.01
-25.95
-23.34
-20.68
-17.78
-14.16
-9.68
-4.92
-1.08
0.68
0.02
-2.25
-4.33
-4.25
-0.81
5.84
14.16
21.97
27.38
29.66
29.61
29.09
30.07
33.55
38.89
44.16
47.16
46.58
42.85
37.91
34.09
32.86
34.10
36.40
37.96
37.49
34.32
27.74
16.33
-1.52
-26.09
-54.79
-82.18
-101.90
-109.82
-106.43
-96.67
-87.18
-82.43
-82.28
-82.45
-77.50
-64.30
-43.77
-19.96
2.57
21.38
37.08
52.38
69.85
90.08
111.04
128.82
139.34
140.04
131.17
115.70
98.12
82.80
72.55
68.03
68.29
71.80
76.99
82.09
84.87
82.58
72.92
55.50
32.48
7.62
-15.38
-34.49
-49.66
-61.71
-71.07
-77.71
-82.11
-86.31
-93.36
-105.11
-120.11
-133.29
-138.57
-132.58
-116.85
-96.80
-78.19
-63.80
-52.56
-41.56
-29.03
-16.31
-6.99
-4.43
-9.42
-20.16
-33.44
-46.49
-57.71
-66.15
-71.05
-72.07
-70.06
-67.56
-68.29
-75.16
-88.16
-103.34
-113.63
-111.38
-91.74
-54.99
-6.53
45.39
92.74
130.01
154.63
165.83
163.23
146.67
117.30
79.05
38.84
4.79
-17.19
-26.17
-26.42
-24.97
-27.74
-36.47
-48.31
-57.86
-60.59
-55.13
-43.88
-31.52
-22.77
-20.05
-22.51
-26.87
-29.57
-29.03
-26.62
-25.93
-30.59
-41.92
-57.94
-73.97
-84.60
-85.59
-74.72
-51.52
-16.93
27.10
77.32
129.00
176.48
214.08
237.36
243.64
231.89
202.78
159.22
107.19
55.22
12.08
-16.55
-30.50
-34.87
-37.03
-42.24
-50.59
-57.18
-55.83
-43.69
-23.80
-3.77
8.65
9.63
0.84
-12.20
-23.54
-30.22
-33.06
-35.42
-40.18
-47.21
-53.86
-56.88
-54.92
-48.63
-41.00
-35.89
-36.60
-44.55
-57.84
-72.91
-85.87
-93.92
-93.91
-84.45
-66.63
-44.56
-24.04
-8.70
-0.34
1.06
-3.91
-11.83
-19.44
-24.25
-25.29
-21.73
-9.75
14.17
50.19
92.82
135.42
170.90
195.21
208.33
201.07
174.59
140.65
123.39
122.24
130.63
137.48
138.05
130.17
112.66
86.71
53.53
14.30
-29.39
-72.81
-111.14
-141.49
-161.16
-170.06
-169.99
-163.62
-157.79
-151.12
-140.87
-127.31
-109.25
-89.78
-72.27
-57.26
-43.80
-31.43
-21.15
-14.47
-11.96
-11.71
-11.07
-8.11
-3.08
0.71
-1.73
-13.48
-33.28
-55.32
-71.87
-77.98
-73.62
-63.00
-51.65
-43.35
-37.96
-32.58
-23.57
-8.88
10.37
30.90
49.03
62.17
69.09
69.46
63.06
50.56
34.74
20.60
14.02
18.84
34.54
56.00
76.07
89.29
94.63
95.29
95.60
97.51
99.01
95.67
84.06
64.62
41.78
21.33
7.07
-1.13
-6.37
-11.96
-18.97
-25.56
-28.75
-26.83
-21.10
-15.50
-14.42
-20.14
-31.60
-45.03
-56.27
-62.85
-64.91
-64.29
-62.81
-60.84
-57.33
-50.96
-41.65
-31.00
-21.45
-14.46
-9.15
-2.50
8.98
26.92
49.90
73.74
93.49
105.38
108.10
102.58
90.63
74.06
54.53
34.10
15.85
3.18
-1.74
0.47
6.06
9.58
6.49
-4.64
-21.59
-39.77
-54.59
-63.25
-65.29
-61.71
-53.61
-41.32
-24.57
-3.28
21.66
48.36
74.43
97.61
116.29
129.51
136.88
138.36
134.06
123.95
107.42
83.38
50.86
10.46
-34.49
-77.90
-112.57
-132.99
-137.69
-129.90
-115.79
-101.37
-89.87
-81.05
-72.97
-64.56
-57.35
-54.73
-59.43
-70.83
-84.03
-91.65
-87.34
-68.91
-39.23
-4.72
27.84
54.13
73.22
86.72
97.02
106.13
115.18
124.59
133.75
140.68
141.97
133.74
113.78
83.75
49.42
18.78
-1.46
-8.90
-5.94
1.96
9.55
14.10
15.76
16.16
16.52
16.60
15.28
11.71
6.06
-0.85
-8.71
-18.78
-33.71
-55.84
-84.98
-117.21
-145.65
-162.92
-164.52
-150.94
-127.34
-100.83
-76.74
-56.06
-35.55
-10.32
22.56
61.76
101.96
136.56
161.07
174.90
180.48
180.40
175.01
162.08
138.83
104.54
62.26
18.06
-21.34
-51.26
-70.42
-80.46
-84.67
-86.71
-89.83
-96.64
-108.60
-124.95
-142.37
-155.59
-159.54
-151.92
-134.85
-114.40
-98.14
-91.83
-96.94
-110.02
-124.52
-134.02
-135.60
-131.32
-127.02
-128.99
-139.93
-156.51
-170.43
-172.48
-157.38
-126.94
-89.03
-53.39
-26.63
-9.14
4.51
22.04
49.09
86.19
128.76
169.98
204.22
229.68
248.35
264.17
280.22
296.50
309.19
312.18
299.91
270.50
227.35
178.19
131.94
95.21
70.13
54.66
44.73
36.81
29.20
21.65
13.89
4.63
-8.32
-26.60
-50.31
-77.95
-107.55
-137.53
-166.46
-192.38
-211.85
-220.92
-217.32
-202.52
-182.04
-163.44
-152.71
-151.38
-156.20
-160.96
-159.94
-150.73
-135.23
-118.54
-106.60
-103.65
-110.40
-123.63
-137.29
-144.63
-140.53
-123.09
-93.64
-55.24
-10.91
37.58
89.76
145.49
203.70
261.38
313.81
355.21
380.25
385.42
370.04
336.49
289.90
236.77
183.40
134.62
92.83
58.44
30.67
8.67
-7.53
-17.21
-19.73
-15.73
-7.75
0.21
4.05
1.30
-7.59
-19.84
-32.08
-42.48
-51.74
-62.33
-76.64
-95.28
-116.50
-137.34
-155.54
-170.77
-184.82
-200.01
-217.56
-236.06
-251.42
-258.00
-250.84
-227.91
-191.52
-148.06
-106.42
-75.55
-61.47
-65.32
-82.75
-105.15
-122.53
-126.47
-112.57
-80.89
-34.97
19.95
78.68
136.60
189.65
234.05
266.67
285.86
292.23
288.25
276.50
258.05
231.94
197.15
154.85
109.73
68.68
37.71
19.12
11.15
10.21
13.82
22.00
35.81
54.61
74.15
87.64
89.18
77.30
56.17
32.83
12.87
-3.03
-18.84
-39.37
-65.72
-92.85
-111.89
-115.23
-101.63
-77.50
-53.81
-40.54
-41.95
-55.68
-75.42
-95.20
-112.09
-126.00
-137.36
-145.25
-147.36
-141.90
-129.34
-112.51
-94.78
-77.70
-60.16
-39.57
-14.17
15.25
45.68
73.62
97.27
117.50
136.72
156.36
174.68
186.83
187.22
173.08
146.86
115.62
87.79
68.85
58.56
51.70
41.52
23.82
-0.97
-28.86
-55.13
-76.89
-93.55
-105.35
-111.81
-112.03
-106.33
-97.64
-90.97
-90.90
-98.61
-110.75
-121.04
-123.82
-117.26
-103.82
-88.42
-75.10
-64.79
-55.45
-43.46
-25.51
0.56
35.42
78.17
125.82
172.98
213.22
241.46
256.29
260.28
257.78
251.84
242.35
226.70
202.67
171.47
137.93
107.95
84.79
67.03
49.54
27.16
-1.80
-34.29
-64.57
-87.65
-101.50
-107.44
-108.23
-106.06
-101.87
-95.82
-88.67
-82.73
-81.54
-88.48
-104.67
-127.84
-152.29
-170.95
-178.40
-173.50
-160.16
-145.54
-136.06
-133.80
-135.33
-133.52
-121.88
-98.31
-66.26
-32.50
-2.97
21.12
44.01
73.31
115.57
172.08
237.13
299.19
345.16
365.27
356.74
324.49
278.48
229.32
184.50
147.15
117.45
94.95
79.98
72.78
71.32
70.29
62.61
42.98
11.45
-26.04
-60.69
-85.52
-98.77
-103.73
-105.38
-106.39
-105.49
-99.20
-85.14
-65.01
-44.88
-32.64
-34.55
-52.59
-83.98
-123.15
-164.04
-201.65
-232.57
-255.02
-268.25
-272.67
-269.81
-262.64
-255.66
-254.19
-262.42
-281.44
-307.76
-333.68
-349.68
-347.56
-323.45
-279.45
-222.67
-162.12
-105.29
-56.05
-14.45
21.59
55.17
89.66
127.41
169.14
213.93
259.58
303.03
340.52
367.95
382.53
383.86
372.78
349.92
315.82
271.30
217.57
155.94
88.27
18.92
-43.93
-90.38
-112.83
-107.84
-77.00
-26.38
34.85
93.18
131.10
140.28
128.15
107.93
88.18
70.57
53.61
35.86
17.47
0.82
-10.05
-12.01
-6.01
5.71
18.34
28.68
35.30
38.11
38.69
37.29
37.09
39.04
42.33
45.21
46.26
44.23
37.47
25.07
8.09
-9.24
-23.90
-32.24
-31.27
-19.99
-0.88
19.67
33.96
36.05
23.90
-1.36
-35.73
-74.17
-112.05
-142.59
-161.46
-168.14
-164.82
-154.24
-139.12
-121.40
-102.46
-83.45
-66.08
-52.96
-46.18
-46.23
-51.48
-59.09
-66.53
-71.15
-71.33
-67.06
-59.92
-51.66
-43.15
-33.65
-21.41
-5.08
15.66
40.09
65.12
85.83
97.44
97.47
87.42
72.43
58.61
48.36
45.53
51.47
64.35
79.80
92.52
98.52
96.12
84.64
65.60
43.27
21.41
2.18
-14.07
-28.17
-40.23
-48.73
-52.80
-50.72
-39.47
-17.94
12.97
50.95
88.44
116.47
140.43
164.12
181.28
186.11
173.21
139.89
88.05
24.52
-39.78
-92.97
-127.88
-142.32
-137.87
-120.22
-96.83
-74.39
-56.78
-43.80
-32.27
-19.92
-5.77
10.06
25.80
39.49
50.56
60.32
71.43
85.83
102.25
117.23
127.12
129.20
123.11
110.66
94.78
78.10
61.97
46.08
30.08
15.06
3.43
-1.98
0.46
9.98
23.72
38.24
51.27
62.85
74.71
88.46
103.86
118.47
128.73
131.78
126.81
115.41
100.75
86.52
76.04
71.73
74.76
84.67
99.22
114.94
128.38
137.54
142.61
145.56
148.68
153.05
157.82
160.56
158.52
149.92
134.65
114.14
90.58
65.96
41.45
17.19
-7.51
-33.54
-61.52
-91.41
-122.49
-153.49
-183.23
-211.02
-237.06
-262.67
-290.06
-321.76
-359.54
-403.23
-449.90
-494.02
-528.40
-545.96
-541.61
-513.83
-465.67
-404.67
-341.55
-287.49
-250.79
-234.10
-233.44
-240.03
-244.04
-238.71
-222.67
-199.54
-175.02
-153.50
-135.98
-120.55
-104.44
-86.12
-65.94
-45.14
-24.17
-1.64
25.44
60.13
103.97
156.35
214.99
276.92
339.03
397.93
449.34
487.93
508.08
505.72
480.05
434.56
376.39
314.49
257.37
211.59
180.99
167.02
169.39
186.80
217.32
258.21
305.54
353.91
396.72
427.36
441.00
436.30
415.95
385.66
351.91
319.63
291.00
265.66
242.17
219.48
197.70
177.70
159.97
143.79
127.09
107.32
82.59
52.53
18.57
-16.63
-50.13
-79.75
-104.70
-125.59
-143.84
-161.01
-177.83
-193.93
-208.12
-219.15
-226.49
-230.82
-234.04
-238.72
-247.39
-261.47
-280.77
-303.83
-328.70
-353.72
-378.24
-402.73
-428.49
-457.53
-491.72
-532.51
-580.43
-634.33
-690.45
-742.07
-780.67
-798.50
-792.22
-763.34
-717.61
-662.97
-606.92
-554.38
-507.03
-464.26
-424.83
-389.64
-359.01
-331.75
-305.19
-276.49
-243.84
-206.95
-167.05
-126.47
-90.39
-61.57
-39.26
-20.33
-1.59
18.78
41.29
65.41
90.02
110.68
125.65
136.78
147.92
162.11
180.33
202.05
225.89
271.03
338.63
414.24
478.32
519.81
538.50
539.43
528.41
509.96
487.15
458.74
425.16
389.39
355.49
326.10
301.52
280.85
262.80
246.41
228.64
208.72
188.27
169.90
156.08
146.18
138.96
133.12
127.83
121.22
112.90
104.04
96.63
92.27
91.36
93.48
97.08
99.65
97.59
88.48
72.20
51.01
28.52
8.05
-8.13
-19.55
-27.07
-32.50
-36.76
-39.87
-41.30
-40.73
-38.72
-36.31
-34.57
-33.95
-34.02
-33.82
-32.34
-29.30
-25.14
-20.95
-17.61
-15.46
-14.12
-12.81
-10.87
-8.12
-4.99
-2.21
-0.37
0.42
0.53
0.61
1.17
2.35
3.95
5.57
6.96
8.12
9.22
10.39
11.55
12.46
12.81
12.45
11.52
10.32
9.10
7.92
6.48
4.30
0.92
-3.76
-9.24
-14.52
-18.32
-19.52
-17.57
-12.78
-6.26
0.42
5.85
9.31
10.90
11.46
12.05
13.66
16.75
21.33
27.09
33.61
40.55
47.41
53.22
56.66
56.50
52.08
43.83
33.23
22.47
13.68
8.20
5.63
4.36
2.42
-1.53
-7.77
-15.37
-22.53
-26.94
-26.48
-20.70
-10.81
0.70
10.82
16.78
16.76
10.35
-1.18
-15.30
-30.10
-44.55
-58.53
-72.59
-87.84
-105.72
-127.70
-154.96
-181.77
-202.41
-212.12
-207.73
-186.99
-148.57
-94.03
-29.75
33.84
86.28
121.32
140.41
148.71
152.14
154.33
155.33
153.10
146.56
137.39
128.42
120.02
111.90
102.05
87.33
65.23
35.26
0.05
-34.07
-60.83
-77.08
-83.28
-82.06
-76.38
-68.60
-60.28
-52.01
-43.68
-35.40
-27.71
-21.19
-16.35
-13.39
-12.14
-11.99
-11.95
-11.08
-9.09
-6.39
-3.58
-1.24
0.31
1.07
1.34
1.59
2.31
3.62
5.29
7.00
8.49
9.67
10.58
11.36
12.18
13.23
14.51
15.90
17.31
18.69
20.15
21.84
23.91
26.46
29.53
33.02
36.64
40.05
42.62
44.11
44.16
42.50
39.01
33.75
26.93
18.94
10.63
2.33
-5.43
-12.23
-17.77
-21.86
-24.53
-25.91
-26.22
-25.68
-24.64
-23.28
-21.79
-20.28
-18.79
-17.37
-16.03
-14.79
-13.57
-12.44
-11.35
-10.32
-9.56
-8.87
-8.22
-7.62
-7.05
-6.50
-6.01
-5.55
-5.14
-4.78
-4.41
-4.08
-3.79
-3.55
-3.33
-3.17
-3.06
-2.99
-2.99
-3.00
-3.07
-3.21
-3.43
-3.73
-4.13
-4.62
-5.21
-5.91
-6.66
-7.50
-8.45
-9.50
-10.66
-11.91
-13.25
-14.69
-16.30
-17.98
-19.81
-21.78
-23.86
-26.00
-28.13
-30.26
-32.43
-34.77
-37.25
-39.98
-43.03
-46.35
-49.73
-52.92
-55.56
-57.25
-58.01
-56.93
-53.50
-47.31
-38.02
-25.57
-10.16
7.65
27.41
47.29
66.06
82.54
96.15
106.80
114.75
120.49
124.40
126.38
125.90
122.54
115.79
105.57
92.39
77.23
61.15
44.95
28.83
12.42
-4.19
-21.38
-38.73
-55.13
-69.08
-79.45
-85.79
-88.69
-89.90
-90.57
-92.09
-95.43
-101.30
-109.72
-119.47
-127.53
-129.65
-121.70
-101.85
-72.29
-38.74
-8.52
12.47
21.96
21.84
16.36
9.68
4.07
-0.61
-5.63
-11.92
-19.28
-26.50
-32.19
-35.84
-37.87
-39.22
-41.12
-44.06
-47.68
-50.71
-51.51
-48.09
-39.06
-23.99
-3.56
20.57
46.18
71.17
94.01
113.35
129.35
142.59
153.75
163.44
172.19
180.34
187.51
191.94
190.92
180.66
158.93
126.73
88.78
51.98
22.74
4.43
-3.78
-5.81
-6.05
-7.14
-9.31
-11.54
-13.10
-15.08
-19.88
-29.98
-46.67
-69.58
-97.07
-126.79
-155.41
-179.53
-195.32
-199.48
-190.80
-171.37
-146.29
-121.87
-103.38
-92.47
-87.78
-85.96
-83.76
-79.23
-72.06
-62.59
-50.77
-35.86
-17.01
5.54
30.17
53.62
73.23
87.11
94.92
97.80
97.64
96.36
95.03
93.81
92.60
90.34
86.44
81.01
74.77
68.74
63.78
60.23
57.83
56.01
54.10
51.69
48.73
45.55
42.62
40.31
38.75
37.76
36.92
35.65
33.89
31.04
26.98
21.69
15.29
7.96
-0.04
-8.39
-16.71
-24.59
-31.62
-37.35
-41.49
-43.91
-44.65
-43.85
-41.78
-38.77
-35.18
-31.40
-27.70
-24.36
-21.65
-19.83
-19.12
-19.63
-21.44
-24.52
-28.77
-33.82
-39.20
-44.48
-49.28
-53.28
-56.20
-57.99
-58.77
-58.88
-58.47
-57.90
-57.61
-58.06
-59.64
-62.65
-67.25
-73.50
-81.38
-90.27
-99.67
-109.13
-118.33
-127.04
-135.16
-142.71
-149.86
-156.93
-163.60
-169.75
-175.26
-179.99
-183.69
-185.87
-185.67
-181.60
-176.29
-170.30
-163.86
-157.07
-149.94
-142.44
-134.56
-126.23
-117.44
-108.22
-97.99
-86.56
-74.03
-60.87
-47.70
-35.33
-24.44
-15.56
-8.88
-3.74
0.57
4.74
9.35
14.77
21.24
28.97
38.33
49.92
64.83
84.01
108.05
136.92
169.83
205.31
241.41
276.01
307.15
333.78
355.72
373.87
389.77
404.60
418.53
430.03
436.31
434.08
421.09
396.74
362.41
321.05
276.35
232.15
191.88
158.28
133.01
116.27
106.46
100.44
94.51
85.52
72.05
54.67
35.45
16.85
0.88
-11.40
-19.84
-24.85
-27.07
-27.42
-27.21
-28.06
-31.51
-38.19
-47.30
-56.69
-63.73
-66.52
-64.85
-60.33
-55.47
-52.48
-52.18
-53.63
-54.81
-53.71
-49.34
-42.09
-33.47
-25.31
-19.08
-15.36
-13.88
-13.69
-13.63
-12.61
-9.97
-5.54
0.35
6.96
13.30
18.43
21.53
22.19
20.19
15.47
8.07
-1.81
-13.57
-26.10
-37.91
-47.42
-53.35
-55.14
-53.10
-48.25
-41.97
-35.56
-30.02
-25.96
-23.72
-23.39
-24.79
-27.37
-30.31
-32.66
-33.73
-33.25
-31.35
-28.39
-24.79
-20.85
-16.78
-12.64
-8.24
-3.02
3.95
13.53
25.57
38.22
47.92
50.43
42.56
23.69
-3.66
-34.56
-63.32
-85.15
-97.10
-98.25
-89.30
-72.14
-49.62
-25.42
-3.62
12.05
19.15
17.54
9.45
-1.24
-10.28
-14.43
-12.54
-5.83
2.86
10.24
14.07
13.88
10.78
6.58
2.77
-0.16
-2.53
-4.96
-7.80
-11.08
-14.80
-19.13
-24.30
-30.10
-35.38
-38.15
-36.34
-28.98
-16.96
-2.94
9.60
17.79
20.41
18.07
12.78
6.79
1.78
-1.58
-3.72
-5.62
-8.14
-11.58
-15.49
-18.82
-20.25
-18.54
-12.92
-3.39
8.98
22.03
32.78
38.13
35.86
25.63
9.39
-9.11
-25.73
-37.27
-42.55
-42.41
-38.90
-34.23
-30.04
-27.03
-24.99
-22.99
-19.55
-13.19
-3.00
10.73
26.30
40.69
50.78
54.57
51.94
44.48
34.56
24.15
14.18
4.94
-3.26
-9.36
-11.89
-9.95
-4.43
1.80
4.84
1.71
-7.93
-21.36
-33.80
-40.47
-38.61
-28.22
-11.78
6.97
24.26
37.21
44.04
44.04
37.49
25.50
9.95
-7.03
-23.53
-38.10
-49.63
-57.16
-59.54
-55.73
-45.37
-29.27
-9.67
10.17
26.88
37.89
41.97
39.37
31.52
20.63
9.32
0.15
-4.94
-5.23
-1.53
4.07
9.10
11.67
11.34
9.04
6.38
4.55
3.55
2.23
-1.01
-7.17
-15.92
-25.44
-33.05
-36.13
-33.18
-24.29
-11.02
4.13
18.55
30.11
37.45
39.94
37.58
30.95
21.15
9.82
-1.05
-9.50
-14.31
-15.37
-13.79
-11.44
-10.08
-10.47
-11.71
-11.72
-8.34
-0.87
9.15
18.29
22.86
20.59
11.79
-0.96
-14.12
-24.87
-31.95
-35.53
-36.19
-34.07
-28.78
-20.08
-8.63
3.68
14.18
20.52
21.44
17.06
8.69
-1.57
-11.57
-19.57
-24.53
-26.29
-25.34
-22.63
-19.22
-15.85
-12.72
-9.59
-6.12
-2.23
1.79
5.39
8.14
9.91
10.94
11.56
11.79
11.18
9.01
4.88
-0.85
-6.96
-11.71
-13.62
-12.18
-8.13
-3.05
1.49
4.63
6.49
7.76
8.97
9.91
9.64
7.03
1.57
-6.23
-14.92
-22.66
-27.96
-30.05
-28.99
-25.39
-20.04
-13.75
-7.39
-1.81
2.20
4.00
3.32
0.10
-5.46
-12.88
-21.32
-29.68
-36.55
-40.48
-40.58
-36.88
-30.36
-22.38
-14.34
-6.97
-0.52
5.05
9.73
13.40
16.17
18.54
21.09
23.80
25.40
23.59
16.07
1.88
-17.49
-38.18
-55.23
-64.38
-63.52
-53.10
-35.37
-13.33
10.30
33.32
54.05
70.94
82.66
88.49
88.73
84.74
78.56
72.46
68.13
66.35
66.90
68.87
71.09
72.48
72.26
69.98
65.57
59.29
51.60
43.14
34.67
26.98
20.90
17.05
15.62
16.06
17.13
17.27
15.26
10.74
4.33
-2.71
-9.21
-14.59
-19.10
-23.50
-28.64
-35.08
-42.80
-51.13
-58.74
-63.84
-64.60
-59.75
-49.29
-34.73
-18.82
-4.55
6.08
12.75
16.68
19.71
23.14
27.03
30.32
31.75
30.73
27.92
24.83
23.01
23.17
24.78
26.41
26.51
24.34
20.39
16.19
13.60
13.95
17.41
23.05
29.47
35.54
40.98
46.13
51.30
56.06
59.05
58.34
52.33
40.64
24.37
5.84
-12.16
-26.98
-36.60
-39.99
-37.19
-29.37
-18.41
-6.41
4.98
14.89
23.25
30.39
36.61
41.89
45.70
47.13
44.83
37.33
23.46
3.19
-21.86
-48.39
-72.35
-90.42
-101.41
-106.70
-109.12
-111.20
-113.81
-115.82
-115.18
-110.52
-102.25
-92.43
-83.56
-77.11
-72.79
-69.06
-64.26
-57.73
-50.08
-42.60
-36.33
-31.51
-27.63
-24.07
-20.72
-18.07
-16.77
-17.06
-18.39
-19.56
-19.25
-16.52
-11.22
-4.01
3.90
11.08
16.31
18.75
18.11
14.62
8.97
1.98
-5.66
-13.62
-21.90
-30.51
-39.11
-46.77
-52.06
-53.51
-50.39
-43.10
-33.28
-23.21
-14.98
-9.81
-7.65
-7.47
-7.87
-7.78
-6.87
-5.47
-4.13
-3.13
-2.19
-0.69
1.82
5.08
7.99
8.94
6.58
0.49
-8.55
-18.75
-27.91
-34.11
-36.24
-34.21
-28.83
-21.47
-13.66
-6.70
-1.48
1.65
2.68
1.90
-0.32
-3.51
-7.27
-11.19
-14.98
-18.42
-21.41
-24.04
-26.64
-29.82
-34.28
-40.41
-47.93
-55.62
-61.66
-64.24
-62.36
-56.43
-48.09
-39.51
-32.46
-27.59
-24.29
-21.30
-17.37
-11.87
-4.89
2.86
10.57
17.55
23.51
28.64
33.69
40.02
49.31
62.94
81.11
101.95
121.27
133.34
132.46
114.92
80.67
33.69
-18.66
-67.41
-104.15
-122.93
-121.25
-100.13
-63.34
-16.20
35.32
85.39
128.61
160.19
176.40
175.26
157.23
125.47
85.45
43.66
6.10
-23.04
-42.09
-51.52
-53.12
-48.99
-40.95
-30.40
-18.54
-6.65
3.91
11.91
16.71
18.38
17.37
14.28
9.43
2.99
-4.73
-12.90
-20.06
-24.48
-24.74
-20.30
-11.56
0.42
14.50
29.78
45.53
60.86
74.41
84.32
88.74
86.53
77.84
64.23
48.24
32.60
19.37
9.50
2.72
-1.97
-5.68
-9.13
-12.35
-14.80
-15.74
-14.64
-11.48
-6.72
-1.13
4.60
9.97
14.82
19.08
22.61
25.15
26.21
25.28
21.95
16.08
7.90
-1.93
-12.46
-22.41
-30.40
-35.32
-36.57
-34.41
-29.89
-24.58
-19.98
-16.93
-15.31
-14.05
-11.77
-7.46
-1.11
6.06
12.03
14.92
13.82
9.24
2.94
-2.99
-6.85
-8.05
-7.07
-5.03
-2.97
-1.34
0.06
1.79
4.12
6.69
8.57
8.58
5.91
0.52
-6.77
-14.46
-20.87
-24.72
-25.44
-23.33
-19.25
-14.23
-9.01
-4.01
0.68
4.95
8.51
11.04
12.60
13.88
16.13
20.56
27.44
35.73
43.44
48.62
50.45
49.60
47.48
45.12
42.14
36.86
27.52
13.77
-2.41
-17.19
-26.49
-27.99
-22.20
-12.23
-2.19
4.61
6.93
5.63
2.57
-0.70
-3.87
-7.62
-12.89
-19.83
-27.44
-33.95
-37.76
-38.22
-35.86
-31.93
-27.70
-23.87
-20.56
-17.51
-14.54
-11.79
-9.65
-8.56
-8.79
-10.25
-12.44
-14.44
-14.93
-12.55
-6.32
3.71
16.21
28.81
38.84
44.31
44.72
41.11
35.52
30.09
26.26
24.41
24.11
24.56
25.10
25.35
25.10
24.03
21.65
17.52
11.50
4.13
-3.37
-9.41
-12.61
-12.40
-9.40
-5.11
-1.33
0.67
0.70
-0.56
-2.03
-3.07
-3.82
-4.92
-6.84
-9.32
-11.34
-11.72
-10.01
-6.85
-3.78
-2.37
-3.37
-6.38
-10.25
-13.68
-15.81
-16.33
-15.33
-12.97
-9.52
-5.38
-1.27
1.89
3.28
2.55
-0.04
-3.74
-7.62
-10.93
-13.24
-14.52
-14.87
-14.48
-13.53
-12.33
-11.27
-10.78
-11.09
-12.00
-12.85
-12.87
-11.56
-9.19
-6.71
-5.29
-5.61
-7.50
-9.86
-11.33
-10.89
-8.27
-4.01
1.00
5.91
10.16
13.52
15.97
17.57
18.35
18.32
17.48
15.88
13.50
10.28
6.25
1.67
-2.91
-6.68
-8.89
-9.11
-7.41
-4.36
-0.80
2.34
4.30
4.51
2.88
-0.08
-3.27
-5.21
-4.65
-1.26
4.01
9.22
12.26
11.90
8.37
3.31
-1.06
-3.01
-2.11
0.74
3.81
5.46
4.78
1.87
-2.50
-7.36
-12.04
-16.26
-19.86
-22.49
-23.49
-22.20
-18.53
-13.33
-8.24
-5.02
-4.59
-6.64
-9.83
-12.58
-13.87
-13.65
-12.71
-12.06
-12.41
-13.87
-16.09
-18.54
-20.68
-21.95
-21.68
-19.11
-13.64
-5.31
4.91
15.16
23.24
27.44
27.21
23.38
17.76
12.34
8.50
6.52
5.81
5.32
4.20
2.12
-0.72
-3.73
-6.30
-7.98
-8.59
-8.22
-7.14
-5.67
-4.00
-2.21
-0.32
1.57
3.21
4.28
4.55
3.96
2.69
1.04
-0.74
-2.58
-4.65
-7.23
-10.47
-14.29
-18.35
-22.17
-25.41
-28.00
-30.03
-31.87
-33.87
-36.23
-38.83
-41.26
-42.88
-43.00
-41.10
-36.83
-30.22
-21.71
-12.08
-2.29
6.83
14.78
21.52
27.29
32.29
36.50
39.75
41.86
42.93
43.47
44.18
45.56
47.67
49.99
51.57
51.48
49.14
44.40
37.65
29.67
21.36
13.60
7.08
2.03
-1.60
-4.10
-5.87
-7.25
-8.47
-9.70
-10.99
-12.24
-13.31
-14.07
-14.57
-15.04
-15.83
-17.18
-19.08
-21.07
-22.38
-22.09
-19.35
-13.69
-5.08
6.00
18.59
31.25
42.38
50.56
54.90
55.24
52.14
46.60
39.85
33.04
27.18
23.10
21.55
23.05
27.72
35.05
43.81
52.25
58.44
60.85
58.86
52.92
44.32
34.62
25.14
16.64
9.32
2.89
-3.05
-8.78
-14.23
-19.03
-22.73
-25.00
-25.79
-25.33
-24.24
-23.35
-23.32
-24.44
-26.57
-29.52
-33.24
-38.11
-44.68
-53.87
-66.46
-82.17
-99.11
-114.28
-124.75
-128.92
-127.28
-122.09
-117.35
-117.21
-123.73
-135.46
-147.57
-153.63
-147.62
-125.94
-87.73
-37.03
18.81
72.44
119.46
159.13
192.74
221.60
245.50
263.70
272.71
267.81
245.38
204.57
146.91
75.44
-5.34
-93.35
-174.71
-231.67
-254.55
-248.74
-229.24
-210.29
-198.48
-191.83
-183.68
-164.14
-128.99
-80.57
-25.66
27.88
73.71
108.81
134.72
149.48
156.46
158.65
156.57
148.92
135.33
118.61
104.86
101.10
110.98
132.98
157.70
171.75
164.25
132.26
81.77
24.16
-28.69
-68.62
-91.65
-98.68
-92.93
-78.15
-57.37
-33.10
-8.28
13.61
29.00
36.02
34.44
25.89
13.38
0.62
-9.01
-13.22
-10.99
-2.70
10.44
26.18
41.50
53.31
59.49
59.67
55.11
48.02
40.25
32.59
24.80
16.28
6.96
-2.12
-9.22
-13.04
-13.23
-10.83
-7.64
-5.27
-4.49
-5.05
-6.03
-6.56
-6.50
-6.41
-7.38
-10.34
-15.45
-22.00
-28.50
-33.41
-35.77
-35.62
-33.59
-30.53
-27.12
-23.73
-20.69
-18.25
-16.56
-15.46
-14.39
-12.46
-9.04
-4.42
0.05
2.38
1.34
-2.62
-7.28
-9.56
-7.01
0.91
12.24
23.16
29.26
27.84
18.77
4.25
-12.26
-27.18
-37.68
-42.47
-42.03
-38.71
-34.87
-32.16
-31.69
-34.06
-39.27
-46.88
-56.55
-68.50
-84.01
-103.04
-123.80
-143.88
-161.47
-175.65
-186.61
-195.73
-205.06
-216.68
-228.84
-235.35
-227.87
-199.51
-147.09
-72.72
16.34
113.26
199.72
256.44
276.65
269.33
249.85
229.45
211.02
190.43
160.96
119.40
65.63
5.86
-50.42
-94.57
-120.89
-126.90
-113.19
-83.35
-44.21
-1.67
35.24
57.37
58.95
41.19
12.88
-13.16
-25.63
-19.78
2.33
33.79
66.37
93.25
110.92
119.56
122.02
122.64
125.88
135.35
152.36
174.99
197.91
213.78
215.70
199.23
163.59
111.38
47.44
-22.46
-92.51
-157.88
-215.31
-262.84
-299.18
-322.54
-330.05
-318.44
-284.91
-228.42
-151.20
-59.52
36.98
126.94
200.00
249.00
270.71
266.41
240.93
200.92
153.09
103.28
55.95
14.53
-18.80
-43.96
-62.10
-75.01
-84.50
-91.98
-98.23
-103.83
-109.54
-111.72
-108.73
-101.22
-91.33
-80.41
-67.84
-51.68
-30.63
-5.38
21.11
43.66
57.17
58.48
47.48
26.97
1.69
-23.16
-43.34
-56.39
-62.14
-61.78
-57.14
-50.10
-42.75
-37.24
-35.18
-36.38
-38.21
-36.73
-28.24
-11.54
10.95
33.91
51.89
62.07
65.87
67.30
70.58
77.83
88.15
98.78
106.80
110.62
109.70
103.45
91.48
74.27
54.45
37.21
28.74
32.93
48.65
68.84
82.30
79.23
55.66
15.30
-32.48
-76.90
-110.26
-130.21
-139.18
-142.77
-145.82
-151.00
-158.55
-166.99
-174.02
-177.44
-176.01
-164.08
-141.24
-110.65
-77.87
-48.46
-25.76
-10.20
-0.11
6.55
10.97
12.66
12.03
11.45
15.05
26.83
48.48
78.46
112.74
146.66
175.68
197.03
209.57
213.03
207.71
194.32
174.08
148.80
121.11
94.08
71.75
58.35
56.83
67.27
85.95
105.90
119.22
120.14
106.89
82.32
52.05
21.73
-5.00
-27.12
-45.25
-60.15
-71.60
-78.50
-79.56
-74.38
-64.12
-51.27
-38.82
-29.06
-22.82
-19.50
-17.78
-16.46
-15.00
-13.45
-11.60
-8.70
-3.62
4.36
14.90
26.70
38.21
48.28
56.02
60.02
57.63
45.45
21.33
-13.32
-52.34
-86.39
-106.31
-106.74
-87.74
-53.93
-11.83
32.54
74.71
111.36
139.55
156.75
161.60
154.61
138.20
116.06
92.25
70.25
52.87
42.15
39.26
43.85
54.22
67.51
80.29
89.48
93.01
90.13
81.08
66.90
48.91
28.97
9.61
-6.59
-17.67
-22.86
-22.69
-18.71
-12.91
-7.76
-4.95
-5.21
-9.05
-17.65
-32.85
-56.11
-87.84
-126.59
-170.58
-216.28
-259.37
-296.95
-329.14
-357.96
-385.16
-410.77
-432.69
-450.64
-461.49
-459.21
-437.78
-394.89
-333.04
-258.19
-178.10
-99.74
-32.97
18.72
58.28
89.46
110.63
115.54
98.28
57.89
0.30
-71.03
-147.91
-218.06
-270.56
-300.44
-306.79
-289.65
-249.76
-148.07
13.95
193.41
340.69
435.55
485.73
509.58
524.58
537.38
549.44
549.89
532.47
501.14
466.34
437.34
418.51
409.97
408.17
406.64
392.68
359.84
311.68
257.68
205.86
159.25
116.24
72.71
25.55
-28.65
-87.27
-142.16
-184.39
-209.75
-220.01
-220.73
-218.42
-217.68
-221.93
-230.30
-238.87
-243.69
-244.22
-244.17
-249.04
-263.95
-291.69
-332.96
-385.29
-443.39
-499.64
-545.56
-573.39
-576.22
-550.82
-500.16
-434.24
-366.79
-310.22
-269.95
-243.87
-225.42
-205.86
-179.50
-146.42
-112.16
-83.33
-63.54
-50.27
-38.29
-23.77
-3.44
23.49
55.74
90.16
124.52
158.38
194.31
239.94
286.74
320.27
332.41
326.20
310.17
297.04
294.04
306.10
331.14
360.15
385.04
392.37
375.72
333.71
269.79
180.89
81.55
-6.52
-68.38
-98.79
-99.76
-76.86
-39.60
0.89
34.54
57.32
68.33
68.51
61.32
50.69
40.03
30.47
22.31
15.86
13.24
14.47
17.18
18.87
18.04
14.63
9.23
2.92
-3.15
-7.01
-8.36
-8.15
-7.40
-6.32
-4.73
-2.16
1.91
7.83
16.14
26.35
37.65
49.21
60.42
70.96
80.67
89.67
98.35
107.18
115.70
123.02
127.84
128.88
125.39
117.46
105.56
90.00
70.79
47.77
22.89
0.71
-12.19
-9.24
13.70
56.69
115.77
186.06
257.83
320.61
365.52
386.89
383.45
358.43
318.88
273.60
230.72
195.08
168.18
148.58
133.41
120.06
106.85
93.00
78.10
61.76
43.40
23.23
2.17
-18.59
-37.81
-54.83
-69.67
-82.94
-95.58
-108.60
-122.50
-137.28
-152.70
-168.50
-184.64
-201.49
-219.60
-239.33
-260.63
-282.61
-303.82
-323.06
-340.33
-357.31
-376.42
-398.95
-423.00
-442.61
-449.08
-434.02
-392.69
-325.80
-239.06
-141.13
-41.42
50.90
127.80
182.73
211.47
213.23
191.60
154.14
110.01
66.53
26.17
-12.87
-53.65
-96.96
-138.98
-171.67
-185.80
-174.81
-137.45
-78.69
-6.32
71.97
149.88
221.61
280.79
320.68
335.71
323.85
285.53
227.05
159.25
93.65
37.86
-5.96
-39.75
-67.72
-94.81
-131.12
-183.51
-251.57
-327.71
-400.84
-459.30
-492.88
-495.06
-465.01
-417.05
-366.92
-325.06
-295.66
-280.46
-280.04
-292.82
-314.60
-339.77
-374.27
-420.71
-473.67
-522.70
-560.52
-586.22
-603.59
-618.71
-566.80
-425.14
-226.65
-33.47
113.54
208.58
266.11
305.42
342.62
386.85
428.11
454.82
462.50
454.77
437.83
417.24
397.54
381.82
370.63
353.76
324.10
283.37
240.41
203.89
178.02
162.43
154.57
150.47
141.28
122.21
95.13
66.43
41.93
24.14
12.47
5.17
-0.19
-8.25
-21.48
-39.01
-57.64
-74.52
-88.47
-99.91
-109.43
-117.99
-127.16
-137.57
-148.40
-157.81
-163.81
-164.55
-162.70
-159.28
-155.03
-150.31
-145.07
-138.97
-131.53
-122.37
-111.27
-98.27
-82.96
-65.35
-45.69
-24.55
-2.85
18.15
37.08
52.62
63.82
70.75
74.00
74.53
73.46
71.78
70.09
68.68
67.62
67.03
67.53
69.92
74.99
83.24
94.62
108.45
123.73
139.37
154.60
169.29
183.71
198.40
214.08
231.65
251.96
275.30
300.70
325.41
345.23
355.70
353.82
339.46
315.51
286.75
257.90
232.05
210.15
191.66
175.77
162.17
151.05
142.45
135.68
129.28
121.66
111.85
99.94
86.84
73.70
61.29
49.68
38.45
27.13
15.63
4.37
-5.92
-14.52
-21.11
-25.88
-29.45
-32.62
-36.02
-40.01
-44.56
-49.42
-54.13
-58.14
-60.80
-61.55
-60.02
-56.22
-50.59
-43.91
-37.02
-30.59
-25.01
-20.36
-16.67
-14.04
-12.67
-12.77
-14.36
-17.12
-20.48
-23.80
-26.60
-28.70
-30.18
-31.22
-31.81
-31.68
-30.34
-27.59
-23.69
-19.50
-16.14
-14.52
-14.97
-17.13
-20.27
-23.78
-27.53
-31.78
-36.85
-42.77
-49.08
-55.03
-59.89
-63.19
-64.81
-64.81
-63.21
-59.90
-54.71
-47.63
-38.95
-29.39
-19.94
-11.67
-5.38
-1.32
0.91
2.06
3.02
4.29
5.75
6.75
6.48
4.53
1.35
-1.77
-3.32
-2.25
1.41
6.46
11.05
13.56
13.12
9.82
4.41
-2.34
-9.82
-17.65
-25.24
-31.53
-35.20
-35.39
-32.24
-27.17
-22.32
-19.66
-20.26
-23.84
-28.99
-33.84
-36.86
-37.38
-35.62
-32.35
-28.30
-23.85
-18.88
-12.98
-5.82
2.63
12.11
22.30
32.85
43.42
53.09
60.49
64.11
63.00
57.58
49.64
41.56
34.95
29.89
24.72
17.15
5.72
-9.29
-25.83
-41.12
-52.94
-60.46
-64.10
-64.97
-63.93
-61.26
-56.70
-49.91
-40.94
-30.34
-19.09
-8.23
1.36
9.09
14.67
17.91
18.87
17.64
14.44
9.72
4.25
-0.91
-4.50
-5.37
-2.89
2.94
11.38
21.17
30.98
39.75
47.02
52.74
57.07
60.08
61.67
61.51
59.23
54.60
47.58
38.24
26.75
13.30
-1.74
-17.79
-34.04
-49.56
-63.46
-74.99
-83.62
-89.01
-91.05
-89.89
-85.95
-79.79
-71.85
-62.28
-50.95
-37.66
-22.53
-6.24
10.03
25.02
37.97
48.76
57.78
65.44
71.70
76.02
77.56
75.79
70.91
64.03
56.68
50.30
45.65
42.71
40.79
38.99
36.54
33.06
28.66
23.52
17.75
11.39
4.65
-2.00
-7.73
-11.46
-12.24
-9.49
-3.74
3.54
10.57
16.18
20.28
24.12
29.83
39.69
55.46
76.88
101.73
126.46
147.43
161.74
167.68
164.72
153.30
134.72
109.80
79.04
42.97
2.90
-38.86
-79.37
-115.98
-149.73
-179.00
-202.01
-217.93
-226.76
-227.61
-218.49
-197.95
-167.12
-130.08
-92.03
-58.03
-29.83
-7.42
9.90
22.56
30.42
33.00
30.59
24.87
18.07
12.37
9.25
9.46
11.63
15.01
18.93
23.27
27.94
32.71
37.10
40.52
42.71
43.84
44.57
45.83
48.61
52.54
56.30
57.99
56.17
50.58
42.07
32.20
22.29
13.05
3.09
-9.34
-25.41
-44.85
-66.42
-89.06
-113.06
-140.12
-163.89
-177.25
-174.56
-155.39
-123.75
-84.83
-42.82
-0.01
43.81
91.06
141.39
196.54
254.98
311.82
361.03
397.77
420.12
429.31
428.37
418.98
396.56
358.55
304.02
234.81
155.95
74.56
-1.97
-68.04
-121.77
-163.87
-196.23
-220.98
-239.47
-252.19
-259.31
-261.12
-258.06
-250.87
-239.76
-224.10
-203.45
-178.30
-151.43
-127.94
-114.21
-115.16
-131.34
-157.22
-181.98
-193.92
-185.04
-154.73
-110.57
-65.50
-33.28
-24.15
-42.25
-84.80
-143.11
-204.32
-253.98
-279.81
-275.74
-244.75
-198.74
-154.85
-128.56
-127.63
-149.04
-180.52
-205.90
-211.71
-192.15
-150.46
-96.80
-43.62
-0.87
27.18
42.68
52.17
63.39
81.99
109.61
143.66
178.36
206.59
222.11
221.87
206.94
182.47
155.74
132.99
116.69
104.77
92.12
74.02
49.49
21.95
-2.15
-16.62
-18.14
-7.14
13.38
39.56
67.96
96.05
122.32
146.17
167.79
187.77
206.55
223.51
236.43
242.19
238.60
226.17
208.90
193.02
184.11
184.40
191.32
198.74
200.20
192.06
174.90
152.15
127.10
100.13
68.04
25.74
-30.51
-100.36
-178.74
-257.60
-328.84
-386.92
-429.57
-457.00
-470.61
-472.09
-463.57
-448.25
-429.94
-411.81
-394.70
-376.52
-353.25
-321.28
-280.01
-232.73
-185.57
-145.03
-115.47
-98.06
-91.34
-92.91
-100.74
-113.56
-130.50
-150.20
-170.21
-186.69
-194.86
-190.22
-170.05
-134.49
-86.75
-32.38
22.45
72.60
114.84
148.00
172.27
188.67
199.07
206.63
216.02
232.72
261.22
302.84
354.39
408.71
457.02
491.98
510.04
511.76
500.29
478.98
450.10
414.96
374.95
332.38
290.35
251.47
216.96
186.39
158.38
132.12
107.98
86.90
68.99
52.52
33.92
9.41
-23.02
-62.59
-105.42
-145.99
-179.38
-203.02
-217.08
-223.78
-225.61
-223.87
-219.47
-212.23
-201.44
-186.62
-167.85
-145.50
-120.58
-93.66
-65.16
-38.02
-15.41
-0.02
6.81
5.11
-3.35
-17.09
-33.99
-52.00
-73.04
-98.74
-129.08
-161.72
-193.40
-220.45
-242.55
-260.38
-274.96
-291.02
-310.44
-331.18
-348.47
-358.74
-361.49
-362.87
-369.52
-358.97
-315.60
-236.45
-133.78
-25.18
66.80
142.04
200.41
244.26
279.98
305.86
320.41
321.91
309.40
283.91
251.06
217.23
190.16
175.41
170.40
169.73
168.54
165.54
162.61
163.22
167.36
173.26
178.71
180.76
179.66
178.11
179.07
182.85
186.81
185.35
174.30
153.24
124.55
93.29
64.89
43.15
29.31
22.50
19.92
18.60
16.14
10.59
1.40
-10.57
-23.27
-34.24
-41.49
-44.70
-45.06
-44.80
-46.14
-50.24
-56.79
-64.36
-71.16
-75.78
-77.63
-76.81
-73.78
-69.04
-62.91
-55.62
-47.40
-38.46
-28.99
-19.23
-9.37
0.47
10.23
20.23
30.91
42.31
53.32
61.62
64.57
60.78
51.15
38.55
26.61
17.81
12.39
8.56
4.14
-1.59
-7.23
-10.12
-8.69
-3.19
4.34
11.23
15.48
16.52
15.24
13.22
11.81
10.28
7.53
3.26
-1.66
-5.86
-8.17
-7.78
-4.55
0.99
5.01
4.16
-2.33
-12.36
-22.83
-31.09
-35.42
-35.28
-31.29
-29.26
-34.32
-47.83
-67.44
-90.01
-113.69
-137.64
-161.35
-183.88
-209.54
-241.36
-278.37
-316.57
-352.73
-386.43
-418.79
-451.17
-451.03
-401.45
-312.72
-214.19
-128.90
-63.83
-16.49
18.14
44.48
67.25
85.33
98.90
111.35
127.19
149.50
176.19
202.63
224.66
241.70
250.85
251.10
244.26
233.77
222.31
211.14
202.19
191.21
179.75
167.65
154.86
142.14
130.95
122.22
115.76
111.05
107.45
105.34
102.98
98.66
91.89
83.57
75.05
67.26
61.00
57.11
57.57
63.26
74.14
89.03
105.33
119.49
128.00
128.57
120.70
105.48
83.71
55.65
21.73
-16.51
-55.83
-91.89
-120.61
-139.58
-148.74
-150.57
-148.44
-145.02
-141.74
-139.34
-138.60
-140.37
-145.06
-152.55
-162.26
-172.59
-180.87
-184.31
-181.52
-173.61
-163.79
-155.55
-151.51
-152.06
-154.49
-153.88
-146.01
-130.25
-110.08
-90.15
-72.33
-54.89
-33.88
-5.16
33.90
82.76
137.92
190.17
225.33
236.06
227.68
210.65
191.62
172.58
153.04
132.61
111.89
93.24
79.96
73.50
71.85
70.63
66.08
56.49
42.34
25.34
8.60
-4.05
-10.05
-9.70
-7.25
-8.09
-17.45
-37.98
-68.66
-103.27
-131.91
-144.98
-134.80
-103.99
-61.76
-21.01
11.77
34.25
48.66
59.31
69.74
80.53
89.09
91.99
86.25
72.33
53.25
33.92
18.79
11.23
13.19
24.59
44.10
67.05
88.60
103.65
108.23
99.82
79.16
50.09
16.95
-18.28
-57.56
-100.06
-142.31
-178.94
-206.07
-222.08
-228.67
-232.01
-231.54
-230.26
-227.04
-217.87
-196.27
-157.49
-99.93
-29.08
53.16
139.47
217.66
282.23
332.96
373.44
396.23
384.30
335.42
263.47
198.40
139.57
81.65
18.46
-49.68
-119.94
-185.45
-236.71
-257.94
-243.41
-206.12
-165.56
-136.59
-122.01
-115.82
-107.70
-88.59
-56.22
-17.75
14.33
33.15
38.16
33.43
24.30
17.36
18.72
32.44
57.69
89.26
122.65
153.80
178.66
192.59
192.04
176.30
147.75
110.66
70.43
34.30
8.15
-3.50
-0.68
12.23
29.42
46.53
61.36
73.38
83.24
91.93
100.75
111.34
125.90
145.88
170.14
193.74
209.66
212.22
200.18
177.36
149.91
122.39
95.11
64.43
25.91
-21.74
-74.80
-125.88
-167.62
-196.59
-214.99
-229.11
-246.06
-270.51
-303.13
-341.69
-382.93
-423.24
-458.38
-482.30
-486.92
-464.07
-409.01
-324.13
-220.58
-115.96
-28.73
27.80
50.29
46.10
29.67
16.13
15.35
28.40
48.12
63.33
63.75
43.66
2.50
-56.42
-127.99
-205.94
-282.62
-348.79
-394.94
-414.42
-406.32
-376.64
-336.64
-298.39
-269.94
-252.48
-240.73
-226.12
-201.04
-161.70
-109.01
-47.25
18.18
82.91
144.75
203.47
260.14
315.75
370.29
422.13
467.44
500.21
513.20
499.94
457.47
389.00
304.55
219.24
148.98
105.62
93.45
108.90
143.32
187.23
234.10
281.55
329.54
377.32
420.84
452.44
463.50
448.67
408.75
350.77
285.43
222.63
168.58
124.40
87.53
54.21
21.55
-11.78
-45.92
-80.19
-113.37
-143.20
-167.22
-183.70
-192.45
-194.37
-190.70
-182.31
-169.54
-156.54
-148.26
-148.54
-157.94
-173.28
-187.95
-194.12
-187.67
-168.70
-141.84
-114.09
-91.94
-78.62
-73.41
-73.93
-76.26
-77.00
-75.25
-70.60
-62.64
-51.54
-38.29
-25.23
-13.31
-3.70
3.67
10.46
19.38
33.49
51.32
70.25
86.12
95.21
95.88
89.45
79.58
70.60
65.81
65.33
66.36
64.81
58.35
47.74
36.40
28.89
28.79
37.51
52.45
67.74
76.56
74.33
59.92
34.54
0.01
-42.79
-90.49
-132.41
-156.74
-159.39
-144.35
-119.37
-92.84
-71.59
-61.66
-59.98
-62.58
-66.61
-70.87
-74.93
-78.63
-81.90
-80.70
-72.99
-56.85
-32.82
-4.63
21.67
40.19
47.16
41.97
27.21
7.01
-14.21
-34.73
-55.67
-79.06
-104.85
-129.96
-149.44
-158.93
-157.12
-145.77
-129.38
-112.92
-99.71
-89.98
-82.38
-75.34
-67.45
-57.49
-44.13
-26.62
-5.22
19.01
45.87
74.40
102.40
127.28
147.21
161.60
170.77
174.93
174.56
172.30
169.55
165.50
158.23
146.91
132.35
116.71
101.99
91.26
90.93
105.66
135.26
174.80
217.30
255.75
285.52
304.32
295.06
254.05
194.08
133.68
82.39
39.27
-0.27
-36.29
-71.52
-105.29
-133.52
-154.56
-171.94
-192.45
-217.84
-248.20
-273.97
-287.67
-285.68
-267.13
-233.48
-186.87
-128.77
-61.25
10.30
76.21
124.50
147.01
144.04
125.16
98.23
70.27
45.73
25.19
5.66
-17.13
-45.69
-79.39
-116.14
-154.89
-195.60
-239.74
-280.84
-313.82
-333.21
-334.66
-317.74
-287.99
-256.09
-232.66
-223.50
-226.96
-236.48
-242.84
-240.27
-229.25
-214.47
-200.04
-185.41
-165.79
-135.59
-93.32
-39.69
21.06
83.15
141.98
196.46
248.51
300.26
352.33
403.15
453.98
504.05
547.75
574.77
574.58
541.24
476.30
389.36
295.40
215.56
165.88
151.03
165.05
198.07
242.22
292.97
347.75
372.08
342.73
262.58
157.11
52.23
-36.56
-102.53
-145.42
-170.63
-187.84
-202.46
-217.26
-232.46
-245.33
-250.02
-241.11
-218.83
-190.61
-167.85
-155.37
-151.44
-150.18
-146.10
-136.69
-123.51
-111.22
-104.15
-102.75
-99.73
-86.25
-58.52
-21.23
14.59
36.71
36.51
12.13
-31.78
-84.69
-135.06
-173.73
-195.08
-196.43
-177.97
-143.09
-94.96
-42.30
4.05
33.88
40.76
24.75
-6.88
-41.86
-66.58
-70.82
-50.56
-9.76
39.84
82.45
104.51
100.84
76.68
45.17
20.17
11.25
19.94
40.64
65.64
90.38
115.59
143.83
175.00
191.53
175.57
121.83
44.09
-32.76
-87.01
-107.60
-100.28
-75.90
-46.02
-16.81
11.55
38.92
65.13
88.93
108.58
122.70
131.20
133.79
131.01
123.43
111.09
94.32
74.33
53.48
34.54
19.64
8.69
0.90
-4.32
-7.59
-9.77
-12.06
-15.88
-21.56
-28.98
-38.62
-50.76
-64.24
-77.58
-89.90
-101.44
-114.05
-128.07
-143.63
-160.89
-178.83
-193.59
-200.66
-197.60
-185.39
-168.90
-151.01
-133.70
-117.74
-101.62
-79.84
-46.29
2.01
63.29
130.58
199.49
266.46
328.86
369.00
371.99
337.47
278.90
223.70
169.49
112.10
50.45
-16.65
-84.04
-143.39
-187.73
-214.41
-224.93
-224.04
-212.13
-188.52
-153.56
-109.16
-57.99
-4.00
47.42
90.56
119.77
134.59
136.49
127.28
109.21
85.70
60.75
37.81
18.88
3.62
-7.75
-15.87
-22.00
-27.11
-31.18
-33.56
-33.88
-32.45
-30.46
-28.22
-25.73
-22.78
-19.10
-14.51
-9.15
-3.57
1.42
5.04
7.17
8.04
8.17
8.28
9.07
11.04
14.21
17.90
20.77
21.17
17.70
9.68
-2.66
-18.48
-36.83
-57.04
-78.80
-101.89
-125.72
-148.96
-169.56
-185.00
-192.75
-190.87
-178.46
-155.94
-125.08
-88.71
-50.27
-13.11
19.87
46.63
65.91
77.28
81.09
78.64
72.17
64.65
59.15
58.04
62.24
71.02
82.28
93.35
101.70
105.35
102.89
93.49
76.88
53.64
25.50
-4.60
-32.87
-55.59
-70.02
-75.17
-71.95
-62.63
-50.01
-36.54
-23.82
-12.61
-3.23
4.14
9.19
11.62
11.47
9.34
6.38
3.96
3.12
4.25
7.07
10.81
14.69
18.21
21.20
23.71
25.79
27.38
28.42
28.94
29.17
29.52
30.39
31.96
34.02
35.89
36.63
35.42
31.92
26.50
20.31
14.85
11.48
10.94
13.11
17.03
21.40
25.07
27.31
28.02
27.42
25.78
23.24
19.81
15.53
10.69
5.85
1.71
-1.17
-2.60
-2.88
-2.68
-2.75
-3.69
-5.69
-8.53
-11.67
-14.46
-16.41
-17.29
-17.26
-16.73
-16.20
-16.05
-16.46
-17.38
-18.63
-19.95
-21.10
-21.74
-21.56
-20.24
-17.66
-14.00
-9.80
-5.74
-2.39
0.06
1.86
3.54
5.51
7.85
10.15
11.72
11.91
10.50
7.77
4.39
1.12
-1.50
-3.34
-4.51
-5.18
-5.31
-4.55
-2.43
1.29
6.32
11.74
16.22
18.54
18.09
15.18
10.86
6.47
2.98
0.59
-1.17
-3.13
-5.80
-9.08
-12.20
-14.21
-14.44
-12.89
-10.20
-7.25
-4.70
-2.68
-0.85
1.32
4.21
7.85
12.09
16.73
21.79
27.37
33.45
39.67
45.21
49.04
50.31
48.62
44.02
36.62
26.20
11.96
-7.02
-31.17
-59.70
-90.29
-119.43
-143.24
-158.43
-163.02
-156.68
-140.50
-116.48
-86.91
-53.93
-19.36
15.18
48.18
78.08
103.35
122.81
135.92
142.96
144.74
142.21
136.01
126.39
113.44
97.42
79.02
59.36
39.74
21.33
4.98
-8.86
-20.09
-28.98
-36.01
-41.67
-46.31
-49.97
-52.37
-53.02
-51.61
-48.13
-42.97
-36.62
-29.45
-21.63
-13.24
-4.55
3.82
10.98
15.99
18.36
18.27
16.64
14.70
13.62
14.00
15.75
18.21
20.55
22.15
22.83
22.83
22.50
22.10
21.61
20.76
19.21
16.82
13.69
10.19
6.86
4.23
2.70
2.43
3.32
4.96
6.75
7.95
7.90
6.11
2.39
-3.09
-9.79
-16.91
-23.59
-29.14
-33.27
-36.07
-38.03
-39.68
-41.22
-42.43
-42.69
-41.28
-37.79
-32.40
-25.94
-19.55
-14.23
-10.45
-8.11
-6.79
-6.10
-5.99
-6.66
-8.30
-10.82
-13.72
-16.37
-18.37
-19.81
-21.26
-23.45
-26.90
-31.57
-36.92
-42.19
-46.76
-50.50
-53.71
-56.98
-60.82
-65.30
-69.93
-73.85
-76.04
-75.72
-72.53
-66.54
-58.13
-47.60
-35.15
-20.87
-4.91
12.20
29.51
45.69
59.43
69.83
76.67
80.32
81.58
81.17
79.57
76.85
72.89
67.68
61.44
54.63
47.81
41.31
35.14
28.99
22.51
15.66
8.87
2.93
-1.40
-3.80
-4.64
-4.79
-5.29
-6.65
-8.78
-11.01
-12.56
-12.99
-12.39
-11.29
-10.26
-9.55
-8.96
-7.98
-6.18
-3.48
-0.33
2.51
4.30
4.80
4.38
3.81
3.92
5.09
7.15
9.52
11.59
13.12
14.27
15.37
16.56
17.54
17.74
16.55
13.81
9.89
5.62
1.79
-1.19
-3.44
-5.49
-7.93
-11.05
-14.70
-18.43
-21.71
-24.22
-25.89
-26.83
-27.12
-26.73
-25.51
-23.27
-19.97
-15.76
-11.02
-6.20
-1.77
1.93
4.82
7.01
8.79
10.42
12.03
13.47
14.44
14.59
13.75
12.07
9.96
7.92
6.30
5.19
4.37
3.55
2.54
1.37
0.34
-0.17
0.14
1.25
2.88
4.55
5.92
6.91
7.74
8.74
10.09
11.66
12.99
13.56
13.03
11.48
9.40
7.42
6.06
5.45
5.35
5.26
4.77
3.76
2.45
1.31
0.71
0.80
1.34
1.88
2.02
1.67
1.03
0.49
0.30
0.46
0.72
0.70
0.24
-0.53
-1.23
-1.49
-1.11
-0.24
0.77
1.53
1.86
1.89
1.98
2.55
3.83
5.71
7.81
9.57
10.55
10.63
10.03
9.20
8.58
8.35
8.44
8.58
8.59
8.50
8.58
9.15
10.35
12.02
13.71
14.95
15.42
15.16
14.55
14.03
13.88
14.16
14.65
15.03
15.10
14.84
14.44
14.19
14.27
14.72
15.36
15.83
15.77
14.95
13.36
11.16
8.61
5.87
2.96
-0.29
-4.01
-8.23
-12.64
-16.56
-19.23
-20.13
-19.24
-17.00
-13.97
-10.55
-6.94
-3.08
1.19
5.85
10.55
14.60
17.20
17.79
16.32
12.96
8.26
3.07
-1.67
-5.18
-6.99
-6.58
-3.27
3.80
14.42
27.69
42.42
57.45
71.93
85.34
97.63
108.96
119.11
125.34
124.26
113.86
94.92
70.73
45.54
23.40
7.12
-2.42
-8.78
-16.53
-28.38
-43.75
-60.07
-74.92
-86.71
-94.83
-99.65
-105.84
-118.70
-141.20
-172.82
-211.13
-254.18
-300.70
-350.01
-380.26
-374.16
-330.01
-263.81
-194.53
-132.20
-78.52
-31.36
11.37
50.56
82.64
103.84
113.48
114.40
112.63
112.00
113.66
116.43
117.86
112.76
96.82
69.28
33.63
-4.95
-41.49
-70.85
-87.51
-86.69
-68.09
-35.98
2.21
38.24
65.62
81.29
86.42
85.01
81.33
77.08
71.82
64.75
56.13
47.66
41.38
38.60
39.04
41.09
42.32
40.74
35.95
29.08
22.07
16.56
13.16
11.26
9.48
6.36
1.24
-5.35
-11.88
-16.27
-17.18
-14.18
-7.90
0.28
8.81
16.68
23.54
29.65
35.65
42.16
49.60
57.84
65.99
72.21
74.12
69.47
57.14
38.05
15.11
-7.58
-26.12
-38.12
-43.26
-42.89
-39.02
-33.60
-27.88
-22.52
-17.95
-14.67
-13.20
-13.82
-16.27
-19.82
-23.61
-26.84
-29.20
-30.75
-31.88
-32.99
-34.21
-35.21
-35.03
-32.77
-27.88
-20.52
-11.42
-1.71
7.39
14.96
20.56
24.26
26.45
27.62
28.17
28.29
27.98
27.13
25.60
23.37
20.52
17.20
13.51
9.56
5.37
1.00
-3.49
-8.12
-12.90
-17.76
-22.44
-26.45
-29.13
-29.92
-28.64
-25.66
-21.79
-17.95
-14.78
-12.39
-10.45
-8.43
-5.93
-2.93
0.36
3.62
6.60
9.21
11.41
13.17
14.36
14.78
14.14
12.34
9.46
5.80
1.79
-2.04
-5.19
-7.19
-7.70
-6.58
-3.86
0.20
5.17
10.54
15.81
20.54
24.32
26.90
28.07
27.82
26.22
23.49
19.91
15.74
11.20
6.42
1.54
-3.20
-7.44
-10.71
-12.55
-12.64
-10.94
-7.70
-3.44
1.23
5.78
9.86
13.35
16.20
18.36
19.66
20.02
19.56
18.71
18.02
17.91
18.31
18.68
18.34
17.03
15.20
13.80
13.81
15.44
17.92
19.69
19.07
15.02
7.46
-2.90
-15.06
-28.17
-41.77
-55.50
-68.77
-80.53
-89.41
-94.20
-94.25
-89.71
-81.43
-70.67
-58.74
-46.72
-35.53
-25.88
-18.39
-13.45
-11.20
-11.47
-13.97
-18.39
-24.53
-32.26
-41.40
-51.39
-61.37
-70.14
-76.54
-79.72
-79.39
-75.81
-69.56
-61.31
-51.46
-40.17
-27.39
-13.06
2.62
19.13
35.55
50.66
63.29
72.59
78.33
80.92
81.29
80.46
79.35
78.66
78.87
80.20
82.36
84.33
84.26
80.10
70.55
55.98
38.61
21.63
7.76
-2.10
-9.11
-15.53
-23.10
-31.99
-40.72
-47.30
-50.48
-50.42
-48.24
-44.98
-40.58
-33.66
-22.35
-5.51
16.45
41.50
66.80
89.74
108.73
123.29
133.58
139.79
141.81
139.44
132.77
122.65
110.60
98.39
87.28
77.63
68.91
60.18
50.67
40.16
29.01
17.85
7.25
-2.50
-11.30
-19.10
-25.68
-30.75
-34.13
-35.90
-36.48
-36.44
-36.27
-36.22
-36.28
-36.34
-36.36
-36.41
-36.56
-36.75
-36.69
-35.93
-34.15
-31.35
-28.02
-25.00
-23.15
-23.04
-24.77
-27.88
-31.60
-35.13
-37.91
-39.67
-40.43
-40.34
-39.61
-38.39
-36.73
-34.66
-32.16
-29.19
-25.75
-21.93
-17.90
-13.83
-9.85
-5.91
-1.89
2.41
7.15
12.27
17.51
22.44
26.64
29.82
31.94
33.19
33.74
33.64
32.68
30.46
26.64
21.12
14.21
6.50
-1.27
-8.52
-14.83
-19.95
-23.63
-25.58
-25.56
-23.55
-19.90
-15.30
-10.56
-6.33
-2.91
-0.25
1.88
3.64
4.96
5.62
5.42
4.42
2.99
1.68
0.91
0.76
0.98
1.16
1.01
0.59
0.22
0.29
1.01
2.22
3.58
4.70
5.43
5.83
6.17
6.74
7.71
9.11
10.76
12.45
13.87
14.78
15.02
14.59
13.64
12.37
10.86
8.98
6.47
3.12
-1.02
-5.59
-10.00
-13.73
-16.56
-18.64
-20.32
-21.88
-23.30
-24.33
-24.55
-23.70
-21.73
-18.89
-15.53
-11.93
-8.15
-4.10
0.33
5.13
10.03
14.54
18.17
20.60
21.88
22.43
22.84
23.55
24.66
25.87
26.63
26.51
25.43
23.79
22.25
21.45
21.74
23.01
24.80
26.54
27.82
28.54
28.81
28.85
28.73
28.32
27.26
25.12
21.61
16.64
10.34
2.91
-5.42
-14.40
-23.69
-32.75
-40.80
-47.03
-50.85
-52.19
-51.54
-49.83
-48.10
-47.11
-47.12
-47.92
-48.97
-49.71
-49.78
-49.10
-47.85
-46.30
-44.65
-42.93
-40.99
-38.67
-35.90
-32.74
-29.36
-25.93
-22.42
-18.71
-14.62
-10.17
-5.56
-1.20
2.56
5.52
7.80
9.80
11.90
14.35
17.08
19.78
22.00
23.41
23.91
23.69
23.12
22.55
22.12
21.65
20.77
19.10
16.55
13.42
10.32
7.90
6.48
5.97
5.85
5.53
4.68
3.46
2.41
2.17
3.08
4.97
7.29
9.24
10.33
10.45
10.01
9.65
9.94
11.00
12.42
13.38
12.97
10.59
6.24
0.52
-5.59
-11.07
-15.21
-17.71
-18.66
-18.49
-17.69
-16.78
-16.08
-15.69
-15.33
-14.42
-12.14
-7.79
-1.11
7.47
16.75
25.12
30.95
33.17
31.58
26.84
20.19
12.93
6.01
-0.22
-5.88
-11.24
-16.33
-20.85
-24.25
-26.08
-26.31
-25.49
-24.54
-24.45
-25.73
-28.22
-31.21
-33.71
-34.97
-34.86
-33.78
-32.48
-31.52
-30.97
-30.45
-29.25
-26.82
-22.97
-17.99
-12.40
-6.73
-1.34
3.54
7.74
10.94
12.78
13.05
11.89
9.85
7.77
6.36
5.93
6.26
6.71
6.61
5.66
4.07
2.40
1.15
0.51
0.26
-0.10
-1.02
-2.79
-5.22
-7.86
-10.25
-12.15
-13.63
-14.92
-16.17
-17.30
-18.03
-17.80
-16.17
-13.11
-9.21
-5.43
-2.65
-1.30
-1.00
-1.03
0.01
3.50
9.94
18.57
27.62
34.98
38.91
38.52
33.48
25.10
15.65
7.12
0.31
-5.25
-10.95
-18.57
-29.78
-46.38
-67.83
-91.54
-114.29
-133.87
-149.28
-160.74
-169.17
-175.45
-180.71
-183.27
-179.18
-164.33
-136.68
-96.71
-47.19
7.37
67.96
124.71
163.68
177.41
169.85
151.26
131.87
118.21
112.18
112.38
114.46
115.21
113.37
108.47
99.48
86.14
67.09
42.11
12.84
-19.24
-51.86
-82.70
-110.50
-135.66
-159.10
-176.36
-185.25
-185.65
-179.72
-168.89
-154.75
-132.59
-99.12
-55.20
-5.99
42.41
85.37
121.23
152.54
186.17
222.20
257.96
286.64
298.80
288.96
257.40
210.03
157.25
112.65
88.00
89.50
115.97
159.25
211.05
263.64
310.74
335.12
325.40
282.49
218.70
157.61
99.66
42.49
-14.43
-70.28
-120.91
-160.74
-186.43
-198.26
-199.97
-197.73
-193.94
-188.92
-182.25
-173.27
-160.34
-142.60
-120.78
-97.36
-76.37
-59.01
-45.23
-34.83
-27.76
-23.46
-21.47
-21.31
-22.18
-23.17
-21.58
-15.24
-4.11
9.74
23.42
34.22
40.06
39.54
31.38
15.56
-6.76
-32.76
-57.46
-74.33
-77.52
-64.56
-37.86
-4.76
25.33
43.93
45.60
29.47
-0.80
-38.72
-77.36
-110.83
-135.86
-151.17
-156.57
-153.49
-143.76
-128.87
-109.66
-86.67
-59.44
-28.12
7.07
45.07
81.61
110.66
126.97
128.14
114.96
92.10
64.34
36.64
12.72
-7.82
-27.86
-50.34
-76.86
-108.32
-143.40
-181.89
-222.58
-250.95
-254.75
-231.11
-188.70
-140.70
-106.24
-84.39
-71.51
-63.18
-54.52
-39.41
-14.15
23.91
75.36
134.64
188.56
220.84
224.14
203.14
167.68
126.87
86.98
54.92
30.48
15.33
10.03
14.10
24.55
36.04
43.47
42.67
35.74
28.61
29.51
43.12
69.50
103.87
139.24
168.95
189.20
199.30
199.85
192.83
179.90
163.74
147.59
135.44
129.96
131.82
139.41
149.55
159.64
167.47
172.97
170.66
158.05
135.70
106.85
75.03
42.71
12.61
-17.96
-50.58
-85.58
-121.67
-157.70
-188.66
-210.00
-217.45
-208.03
-183.93
-150.47
-115.30
-85.38
-65.64
-57.80
-61.29
-74.18
-94.69
-124.36
-163.78
-210.56
-258.29
-298.92
-326.18
-338.96
-341.53
-326.73
-293.74
-245.75
-188.00
-124.78
-59.25
4.52
60.88
105.13
136.42
155.42
165.14
168.95
168.54
164.02
155.39
144.98
134.80
127.26
121.80
116.04
108.29
97.57
84.62
71.48
60.67
54.06
52.59
54.80
58.02
61.70
65.30
68.72
71.71
73.87
74.52
72.97
68.32
59.40
48.59
37.30
26.56
16.29
5.82
-6.10
-20.76
-39.10
-62.35
-87.37
-112.35
-135.72
-156.44
-173.02
-184.07
-188.56
-176.61
-160.90
-139.92
-114.70
-86.50
-56.43
-24.06
11.61
50.84
92.50
132.78
170.34
201.72
223.88
228.04
209.41
171.32
123.96
78.57
42.46
22.12
17.61
26.05
42.64
62.10
79.11
89.35
90.25
80.09
60.82
34.60
3.67
-30.70
-67.73
-107.76
-151.99
-201.21
-254.11
-304.87
-345.23
-366.54
-362.81
-332.39
-278.61
-208.37
-129.89
-50.86
22.63
85.01
131.33
158.53
166.84
160.06
144.56
127.21
113.15
104.57
100.52
97.91
93.08
82.49
63.22
34.07
-2.90
-41.70
-73.50
-89.61
-85.20
-60.58
-22.28
18.31
48.73
59.70
48.11
17.72
-22.19
-59.65
-82.02
-80.53
-53.53
-6.43
51.39
110.85
166.27
216.12
252.76
269.29
262.98
236.09
193.87
142.94
90.64
43.78
6.49
-21.03
-40.67
-55.76
-68.76
-80.44
-90.19
-96.87
-99.70
-98.77
-95.21
-89.78
-80.72
-68.52
-54.87
-41.69
-30.67
-23.14
-19.96
-21.77
-28.15
-37.43
-48.21
-58.72
-66.89
-71.38
-72.28
-71.05
-70.08
-71.58
-76.51
-85.93
-100.44
-117.34
-133.42
-146.15
-154.43
-158.89
-164.75
-171.61
-177.98
-182.24
-183.10
-177.45
-164.81
-145.75
-121.26
-92.26
-58.78
-21.58
18.36
60.16
102.76
144.65
184.23
219.48
247.93
267.52
276.50
274.85
264.68
249.42
232.03
214.42
196.94
178.65
158.76
136.89
113.80
91.16
70.83
53.84
40.37
29.54
19.86
10.06
-0.54
-11.67
-22.23
-30.80
-36.40
-38.82
-38.85
-37.92
-37.46
-38.31
-40.42
-42.85
-44.35
-43.96
-41.35
-36.85
-31.10
-24.67
-17.85
-10.81
-3.76
2.78
8.06
11.49
12.83
12.48
11.31
10.38
10.54
12.18
15.15
18.86
22.47
25.09
26.01
24.80
21.40
16.13
9.65
2.85
-3.28
-7.88
-10.45
-10.94
-9.79
-7.68
-5.37
-3.40
-2.06
-1.56
-2.13
-4.15
-8.06
-14.03
-21.66
-29.77
-36.73
-40.99
-41.76
-39.37
-35.07
-30.40
-26.52
-23.72
-21.53
-19.17
-15.95
-11.63
-6.35
-0.40
6.00
12.74
19.84
27.24
34.80
42.25
49.28
55.56
60.88
65.17
68.67
71.88
75.41
79.68
84.68
89.90
94.55
97.92
99.77
100.38
100.33
100.06
99.50
98.05
94.71
88.50
78.64
64.71
46.70
25.08
0.90
-24.33
-48.78
-70.80
-89.18
-103.25
-112.89
-118.34
-120.11
-118.93
-115.76
-111.59
-107.42
-103.95
-101.60
-100.58
-100.99
-102.91
-106.39
-111.25
-116.89
-122.10
-125.23
-124.67
-119.84
-111.59
-101.94
-92.96
-85.42
-78.17
-68.60
-53.99
-33.03
-6.74
22.18
50.81
77.40
101.81
124.77
146.46
165.41
178.56
182.12
173.75
154.21
127.71
100.43
78.16
63.98
57.36
54.92
51.83
44.38
31.61
15.12
-2.59
-19.62
-35.13
-48.41
-57.83
-61.64
-58.78
-50.03
-39.01
-32.07
-36.53
-56.93
-91.94
-131.92
-163.86
-178.34
-173.53
-153.96
-127.17
-100.32
-78.31
-64.06
-54.43
-46.14
-36.15
-21.18
1.76
34.25
75.64
119.54
156.24
178.11
182.30
171.25
150.64
126.08
101.27
77.85
56.59
38.99
27.63
25.25
30.95
41.89
53.71
61.54
61.62
52.44
35.64
15.42
-3.69
-18.77
-28.95
-35.52
-40.82
-46.27
-52.45
-58.81
-64.03
-66.90
-67.14
-64.90
-60.44
-53.87
-45.26
-35.11
-24.16
-13.31
-3.16
5.35
11.65
15.79
18.29
19.63
19.71
18.12
14.73
10.95
8.12
7.84
11.63
20.06
32.14
44.97
55.18
60.56
62.23
61.87
61.53
62.98
66.67
71.29
73.22
68.11
52.69
27.39
-7.04
-48.96
-95.54
-138.42
-165.68
-168.88
-148.15
-120.65
-93.71
-70.81
-53.75
-39.58
-26.22
-10.18
10.73
40.92
81.35
128.94
174.65
208.98
226.35
225.12
206.34
171.88
119.37
49.17
-32.08
-115.26
-191.21
-254.02
-303.74
-327.45
-322.11
-292.08
-246.53
-194.66
-143.92
-98.34
-59.13
-26.05
1.92
23.31
36.78
42.65
43.07
40.61
37.63
35.83
36.10
38.84
42.06
43.86
43.52
41.51
38.75
36.05
33.87
32.43
32.03
31.79
31.18
30.29
29.67
29.88
31.17
33.39
36.39
40.20
44.43
48.94
53.51
57.87
61.02
61.46
57.67
48.75
34.89
17.26
-1.91
-20.53
-36.97
-50.63
-61.75
-70.98
-79.08
-86.78
-94.76
-103.23
-111.43
-116.86
-115.79
-104.60
-81.93
-50.08
-14.82
16.71
39.06
50.24
52.20
48.98
44.42
40.42
36.88
32.94
28.20
23.39
19.74
18.03
17.92
18.10
16.98
13.45
7.52
0.22
-6.85
-12.26
-15.27
-16.03
-15.39
-14.42
-13.85
-13.69
-13.48
-12.45
-10.04
-6.13
-1.15
4.17
9.08
13.14
16.37
18.99
21.38
23.69
25.78
27.27
27.74
27.00
25.23
22.98
20.90
19.61
19.39
20.11
21.49
23.19
25.08
27.27
30.04
33.64
38.06
42.91
47.44
51.02
53.16
53.76
53.13
51.77
50.29
49.26
49.23
50.50
52.76
54.73
54.21
48.73
36.63
18.09
-4.66
-27.96
-48.03
-62.32
-70.20
-72.66
-71.42
-68.02
-63.40
-58.09
-52.64
-47.82
-44.45
-42.87
-42.59
-42.27
-40.28
-35.34
-27.21
-16.84
-5.99
3.54
10.56
14.85
17.05
18.17
19.08
20.20
21.54
22.95
24.29
25.50
26.59
27.42
27.71
27.13
25.48
22.86
19.65
16.25
12.83
9.18
4.71
-1.21
-8.90
-18.01
-27.59
-36.30
-42.99
-47.12
-48.89
-49.06
-48.42
-47.40
-45.89
-43.45
-39.70
-34.65
-28.79
-22.87
-17.53
-12.99
-8.99
-5.06
-0.75
4.08
9.25
14.41
19.35
24.17
29.31
35.29
42.37
50.32
58.29
65.09
69.55
70.97
69.27
64.97
58.77
51.19
42.29
31.78
19.34
5.11
-10.14
-25.07
-38.28
-48.81
-56.45
-61.68
-65.21
-67.44
-68.13
-66.66
-62.45
-55.45
-46.30
-36.14
-26.06
-16.53
-7.31
2.33
13.07
25.01
37.47
49.12
58.43
64.18
65.87
63.83
59.11
53.14
47.18
41.96
37.32
32.38
25.96
17.21
6.10
-6.46
-18.96
-29.92
-38.56
-44.89
-49.46
-52.86
-55.23
-56.23
-55.33
-52.21
-47.07
-40.47
-33.06
-25.19
-16.83
-7.75
2.11
12.33
22.03
30.14
35.86
38.85
39.36
38.00
35.50
32.51
29.53
27.08
25.62
25.55
27.00
29.78
33.25
36.46
38.30
37.85
34.54
28.43
20.23
11.13
2.46
-4.73
-9.99
-13.35
-15.09
-15.39
-14.08
-10.73
-5.00
3.08
12.61
22.41
31.43
39.07
45.16
49.78
53.30
56.50
60.49
66.39
75.26
87.88
104.46
124.29
145.89
167.50
187.59
205.43
220.27
232.21
242.24
251.85
262.11
273.06
283.86
293.35
300.70
303.27
299.31
288.70
272.69
252.47
228.11
198.96
164.75
126.24
80.40
25.76
-35.70
-98.44
-156.28
-205.04
-243.04
-270.27
-287.60
-304.25
-328.23
-362.15
-402.23
-442.40
-478.76
-510.58
-539.10
-566.31
-604.18
-662.06
-741.10
-833.21
-926.85
-1013.36
-1088.52
-1151.43
-1139.83
-1016.85
-790.56
-513.91
-246.64
-23.20
148.99
277.18
372.39
444.16
489.19
503.99
491.27
461.68
428.26
400.23
381.02
370.58
366.34
357.38
335.25
299.01
256.02
216.67
188.38
174.08
172.29
178.63
182.81
176.11
154.72
119.97
76.63
27.96
-19.73
-57.94
-77.22
-74.21
-52.19
-19.32
14.74
41.80
57.26
61.35
57.49
49.74
39.52
26.31
9.56
-10.09
-30.47
-48.75
-62.55
-71.35
-76.17
-79.52
-83.61
-88.73
-93.93
-97.62
-98.50
-96.13
-91.46
-86.47
-83.45
-84.01
-87.85
-93.71
-99.81
-104.58
-106.84
-106.00
-101.52
-92.22
-80.61
-66.67
-50.03
-30.57
-8.79
14.05
37.00
59.32
81.01
102.75
126.24
152.51
181.56
212.29
242.93
272.25
299.68
325.61
351.11
377.95
407.74
441.98
481.74
526.40
573.95
618.80
653.27
670.07
665.66
641.58
603.83
560.12
514.92
471.79
429.30
384.84
337.16
287.62
239.15
194.36
154.03
114.04
75.54
37.29
-0.43
-36.19
-68.11
-95.12
-117.48
-136.59
-158.89
-180.93
-203.20
-225.06
-245.14
-262.04
-274.96
-284.05
-290.32
-301.25
-311.89
-323.18
-335.19
-347.20
-358.07
-366.65
-372.17
-336.80
-308.25
-280.56
-254.88
-231.94
-211.94
-194.64
-179.39
-165.60
-153.08
-148.27
-146.37
-148.72
-155.71
-166.76
-180.56
-195.38
-209.56
-222.07
-237.48
-252.77
-269.52
-288.83
-312.06
-341.14
-377.53
-420.58
-466.31
-510.62
-544.28
-561.57
-559.67
-540.37
-509.38
-473.15
-435.87
-398.09
-358.98
-316.76
-270.23
-218.04
-159.70
-96.15
-29.01
39.63
107.29
184.99
267.28
338.43
384.30
400.93
393.28
369.83
338.33
304.13
270.42
235.90
200.36
165.23
133.18
105.07
81.00
60.49
42.74
27.19
11.34
-5.46
-21.97
-36.17
-46.67
-52.54
-52.91
-50.34
-46.07
-42.04
-38.65
-34.90
-29.41
-21.53
-11.43
0.01
11.59
22.74
32.66
41.62
50.81
61.65
74.95
90.77
108.40
126.83
145.56
164.22
183.10
202.85
224.18
247.43
272.76
299.98
328.42
356.69
382.19
401.30
410.49
407.54
392.59
368.28
338.59
307.36
277.15
248.72
221.78
196.01
171.81
150.19
131.98
116.87
103.26
88.92
72.12
52.47
31.21
10.74
-6.64
-19.71
-28.91
-35.87
-42.45
-49.60
-57.11
-63.86
-68.58
-70.54
-69.98
-68.02
-66.27
-66.14
-68.33
-72.57
-77.67
-81.93
-83.39
-80.36
-71.90
-58.22
-40.03
-18.19
6.51
33.11
60.13
85.46
106.93
122.17
129.27
127.73
118.96
105.68
90.82
76.83
65.18
57.04
52.17
49.24
46.94
44.96
43.87
44.50
47.70
54.00
64.12
76.51
87.04
90.18
80.99
56.38
16.05
-37.34
-103.50
-172.62
-230.26
-265.82
-278.12
-273.02
-257.86
-237.90
-215.85
-193.00
-169.45
-146.54
-126.73
-111.85
-101.85
-95.08
-89.47
-83.28
-75.69
-66.03
-54.89
-44.02
-34.76
-27.30
-20.71
-13.89
-5.94
3.52
14.79
27.28
39.09
48.64
54.51
55.82
51.87
42.56
28.47
11.09
-7.28
-25.33
-42.00
-58.16
-73.47
-87.89
-100.80
-110.80
-115.65
-113.43
-103.59
-86.92
-66.12
-44.95
-27.77
-18.36
-19.18
-30.51
-47.90
-66.38
-78.44
-77.07
-58.97
-26.78
11.76
46.73
70.40
80.17
78.41
71.40
65.28
63.45
65.41
67.58
64.66
52.05
27.61
-6.75
-44.53
-76.83
-95.64
-97.14
-82.66
-57.57
-28.78
-2.45
17.53
29.97
35.73
37.40
38.80
44.24
57.01
77.91
102.78
124.40
136.46
136.60
127.21
113.21
98.16
82.39
63.63
39.47
10.35
-19.27
-44.30
-60.69
-67.94
-69.56
-71.09
-76.49
-85.91
-95.75
-100.81
-98.07
-89.07
-78.97
-72.96
-72.92
-75.85
-76.09
-70.31
-58.90
-45.30
-36.15
-36.89
-49.16
-70.62
-96.50
-123.45
-152.52
-185.02
-219.16
-250.02
-270.91
-276.62
-266.48
-243.69
-214.12
-186.00
-162.76
-142.98
-124.81
-108.04
-94.36
-85.97
-81.76
-77.77
-72.06
-59.71
-36.18
-1.67
40.34
86.07
122.53
139.82
156.32
185.29
226.80
279.82
338.55
394.58
441.06
475.21
500.14
521.54
541.40
565.44
597.26
633.39
664.65
680.39
672.33
638.35
581.64
477.08
323.48
144.51
-25.63
-162.72
-260.87
-326.69
-368.53
-392.72
-404.50
-402.17
-383.60
-350.86
-310.05
-269.14
-236.37
-217.44
-213.83
-221.78
-227.57
-217.68
-186.00
-135.84
-77.46
-23.50
16.86
39.92
47.31
41.38
30.66
20.05
9.91
1.36
-6.95
-12.64
-11.89
-2.47
15.24
36.88
54.13
58.94
48.27
25.63
0.41
-17.12
-20.44
-9.88
8.31
22.44
21.11
-1.71
-44.60
-99.31
-154.85
-201.07
-230.95
-240.57
-229.43
-199.36
-154.19
-99.86
-43.74
6.06
42.66
62.42
66.31
59.27
48.74
42.17
44.20
54.96
69.86
81.38
82.29
68.74
41.70
6.43
-30.00
-61.66
-85.62
-101.90
-111.75
-115.87
-113.62
-103.92
-86.95
-65.50
-44.49
-29.03
-21.77
-21.62
-24.45
-25.50
-22.06
-14.76
-6.79
-1.73
-1.26
-4.14
-7.15
-7.11
-2.68
5.23
14.61
23.89
33.10
43.51
56.38
71.81
88.45
104.13
116.82
125.30
129.17
128.64
124.22
116.79
107.79
98.96
91.82
86.91
83.55
80.20
75.39
68.55
60.10
50.96
41.91
33.24
24.87
16.76
9.17
2.67
-2.19
-5.14
-6.36
-6.36
-5.68
-4.44
-2.35
1.16
6.50
13.48
21.00
27.11
29.50
26.24
16.50
1.03
-18.02
-37.83
-55.87
-70.76
-82.46
-91.67
-98.95
-104.14
-106.62
-106.21
-104.18
-103.36
-107.06
-117.17
-132.68
-149.75
-163.21
-169.24
-167.07
-159.37
-150.44
-143.52
-139.01
-134.13
-124.61
-106.91
-80.08
-46.17
-9.45
25.48
55.23
78.48
95.89
109.14
119.90
129.08
136.67
142.38
146.21
148.76
150.95
153.28
155.25
155.37
151.92
144.07
132.46
118.88
105.20
92.14
79.10
64.64
47.92
29.78
12.75
0.01
-6.11
-5.31
0.63
8.84
16.53
21.99
24.53
24.04
20.55
13.97
4.47
-7.27
-20.10
-32.70
-44.18
-54.33
-63.51
-72.31
-81.28
-90.78
-100.80
-110.55
-118.25
-121.20
-116.38
-101.90
-78.21
-48.74
-19.11
4.81
18.86
21.89
15.87
4.60
-7.70
-17.71
-23.66
-24.99
-21.89
-14.97
-5.19
5.96
16.30
23.18
24.31
18.71
7.46
-6.57
-19.80
-29.76
-35.68
-38.73
-40.61
-41.94
-41.86
-38.69
-31.57
-21.68
-12.74
-8.43
-10.84
-18.69
-28.03
-34.15
-33.70
-25.99
-12.12
6.05
28.50
53.21
76.72
94.74
104.06
103.14
91.47
74.60
52.92
27.75
1.74
-21.53
-38.90
-49.55
-53.25
-51.42
-46.21
-39.87
-32.69
-24.05
-13.09
0.10
14.44
28.40
40.61
50.57
58.23
64.60
70.35
75.57
79.68
81.93
81.89
79.53
75.23
69.21
62.07
54.09
45.36
35.94
26.14
16.65
8.35
2.04
-1.96
-3.80
-4.25
-4.62
-6.33
-10.24
-16.22
-23.29
-29.90
-34.35
-35.12
-31.53
-24.05
-14.30
-4.58
3.09
7.24
7.23
3.52
-2.35
-8.28
-12.20
-12.47
-8.08
1.35
14.89
30.21
44.58
56.28
65.05
71.81
77.92
84.39
91.37
97.14
98.36
91.32
73.75
45.24
6.83
-39.50
-91.22
-141.48
-179.99
-198.90
-198.16
-184.09
-163.91
-142.22
-121.01
-100.73
-81.20
-62.90
-47.14
-35.35
-27.76
-23.55
-21.41
-20.09
-18.47
-15.35
-10.28
-3.75
3.11
9.52
15.08
19.71
23.49
26.37
29.17
31.79
33.27
31.99
26.56
16.37
1.64
-16.64
-37.68
-60.34
-82.73
-101.76
-113.28
-113.27
-99.96
-75.18
-44.82
-16.62
3.33
13.04
14.87
13.22
12.44
14.89
21.48
31.40
43.56
57.65
73.79
91.62
109.72
125.97
137.97
145.45
149.04
150.31
151.27
153.81
158.85
166.37
175.38
178.54
174.85
163.43
143.45
115.00
79.82
40.65
0.46
-38.39
-76.34
-112.62
-146.00
-174.61
-196.16
-208.84
-212.20
-207.43
-191.16
-168.30
-142.61
-116.83
-92.45
-70.18
-50.31
-33.13
-18.99
-8.16
-1.62
1.70
3.06
3.75
4.87
6.97
10.14
13.89
17.46
19.34
19.66
19.23
19.26
21.12
25.63
32.87
42.01
51.50
59.14
63.78
65.43
64.70
62.64
59.75
55.72
49.63
40.43
27.57
11.66
-5.65
-22.65
-37.97
-50.96
-60.79
-66.13
-65.55
-58.97
-48.73
-39.36
-36.51
-42.20
-55.38
-71.50
-84.62
-90.07
-86.27
-74.78
-58.56
-40.42
-21.72
-3.47
12.95
25.28
30.64
26.70
12.64
-9.83
-36.89
-62.15
-78.65
-80.84
-66.92
-40.01
-7.37
22.44
43.06
52.32
52.66
48.68
44.43
41.64
39.55
36.49
31.54
25.39
19.71
16.05
14.75
14.77
14.47
12.17
7.12
-0.34
-9.10
-17.70
-24.81
-29.49
-31.41
-30.47
-26.68
-20.11
-10.98
0.23
12.89
26.27
39.83
52.97
65.11
75.45
82.98
86.58
85.36
79.53
70.32
60.12
51.42
46.00
44.48
46.48
51.23
57.83
65.25
70.58
71.25
63.99
46.56
19.56
-13.13
-45.49
-71.74
-88.20
-94.18
-91.03
-81.58
-68.80
-55.60
-44.98
-39.35
-40.64
-49.34
-64.47
-83.03
-100.84
-112.84
-113.54
-99.35
-71.20
-35.86
-4.56
11.58
7.65
-12.16
-36.00
-50.28
-46.68
-26.46
1.06
24.00
33.18
27.83
13.99
-0.72
-11.84
-18.68
-25.13
-34.13
-45.68
-57.09
-64.73
-66.34
-62.53
-56.21
-50.78
-48.96
-51.35
-56.62
-62.33
-66.03
-66.58
-64.53
-61.65
-59.14
-57.76
-57.09
-55.87
-52.48
-45.37
-33.40
-15.47
4.77
25.90
47.31
69.39
93.14
119.69
149.43
181.04
211.07
234.45
246.84
245.57
231.09
206.93
178.25
149.94
125.02
104.23
86.74
72.01
59.87
50.67
44.66
41.30
39.23
36.74
32.57
26.46
19.50
13.19
8.61
5.87
4.05
1.64
-2.72
-9.58
-18.51
-28.16
-37.01
-43.97
-48.56
-50.93
-51.53
-50.76
-48.78
-45.51
-40.77
-34.55
-27.19
-19.38
-12.02
-5.86
-1.35
1.50
2.94
3.30
2.77
1.45
-0.52
-2.68
-4.24
-4.31
-2.35
1.58
6.64
11.59
15.32
17.37
18.06
18.20
18.54
19.34
20.28
20.70
20.10
18.55
16.67
15.31
15.09
16.05
17.57
18.77
18.92
17.92
16.32
14.99
14.67
15.54
17.09
18.38
18.50
17.11
14.53
11.63
9.29
8.01
7.72
7.98
8.32
8.61
9.16
10.37
12.37
14.67
16.21
15.79
12.63
6.89
-0.32
-7.33
-12.63
-15.42
-15.88
-14.85
-13.29
-11.70
-9.94
-7.45
-3.81
0.71
5.07
7.87
8.00
5.32
0.74
-4.26
-8.52
-11.88
-15.28
-20.24
-27.90
-38.25
-50.03
-61.27
-70.16
-75.78
-78.34
-78.75
-77.98
-76.37
-73.50
-68.46
-60.47
-49.46
-36.38
-22.97
-11.28
-2.98
1.21
1.65
-0.47
-3.63
-6.55
-8.57
-9.70
-10.34
-10.93
-11.74
-12.86
-14.33
-16.43
-19.67
-24.60
-31.28
-38.92
-45.88
-50.11
-49.97
-44.96
-36.04
-25.38
-15.52
-8.43
-4.92
-4.58
-6.17
-8.35
-10.14
-11.03
-10.81
-9.32
-6.36
-1.83
4.02
10.46
16.41
20.77
22.82
22.48
20.25
16.98
13.60
10.82
9.13
8.70
9.55
11.53
14.38
17.70
21.01
23.81
25.64
26.22
25.50
23.79
21.62
19.67
18.45
18.16
18.54
18.95
18.66
17.22
14.65
11.48
8.46
6.18
4.68
3.45
1.69
-1.19
-5.14
-9.44
-13.02
-15.09
-15.53
-15.01
-14.51
-14.78
-15.86
-17.15
-17.84
-17.39
-15.98
-14.25
-12.96
-12.37
-11.99
-10.80
-7.70
-2.09
5.83
15.15
24.57
32.98
39.76
44.88
48.76
51.84
54.35
56.19
57.08
56.85
55.71
54.16
52.81
51.93
51.18
49.79
46.92
42.18
35.93
29.02
22.32
16.20
10.27
3.72
-4.14
-13.30
-23.00
-32.00
-39.18
-44.01
-46.62
-47.56
-47.32
-46.00
-43.38
-39.17
-33.34
-26.43
-19.48
-13.63
-9.74
-7.97
-7.80
-8.31
-8.59
-8.19
-7.27
-6.41
-6.34
-7.44
-9.60
-12.20
-14.45
-15.77
-16.07
-15.76
-15.51
-15.78
-16.54
-17.31
-17.33
-16.07
-13.51
-10.16
-6.88
-4.42
-3.14
-3.00
-3.64
-4.70
-6.01
-7.58
-9.50
-11.69
-13.80
-15.20
-15.22
-13.42
-9.81
-4.97
0.19
4.75
8.12
10.22
11.40
12.17
12.87
13.58
14.05
14.03
13.48
12.61
11.83
11.44
11.45
11.47
11.00
9.69
7.68
5.59
4.24
4.22
5.51
7.41
8.82
8.76
6.82
3.34
-0.74
-4.38
-6.91
-8.27
-8.98
-9.66
-10.66
-11.87
-12.77
-12.75
-11.52
-9.21
-6.34
-3.53
-1.19
0.60
1.96
3.02
3.84
4.28
4.23
3.69
2.93
2.39
2.50
3.47
5.09
6.81
7.89
7.75
6.30
3.97
1.63
0.25
0.47
2.37
5.37
8.54
10.92
11.83
10.98
8.47
4.56
-0.40
-6.10
-12.13
-17.98
-23.05
-26.80
-28.91
-29.46
-28.75
-27.26
-25.33
-23.06
-20.39
-17.19
-13.45
-9.41
-5.51
-2.35
-0.46
-0.17
-1.45
-3.96
-7.09
-10.14
-12.55
-14.09
-14.86
-15.13
-15.17
-15.12
-15.04
-15.00
-15.16
-15.84
-17.36
-19.88
-23.22
-26.96
-30.59
-33.78
-36.56
-39.25
-42.27
-45.80
-49.75
-53.73
-57.32
-60.40
-63.36
-66.95
-71.79
-77.78
-83.70
-87.59
-87.35
-81.85
-71.64
-58.89
-46.35
-35.79
-26.79
-16.89
-2.92
17.28
44.17
76.35
111.19
145.20
174.07
192.63
195.25
177.24
136.85
77.15
5.48
-68.98
-138.51
-198.68
-247.90
-285.43
-309.32
-315.90
-300.40
-259.64
-194.14
-109.28
-14.25
80.18
163.52
227.10
265.16
276.84
266.16
241.08
211.04
184.80
169.02
167.26
179.53
196.61
206.77
200.96
178.96
148.02
116.56
89.96
69.59
53.56
38.15
21.23
3.40
-12.53
-23.71
-29.26
-30.90
-32.55
-37.11
-45.65
-56.19
-64.99
-68.53
-65.70
-58.42
-50.62
-46.02
-46.43
-51.58
-59.14
-66.22
-71.09
-74.23
-76.65
-80.53
-87.36
-97.04
-108.46
-119.61
-128.21
-132.27
-130.30
-121.63
-106.30
-84.64
-57.12
-25.20
9.20
43.97
77.22
107.44
132.86
151.33
160.85
160.32
149.26
128.59
100.73
69.01
36.79
5.55
-25.21
-58.09
-91.91
-122.69
-145.68
-157.97
-161.61
-157.49
-145.95
-126.89
-99.68
-62.96
-18.46
29.58
75.56
114.49
143.95
163.51
174.01
176.28
170.60
156.31
133.36
103.48
70.46
39.27
13.67
-4.90
-17.16
-24.71
-29.15
-31.17
-30.68
-27.52
-21.79
-14.23
-5.83
2.65
10.92
18.71
25.71
31.52
35.81
38.68
40.43
41.43
41.78
41.29
39.48
36.00
30.96
24.93
18.75
13.16
8.52
4.82
1.80
-0.90
