1605177819.00
64.000000
-0.00
-0.00
-0.00
-0.00
-0.00
-0.00
-0.00
-0.00
-0.00
-0.00
0.00
0.01
0.01
-0.00
-0.03
-0.05
-0.05
0.00
0.13
0.36
0.66
1.01
1.37
1.72
2.06
2.40
2.79
3.25
3.81
4.44
5.09
5.73
6.33
6.92
7.55
8.28
9.13
10.19
11.34
12.50
13.55
14.48
15.38
16.40
17.76
19.57
22.01
24.88
27.91
30.84
33.56
36.19
39.05
42.55
46.95
52.56
58.98
65.73
72.32
78.54
84.56
90.90
98.20
106.80
117.05
128.35
139.95
151.17
161.77
172.04
182.69
194.89
206.98
220.82
236.76
254.98
274.64
293.37
307.33
312.03
303.83
281.23
245.97
201.46
152.08
101.57
52.19
4.85
-40.36
-83.41
-124.21
-162.53
-199.13
-235.27
-272.28
-310.42
-348.10
-381.74
-406.64
-418.86
-416.57
-401.04
-376.18
-346.94
-317.56
-290.36
-265.68
-242.78
-220.88
-199.79
-179.99
-162.04
-146.02
-131.44
-117.48
-103.50
-89.36
-75.53
-62.73
-51.63
-42.49
-35.03
-28.61
-22.54
-16.34
-9.95
-3.65
2.09
6.88
10.57
13.26
15.30
17.08
18.87
20.76
22.61
24.17
25.24
25.72
25.71
25.41
25.09
24.90
24.90
24.99
25.00
24.82
24.37
23.69
22.87
21.98
21.07
20.13
19.13
18.06
16.96
15.89
14.98
14.34
14.04
14.10
14.44
14.92
15.36
15.59
15.58
15.39
15.19
15.06
15.03
14.97
14.71
14.13
13.26
12.25
11.27
10.47
9.92
9.62
9.52
9.61
9.85
10.17
10.46
10.57
10.35
9.77
8.93
7.96
7.05
6.30
5.75
5.34
4.99
4.61
4.15
3.62
3.07
2.58
2.22
1.99
1.88
1.83
1.76
1.60
1.31
0.89
0.36
-0.19
-0.70
-1.09
-1.35
-1.51
-1.65
-1.83
-2.11
-2.50
-2.93
-3.34
-3.67
-3.89
-3.99
-4.02
-4.01
-4.01
-4.05
-4.21
-4.52
-4.98
-5.53
-6.06
-6.42
-6.52
-6.38
-6.07
-5.72
-5.43
-5.21
-4.99
-4.70
-4.28
-3.74
-3.15
-2.59
-2.09
-1.66
-1.26
-0.91
-0.64
-0.46
-0.38
-0.33
-0.19
0.11
0.60
1.18
1.75
2.18
2.45
2.59
2.69
2.82
2.96
3.09
3.18
3.21
3.19
3.19
3.24
3.34
3.48
3.63
3.75
3.80
3.77
3.68
3.57
3.53
3.61
3.81
4.08
4.30
4.40
4.35
4.24
4.19
4.30
4.57
4.90
5.14
5.16
4.93
4.51
4.04
3.66
3.42
3.35
3.40
3.51
3.62
3.68
3.64
3.48
3.21
2.89
2.57
2.36
2.29
2.37
2.53
2.66
2.68
2.54
2.26
1.94
1.70
1.64
1.73
1.90
2.03
2.02
1.84
1.60
1.41
1.38
1.52
1.74
1.91
1.92
1.75
1.50
1.29
1.23
1.34
1.54
1.71
1.75
1.63
1.39
1.14
0.94
0.83
0.77
0.74
0.73
0.71
0.71
0.72
0.76
0.80
0.84
0.86
0.83
0.71
0.52
0.30
0.15
0.15
0.33
0.64
0.98
1.22
1.29
1.22
1.08
0.96
0.87
0.80
0.70
0.56
0.42
0.35
0.38
0.51
0.68
0.80
0.80
0.69
0.52
0.37
0.29
0.33
0.47
0.66
0.85
1.00
1.10
1.13
1.09
0.99
0.86
0.74
0.64
0.58
0.54
0.50
0.46
0.44
0.46
0.51
0.53
0.49
0.36
0.15
-0.06
-0.19
-0.18
-0.01
0.30
0.72
1.17
1.59
1.86
1.94
1.81
1.56
1.29
1.12
1.05
1.03
0.95
0.73
0.40
0.01
-0.33
-0.56
-0.69
-0.75
-0.73
-0.62
-0.37
0.01
0.45
0.83
1.04
1.03
0.84
0.56
0.33
0.22
0.26
0.41
0.62
0.83
1.00
1.12
1.20
1.22
1.19
1.13
1.03
0.91
0.80
0.70
0.59
0.44
0.22
-0.09
-0.43
-0.73
-0.90
-0.90
-0.75
-0.52
-0.31
-0.17
-0.12
-0.12
-0.13
-0.12
-0.07
0.03
0.19
0.41
0.68
0.94
1.09
1.06
0.87
0.60
0.39
0.35
0.46
0.61
0.68
0.59
0.39
0.22
0.21
0.40
0.71
1.00
1.12
1.04
0.82
0.59
0.44
0.39
0.38
0.35
0.26
0.11
-0.03
-0.10
-0.07
0.02
0.11
0.16
0.18
0.22
0.31
0.45
0.55
0.53
0.32
-0.08
-0.54
-0.91
-1.09
-1.04
-0.85
-0.64
-0.49
-0.42
-0.33
-0.13
0.21
0.62
0.98
1.14
1.05
0.76
0.41
0.12
-0.06
-0.14
-0.22
-0.35
-0.55
-0.72
-0.76
-0.58
-0.18
0.33
0.80
1.06
1.05
0.80
0.42
0.09
-0.06
0.03
0.27
0.55
0.75
0.84
0.83
0.80
0.78
0.74
0.63
0.38
-0.02
-0.49
-0.89
-1.11
-1.10
-0.92
-0.68
-0.48
-0.37
-0.33
-0.28
-0.17
0.01
0.21
0.39
0.51
0.61
0.69
0.77
0.83
0.84
0.76
0.58
0.34
0.10
-0.08
-0.18
-0.18
-0.11
-0.03
0.00
-0.06
-0.21
-0.39
-0.53
-0.62
-0.65
-0.70
-0.80
-0.98
-1.18
-1.33
-1.38
-1.29
-1.10
-0.87
-0.67
-0.56
-0.55
-0.59
-0.66
-0.70
-0.65
-0.49
-0.25
0.04
0.28
0.42
0.44
0.38
0.29
0.25
0.30
0.44
0.63
0.80
0.90
0.93
0.94
0.98
1.08
1.21
1.33
1.39
1.39
1.34
1.31
1.32
1.36
1.37
1.28
1.05
0.73
0.38
0.14
0.07
0.17
0.40
0.63
0.79
0.84
0.82
0.75
0.68
0.62
0.57
0.54
0.52
0.50
0.46
0.37
0.23
0.05
-0.12
-0.24
-0.32
-0.35
-0.39
-0.46
-0.57
-0.66
-0.70
-0.65
-0.51
-0.34
-0.20
-0.13
-0.14
-0.20
-0.25
-0.28
-0.27
-0.27
-0.29
-0.31
-0.28
-0.15
0.08
0.34
0.52
0.54
0.38
0.11
-0.18
-0.42
-0.58
-0.67
-0.72
-0.72
-0.67
-0.57
-0.43
-0.31
-0.27
-0.30
-0.39
-0.46
-0.46
-0.40
-0.33
-0.34
-0.49
-0.78
-1.13
-1.41
-1.52
-1.43
-1.19
-0.92
-0.76
-0.82
-1.15
-1.68
-2.30
-2.86
-3.21
-3.28
-3.10
-2.74
-2.39
-2.17
-2.21
-2.49
-2.91
-3.32
-3.58
-3.65
-3.65
-3.73
-4.08
-4.79
-5.81
-6.99
-8.12
-9.08
-9.88
-10.63
-11.52
-12.70
-14.18
-15.84
-17.48
-18.90
-20.01
-20.93
-21.92
-23.30
-25.24
-27.69
-30.37
-32.90
-34.93
-36.34
-37.22
-37.78
-38.28
-39.10
-40.75
-43.85
-48.80
-55.23
-61.72
-65.95
-65.37
-58.24
-44.39
-25.31
-3.62
17.93
37.27
53.35
65.93
75.18
81.28
84.35
84.58
82.40
78.47
73.65
68.73
64.35
60.86
58.32
56.63
55.61
55.09
54.82
54.31
52.76
49.20
42.84
33.48
21.78
9.10
-2.91
-12.89
-20.15
-24.72
-27.10
-27.97
-27.93
-27.44
-26.94
-26.86
-27.59
-29.31
-31.82
-34.45
-36.19
-35.89
-32.62
-26.09
-16.79
-6.01
4.58
13.37
19.35
22.34
22.88
21.86
20.15
18.27
16.40
14.57
12.86
11.49
10.71
10.65
11.16
11.83
12.18
11.80
10.59
8.74
6.64
4.71
3.18
2.08
1.20
0.28
-0.82
-2.10
-3.36
-4.30
-4.73
-4.58
-3.99
-3.24
-2.59
-2.19
-2.03
-2.01
-2.00
-1.92
-1.80
-1.70
-1.67
-1.67
-1.63
-1.47
-1.19
-0.86
-0.61
-0.50
-0.54
-0.67
-0.81
-0.94
-1.07
-1.20
-1.31
-1.33
-1.18
-0.84
-0.38
0.10
0.49
0.77
0.95
1.10
1.20
1.19
1.02
0.66
0.17
-0.34
-0.80
-1.19
-1.54
-1.89
-2.22
-2.48
-2.58
-2.48
-2.18
-1.76
-1.31
-0.89
-0.55
-0.33
-0.25
-0.30
-0.43
-0.60
-0.72
-0.77
-0.76
-0.71
-0.64
-0.57
-0.44
-0.21
0.14
0.59
1.03
1.38
1.57
1.59
1.52
1.42
1.36
1.30
1.20
1.00
0.73
0.46
0.28
0.27
0.44
0.71
0.95
1.04
0.91
0.60
0.19
-0.16
-0.37
-0.39
-0.25
-0.05
0.13
0.21
0.18
0.08
-0.05
-0.19
-0.32
-0.44
-0.56
-0.64
-0.67
-0.62
-0.55
-0.51
-0.60
-0.83
-1.18
-1.51
-1.69
-1.64
-1.36
-0.98
-0.67
-0.52
-0.55
-0.67
-0.76
-0.73
-0.53
-0.24
0.08
0.34
0.50
0.54
0.49
0.38
0.30
0.31
0.44
0.63
0.78
0.80
0.61
0.29
-0.05
-0.24
-0.21
0.05
0.40
0.70
0.83
0.75
0.54
0.28
0.06
-0.10
-0.23
-0.38
-0.60
-0.85
-1.03
-1.04
-0.82
-0.39
0.11
0.53
0.75
0.73
0.50
0.19
-0.10
-0.31
-0.42
-0.47
-0.50
-0.53
-0.54
-0.46
-0.26
0.07
0.48
0.85
1.09
1.12
0.95
0.69
0.42
0.24
0.16
0.15
0.13
0.11
0.11
0.20
0.42
0.72
0.97
1.06
0.90
0.56
0.18
-0.09
-0.19
-0.16
-0.15
-0.26
-0.56
-0.98
-1.42
-1.81
-2.10
-2.33
-2.50
-2.55
-2.42
-2.03
-1.38
-0.59
0.14
0.65
0.82
0.72
0.49
0.33
0.37
0.63
1.00
1.34
1.57
1.70
1.81
1.96
2.12
2.19
2.05
1.63
1.04
0.46
0.08
0.02
0.26
0.70
1.20
1.64
1.94
2.04
1.92
1.62
1.19
0.75
0.37
0.13
0.02
-0.02
-0.03
-0.06
-0.10
-0.17
-0.24
-0.31
-0.39
-0.45
-0.47
-0.42
-0.31
-0.18
-0.10
-0.11
-0.23
-0.37
-0.44
-0.37
-0.18
0.04
0.15
0.10
-0.09
-0.31
-0.46
-0.51
-0.51
-0.54
-0.65
-0.82
-0.96
-1.00
-0.90
-0.73
-0.58
-0.53
-0.60
-0.75
-0.88
-0.92
-0.87
-0.77
-0.68
-0.68
-0.78
-0.97
-1.20
-1.41
-1.51
-1.42
-1.07
-0.47
0.30
1.10
1.74
2.10
2.19
2.09
1.97
1.95
2.06
2.24
2.37
2.36
2.19
1.93
1.69
1.53
1.47
1.47
1.40
1.20
0.86
0.47
0.18
0.12
0.35
0.77
1.19
1.42
1.35
1.03
0.64
0.39
0.40
0.63
0.93
1.12
1.08
0.81
0.44
0.10
-0.10
-0.16
-0.19
-0.29
-0.53
-0.88
-1.24
-1.49
-1.55
-1.42
-1.20
-0.96
-0.76
-0.60
-0.42
-0.21
0.01
0.18
0.26
0.24
0.21
0.27
0.48
0.80
1.08
1.19
1.00
0.53
-0.11
-0.75
-1.25
-1.54
-1.65
-1.64
-1.60
-1.60
-1.62
-1.64
-1.62
-1.54
-1.38
-1.16
-0.90
-0.64
-0.40
-0.26
-0.25
-0.41
-0.69
-1.04
-1.32
-1.44
-1.35
-1.09
-0.73
-0.38
-0.10
0.11
0.27
0.42
0.58
0.75
0.90
1.02
1.08
1.10
1.12
1.13
1.12
1.09
1.04
1.01
1.04
1.18
1.40
1.61
1.66
1.47
1.01
0.40
-0.16
-0.49
-0.51
-0.29
-0.01
0.12
-0.02
-0.40
-0.85
-1.16
-1.19
-0.97
-0.62
-0.34
-0.23
-0.24
-0.22
-0.01
0.41
0.97
1.48
1.75
1.73
1.43
1.01
0.59
0.26
0.04
-0.08
-0.12
-0.07
0.05
0.22
0.40
0.54
0.63
0.65
0.63
0.55
0.40
0.16
-0.18
-0.54
-0.83
-0.96
-0.88
-0.62
-0.25
0.11
0.37
0.50
0.49
0.41
0.31
0.23
0.20
0.22
0.29
0.38
0.48
0.59
0.72
0.90
1.10
1.27
1.33
1.20
0.83
0.29
-0.28
-0.72
-0.93
-0.92
-0.78
-0.69
-0.75
-0.93
-1.13
-1.17
-0.97
-0.55
-0.08
0.27
0.36
0.20
-0.11
-0.43
-0.65
-0.74
-0.74
-0.69
-0.62
-0.53
-0.41
-0.29
-0.21
-0.22
-0.34
-0.52
-0.68
-0.72
-0.58
-0.27
0.15
0.56
0.85
0.96
0.86
0.60
0.27
-0.03
-0.24
-0.36
-0.42
-0.48
-0.59
-0.75
-0.89
-0.94
-0.84
-0.59
-0.27
0.01
0.16
0.17
0.05
-0.11
-0.23
-0.29
-0.26
-0.18
-0.09
-0.05
-0.06
-0.13
-0.20
-0.23
-0.20
-0.12
-0.03
0.02
0.01
-0.03
-0.06
-0.07
-0.04
-0.02
-0.01
0.01
0.09
0.26
0.51
0.76
0.92
0.95
0.85
0.69
0.60
0.65
0.83
1.07
1.27
1.35
1.31
1.20
1.11
1.10
1.17
1.29
1.35
1.25
0.94
0.44
-0.15
-0.65
-0.93
-0.92
-0.66
-0.31
-0.04
0.04
-0.08
-0.28
-0.43
-0.44
-0.30
-0.11
0.02
0.05
-0.04
-0.17
-0.30
-0.37
-0.40
-0.41
-0.44
-0.49
-0.52
-0.52
-0.46
-0.40
-0.38
-0.48
-0.70
-0.99
-1.28
-1.47
-1.48
-1.28
-0.90
-0.44
0.00
0.30
0.39
0.26
-0.02
-0.34
-0.60
-0.74
-0.77
-0.73
-0.68
-0.64
-0.60
-0.57
-0.60
-0.73
-1.00
-1.36
-1.71
-1.90
-1.84
-1.52
-1.04
-0.54
-0.13
0.13
0.27
0.36
0.45
0.54
0.59
0.57
0.49
0.41
0.42
0.57
0.82
1.08
1.24
1.21
1.01
0.74
0.54
0.52
0.68
0.95
1.22
1.41
1.50
1.55
1.60
1.68
1.71
1.63
1.34
0.83
0.16
-0.58
-1.26
-1.81
-2.16
-2.29
-2.21
-1.96
-1.62
-1.28
-1.05
-0.98
-1.09
-1.29
-1.49
-1.58
-1.55
-1.45
-1.37
-1.39
-1.50
-1.65
-1.76
-1.78
-1.74
-1.70
-1.70
-1.75
-1.81
-1.83
-1.81
-1.77
-1.75
-1.73
-1.63
-1.33
-0.72
0.23
1.44
2.73
3.87
4.67
5.03
5.00
4.68
4.25
3.85
3.51
3.22
2.92
2.55
2.13
1.68
1.28
0.96
0.71
0.51
0.32
0.12
-0.09
-0.24
-0.30
-0.24
-0.13
-0.03
-0.01
-0.09
-0.21
-0.30
-0.31
-0.30
-0.34
-0.53
-0.86
-1.25
-1.59
-1.79
-1.84
-1.80
-1.75
-1.76
-1.85
-2.01
-2.18
-2.32
-2.38
-2.32
-2.13
-1.84
-1.49
-1.13
-0.78
-0.41
-0.02
0.40
0.77
1.01
1.11
1.08
0.97
0.87
0.83
0.85
0.93
1.08
1.28
1.55
1.85
2.10
2.21
2.10
1.77
1.27
0.72
0.23
-0.09
-0.22
-0.19
-0.07
0.08
0.22
0.39
0.62
0.91
1.23
1.48
1.61
1.59
1.49
1.39
1.32
1.27
1.14
0.88
0.49
0.05
-0.30
-0.43
-0.32
-0.06
0.21
0.35
0.29
0.02
-0.36
-0.74
-1.00
-1.08
-0.99
-0.79
-0.58
-0.42
-0.31
-0.19
-0.02
0.15
0.26
0.21
-0.04
-0.41
-0.73
-0.87
-0.77
-0.50
-0.20
0.05
0.24
0.42
0.66
0.95
1.23
1.38
1.32
1.07
0.68
0.27
-0.10
-0.38
-0.56
-0.66
-0.70
-0.71
-0.71
-0.75
-0.82
-0.87
-0.84
-0.70
-0.45
-0.16
0.08
0.21
0.23
0.17
0.06
-0.09
-0.27
-0.46
-0.62
-0.65
-0.49
-0.16
0.23
0.50
0.54
0.30
-0.11
-0.52
-0.79
-0.86
-0.73
-0.47
-0.14
0.20
0.51
0.75
0.85
0.79
0.58
0.28
-0.03
-0.27
-0.39
-0.37
-0.22
0.02
0.29
0.48
0.51
0.32
-0.02
-0.38
-0.59
-0.53
-0.19
0.34
0.89
1.30
1.47
1.39
1.12
0.75
0.37
0.06
-0.14
-0.24
-0.28
-0.31
-0.39
-0.54
-0.70
-0.79
-0.71
-0.45
-0.08
0.26
0.43
0.38
0.14
-0.14
-0.32
-0.31
-0.12
0.17
0.46
0.72
0.92
1.09
1.23
1.30
1.26
1.09
0.82
0.52
0.27
0.10
0.01
-0.04
-0.07
-0.12
-0.19
-0.24
-0.27
-0.28
-0.26
-0.26
-0.29
-0.40
-0.59
-0.83
-1.03
-1.11
-1.01
-0.73
-0.35
0.02
0.28
0.43
0.49
0.57
0.71
0.90
1.06
1.09
0.93
0.59
0.20
-0.12
-0.27
-0.25
-0.16
-0.10
-0.13
-0.24
-0.33
-0.31
-0.14
0.14
0.42
0.58
0.60
0.48
0.30
0.11
-0.10
-0.35
-0.65
-0.96
-1.19
-1.23
-1.06
-0.71
-0.30
0.05
0.26
0.32
0.31
0.26
0.23
0.22
0.23
0.26
0.32
0.41
0.52
0.61
0.64
0.61
0.52
0.39
0.21
-0.00
-0.26
-0.53
-0.74
-0.83
-0.79
-0.65
-0.49
-0.39
-0.36
-0.38
-0.39
-0.38
-0.33
-0.27
-0.23
-0.21
-0.18
-0.12
-0.02
0.12
0.28
0.46
0.63
0.76
0.82
0.77
0.64
0.48
0.38
0.36
0.39
0.38
0.26
0.03
-0.19
-0.24
-0.03
0.41
0.91
1.26
1.31
1.06
0.61
0.12
-0.27
-0.54
-0.69
-0.77
-0.83
-0.87
-0.86
-0.77
-0.60
-0.35
-0.09
0.09
0.09
-0.12
-0.47
-0.81
-0.97
-0.84
-0.48
-0.07
0.17
0.13
-0.15
-0.48
-0.62
-0.48
-0.12
0.28
0.54
0.57
0.39
0.10
-0.19
-0.44
-0.63
-0.76
-0.77
-0.63
-0.35
0.06
0.49
0.85
1.04
1.05
0.91
0.71
0.53
0.42
0.39
0.40
0.37
0.25
0.02
-0.29
-0.60
-0.86
-1.01
-1.07
-1.06
-1.01
-0.95
-0.89
-0.82
-0.72
-0.55
-0.35
-0.13
0.06
0.18
0.23
0.26
0.31
0.39
0.49
0.57
0.61
0.61
0.60
0.60
0.63
0.68
0.71
0.69
0.60
0.44
0.24
0.07
-0.02
-0.01
0.12
0.31
0.49
0.62
0.67
0.66
0.61
0.51
0.38
0.22
0.07
-0.00
0.06
0.27
0.60
0.94
1.22
1.36
1.39
1.38
1.40
1.50
1.67
1.86
2.03
2.16
2.29
2.49
2.84
3.39
4.14
5.00
5.86
6.62
7.20
7.63
7.99
8.39
8.96
9.68
10.50
11.26
11.89
12.44
13.11
14.19
15.91
18.28
21.06
23.81
26.13
27.86
29.21
30.63
32.66
35.63
39.49
43.83
48.10
51.77
54.65
56.84
58.75
60.94
63.88
67.88
72.83
78.19
82.93
85.66
84.87
79.34
68.55
52.99
34.22
14.50
-3.92
-19.47
-31.74
-41.36
-49.48
-57.11
-64.78
-72.40
-79.53
-85.75
-90.74
-94.30
-96.27
-96.52
-95.01
-91.98
-88.00
-83.85
-80.24
-77.71
-76.53
-76.43
-76.44
-74.85
-69.78
-60.13
-46.45
-31.21
-17.94
-9.73
-7.85
-11.22
-17.17
-22.81
-26.37
-27.60
-27.26
-26.21
-24.79
-22.84
-20.13
-16.90
-13.82
-11.65
-10.62
-10.28
-9.58
-7.33
-2.89
3.44
10.43
16.34
19.54
19.16
15.31
8.95
1.41
-6.16
-13.15
-19.60
-25.94
-32.77
-40.50
-49.21
-58.61
-68.17
-77.36
-85.75
-93.24
-99.92
-106.03
-111.95
-118.15
-125.36
-134.24
-144.90
-156.26
-165.67
-169.31
-163.24
-144.81
-113.52
-71.06
-20.55
34.35
90.03
143.14
190.39
228.86
256.49
272.86
279.43
279.09
275.12
270.08
265.42
261.81
259.89
260.46
264.19
270.56
277.13
279.71
273.57
255.03
222.70
177.86
124.08
66.23
9.53
-41.16
-81.97
-110.53
-126.47
-131.52
-128.97
-122.71
-116.01
-110.77
-107.39
-105.35
-103.87
-102.35
-100.46
-97.93
-94.50
-89.89
-84.10
-77.46
-70.66
-64.49
-59.53
-55.92
-53.31
-51.09
-48.61
-45.48
-41.61
-37.21
-32.63
-28.19
-24.10
-20.46
-17.21
-14.23
-11.37
-8.57
-5.89
-3.56
-1.81
-0.76
-0.33
-0.19
0.08
0.80
2.04
3.61
5.08
6.11
6.51
6.38
5.99
5.66
5.56
5.66
5.77
5.69
5.32
4.67
3.85
2.94
1.92
0.76
-0.59
-2.05
-3.48
-4.69
-5.54
-5.99
-6.08
-5.89
-5.49
-4.91
-4.16
-3.27
-2.33
-1.50
-0.98
-0.90
-1.32
-2.14
-3.12
-4.01
-4.57
-4.74
-4.58
-4.24
-3.90
-3.64
-3.48
-3.39
-3.32
-3.26
-3.21
-3.18
-3.19
-3.23
-3.31
-3.45
-3.64
-3.88
-4.14
-4.42
-4.74
-5.19
-5.88
-6.85
-8.08
-9.43
-10.69
-11.68
-12.29
-12.54
-12.52
-12.32
-12.01
-11.61
-11.13
-10.66
-10.36
-10.40
-10.85
-11.59
-12.29
-12.51
-11.81
-9.98
-7.08
-3.43
0.52
4.37
7.80
10.59
12.62
13.79
14.09
13.58
12.42
10.87
9.21
7.68
6.43
5.53
4.93
4.48
3.99
3.24
2.13
0.74
-0.64
-1.60
-1.80
-1.15
0.02
1.10
1.38
0.42
-1.78
-4.68
-7.45
-9.28
-9.75
-9.05
-7.96
-7.53
-8.61
-11.49
-15.72
-20.24
-23.92
-25.96
-26.26
-25.40
-24.31
-23.92
-25.05
-28.35
-34.15
-41.98
-50.07
-55.29
-54.00
-43.57
-23.95
1.78
28.33
50.31
64.35
70.17
70.03
67.12
63.86
61.11
58.48
55.31
51.54
47.82
45.11
44.01
44.42
45.67
46.89
47.53
47.63
47.61
47.88
48.34
48.15
46.00
40.60
31.41
18.93
4.72
-9.15
-20.76
-28.92
-33.33
-34.51
-33.42
-31.08
-28.30
-25.59
-23.23
-21.30
-19.87
-18.95
-18.56
-18.66
-19.11
-19.67
-20.07
-20.09
-19.67
-18.87
-17.86
-16.81
-15.80
-14.78
-13.69
-12.45
-11.08
-9.68
-8.36
-7.21
-6.27
-5.53
-4.95
-4.46
-4.01
-3.55
-3.07
-2.56
-2.05
-1.59
-1.18
-0.80
-0.40
0.02
0.41
0.71
0.82
0.72
0.44
0.06
-0.32
-0.64
-0.81
-0.81
-0.61
-0.27
0.15
0.52
0.76
0.86
0.83
0.76
0.70
0.66
0.60
0.48
0.34
0.24
0.25
0.41
0.65
0.87
0.94
0.80
0.50
0.15
-0.09
-0.11
0.10
0.42
0.71
0.88
0.89
0.82
0.77
0.85
1.06
1.36
1.65
1.81
1.79
1.59
1.27
0.92
0.61
0.39
0.29
0.27
0.28
0.26
0.12
-0.14
-0.49
-0.86
-1.14
-1.24
-1.15
-0.92
-0.69
-0.54
-0.51
-0.53
-0.46
-0.22
0.19
0.62
0.90
0.91
0.68
0.39
0.24
0.34
0.64
0.96
1.11
1.04
0.87
0.78
0.86
1.07
1.25
1.24
0.99
0.60
0.27
0.14
0.20
0.33
0.36
0.16
-0.23
-0.68
-1.02
-1.10
-0.92
-0.58
-0.24
-0.03
0.01
-0.04
-0.10
-0.09
-0.03
-0.00
-0.07
-0.26
-0.50
-0.69
-0.72
-0.57
-0.31
-0.01
0.23
0.35
0.32
0.14
-0.16
-0.54
-0.86
-1.02
-0.93
-0.61
-0.22
0.04
0.04
-0.20
-0.55
-0.82
-0.90
-0.82
-0.70
-0.69
-0.79
-0.95
-1.02
-0.93
-0.70
-0.46
-0.31
-0.24
-0.19
-0.04
0.26
0.62
0.89
0.93
0.72
0.35
0.02
-0.15
-0.15
-0.10
-0.11
-0.26
-0.51
-0.71
-0.75
-0.61
-0.36
-0.09
0.10
0.20
0.25
0.28
0.30
0.28
0.20
0.07
-0.05
-0.11
-0.07
0.05
0.19
0.29
0.33
0.29
0.18
-0.01
-0.28
-0.60
-0.90
-1.09
-1.06
-0.76
-0.27
0.27
0.72
0.94
0.93
0.77
0.59
0.50
0.51
0.58
0.61
0.56
0.43
0.30
0.21
0.21
0.27
0.37
0.44
0.45
0.39
0.27
0.11
-0.02
-0.09
-0.08
-0.04
-0.02
-0.06
-0.13
-0.20
-0.19
-0.09
0.06
0.18
0.22
0.18
0.09
0.00
-0.07
-0.13
-0.17
-0.19
-0.15
-0.02
0.21
0.49
0.76
0.97
1.08
1.08
0.95
0.73
0.44
0.13
-0.13
-0.30
-0.36
-0.35
-0.33
-0.36
-0.45
-0.56
-0.63
-0.61
-0.48
-0.29
-0.14
-0.11
-0.22
-0.43
-0.65
-0.79
-0.82
-0.74
-0.62
-0.49
-0.40
-0.32
-0.23
-0.12
-0.00
0.05
-0.00
-0.16
-0.35
-0.47
-0.44
-0.24
0.05
0.31
0.41
0.31
0.05
-0.25
-0.49
-0.60
-0.59
-0.54
-0.52
-0.59
-0.73
-0.88
-0.96
-0.93
-0.79
-0.55
-0.27
0.04
0.36
0.64
0.84
0.89
0.78
0.59
0.42
0.36
0.40
0.48
0.47
0.29
-0.04
-0.42
-0.72
-0.86
-0.83
-0.70
-0.55
-0.42
-0.33
-0.23
-0.12
0.00
0.10
0.13
0.07
-0.04
-0.16
-0.23
-0.19
-0.06
0.13
0.32
0.45
0.47
0.40
0.27
0.12
0.01
-0.06
-0.07
-0.05
0.01
0.11
0.24
0.40
0.54
0.64
0.66
0.59
0.47
0.34
0.25
0.21
0.21
0.23
0.25
0.26
0.28
0.28
0.26
0.20
0.08
-0.12
-0.37
-0.64
-0.86
-0.98
-0.97
-0.82
-0.58
-0.33
-0.15
-0.08
-0.10
-0.15
-0.15
-0.08
0.05
0.19
0.27
0.26
0.17
0.06
0.01
0.07
0.27
0.57
0.91
1.20
1.35
1.33
1.20
1.00
0.82
0.66
0.52
0.34
0.11
-0.16
-0.43
-0.65
-0.79
-0.86
-0.89
-0.94
-1.03
-1.15
-1.27
-1.33
-1.27
-1.08
-0.79
-0.49
-0.27
-0.20
-0.27
-0.41
-0.53
-0.58
-0.53
-0.37
-0.12
0.21
0.60
1.00
1.33
1.51
1.49
1.31
1.02
0.73
0.51
0.40
0.39
0.44
0.50
0.50
0.39
0.18
-0.14
-0.48
-0.78
-0.97
-1.01
-0.90
-0.71
-0.52
-0.40
-0.39
-0.45
-0.54
-0.58
-0.53
-0.41
-0.28
-0.19
-0.17
-0.23
-0.30
-0.35
-0.33
-0.25
-0.13
0.00
0.12
0.21
0.25
0.27
0.24
0.18
0.06
-0.09
-0.24
-0.36
-0.40
-0.36
-0.25
-0.09
0.09
0.25
0.36
0.39
0.36
0.28
0.20
0.19
0.30
0.50
0.74
0.94
1.02
0.97
0.81
0.59
0.36
0.14
-0.02
-0.12
-0.16
-0.16
-0.14
-0.16
-0.23
-0.34
-0.47
-0.57
-0.61
-0.58
-0.47
-0.31
-0.11
0.10
0.32
0.51
0.65
0.68
0.58
0.33
-0.01
-0.37
-0.65
-0.78
-0.73
-0.51
-0.18
0.20
0.53
0.74
0.76
0.56
0.18
-0.25
-0.60
-0.77
-0.71
-0.50
-0.24
-0.04
0.05
0.04
-0.01
-0.07
-0.13
-0.19
-0.29
-0.40
-0.50
-0.51
-0.41
-0.19
0.09
0.33
0.45
0.43
0.29
0.12
0.00
-0.01
0.09
0.23
0.34
0.31
0.12
-0.21
-0.58
-0.83
-0.86
-0.62
-0.20
0.23
0.48
0.45
0.16
-0.22
-0.46
-0.41
-0.05
0.50
1.00
1.28
1.27
1.01
0.65
0.30
0.05
-0.12
-0.25
-0.36
-0.46
-0.53
-0.53
-0.49
-0.44
-0.44
-0.49
-0.57
-0.59
-0.49
-0.26
0.05
0.30
0.39
0.28
0.02
-0.24
-0.38
-0.35
-0.20
-0.03
0.04
-0.00
-0.09
-0.12
0.00
0.25
0.54
0.73
0.71
0.51
0.20
-0.08
-0.23
-0.22
-0.09
0.12
0.39
0.69
1.01
1.30
1.47
1.44
1.22
0.86
0.52
0.31
0.27
0.36
0.43
0.37
0.10
-0.33
-0.81
-1.17
-1.32
-1.23
-0.98
-0.69
-0.47
-0.38
-0.41
-0.47
-0.46
-0.36
-0.23
-0.14
-0.16
-0.30
-0.46
-0.55
-0.52
-0.37
-0.21
-0.11
-0.09
-0.13
-0.13
-0.05
0.11
0.29
0.42
0.46
0.44
0.38
0.32
0.25
0.16
0.08
0.03
0.04
0.14
0.30
0.47
0.60
0.63
0.57
0.42
0.24
0.10
0.06
0.17
0.41
0.71
0.95
1.03
0.91
0.62
0.29
0.03
-0.11
-0.16
-0.20
-0.29
-0.41
-0.48
-0.41
-0.15
0.23
0.54
0.63
0.40
-0.10
-0.67
-1.07
-1.15
-0.90
-0.45
-0.01
0.25
0.25
0.04
-0.28
-0.57
-0.75
-0.82
-0.78
-0.65
-0.47
-0.24
-0.02
0.18
0.29
0.30
0.23
0.13
0.02
-0.06
-0.12
-0.17
-0.21
-0.19
-0.08
0.14
0.43
0.68
0.82
0.79
0.62
0.40
0.23
0.14
0.12
0.10
-0.00
-0.18
-0.38
-0.49
-0.46
-0.26
0.02
0.27
0.41
0.41
0.33
0.20
0.08
-0.03
-0.16
-0.34
-0.53
-0.70
-0.78
-0.75
-0.62
-0.46
-0.33
-0.27
-0.24
-0.22
-0.18
-0.09
0.02
0.14
0.25
0.31
0.31
0.22
0.04
-0.20
-0.44
-0.63
-0.70
-0.59
-0.31
0.10
0.55
0.91
1.04
0.90
0.52
0.04
-0.38
-0.60
-0.55
-0.27
0.14
0.54
0.81
0.89
0.80
0.58
0.29
0.01
-0.23
-0.36
-0.37
-0.26
-0.08
0.11
0.23
0.20
0.01
-0.29
-0.60
-0.84
-0.94
-0.93
-0.85
-0.77
-0.68
-0.54
-0.30
0.06
0.49
0.89
1.14
1.15
0.95
0.63
0.33
0.15
0.14
0.25
0.41
0.52
0.53
0.47
0.40
0.38
0.46
0.62
0.79
0.86
0.80
0.63
0.43
0.31
0.31
0.43
0.61
0.76
0.81
0.71
0.45
0.04
-0.46
-0.98
-1.42
-1.72
-1.84
-1.76
-1.55
-1.26
-0.94
-0.61
-0.29
-0.01
0.18
0.22
0.08
-0.22
-0.61
-0.98
-1.23
-1.30
-1.19
-0.93
-0.59
-0.23
0.09
0.33
0.47
0.51
0.49
0.44
0.40
0.37
0.32
0.23
0.07
-0.10
-0.20
-0.15
0.07
0.40
0.72
0.90
0.88
0.68
0.41
0.17
0.04
-0.01
-0.02
-0.07
-0.16
-0.24
-0.25
-0.18
-0.08
-0.01
-0.06
-0.19
-0.33
-0.38
-0.31
-0.17
-0.07
-0.09
-0.23
-0.42
-0.57
-0.62
-0.60
-0.58
-0.62
-0.71
-0.78
-0.75
-0.59
-0.30
0.04
0.37
0.63
0.79
0.84
0.82
0.76
0.70
0.68
0.72
0.81
0.92
0.99
0.97
0.81
0.54
0.20
-0.15
-0.43
-0.60
-0.64
-0.57
-0.41
-0.20
0.01
0.20
0.35
0.43
0.44
0.42
0.37
0.33
0.31
0.28
0.23
0.15
0.06
-0.01
-0.04
-0.01
0.06
0.16
0.27
0.38
0.45
0.47
0.43
0.36
0.25
0.13
-0.00
-0.16
-0.35
-0.54
-0.71
-0.81
-0.84
-0.83
-0.78
-0.68
-0.47
-0.12
0.33
0.78
1.07
1.12
0.90
0.52
0.13
-0.18
-0.38
-0.50
-0.60
-0.68
-0.73
-0.72
-0.63
-0.49
-0.34
-0.22
-0.16
-0.14
-0.14
-0.15
-0.17
-0.18
-0.18
-0.13
-0.02
0.14
0.30
0.40
0.42
0.32
0.14
-0.07
-0.27
-0.37
-0.37
-0.24
-0.04
0.17
0.33
0.36
0.27
0.09
-0.09
-0.19
-0.16
-0.05
0.08
0.15
0.10
-0.03
-0.17
-0.19
-0.04
0.26
0.59
0.79
0.72
0.36
-0.20
-0.79
-1.21
-1.36
-1.23
-0.93
-0.61
-0.37
-0.26
-0.24
-0.23
-0.16
-0.02
0.17
0.35
0.48
0.54
0.53
0.46
0.33
0.15
-0.07
-0.29
-0.45
-0.52
-0.49
-0.40
-0.30
-0.23
-0.21
-0.22
-0.24
-0.22
-0.18
-0.08
0.06
0.24
0.46
0.65
0.76
0.73
0.60
0.44
0.38
0.46
0.65
0.84
0.92
0.84
0.64
0.38
0.13
-0.09
-0.31
-0.53
-0.71
-0.77
-0.67
-0.39
-0.05
0.22
0.32
0.19
-0.07
-0.32
-0.43
-0.30
0.06
0.57
1.06
1.37
1.40
1.15
0.72
0.25
-0.14
-0.41
-0.57
-0.64
-0.65
-0.58
-0.43
-0.20
0.04
0.21
0.25
0.16
-0.03
-0.23
-0.37
-0.41
-0.38
-0.33
-0.27
-0.24
-0.19
-0.09
0.05
0.18
0.24
0.16
-0.05
-0.33
-0.53
-0.56
-0.43
-0.20
-0.02
0.07
0.07
0.09
0.24
0.51
0.82
1.01
0.98
0.71
0.31
-0.07
-0.29
-0.36
-0.31
-0.24
-0.22
-0.25
-0.29
-0.28
-0.19
-0.06
0.07
0.13
0.09
-0.01
-0.14
-0.21
-0.22
-0.18
-0.13
-0.11
-0.12
-0.12
-0.08
-0.02
0.02
-0.00
-0.08
-0.17
-0.19
-0.08
0.13
0.38
0.55
0.58
0.46
0.23
-0.02
-0.23
-0.33
-0.29
-0.11
0.19
0.52
0.77
0.83
0.69
0.39
0.08
-0.12
-0.12
0.06
0.32
0.52
0.57
0.45
0.20
-0.13
-0.47
-0.77
-1.01
-1.16
-1.17
-1.04
-0.76
-0.40
-0.03
0.25
0.38
0.34
0.15
-0.11
-0.38
-0.56
-0.64
-0.61
-0.50
-0.37
-0.23
-0.08
0.12
0.36
0.61
0.75
0.70
0.44
0.05
-0.30
-0.48
-0.46
-0.29
-0.09
0.05
0.09
0.08
0.09
0.16
0.30
0.45
0.55
0.54
0.42
0.25
0.09
0.01
0.08
0.26
0.49
0.63
0.59
0.36
0.01
-0.34
-0.53
-0.52
-0.30
0.01
0.29
0.45
0.45
0.32
0.14
-0.04
-0.16
-0.21
-0.22
-0.21
-0.21
-0.24
-0.29
-0.35
-0.37
-0.33
-0.17
0.08
0.35
0.53
0.50
0.25
-0.15
-0.53
-0.73
-0.68
-0.41
-0.05
0.27
0.47
0.57
0.61
0.63
0.64
0.59
0.47
0.30
0.17
0.19
0.35
0.58
0.72
0.65
0.33
-0.13
-0.55
-0.78
-0.75
-0.56
-0.31
-0.13
-0.04
-0.02
-0.01
0.03
0.07
0.06
-0.06
-0.31
-0.64
-0.95
-1.12
-1.09
-0.86
-0.51
-0.19
0.00
0.02
-0.10
-0.25
-0.35
-0.36
-0.30
-0.18
-0.01
0.22
0.49
0.74
0.89
0.89
0.74
0.53
0.35
0.27
0.27
0.27
0.22
0.13
0.01
-0.08
-0.13
-0.15
-0.17
-0.22
-0.28
-0.31
-0.29
-0.22
-0.12
-0.06
-0.09
-0.21
-0.39
-0.51
-0.52
-0.35
-0.07
0.19
0.30
0.23
0.02
-0.18
-0.24
-0.11
0.16
0.43
0.58
0.57
0.45
0.31
0.22
0.21
0.20
0.13
-0.05
-0.31
-0.55
-0.65
-0.54
-0.24
0.16
0.52
0.70
0.67
0.47
0.18
-0.09
-0.27
-0.34
-0.29
-0.19
-0.06
0.05
0.10
0.10
0.07
0.03
0.01
0.03
0.09
0.17
0.27
0.36
0.38
0.34
0.24
0.15
0.12
0.17
0.26
0.30
0.20
-0.03
-0.31
-0.47
-0.44
-0.25
-0.01
0.13
0.14
0.08
0.06
0.16
0.34
0.48
0.44
0.21
-0.11
-0.37
-0.41
-0.22
0.11
0.41
0.57
0.54
0.39
0.24
0.20
0.28
0.45
0.63
0.73
0.69
0.52
0.24
-0.07
-0.34
-0.51
-0.58
-0.58
-0.55
-0.53
-0.52
-0.49
-0.42
-0.31
-0.20
-0.11
-0.08
-0.10
-0.15
-0.19
-0.22
-0.24
-0.25
-0.25
-0.22
-0.15
-0.06
-0.02
-0.10
-0.31
-0.59
-0.84
-0.91
-0.72
-0.32
0.15
0.53
0.70
0.65
0.48
0.30
0.16
0.05
-0.08
-0.22
-0.31
-0.26
-0.07
0.20
0.41
0.43
0.24
-0.04
-0.29
-0.38
-0.31
-0.15
-0.00
0.08
0.07
0.03
-0.00
-0.02
-0.02
-0.04
-0.07
-0.10
-0.11
-0.09
-0.03
0.05
0.13
0.21
0.28
0.34
0.35
0.28
0.14
-0.05
-0.20
-0.22
-0.08
0.19
0.50
0.71
0.76
0.64
0.41
0.12
-0.18
-0.48
-0.76
-0.98
-1.09
-1.05
-0.85
-0.55
-0.24
-0.00
0.08
0.02
-0.14
-0.29
-0.35
-0.28
-0.12
0.05
0.14
0.11
-0.04
-0.23
-0.39
-0.50
-0.54
-0.52
-0.44
-0.24
0.10
0.58
1.11
1.58
1.87
1.91
1.73
1.39
1.01
0.66
0.36
0.13
-0.05
-0.16
-0.18
-0.11
0.07
0.33
0.60
0.83
0.95
0.89
0.64
0.22
-0.24
-0.62
-0.79
-0.70
-0.40
0.00
0.36
0.54
0.53
0.34
0.08
-0.18
-0.35
-0.43
-0.44
-0.41
-0.36
-0.32
-0.29
-0.31
-0.38
-0.52
-0.73
-0.94
-1.07
-1.05
-0.86
-0.55
-0.21
0.05
0.15
0.08
-0.07
-0.21
-0.24
-0.16
-0.00
0.11
0.11
-0.02
-0.23
-0.43
-0.51
-0.44
-0.26
-0.05
0.11
0.16
0.12
0.04
0.00
0.04
0.15
0.29
0.38
0.36
0.24
0.09
0.01
0.07
0.25
0.43
0.47
0.32
0.04
-0.21
-0.28
-0.13
0.14
0.35
0.38
0.23
0.01
-0.10
-0.05
0.11
0.26
0.29
0.18
0.01
-0.13
-0.19
-0.21
-0.22
-0.27
-0.33
-0.32
-0.18
0.10
0.44
0.72
0.83
0.70
0.38
-0.03
-0.41
-0.68
-0.83
-0.86
-0.81
-0.68
-0.45
-0.11
0.29
0.64
0.82
0.73
0.40
-0.05
-0.45
-0.63
-0.56
-0.30
-0.01
0.16
0.13
-0.09
-0.42
-0.75
-0.96
-0.98
-0.79
-0.44
-0.02
0.32
0.46
0.36
0.05
-0.33
-0.64
-0.76
-0.65
-0.35
0.01
0.32
0.51
0.58
0.59
0.62
0.72
0.90
1.08
1.22
1.25
1.22
1.16
1.11
1.05
0.94
0.74
0.45
0.12
-0.15
-0.29
-0.25
-0.09
0.08
0.16
0.08
-0.14
-0.40
-0.57
-0.60
-0.51
-0.39
-0.35
-0.41
-0.50
-0.53
-0.41
-0.18
0.04
0.13
0.05
-0.17
-0.41
-0.59
-0.68
-0.67
-0.62
-0.52
-0.34
-0.09
0.19
0.41
0.51
0.44
0.25
0.05
-0.08
-0.06
0.09
0.29
0.47
0.54
0.51
0.42
0.30
0.18
0.09
0.01
-0.03
0.00
0.11
0.27
0.41
0.46
0.38
0.18
-0.03
-0.15
-0.12
0.05
0.27
0.43
0.47
0.38
0.21
0.02
-0.16
-0.28
-0.35
-0.34
-0.26
-0.11
0.07
0.23
0.30
0.25
0.11
-0.08
-0.27
-0.41
-0.52
-0.63
-0.73
-0.84
-0.93
-1.01
-1.07
-1.14
-1.20
-1.23
-1.18
-1.02
-0.76
-0.42
-0.03
0.35
0.68
0.92
1.06
1.09
1.06
0.99
0.91
0.81
0.66
0.45
0.19
-0.05
-0.18
-0.14
0.03
0.23
0.35
0.31
0.12
-0.11
-0.29
-0.34
-0.30
-0.23
-0.21
-0.22
-0.19
-0.06
0.19
0.49
0.66
0.58
0.22
-0.31
-0.82
-1.12
-1.12
-0.87
-0.52
-0.22
-0.06
0.00
0.04
0.14
0.31
0.50
0.61
0.61
0.46
0.23
-0.03
-0.29
-0.52
-0.72
-0.87
-0.96
-0.96
-0.89
-0.77
-0.64
-0.55
-0.51
-0.52
-0.58
-0.62
-0.59
-0.43
-0.10
0.33
0.76
1.06
1.14
1.00
0.72
0.42
0.17
0.02
-0.07
-0.12
-0.12
-0.04
0.18
0.52
0.89
1.15
1.17
0.87
0.34
-0.26
-0.70
-0.83
-0.62
-0.18
0.30
0.63
0.73
0.63
0.44
0.30
0.27
0.36
0.49
0.58
0.55
0.39
0.11
-0.21
-0.52
-0.73
-0.76
-0.60
-0.26
0.17
0.55
0.79
0.82
0.69
0.47
0.23
0.03
-0.15
-0.30
-0.44
-0.51
-0.47
-0.33
-0.14
0.03
0.12
0.12
0.08
0.04
0.04
0.07
0.07
-0.01
-0.16
-0.30
-0.37
-0.29
-0.09
0.14
0.32
0.40
0.43
0.50
0.69
0.98
1.26
1.33
1.07
0.47
-0.31
-1.04
-1.49
-1.56
-1.29
-0.83
-0.34
0.01
0.15
0.07
-0.18
-0.51
-0.78
-0.91
-0.87
-0.70
-0.50
-0.34
-0.21
-0.07
0.16
0.48
0.83
1.10
1.22
1.18
1.07
0.98
0.96
0.96
0.91
0.75
0.48
0.19
-0.03
-0.10
-0.01
0.17
0.35
0.42
0.32
0.05
-0.30
-0.63
-0.84
-0.87
-0.76
-0.57
-0.39
-0.27
-0.23
-0.28
-0.39
-0.54
-0.72
-0.86
-0.93
-0.91
-0.81
-0.69
-0.59
-0.53
-0.42
-0.19
0.19
0.65
1.04
1.18
1.00
0.58
0.11
-0.21
-0.30
-0.23
-0.18
-0.28
-0.53
-0.74
-0.74
-0.41
0.14
0.68
1.00
1.00
0.77
0.50
0.34
0.32
0.38
0.40
0.31
0.15
-0.04
-0.20
-0.35
-0.52
-0.72
-0.91
-0.99
-0.89
-0.58
-0.17
0.19
0.36
0.30
0.10
-0.08
-0.10
0.05
0.28
0.44
0.42
0.24
0.01
-0.12
-0.06
0.18
0.51
0.78
0.90
0.84
0.68
0.51
0.40
0.37
0.39
0.38
0.29
0.10
-0.15
-0.40
-0.59
-0.70
-0.74
-0.74
-0.72
-0.69
-0.63
-0.52
-0.35
-0.17
-0.02
0.06
0.03
-0.07
-0.16
-0.15
-0.04
0.15
0.33
0.43
0.46
0.45
0.47
0.53
0.62
0.68
0.70
0.66
0.61
0.58
0.57
0.54
0.44
0.26
0.03
-0.18
-0.30
-0.29
-0.18
-0.03
0.09
0.12
0.03
-0.17
-0.44
-0.73
-0.97
-1.11
-1.12
-1.00
-0.78
-0.50
-0.27
-0.15
-0.15
-0.20
-0.21
-0.12
0.09
0.37
0.60
0.71
0.66
0.50
0.27
0.03
-0.17
-0.33
-0.44
-0.47
-0.38
-0.14
0.22
0.63
0.97
1.15
1.11
0.85
0.48
0.10
-0.17
-0.32
-0.36
-0.34
-0.32
-0.29
-0.23
-0.13
-0.00
0.07
0.03
-0.15
-0.41
-0.67
-0.85
-0.88
-0.80
-0.65
-0.52
-0.44
-0.42
-0.43
-0.42
-0.38
-0.32
-0.27
-0.24
-0.23
-0.22
-0.17
-0.08
0.06
0.22
0.36
0.47
0.52
0.50
0.43
0.34
0.29
0.33
0.46
0.64
0.79
0.82
0.70
0.48
0.29
0.23
0.33
0.53
0.70
0.75
0.67
0.54
0.44
0.43
0.47
0.49
0.42
0.26
0.11
0.04
0.11
0.25
0.36
0.34
0.17
-0.12
-0.40
-0.58
-0.65
-0.63
-0.57
-0.52
-0.48
-0.40
-0.25
-0.02
0.26
0.48
0.57
0.49
0.27
0.02
-0.17
-0.25
-0.25
-0.22
-0.24
-0.30
-0.37
-0.40
-0.35
-0.22
-0.03
0.16
0.35
0.49
0.56
0.54
0.46
0.37
0.30
0.29
0.28
0.22
0.07
-0.12
-0.26
-0.25
-0.08
0.18
0.41
0.50
0.41
0.20
-0.00
-0.12
-0.13
-0.04
0.11
0.28
0.44
0.55
0.55
0.42
0.17
-0.14
-0.41
-0.57
-0.59
-0.53
-0.47
-0.47
-0.56
-0.69
-0.82
-0.89
-0.89
-0.82
-0.71
-0.60
-0.52
-0.50
-0.53
-0.57
-0.56
-0.42
-0.16
0.16
0.42
0.51
0.40
0.14
-0.11
-0.22
-0.15
0.06
0.28
0.38
0.30
0.06
-0.23
-0.46
-0.54
-0.48
-0.32
-0.17
-0.09
-0.11
-0.19
-0.25
-0.24
-0.13
0.03
0.14
0.12
-0.04
-0.29
-0.55
-0.73
-0.82
-0.87
-0.88
-0.87
-0.79
-0.60
-0.30
0.04
0.35
0.55
0.63
0.65
0.64
0.62
0.53
0.31
-0.04
-0.41
-0.68
-0.75
-0.59
-0.30
0.01
0.25
0.37
0.40
0.38
0.37
0.37
0.38
0.43
0.52
0.64
0.78
0.88
0.91
0.84
0.68
0.43
0.15
-0.14
-0.39
-0.57
-0.66
-0.66
-0.61
-0.52
-0.41
-0.30
-0.18
-0.08
-0.04
-0.06
-0.14
-0.25
-0.33
-0.36
-0.31
-0.21
-0.10
0.01
0.09
0.16
0.23
0.31
0.39
0.46
0.51
0.51
0.46
0.36
0.22
0.08
-0.00
-0.02
0.02
0.11
0.21
0.30
0.36
0.38
0.34
0.23
0.07
-0.13
-0.34
-0.51
-0.62
-0.67
-0.64
-0.54
-0.36
-0.09
0.24
0.59
0.90
1.10
1.16
1.10
0.93
0.69
0.40
0.06
-0.29
-0.62
-0.87
-1.01
-1.01
-0.90
-0.69
-0.39
-0.02
0.38
0.76
1.01
1.06
0.90
0.60
0.25
-0.02
-0.14
-0.08
0.12
0.41
0.69
0.87
0.89
0.69
0.34
-0.08
-0.44
-0.62
-0.53
-0.20
0.27
0.75
1.05
1.06
0.74
0.19
-0.39
-0.78
-0.83
-0.52
-0.01
0.45
0.65
0.51
0.13
-0.33
-0.66
-0.82
-0.82
-0.78
-0.78
-0.84
-0.88
-0.82
-0.65
-0.43
-0.30
-0.35
-0.58
-0.86
-0.99
-0.82
-0.33
0.32
0.88
1.14
1.00
0.57
0.03
-0.39
-0.62
-0.66
-0.63
-0.61
-0.59
-0.51
-0.29
0.07
0.45
0.70
0.71
0.52
0.32
0.31
0.57
1.02
1.45
1.62
1.43
0.94
0.33
-0.19
-0.48
-0.52
-0.38
-0.21
-0.11
-0.15
-0.30
-0.50
-0.66
-0.72
-0.71
-0.69
-0.72
-0.83
-0.95
-0.93
-0.69
-0.22
0.34
0.81
1.04
1.00
0.77
0.49
0.26
0.11
-0.01
-0.16
-0.36
-0.57
-0.70
-0.69
-0.57
-0.37
-0.16
0.01
0.13
0.23
0.31
0.35
0.32
0.20
0.03
-0.12
-0.16
-0.04
0.20
0.46
0.64
0.71
0.69
0.68
0.73
0.86
1.00
1.07
1.00
0.78
0.47
0.14
-0.14
-0.34
-0.48
-0.57
-0.64
-0.69
-0.70
-0.67
-0.59
-0.47
-0.33
-0.18
-0.03
0.11
0.24
0.34
0.38
0.38
0.35
0.34
0.36
0.40
0.40
0.37
0.30
0.25
0.24
0.28
0.29
0.20
-0.02
-0.31
-0.55
-0.66
-0.63
-0.54
-0.50
-0.58
-0.72
-0.80
-0.70
-0.36
0.14
0.64
0.99
1.11
1.01
0.77
0.52
0.31
0.15
0.00
-0.14
-0.28
-0.36
-0.33
-0.21
-0.06
0.03
-0.03
-0.25
-0.54
-0.79
-0.87
-0.75
-0.48
-0.16
0.09
0.21
0.14
-0.11
-0.49
-0.88
-1.15
-1.16
-0.89
-0.42
0.11
0.51
0.69
0.67
0.53
0.38
0.26
0.16
0.05
-0.05
-0.13
-0.13
-0.04
0.12
0.33
0.55
0.74
0.88
0.90
0.74
0.41
-0.03
-0.44
-0.71
-0.75
-0.61
-0.39
-0.19
-0.09
-0.09
-0.15
-0.22
-0.26
-0.22
-0.07
0.15
0.39
0.56
0.59
0.48
0.26
0.03
-0.13
-0.16
-0.07
0.11
0.32
0.50
0.57
0.47
0.22
-0.08
-0.31
-0.35
-0.19
0.06
0.27
0.33
0.25
0.10
-0.01
-0.05
-0.03
-0.01
-0.03
-0.13
-0.30
-0.49
-0.67
-0.79
-0.79
-0.64
-0.38
-0.06
0.21
0.36
0.35
0.18
-0.05
-0.27
-0.37
-0.31
-0.06
0.29
0.64
0.84
0.81
0.58
0.22
-0.14
-0.41
-0.58
-0.67
-0.71
-0.70
-0.63
-0.50
-0.36
-0.23
-0.16
-0.14
-0.15
-0.17
-0.15
-0.10
-0.02
0.10
0.23
0.36
0.43
0.43
0.39
0.38
0.45
0.62
0.79
0.84
0.69
0.34
-0.06
-0.35
-0.42
-0.27
0.00
0.24
0.34
0.31
0.22
0.16
0.23
0.40
0.63
0.81
0.88
0.81
0.63
0.37
0.09
-0.15
-0.29
-0.32
-0.27
-0.21
-0.18
-0.21
-0.28
-0.32
-0.29
-0.22
-0.17
-0.21
-0.34
-0.50
-0.58
-0.50
-0.29
-0.05
0.08
0.06
-0.07
-0.16
-0.11
0.11
0.42
0.64
0.64
0.38
-0.07
-0.55
-0.88
-0.96
-0.79
-0.46
-0.14
0.03
0.00
-0.16
-0.36
-0.51
-0.56
-0.59
-0.64
-0.71
-0.74
-0.64
-0.40
-0.07
0.21
0.31
0.25
0.11
0.04
0.13
0.35
0.58
0.70
0.67
0.56
0.48
0.55
0.75
1.00
1.16
1.13
0.89
0.53
0.15
-0.15
-0.33
-0.41
-0.42
-0.37
-0.29
-0.19
-0.09
-0.02
0.01
0.00
0.00
0.05
0.13
0.22
0.26
0.22
0.10
-0.03
-0.13
-0.14
-0.06
0.09
0.26
0.40
0.45
0.39
0.25
0.07
-0.07
-0.15
-0.18
-0.19
-0.22
-0.28
-0.31
-0.24
-0.07
0.15
0.29
0.26
0.04
-0.27
-0.55
-0.68
-0.64
-0.46
-0.24
-0.02
0.16
0.29
0.38
0.41
0.37
0.28
0.19
0.13
0.12
0.15
0.21
0.27
0.33
0.37
0.37
0.29
0.11
-0.18
-0.55
-0.92
-1.22
-1.38
-1.41
-1.33
-1.18
-0.98
-0.77
-0.59
-0.43
-0.28
-0.11
0.11
0.38
0.65
0.85
0.92
0.81
0.55
0.24
-0.03
-0.15
-0.08
0.19
0.59
1.00
1.28
1.31
1.03
0.51
-0.12
-0.64
-0.91
-0.85
-0.52
-0.06
0.36
0.63
0.70
0.63
0.49
0.36
0.29
0.30
0.36
0.44
0.52
0.54
0.51
0.40
0.23
0.03
-0.16
-0.30
-0.37
-0.41
-0.43
-0.50
-0.61
-0.76
-0.91
-1.01
-1.02
-0.93
-0.72
-0.45
-0.16
0.09
0.28
0.41
0.52
0.64
0.77
0.89
0.92
0.80
0.53
0.18
-0.15
-0.33
-0.31
-0.14
0.05
0.12
-0.03
-0.37
-0.81
-1.17
-1.34
-1.29
-1.08
-0.81
-0.58
-0.42
-0.35
-0.32
-0.30
-0.26
-0.18
-0.05
0.10
0.25
0.40
0.51
0.58
0.60
0.54
0.41
0.21
-0.01
-0.19
-0.27
-0.22
-0.06
0.13
0.28
0.35
0.31
0.20
0.07
-0.02
-0.03
0.04
0.16
0.31
0.47
0.63
0.77
0.87
0.91
0.86
0.75
0.61
0.47
0.36
0.27
0.19
0.12
0.06
0.01
-0.01
-0.05
-0.15
-0.35
-0.59
-0.82
-0.94
-0.92
-0.76
-0.51
-0.22
0.06
0.31
0.47
0.52
0.41
0.18
-0.09
-0.31
-0.38
-0.28
-0.08
0.12
0.25
0.28
0.27
0.27
0.28
0.26
0.17
-0.03
-0.28
-0.52
-0.67
-0.74
-0.76
-0.77
-0.75
-0.65
-0.44
-0.15
0.12
0.29
0.31
0.25
0.24
0.37
0.62
0.86
0.94
0.76
0.39
-0.02
-0.27
-0.29
-0.14
0.05
0.13
0.04
-0.15
-0.33
-0.39
-0.34
-0.24
-0.16
-0.14
-0.14
-0.09
0.02
0.18
0.31
0.35
0.29
0.20
0.13
0.11
0.16
0.25
0.40
0.60
0.83
1.04
1.11
0.99
0.67
0.26
-0.09
-0.27
-0.23
-0.04
0.19
0.40
0.54
0.67
0.83
1.04
1.24
1.36
1.31
1.02
0.51
-0.14
-0.83
-1.42
-1.80
-1.90
-1.72
-1.32
-0.84
-0.43
-0.23
-0.30
-0.56
-0.85
-1.00
-0.93
-0.65
-0.31
-0.06
0.03
-0.02
-0.10
-0.13
-0.11
-0.10
-0.19
-0.37
-0.54
-0.56
-0.36
0.03
0.47
0.80
0.89
0.76
0.47
0.15
-0.12
-0.28
-0.36
-0.40
-0.42
-0.44
-0.43
-0.36
-0.18
0.08
0.38
0.62
0.72
0.62
0.36
0.02
-0.29
-0.49
-0.55
-0.49
-0.34
-0.11
0.19
0.51
0.81
1.01
1.06
0.96
0.73
0.43
0.13
-0.12
-0.27
-0.30
-0.21
-0.02
0.19
0.34
0.37
0.28
0.12
-0.03
-0.16
-0.28
-0.43
-0.61
-0.78
-0.86
-0.79
-0.62
-0.44
-0.34
-0.37
-0.44
-0.46
-0.35
-0.12
0.14
0.32
0.38
0.32
0.21
0.08
-0.07
-0.26
-0.49
-0.70
-0.80
-0.69
-0.34
0.14
0.62
0.95
1.05
0.91
0.60
0.20
-0.19
-0.48
-0.61
-0.54
-0.30
0.03
0.35
0.57
0.67
0.69
0.67
0.65
0.65
0.62
0.55
0.44
0.32
0.22
0.18
0.15
0.09
-0.04
-0.25
-0.48
-0.62
-0.57
-0.33
0.02
0.33
0.44
0.28
-0.11
-0.59
-0.97
-1.14
-1.06
-0.79
-0.41
-0.02
0.33
0.58
0.72
0.73
0.62
0.46
0.27
0.12
0.02
-0.04
-0.07
-0.10
-0.13
-0.17
-0.23
-0.33
-0.45
-0.56
-0.59
-0.47
-0.15
0.32
0.83
1.22
1.37
1.24
0.90
0.48
0.12
-0.07
-0.11
-0.05
0.02
0.03
-0.03
-0.12
-0.21
-0.29
-0.38
-0.51
-0.68
-0.85
-0.93
-0.85
-0.58
-0.18
0.25
0.56
0.67
0.55
0.26
-0.05
-0.25
-0.27
-0.14
0.02
0.08
-0.03
-0.24
-0.45
-0.50
-0.36
-0.08
0.18
0.32
0.29
0.18
0.13
0.20
0.39
0.58
0.65
0.54
0.31
0.03
-0.21
-0.39
-0.54
-0.69
-0.83
-0.90
-0.86
-0.68
-0.43
-0.20
-0.06
-0.02
-0.05
-0.07
-0.05
0.02
0.14
0.25
0.34
0.37
0.38
0.35
0.29
0.23
0.13
-0.01
-0.20
-0.40
-0.58
-0.66
-0.58
-0.34
-0.00
0.34
0.57
0.64
0.58
0.47
0.42
0.47
0.59
0.72
0.78
0.75
0.67
0.60
0.57
0.58
0.59
0.56
0.48
0.38
0.28
0.18
0.06
-0.09
-0.29
-0.46
-0.55
-0.53
-0.44
-0.34
-0.33
-0.43
-0.62
-0.84
-1.01
-1.08
-1.03
-0.89
-0.67
-0.39
-0.04
0.37
0.77
1.11
1.30
1.30
1.09
0.78
0.46
0.25
0.19
0.27
0.43
0.58
0.66
0.66
0.59
0.47
0.31
0.14
-0.07
-0.31
-0.57
-0.81
-0.98
-1.01
-0.86
-0.55
-0.16
0.17
0.32
0.25
0.01
-0.28
-0.53
-0.69
-0.78
-0.81
-0.80
-0.72
-0.54
-0.30
-0.05
0.13
0.21
0.23
0.27
0.37
0.49
0.52
0.36
0.02
-0.40
-0.71
-0.80
-0.61
-0.26
0.07
0.24
0.19
-0.03
-0.29
-0.47
-0.51
-0.40
-0.24
-0.08
0.03
0.09
0.14
0.21
0.31
0.41
0.46
0.46
0.44
0.43
0.42
0.37
0.20
-0.11
-0.49
-0.80
-0.92
-0.79
-0.45
-0.05
0.25
0.37
0.33
0.18
0.02
-0.10
-0.17
-0.18
-0.10
0.10
0.44
0.87
1.29
1.56
1.59
1.38
1.03
0.69
0.51
0.58
0.87
1.30
1.71
1.97
2.00
1.82
1.52
1.18
0.89
0.64
0.42
0.21
-0.00
-0.17
-0.26
-0.29
-0.31
-0.39
-0.58
-0.84
-1.09
-1.25
-1.25
-1.10
-0.89
-0.72
-0.67
-0.77
-0.98
-1.26
-1.52
-1.72
-1.84
-1.87
-1.81
-1.64
-1.36
-0.97
-0.48
0.05
0.54
0.93
1.17
1.23
1.16
1.00
0.85
0.77
0.81
1.01
1.33
1.72
2.08
2.34
2.42
2.36
2.26
2.30
2.65
3.36
4.35
5.33
6.04
6.33
6.28
6.20
6.47
7.35
8.79
10.47
11.91
12.74
12.87
12.60
12.45
12.94
14.32
16.43
18.78
20.71
21.76
21.75
20.91
19.78
18.99
19.16
20.82
24.38
29.78
36.17
41.70
43.87
40.43
30.46
15.10
-2.75
-19.46
-32.20
-39.85
-43.05
-43.45
-42.58
-41.21
-39.34
-36.76
-33.56
-30.30
-27.72
-26.27
-25.86
-25.96
-25.93
-25.27
-23.91
-22.12
-20.37
-19.04
-18.31
-18.04
-17.88
-17.42
-16.36
-14.69
-12.60
-10.45
-8.58
-7.18
-6.23
-5.51
-4.73
-3.65
-2.19
-0.52
1.05
2.18
2.63
2.36
1.59
0.72
0.15
0.18
0.87
2.06
3.49
4.89
6.09
7.03
7.70
8.09
8.15
7.84
7.21
6.39
5.58
4.93
4.48
4.15
3.76
3.17
2.34
1.34
0.36
-0.46
-1.01
-1.31
-1.41
-1.42
-1.43
-1.48
-1.62
-1.83
-2.05
-2.18
-2.12
-1.80
-1.25
-0.62
-0.13
0.02
-0.29
-1.05
-2.12
-3.31
-4.48
-5.49
-6.34
-7.07
-7.74
-8.45
-9.21
-10.03
-10.83
-11.57
-12.20
-12.68
-12.99
-13.12
-13.01
-12.68
-12.12
-11.31
-10.17
-8.57
-6.39
-3.59
-0.34
3.03
6.12
8.64
10.51
11.90
13.10
14.37
15.81
17.29
18.60
19.49
19.80
19.58
18.94
18.07
17.07
15.92
14.57
12.96
11.14
9.26
7.52
6.06
4.90
3.97
3.21
2.59
2.22
2.23
2.68
3.51
4.51
5.41
5.99
6.11
5.78
5.10
4.19
3.19
2.23
1.42
0.83
0.45
0.24
0.04
-0.29
-0.85
-1.66
-2.60
-3.52
-4.24
-4.67
-4.82
-4.79
-4.70
-4.64
-4.63
-4.64
-4.55
-4.27
-3.69
-2.79
-1.63
-0.33
0.90
1.93
2.66
3.08
3.25
3.28
3.25
3.23
3.29
3.44
3.67
3.85
3.85
3.51
2.76
1.65
0.40
-0.77
-1.62
-2.07
-2.17
-2.09
-2.07
-2.29
-2.82
-3.62
-4.51
-5.28
-5.78
-5.98
-6.00
-6.05
-6.29
-6.80
-7.53
-8.29
-8.91
-9.25
-9.22
-8.77
-7.89
-6.55
-4.82
-2.87
-0.96
0.61
1.63
2.03
1.95
1.63
1.35
1.28
1.48
1.89
2.42
2.96
3.47
3.92
4.30
4.58
4.73
4.70
4.50
4.15
3.74
3.33
2.99
2.76
2.61
2.51
2.43
2.35
2.28
2.25
2.24
2.21
2.07
1.77
1.29
0.71
0.18
-0.15
-0.18
0.09
0.56
1.05
1.42
1.60
1.60
1.51
1.42
1.36
1.30
1.16
0.86
0.34
-0.37
-1.20
-2.07
-2.89
-3.62
-4.25
-4.74
-5.06
-5.19
-5.17
-5.07
-5.00
-5.03
-5.15
-5.28
-5.34
-5.28
-5.13
-4.98
-4.93
-5.04
-5.30
-5.64
-5.97
-6.21
-6.37
-6.47
-6.59
-6.79
-7.09
-7.47
-7.87
-8.23
-8.48
-8.61
-8.59
-8.37
-7.89
-7.08
-5.93
-4.55
-3.11
-1.79
-0.74
0.03
0.58
1.02
1.49
2.04
2.63
3.17
3.52
3.51
3.06
2.16
0.90
-0.48
-1.72
-2.57
-2.90
-2.75
-2.20
-1.36
-0.25
1.14
2.82
4.71
6.64
8.40
9.84
10.96
11.86
12.68
13.46
14.15
14.58
14.66
14.38
13.86
13.25
12.59
11.83
10.85
9.59
8.11
6.56
5.14
3.96
3.05
2.36
1.84
1.45
1.20
1.05
0.96
0.79
0.43
-0.19
-1.08
-2.14
-3.22
-4.15
-4.78
-5.03
-4.93
-4.58
-4.15
-3.81
-3.65
-3.65
-3.68
-3.60
-3.33
-2.91
-2.44
-2.07
-1.86
-1.85
-1.99
-2.22
-2.44
-2.43
-1.93
-0.61
1.67
4.78
8.26
11.41
13.64
14.60
14.33
13.22
11.74
10.30
9.11
8.23
7.59
7.10
6.69
6.27
5.74
4.96
3.83
2.31
0.45
-1.58
-3.56
-5.32
-6.76
-7.93
-8.95
-9.97
-11.03
-12.05
-12.80
-13.09
-12.83
-12.12
-11.21
-10.44
-10.04
-10.13
-10.63
-11.32
-11.95
-12.34
-12.45
-12.42
-12.52
-13.04
-14.15
-15.79
-17.62
-19.20
-20.15
-20.46
-20.53
-21.03
-22.55
-25.26
-28.74
-32.14
-34.58
-35.70
-35.87
-36.14
-37.70
-41.28
-46.68
-52.80
-58.16
-61.55
-62.66
-62.19
-61.45
-61.81
-64.23
-69.15
-76.51
-85.65
-94.86
-101.03
-99.98
-87.77
-62.61
-26.36
15.38
55.10
86.14
105.22
113.21
114.08
112.61
112.38
114.88
119.89
126.55
134.03
141.72
148.83
154.24
156.76
155.71
151.53
145.96
141.62
141.12
145.78
154.69
164.29
168.96
162.62
141.04
103.89
55.50
3.78
-42.34
-76.07
-94.79
-100.30
-97.25
-90.65
-83.90
-78.18
-73.11
-68.04
-62.98
-58.68
-55.98
-55.08
-55.22
-55.04
-53.35
-49.79
-44.97
-40.18
-36.60
-34.74
-34.19
-33.91
-32.75
-30.09
-26.05
-21.44
-17.28
-14.38
-13.00
-12.82
-13.13
-13.19
-12.47
-10.86
-8.62
-6.27
-4.36
-3.27
-3.06
-3.49
-4.15
-4.64
-4.66
-4.19
-3.40
-2.56
-1.97
-1.78
-2.02
-2.59
-3.33
-4.09
-4.77
-5.33
-5.72
-5.95
-6.01
-5.91
-5.70
-5.46
-5.27
-5.19
-5.22
-5.30
-5.36
-5.33
-5.16
-4.84
-4.33
-3.63
-2.75
-1.76
-0.78
0.05
0.62
0.88
0.87
0.70
0.51
0.39
0.37
0.45
0.58
0.68
0.70
0.59
0.33
0.01
-0.25
-0.29
0.00
0.65
1.53
2.47
3.26
3.80
4.09
4.21
4.27
4.32
4.30
4.10
3.60
2.81
1.85
0.92
0.19
-0.31
-0.64
-0.96
-1.37
-1.86
-2.29
-2.49
-2.37
-1.97
-1.49
-1.13
-1.04
-1.25
-1.69
-2.21
-2.69
-3.04
-3.20
-3.21
-3.08
-2.86
-2.58
-2.21
-1.72
-1.05
-0.14
1.01
2.32
3.68
4.93
5.97
6.77
7.36
7.78
8.07
8.21
8.20
8.01
7.68
7.23
6.71
6.10
5.39
4.56
3.65
2.77
2.03
1.45
0.91
0.18
-0.90
-2.29
-3.75
-4.88
-5.37
-5.17
-4.48
-3.65
-3.02
-2.74
-2.80
-3.04
-3.30
-3.48
-3.59
-3.64
-3.66
-3.66
-3.60
-3.48
-3.26
-2.96
-2.59
-2.23
-1.97
-1.88
-1.95
-2.06
-2.07
-1.84
-1.39
-0.84
-0.40
-0.24
-0.37
-0.69
-1.01
-1.17
-1.08
-0.77
-0.32
0.20
0.76
1.32
1.89
2.45
2.97
3.44
3.82
4.08
4.20
4.15
3.96
3.66
3.30
2.93
2.61
2.38
2.27
2.30
2.45
2.62
2.62
2.31
1.59
0.54
-0.64
-1.66
-2.30
-2.44
-2.10
-1.40
-0.53
0.38
1.24
1.97
2.53
2.86
2.93
2.74
2.35
1.83
1.28
0.77
0.34
-0.03
-0.38
-0.73
-1.10
-1.46
-1.78
-2.06
-2.30
-2.52
-2.75
-2.99
-3.21
-3.36
-3.41
-3.34
-3.17
-2.96
-2.76
-2.62
-2.56
-2.58
-2.65
-2.76
-2.88
-2.99
-3.05
-3.04
-2.90
-2.63
-2.30
-1.96
-1.73
-1.65
-1.73
-1.91
-2.12
-2.30
-2.37
-2.34
-2.19
-1.95
-1.66
-1.41
-1.24
-1.18
-1.17
-1.15
-1.02
-0.73
-0.32
0.15
0.58
0.90
1.07
1.11
1.02
0.80
0.43
-0.10
-0.72
-1.32
-1.75
-1.93
-1.84
-1.56
-1.17
-0.72
-0.22
0.35
0.92
1.38
1.56
1.33
0.70
-0.20
-1.15
-1.94
-2.50
-2.81
-2.96
-3.00
-2.95
-2.80
-2.56
-2.29
-2.10
-2.06
-2.24
-2.55
-2.88
-3.06
-2.98
-2.61
-2.03
-1.35
-0.70
-0.19
0.13
0.25
0.21
0.10
-0.00
-0.03
0.07
0.28
0.61
1.03
1.50
2.00
2.50
2.97
3.38
3.72
3.99
4.21
4.39
4.53
4.63
4.70
4.78
4.86
4.95
4.95
4.82
4.54
4.14
3.74
3.44
3.29
3.24
3.17
3.00
2.69
2.29
1.95
1.78
1.84
2.07
2.35
2.52
2.51
2.29
1.95
1.60
1.34
1.19
1.09
0.95
0.70
0.37
0.05
-0.12
-0.10
0.08
0.27
0.37
0.36
0.30
0.32
0.45
0.61
0.61
0.30
-0.30
-1.05
-1.68
-2.03
-2.10
-2.01
-1.89
-1.81
-1.73
-1.56
-1.28
-0.94
-0.67
-0.56
-0.59
-0.70
-0.77
-0.71
-0.56
-0.40
-0.31
-0.36
-0.53
-0.75
-0.94
-1.05
-1.01
-0.82
-0.49
-0.06
0.37
0.68
0.77
0.63
0.35
0.07
-0.05
0.03
0.24
0.45
0.51
0.41
0.23
0.08
0.05
0.16
0.31
0.39
0.34
0.15
-0.12
-0.38
-0.54
-0.54
-0.32
0.10
0.63
1.12
1.40
1.39
1.09
0.64
0.20
-0.10
-0.18
-0.10
0.07
0.24
0.35
0.39
0.35
0.23
0.05
-0.11
-0.17
-0.05
0.29
0.75
1.20
1.48
1.53
1.35
1.06
0.77
0.54
0.37
0.24
0.09
-0.04
-0.12
-0.13
-0.08
-0.08
-0.22
-0.55
-1.04
-1.55
-1.93
-2.06
-1.94
-1.69
-1.48
-1.44
-1.63
-1.98
-2.36
-2.63
-2.69
-2.53
-2.19
-1.75
-1.33
-0.99
-0.78
-0.72
-0.79
-0.93
-1.05
-1.05
-0.87
-0.49
0.02
0.55
0.96
1.16
1.14
0.98
0.80
0.67
0.62
0.59
0.48
0.25
-0.03
-0.22
-0.17
0.16
0.66
1.11
1.26
1.01
0.45
-0.22
-0.74
-1.00
-1.01
-0.88
-0.73
-0.61
-0.53
-0.47
-0.44
-0.47
-0.59
-0.75
-0.91
-1.00
-1.03
-1.03
-1.01
-0.98
-0.86
-0.60
-0.21
0.25
0.63
0.85
0.88
0.80
0.71
0.71
0.84
1.08
1.36
1.55
1.57
1.39
1.06
0.68
0.38
0.23
0.22
0.27
0.28
0.24
0.20
0.27
0.50
0.86
1.21
1.37
1.22
0.80
0.24
-0.24
-0.46
-0.36
-0.03
0.38
0.68
0.73
0.52
0.16
-0.21
-0.45
-0.49
-0.37
-0.19
-0.08
-0.06
-0.10
-0.13
-0.05
0.16
0.46
0.72
0.86
0.85
0.70
0.49
0.28
0.11
-0.05
-0.16
-0.20
-0.13
0.07
0.37
0.65
0.76
0.59
0.14
-0.46
-1.05
-1.49
-1.72
-1.78
-1.80
-1.89
-2.08
-2.35
-2.59
-2.71
-2.67
-2.50
-2.29
-2.11
-2.02
-2.00
-2.03
-2.07
-2.12
-2.20
-2.32
-2.48
-2.61
-2.67
-2.61
-2.46
-2.28
-2.15
-2.09
-2.13
-2.26
-2.46
-2.73
-3.07
-3.44
-3.84
-4.26
-4.74
-5.31
-5.98
-6.69
-7.33
-7.74
-7.81
-7.52
-6.95
-6.21
-5.46
-4.76
-4.14
-3.54
-2.88
-2.16
-1.40
-0.68
-0.04
0.52
1.04
1.54
1.97
2.17
1.96
1.26
0.18
-0.96
-1.76
-1.93
-1.40
-0.37
0.83
1.83
2.44
2.66
2.60
2.44
2.30
2.14
1.89
1.42
0.68
-0.30
-1.40
-2.54
-3.60
-4.55
-5.36
-6.06
-6.69
-7.31
-7.99
-8.86
-10.00
-11.40
-12.85
-13.87
-13.84
-12.15
-8.50
-3.11
3.34
9.82
15.40
19.51
22.04
23.25
23.54
23.23
22.47
21.35
19.98
18.60
17.46
16.76
16.50
16.47
16.39
15.98
15.11
13.81
12.30
10.85
9.72
9.05
8.82
8.90
9.05
9.12
9.10
9.14
9.39
9.89
10.45
10.74
10.53
9.82
8.80
7.67
6.36
4.49
1.62
-2.36
-7.04
-11.54
-14.95
-16.77
-17.14
-16.60
-15.66
-14.48
-12.89
-10.62
-7.68
-4.45
-1.50
0.69
1.96
2.48
2.59
2.62
2.77
3.11
3.68
4.48
5.47
6.58
7.65
8.47
8.79
8.39
7.16
5.19
2.82
0.52
-1.20
-2.05
-2.03
-1.45
-0.73
-0.25
-0.21
-0.62
-1.46
-2.70
-4.31
-6.16
-7.99
-9.48
-10.34
-10.47
-10.02
-9.26
-8.49
-7.89
-7.44
-7.07
-6.66
-6.21
-5.78
-5.44
-5.23
-5.12
-5.02
-4.86
-4.62
-4.31
-4.02
-3.78
-3.59
-3.34
-2.92
-2.25
-1.38
-0.44
0.33
0.77
0.83
0.60
0.27
0.04
-0.00
0.12
0.34
0.55
0.67
0.70
0.67
0.61
0.57
0.54
0.48
0.35
0.13
-0.13
-0.32
-0.32
-0.08
0.35
0.80
1.07
1.04
0.73
0.29
-0.10
-0.29
-0.26
-0.09
0.06
0.06
-0.14
-0.50
-0.91
-1.21
-1.30
-1.11
-0.69
-0.14
0.39
0.80
1.01
1.03
0.87
0.60
0.25
-0.15
-0.53
-0.83
-0.95
-0.86
-0.59
-0.24
0.05
0.18
0.09
-0.17
-0.50
-0.81
-1.00
-1.05
-0.96
-0.74
-0.47
-0.23
-0.08
-0.08
-0.18
-0.28
-0.28
-0.16
0.04
0.22
0.29
0.24
0.11
-0.01
-0.07
-0.08
-0.05
-0.02
0.04
0.14
0.28
0.41
0.48
0.42
0.26
0.06
-0.09
-0.15
-0.14
-0.13
-0.15
-0.21
-0.26
-0.22
-0.05
0.21
0.47
0.63
0.67
0.62
0.56
0.54
0.57
0.58
0.51
0.34
0.10
-0.10
-0.19
-0.16
-0.05
0.04
0.03
-0.09
-0.28
-0.45
-0.56
-0.56
-0.47
-0.32
-0.13
0.08
0.29
0.44
0.47
0.28
-0.13
-0.65
-1.09
-1.25
-1.05
-0.55
0.04
0.50
0.71
0.70
0.60
0.58
0.72
0.98
1.23
1.37
1.34
1.18
0.97
0.76
0.55
0.30
-0.02
-0.38
-0.72
-0.95
-1.01
-0.92
-0.76
-0.63
-0.58
-0.62
-0.67
-0.69
-0.63
-0.50
-0.35
-0.20
-0.11
-0.11
-0.22
-0.46
-0.79
-1.12
-1.33
-1.33
-1.11
-0.76
-0.41
-0.17
-0.10
-0.14
-0.21
-0.26
-0.24
-0.16
-0.01
0.20
0.48
0.77
0.98
0.98
0.71
0.20
-0.38
-0.85
-1.08
-1.08
-0.97
-0.86
-0.82
-0.79
-0.65
-0.32
0.16
0.65
0.93
0.89
0.55
0.07
-0.36
-0.56
-0.47
-0.14
0.31
0.74
1.07
1.23
1.22
1.05
0.77
0.45
0.16
0.02
0.08
0.32
0.66
0.95
1.06
0.95
0.69
0.42
0.28
0.34
0.53
0.73
0.79
0.65
0.34
-0.06
-0.40
-0.59
-0.59
-0.43
-0.17
0.07
0.24
0.30
0.24
0.11
-0.05
-0.23
-0.44
-0.65
-0.83
-0.90
-0.81
-0.58
-0.30
-0.10
-0.05
-0.15
-0.28
-0.32
-0.19
0.07
0.36
0.57
0.66
0.70
0.77
0.90
1.05
1.12
1.03
0.78
0.46
0.20
0.09
0.13
0.26
0.36
0.35
0.24
0.08
-0.03
-0.04
0.03
0.12
0.17
0.14
0.06
-0.04
-0.13
-0.20
-0.24
-0.25
-0.19
-0.02
0.28
0.66
1.02
1.24
1.22
0.93
0.45
-0.12
-0.65
-1.03
-1.20
-1.15
-0.91
-0.53
-0.09
0.32
0.64
0.85
0.92
0.90
0.81
0.66
0.47
0.23
-0.04
-0.31
-0.51
-0.62
-0.63
-0.57
-0.49
-0.43
-0.39
-0.36
-0.31
-0.22
-0.12
-0.04
0.01
0.02
0.03
0.09
0.18
0.28
0.35
0.39
0.42
0.49
0.62
0.74
0.77
0.63
0.34
-0.01
-0.30
-0.42
-0.36
-0.18
0.01
0.14
0.18
0.15
0.06
-0.07
-0.28
-0.53
-0.82
-1.07
-1.24
-1.29
-1.19
-0.99
-0.75
-0.53
-0.41
-0.40
-0.42
-0.39
-0.23
0.04
0.31
0.44
0.36
0.11
-0.14
-0.23
-0.10
0.17
0.42
0.50
0.37
0.14
-0.07
-0.14
-0.08
0.04
0.12
0.10
-0.01
-0.15
-0.24
-0.25
-0.17
-0.04
0.14
0.32
0.51
0.68
0.80
0.86
0.88
0.87
0.88
0.89
0.87
0.75
0.50
0.15
-0.21
-0.48
-0.59
-0.55
-0.42
-0.30
-0.22
-0.15
-0.05
0.11
0.30
0.46
0.50
0.37
0.08
-0.30
-0.69
-0.99
-1.15
-1.16
-1.03
-0.81
-0.51
-0.17
0.21
0.58
0.89
1.07
1.09
0.93
0.63
0.30
0.02
-0.15
-0.21
-0.22
-0.24
-0.31
-0.39
-0.41
-0.30
-0.08
0.18
0.36
0.39
0.28
0.13
0.06
0.13
0.31
0.50
0.57
0.47
0.20
-0.14
-0.47
-0.72
-0.87
-0.95
-0.96
-0.93
-0.82
-0.64
-0.37
-0.06
0.27
0.52
0.63
0.58
0.37
0.08
-0.15
-0.25
-0.14
0.14
0.52
0.89
1.14
1.17
0.99
0.66
0.31
0.06
-0.03
-0.01
-0.00
-0.12
-0.41
-0.78
-1.07
-1.14
-0.98
-0.65
-0.32
-0.08
0.03
0.04
-0.01
-0.10
-0.26
-0.48
-0.71
-0.88
-0.94
-0.87
-0.69
-0.45
-0.21
0.01
0.19
0.30
0.34
0.32
0.27
0.25
0.31
0.43
0.56
0.62
0.56
0.44
0.37
0.45
0.74
1.16
1.59
1.89
2.00
1.95
1.81
1.67
1.55
1.42
1.27
1.10
0.97
0.94
1.01
1.12
1.15
1.06
0.85
0.62
0.49
0.49
0.58
0.64
0.54
0.21
-0.30
-0.89
-1.42
-1.77
-1.88
-1.76
-1.48
-1.15
-0.86
-0.71
-0.72
-0.87
-1.08
-1.26
-1.34
-1.23
-0.91
-0.45
0.06
0.48
0.69
0.64
0.39
0.07
-0.21
-0.35
-0.33
-0.20
0.00
0.21
0.39
0.51
0.59
0.67
0.77
0.95
1.19
1.49
1.77
1.97
2.04
2.00
1.85
1.66
1.44
1.22
1.03
0.91
0.89
0.96
1.04
0.99
0.72
0.20
-0.50
-1.22
-1.79
-2.10
-2.14
-1.98
-1.74
-1.50
-1.31
-1.15
-1.00
-0.85
-0.75
-0.73
-0.83
-1.04
-1.29
-1.47
-1.49
-1.28
-0.89
-0.39
0.09
0.44
0.62
0.62
0.48
0.25
-0.01
-0.30
-0.61
-0.94
-1.25
-1.48
-1.57
-1.49
-1.28
-1.01
-0.76
-0.56
-0.41
-0.24
-0.01
0.23
0.41
0.45
0.29
-0.00
-0.34
-0.60
-0.74
-0.76
-0.73
-0.72
-0.74
-0.76
-0.74
-0.67
-0.56
-0.46
-0.40
-0.39
-0.38
-0.31
-0.16
0.05
0.26
0.36
0.25
-0.10
-0.63
-1.17
-1.56
-1.69
-1.59
-1.41
-1.32
-1.44
-1.71
-1.98
-2.10
-2.00
-1.72
-1.39
-1.08
-0.81
-0.51
-0.11
0.38
0.87
1.25
1.47
1.54
1.53
1.53
1.58
1.70
1.87
2.05
2.20
2.26
2.18
1.94
1.55
1.12
0.77
0.61
0.67
0.89
1.13
1.23
1.12
0.82
0.41
0.05
-0.19
-0.24
-0.18
-0.05
0.05
0.12
0.17
0.24
0.35
0.49
0.63
0.69
0.66
0.53
0.34
0.14
-0.00
-0.03
0.06
0.27
0.59
0.96
1.37
1.75
2.08
2.31
2.45
2.53
2.58
2.65
2.72
2.76
2.74
2.69
2.65
2.73
3.00
3.45
4.02
4.59
5.06
5.39
5.59
5.67
5.64
5.49
5.22
4.85
4.45
4.07
3.76
3.49
3.16
2.70
2.03
1.17
0.24
-0.62
-1.30
-1.78
-2.15
-2.53
-3.02
-3.66
-4.37
-5.05
-5.57
-5.88
-5.98
-5.96
-5.88
-5.82
-5.78
-5.73
-5.60
-5.35
-4.96
-4.50
-4.06
-3.73
-3.55
-3.50
-3.46
-3.35
-3.12
-2.76
-2.34
-1.93
-1.58
-1.26
-0.98
-0.72
-0.53
-0.43
-0.47
-0.58
-0.69
-0.70
-0.56
-0.31
-0.05
0.13
0.16
0.03
-0.20
-0.43
-0.59
-0.65
-0.61
-0.50
-0.34
-0.14
0.09
0.35
0.63
0.88
1.05
1.07
0.92
0.61
0.21
-0.21
-0.55
-0.78
-0.87
-0.81
-0.63
-0.36
-0.05
0.26
0.55
0.80
1.00
1.11
1.10
0.95
0.68
0.36
0.11
0.01
0.11
0.37
0.70
1.01
1.23
1.33
1.35
1.29
1.20
1.07
0.87
0.59
0.23
-0.19
-0.60
-0.92
-1.10
-1.11
-0.99
-0.79
-0.58
-0.42
-0.36
-0.40
-0.53
-0.72
-0.92
-1.07
-1.11
-1.02
-0.82
-0.58
-0.36
-0.25
-0.28
-0.44
-0.66
-0.89
-1.06
-1.17
-1.24
-1.31
-1.39
-1.50
-1.62
-1.74
-1.84
-1.92
-1.96
-1.95
-1.88
-1.73
-1.52
-1.28
-1.04
-0.86
-0.78
-0.79
-0.89
-1.05
-1.26
-1.48
-1.68
-1.80
-1.76
-1.53
-1.12
-0.62
-0.15
0.15
0.28
0.30
0.35
0.53
0.86
1.24
1.51
1.54
1.29
0.83
0.31
-0.10
-0.34
-0.43
-0.46
-0.52
-0.62
-0.71
-0.70
-0.54
-0.26
0.06
0.30
0.40
0.34
0.16
-0.06
-0.25
-0.33
-0.23
0.06
0.52
1.05
1.55
1.90
2.07
2.06
1.92
1.74
1.58
1.53
1.63
1.88
2.20
2.46
2.53
2.35
1.90
1.30
0.68
0.16
-0.17
-0.30
-0.28
-0.21
-0.16
-0.21
-0.36
-0.55
-0.69
-0.70
-0.55
-0.29
0.01
0.25
0.39
0.41
0.34
0.19
-0.01
-0.22
-0.38
-0.45
-0.42
-0.34
-0.25
-0.16
-0.05
0.15
0.47
0.87
1.23
1.41
1.38
1.21
1.06
1.09
1.37
1.79
2.16
2.32
2.21
1.88
1.47
1.14
0.93
0.86
0.86
0.88
0.88
0.84
0.76
0.66
0.55
0.45
0.37
0.33
0.31
0.33
0.40
0.53
0.71
0.92
1.06
1.09
0.96
0.69
0.34
-0.06
-0.52
-1.04
-1.60
-2.11
-2.46
-2.57
-2.44
-2.17
-1.88
-1.70
-1.66
-1.73
-1.86
-1.97
-2.02
-2.00
-1.88
-1.66
-1.34
-0.97
-0.62
-0.36
-0.24
-0.27
-0.40
-0.56
-0.65
-0.60
-0.41
-0.13
0.16
0.37
0.47
0.50
0.52
0.55
0.61
0.67
0.72
0.78
0.87
1.02
1.20
1.32
1.34
1.25
1.10
0.97
0.89
0.88
0.89
0.90
0.90
0.93
0.98
1.02
1.00
0.85
0.57
0.18
-0.22
-0.55
-0.77
-0.88
-0.94
-0.98
-1.08
-1.23
-1.41
-1.61
-1.79
-1.92
-1.98
-1.95
-1.82
-1.62
-1.41
-1.24
-1.10
-0.99
-0.88
-0.78
-0.71
-0.72
-0.81
-0.94
-1.08
-1.19
-1.31
-1.48
-1.71
-1.98
-2.17
-2.22
-2.11
-1.95
-1.91
-2.09
-2.51
-3.07
-3.63
-4.11
-4.47
-4.74
-4.98
-5.23
-5.54
-5.92
-6.36
-6.84
-7.27
-7.54
-7.54
-7.21
-6.54
-5.58
-4.46
-3.33
-2.30
-1.47
-0.83
-0.32
0.20
0.90
1.90
3.22
4.77
6.37
7.84
9.03
9.85
10.31
10.47
10.40
10.19
9.92
9.67
9.56
9.65
9.95
10.37
10.73
10.79
10.35
9.34
7.84
6.04
4.21
2.52
1.06
-0.23
-1.48
-2.77
-4.03
-5.08
-5.68
-5.71
-5.26
-4.65
-4.29
-4.50
-5.28
-6.40
-7.46
-8.17
-8.46
-8.53
-8.65
-9.02
-9.62
-10.22
-10.54
-10.40
-9.79
-8.85
-7.82
-6.85
-6.04
-5.38
-4.84
-4.37
-3.96
-3.61
-3.34
-3.06
-2.62
-1.78
-0.36
1.70
4.23
6.86
9.16
10.74
11.47
11.40
10.77
9.87
8.90
8.00
7.19
6.50
5.98
5.67
5.55
5.56
5.55
5.40
5.06
4.57
4.05
3.63
3.38
3.31
3.35
3.40
3.35
3.20
2.97
2.74
2.55
2.39
2.23
1.97
1.54
0.91
0.14
-0.63
-1.23
-1.50
-1.38
-0.96
-0.37
0.22
0.65
0.86
0.83
0.59
0.19
-0.28
-0.70
-0.98
-1.01
-0.78
-0.35
0.12
0.48
0.60
0.46
0.10
-0.37
-0.84
-1.22
-1.46
-1.55
-1.52
-1.39
-1.18
-0.93
-0.68
-0.48
-0.37
-0.34
-0.37
-0.35
-0.24
0.00
0.35
0.72
1.01
1.14
1.09
0.92
0.69
0.49
0.39
0.39
0.45
0.50
0.43
0.18
-0.19
-0.59
-0.86
-0.88
-0.64
-0.27
0.06
0.21
0.14
-0.04
-0.20
-0.19
-0.00
0.28
0.53
0.65
0.61
0.49
0.40
0.42
0.54
0.71
0.83
0.81
0.65
0.37
0.05
-0.26
-0.47
-0.55
-0.49
-0.29
-0.02
0.25
0.43
0.47
0.40
0.26
0.12
0.01
-0.11
-0.26
-0.47
-0.71
-0.90
-1.01
-1.01
-0.95
-0.88
-0.85
-0.85
-0.81
-0.70
-0.47
-0.17
0.13
0.35
0.43
0.42
0.39
0.42
0.53
0.67
0.75
0.70
0.54
0.35
0.23
0.21
0.25
0.24
0.09
-0.22
-0.59
-0.90
-1.06
-1.03
-0.88
-0.71
-0.62
-0.63
-0.71
-0.78
-0.75
-0.55
-0.21
0.19
0.52
0.69
0.65
0.44
0.17
-0.06
-0.22
-0.31
-0.39
-0.48
-0.59
-0.68
-0.70
-0.61
-0.41
-0.13
0.22
0.61
1.02
1.40
1.68
1.78
1.66
1.33
0.88
0.41
0.01
-0.29
-0.48
-0.59
-0.63
-0.63
-0.58
-0.52
-0.49
-0.51
-0.56
-0.59
-0.54
-0.38
-0.15
0.08
0.25
0.33
0.36
0.40
0.47
0.54
0.56
0.43
0.17
-0.20
-0.57
-0.85
-1.00
-1.03
-0.99
-0.92
-0.85
-0.76
-0.63
-0.46
-0.27
-0.10
0.04
0.12
0.17
0.18
0.15
0.09
-0.01
-0.14
-0.25
-0.29
-0.26
-0.17
-0.07
0.00
0.05
0.13
0.27
0.49
0.75
0.98
1.09
1.06
0.89
0.65
0.38
0.14
-0.02
-0.08
-0.04
0.06
0.16
0.17
0.06
-0.12
-0.28
-0.34
-0.26
-0.09
0.09
0.18
0.14
-0.01
-0.20
-0.38
-0.49
-0.50
-0.40
-0.18
0.13
0.45
0.70
0.82
0.80
0.68
0.53
0.40
0.31
0.28
0.29
0.35
0.44
0.54
0.63
0.68
0.68
0.61
0.49
0.37
0.30
0.34
0.50
0.73
0.93
0.96
0.75
0.33
-0.16
-0.55
-0.73
-0.70
-0.60
-0.53
-0.56
-0.63
-0.64
-0.51
-0.25
0.02
0.15
0.07
-0.20
-0.54
-0.80
-0.90
-0.86
-0.76
-0.69
-0.67
-0.65
-0.55
-0.36
-0.13
0.03
0.01
-0.23
-0.60
-0.97
-1.24
-1.34
-1.25
-1.01
-0.63
-0.13
0.41
0.87
1.12
1.07
0.73
0.24
-0.19
-0.41
-0.34
-0.04
0.33
0.63
0.76
0.74
0.63
0.51
0.45
0.43
0.45
0.48
0.50
0.52
0.54
0.52
0.43
0.26
0.00
-0.26
-0.43
-0.48
-0.38
-0.21
-0.05
0.03
0.02
-0.05
-0.13
-0.17
-0.17
-0.12
-0.04
0.09
0.25
0.45
0.64
0.77
0.79
0.67
0.46
0.23
0.07
0.03
0.14
0.32
0.52
0.65
0.72
0.73
0.73
0.69
0.58
0.31
-0.13
-0.68
-1.21
-1.54
-1.58
-1.35
-0.97
-0.60
-0.39
-0.38
-0.51
-0.68
-0.79
-0.76
-0.60
-0.33
-0.02
0.27
0.45
0.48
0.31
-0.01
-0.40
-0.71
-0.83
-0.68
-0.29
0.25
0.76
1.10
1.15
0.94
0.55
0.14
-0.17
-0.32
-0.35
-0.32
-0.29
-0.27
-0.23
-0.13
0.03
0.22
0.34
0.35
0.27
0.19
0.19
0.31
0.50
0.68
0.75
0.69
0.52
0.29
0.06
-0.14
-0.29
-0.40
-0.50
-0.64
-0.83
-1.04
-1.18
-1.14
-0.82
-0.26
0.44
1.08
1.48
1.55
1.31
0.90
0.44
0.08
-0.16
-0.27
-0.30
-0.28
-0.25
-0.22
-0.22
-0.28
-0.36
-0.43
-0.44
-0.35
-0.21
-0.07
0.01
-0.03
-0.16
-0.29
-0.34
-0.29
-0.17
-0.09
-0.14
-0.33
-0.61
-0.84
-0.88
-0.68
-0.31
0.11
0.43
0.58
0.55
0.40
0.22
0.04
-0.10
-0.21
-0.26
-0.19
0.02
0.34
0.69
0.95
1.02
0.85
0.47
0.00
-0.41
-0.66
-0.70
-0.57
-0.36
-0.19
-0.13
-0.19
-0.31
-0.41
-0.44
-0.41
-0.33
-0.24
-0.12
0.05
0.30
0.59
0.81
0.87
0.72
0.39
0.03
-0.24
-0.30
-0.14
0.16
0.51
0.80
1.00
1.10
1.08
0.96
0.76
0.53
0.34
0.28
0.39
0.62
0.85
0.97
0.88
0.60
0.25
-0.05
-0.22
-0.25
-0.21
-0.18
-0.19
-0.22
-0.22
-0.18
-0.10
-0.04
-0.06
-0.16
-0.33
-0.51
-0.65
-0.69
-0.63
-0.47
-0.26
-0.05
0.13
0.22
0.20
0.03
-0.29
-0.69
-1.10
-1.38
-1.46
-1.29
-0.92
-0.45
-0.02
0.30
0.49
0.58
0.65
0.75
0.88
1.00
1.01
0.86
0.56
0.21
-0.08
-0.19
-0.10
0.09
0.27
0.34
0.25
0.08
-0.08
-0.16
-0.13
-0.03
0.06
0.10
0.06
-0.03
-0.17
-0.35
-0.55
-0.73
-0.85
-0.84
-0.68
-0.39
-0.03
0.29
0.48
0.49
0.35
0.17
0.05
0.08
0.25
0.48
0.63
0.61
0.38
0.02
-0.37
-0.68
-0.86
-0.94
-0.97
-0.98
-1.01
-1.03
-1.02
-0.91
-0.65
-0.23
0.28
0.78
1.13
1.22
1.04
0.68
0.29
0.01
-0.12
-0.15
-0.13
-0.14
-0.17
-0.18
-0.14
-0.05
0.02
0.03
-0.03
-0.10
-0.11
0.02
0.29
0.64
0.93
1.08
1.05
0.86
0.61
0.36
0.15
-0.01
-0.16
-0.30
-0.38
-0.33
-0.14
0.17
0.49
0.65
0.57
0.24
-0.24
-0.71
-1.02
-1.10
-0.98
-0.76
-0.57
-0.48
-0.50
-0.60
-0.68
-0.69
-0.58
-0.38
-0.13
0.10
0.25
0.31
0.29
0.22
0.13
0.01
-0.14
-0.35
-0.60
-0.88
-1.12
-1.27
-1.29
-1.16
-0.90
-0.58
-0.23
0.08
0.31
0.41
0.39
0.27
0.12
0.04
0.09
0.31
0.62
0.91
1.07
1.08
0.98
0.89
0.88
0.95
1.00
0.95
0.79
0.61
0.52
0.62
0.89
1.18
1.35
1.32
1.12
0.88
0.71
0.63
0.59
0.49
0.28
-0.01
-0.28
-0.43
-0.46
-0.42
-0.44
-0.60
-0.91
-1.28
-1.56
-1.65
-1.50
-1.15
-0.75
-0.42
-0.25
-0.25
-0.35
-0.46
-0.49
-0.42
-0.29
-0.16
-0.09
-0.12
-0.27
-0.50
-0.76
-0.99
-1.11
-1.07
-0.86
-0.54
-0.20
0.04
0.15
0.14
0.11
0.14
0.29
0.53
0.79
0.96
1.01
0.97
0.92
0.92
0.97
1.02
0.95
0.71
0.32
-0.14
-0.54
-0.80
-0.91
-0.89
-0.80
-0.66
-0.49
-0.28
-0.04
0.19
0.37
0.50
0.59
0.69
0.82
0.96
1.07
1.08
0.96
0.72
0.39
0.05
-0.21
-0.33
-0.28
-0.12
0.07
0.20
0.23
0.21
0.23
0.35
0.59
0.88
1.12
1.26
1.33
1.43
1.63
1.96
2.34
2.68
2.85
2.84
2.71
2.59
2.56
2.67
2.88
3.05
3.05
2.74
2.10
1.18
0.21
-0.56
-0.91
-0.76
-0.24
0.44
1.00
1.31
1.41
1.44
1.58
1.90
2.38
2.91
3.41
3.84
4.18
4.34
4.16
3.48
2.23
0.58
-1.14
-2.56
-3.44
-3.79
-3.87
-3.95
-4.22
-4.64
-5.05
-5.29
-5.29
-5.13
-4.97
-4.90
-4.96
-5.10
-5.27
-5.45
-5.65
-5.88
-6.10
-6.19
-6.01
-5.45
-4.50
-3.21
-1.74
-0.22
1.20
2.41
3.36
4.01
4.34
4.40
4.24
3.96
3.65
3.37
3.11
2.85
2.51
2.08
1.55
1.03
0.61
0.35
0.27
0.31
0.38
0.39
0.31
0.19
0.07
-0.01
-0.07
-0.16
-0.31
-0.50
-0.68
-0.77
-0.71
-0.51
-0.19
0.14
0.42
0.56
0.54
0.37
0.12
-0.15
-0.37
-0.50
-0.53
-0.49
-0.43
-0.36
-0.31
-0.29
-0.29
-0.32
-0.38
-0.45
-0.49
-0.48
-0.43
-0.38
-0.39
-0.49
-0.70
-1.00
-1.34
-1.64
-1.85
-1.90
-1.76
-1.42
-0.95
-0.45
-0.05
0.19
0.24
0.21
0.18
0.23
0.35
0.47
0.51
0.43
0.29
0.16
0.10
0.12
0.15
0.14
0.05
-0.08
-0.20
-0.27
-0.30
-0.36
-0.46
-0.60
-0.67
-0.59
-0.32
0.07
0.47
0.72
0.75
0.58
0.27
-0.07
-0.40
-0.70
-0.92
-1.04
-0.99
-0.77
-0.43
-0.08
0.16
0.24
0.18
0.08
0.05
0.17
0.41
0.66
0.80
0.75
0.50
0.14
-0.17
-0.34
-0.34
-0.21
-0.06
0.02
0.03
0.01
0.03
0.11
0.23
0.32
0.34
0.30
0.22
0.16
0.15
0.19
0.27
0.38
0.50
0.56
0.49
0.26
-0.15
-0.62
-1.04
-1.26
-1.22
-0.96
-0.57
-0.18
0.16
0.39
0.51
0.51
0.40
0.21
-0.02
-0.21
-0.32
-0.32
-0.26
-0.17
-0.11
-0.07
-0.04
0.01
0.10
0.25
0.45
0.68
0.91
1.07
1.11
0.95
0.60
0.12
-0.35
-0.65
-0.70
-0.50
-0.21
0.02
0.06
-0.09
-0.33
-0.51
-0.54
-0.41
-0.20
0.01
0.15
0.20
0.22
0.22
0.24
0.27
0.32
0.38
0.43
0.45
0.39
0.26
0.08
-0.07
-0.11
0.01
0.28
0.58
0.80
0.86
0.72
0.46
0.14
-0.14
-0.31
-0.37
-0.33
-0.19
-0.00
0.20
0.35
0.40
0.32
0.15
-0.04
-0.18
-0.22
-0.21
-0.19
-0.22
-0.27
-0.29
-0.22
-0.09
0.03
0.07
-0.00
-0.13
-0.20
-0.18
-0.08
-0.01
-0.06
-0.25
-0.51
-0.72
-0.79
-0.69
-0.50
-0.32
-0.23
-0.25
-0.35
-0.47
-0.61
-0.75
-0.91
-1.06
-1.15
-1.11
-0.90
-0.57
-0.22
0.03
0.13
0.14
0.13
0.20
0.35
0.54
0.69
0.74
0.70
0.59
0.47
0.39
0.35
0.36
0.40
0.46
0.52
0.54
0.52
0.46
0.37
0.26
0.14
0.03
-0.06
-0.11
-0.08
0.04
0.23
0.42
0.57
0.60
0.48
0.21
-0.16
-0.54
-0.83
-0.95
-0.87
-0.63
-0.29
0.04
0.28
0.37
0.29
0.09
-0.16
-0.35
-0.40
-0.28
-0.05
0.19
0.35
0.36
0.22
-0.05
-0.38
-0.71
-0.97
-1.08
-0.97
-0.67
-0.26
0.10
0.25
0.16
-0.09
-0.33
-0.38
-0.16
0.25
0.68
0.91
0.83
0.45
-0.07
-0.58
-0.95
-1.16
-1.27
-1.37
-1.52
-1.71
-1.92
-2.11
-2.25
-2.32
-2.31
-2.22
-2.06
-1.83
-1.57
-1.29
-1.01
-0.76
-0.55
-0.36
-0.13
0.26
0.98
2.10
3.51
4.93
6.01
6.49
6.36
5.84
5.31
5.07
5.23
5.68
6.18
6.46
6.32
5.68
4.55
3.08
1.51
0.08
-1.03
-1.77
-2.26
-2.65
-2.99
-3.23
-3.18
-2.76
-2.06
-1.37
-1.01
-1.13
-1.65
-2.31
-2.87
-3.22
-3.43
-3.57
-3.63
-3.45
-2.88
-1.87
-0.58
0.70
1.70
2.29
2.49
2.42
2.14
1.65
0.94
0.03
-0.95
-1.80
-2.41
-2.73
-2.88
-2.98
-3.12
-3.28
-3.39
-3.38
-3.23
-2.97
-2.66
-2.38
-2.13
-1.90
-1.68
-1.46
-1.25
-1.05
-0.86
-0.67
-0.45
-0.19
0.07
0.27
0.35
0.23
-0.07
-0.45
-0.74
-0.80
-0.60
-0.20
0.21
0.47
0.51
0.37
0.13
-0.09
-0.23
-0.25
-0.10
0.28
0.93
1.83
2.90
4.02
5.08
6.03
6.87
7.59
8.15
8.45
8.38
7.91
7.07
5.97
4.74
3.48
2.27
1.14
0.14
-0.65
-1.18
-1.45
-1.51
-1.44
-1.39
-1.44
-1.60
-1.82
-1.97
-1.94
-1.69
-1.29
-0.90
-0.76
-1.03
-1.72
-2.68
-3.61
-4.22
-4.31
-3.90
-3.16
-2.35
-1.74
-1.47
-1.61
-2.11
-2.86
-3.73
-4.56
-5.21
-5.59
-5.72
-5.69
-5.63
-5.68
-5.84
-6.04
-6.13
-6.03
-5.72
-5.29
-4.85
-4.44
-4.05
-3.61
-3.05
-2.37
-1.61
-0.84
-0.09
0.64
1.35
2.05
2.72
3.34
3.89
4.38
4.82
5.22
5.56
5.82
6.01
6.17
6.37
6.64
6.99
7.38
7.75
8.11
8.51
9.04
9.74
10.59
11.45
12.11
12.40
12.19
11.49
10.45
9.27
8.15
7.20
6.37
5.50
4.43
3.05
1.40
-0.32
-1.90
-3.18
-4.15
-4.90
-5.55
-6.15
-6.64
-6.94
-7.03
-6.99
-6.99
-7.19
-7.59
-8.05
-8.30
-8.14
-7.52
-6.57
-5.51
-4.54
-3.77
-3.17
-2.68
-2.24
-1.85
-1.56
-1.38
-1.25
-1.06
-0.72
-0.22
0.34
0.77
0.91
0.71
0.23
-0.36
-0.88
-1.21
-1.31
-1.25
-1.12
-1.03
-1.04
-1.20
-1.46
-1.75
-2.00
-2.14
-2.18
-2.18
-2.21
-2.32
-2.50
-2.70
-2.83
-2.88
-2.84
-2.77
-2.70
-2.64
-2.55
-2.37
-2.09
-1.73
-1.37
-1.08
-0.93
-0.90
-0.92
-0.89
-0.75
-0.48
-0.11
0.28
0.66
1.04
1.49
2.08
2.92
4.10
5.69
7.67
9.86
11.89
13.28
13.60
12.67
10.64
7.95
5.12
2.55
0.42
-1.29
-2.66
-3.70
-4.40
-4.72
-4.73
-4.57
-4.43
-4.40
-4.43
-4.39
-4.19
-3.83
-3.46
-3.27
-3.35
-3.67
-4.05
-4.31
-4.31
-4.11
-3.85
-3.76
-3.96
-4.48
-5.23
-6.09
-6.94
-7.67
-8.21
-8.50
-8.51
-8.29
-7.95
-7.64
-7.49
-7.55
-7.74
-7.88
-7.80
-7.39
-6.63
-5.60
-4.38
-3.05
-1.66
-0.27
1.06
2.23
3.18
3.86
4.30
4.58
4.79
5.00
5.24
5.46
5.59
5.56
5.31
4.85
4.29
3.78
3.49
3.51
3.83
4.33
4.88
5.37
5.78
6.13
6.40
6.54
6.49
6.22
5.74
5.17
4.62
4.15
3.76
3.41
3.06
2.71
2.38
2.11
1.93
1.80
1.66
1.46
1.18
0.84
0.50
0.25
0.13
0.19
0.39
0.69
1.03
1.33
1.54
1.61
1.54
1.37
1.16
1.00
0.97
1.08
1.32
1.58
1.75
1.76
1.55
1.14
0.62
0.08
-0.37
-0.67
-0.78
-0.76
-0.67
-0.61
-0.61
-0.67
-0.72
-0.68
-0.51
-0.21
0.17
0.52
0.78
0.91
0.92
0.82
0.65
0.40
0.11
-0.19
-0.45
-0.61
-0.63
-0.55
-0.46
-0.45
-0.60
-0.90
-1.29
-1.65
-1.84
-1.81
-1.54
-1.10
-0.61
-0.20
0.04
0.10
-0.00
-0.18
-0.33
-0.41
-0.39
-0.32
-0.21
-0.10
-0.00
0.06
0.06
-0.01
-0.17
-0.37
-0.55
-0.60
-0.49
-0.24
0.09
0.43
0.73
0.98
1.19
1.36
1.47
1.48
1.37
1.18
0.95
0.73
0.54
0.38
0.22
0.05
-0.08
-0.14
-0.10
-0.02
0.03
-0.05
-0.28
-0.62
-0.97
-1.20
-1.27
-1.17
-0.99
-0.83
-0.75
-0.75
-0.78
-0.78
-0.69
-0.49
-0.22
0.08
0.37
0.58
0.71
0.74
0.70
0.62
0.54
0.49
0.47
0.48
0.52
0.60
0.73
0.90
1.09
1.23
1.23
1.05
0.71
0.30
-0.00
-0.09
0.04
0.29
0.45
0.38
0.06
-0.42
-0.87
-1.15
-1.17
-0.97
-0.65
-0.32
-0.05
0.14
0.25
0.31
0.37
0.46
0.57
0.65
0.64
0.49
0.20
-0.16
-0.49
-0.70
-0.79
-0.78
-0.72
-0.60
-0.34
0.08
0.63
1.18
1.55
1.60
1.32
0.83
0.29
-0.17
-0.47
-0.62
-0.65
-0.58
-0.38
-0.05
0.36
0.76
1.06
1.16
1.10
0.94
0.83
0.85
0.98
1.15
1.21
1.06
0.72
0.29
-0.07
-0.24
-0.21
-0.09
0.01
-0.02
-0.18
-0.42
-0.65
-0.83
-0.95
-1.02
-1.08
-1.10
-1.07
-0.98
-0.89
-0.88
-1.05
-1.38
-1.81
-2.21
-2.43
-2.41
-2.20
-1.94
-1.78
-1.82
-2.03
-2.34
-2.57
-2.63
-2.51
-2.29
-2.10
-2.09
-2.29
-2.68
-3.12
-3.49
-3.69
-3.71
-3.70
-3.85
-4.37
-5.35
-6.68
-8.10
-9.29
-10.08
-10.48
-10.76
-11.30
-12.38
-14.07
-16.17
-18.31
-20.12
-21.40
-22.29
-23.18
-24.61
-26.97
-30.30
-34.22
-38.01
-41.00
-42.84
-43.72
-44.36
-45.66
-48.37
-52.88
-59.16
-66.70
-74.31
-79.99
-81.05
-74.90
-60.13
-37.51
-10.19
17.26
40.50
56.97
66.52
70.87
72.31
72.43
71.71
69.90
66.79
62.78
58.81
55.77
53.93
52.80
51.41
48.89
44.90
39.84
34.64
30.23
27.16
25.38
24.32
23.23
21.52
19.03
16.09
13.25
11.03
9.68
9.11
8.96
8.80
8.28
7.31
6.05
4.83
4.02
3.83
4.24
4.99
5.69
6.02
5.90
5.51
5.18
5.27
5.94
7.05
8.27
9.27
9.86
10.14
10.42
11.13
12.53
14.65
17.24
19.88
22.19
23.96
25.22
26.21
27.21
28.46
30.10
32.18
34.59
36.94
38.47
38.10
34.72
27.69
17.22
4.53
-8.56
-20.18
-29.13
-35.09
-38.52
-40.18
-40.66
-40.20
-38.80
-36.54
-33.74
-30.94
-28.69
-27.23
-26.38
-25.68
-24.59
-22.85
-20.58
-18.24
-16.35
-15.23
-14.86
-14.87
-14.80
-14.26
-13.14
-11.54
-9.76
-8.07
-6.67
-5.59
-4.79
-4.13
-3.49
-2.79
-2.02
-1.20
-0.44
0.17
0.59
0.83
1.00
1.27
1.79
2.67
3.91
5.42
7.00
8.42
9.43
9.85
9.55
8.53
6.97
5.12
3.25
1.60
0.25
-0.80
-1.60
-2.18
-2.54
-2.63
-2.51
-2.28
-2.10
-2.12
-2.35
-2.71
-3.05
-3.23
-3.18
-2.97
-2.71
-2.58
-2.71
-3.14
-3.82
-4.62
-5.39
-5.96
-6.29
-6.37
-6.28
-6.09
-5.89
-5.78
-5.80
-5.98
-6.25
-6.49
-6.54
-6.31
-5.83
-5.28
-4.89
-4.87
-5.30
-6.11
-7.10
-8.05
-8.78
-9.21
-9.32
-9.16
-8.78
-8.26
-7.66
-7.03
-6.39
-5.75
-5.10
-4.50
-4.01
-3.73
-3.74
-4.02
-4.43
-4.77
-4.83
-4.50
-3.83
-2.96
-2.05
-1.16
-0.22
0.91
2.32
3.94
5.54
6.79
7.45
7.42
6.85
6.07
5.38
5.07
5.23
5.91
7.07
8.65
10.53
12.51
14.33
15.70
16.43
16.49
16.01
15.17
14.14
13.08
12.09
11.32
10.91
10.93
11.32
11.85
12.18
12.04
11.34
10.20
8.91
7.72
6.76
6.01
5.36
4.68
3.88
2.91
1.74
0.41
-1.02
-2.39
-3.55
-4.40
-4.95
-5.35
-5.73
-6.14
-6.53
-6.74
-6.66
-6.32
-5.87
-5.47
-5.17
-4.84
-4.29
-3.37
-2.10
-0.71
0.52
1.37
1.86
2.13
2.40
2.77
3.25
3.71
4.09
4.39
4.71
5.19
5.87
6.67
7.43
7.97
8.19
8.11
7.76
7.21
6.48
5.56
4.50
3.41
2.45
1.75
1.34
1.11
0.87
0.50
0.03
-0.38
-0.54
-0.38
0.02
0.44
0.70
0.73
0.63
0.57
0.66
0.86
1.01
0.90
0.43
-0.32
-1.12
-1.75
-2.09
-2.20
-2.28
-2.51
-2.96
-3.50
-3.93
-4.07
-3.90
-3.54
-3.19
-2.99
-2.95
-3.00
-3.05
-3.06
-3.07
-3.11
-3.18
-3.18
-3.03
-2.66
-2.12
-1.55
-1.07
-0.74
-0.56
-0.45
-0.30
-0.06
0.31
0.75
1.21
1.65
2.10
2.55
2.98
3.31
3.42
3.21
2.68
1.94
1.18
0.61
0.31
0.26
0.32
0.36
0.29
0.15
0.04
0.04
0.18
0.38
0.49
0.40
0.10
-0.34
-0.80
-1.15
-1.35
-1.44
-1.52
-1.67
-1.91
-2.18
-2.42
-2.54
-2.53
-2.40
-2.20
-2.00
-1.83
-1.71
-1.65
-1.63
-1.65
-1.69
-1.71
-1.69
-1.59
-1.41
-1.16
-0.88
-0.62
-0.40
-0.22
-0.07
0.07
0.21
0.30
0.29
0.16
-0.07
-0.33
-0.54
-0.66
-0.71
-0.73
-0.75
-0.78
-0.80
-0.79
-0.73
-0.66
-0.59
-0.52
-0.43
-0.31
-0.20
-0.17
-0.32
-0.64
-1.02
-1.31
-1.32
-1.02
-0.50
0.06
0.46
0.61
0.56
0.43
0.38
0.47
0.68
0.90
1.05
1.09
1.03
0.94
0.83
0.70
0.50
0.23
-0.06
-0.31
-0.44
-0.41
-0.24
0.03
0.30
0.52
0.63
0.60
0.44
0.20
-0.04
-0.18
-0.17
-0.02
0.17
0.27
0.18
-0.09
-0.45
-0.79
-0.96
-0.93
-0.72
-0.40
-0.08
0.18
0.37
0.51
0.62
0.73
0.79
0.78
0.67
0.47
0.24
0.05
-0.04
-0.04
0.02
0.07
0.08
0.08
0.08
0.08
0.04
-0.14
-0.48
-0.94
-1.35
-1.52
-1.36
-0.90
-0.33
0.16
0.39
0.37
0.18
-0.04
-0.19
-0.26
-0.30
-0.37
-0.48
-0.56
-0.52
-0.29
0.14
0.68
1.15
1.40
1.33
0.96
0.43
-0.08
-0.40
-0.48
-0.36
-0.18
-0.07
-0.13
-0.37
-0.71
-1.01
-1.14
-1.06
-0.76
-0.32
0.14
0.54
0.83
0.97
0.95
0.79
0.58
0.42
0.44
0.67
1.06
1.42
1.56
1.34
0.78
0.08
-0.53
-0.84
-0.80
-0.52
-0.19
0.01
0.02
-0.13
-0.31
-0.40
-0.33
-0.13
0.14
0.39
0.54
0.56
0.46
0.24
-0.08
-0.45
-0.82
-1.08
-1.16
-1.02
-0.69
-0.28
0.11
0.38
0.50
0.50
0.43
0.36
0.33
0.37
0.51
0.73
0.97
1.15
1.21
1.08
0.78
0.38
-0.00
-0.28
-0.40
-0.41
-0.34
-0.26
-0.20
-0.18
-0.20
-0.25
-0.34
-0.45
-0.58
-0.68
-0.73
-0.72
-0.65
-0.56
-0.48
-0.39
-0.30
-0.19
-0.06
0.07
0.15
0.14
0.03
-0.17
-0.39
-0.54
-0.55
-0.36
-0.01
0.39
0.72
0.88
0.83
0.58
0.24
-0.08
-0.27
-0.27
-0.07
0.25
0.59
0.85
0.96
0.93
0.77
0.56
0.33
0.11
-0.06
-0.15
-0.12
0.04
0.28
0.49
0.57
0.49
0.28
0.02
-0.21
-0.38
-0.49
-0.60
-0.70
-0.76
-0.74
-0.61
-0.38
-0.14
0.04
0.12
0.11
0.07
0.08
0.15
0.29
0.40
0.42
0.32
0.15
-0.04
-0.15
-0.18
-0.13
-0.05
-0.00
0.00
-0.04
-0.11
-0.18
-0.24
-0.28
-0.30
-0.28
-0.24
-0.19
-0.14
-0.10
-0.05
-0.01
0.04
0.08
0.10
0.08
0.04
0.01
0.01
0.06
0.15
0.25
0.30
0.30
0.25
0.19
0.14
0.09
0.00
-0.14
-0.34
-0.51
-0.56
-0.45
-0.21
0.06
0.21
0.16
-0.07
-0.37
-0.62
-0.71
-0.60
-0.37
-0.13
0.03
0.02
-0.17
-0.47
-0.80
-1.06
-1.17
-1.10
-0.90
-0.63
-0.37
-0.15
0.03
0.18
0.29
0.34
0.28
0.12
-0.08
-0.21
-0.16
0.11
0.51
0.92
1.19
1.24
1.13
0.99
0.92
0.98
1.10
1.13
0.97
0.60
0.10
-0.41
-0.77
-0.94
-0.91
-0.74
-0.49
-0.23
0.01
0.20
0.33
0.39
0.37
0.27
0.08
-0.17
-0.39
-0.46
-0.27
0.19
0.78
1.27
1.41
1.09
0.40
-0.39
-0.99
-1.24
-1.09
-0.72
-0.32
-0.07
-0.04
-0.19
-0.41
-0.58
-0.63
-0.56
-0.42
-0.29
-0.21
-0.20
-0.24
-0.31
-0.40
-0.50
-0.59
-0.62
-0.57
-0.39
-0.15
0.08
0.23
0.26
0.23
0.21
0.26
0.38
0.50
0.54
0.47
0.32
0.21
0.20
0.35
0.57
0.77
0.81
0.66
0.39
0.13
-0.01
0.03
0.19
0.33
0.33
0.12
-0.24
-0.62
-0.89
-0.96
-0.83
-0.57
-0.29
-0.06
0.09
0.14
0.14
0.12
0.11
0.11
0.14
0.18
0.25
0.36
0.50
0.67
0.82
0.91
0.88
0.74
0.54
0.36
0.29
0.38
0.57
0.77
0.90
0.90
0.78
0.59
0.40
0.24
0.14
0.08
0.04
-0.03
-0.12
-0.26
-0.44
-0.65
-0.86
-1.04
-1.15
-1.15
-1.05
-0.86
-0.61
-0.35
-0.12
0.09
0.26
0.38
0.43
0.40
0.35
0.31
0.34
0.44
0.54
0.57
0.44
0.17
-0.18
-0.52
-0.78
-0.95
-1.09
-1.22
-1.37
-1.47
-1.45
-1.26
-0.89
-0.43
-0.01
0.22
0.20
-0.06
-0.42
-0.70
-0.76
-0.56
-0.19
0.20
0.48
0.60
0.57
0.47
0.37
0.28
0.22
0.18
0.18
0.21
0.25
0.27
0.25
0.25
0.32
0.47
0.66
0.77
0.71
0.46
0.10
-0.24
-0.42
-0.41
-0.27
-0.08
0.07
0.14
0.17
0.18
0.17
0.13
0.02
-0.14
-0.32
-0.45
-0.51
-0.46
-0.34
-0.20
-0.11
-0.10
-0.15
-0.20
-0.19
-0.08
0.13
0.37
0.57
0.64
0.55
0.32
0.04
-0.19
-0.26
-0.15
0.10
0.39
0.60
0.67
0.60
0.46
0.33
0.29
0.33
0.42
0.49
0.50
0.45
0.36
0.27
0.19
0.10
-0.02
-0.18
-0.32
-0.39
-0.34
-0.16
0.09
0.32
0.44
0.45
0.35
0.19
-0.00
-0.17
-0.27
-0.30
-0.21
-0.02
0.24
0.53
0.77
0.90
0.85
0.61
0.22
-0.23
-0.63
-0.86
-0.88
-0.73
-0.51
-0.31
-0.19
-0.13
-0.08
-0.01
0.05
0.03
-0.10
-0.31
-0.52
-0.65
-0.64
-0.50
-0.32
-0.15
-0.06
-0.02
-0.02
-0.03
-0.06
-0.11
-0.20
-0.34
-0.49
-0.61
-0.67
-0.67
-0.59
-0.44
-0.21
0.08
0.42
0.75
0.98
1.02
0.81
0.39
-0.12
-0.57
-0.85
-0.94
-0.90
-0.82
-0.78
-0.76
-0.68
-0.46
-0.06
0.50
1.07
1.52
1.70
1.58
1.21
0.68
0.13
-0.34
-0.66
-0.81
-0.78
-0.62
-0.37
-0.10
0.13
0.28
0.34
0.36
0.35
0.33
0.28
0.18
0.04
-0.11
-0.18
-0.14
0.02
0.23
0.40
0.48
0.46
0.37
0.28
0.21
0.18
0.16
0.16
0.19
0.27
0.38
0.47
0.49
0.37
0.13
-0.20
-0.55
-0.88
-1.15
-1.37
-1.52
-1.59
-1.56
-1.39
-1.11
-0.74
-0.33
0.06
0.38
0.60
0.70
0.69
0.60
0.50
0.44
0.45
0.52
0.66
0.82
0.96
1.05
1.05
0.92
0.66
0.33
0.03
-0.14
-0.14
-0.03
0.08
0.06
-0.13
-0.45
-0.78
-1.02
-1.10
-1.05
-0.91
-0.72
-0.49
-0.18
0.17
0.49
0.70
0.71
0.53
0.26
0.04
-0.01
0.13
0.37
0.56
0.56
0.36
0.05
-0.17
-0.15
0.17
0.70
1.27
1.69
1.85
1.78
1.57
1.36
1.19
1.09
1.04
1.05
1.14
1.35
1.68
2.09
2.50
2.84
3.06
3.22
3.37
3.59
3.90
4.28
4.67
5.01
5.28
5.53
5.79
6.09
6.45
6.84
7.22
7.61
8.02
8.49
9.05
9.72
10.47
11.26
12.06
12.85
13.62
14.25
14.55
14.23
13.04
10.81
7.59
3.63
-0.68
-4.95
-8.83
-12.11
-14.67
-16.49
-17.56
-17.92
-17.66
-16.92
-15.89
-14.74
-13.60
-12.54
-11.60
-10.82
-10.18
-9.64
-9.13
-8.52
-7.76
-6.87
-6.01
-5.35
-5.03
-5.04
-5.20
-5.29
-5.11
-4.60
-3.85
-3.01
-2.19
-1.46
-0.81
-0.26
0.17
0.46
0.61
0.67
0.73
0.83
0.92
0.94
0.83
0.61
0.40
0.33
0.48
0.78
1.08
1.25
1.23
1.10
0.99
1.01
1.17
1.40
1.60
1.69
1.64
1.46
1.21
0.92
0.63
0.37
0.16
-0.03
-0.25
-0.57
-0.97
-1.39
-1.71
-1.83
-1.74
-1.52
-1.30
-1.19
-1.18
-1.22
-1.19
-1.06
-0.88
-0.73
-0.72
-0.86
-1.08
-1.27
-1.37
-1.35
-1.24
-1.11
-0.98
-0.88
-0.77
-0.63
-0.43
-0.17
0.13
0.39
0.55
0.52
0.32
0.02
-0.27
-0.41
-0.35
-0.10
0.24
0.57
0.80
0.91
0.88
0.71
0.42
0.09
-0.18
-0.30
-0.20
0.09
0.45
0.71
0.78
0.66
0.46
0.34
0.37
0.56
0.78
0.89
0.79
0.55
0.28
0.15
0.23
0.47
0.75
0.91
0.88
0.69
0.42
0.15
-0.08
-0.28
-0.45
-0.57
-0.60
-0.51
-0.33
-0.18
-0.16
-0.30
-0.57
-0.82
-0.96
-0.95
-0.86
-0.77
-0.75
-0.77
-0.74
-0.57
-0.25
0.12
0.40
0.45
0.27
-0.09
-0.45
-0.67
-0.64
-0.39
-0.02
0.35
0.61
0.74
0.76
0.75
0.74
0.73
0.69
0.59
0.42
0.26
0.19
0.28
0.55
0.90
1.21
1.35
1.28
1.04
0.76
0.52
0.38
0.30
0.21
0.07
-0.10
-0.24
-0.27
-0.18
-0.01
0.18
0.35
0.50
0.68
0.89
1.09
1.22
1.19
0.97
0.62
0.26
-0.01
-0.12
-0.08
0.06
0.20
0.24
0.12
-0.19
-0.64
-1.12
-1.50
-1.67
-1.61
-1.36
-1.00
-0.64
-0.32
-0.04
0.23
0.47
0.62
0.62
0.41
0.04
-0.37
-0.71
-0.87
-0.85
-0.75
-0.65
-0.63
-0.67
-0.70
-0.64
-0.48
-0.24
0.00
0.18
0.24
0.21
0.13
0.03
-0.01
0.01
0.10
0.22
0.33
0.39
0.40
0.42
0.50
0.67
0.93
1.21
1.41
1.46
1.36
1.16
0.96
0.83
0.79
0.81
0.82
0.72
0.49
0.15
-0.22
-0.47
-0.53
-0.35
0.02
0.49
0.91
1.17
1.15
0.82
0.24
-0.44
-1.03
-1.37
-1.43
-1.28
-1.04
-0.83
-0.70
-0.59
-0.45
-0.28
-0.15
-0.13
-0.26
-0.46
-0.58
-0.50
-0.23
0.14
0.44
0.53
0.39
0.09
-0.21
-0.41
-0.46
-0.40
-0.28
-0.15
-0.02
0.11
0.21
0.24
0.14
-0.06
-0.31
-0.49
-0.51
-0.35
-0.08
0.21
0.40
0.47
0.44
0.40
0.40
0.45
0.50
0.49
0.38
0.18
-0.08
-0.33
-0.54
-0.65
-0.65
-0.53
-0.32
-0.05
0.23
0.48
0.65
0.72
0.70
0.62
0.52
0.46
0.49
0.59
0.74
0.84
0.81
0.64
0.36
0.08
-0.10
-0.13
-0.03
0.09
0.14
0.04
-0.18
-0.45
-0.64
-0.68
-0.55
-0.31
-0.08
0.03
-0.01
-0.18
-0.37
-0.48
-0.43
-0.25
-0.02
0.18
0.29
0.28
0.17
-0.01
-0.23
-0.43
-0.58
-0.64
-0.61
-0.49
-0.34
-0.20
-0.14
-0.18
-0.32
-0.49
-0.64
-0.72
-0.71
-0.66
-0.65
-0.74
-0.93
-1.15
-1.27
-1.19
-0.89
-0.45
0.01
0.38
0.61
0.74
0.88
1.08
1.37
1.66
1.86
1.88
1.70
1.39
1.05
0.79
0.63
0.54
0.46
0.35
0.21
0.12
0.10
0.15
0.19
0.14
-0.05
-0.36
-0.70
-0.96
-1.08
-1.08
-1.00
-0.90
-0.79
-0.63
-0.41
-0.17
-0.00
0.01
-0.20
-0.57
-0.96
-1.18
-1.12
-0.78
-0.30
0.11
0.31
0.27
0.13
0.03
0.10
0.35
0.67
0.98
1.22
1.43
1.66
1.96
2.29
2.53
2.59
2.46
2.21
2.01
1.98
2.18
2.56
2.98
3.30
3.46
3.45
3.39
3.39
3.59
4.07
4.82
5.75
6.71
7.53
8.09
8.38
8.54
8.81
9.47
10.71
12.51
14.62
16.67
18.28
19.28
19.79
20.25
21.19
23.01
25.75
29.02
32.18
34.59
35.94
36.46
36.77
37.75
40.15
44.28
49.85
55.93
61.06
63.38
61.07
52.92
38.99
20.96
1.89
-14.72
-26.16
-31.61
-32.33
-30.97
-30.31
-31.99
-36.11
-41.44
-46.36
-49.74
-51.25
-51.23
-50.16
-48.27
-45.51
-41.77
-37.14
-32.12
-27.49
-23.93
-21.79
-20.86
-20.54
-20.14
-19.12
-17.30
-14.87
-12.25
-9.91
-8.17
-7.11
-6.56
-6.18
-5.61
-4.67
-3.39
-2.05
-1.02
-0.62
-0.96
-1.96
-3.34
-4.75
-5.89
-6.55
-6.67
-6.35
-5.78
-5.17
-4.65
-4.23
-3.84
-3.38
-2.81
-2.18
-1.59
-1.15
-0.94
-0.91
-0.98
-1.07
-1.13
-1.16
-1.25
-1.46
-1.88
-2.48
-3.18
-3.81
-4.24
-4.41
-4.38
-4.31
-4.32
-4.43
-4.56
-4.57
-4.35
-3.91
-3.35
-2.83
-2.43
-2.16
-1.92
-1.62
-1.22
-0.80
-0.43
-0.20
-0.08
-0.02
0.08
0.30
0.60
0.92
1.19
1.35
1.40
1.39
1.34
1.27
1.14
0.95
0.71
0.52
0.44
0.53
0.71
0.91
1.00
0.97
0.85
0.73
0.69
0.72
0.78
0.80
0.74
0.61
0.46
0.34
0.28
0.27
0.31
0.35
0.36
0.32
0.25
0.14
0.06
0.03
0.08
0.22
0.40
0.56
0.63
0.56
0.34
0.04
-0.28
-0.53
-0.68
-0.75
-0.75
-0.73
-0.72
-0.74
-0.79
-0.90
-1.04
-1.17
-1.22
-1.12
-0.86
-0.54
-0.27
-0.14
-0.18
-0.30
-0.40
-0.39
-0.27
-0.13
-0.06
-0.11
-0.25
-0.42
-0.54
-0.59
-0.59
-0.63
-0.74
-0.90
-1.03
-1.01
-0.78
-0.35
0.18
0.64
0.95
1.06
1.04
0.97
0.89
0.81
0.70
0.54
0.37
0.24
0.18
0.20
0.28
0.36
0.39
0.35
0.24
0.09
-0.07
-0.23
-0.37
-0.47
-0.52
-0.51
-0.45
-0.34
-0.22
-0.11
-0.02
0.07
0.16
0.24
0.28
0.22
0.05
-0.21
-0.47
-0.64
-0.67
-0.55
-0.35
-0.14
0.07
0.28
0.52
0.77
0.97
1.03
0.90
0.59
0.21
-0.12
-0.30
-0.32
-0.22
-0.10
-0.00
0.04
0.04
-0.01
-0.09
-0.20
-0.32
-0.41
-0.41
-0.33
-0.21
-0.12
-0.12
-0.22
-0.33
-0.35
-0.22
0.06
0.41
0.71
0.91
0.96
0.88
0.70
0.45
0.13
-0.23
-0.57
-0.78
-0.80
-0.60
-0.23
0.19
0.50
0.62
0.53
0.28
-0.01
-0.24
-0.34
-0.30
-0.15
0.06
0.27
0.43
0.47
0.36
0.11
-0.21
-0.52
-0.75
-0.87
-0.94
-1.03
-1.16
-1.29
-1.31
-1.15
-0.82
-0.42
-0.05
0.21
0.40
0.59
0.82
1.03
1.08
0.86
0.38
-0.24
-0.74
-0.92
-0.73
-0.25
0.29
0.68
0.82
0.72
0.45
0.14
-0.14
-0.32
-0.38
-0.30
-0.09
0.18
0.45
0.61
0.65
0.59
0.48
0.39
0.34
0.32
0.28
0.22
0.14
0.06
-0.01
-0.05
-0.08
-0.09
-0.08
-0.03
0.05
0.18
0.30
0.40
0.42
0.34
0.16
-0.09
-0.33
-0.52
-0.61
-0.61
-0.55
-0.48
-0.42
-0.37
-0.37
-0.41
-0.50
-0.58
-0.60
-0.50
-0.27
0.04
0.31
0.46
0.47
0.39
0.31
0.29
0.33
0.36
0.29
0.12
-0.09
-0.25
-0.26
-0.08
0.23
0.58
0.88
1.07
1.13
1.06
0.88
0.60
0.26
-0.08
-0.35
-0.48
-0.47
-0.34
-0.17
-0.04
-0.01
-0.09
-0.26
-0.46
-0.63
-0.73
-0.75
-0.67
-0.52
-0.31
-0.09
0.14
0.33
0.47
0.53
0.48
0.33
0.12
-0.08
-0.21
-0.21
-0.08
0.11
0.31
0.45
0.52
0.58
0.66
0.80
0.96
1.11
1.16
1.10
0.98
0.89
0.93
1.17
1.60
2.14
2.72
3.26
3.71
4.04
4.21
4.20
4.01
3.73
3.48
3.39
3.48
3.70
3.86
3.83
3.52
2.93
2.18
1.40
0.69
0.16
-0.17
-0.26
-0.15
0.09
0.34
0.46
0.35
0.02
-0.42
-0.83
-1.06
-1.06
-0.88
-0.66
-0.51
-0.50
-0.61
-0.76
-0.87
-0.94
-0.99
-1.06
-1.15
-1.21
-1.21
-1.12
-0.98
-0.81
-0.60
-0.33
0.06
0.59
1.19
1.76
2.20
2.46
2.52
2.40
2.13
1.69
1.13
0.49
-0.11
-0.52
-0.67
-0.57
-0.32
-0.06
0.05
-0.08
-0.44
-0.99
-1.58
-2.12
-2.52
-2.77
-2.93
-3.00
-3.01
-2.92
-2.74
-2.52
-2.36
-2.38
-2.62
-3.03
-3.47
-3.73
-3.69
-3.33
-2.77
-2.21
-1.84
-1.75
-1.89
-2.14
-2.33
-2.37
-2.26
-2.07
-1.88
-1.73
-1.64
-1.62
-1.66
-1.76
-1.93
-2.10
-2.19
-2.11
-1.83
-1.39
-0.90
-0.47
-0.18
-0.06
-0.09
-0.24
-0.46
-0.68
-0.82
-0.79
-0.58
-0.21
0.19
0.49
0.59
0.49
0.27
0.07
-0.01
0.07
0.27
0.49
0.66
0.72
0.70
0.61
0.48
0.36
0.27
0.21
0.23
0.31
0.44
0.58
0.67
0.65
0.48
0.15
-0.32
-0.83
-1.28
-1.58
-1.68
-1.57
-1.35
-1.08
-0.87
-0.72
-0.60
-0.46
-0.24
0.03
0.30
0.52
0.66
0.77
0.93
1.16
1.41
1.56
1.50
1.17
0.63
0.06
-0.40
-0.65
-0.74
-0.78
-0.94
-1.27
-1.72
-2.15
-2.37
-2.25
-1.74
-0.96
-0.11
0.59
1.02
1.16
1.11
1.04
1.10
1.34
1.71
2.06
2.24
2.14
1.74
1.14
0.47
-0.11
-0.50
-0.69
-0.73
-0.68
-0.58
-0.38
-0.01
0.60
1.45
2.45
3.47
4.36
5.03
5.41
5.47
5.20
4.67
3.99
3.30
2.76
2.40
2.17
1.94
1.58
1.06
0.47
-0.08
-0.49
-0.77
-1.00
-1.27
-1.63
-2.04
-2.40
-2.61
-2.62
-2.47
-2.24
-2.06
-2.02
-2.15
-2.42
-2.75
-3.04
-3.23
-3.28
-3.19
-2.96
-2.65
-2.31
-2.01
-1.82
-1.71
-1.62
-1.46
-1.17
-0.79
-0.41
-0.11
0.05
0.13
0.22
0.41
0.69
0.99
1.20
1.26
1.19
1.11
1.10
1.23
1.45
1.65
1.75
1.71
1.56
1.37
1.18
0.97
0.70
0.33
-0.13
-0.57
-0.87
-0.95
-0.82
-0.57
-0.33
-0.17
-0.10
-0.04
0.07
0.23
0.39
0.46
0.37
0.16
-0.08
-0.22
-0.19
-0.03
0.16
0.27
0.29
0.23
0.19
0.21
0.28
0.31
0.26
0.13
0.00
-0.02
0.09
0.30
0.48
0.50
0.34
0.04
-0.25
-0.44
-0.48
-0.43
-0.35
-0.28
-0.21
-0.09
0.12
0.39
0.66
0.84
0.88
0.76
0.52
0.21
-0.13
-0.43
-0.62
-0.62
-0.43
-0.11
0.25
0.52
0.62
0.52
0.25
-0.11
-0.52
-0.89
-1.18
-1.34
-1.30
-1.07
-0.68
-0.25
0.11
0.27
0.18
-0.12
-0.49
-0.75
-0.78
-0.54
-0.15
0.23
0.45
0.47
0.35
0.22
0.16
0.20
0.25
0.24
0.11
-0.09
-0.29
-0.37
-0.32
-0.19
-0.08
-0.09
-0.23
-0.43
-0.58
-0.58
-0.43
-0.23
-0.13
-0.23
-0.53
-0.94
-1.31
-1.51
-1.48
-1.24
-0.87
-0.49
-0.20
-0.10
-0.22
-0.51
-0.86
-1.13
-1.21
-1.07
-0.78
-0.44
-0.19
-0.06
-0.04
-0.06
-0.06
0.01
0.13
0.26
0.35
0.39
0.42
0.47
0.56
0.65
0.68
0.59
0.39
0.14
-0.06
-0.13
-0.06
0.05
0.13
0.12
0.08
0.13
0.34
0.69
1.04
1.24
1.16
0.82
0.31
-0.19
-0.54
-0.66
-0.55
-0.26
0.12
0.47
0.68
0.68
0.47
0.13
-0.20
-0.40
-0.38
-0.17
0.14
0.42
0.59
0.60
0.48
0.28
0.06
-0.12
-0.26
-0.33
-0.34
-0.28
-0.19
-0.08
0.00
0.03
0.00
-0.04
-0.05
0.04
0.21
0.44
0.66
0.81
0.85
0.77
0.58
0.31
0.05
-0.14
-0.19
-0.10
0.08
0.26
0.34
0.31
0.19
0.09
0.07
0.13
0.22
0.27
0.22
0.08
-0.08
-0.17
-0.16
-0.07
0.01
0.01
-0.12
-0.35
-0.60
-0.78
-0.84
-0.76
-0.59
-0.36
-0.11
0.10
0.29
0.46
0.62
0.77
0.86
0.87
0.74
0.47
0.10
-0.26
-0.50
-0.57
-0.45
-0.25
-0.08
-0.06
-0.22
-0.52
-0.79
-0.90
-0.74
-0.33
0.22
0.72
1.00
1.00
0.70
0.21
-0.32
-0.77
-1.01
-0.98
-0.71
-0.26
0.25
0.68
0.90
0.87
0.66
0.39
0.20
0.20
0.39
0.69
0.97
1.10
1.01
0.71
0.31
-0.08
-0.36
-0.49
-0.50
-0.45
-0.39
-0.32
-0.27
-0.22
-0.19
-0.20
-0.24
-0.29
-0.33
-0.30
-0.21
-0.09
0.01
0.05
0.02
-0.05
-0.08
-0.02
0.16
0.43
0.70
0.84
0.79
0.55
0.17
-0.22
-0.53
-0.70
-0.73
-0.67
-0.56
-0.44
-0.36
-0.31
-0.30
-0.31
-0.31
-0.29
-0.23
-0.11
0.03
0.17
0.29
0.36
0.40
0.40
0.36
0.30
0.21
0.09
-0.04
-0.17
-0.29
-0.40
-0.53
-0.66
-0.82
-0.97
-1.09
-1.13
-1.07
-0.89
-0.56
-0.15
0.25
0.53
0.57
0.37
0.02
-0.32
-0.48
-0.38
-0.03
0.43
0.86
1.15
1.29
1.30
1.24
1.15
1.02
0.88
0.74
0.63
0.58
0.58
0.61
0.62
0.58
0.45
0.24
0.01
-0.19
-0.29
-0.31
-0.27
-0.27
-0.36
-0.55
-0.81
-1.08
-1.31
-1.44
-1.45
-1.32
-1.03
-0.60
-0.10
0.37
0.68
0.76
0.62
0.34
0.06
-0.12
-0.13
0.02
0.28
0.54
0.70
0.72
0.59
0.33
0.02
-0.28
-0.49
-0.59
-0.57
-0.43
-0.20
0.07
0.30
0.44
0.45
0.34
0.16
-0.06
-0.25
-0.39
-0.42
-0.33
-0.11
0.19
0.45
0.58
0.52
0.31
0.05
-0.17
-0.30
-0.37
-0.40
-0.42
-0.41
-0.29
-0.06
0.24
0.53
0.72
0.76
0.65
0.42
0.14
-0.17
-0.43
-0.58
-0.60
-0.51
-0.37
-0.28
-0.27
-0.31
-0.33
-0.26
-0.10
0.08
0.20
0.20
0.13
0.04
0.02
0.08
0.17
0.22
0.18
0.06
-0.04
-0.02
0.21
0.59
1.02
1.30
1.30
0.97
0.41
-0.18
-0.60
-0.75
-0.65
-0.44
-0.29
-0.28
-0.39
-0.52
-0.58
-0.53
-0.44
-0.42
-0.52
-0.72
-0.91
-0.96
-0.79
-0.45
-0.05
0.25
0.37
0.30
0.14
0.01
0.02
0.19
0.47
0.78
1.03
1.15
1.13
1.01
0.82
0.62
0.44
0.27
0.12
-0.01
-0.08
-0.08
-0.02
0.05
0.09
0.01
-0.18
-0.45
-0.70
-0.85
-0.85
-0.71
-0.47
-0.20
0.05
0.27
0.46
0.63
0.76
0.81
0.74
0.54
0.26
0.00
-0.13
-0.07
0.17
0.48
0.75
0.90
0.91
0.83
0.70
0.55
0.40
0.23
0.04
-0.16
-0.38
-0.59
-0.82
-1.04
-1.21
-1.26
-1.09
-0.71
-0.18
0.33
0.63
0.62
0.27
-0.29
-0.91
-1.39
-1.61
-1.52
-1.19
-0.72
-0.27
0.08
0.28
0.38
0.43
0.45
0.47
0.46
0.44
0.41
0.44
0.54
0.67
0.75
0.67
0.39
-0.01
-0.38
-0.55
-0.46
-0.18
0.12
0.29
0.27
0.14
0.05
0.10
0.28
0.47
0.54
0.43
0.23
0.10
0.13
0.33
0.56
0.65
0.52
0.23
-0.08
-0.26
-0.26
-0.17
-0.13
-0.25
-0.54
-0.90
-1.19
-1.29
-1.22
-1.03
-0.84
-0.67
-0.51
-0.31
-0.02
0.32
0.63
0.79
0.75
0.53
0.23
-0.08
-0.35
-0.57
-0.74
-0.83
-0.79
-0.58
-0.26
0.08
0.29
0.29
0.15
-0.00
-0.01
0.18
0.47
0.68
0.65
0.35
-0.10
-0.52
-0.72
-0.63
-0.32
0.09
0.43
0.61
0.61
0.47
0.26
0.04
-0.11
-0.14
-0.00
0.26
0.60
0.90
1.10
1.15
1.02
0.75
0.37
-0.04
-0.42
-0.70
-0.84
-0.86
-0.83
-0.81
-0.81
-0.77
-0.58
-0.21
0.30
0.80
1.12
1.15
0.89
0.46
0.01
-0.31
-0.45
-0.43
-0.33
-0.22
-0.14
-0.11
-0.06
0.02
0.14
0.24
0.23
0.08
-0.18
-0.41
-0.47
-0.32
-0.03
0.24
0.31
0.14
-0.21
-0.54
-0.70
-0.64
-0.41
-0.14
0.07
0.17
0.18
0.14
0.08
0.01
-0.06
-0.09
-0.05
0.06
0.23
0.41
0.53
0.58
0.57
0.54
0.52
0.48
0.39
0.19
-0.07
-0.34
-0.50
-0.46
-0.24
0.09
0.37
0.48
0.37
0.09
-0.25
-0.52
-0.62
-0.54
-0.34
-0.16
-0.12
-0.27
-0.56
-0.85
-0.99
-0.89
-0.58
-0.20
0.11
0.28
0.33
0.39
0.55
0.81
1.06
1.15
0.98
0.59
0.16
-0.10
-0.08
0.18
0.53
0.75
0.72
0.44
0.02
-0.39
-0.70
-0.88
-0.96
-0.95
-0.84
-0.60
-0.24
0.19
0.61
0.90
0.98
0.83
0.51
0.11
-0.28
-0.57
-0.69
-0.62
-0.37
-0.02
0.36
0.64
0.75
0.68
0.49
0.25
0.05
-0.05
-0.04
0.05
0.18
0.27
0.25
0.08
-0.25
-0.67
-1.03
-1.20
-1.11
-0.77
-0.27
0.24
0.63
0.82
0.80
0.62
0.36
0.11
-0.04
-0.01
0.19
0.50
0.82
1.03
1.02
0.80
0.46
0.11
-0.16
-0.30
-0.37
-0.41
-0.46
-0.53
-0.60
-0.65
-0.68
-0.69
-0.71
-0.71
-0.67
-0.54
-0.32
-0.05
0.20
0.32
0.28
0.09
-0.17
-0.39
-0.49
-0.44
-0.26
-0.02
0.20
0.34
0.39
0.34
0.22
0.08
-0.05
-0.13
-0.15
-0.12
-0.06
0.01
0.05
0.04
-0.00
-0.06
-0.11
-0.09
-0.02
0.11
0.23
0.33
0.41
0.48
0.60
0.73
0.82
0.77
0.56
0.23
-0.10
-0.27
-0.25
-0.08
0.13
0.22
0.16
-0.03
-0.23
-0.35
-0.35
-0.25
-0.13
-0.07
-0.09
-0.20
-0.39
-0.61
-0.80
-0.89
-0.85
-0.68
-0.43
-0.19
-0.06
-0.05
-0.14
-0.26
-0.30
-0.23
-0.06
0.15
0.37
0.55
0.71
0.85
0.94
0.95
0.83
0.59
0.31
0.08
-0.01
0.06
0.24
0.41
0.48
0.40
0.20
-0.04
-0.22
-0.27
-0.18
-0.01
0.14
0.19
0.09
-0.17
-0.51
-0.85
-1.07
-1.09
-0.87
-0.47
0.00
0.42
0.65
0.67
0.51
0.30
0.14
0.11
0.18
0.25
0.23
0.10
-0.13
-0.37
-0.55
-0.67
-0.77
-0.88
-1.01
-1.09
-1.05
-0.85
-0.52
-0.14
0.19
0.45
0.63
0.78
0.92
1.03
1.07
1.01
0.87
0.69
0.53
0.40
0.29
0.16
-0.00
-0.17
-0.31
-0.39
-0.40
-0.38
-0.36
-0.34
-0.32
-0.24
-0.07
0.18
0.46
0.70
0.82
0.78
0.56
0.23
-0.15
-0.48
-0.69
-0.72
-0.56
-0.28
0.02
0.24
0.32
0.27
0.13
-0.02
-0.18
-0.34
-0.50
-0.62
-0.63
-0.47
-0.15
0.24
0.56
0.69
0.57
0.27
-0.08
-0.35
-0.41
-0.25
0.07
0.45
0.74
0.82
0.68
0.38
0.06
-0.15
-0.17
-0.06
0.06
0.06
-0.06
-0.23
-0.30
-0.19
0.07
0.32
0.41
0.22
-0.16
-0.55
-0.76
-0.70
-0.44
-0.11
0.11
0.18
0.12
0.02
-0.04
-0.07
-0.11
-0.21
-0.35
-0.46
-0.46
-0.29
0.03
0.42
0.76
0.94
0.91
0.71
0.42
0.14
-0.03
-0.08
-0.06
-0.03
-0.03
-0.09
-0.15
-0.15
-0.06
0.09
0.22
0.23
0.06
-0.23
-0.52
-0.69
-0.67
-0.53
-0.36
-0.30
-0.36
-0.50
-0.60
-0.60
-0.54
-0.48
-0.48
-0.49
-0.43
-0.20
0.18
0.58
0.82
0.78
0.49
0.08
-0.27
-0.43
-0.39
-0.21
-0.05
0.01
-0.08
-0.25
-0.38
-0.37
-0.18
0.12
0.42
0.59
0.61
0.51
0.41
0.37
0.38
0.37
0.29
0.12
-0.05
-0.15
-0.10
0.09
0.35
0.57
0.69
0.69
0.59
0.46
0.37
0.33
0.37
0.50
0.69
0.91
1.11
1.22
1.19
0.97
0.61
0.17
-0.23
-0.50
-0.63
-0.65
-0.63
-0.65
-0.70
-0.75
-0.74
-0.65
-0.51
-0.41
-0.37
-0.40
-0.44
-0.44
-0.39
-0.34
-0.33
-0.39
-0.44
-0.40
-0.18
0.19
0.56
0.77
0.67
0.31
-0.14
-0.45
-0.47
-0.20
0.20
0.51
0.58
0.40
0.04
-0.41
-0.83
-1.19
-1.42
-1.51
-1.40
-1.08
-0.58
0.01
0.57
0.98
1.17
1.12
0.89
0.59
0.37
0.34
0.52
0.81
1.06
1.14
1.01
0.73
0.44
0.27
0.24
0.27
0.26
0.14
-0.07
-0.29
-0.45
-0.52
-0.54
-0.59
-0.72
-0.93
-1.14
-1.25
-1.18
-0.91
-0.51
-0.08
0.28
0.52
0.60
0.54
0.33
0.04
-0.27
-0.48
-0.49
-0.28
0.10
0.50
0.74
0.72
0.47
0.11
-0.20
-0.36
-0.37
-0.30
-0.27
-0.33
-0.50
-0.72
-0.92
-1.00
-0.91
-0.62
-0.16
0.38
0.88
1.26
1.47
1.50
1.43
1.29
1.12
0.93
0.75
0.59
0.46
0.37
0.28
0.13
-0.08
-0.32
-0.53
-0.61
-0.52
-0.29
-0.02
0.18
0.24
0.18
0.04
-0.09
-0.15
-0.13
-0.03
0.13
0.31
0.47
0.54
0.46
0.19
-0.24
-0.73
-1.15
-1.37
-1.33
-1.03
-0.55
-0.02
0.41
0.60
0.49
0.09
-0.45
-0.95
-1.26
-1.27
-1.04
-0.69
-0.35
-0.13
-0.02
0.00
-0.02
-0.07
-0.15
-0.27
-0.38
-0.39
-0.22
0.12
0.56
0.99
1.24
1.22
0.91
0.34
-0.36
-1.04
-1.54
-1.76
-1.63
-1.18
-0.52
0.19
0.82
1.28
1.53
1.58
1.44
1.14
0.71
0.23
-0.15
-0.31
-0.20
0.14
0.55
0.85
0.94
0.80
0.50
0.17
-0.09
-0.25
-0.32
-0.33
-0.28
-0.20
-0.07
0.08
0.26
0.44
0.58
0.63
0.56
0.37
0.10
-0.15
-0.32
-0.37
-0.31
-0.21
-0.12
-0.10
-0.09
-0.04
0.06
0.19
0.26
0.20
-0.02
-0.37
-0.77
-1.09
-1.24
-1.18
-0.91
-0.48
-0.02
0.35
0.55
0.53
0.35
0.10
-0.13
-0.28
-0.35
-0.36
-0.35
-0.32
-0.26
-0.13
0.04
0.22
0.35
0.38
0.31
0.20
0.14
0.22
0.46
0.81
1.13
1.27
1.12
0.69
0.12
-0.39
-0.67
-0.66
-0.45
-0.20
-0.07
-0.14
-0.35
-0.62
-0.81
-0.88
-0.87
-0.82
-0.78
-0.73
-0.63
-0.45
-0.20
0.06
0.25
0.36
0.40
0.42
0.44
0.47
0.45
0.36
0.21
0.07
-0.00
0.03
0.17
0.34
0.50
0.61
0.65
0.64
0.56
0.43
0.22
-0.04
-0.31
-0.52
-0.62
-0.57
-0.41
-0.22
-0.10
-0.11
-0.23
-0.39
-0.49
-0.45
-0.24
0.09
0.46
0.77
0.95
0.98
0.85
0.60
0.30
0.05
-0.08
-0.08
0.05
0.23
0.41
0.57
0.67
0.73
0.71
0.59
0.34
-0.00
-0.41
-0.77
-1.00
-1.05
-0.90
-0.58
-0.18
0.15
0.29
0.13
-0.29
-0.84
-1.26
-1.38
-1.13
-0.62
-0.10
0.23
0.32
0.26
0.20
0.29
0.53
0.80
0.93
0.83
0.52
0.13
-0.19
-0.32
-0.27
-0.12
-0.01
-0.02
-0.15
-0.31
-0.40
-0.36
-0.21
-0.05
0.05
0.05
0.02
0.04
0.19
0.41
0.60
0.63
0.46
0.15
-0.16
-0.35
-0.34
-0.17
0.07
0.28
0.41
0.46
0.48
0.51
0.56
0.60
0.59
0.49
0.31
0.12
-0.03
-0.07
-0.04
-0.01
-0.07
-0.30
-0.64
-0.97
-1.15
-1.09
-0.85
-0.56
-0.37
-0.36
-0.46
-0.58
-0.57
-0.42
-0.17
0.04
0.16
0.18
0.16
0.17
0.20
0.23
0.21
0.13
0.05
0.02
0.07
0.16
0.23
0.20
0.09
-0.06
-0.13
-0.08
0.08
0.24
0.30
0.21
-0.03
-0.33
-0.60
-0.73
-0.70
-0.52
-0.25
0.04
0.30
0.49
0.60
0.64
0.62
0.54
0.40
0.24
0.09
0.00
0.02
0.13
0.27
0.35
0.32
0.15
-0.11
-0.37
-0.54
-0.55
-0.41
-0.19
-0.01
0.01
-0.18
-0.51
-0.85
-1.06
-1.02
-0.75
-0.35
0.04
0.29
0.38
0.36
0.33
0.36
0.46
0.59
0.68
0.72
0.73
0.73
0.76
0.76
0.68
0.45
0.09
-0.34
-0.70
-0.93
-1.02
-1.00
-0.96
-0.95
-0.97
-1.00
-1.02
-1.00
-0.93
-0.81
-0.62
-0.39
-0.18
-0.07
-0.13
-0.33
-0.59
-0.79
-0.84
-0.75
-0.58
-0.44
-0.39
-0.41
-0.41
-0.30
-0.03
0.38
0.82
1.17
1.38
1.47
1.49
1.54
1.62
1.69
1.69
1.54
1.27
0.92
0.62
0.40
0.28
0.19
0.08
-0.05
-0.17
-0.18
-0.03
0.27
0.66
1.02
1.24
1.25
1.05
0.68
0.21
-0.31
-0.79
-1.16
-1.36
-1.35
-1.15
-0.82
-0.46
-0.19
-0.08
-0.12
-0.28
-0.45
-0.55
-0.54
-0.41
-0.22
-0.04
0.08
0.11
0.09
0.07
0.06
0.05
0.05
0.03
0.04
0.12
0.30
0.53
0.68
0.61
0.26
-0.30
-0.90
-1.33
-1.46
-1.28
-0.89
-0.44
-0.04
0.27
0.49
0.65
0.74
0.76
0.70
0.59
0.48
0.42
0.41
0.42
0.40
0.30
0.15
-0.02
-0.14
-0.21
-0.24
-0.28
-0.34
-0.41
-0.43
-0.35
-0.19
-0.05
-0.00
-0.10
-0.29
-0.45
-0.51
-0.45
-0.37
-0.42
-0.66
-1.05
-1.42
-1.59
-1.47
-1.11
-0.69
-0.37
-0.22
-0.21
-0.24
-0.25
-0.21
-0.18
-0.18
-0.17
-0.10
0.03
0.17
0.20
0.03
-0.34
-0.78
-1.12
-1.23
-1.09
-0.82
-0.56
-0.44
-0.51
-0.74
-1.10
-1.52
-1.94
-2.31
-2.55
-2.63
-2.53
-2.28
-1.93
-1.52
-1.09
-0.66
-0.26
0.06
0.28
0.40
0.48
0.59
0.79
1.10
1.45
1.75
1.93
1.98
1.94
1.90
1.95
2.10
2.31
2.51
2.58
2.47
2.14
1.63
1.02
0.43
-0.03
-0.28
-0.30
-0.11
0.18
0.42
0.48
0.32
-0.01
-0.44
-0.87
-1.25
-1.60
-1.96
-2.33
-2.67
-2.87
-2.86
-2.64
-2.30
-2.03
-1.96
-2.13
-2.45
-2.70
-2.71
-2.38
-1.79
-1.13
-0.59
-0.33
-0.33
-0.46
-0.55
-0.48
-0.21
0.17
0.53
0.77
0.87
0.91
0.98
1.12
1.30
1.43
1.44
1.35
1.29
1.39
1.72
2.23
2.78
3.19
3.34
3.21
2.86
2.37
1.88
1.46
1.20
1.15
1.31
1.61
1.93
2.11
2.04
1.68
1.12
0.49
-0.04
-0.34
-0.38
-0.20
0.10
0.39
0.58
0.61
0.49
0.24
-0.08
-0.40
-0.69
-0.90
-1.04
-1.11
-1.11
-1.03
-0.87
-0.67
-0.46
-0.36
-0.44
-0.74
-1.19
-1.65
-1.93
-1.93
-1.62
-1.11
-0.57
-0.16
0.05
0.06
-0.02
-0.11
-0.12
-0.04
0.12
0.31
0.49
0.64
0.76
0.89
1.02
1.18
1.34
1.47
1.51
1.44
1.28
1.12
1.07
1.18
1.47
1.84
2.17
2.38
2.42
2.30
2.06
1.73
1.31
0.79
0.23
-0.30
-0.66
-0.76
-0.59
-0.25
0.09
0.25
0.14
-0.22
-0.65
-0.98
-1.06
-0.88
-0.55
-0.23
-0.06
-0.08
-0.26
-0.51
-0.76
-0.98
-1.16
-1.29
-1.30
-1.14
-0.81
-0.37
0.05
0.33
0.41
0.33
0.22
0.20
0.30
0.50
0.67
0.69
0.50
0.13
-0.29
-0.64
-0.82
-0.82
-0.74
-0.68
-0.73
-0.87
-1.00
-0.99
-0.77
-0.40
0.01
0.31
0.41
0.31
0.09
-0.11
-0.20
-0.10
0.14
0.44
0.68
0.77
0.67
0.41
0.08
-0.18
-0.28
-0.16
0.13
0.52
0.87
1.11
1.21
1.16
1.01
0.81
0.57
0.35
0.17
0.08
0.12
0.30
0.58
0.85
0.98
0.90
0.63
0.25
-0.08
-0.29
-0.37
-0.36
-0.32
-0.29
-0.25
-0.19
-0.10
-0.01
0.03
0.02
-0.02
-0.03
-0.00
0.02
-0.01
-0.15
-0.37
-0.60
-0.79
-0.89
-0.92
-0.94
-0.95
-0.96
-0.92
-0.82
-0.67
-0.51
-0.36
-0.23
-0.09
0.04
0.15
0.20
0.17
0.10
0.02
-0.00
0.00
-0.01
-0.09
-0.24
-0.39
-0.47
-0.40
-0.22
0.01
0.20
0.29
0.31
0.27
0.24
0.23
0.26
0.30
0.34
0.37
0.36
0.31
0.23
0.15
0.09
0.11
0.19
0.31
0.40
0.41
0.32
0.15
-0.03
-0.13
-0.14
-0.06
0.00
-0.04
-0.22
-0.47
-0.66
-0.68
-0.51
-0.25
-0.07
-0.06
-0.21
-0.41
-0.50
-0.47
-0.38
-0.36
-0.49
-0.71
-0.88
-0.83
-0.51
-0.03
0.38
0.55
0.39
0.01
-0.44
-0.77
-0.95
-1.02
-1.10
-1.25
-1.47
-1.66
-1.71
-1.54
-1.19
-0.75
-0.37
-0.16
-0.16
-0.32
-0.54
-0.71
-0.76
-0.70
-0.56
-0.43
-0.36
-0.36
-0.38
-0.34
-0.17
0.17
0.66
1.20
1.68
2.03
2.21
2.30
2.37
2.51
2.75
3.03
3.25
3.32
3.18
2.88
2.48
2.11
1.81
1.62
1.48
1.33
1.12
0.84
0.52
0.19
-0.09
-0.29
-0.39
-0.37
-0.25
-0.06
0.15
0.31
0.40
0.38
0.26
0.06
-0.18
-0.42
-0.64
-0.79
-0.85
-0.82
-0.71
-0.59
-0.53
-0.60
-0.81
-1.09
-1.31
-1.37
-1.18
-0.79
-0.29
0.16
0.46
0.56
0.48
0.30
0.12
0.03
0.05
0.21
0.47
0.77
1.02
1.15
1.11
0.89
0.52
0.08
-0.33
-0.59
-0.65
-0.54
-0.34
-0.17
-0.08
-0.08
-0.11
-0.11
-0.09
-0.07
-0.12
-0.25
-0.36
-0.37
-0.21
0.03
0.23
0.24
0.05
-0.25
-0.47
-0.46
-0.20
0.17
0.48
0.62
0.59
0.53
0.55
0.69
0.84
0.85
0.62
0.19
-0.29
-0.64
-0.73
-0.58
-0.33
-0.12
-0.05
-0.09
-0.17
-0.19
-0.14
-0.02
0.12
0.24
0.36
0.47
0.54
0.55
0.49
0.36
0.24
0.18
0.22
0.32
0.39
0.34
0.16
-0.12
-0.40
-0.60
-0.69
-0.67
-0.53
-0.31
-0.01
0.30
0.52
0.57
0.39
0.02
-0.43
-0.78
-0.92
-0.80
-0.45
0.01
0.44
0.74
0.82
0.67
0.33
-0.11
-0.53
-0.80
-0.86
-0.71
-0.45
-0.20
-0.08
-0.14
-0.34
-0.58
-0.73
-0.73
-0.58
-0.31
0.01
0.36
0.69
0.97
1.13
1.11
0.89
0.52
0.15
-0.11
-0.19
-0.14
-0.04
0.03
0.05
0.08
0.18
0.33
0.46
0.47
0.28
-0.10
-0.55
-0.92
-1.10
-1.07
-0.87
-0.61
-0.38
-0.24
-0.15
-0.07
0.05
0.23
0.45
0.69
0.92
1.14
1.33
1.45
1.44
1.26
0.93
0.55
0.25
0.11
0.15
0.28
0.37
0.35
0.23
0.10
0.05
0.09
0.20
0.28
0.30
0.20
0.01
-0.23
-0.50
-0.79
-1.06
-1.27
-1.40
-1.43
-1.40
-1.32
-1.22
-1.10
-0.94
-0.73
-0.50
-0.27
-0.12
-0.10
-0.20
-0.38
-0.54
-0.60
-0.53
-0.34
-0.09
0.12
0.25
0.26
0.15
-0.03
-0.26
-0.49
-0.70
-0.87
-1.01
-1.13
-1.26
-1.42
-1.61
-1.79
-1.91
-1.93
-1.84
-1.69
-1.57
-1.60
-1.86
-2.35
-2.99
-3.62
-4.09
-4.29
-4.19
-3.88
-3.52
-3.33
-3.43
-3.85
-4.46
-5.05
-5.44
-5.51
-5.30
-4.96
-4.69
-4.65
-4.89
-5.34
-5.80
-6.04
-5.83
-5.03
-3.65
-1.80
0.27
2.35
4.20
5.71
6.81
7.49
7.78
7.79
7.61
7.38
7.17
6.97
6.73
6.38
5.86
5.18
4.40
3.61
2.88
2.24
1.69
1.21
0.79
0.42
0.12
-0.08
-0.16
-0.20
-0.33
-0.69
-1.37
-2.35
-3.45
-4.48
-5.27
-5.84
-6.34
-7.03
-8.10
-9.60
-11.39
-13.15
-14.54
-15.40
-15.79
-16.06
-16.60
-17.78
-19.67
-22.05
-24.46
-26.41
-27.60
-27.98
-27.81
-27.53
-27.68
-28.80
-31.36
-35.53
-40.91
-46.24
-49.53
-48.52
-41.59
-28.48
-10.69
8.93
27.14
41.38
50.47
54.70
55.23
53.39
50.17
46.14
41.63
37.04
32.94
29.84
28.02
27.28
27.06
26.60
25.37
23.24
20.55
17.87
15.79
14.55
14.04
13.80
13.37
12.44
11.01
9.34
7.77
6.54
5.71
5.09
4.45
3.57
2.43
1.15
-0.04
-0.94
-1.41
-1.46
-1.18
-0.74
-0.32
-0.01
0.13
0.12
0.03
-0.11
-0.23
-0.32
-0.34
-0.29
-0.21
-0.13
-0.08
-0.09
-0.12
-0.15
-0.19
-0.26
-0.44
-0.77
-1.21
-1.64
-1.93
-1.98
-1.77
-1.40
-0.97
-0.58
-0.27
-0.05
0.07
0.11
0.09
0.07
0.10
0.24
0.44
0.59
0.54
0.23
-0.29
-0.85
-1.26
-1.38
-1.22
-0.88
-0.50
-0.16
0.12
0.38
0.66
0.93
1.13
1.21
1.18
1.08
0.94
0.78
0.59
0.33
0.03
-0.25
-0.41
-0.40
-0.20
0.11
0.41
0.59
0.64
0.58
0.50
0.47
0.52
0.62
0.68
0.69
0.62
0.51
0.38
0.27
0.19
0.16
0.20
0.33
0.55
0.82
1.04
1.14
1.07
0.83
0.47
0.10
-0.16
-0.23
-0.07
0.29
0.73
1.09
1.22
1.05
0.67
0.26
0.02
0.04
0.29
0.64
0.91
1.03
1.01
0.92
0.83
0.73
0.58
0.34
0.07
-0.15
-0.22
-0.09
0.15
0.38
0.45
0.34
0.06
-0.29
-0.62
-0.91
-1.16
-1.40
-1.64
-1.85
-1.98
-2.01
-1.94
-1.84
-1.76
-1.75
-1.79
-1.80
-1.69
-1.41
-1.00
-0.57
-0.26
-0.16
-0.26
-0.48
-0.68
-0.77
-0.72
-0.57
-0.36
-0.15
0.07
0.31
0.54
0.75
0.88
0.87
0.72
0.46
0.17
-0.02
-0.04
0.14
0.46
0.81
1.10
1.29
1.38
1.42
1.44
1.43
1.30
0.98
0.45
-0.19
-0.80
-1.17
-1.21
-0.88
-0.32
0.29
0.78
1.02
1.03
0.88
0.70
0.57
0.54
0.55
0.54
0.44
0.25
-0.01
-0.31
-0.61
-0.88
-1.08
-1.20
-1.20
-1.09
-0.89
-0.64
-0.40
-0.20
-0.06
-0.01
-0.04
-0.12
-0.22
-0.28
-0.27
-0.19
-0.10
-0.07
-0.15
-0.33
-0.54
-0.72
-0.80
-0.80
-0.76
-0.72
-0.69
-0.62
-0.44
-0.15
0.19
0.44
0.48
0.27
-0.10
-0.46
-0.64
-0.61
-0.43
-0.24
-0.16
-0.18
-0.23
-0.19
-0.01
0.28
0.58
0.81
0.90
0.87
0.72
0.52
0.28
0.04
-0.14
-0.21
-0.14
0.05
0.29
0.48
0.56
0.48
0.28
0.00
-0.23
-0.33
-0.24
-0.01
0.26
0.44
0.44
0.28
0.09
0.03
0.19
0.58
1.06
1.46
1.62
1.50
1.14
0.67
0.20
-0.16
-0.36
-0.40
-0.33
-0.23
-0.19
-0.26
-0.47
-0.78
-1.12
-1.38
-1.50
-1.42
-1.16
-0.76
-0.30
0.13
0.45
0.62
0.61
0.49
0.32
0.19
0.15
0.18
0.23
0.24
0.17
0.04
-0.10
-0.17
-0.14
-0.04
0.06
0.11
0.08
0.02
0.02
0.11
0.27
0.42
0.43
0.26
-0.10
-0.51
-0.83
-0.90
-0.69
-0.25
0.27
0.68
0.83
0.68
0.29
-0.21
-0.67
-0.97
-1.07
-1.00
-0.81
-0.56
-0.30
-0.04
0.18
0.34
0.45
0.49
0.47
0.39
0.22
-0.02
-0.32
-0.60
-0.77
-0.78
-0.62
-0.35
-0.08
0.07
0.05
-0.14
-0.38
-0.58
-0.64
-0.53
-0.29
-0.01
0.23
0.42
0.59
0.77
0.96
1.11
1.10
0.88
0.48
0.05
-0.24
-0.28
-0.06
0.32
0.67
0.84
0.80
0.58
0.30
0.06
-0.07
-0.09
-0.05
-0.01
-0.00
-0.05
-0.11
-0.16
-0.15
-0.08
0.05
0.19
0.29
0.30
0.17
-0.09
-0.45
-0.81
-1.06
-1.14
-1.05
-0.86
-0.67
-0.52
-0.38
-0.20
0.08
0.43
0.77
1.01
1.08
1.04
0.97
0.95
1.02
1.15
1.27
1.35
1.40
1.48
1.63
1.86
2.16
2.52
2.92
3.36
3.77
4.04
4.07
3.81
3.40
3.08
3.17
3.85
5.10
6.63
8.02
8.88
9.06
8.76
8.45
8.72
9.97
12.23
15.10
17.86
19.81
20.61
20.45
20.06
20.38
22.12
25.44
29.79
34.16
37.50
39.15
39.11
38.05
37.02
37.17
39.38
44.05
50.69
57.65
62.13
60.83
51.18
32.68
7.58
-19.55
-43.47
-60.19
-68.40
-69.56
-66.81
-63.28
-60.92
-60.07
-60.04
-59.87
-58.89
-56.87
-53.91
-50.16
-45.75
-40.77
-35.20
-29.16
-22.94
-17.07
-12.15
-8.60
-6.33
-4.67
-2.65
0.54
5.02
10.08
14.49
17.06
17.21
15.22
11.97
8.53
5.71
3.90
3.08
2.96
3.18
3.40
3.35
2.94
2.23
1.42
0.73
0.35
0.30
0.43
0.55
0.45
-0.02
-0.90
-2.11
-3.50
-4.85
-5.89
-6.39
-6.22
-5.45
-4.30
-3.07
-2.05
-1.37
-1.05
-0.95
-0.92
-0.84
-0.64
-0.36
-0.03
0.28
0.56
0.80
1.01
1.16
1.23
1.22
1.18
1.19
1.32
1.59
1.92
2.17
2.19
1.86
1.19
0.27
-0.77
-1.84
-2.84
-3.71
-4.37
-4.72
-4.71
-4.38
-3.87
-3.37
-3.02
-2.90
-2.94
-3.02
-3.01
-2.81
-2.38
-1.74
-0.99
-0.29
0.21
0.36
0.12
-0.45
-1.19
-1.94
-2.55
-2.96
-3.18
-3.23
-3.12
-2.82
-2.34
-1.71
-1.04
-0.46
-0.08
0.05
-0.06
-0.32
-0.64
-0.90
-1.02
-0.97
-0.74
-0.44
-0.20
-0.15
-0.40
-0.93
-1.62
-2.28
-2.78
-3.12
-3.45
-4.00
-4.95
-6.32
-7.92
-9.44
-10.55
-11.12
-11.26
-11.28
-11.58
-12.38
-13.63
-15.00
-16.05
-16.45
-16.21
-15.65
-15.29
-15.62
-16.77
-18.49
-20.12
-20.80
-19.65
-16.09
-9.86
-1.12
9.70
22.02
35.17
48.38
60.74
71.26
79.06
83.53
84.36
81.44
74.62
63.72
48.80
30.62
10.90
-7.85
-23.05
-33.04
-37.65
-38.17
-36.61
-34.71
-33.31
-32.33
-31.20
-29.56
-27.56
-25.80
-24.97
-25.47
-27.16
-29.45
-31.56
-32.83
-32.96
-32.08
-30.71
-29.49
-28.93
-29.19
-30.05
-31.07
-31.80
-32.17
-32.43
-33.20
-35.12
-38.61
-43.74
-50.19
-57.33
-64.18
-69.27
-70.73
-66.58
-55.43
-37.19
-13.52
12.42
36.90
56.75
70.26
77.42
79.41
77.91
74.33
69.69
64.65
59.81
55.80
53.17
52.13
52.49
53.70
55.06
55.88
55.77
54.62
52.59
50.02
47.30
44.76
42.62
40.98
39.90
39.50
39.98
41.60
44.46
48.23
52.02
54.49
54.20
50.08
41.85
30.19
16.57
2.78
-9.50
-19.14
-25.71
-29.45
-31.09
-31.64
-32.06
-33.01
-34.66
-36.70
-38.48
-39.37
-39.04
-37.51
-35.15
-32.35
-29.38
-26.31
-23.11
-19.83
-16.68
-13.94
-11.82
-10.25
-8.90
-7.31
-5.19
-2.57
0.18
2.46
3.79
4.01
3.38
2.51
2.10
2.64
4.19
6.41
8.73
10.60
11.77
12.34
12.74
13.49
14.98
17.35
20.45
23.80
26.53
27.50
25.45
19.56
9.87
-2.42
-15.18
-26.05
-33.29
-36.36
-35.94
-33.41
-30.16
-27.05
-24.34
-21.95
-19.80
-18.04
-16.87
-16.38
-16.35
-16.33
-15.84
-14.62
-12.70
-10.46
-8.40
-6.92
-6.21
-6.16
-6.44
-6.67
-6.56
-6.02
-5.18
-4.34
-3.79
-3.69
-3.98
-4.40
-4.63
-4.46
-3.90
-3.15
-2.52
-2.18
-2.15
-2.24
-2.22
-1.96
-1.51
-1.01
-0.66
-0.55
-0.64
-0.82
-0.96
-0.95
-0.79
-0.50
-0.12
0.31
0.76
1.22
1.66
2.06
2.36
2.50
2.42
2.13
1.69
1.22
0.84
0.62
0.58
0.61
0.61
0.51
0.31
0.11
-0.03
-0.07
-0.08
-0.17
-0.42
-0.79
-1.19
-1.46
-1.52
-1.37
-1.11
-0.87
-0.74
-0.77
-0.94
-1.21
-1.52
-1.83
-2.08
-2.20
-2.17
-1.98
-1.61
-1.04
-0.28
0.60
1.45
2.04
2.22
1.94
1.37
0.76
0.32
0.14
0.15
0.20
0.15
0.00
-0.15
-0.20
-0.12
0.03
0.10
-0.03
-0.38
-0.88
-1.38
-1.73
-1.86
-1.80
-1.66
-1.58
-1.69
-2.04
-2.55
-3.07
-3.47
-3.64
-3.58
-3.38
-3.13
-2.93
-2.83
-2.84
-2.98
-3.24
-3.57
-3.89
-4.08
-3.96
-3.46
-2.62
-1.62
-0.70
-0.10
0.08
-0.09
-0.47
-0.87
-1.17
-1.34
-1.42
-1.45
-1.48
-1.54
-1.65
-1.83
-2.08
-2.33
-2.47
-2.39
-1.99
-1.25
-0.21
0.99
2.22
3.34
4.21
4.74
4.83
4.45
3.64
2.53
1.29
0.11
-0.84
-1.50
-1.89
-2.14
-2.39
-2.77
-3.32
-3.98
-4.60
-5.05
-5.26
-5.26
-5.16
-5.05
-4.98
-4.94
-4.92
-4.92
-5.05
-5.44
-6.17
-7.20
-8.35
-9.39
-10.18
-10.77
-11.38
-12.31
-13.74
-15.62
-17.66
-19.48
-20.80
-21.61
-22.18
-22.96
-24.36
-26.54
-29.32
-32.15
-34.40
-35.56
-35.52
-34.62
-33.58
-33.18
-33.97
-36.05
-39.04
-42.09
-44.01
-43.33
-38.58
-28.65
-13.40
6.00
27.03
46.40
61.07
69.20
70.69
66.95
60.18
52.40
44.90
38.14
32.07
26.62
21.83
17.85
14.65
11.94
9.18
5.91
2.08
-1.80
-4.64
-5.27
-2.85
2.63
10.33
18.75
26.24
31.59
34.30
34.65
33.40
31.39
29.25
27.21
25.25
23.29
21.36
19.65
18.42
17.79
17.65
17.70
17.52
16.85
15.63
14.03
12.35
10.87
9.78
9.20
9.26
10.07
11.74
14.23
17.34
20.73
24.05
27.11
29.89
32.51
35.11
37.74
40.31
42.65
44.63
46.19
47.48
48.74
50.18
51.84
53.43
54.29
53.55
50.48
44.82
36.96
27.90
18.87
10.92
4.66
0.15
-2.99
-5.45
-8.14
-12.04
-17.96
-26.13
-35.94
-45.97
-54.45
-59.94
-61.89
-60.79
-57.82
-54.24
-50.88
-48.02
-45.52
-43.21
-41.04
-39.05
-37.24
-35.46
-33.49
-31.13
-28.42
-25.57
-22.95
-20.85
-19.39
-18.43
-17.69
-16.88
-15.79
-14.38
-12.72
-10.97
-9.27
-7.76
-6.52
-5.66
-5.22
-5.16
-5.38
-5.66
-5.79
-5.63
-5.17
-4.50
-3.75
-3.00
-2.28
-1.59
-0.92
-0.31
0.15
0.41
0.46
0.37
0.21
0.07
-0.01
0.01
0.12
0.32
0.55
0.73
0.80
0.73
0.58
0.43
0.34
0.29
0.22
0.02
-0.33
-0.80
-1.28
-1.64
-1.82
-1.86
-1.82
-1.80
-1.86
-1.97
-2.06
-2.05
-1.88
-1.59
-1.26
-0.97
-0.81
-0.75
-0.75
-0.76
-0.78
-0.84
-1.00
-1.27
-1.61
-1.93
-2.16
-2.28
-2.35
-2.42
-2.53
-2.68
-2.84
-2.97
-3.03
-2.99
-2.81
-2.46
-1.93
-1.29
-0.64
-0.09
0.32
0.66
1.06
1.66
2.54
3.65
4.91
6.20
7.46
8.65
9.76
10.72
11.48
11.98
12.25
12.35
12.32
12.12
11.62
10.65
9.18
7.36
5.46
3.78
2.52
1.69
1.18
0.88
0.69
0.58
0.54
0.48
0.30
-0.09
-0.68
-1.34
-1.87
-2.12
-2.05
-1.74
-1.37
-1.14
-1.15
-1.46
-2.00
-2.69
-3.39
-4.01
-4.44
-4.65
-4.66
-4.51
-4.28
-4.03
-3.80
-3.61
-3.46
-3.33
-3.19
-2.99
-2.68
-2.25
-1.73
-1.21
-0.79
-0.55
-0.51
-0.63
-0.82
-0.97
-1.00
-0.88
-0.65
-0.38
-0.18
-0.14
-0.30
-0.62
-0.98
-1.25
-1.36
-1.30
-1.17
-1.07
-1.10
-1.27
-1.53
-1.79
-1.97
-2.02
-1.91
-1.66
-1.31
-0.93
-0.62
-0.42
-0.37
-0.40
-0.42
-0.32
-0.07
0.29
0.65
0.90
0.97
0.87
0.70
0.59
0.67
0.95
1.36
1.74
1.91
1.78
1.33
0.69
0.02
-0.56
-0.96
-1.18
-1.22
-1.07
-0.72
-0.21
0.33
0.72
0.75
0.37
-0.30
-1.00
-1.43
-1.45
-1.09
-0.54
-0.08
0.16
0.15
0.03
-0.06
-0.03
0.13
0.37
0.61
0.83
1.04
1.25
1.45
1.59
1.58
1.37
0.97
0.49
0.08
-0.14
-0.14
0.03
0.24
0.38
0.40
0.32
0.19
0.06
-0.05
-0.13
-0.19
-0.22
-0.21
-0.16
-0.10
-0.06
-0.06
-0.10
-0.15
-0.17
-0.14
-0.05
0.07
0.20
0.30
0.35
0.33
0.28
0.23
0.20
0.23
0.29
0.34
0.34
0.24
0.07
-0.11
-0.26
-0.32
-0.35
-0.38
-0.47
-0.57
-0.62
-0.55
-0.34
-0.05
0.17
0.23
0.07
-0.23
-0.51
-0.67
-0.65
-0.48
-0.25
-0.05
0.07
0.06
-0.08
-0.35
-0.69
-0.99
-1.16
-1.11
-0.85
-0.44
0.01
0.41
0.70
0.89
0.97
0.93
0.78
0.55
0.28
0.06
-0.03
0.01
0.14
0.29
0.39
0.41
0.37
0.33
0.34
0.42
0.55
0.70
0.83
0.89
0.88
0.83
0.77
0.71
0.64
0.54
0.35
0.10
-0.16
-0.35
-0.42
-0.40
-0.36
-0.43
-0.65
-1.00
-1.35
-1.57
-1.57
-1.40
-1.17
-1.01
-1.02
-1.18
-1.37
-1.45
-1.31
-0.93
-0.41
0.13
0.56
0.80
0.87
0.82
0.70
0.54
0.34
0.11
-0.07
-0.14
-0.01
0.30
0.69
0.98
1.04
0.82
0.42
0.02
-0.22
-0.24
-0.11
0.01
0.01
-0.15
-0.38
-0.58
-0.68
-0.71
-0.74
-0.84
-1.00
-1.14
-1.16
-1.04
-0.85
-0.73
-0.76
-0.94
-1.14
-1.23
-1.17
-0.99
-0.81
-0.72
-0.76
-0.86
-0.92
-0.88
-0.74
-0.56
-0.42
-0.39
-0.51
-0.78
-1.19
-1.69
-2.19
-2.65
-3.01
-3.28
-3.46
-3.60
-3.70
-3.78
-3.80
-3.72
-3.48
-3.04
-2.36
-1.42
-0.29
0.93
2.08
3.07
3.85
4.47
5.01
5.54
6.06
6.53
6.82
6.85
6.56
5.95
5.08
4.06
3.02
2.06
1.29
0.70
0.27
-0.11
-0.50
-0.93
-1.36
-1.72
-1.96
-2.07
-2.09
-2.04
-1.95
-1.80
-1.55
-1.21
-0.82
-0.45
-0.14
0.07
0.23
0.39
0.58
0.82
1.04
1.17
1.18
1.08
0.93
0.80
0.75
0.77
0.87
1.02
1.18
1.36
1.57
1.79
2.01
2.21
2.36
2.44
2.42
2.32
2.16
2.01
1.91
1.88
1.93
1.98
2.01
1.99
1.95
1.90
1.88
1.86
1.83
1.74
1.59
1.40
1.18
0.92
0.63
0.31
-0.01
-0.26
-0.39
-0.39
-0.29
-0.16
-0.07
-0.09
-0.25
-0.55
-0.94
-1.34
-1.69
-1.89
-1.93
-1.83
-1.63
-1.42
-1.23
-1.08
-0.96
-0.86
-0.80
-0.82
-0.93
-1.13
-1.35
-1.53
-1.61
-1.57
-1.42
-1.21
-0.98
-0.78
-0.65
-0.60
-0.62
-0.65
-0.67
-0.67
-0.65
-0.68
-0.77
-0.92
-1.09
-1.21
-1.24
-1.19
-1.09
-0.96
-0.80
-0.60
-0.34
-0.03
0.25
0.42
0.41
0.25
0.04
-0.10
-0.08
0.08
0.28
0.39
0.36
0.19
-0.02
-0.17
-0.21
-0.10
0.09
0.34
0.59
0.81
0.97
0.99
0.85
0.56
0.24
-0.01
-0.07
0.04
0.25
0.44
0.51
0.46
0.30
0.11
-0.08
-0.25
-0.39
-0.47
-0.45
-0.30
-0.06
0.21
0.42
0.52
0.49
0.39
0.28
0.21
0.21
0.27
0.39
0.55
0.75
0.92
0.98
0.91
0.70
0.43
0.20
0.11
0.13
0.18
0.15
-0.05
-0.38
-0.75
-1.05
-1.23
-1.29
-1.27
-1.21
-1.09
-0.87
-0.57
-0.26
-0.06
-0.05
-0.19
-0.39
-0.48
-0.38
-0.13
0.17
0.35
0.34
0.12
-0.26
-0.71
-1.15
-1.51
-1.73
-1.75
-1.56
-1.20
-0.72
-0.20
0.28
0.66
0.90
0.97
0.85
0.58
0.25
-0.05
-0.23
-0.24
-0.07
0.23
0.59
0.94
1.20
1.32
1.28
1.09
0.79
0.44
0.11
-0.15
-0.32
-0.40
-0.40
-0.33
-0.23
-0.13
-0.05
-0.03
-0.09
-0.19
-0.31
-0.41
-0.48
-0.52
-0.53
-0.52
-0.47
-0.36
-0.22
-0.08
-0.03
-0.11
-0.32
-0.58
-0.80
-0.94
-0.98
-0.96
-0.89
-0.75
-0.51
-0.16
0.30
0.80
1.26
1.61
1.80
1.79
1.59
1.23
0.79
0.34
-0.02
-0.25
-0.35
-0.35
-0.31
-0.22
-0.08
0.13
0.38
0.59
0.67
0.55
0.25
-0.15
-0.51
-0.70
-0.69
-0.52
-0.34
-0.27
-0.37
-0.59
-0.78
-0.83
-0.72
-0.56
-0.48
-0.56
-0.77
-0.96
-0.97
-0.71
-0.26
0.19
0.46
0.42
0.08
-0.45
-1.01
-1.45
-1.69
-1.66
-1.38
-0.90
-0.32
0.26
0.76
1.15
1.39
1.50
1.47
1.33
1.12
0.93
0.88
1.01
1.32
1.71
2.01
2.14
2.07
1.90
1.73
1.62
1.57
1.50
1.34
1.07
0.75
0.49
0.34
0.31
0.33
0.32
0.18
-0.09
-0.46
-0.83
-1.15
-1.32
-1.35
-1.22
-0.98
-0.67
-0.37
-0.13
-0.02
-0.04
-0.16
-0.30
-0.37
-0.34
-0.23
-0.13
-0.14
-0.30
-0.59
-0.91
-1.13
-1.18
-1.05
-0.81
-0.56
-0.39
-0.35
-0.43
-0.63
-0.92
-1.25
-1.52
-1.66
-1.60
-1.33
-0.89
-0.43
-0.08
0.04
-0.11
-0.45
-0.80
-1.03
-1.02
-0.78
-0.40
0.03
0.47
0.86
1.18
1.42
1.50
1.39
1.11
0.75
0.42
0.24
0.24
0.42
0.71
1.04
1.33
1.53
1.58
1.47
1.21
0.84
0.41
-0.03
-0.48
-0.88
-1.17
-1.27
-1.14
-0.82
-0.45
-0.20
-0.18
-0.37
-0.64
-0.83
-0.83
-0.65
-0.38
-0.15
-0.02
0.01
-0.01
-0.04
-0.05
-0.03
0.03
0.17
0.37
0.63
0.91
1.16
1.34
1.41
1.36
1.16
0.83
0.44
0.09
-0.13
-0.15
-0.02
0.17
0.27
0.20
-0.03
-0.33
-0.56
-0.60
-0.44
-0.11
0.26
0.56
0.67
0.57
0.26
-0.18
-0.66
-1.07
-1.34
-1.46
-1.44
-1.32
-1.15
-0.99
-0.90
-0.89
-0.96
-1.06
-1.13
-1.09
-0.90
-0.56
-0.12
0.30
0.59
0.69
0.59
0.35
0.08
-0.13
-0.23
-0.22
-0.14
-0.05
0.05
0.16
0.28
0.37
0.39
0.30
0.11
-0.11
-0.26
-0.25
-0.07
0.18
0.37
0.36
0.14
-0.23
-0.60
-0.83
-0.83
-0.63
-0.28
0.09
0.39
0.56
0.58
0.48
0.30
0.12
-0.02
-0.07
-0.03
0.09
0.27
0.49
0.75
1.00
1.21
1.29
1.21
0.95
0.61
0.30
0.16
0.23
0.48
0.79
1.03
1.11
1.06
0.92
0.77
0.67
0.60
0.51
0.36
0.11
-0.21
-0.52
-0.75
-0.85
-0.85
-0.83
-0.90
-1.08
-1.36
-1.63
-1.80
-1.79
-1.63
-1.37
-1.08
-0.82
-0.61
-0.48
-0.44
-0.52
-0.71
-0.96
-1.18
-1.30
-1.29
-1.17
-1.01
-0.89
-0.84
-0.82
-0.81
-0.72
-0.49
-0.10
0.47
1.18
1.95
2.65
3.12
3.29
3.15
2.78
2.33
1.89
1.50
1.14
0.76
0.36
0.03
-0.15
-0.08
0.20
0.58
0.88
0.94
0.74
0.37
0.02
-0.13
0.02
0.49
1.23
2.11
3.05
3.91
4.55
4.81
4.51
3.57
2.01
0.05
-2.02
-3.88
-5.30
-6.22
-6.71
-6.93
-7.03
-7.05
-6.93
-6.46
-5.44
-3.80
-1.58
0.97
3.50
5.65
7.18
7.99
8.14
7.79
7.12
6.28
5.38
4.44
3.52
2.68
1.98
1.47
1.12
0.84
0.56
0.26
0.01
-0.06
0.15
0.58
1.01
1.17
0.85
0.06
-1.01
-2.03
-2.72
-2.95
-2.78
-2.35
-1.81
-1.26
-0.76
-0.30
0.10
0.45
0.81
1.25
1.85
2.65
3.62
4.63
5.49
6.02
6.07
5.56
4.52
3.10
1.50
-0.06
-1.38
-2.35
-2.98
-3.35
-3.54
-3.62
-3.55
-3.30
-2.87
-2.33
-1.85
-1.60
-1.67
-2.03
-2.49
-2.83
-2.88
-2.61
-2.13
-1.62
-1.20
-0.94
-0.80
-0.69
-0.57
-0.44
-0.32
-0.23
-0.19
-0.16
-0.18
-0.28
-0.53
-0.99
-1.65
-2.45
-3.29
-4.06
-4.71
-5.24
-5.68
-6.10
-6.53
-7.00
-7.46
-7.90
-8.28
-8.57
-8.77
-8.89
-8.96
-9.00
-9.02
-9.01
-9.00
-9.00
-9.02
-9.09
-9.21
-9.33
-9.43
-9.43
-9.29
-8.92
-8.15
-6.83
-4.79
-2.07
1.13
4.39
7.24
9.34
10.57
11.06
11.08
10.87
10.57
10.16
9.57
8.80
7.97
7.26
6.85
6.78
6.95
7.12
7.06
6.64
5.94
5.13
4.44
3.97
3.73
3.57
3.34
3.00
2.57
2.17
1.91
1.79
1.75
1.69
1.50
1.15
0.70
0.23
-0.16
-0.43
-0.58
-0.65
-0.66
-0.60
-0.43
-0.11
0.37
0.93
1.47
1.88
2.07
2.01
1.75
1.37
0.96
0.60
0.32
0.15
0.05
0.02
0.06
0.16
0.33
0.55
0.77
0.91
0.93
0.85
0.70
0.57
0.49
0.44
0.40
0.32
0.23
0.20
0.28
0.50
0.81
1.14
1.42
1.64
1.83
2.03
2.26
2.50
2.68
2.80
2.86
2.90
2.92
2.89
2.75
2.45
2.01
1.54
1.21
1.11
1.27
1.62
2.05
2.46
2.80
3.11
3.40
3.66
3.85
3.89
3.75
3.49
3.20
2.98
2.86
2.73
2.42
1.77
0.73
-0.59
-1.94
-3.08
-3.84
-4.21
-4.29
-4.23
-4.14
-4.05
-3.98
-3.89
-3.81
-3.74
-3.67
-3.58
-3.39
-3.06
-2.56
-1.92
-1.20
-0.48
0.13
0.54
0.68
0.52
0.11
-0.47
-1.12
-1.71
-2.13
-2.32
-2.25
-1.95
-1.50
-1.02
-0.63
-0.37
-0.27
-0.31
-0.46
-0.74
-1.16
-1.68
-2.25
-2.71
-2.95
-2.92
-2.65
-2.24
-1.79
-1.37
-1.00
-0.65
-0.33
-0.05
0.16
0.30
0.38
0.40
0.36
0.23
-0.02
-0.37
-0.75
-1.02
-1.09
-0.88
-0.42
0.18
0.78
1.26
1.55
1.64
1.56
1.38
1.14
0.86
0.53
0.14
-0.26
-0.62
-0.84
-0.88
-0.75
-0.54
-0.34
-0.16
-0.02
0.14
0.34
0.56
0.74
0.85
0.85
0.74
0.53
0.22
-0.18
-0.60
-0.94
-1.09
-0.99
-0.66
-0.23
0.14
0.35
0.37
0.28
0.19
0.17
0.20
0.23
0.18
-0.00
-0.26
-0.51
-0.66
-0.66
-0.58
-0.52
-0.59
-0.82
-1.13
-1.35
-1.33
-1.01
-0.49
0.05
0.43
0.54
0.43
0.28
0.23
0.35
0.59
0.83
0.97
0.97
0.93
0.95
1.07
1.22
1.29
1.16
0.82
0.41
0.10
0.04
0.21
0.49
0.68
0.63
0.32
-0.12
-0.47
-0.58
-0.39
0.00
0.40
0.62
0.58
0.33
-0.01
-0.30
-0.48
-0.59
-0.70
-0.86
-1.01
-1.08
-0.97
-0.68
-0.29
0.07
0.30
0.39
0.39
0.38
0.39
0.39
0.30
0.08
-0.23
-0.51
-0.65
-0.61
-0.42
-0.19
-0.01
0.09
0.13
0.18
0.25
0.33
0.37
0.35
0.27
0.20
0.18
0.26
0.39
0.53
0.61
0.62
0.54
0.42
0.26
0.07
-0.13
-0.33
-0.47
-0.51
-0.38
-0.08
0.30
0.64
0.83
0.79
0.55
0.22
-0.05
-0.17
-0.11
0.03
0.13
0.10
-0.03
-0.20
-0.30
-0.29
-0.19
-0.06
0.01
0.02
-0.02
-0.06
-0.06
-0.05
-0.05
-0.10
-0.18
-0.26
-0.31
-0.29
-0.20
-0.02
0.21
0.47
0.69
0.82
0.84
0.76
0.62
0.49
0.40
0.30
0.16
-0.09
-0.41
-0.74
-1.00
-1.12
-1.11
-1.04
-1.00
-1.06
-1.17
-1.21
-1.06
-0.65
-0.05
0.56
0.95
0.99
0.70
0.22
-0.25
-0.57
-0.71
-0.74
-0.71
-0.65
-0.54
-0.35
-0.13
0.04
0.11
0.05
-0.09
-0.23
-0.35
-0.42
-0.43
-0.33
-0.07
0.36
0.86
1.24
1.32
1.05
0.54
0.02
-0.28
-0.27
-0.03
0.29
0.52
0.64
0.70
0.77
0.89
0.98
0.92
0.66
0.23
-0.22
-0.50
-0.48
-0.18
0.24
0.53
0.51
0.16
-0.37
-0.85
-1.07
-0.97
-0.63
-0.21
0.15
0.38
0.50
0.54
0.48
0.31
-0.01
-0.43
-0.82
-1.05
-1.04
-0.82
-0.50
-0.21
-0.00
0.12
0.24
0.37
0.51
0.59
0.56
0.43
0.26
0.12
0.05
0.01
-0.03
-0.12
-0.24
-0.37
-0.50
-0.60
-0.73
-0.89
-1.09
-1.26
-1.34
-1.26
-1.01
-0.63
-0.18
0.25
0.61
0.84
0.95
0.94
0.84
0.68
0.53
0.45
0.49
0.65
0.89
1.13
1.28
1.26
1.07
0.76
0.39
0.05
-0.18
-0.28
-0.20
0.05
0.40
0.74
0.95
0.94
0.71
0.38
0.07
-0.09
-0.10
-0.03
0.04
0.03
-0.02
-0.04
0.05
0.25
0.48
0.65
0.66
0.54
0.34
0.15
0.00
-0.12
-0.27
-0.52
-0.84
-1.17
-1.42
-1.52
-1.47
-1.30
-1.06
-0.78
-0.50
-0.22
0.03
0.20
0.28
0.25
0.14
-0.01
-0.17
-0.27
-0.27
-0.14
0.09
0.36
0.55
0.57
0.40
0.10
-0.21
-0.40
-0.44
-0.35
-0.23
-0.13
-0.07
0.00
0.14
0.36
0.60
0.78
0.84
0.77
0.65
0.53
0.45
0.37
0.25
0.06
-0.16
-0.32
-0.31
-0.12
0.17
0.42
0.47
0.26
-0.15
-0.56
-0.79
-0.73
-0.39
0.10
0.57
0.86
0.91
0.75
0.43
0.07
-0.25
-0.48
-0.61
-0.66
-0.68
-0.70
-0.72
-0.76
-0.75
-0.67
-0.49
-0.22
0.11
0.44
0.73
0.94
1.08
1.12
1.08
0.95
0.74
0.47
0.19
-0.06
-0.20
-0.17
-0.01
0.23
0.41
0.46
0.35
0.13
-0.09
-0.24
-0.31
-0.34
-0.38
-0.43
-0.48
-0.50
-0.47
-0.41
-0.35
-0.32
-0.31
-0.30
-0.29
-0.30
-0.34
-0.43
-0.51
-0.54
-0.50
-0.42
-0.36
-0.39
-0.52
-0.69
-0.81
-0.82
-0.70
-0.53
-0.38
-0.28
-0.23
-0.13
0.07
0.38
0.72
0.98
1.04
0.87
0.50
0.07
-0.29
-0.53
-0.64
-0.67
-0.64
-0.54
-0.36
-0.10
0.18
0.37
0.38
0.22
-0.01
-0.15
-0.08
0.25
0.72
1.18
1.49
1.57
1.45
1.20
0.92
0.70
0.56
0.53
0.56
0.58
0.54
0.42
0.20
-0.10
-0.42
-0.70
-0.88
-0.89
-0.71
-0.38
-0.01
0.27
0.33
0.17
-0.15
-0.50
-0.71
-0.72
-0.55
-0.28
-0.02
0.14
0.19
0.15
0.06
-0.04
-0.13
-0.21
-0.29
-0.39
-0.50
-0.57
-0.54
-0.35
0.02
0.50
0.93
1.17
1.14
0.88
0.55
0.32
0.29
0.43
0.60
0.65
0.51
0.24
-0.02
-0.17
-0.16
-0.07
0.01
0.01
-0.07
-0.14
-0.16
-0.10
-0.01
0.05
-0.00
-0.16
-0.37
-0.54
-0.61
-0.56
-0.43
-0.28
-0.15
-0.05
0.03
0.11
0.17
0.18
0.12
0.03
-0.05
-0.07
-0.03
0.03
0.08
0.08
0.07
0.07
0.12
0.18
0.17
0.03
-0.27
-0.63
-0.96
-1.13
-1.11
-0.91
-0.59
-0.24
0.08
0.32
0.46
0.48
0.41
0.24
0.04
-0.11
-0.14
-0.03
0.19
0.43
0.61
0.63
0.49
0.24
-0.04
-0.27
-0.38
-0.31
-0.07
0.29
0.64
0.84
0.79
0.50
0.10
-0.25
-0.43
-0.45
-0.39
-0.39
-0.47
-0.59
-0.64
-0.54
-0.29
0.03
0.30
0.48
0.56
0.58
0.55
0.44
0.22
-0.12
-0.55
-0.97
-1.26
-1.38
-1.32
-1.13
-0.89
-0.63
-0.40
-0.18
0.04
0.24
0.41
0.51
0.51
0.43
0.30
0.18
0.10
0.09
0.14
0.22
0.30
0.40
0.53
0.71
0.89
1.02
1.05
0.95
0.75
0.54
0.38
0.31
0.34
0.45
0.61
0.76
0.84
0.80
0.63
0.37
0.10
-0.11
-0.28
-0.43
-0.62
-0.84
-1.00
-1.03
-0.89
-0.64
-0.40
-0.27
-0.27
-0.33
-0.35
-0.26
-0.10
0.02
0.03
-0.09
-0.25
-0.33
-0.24
0.00
0.33
0.63
0.80
0.82
0.72
0.56
0.39
0.25
0.12
0.01
-0.08
-0.14
-0.21
-0.31
-0.45
-0.62
-0.74
-0.76
-0.65
-0.43
-0.17
0.06
0.22
0.31
0.38
0.48
0.62
0.79
0.96
1.05
1.03
0.84
0.49
0.08
-0.27
-0.45
-0.41
-0.25
-0.12
-0.14
-0.33
-0.60
-0.80
-0.84
-0.73
-0.55
-0.41
-0.32
-0.25
-0.15
-0.00
0.14
0.20
0.13
-0.04
-0.23
-0.37
-0.42
-0.43
-0.48
-0.61
-0.80
-0.96
-0.98
-0.80
-0.45
-0.04
0.28
0.43
0.43
0.33
0.23
0.15
0.08
-0.03
-0.18
-0.31
-0.36
-0.28
-0.09
0.15
0.34
0.46
0.52
0.57
0.61
0.64
0.60
0.48
0.30
0.12
0.00
-0.03
0.01
0.10
0.20
0.30
0.38
0.43
0.45
0.42
0.38
0.36
0.38
0.42
0.46
0.45
0.36
0.22
0.04
-0.10
-0.19
-0.20
-0.16
-0.08
-0.01
0.04
0.02
-0.07
-0.22
-0.42
-0.63
-0.77
-0.82
-0.76
-0.60
-0.39
-0.19
-0.01
0.14
0.27
0.38
0.41
0.28
-0.06
-0.58
-1.12
-1.48
-1.50
-1.14
-0.53
0.11
0.60
0.82
0.80
0.60
0.31
-0.00
-0.31
-0.56
-0.69
-0.61
-0.31
0.17
0.68
1.08
1.25
1.14
0.81
0.34
-0.15
-0.54
-0.76
-0.80
-0.69
-0.53
-0.40
-0.36
-0.41
-0.45
-0.41
-0.24
0.02
0.28
0.45
0.51
0.47
0.38
0.27
0.15
0.01
-0.12
-0.16
-0.04
0.26
0.65
0.99
1.11
0.98
0.65
0.28
0.01
-0.10
-0.08
-0.02
-0.01
-0.04
-0.06
-0.01
0.12
0.29
0.44
0.51
0.49
0.39
0.29
0.24
0.26
0.32
0.37
0.33
0.18
-0.07
-0.36
-0.62
-0.80
-0.91
-1.01
-1.14
-1.30
-1.46
-1.53
-1.43
-1.15
-0.71
-0.23
0.16
0.37
0.37
0.22
0.04
-0.02
0.09
0.34
0.59
0.69
0.57
0.27
-0.09
-0.32
-0.35
-0.20
0.03
0.21
0.26
0.16
0.00
-0.11
-0.09
0.07
0.30
0.48
0.48
0.27
-0.08
-0.41
-0.58
-0.50
-0.24
0.02
0.11
-0.04
-0.35
-0.63
-0.70
-0.53
-0.21
0.10
0.26
0.26
0.19
0.18
0.31
0.54
0.78
0.91
0.87
0.66
0.34
-0.01
-0.29
-0.42
-0.38
-0.19
0.05
0.24
0.31
0.28
0.18
0.07
-0.04
-0.19
-0.39
-0.60
-0.75
-0.75
-0.56
-0.22
0.15
0.44
0.60
0.69
0.77
0.88
1.01
1.07
1.01
0.80
0.47
0.13
-0.11
-0.17
-0.04
0.20
0.43
0.54
0.49
0.32
0.14
0.04
0.05
0.08
0.01
-0.24
-0.65
-1.08
-1.35
-1.36
-1.09
-0.63
-0.12
0.28
0.51
0.53
0.38
0.15
-0.09
-0.23
-0.25
-0.15
0.01
0.16
0.24
0.27
0.26
0.28
0.32
0.38
0.46
0.53
0.63
0.77
0.93
1.07
1.09
0.96
0.67
0.28
-0.11
-0.40
-0.54
-0.55
-0.48
-0.37
-0.27
-0.21
-0.18
-0.19
-0.23
-0.31
-0.41
-0.54
-0.68
-0.85
-1.03
-1.20
-1.36
-1.45
-1.40
-1.17
-0.74
-0.16
0.44
0.91
1.14
1.07
0.77
0.35
-0.06
-0.38
-0.58
-0.66
-0.66
-0.60
-0.53
-0.49
-0.50
-0.58
-0.68
-0.72
-0.64
-0.40
-0.03
0.41
0.85
1.19
1.37
1.33
1.07
0.63
0.12
-0.29
-0.46
-0.30
0.14
0.70
1.17
1.35
1.19
0.75
0.21
-0.27
-0.60
-0.78
-0.85
-0.85
-0.79
-0.66
-0.45
-0.22
-0.08
-0.10
-0.32
-0.64
-0.96
-1.14
-1.12
-0.93
-0.65
-0.33
-0.05
0.19
0.35
0.41
0.39
0.33
0.29
0.36
0.55
0.83
1.07
1.20
1.14
0.92
0.62
0.33
0.16
0.13
0.21
0.34
0.41
0.38
0.27
0.12
0.02
-0.01
0.03
0.10
0.16
0.19
0.21
0.27
0.36
0.44
0.44
0.33
0.10
-0.19
-0.46
-0.62
-0.63
-0.47
-0.18
0.14
0.38
0.45
0.32
0.07
-0.18
-0.32
-0.31
-0.18
-0.03
0.09
0.15
0.19
0.24
0.32
0.36
0.29
0.10
-0.16
-0.36
-0.38
-0.19
0.15
0.47
0.65
0.63
0.47
0.27
0.13
0.09
0.11
0.10
-0.01
-0.22
-0.51
-0.84
-1.14
-1.39
-1.51
-1.45
-1.19
-0.79
-0.34
0.02
0.21
0.20
0.05
-0.13
-0.24
-0.22
-0.06
0.18
0.42
0.60
0.67
0.61
0.46
0.27
0.11
0.04
0.05
0.10
0.13
0.14
0.13
0.15
0.21
0.29
0.31
0.22
0.00
-0.26
-0.46
-0.49
-0.33
-0.05
0.23
0.38
0.40
0.33
0.26
0.26
0.30
0.29
0.16
-0.11
-0.43
-0.68
-0.78
-0.70
-0.50
-0.27
-0.06
0.09
0.20
0.27
0.29
0.26
0.19
0.13
0.16
0.28
0.49
0.67
0.71
0.53
0.15
-0.33
-0.73
-0.89
-0.74
-0.36
0.09
0.40
0.49
0.40
0.26
0.24
0.39
0.67
0.95
1.07
0.96
0.68
0.33
0.04
-0.13
-0.20
-0.25
-0.32
-0.43
-0.54
-0.60
-0.56
-0.42
-0.22
-0.02
0.15
0.28
0.36
0.38
0.32
0.16
-0.11
-0.44
-0.78
-1.09
-1.34
-1.52
-1.63
-1.61
-1.42
-1.06
-0.57
-0.07
0.32
0.49
0.44
0.23
-0.02
-0.20
-0.27
-0.24
-0.16
-0.08
-0.03
-0.02
-0.02
-0.02
-0.04
-0.11
-0.25
-0.40
-0.50
-0.43
-0.15
0.29
0.76
1.10
1.21
1.15
0.99
0.86
0.77
0.66
0.46
0.13
-0.26
-0.56
-0.64
-0.45
-0.05
0.39
0.71
0.82
0.73
0.53
0.31
0.09
-0.11
-0.34
-0.59
-0.79
-0.87
-0.76
-0.45
-0.01
0.43
0.76
0.88
0.83
0.68
0.53
0.48
0.53
0.65
0.73
0.70
0.53
0.25
-0.03
-0.22
-0.27
-0.18
-0.04
0.09
0.19
0.28
0.38
0.51
0.59
0.55
0.34
0.01
-0.35
-0.63
-0.77
-0.77
-0.69
-0.60
-0.49
-0.37
-0.21
-0.00
0.23
0.43
0.58
0.63
0.55
0.31
-0.08
-0.54
-0.98
-1.28
-1.38
-1.27
-1.04
-0.80
-0.62
-0.58
-0.67
-0.87
-1.11
-1.28
-1.32
-1.19
-0.93
-0.60
-0.35
-0.24
-0.30
-0.47
-0.63
-0.69
-0.60
-0.40
-0.16
0.06
0.22
0.35
0.50
0.73
1.09
1.58
2.17
2.84
3.55
4.24
4.84
5.25
5.39
5.21
4.79
4.27
3.84
3.57
3.44
3.32
3.07
2.60
1.94
1.21
0.54
-0.01
-0.43
-0.78
-1.11
-1.37
-1.54
-1.55
-1.45
-1.34
-1.33
-1.49
-1.78
-2.07
-2.22
-2.19
-2.02
-1.85
-1.81
-1.92
-2.12
-2.29
-2.37
-2.36
-2.34
-2.37
-2.43
-2.43
-2.27
-1.97
-1.63
-1.44
-1.49
-1.77
-2.10
-2.28
-2.22
-1.94
-1.59
-1.31
-1.17
-1.12
-1.06
-0.91
-0.67
-0.41
-0.22
-0.16
-0.21
-0.35
-0.49
-0.60
-0.67
-0.73
-0.84
-1.08
-1.47
-1.95
-2.42
-2.74
-2.85
-2.73
-2.44
-2.05
-1.61
-1.12
-0.60
-0.08
0.35
0.59
0.61
0.48
0.35
0.38
0.67
1.19
1.78
2.29
2.58
2.61
2.47
2.28
2.17
2.20
2.33
2.46
2.51
2.38
2.12
1.82
1.59
1.50
1.55
1.69
1.82
1.87
1.83
1.69
1.50
1.33
1.22
1.23
1.35
1.52
1.65
1.64
1.44
1.07
0.63
0.26
0.03
-0.05
-0.07
-0.15
-0.39
-0.75
-1.12
-1.35
-1.34
-1.10
-0.73
-0.36
-0.07
0.09
0.10
-0.01
-0.23
-0.53
-0.84
-1.09
-1.21
-1.20
-1.09
-0.93
-0.78
-0.67
-0.60
-0.61
-0.70
-0.89
-1.11
-1.28
-1.31
-1.14
-0.80
-0.38
0.00
0.24
0.28
0.14
-0.13
-0.45
-0.78
-1.06
-1.27
-1.39
-1.39
-1.30
-1.14
-1.01
-1.03
-1.25
-1.69
-2.22
-2.67
-2.92
-2.90
-2.70
-2.45
-2.30
-2.30
-2.45
-2.67
-2.86
-2.98
-2.99
-2.93
-2.80
-2.60
-2.31
-1.90
-1.39
-0.83
-0.29
0.16
0.47
0.65
0.74
0.81
0.89
1.00
1.13
1.30
1.56
1.95
2.46
3.05
3.57
3.90
3.94
3.71
3.30
2.83
2.40
2.07
1.81
1.56
1.28
0.99
0.75
0.63
0.65
0.74
0.82
0.79
0.63
0.38
0.17
0.07
0.09
0.14
0.11
-0.05
-0.27
-0.46
-0.54
-0.57
-0.68
-0.99
-1.47
-1.98
-2.32
-2.36
-2.15
-1.87
-1.74
-1.86
-2.18
-2.58
-2.93
-3.23
-3.56
-3.98
-4.51
-5.02
-5.39
-5.54
-5.51
-5.40
-5.36
-5.43
-5.59
-5.77
-5.93
-6.10
-6.39
-6.87
-7.57
-8.40
-9.22
-9.93
-10.51
-11.05
-11.72
-12.65
-13.89
-15.36
-16.91
-18.39
-19.75
-21.08
-22.59
-24.57
-27.29
-30.87
-35.20
-39.96
-44.60
-48.55
-51.33
-52.77
-52.97
-52.29
-51.05
-49.50
-47.71
-45.73
-43.71
-41.86
-40.30
-38.93
-37.47
-35.57
-33.02
-29.69
-25.33
-19.44
-11.30
-0.39
13.14
28.21
43.03
55.77
65.21
71.06
73.80
74.17
72.78
69.92
65.77
60.67
55.16
49.87
45.28
41.48
38.28
35.31
32.23
28.90
25.40
21.95
18.80
16.13
14.02
12.42
11.27
10.44
9.80
9.23
8.62
8.03
7.63
7.68
8.44
9.95
12.00
14.18
16.05
17.32
17.93
17.99
17.66
16.98
15.91
14.35
12.37
10.16
8.10
6.50
5.53
5.12
4.99
4.80
4.32
3.49
2.48
1.53
0.85
0.55
0.56
0.73
0.93
1.07
1.16
1.23
1.34
1.47
1.57
1.58
1.47
1.26
1.03
0.84
0.72
0.67
0.62
0.53
0.37
0.13
-0.16
-0.50
-0.85
-1.14
-1.30
-1.28
-1.05
-0.65
-0.20
0.18
0.40
0.48
0.50
0.54
0.65
0.81
0.95
1.04
1.06
1.04
0.99
0.92
0.80
0.63
0.41
0.17
-0.04
-0.20
-0.30
-0.33
-0.29
-0.20
-0.07
0.00
-0.02
-0.15
-0.32
-0.45
-0.45
-0.35
-0.24
-0.22
-0.32
-0.50
-0.61
-0.54
-0.25
0.17
0.59
0.86
0.92
0.77
0.50
0.19
-0.08
-0.31
-0.49
-0.62
-0.70
-0.70
-0.63
-0.51
-0.39
-0.36
-0.44
-0.62
-0.83
-0.97
-0.97
-0.79
-0.46
-0.01
0.48
0.92
1.23
1.35
1.27
1.05
0.78
0.53
0.31
0.09
-0.18
-0.54
-0.89
-1.15
-1.19
-0.99
-0.60
-0.14
0.27
0.59
0.80
0.90
0.88
0.67
0.25
-0.37
-1.05
-1.65
-2.01
-2.07
-1.85
-1.50
-1.16
-0.94
-0.88
-0.94
-1.06
-1.15
-1.16
-1.05
-0.80
-0.46
-0.08
0.27
0.53
0.68
0.72
0.67
0.55
0.38
0.22
0.12
0.17
0.40
0.79
1.23
1.60
1.77
1.72
1.48
1.16
0.83
0.56
0.34
0.19
0.12
0.18
0.42
0.83
1.35
1.86
2.22
2.34
2.24
2.02
1.83
1.80
1.99
2.33
2.71
2.99
3.05
2.84
2.38
1.77
1.16
0.69
0.46
0.53
0.86
1.38
1.94
2.46
2.85
3.09
3.19
3.23
3.24
3.21
3.04
2.59
1.78
0.63
-0.69
-1.94
-2.86
-3.33
-3.37
-3.12
-2.78
-2.47
-2.23
-2.00
-1.69
-1.25
-0.71
-0.17
0.26
0.49
0.53
0.48
0.50
0.67
1.01
1.42
1.77
1.97
2.09
2.23
2.51
2.94
3.41
3.74
3.83
3.67
3.39
3.12
2.94
2.88
2.92
3.07
3.36
3.77
4.17
4.33
4.02
3.13
1.74
0.10
-1.49
-2.80
-3.72
-4.26
-4.53
-4.58
-4.48
-4.24
-3.88
-3.41
-2.86
-2.26
-1.66
-1.05
-0.41
0.31
1.17
2.16
3.16
3.97
4.40
4.38
4.01
3.52
3.16
3.10
3.41
4.03
4.85
5.78
6.75
7.75
8.80
9.94
11.26
12.78
14.45
16.10
17.52
18.52
19.04
19.20
19.18
19.13
19.06
18.85
18.37
17.52
16.41
15.27
14.40
14.04
14.25
14.87
15.58
15.97
15.70
14.61
12.82
10.74
8.98
8.20
8.97
11.60
15.98
21.41
26.47
29.21
27.71
20.77
8.61
-7.03
-23.38
-37.64
-47.95
-53.89
-56.21
-56.20
-54.96
-53.08
-50.77
-48.26
-45.97
-44.47
-44.08
-44.65
-45.51
-45.85
-45.14
-43.41
-41.29
-39.74
-39.54
-40.95
-43.59
-46.53
-48.66
-49.18
-47.91
-45.35
-42.47
-40.24
-39.24
-39.50
-40.66
-42.42
-44.84
-48.45
-54.04
-62.28
-73.39
-86.90
-101.44
-114.54
-122.73
-121.97
-108.72
-81.46
-41.81
5.21
52.44
92.76
121.33
136.88
141.41
138.68
132.42
125.12
117.82
110.70
103.80
97.36
91.75
87.05
82.82
78.10
71.91
63.70
53.68
42.84
32.51
23.88
17.55
13.28
10.25
7.44
4.14
0.22
-3.84
-7.26
-9.38
-9.96
-9.33
-8.19
-7.30
-7.17
-7.89
-9.12
-10.31
-10.95
-10.78
-9.94
-8.79
-7.80
-7.30
-7.34
-7.73
-8.13
-8.26
-7.98
-7.35
-6.53
-5.72
-5.06
-4.60
-4.34
-4.21
-4.14
-4.00
-3.71
-3.23
-2.58
-1.87
-1.23
-0.78
-0.54
-0.48
-0.53
-0.59
-0.58
-0.45
-0.22
0.08
0.37
0.55
0.54
0.32
-0.05
-0.47
-0.79
-0.92
-0.85
-0.60
-0.27
0.06
0.33
0.51
0.61
0.63
0.57
0.43
0.23
-0.01
-0.25
-0.44
-0.54
-0.56
-0.53
-0.51
-0.56
-0.71
-0.92
-1.16
-1.37
-1.53
-1.60
-1.60
-1.52
-1.37
-1.10
-0.70
-0.18
0.39
0.92
1.28
1.41
1.30
1.06
0.83
0.73
0.79
0.93
1.03
0.99
0.77
0.45
0.11
-0.16
-0.35
-0.48
-0.57
-0.63
-0.63
-0.55
-0.38
-0.12
0.20
0.53
0.84
1.06
1.17
1.13
0.96
0.69
0.38
0.09
-0.14
-0.29
-0.37
-0.37
-0.32
-0.22
-0.10
-0.01
0.06
0.11
0.18
0.27
0.38
0.49
0.57
0.62
0.65
0.69
0.76
0.80
0.78
0.62
0.34
0.02
-0.23
-0.32
-0.22
-0.02
0.18
0.28
0.26
0.16
0.06
0.01
0.00
0.01
-0.03
-0.14
-0.30
-0.43
-0.45
-0.30
-0.02
0.30
0.50
0.48
0.21
-0.23
-0.63
-0.81
-0.68
-0.29
0.20
0.61
0.82
0.85
0.79
0.74
0.77
0.86
0.94
0.97
0.92
0.77
0.58
0.38
0.17
-0.03
-0.26
-0.50
-0.71
-0.82
-0.77
-0.49
-0.06
0.43
0.80
0.92
0.79
0.46
0.09
-0.17
-0.22
-0.05
0.29
0.71
1.11
1.40
1.51
1.40
1.13
0.76
0.40
0.17
0.13
0.24
0.46
0.66
0.77
0.71
0.49
0.15
-0.21
-0.52
-0.72
-0.81
-0.82
-0.80
-0.80
-0.82
-0.89
-1.00
-1.19
-1.44
-1.76
-2.07
-2.30
-2.37
-2.23
-1.92
-1.53
-1.19
-0.95
-0.81
-0.71
-0.57
-0.36
-0.12
0.09
0.22
0.22
0.12
-0.06
-0.25
-0.39
-0.41
-0.24
0.10
0.54
0.93
1.13
1.08
0.83
0.54
0.37
0.37
0.50
0.61
0.62
0.50
0.33
0.20
0.14
0.12
0.05
-0.08
-0.23
-0.29
-0.18
0.14
0.60
1.07
1.42
1.57
1.51
1.27
0.89
0.44
-0.05
-0.50
-0.87
-1.13
-1.24
-1.23
-1.12
-0.96
-0.78
-0.63
-0.51
-0.42
-0.31
-0.18
-0.02
0.15
0.29
0.37
0.43
0.50
0.62
0.75
0.82
0.73
0.42
-0.07
-0.62
-1.02
-1.16
-1.03
-0.73
-0.39
-0.11
0.07
0.18
0.25
0.28
0.24
0.10
-0.13
-0.39
-0.63
-0.78
-0.85
-0.83
-0.76
-0.64
-0.51
-0.39
-0.32
-0.31
-0.32
-0.31
-0.20
0.01
0.29
0.55
0.74
0.80
0.78
0.73
0.69
0.70
0.75
0.83
0.93
1.04
1.18
1.32
1.43
1.45
1.35
1.13
0.83
0.52
0.27
0.12
0.09
0.14
0.22
0.26
0.23
0.14
0.01
-0.12
-0.22
-0.26
-0.27
-0.28
-0.31
-0.34
-0.35
-0.29
-0.14
0.08
0.29
0.40
0.37
0.22
0.04
-0.09
-0.15
-0.15
-0.17
-0.28
-0.46
-0.64
-0.71
-0.60
-0.33
0.01
0.29
0.40
0.34
0.16
-0.04
-0.19
-0.24
-0.24
-0.26
-0.35
-0.49
-0.64
-0.66
-0.47
-0.05
0.48
0.94
1.18
1.14
0.87
0.51
0.21
0.01
-0.11
-0.25
-0.46
-0.71
-0.91
-0.94
-0.72
-0.29
0.25
0.74
1.05
1.12
0.96
0.65
0.28
-0.09
-0.43
-0.74
-1.04
-1.28
-1.41
-1.39
-1.22
-0.97
-0.74
-0.61
-0.57
-0.55
-0.44
-0.21
0.11
0.41
0.54
0.48
0.27
0.04
-0.05
0.04
0.27
0.54
0.73
0.76
0.65
0.43
0.18
-0.06
-0.25
-0.37
-0.42
-0.42
-0.39
-0.36
-0.35
-0.32
-0.23
-0.05
0.22
0.48
0.62
0.55
0.24
-0.18
-0.53
-0.64
-0.44
-0.03
0.41
0.64
0.54
0.13
-0.41
-0.85
-1.05
-0.99
-0.75
-0.47
-0.22
-0.02
0.17
0.36
0.58
0.77
0.90
0.92
0.85
0.69
0.50
0.29
0.09
-0.06
-0.11
-0.07
0.06
0.23
0.36
0.35
0.18
-0.14
-0.52
-0.83
-0.96
-0.86
-0.60
-0.28
-0.08
-0.07
-0.24
-0.51
-0.73
-0.77
-0.60
-0.25
0.16
0.52
0.75
0.86
0.88
0.88
0.89
0.90
0.88
0.78
0.59
0.34
0.10
-0.04
0.00
0.22
0.55
0.86
1.04
1.01
0.84
0.62
0.47
0.44
0.49
0.50
0.43
0.28
0.14
0.07
0.09
0.15
0.17
0.11
0.01
-0.06
-0.07
-0.05
-0.06
-0.14
-0.26
-0.33
-0.31
-0.21
-0.11
-0.10
-0.23
-0.42
-0.57
-0.57
-0.43
-0.25
-0.15
-0.20
-0.37
-0.56
-0.68
-0.67
-0.56
-0.41
-0.29
-0.22
-0.22
-0.25
-0.29
-0.31
-0.28
-0.20
-0.09
0.01
0.02
-0.08
-0.26
-0.39
-0.35
-0.06
0.40
0.87
1.14
1.09
0.72
0.19
-0.32
-0.64
-0.72
-0.58
-0.32
-0.02
0.25
0.46
0.59
0.59
0.44
0.14
-0.23
-0.57
-0.73
-0.66
-0.42
-0.14
0.02
-0.02
-0.22
-0.43
-0.50
-0.35
-0.04
0.31
0.55
0.61
0.51
0.33
0.19
0.16
0.26
0.45
0.67
0.84
0.94
