1593021695.00
64.000000
-0.00
-0.00
-0.00
-0.00
-0.00
-0.00
-0.00
-0.00
-0.00
-0.00
0.00
0.01
0.01
-0.00
-0.03
-0.05
-0.05
0.00
0.13
0.36
0.66
1.01
1.37
1.72
2.06
2.40
2.79
3.24
3.80
4.42
5.06
5.66
6.20
6.68
7.15
7.68
8.31
9.14
10.09
11.04
11.88
12.56
13.14
13.76
14.65
15.96
17.91
20.32
22.90
25.38
27.58
29.57
31.68
34.32
37.81
42.54
48.15
54.10
59.83
64.97
69.58
74.14
79.34
85.71
93.76
103.00
112.62
121.73
129.77
136.75
143.30
150.75
157.77
166.64
177.95
191.79
206.97
220.57
228.24
225.36
208.53
176.87
132.78
80.08
23.11
-34.92
-92.47
-149.28
-205.47
-260.73
-314.18
-364.35
-410.31
-451.37
-486.97
-516.24
-537.82
-549.92
-550.77
-539.24
-515.09
-479.52
-434.69
-383.28
-327.97
-271.01
-214.09
-158.38
-104.83
-54.27
-7.72
33.85
69.62
99.22
122.77
140.88
154.46
164.42
171.49
175.99
177.98
177.37
174.18
168.74
161.63
153.68
145.61
137.89
130.54
123.22
115.46
106.88
97.45
87.58
77.90
69.03
61.33
54.71
48.78
43.02
36.93
30.08
22.19
13.25
3.88
-4.42
-9.47
-9.10
-2.21
10.42
26.10
41.16
52.35
58.05
58.68
55.97
51.94
47.85
44.01
40.16
36.06
31.89
28.18
25.39
23.64
22.57
21.63
20.26
18.28
15.86
13.46
11.55
10.35
9.71
9.20
8.36
7.13
5.88
5.25
5.73
7.22
8.99
9.96
9.36
7.11
3.86
0.63
-1.76
-3.08
-3.62
-3.91
-4.27
-4.63
-4.65
-3.99
-2.60
-0.82
0.77
1.59
1.35
0.20
-1.38
-2.79
-3.58
-3.62
-3.15
-2.51
-2.03
-1.77
-1.59
-1.26
-0.65
0.19
1.08
1.80
2.21
2.33
2.23
2.12
2.12
2.32
2.70
3.22
3.82
4.48
5.25
6.17
7.29
8.59
9.99
11.37
12.66
13.77
14.64
15.14
15.15
14.56
13.36
11.75
9.89
7.99
6.21
4.63
3.26
2.08
1.07
0.26
-0.32
-0.61
-0.54
-0.05
0.86
2.10
3.51
4.81
5.80
6.38
6.59
6.60
6.59
6.65
6.71
6.61
6.12
5.11
3.52
1.41
-1.07
-3.62
-5.82
-7.22
-7.59
-7.13
-6.45
-6.28
-7.08
-8.77
-10.50
-11.01
-9.27
-4.93
1.49
8.92
16.03
21.67
24.68
24.63
21.93
17.81
14.08
12.52
14.05
18.19
23.09
25.91
24.54
18.52
9.13
-1.36
-11.00
-19.28
-27.67
-36.22
-46.43
-59.40
-75.06
-91.92
-107.47
-119.03
-124.64
-123.75
-117.34
-107.93
-98.28
-90.54
-85.58
-83.01
-81.71
-80.60
-79.21
-78.10
-79.14
-84.74
-97.13
-117.45
-144.89
-176.20
-206.00
-227.91
-236.38
-228.51
-204.48
-167.14
-120.50
-68.35
-13.59
41.41
93.97
140.74
178.05
203.44
216.69
220.00
216.99
210.90
203.35
194.15
182.29
167.29
150.10
132.78
117.46
105.18
95.37
86.43
76.72
65.54
53.38
41.50
31.15
22.94
16.64
11.53
6.91
2.42
-1.83
-5.50
-8.30
-10.22
-11.48
-12.47
-13.47
-14.49
-15.30
-15.46
-14.56
-12.42
-9.21
-5.38
-1.50
1.97
4.78
6.82
8.05
8.33
7.51
5.59
2.86
-0.14
-2.88
-5.14
-7.10
-9.19
-11.73
-14.66
-17.60
-20.03
-21.69
-22.64
-23.16
-23.48
-23.61
-23.41
-22.73
-21.66
-20.49
-19.54
-18.93
-18.56
-18.18
-17.58
-16.73
-15.74
-14.74
-13.79
-12.82
-11.69
-10.27
-8.52
-6.47
-4.19
-1.77
0.74
3.25
5.69
7.95
9.87
11.24
11.73
10.95
8.49
4.16
-1.89
-9.06
-16.42
-22.95
-27.78
-30.48
-31.11
-30.08
-27.98
-25.39
-22.74
-20.30
-18.22
-16.53
-15.18
-13.96
-12.59
-10.72
-8.07
-4.54
-0.24
4.47
9.11
13.27
16.68
19.31
21.25
22.69
23.71
24.37
24.62
24.48
24.02
23.40
22.78
22.28
21.92
21.67
21.43
21.17
20.80
20.29
19.59
18.72
17.72
16.67
15.64
14.68
13.73
12.68
11.42
9.79
7.74
5.31
2.65
0.04
-2.16
-3.64
-4.18
-3.79
-2.64
-1.01
0.80
2.56
4.16
5.59
6.82
7.85
8.63
9.12
9.34
9.29
9.01
8.55
7.97
7.33
6.64
5.89
5.05
4.06
2.93
1.71
0.46
-0.77
-1.99
-3.30
-4.79
-6.52
-8.44
-10.42
-12.34
-14.16
-15.97
-17.97
-20.35
-23.19
-26.34
-29.46
-32.07
-33.82
-34.54
-34.39
-33.74
-33.00
-32.43
-32.02
-31.51
-30.60
-29.08
-26.94
-24.32
-21.42
-18.32
-15.02
-11.37
-7.23
-2.53
2.68
8.16
13.61
18.63
22.82
25.87
27.57
28.00
27.38
26.10
24.50
22.71
20.65
18.06
14.73
10.62
5.97
1.16
-3.40
-7.56
-11.35
-14.90
-18.27
-21.27
-23.59
-24.90
-25.10
-24.29
-22.73
-20.68
-18.30
-15.67
-12.79
-9.74
-6.65
-3.63
-0.72
2.17
5.17
8.37
11.78
15.28
18.71
22.03
25.34
28.84
32.78
37.31
42.40
47.86
53.48
59.05
64.41
69.34
73.52
76.50
77.83
77.23
74.69
70.52
65.23
59.39
53.49
47.97
43.12
39.14
36.01
33.52
31.28
28.90
26.12
22.93
19.54
16.29
13.46
11.19
9.51
8.31
7.48
6.90
6.50
6.26
6.20
6.35
6.67
7.06
7.36
7.40
7.11
6.51
5.72
4.88
4.06
3.29
2.59
2.05
1.79
1.91
2.42
3.19
3.98
4.56
4.79
4.70
4.50
4.40
4.55
4.93
5.38
5.68
5.71
5.47
5.14
4.91
4.94
5.23
5.63
5.98
6.17
6.23
6.35
6.76
7.69
9.23
11.39
14.07
17.19
20.76
24.88
29.68
35.24
41.44
48.00
54.54
60.73
66.47
71.94
77.52
83.70
90.83
98.97
107.85
117.08
126.30
135.41
144.69
154.66
165.79
178.27
191.90
206.07
219.78
231.64
239.80
242.08
236.43
221.70
198.33
168.52
135.58
102.66
71.54
42.20
13.39
-16.17
-46.73
-77.09
-105.19
-129.07
-147.77
-161.52
-171.39
-178.60
-184.06
-188.09
-190.64
-191.56
-190.77
-188.29
-184.12
-178.07
-169.75
-158.80
-145.19
-129.56
-113.27
-98.16
-85.91
-77.48
-72.78
-70.76
-69.95
-69.03
-67.31
-64.81
-62.04
-59.72
-58.35
-58.05
-58.57
-59.35
-59.74
-59.21
-57.46
-54.51
-50.59
-46.02
-41.19
-36.39
-31.90
-28.00
-24.95
-22.94
-21.97
-21.82
-22.11
-22.39
-22.35
-21.93
-21.32
-20.77
-20.44
-20.30
-20.12
-19.62
-18.58
-16.95
-14.81
-12.27
-9.40
-6.32
-3.13
-0.02
2.81
5.20
7.05
8.39
9.30
9.82
9.95
9.67
9.04
8.20
7.34
6.65
6.21
5.98
5.84
5.62
5.24
4.63
3.75
2.60
1.22
-0.28
-1.76
-3.10
-4.27
-5.34
-6.47
-7.80
-9.32
-10.96
-12.56
-14.05
-15.41
-16.67
-17.84
-18.82
-19.41
-19.39
-18.61
-17.10
-15.08
-12.88
-10.85
-9.24
-8.13
-7.43
-6.94
-6.48
-5.92
-5.24
-4.45
-3.53
-2.43
-1.09
0.48
2.17
3.77
5.07
5.99
6.56
6.91
7.11
7.14
6.85
6.09
4.82
3.14
1.25
-0.64
-2.46
-4.28
-6.24
-8.48
-10.97
-13.49
-15.70
-17.25
-17.95
-17.80
-17.06
-16.03
-15.01
-14.17
-13.56
-13.10
-12.66
-12.10
-11.27
-10.05
-8.39
-6.34
-3.97
-1.38
1.35
4.15
6.86
9.24
10.96
11.80
11.77
11.23
10.66
10.52
10.93
11.67
12.31
12.51
12.18
11.50
10.72
9.97
9.13
7.91
6.09
3.66
0.91
-1.70
-3.75
-5.09
-5.83
-6.28
-6.70
-7.22
-7.76
-8.15
-8.34
-8.43
-8.61
-9.04
-9.63
-10.03
-9.80
-8.63
-6.56
-3.99
-1.50
0.38
1.38
1.59
1.27
0.73
0.17
-0.36
-0.95
-1.64
-2.43
-3.28
-4.11
-4.84
-5.40
-5.76
-5.87
-5.73
-5.38
-4.92
-4.50
-4.22
-4.23
-4.60
-5.45
-6.78
-8.44
-10.13
-11.40
-11.87
-11.40
-10.18
-8.72
-7.60
-7.27
-7.81
-8.99
-10.44
-11.78
-12.84
-13.64
-14.23
-14.62
-14.69
-14.20
-12.98
-10.98
-8.38
-5.51
-2.73
-0.29
1.76
3.47
4.97
6.31
7.49
8.45
9.19
9.78
10.34
10.98
11.64
12.19
12.42
12.16
11.37
10.12
8.57
6.89
5.18
3.49
1.84
0.24
-1.25
-2.56
-3.64
-4.46
-5.06
-5.50
-5.89
-6.26
-6.62
-6.94
-7.08
-6.94
-6.38
-5.33
-3.77
-1.76
0.61
3.18
5.78
8.24
10.39
12.10
13.28
13.91
14.07
13.89
13.59
13.39
13.38
13.63
14.06
14.54
14.92
15.12
15.20
15.32
15.78
16.90
18.87
21.62
24.83
27.97
30.52
32.11
32.68
32.51
32.04
31.83
32.29
33.48
35.13
36.67
37.44
36.96
35.27
33.07
31.57
31.99
34.95
40.19
46.66
52.99
58.11
61.75
64.39
66.89
69.60
71.51
70.34
62.86
45.52
15.19
-30.00
-89.61
-160.04
-234.24
-302.89
-355.47
-382.99
-380.89
-351.01
-301.05
-241.99
-184.39
-135.59
-99.41
-75.12
-59.29
-48.35
-40.33
-34.65
-30.66
-26.31
-18.45
-5.49
13.67
38.42
65.45
88.92
102.08
99.48
78.49
39.21
-17.30
-85.39
-155.02
-214.36
-253.72
-268.28
-258.98
-231.18
-179.05
-108.60
-34.00
30.62
79.05
112.16
133.07
143.97
148.09
147.11
140.11
127.65
112.23
97.02
84.26
75.04
68.22
64.33
63.75
64.91
66.86
69.49
72.94
76.56
79.44
80.95
82.26
84.49
87.08
89.27
90.63
91.16
90.81
90.06
89.60
91.79
98.12
108.08
119.93
131.66
141.97
150.06
156.63
162.80
171.59
184.76
201.68
219.72
235.80
247.91
255.20
258.96
250.02
224.60
186.36
145.13
110.30
84.93
69.22
55.12
37.12
13.37
-13.12
-38.81
-62.24
-83.54
-104.65
-128.05
-156.28
-189.93
-228.14
-266.69
-299.83
-322.12
-328.82
-318.17
-293.01
-262.07
-236.35
-225.37
-230.95
-246.54
-260.84
-261.65
-241.50
-199.95
-143.62
-81.18
-19.87
37.92
98.02
159.07
215.41
261.25
295.04
318.68
338.27
356.64
373.58
386.01
388.60
377.43
348.90
306.20
256.40
207.56
165.41
132.49
108.17
89.25
71.91
53.94
35.50
17.35
-0.11
-17.41
-34.99
-52.89
-71.34
-92.26
-116.55
-143.08
-169.93
-195.67
-220.01
-242.91
-264.17
-283.69
-305.29
-331.44
-361.25
-390.99
-416.20
-433.33
-439.96
-435.15
-419.80
-401.66
-387.77
-381.29
-381.40
-385.69
-391.94
-398.01
-401.62
-368.77
-285.62
-163.80
-32.18
84.34
174.76
238.41
278.34
298.23
302.48
292.09
271.97
250.38
236.83
236.35
247.09
262.11
273.55
276.20
265.07
239.94
204.98
166.17
127.72
91.81
59.63
32.55
12.60
-0.59
-7.56
-8.80
-4.96
2.39
10.95
18.41
23.85
27.98
31.17
34.04
37.30
41.71
47.72
55.43
64.06
72.85
81.09
87.77
91.73
91.96
87.65
78.00
62.05
38.43
7.28
-28.82
-64.87
-95.27
-116.03
-126.20
-127.74
-119.30
-101.81
-77.72
-49.99
-20.66
8.35
34.08
53.16
63.57
65.84
62.05
56.44
51.02
46.62
43.03
39.59
36.11
33.32
32.68
34.87
39.99
47.37
55.53
62.92
68.33
71.37
72.54
72.68
72.02
70.26
66.82
61.43
54.40
46.53
39.05
33.22
29.92
29.14
30.24
32.11
33.69
34.19
33.21
30.84
27.63
24.32
21.55
19.69
18.74
18.45
18.41
18.09
17.00
14.79
11.25
6.36
0.33
-6.49
-13.65
-20.78
-27.72
-34.53
-41.39
-48.44
-55.67
-62.87
-69.72
-75.94
-81.31
-85.69
-88.88
-90.61
-90.56
-88.53
-84.57
-79.02
-72.41
-65.23
-57.81
-50.28
-42.66
-34.99
-27.45
-20.31
-13.89
-8.38
-3.81
-0.08
2.94
5.34
7.20
8.58
9.61
10.46
11.28
12.07
12.72
12.97
12.64
11.64
10.05
8.09
5.98
3.85
1.76
-0.28
-2.28
-4.23
-6.10
-7.91
-9.68
-11.41
-13.06
-14.50
-15.44
-15.53
-14.39
-11.77
-7.70
-2.49
3.28
8.93
13.89
17.85
20.83
23.05
24.78
26.21
27.43
28.46
29.34
30.10
30.69
30.95
30.67
29.74
28.30
26.76
25.71
25.50
26.10
26.90
27.04
25.78
22.81
18.29
12.75
6.89
1.31
-3.70
-8.27
-12.71
-17.31
-22.10
-26.87
-31.14
-34.36
-36.18
-36.57
-36.13
-35.58
-35.37
-35.55
-35.86
-35.96
-35.64
-34.99
-34.34
-34.73
-36.74
-40.06
-43.67
-46.61
-48.46
-49.27
-49.52
-49.65
-51.23
-54.90
-59.89
-64.56
-67.60
-68.63
-68.10
-66.90
-65.86
-67.58
-73.13
-81.16
-88.79
-93.68
-95.15
-94.05
-92.12
-90.90
-94.04
-103.12
-116.50
-130.34
-140.84
-145.40
-142.54
-132.07
-98.94
-41.42
27.05
86.23
123.44
138.19
137.66
130.73
122.44
115.64
107.77
96.39
81.62
65.87
51.73
40.28
32.55
27.70
24.35
18.96
9.47
-3.44
-17.11
-29.01
-38.06
-44.60
-49.98
-55.27
-62.16
-70.86
-79.75
-86.48
-89.54
-88.88
-85.48
-80.64
-75.03
-69.28
-63.25
-56.15
-47.15
-35.99
-23.16
-9.65
3.33
14.65
23.19
28.23
29.69
28.18
24.77
20.87
17.89
16.89
18.35
21.97
26.90
32.19
37.27
42.20
47.53
53.84
61.26
69.27
76.80
82.66
86.01
86.68
85.22
82.57
79.68
77.14
75.09
73.42
72.20
71.87
73.17
76.64
82.04
88.21
93.38
96.15
96.15
94.24
91.82
90.06
89.29
89.18
89.30
89.61
90.38
91.57
92.25
90.59
84.60
73.23
57.11
38.50
20.31
5.04
-6.17
-13.61
-18.49
-22.15
-25.56
-29.02
-32.28
-34.81
-36.07
-35.80
-34.17
-31.78
-29.68
-28.98
-30.45
-34.10
-38.83
-42.52
-42.46
-36.32
-23.06
-3.62
19.20
41.56
59.81
71.67
76.81
76.55
72.99
68.06
62.89
57.94
53.47
50.04
48.40
49.05
51.49
53.91
53.74
48.58
37.53
21.63
3.62
-13.23
-26.47
-35.23
-40.17
-42.56
-43.29
-42.12
-38.05
-30.15
-18.66
-5.42
6.65
14.78
17.64
15.95
11.90
7.79
4.72
2.25
-0.84
-5.18
-9.91
-12.83
-11.72
-5.75
3.83
14.20
22.48
26.99
27.86
26.46
24.43
22.88
22.21
22.42
23.57
25.76
28.96
32.92
37.08
40.89
43.96
46.23
48.03
50.14
53.67
59.56
67.78
76.41
81.45
78.14
63.15
36.73
3.41
-29.36
-54.05
-65.88
-64.37
-52.73
-36.07
-19.31
-5.95
2.20
4.59
1.56
-5.90
-16.30
-28.03
-39.74
-50.87
-61.56
-72.51
-84.48
-98.03
-113.39
-130.38
-148.36
-166.15
-182.22
-194.91
-202.83
-205.29
-202.52
-195.65
-186.48
-177.01
-168.95
-163.29
-160.00
-158.00
-155.47
-150.23
-140.25
-124.19
-101.71
-73.74
-42.36
-10.48
18.77
42.66
59.51
68.83
71.22
68.02
61.02
52.10
43.09
35.48
30.16
27.21
25.93
25.26
24.29
22.60
20.33
17.95
15.86
14.21
12.90
11.71
10.43
8.90
7.02
4.72
2.16
-0.12
-1.30
-0.40
3.27
9.92
19.16
30.05
41.34
51.77
60.25
66.10
69.26
70.28
70.18
70.12
70.95
72.92
75.63
78.26
80.01
80.45
79.68
78.21
76.64
75.31
74.12
72.61
70.16
66.30
60.89
54.09
46.26
37.73
28.72
19.30
9.57
-0.29
-9.95
-19.12
-27.66
-35.70
-43.61
-51.72
-59.98
-67.93
-74.73
-79.52
-81.81
-81.57
-79.10
-74.57
-67.76
-58.14
-45.29
-29.49
-11.93
5.43
20.38
31.16
36.78
37.12
32.84
25.34
16.60
9.06
5.08
6.24
12.71
23.11
35.00
45.73
53.39
57.26
57.66
55.51
51.77
47.06
41.62
35.35
28.02
19.48
10.00
0.35
-8.15
-14.02
-16.22
-14.63
-10.04
-3.59
3.99
12.85
23.87
38.02
55.60
76.03
98.10
120.45
141.96
161.66
178.41
190.71
196.87
195.59
186.66
171.16
151.28
129.62
108.46
89.33
72.84
58.70
45.95
33.17
18.81
1.70
-18.64
-41.76
-66.34
-90.55
-112.61
-131.37
-146.67
-159.37
-170.96
-182.96
-196.27
-210.79
-225.43
-238.47
-248.15
-253.04
-252.47
-246.72
-236.88
-224.76
-212.17
-200.12
-188.21
-174.43
-155.74
-129.15
-93.15
-48.90
-0.53
45.77
83.81
109.80
124.01
130.58
135.66
144.66
159.97
180.43
202.46
222.36
238.10
249.86
259.03
266.57
272.15
274.25
271.16
261.99
246.85
226.35
201.12
171.57
138.34
102.91
67.79
35.91
9.48
-11.00
-26.84
-40.26
-53.04
-65.68
-77.57
-87.58
-94.91
-99.51
-101.58
-100.69
-95.33
-83.65
-64.79
-40.12
-12.77
13.32
34.51
48.15
53.12
49.59
38.64
21.76
0.31
-23.90
-48.85
-73.20
-96.65
-119.59
-142.09
-163.25
-181.07
-193.71
-199.14
-195.72
-182.91
-161.16
-131.51
-95.18
-54.03
-10.29
26.87
46.45
44.03
25.69
4.01
-9.56
-9.65
1.77
19.06
35.86
48.52
56.68
61.48
63.64
62.23
54.28
37.87
15.65
-7.39
-26.00
-37.45
-44.44
-49.92
-56.28
-64.82
-75.51
-85.30
-92.70
-97.08
-98.44
-97.24
-93.97
-89.39
-84.20
-78.73
-72.97
-67.50
-62.84
-59.23
-56.62
-54.51
-52.56
-50.53
-48.13
-45.12
-41.90
-38.93
-36.52
-34.62
-32.74
-30.44
-27.53
-24.07
-20.34
-16.94
-14.35
-12.74
-11.90
-11.30
-10.36
-8.67
-5.94
-2.05
2.76
8.04
13.24
17.83
21.49
24.20
26.10
27.44
28.43
29.14
29.55
29.64
29.43
28.97
28.35
27.63
26.88
26.11
25.37
24.64
23.89
23.05
22.06
20.92
19.70
18.59
17.81
17.56
17.91
18.75
19.82
20.76
21.27
21.17
20.43
19.25
17.95
16.91
16.54
17.09
18.59
20.80
23.19
25.14
26.12
25.91
24.74
23.18
21.96
21.67
22.53
24.38
26.69
28.78
30.06
30.18
29.19
27.43
25.42
23.66
22.37
21.50
20.74
19.71
18.11
15.87
13.15
10.29
7.64
5.53
4.15
3.59
3.82
4.66
5.81
6.92
7.67
7.85
7.49
6.80
6.05
5.49
5.20
5.12
5.11
4.98
4.58
3.84
2.73
1.33
-0.21
-1.69
-2.91
-3.80
-4.46
-5.10
-5.90
-6.98
-8.24
-9.49
-10.52
-11.21
-11.65
-12.02
-12.60
-13.54
-14.92
-16.65
-18.53
-20.30
-21.74
-22.61
-22.77
-22.11
-20.64
-18.54
-16.13
-13.84
-12.09
-11.14
-11.02
-11.57
-12.47
-13.35
-13.93
-14.04
-13.62
-12.77
-11.70
-10.67
-10.02
-10.00
-10.73
-12.17
-14.10
-16.22
-18.22
-19.86
-20.99
-21.53
-21.52
-21.13
-20.66
-20.50
-21.02
-22.39
-24.51
-26.99
-29.35
-31.26
-32.65
-33.68
-34.54
-35.20
-35.35
-34.53
-32.47
-29.31
-25.65
-22.32
-19.95
-18.77
-18.45
-18.38
-17.88
-16.42
-13.62
-9.15
-2.71
5.93
16.68
29.12
42.49
56.05
69.35
82.31
95.10
107.79
120.05
131.03
139.62
144.68
145.42
141.48
132.94
120.27
104.24
85.94
66.60
47.47
29.66
13.96
0.82
-9.60
-17.31
-22.51
-25.46
-26.36
-25.32
-22.29
-17.18
-9.98
-1.03
9.04
19.42
29.45
38.88
47.78
56.26
64.08
70.48
74.45
75.31
73.04
68.42
62.62
56.54
50.49
44.25
37.53
30.30
22.82
15.29
7.54
-1.00
-10.73
-21.23
-30.94
-37.69
-39.80
-37.01
-30.83
-23.79
-18.24
-15.27
-14.48
-14.49
-13.94
-12.19
-9.41
-6.17
-2.95
0.12
3.08
5.84
8.03
9.15
8.87
7.36
5.29
3.42
2.31
1.95
1.86
1.31
-0.23
-2.98
-6.73
-11.00
-15.25
-18.95
-21.69
-23.24
-23.61
-23.10
-22.25
-21.69
-21.85
-22.79
-24.09
-25.13
-25.32
-24.44
-22.66
-20.47
-18.33
-16.46
-14.79
-13.07
-11.06
-8.74
-6.27
-3.92
-1.97
-0.53
0.46
1.22
2.01
3.02
4.28
5.63
6.76
7.41
7.46
7.05
6.50
6.11
6.00
6.03
5.85
5.14
3.73
1.80
-0.32
-2.25
-3.77
-4.94
-6.00
-7.24
-8.75
-10.36
-11.77
-12.66
-12.95
-12.72
-12.16
-11.44
-10.58
-9.47
-7.97
-6.10
-4.04
-2.04
-0.22
1.45
3.12
4.93
6.94
9.01
10.88
12.26
13.04
13.65
14.65
16.57
19.65
23.80
28.58
33.32
37.39
40.39
42.72
44.83
46.87
48.64
49.85
50.34
50.17
49.67
49.28
50.18
52.90
57.11
61.76
65.82
68.63
69.93
69.93
68.98
68.38
68.73
69.57
69.55
67.44
62.66
55.40
46.59
31.43
9.74
-14.65
-36.38
-52.30
-62.19
-67.44
-70.67
-73.54
-77.14
-81.27
-86.03
-90.47
-94.02
-95.93
-95.42
-92.23
-86.70
-79.82
-72.01
-63.77
-55.52
-47.68
-40.15
-32.48
-24.26
-15.34
-6.14
2.92
11.00
17.14
20.49
20.94
19.08
15.86
12.30
9.15
7.09
6.40
6.88
7.77
8.04
6.58
2.64
-3.80
-11.93
-20.14
-26.66
-30.24
-30.61
-28.44
-24.97
-21.36
-18.16
-15.17
-11.74
-7.30
-1.87
3.85
8.74
11.83
12.68
11.48
8.77
5.06
0.59
-4.59
-10.34
-16.13
-21.15
-24.60
-26.19
-26.35
-26.14
-26.71
-28.77
-32.31
-36.66
-40.97
-44.70
-47.91
-51.04
-54.47
-58.10
-61.16
-62.52
-61.24
-57.00
-50.17
-41.53
-31.87
-21.78
-11.79
-2.44
5.56
11.65
15.73
18.40
20.81
24.09
28.87
34.93
41.37
47.06
51.18
53.45
54.09
53.48
51.90
49.41
45.98
41.78
37.34
33.53
31.24
30.97
32.53
35.00
37.14
37.90
36.86
34.11
29.82
23.42
13.27
-3.08
-28.05
-62.61
-105.46
-153.05
-200.61
-243.82
-279.95
-308.18
-328.84
-342.37
-348.87
-348.47
-342.12
-331.99
-321.16
-312.57
-307.98
-307.26
-308.59
-309.28
-306.75
-299.29
-286.17
-267.60
-244.37
-217.51
-187.96
-156.46
-123.42
-89.27
-54.58
-20.13
13.31
45.50
77.01
109.20
143.64
181.15
221.02
260.66
295.98
322.60
337.30
339.24
330.11
313.42
293.20
272.71
253.86
237.39
223.33
211.58
201.93
193.94
186.76
179.32
170.60
160.13
148.09
135.22
122.56
111.06
101.27
93.34
87.01
81.76
77.00
72.20
67.15
61.98
57.15
53.29
50.81
49.77
49.68
49.68
48.85
46.56
42.68
37.60
32.01
26.60
21.84
17.85
14.45
11.30
8.13
4.82
1.46
-1.74
-4.62
-7.14
-9.40
-11.58
-13.81
-16.15
-18.52
-20.80
-22.84
-24.55
-25.81
-26.43
-26.06
-24.28
-20.76
-15.46
-8.78
-1.65
4.76
9.35
11.46
11.05
8.69
5.33
1.91
-0.79
-2.30
-2.40
-1.09
1.43
4.70
8.10
10.99
12.85
13.46
12.86
11.24
8.79
5.56
1.49
-3.54
-9.55
-16.32
-23.36
-30.01
-35.57
-39.49
-41.32
-40.67
-37.26
-30.93
-21.95
-11.15
0.09
10.09
17.45
21.51
22.49
21.37
19.40
17.62
16.55
16.20
16.16
15.98
15.30
13.98
12.16
10.13
8.13
6.22
4.24
1.92
-0.94
-4.25
-7.68
-10.68
-12.79
-13.70
-13.39
-12.02
-9.90
-7.32
-4.54
-1.77
0.78
2.90
4.35
4.94
4.57
3.35
1.55
-0.31
-1.73
-2.26
-1.71
-0.17
2.03
4.39
6.47
7.95
8.68
8.71
8.20
7.31
6.19
4.88
3.42
1.86
0.32
-1.02
-1.98
-2.39
-2.17
-1.39
-0.23
1.12
2.44
3.59
4.51
5.12
5.38
5.21
4.59
3.56
2.30
0.99
-0.21
-1.27
-2.26
-3.30
-4.49
-5.81
-7.20
-8.57
-9.85
-11.04
-12.11
-12.99
-13.59
-13.81
-13.61
-13.01
-12.12
-11.21
-10.76
-11.56
-14.59
-20.70
-30.13
-42.19
-55.15
-66.68
-74.64
-78.01
-77.31
-74.35
-71.34
-69.95
-70.49
-71.92
-72.49
-70.49
-64.92
-55.53
-42.59
-26.54
-7.97
12.20
32.42
50.77
65.50
75.69
81.74
85.02
87.19
89.32
91.50
93.06
93.25
91.88
89.47
86.89
84.76
83.06
81.22
78.59
74.92
70.62
66.48
63.24
61.15
59.83
58.45
56.22
52.68
47.94
42.54
37.19
32.50
28.76
25.90
23.60
21.56
19.58
17.63
15.64
13.37
10.34
6.02
0.05
-7.40
-15.65
-23.73
-30.84
-36.61
-41.24
-45.30
-49.36
-53.78
-58.54
-63.32
-67.72
-71.33
-73.95
-75.51
-76.12
-76.01
-75.42
-74.55
-73.53
-72.35
-71.02
-69.55
-68.01
-66.47
-64.82
-62.74
-59.71
-55.17
-48.81
-40.73
-31.51
-21.98
-12.83
-4.27
3.99
12.67
22.41
33.48
45.64
58.32
70.95
83.17
94.87
106.08
116.63
126.15
134.29
141.10
147.33
154.23
162.99
174.08
186.84
199.59
210.25
217.05
219.09
216.42
209.77
200.05
187.96
173.61
156.47
135.49
109.81
79.36
45.53
11.23
-19.69
-43.47
-57.50
-60.93
-54.67
-41.27
-24.69
-9.89
-2.23
-6.19
-23.84
-53.74
-90.93
-128.40
-159.61
-180.66
-191.23
-193.91
-192.34
-189.47
-186.63
-183.68
-179.95
-175.17
-170.05
-166.25
-165.93
-170.94
-181.92
-197.72
-215.48
-231.39
-242.08
-245.84
-243.09
-235.74
-225.95
-214.77
-201.79
-185.73
-165.51
-141.20
-114.03
-86.00
-59.14
-35.35
-16.49
-4.54
-1.33
-7.57
-22.04
-41.35
-60.76
-75.61
-82.84
-81.81
-74.13
-62.68
-50.40
-39.29
-29.92
-21.56
-12.67
-1.56
13.03
31.50
53.24
76.75
99.95
120.64
136.98
147.80
152.75
152.30
147.66
140.45
132.34
124.69
118.32
113.49
109.95
107.09
104.15
100.46
95.63
89.72
83.19
76.75
71.02
66.27
62.37
58.85
55.22
51.27
47.12
43.15
39.69
36.80
34.19
31.33
27.78
23.39
18.42
13.37
8.82
5.10
2.33
0.46
-0.46
-0.23
1.60
5.47
11.60
19.77
29.21
38.66
46.62
51.66
52.71
49.42
42.20
32.19
20.96
10.11
0.93
-5.87
-10.20
-12.39
-13.07
-12.91
-12.55
-12.45
-12.86
-13.78
-14.95
-15.95
-16.35
-15.79
-14.18
-11.65
-8.58
-5.46
-2.84
-1.28
-1.17
-2.75
-5.97
-10.43
-15.41
-19.94
-22.99
-23.69
-21.69
-17.32
-11.57
-5.77
-1.10
1.82
3.07
3.29
3.23
3.32
3.61
3.78
3.53
2.69
1.32
-0.53
-3.00
-6.38
-10.89
-16.35
-21.97
-26.52
-28.82
-28.36
-25.58
-21.74
-18.36
-16.53
-16.40
-17.22
-17.73
-16.76
-13.82
-9.24
-4.00
0.64
3.68
4.64
3.76
1.99
0.76
1.48
5.18
12.07
21.55
32.33
42.86
51.58
57.29
59.22
57.23
51.84
44.26
36.12
29.05
24.28
22.25
22.54
24.21
26.14
27.45
27.70
26.83
25.05
22.65
19.82
16.65
13.20
9.63
6.27
3.56
1.86
1.21
1.19
1.03
0.02
-2.12
-5.06
-8.02
-10.19
-11.14
-11.08
-10.68
-10.73
-11.77
-13.83
-16.63
-19.71
-22.75
-25.67
-28.54
-31.45
-34.31
-36.88
-38.88
-40.17
-40.74
-40.73
-40.28
-39.54
-38.65
-37.77
-36.99
-36.27
-35.33
-33.81
-31.41
-28.17
-24.46
-20.86
-17.79
-15.36
-13.35
-11.43
-9.47
-7.61
-6.07
-4.96
-4.03
-2.79
-0.80
2.11
5.67
9.29
12.27
14.16
14.86
14.68
14.17
13.78
13.76
14.00
14.19
13.94
12.93
11.10
8.55
5.48
2.14
-1.22
-4.32
-6.86
-8.61
-9.47
-9.54
-9.15
-8.67
-8.40
-8.42
-8.57
-8.59
-8.17
-7.18
-5.71
-4.07
-2.72
-2.04
-2.24
-3.22
-4.66
-6.15
-7.41
-8.42
-9.37
-10.51
-11.95
-13.56
-14.96
-15.77
-15.68
-14.69
-13.03
-11.09
-9.22
-7.61
-6.24
-4.92
-3.48
-1.92
-0.43
0.74
1.39
1.63
1.82
2.38
3.52
5.07
6.48
7.17
6.85
5.75
4.43
3.58
3.56
4.23
5.12
5.68
5.60
5.01
4.28
3.81
3.74
3.86
3.78
3.13
1.87
0.30
-1.13
-1.99
-2.13
-1.73
-1.22
-1.06
-1.61
-2.96
-4.91
-7.05
-8.93
-10.22
-10.76
-10.63
-9.97
-8.91
-7.47
-5.58
-3.22
-0.50
2.29
4.82
6.86
8.38
9.56
10.61
11.66
12.60
13.14
13.00
12.02
10.33
8.29
6.35
4.80
3.68
2.76
1.73
0.36
-1.29
-2.94
-4.16
-4.69
-4.51
-3.92
-3.32
-3.01
-3.11
-3.47
-3.85
-4.07
-4.11
-4.09
-4.06
-3.99
-3.76
-3.24
-2.48
-1.71
-1.28
-1.47
-2.27
-3.39
-4.38
-4.80
-4.48
-3.51
-2.19
-0.83
0.46
1.74
3.20
4.99
7.07
9.17
10.82
11.57
11.20
9.87
8.04
6.35
5.31
5.09
5.49
6.09
6.52
6.64
6.62
6.73
7.14
7.73
8.16
8.03
7.21
5.90
4.58
3.71
3.48
3.70
3.93
3.73
2.94
1.77
0.63
-0.07
-0.19
0.09
0.36
0.21
-0.53
-1.74
-3.07
-4.13
-4.63
-4.50
-3.87
-2.97
-1.99
-1.03
-0.05
1.00
2.14
3.28
4.23
4.78
4.88
4.67
4.42
4.47
4.99
5.88
6.83
7.39
7.31
6.57
5.47
4.43
3.81
3.75
4.11
4.55
4.73
4.47
3.79
2.87
1.92
1.08
0.39
-0.21
-0.81
-1.45
-2.05
-2.53
-2.77
-2.71
-2.46
-2.19
-2.13
-2.44
-3.18
-4.22
-5.30
-6.14
-6.53
-6.43
-5.98
-5.34
-4.65
-3.91
-3.04
-1.93
-0.61
0.79
2.05
3.04
3.74
4.32
4.94
5.64
6.28
6.61
6.41
5.65
4.50
3.27
2.27
1.74
1.73
2.14
2.76
3.39
3.86
4.15
4.34
4.54
4.82
5.10
5.18
4.88
4.15
3.16
2.23
1.67
1.60
1.86
2.16
2.23
1.99
1.56
1.18
1.01
1.00
0.99
0.77
0.28
-0.38
-1.05
-1.58
-1.95
-2.23
-2.49
-2.70
-2.72
-2.38
-1.59
-0.41
0.92
2.09
2.82
3.02
2.82
2.47
2.22
2.19
2.27
2.22
1.80
0.93
-0.23
-1.36
-2.15
-2.40
-2.17
-1.66
-1.12
-0.72
-0.46
-0.26
-0.01
0.35
0.78
1.15
1.28
1.03
0.42
-0.42
-1.19
-1.62
-1.57
-1.17
-0.72
-0.62
-1.08
-2.04
-3.17
-3.98
-4.06
-3.30
-1.85
-0.05
1.76
3.37
4.67
5.68
6.36
6.67
6.51
5.91
5.04
4.21
3.75
3.93
4.73
5.86
6.87
7.34
7.13
6.40
5.58
5.07
5.06
5.40
5.67
5.47
4.61
3.21
1.64
0.29
-0.62
-1.13
-1.45
-1.80
-2.24
-2.70
-3.01
-3.05
-2.89
-2.78
-3.02
-3.75
-4.88
-6.04
-6.78
-6.78
-5.95
-4.53
-2.91
-1.46
-0.29
0.63
1.52
2.48
3.47
4.32
4.83
4.92
4.69
4.32
4.02
3.89
3.93
4.05
4.20
4.35
4.50
4.63
4.67
4.58
4.36
4.09
3.86
3.79
3.86
3.98
4.02
3.80
3.22
2.26
0.99
-0.50
-2.05
-3.51
-4.72
-5.51
-5.80
-5.61
-5.07
-4.36
-3.67
-3.08
-2.55
-1.97
-1.25
-0.41
0.37
0.90
1.02
0.75
0.28
-0.17
-0.42
-0.47
-0.51
-0.80
-1.53
-2.72
-4.20
-5.62
-6.68
-7.16
-7.12
-6.76
-6.39
-6.23
-6.38
-6.82
-7.44
-8.12
-8.77
-9.34
-9.74
-9.94
-9.86
-9.47
-8.84
-8.11
-7.51
-7.19
-7.24
-7.53
-7.78
-7.63
-6.86
-5.43
-3.56
-1.58
0.23
1.78
3.14
4.48
5.93
7.42
8.75
9.66
10.00
9.79
9.25
8.66
8.25
8.08
8.02
7.88
7.52
6.96
6.38
5.97
5.87
5.99
6.11
5.98
5.46
4.59
3.62
2.84
2.44
2.45
2.69
2.90
2.83
2.38
1.58
0.58
-0.49
-1.53
-2.57
-3.59
-4.52
-5.15
-5.23
-4.55
-3.14
-1.23
0.79
2.54
3.82
4.62
5.11
5.50
5.95
6.45
6.93
7.30
7.54
7.69
7.91
8.34
9.03
9.89
10.67
11.11
11.04
10.49
9.74
9.10
8.77
8.69
8.55
8.02
6.94
5.42
3.78
2.37
1.35
0.63
0.01
-0.72
-1.61
-2.62
-3.65
-4.63
-5.61
-6.65
-7.83
-9.12
-10.34
-11.20
-11.43
-10.81
-9.37
-7.39
-5.31
-3.53
-2.26
-1.39
-0.63
0.35
1.68
3.21
4.65
5.65
6.09
6.02
5.68
5.34
5.17
5.18
5.29
5.39
5.40
5.27
5.01
4.62
4.09
3.39
2.52
1.52
0.49
-0.46
-1.26
-1.91
-2.49
-3.17
-4.08
-5.27
-6.65
-8.05
-9.26
-10.21
-10.98
-11.78
-12.87
-14.34
-16.07
-17.74
-18.92
-19.34
-18.93
-17.84
-16.36
-14.75
-13.19
-11.72
-10.34
-8.99
-7.67
-6.35
-5.01
-3.56
-1.94
-0.15
1.72
3.51
5.07
6.30
7.22
7.90
8.45
8.93
9.33
9.58
9.61
9.37
8.83
8.00
6.94
5.77
4.68
3.88
3.53
3.60
3.85
3.93
3.58
2.74
1.66
0.66
0.04
-0.20
-0.29
-0.48
-0.94
-1.59
-2.16
-2.44
-2.39
-2.14
-1.97
-1.99
-2.11
-2.01
-1.30
0.18
2.25
4.49
6.36
7.53
8.00
8.09
8.23
8.73
9.58
10.53
11.25
11.54
11.45
11.29
11.37
11.89
12.77
13.70
14.26
14.19
13.48
12.38
11.28
10.52
10.22
10.25
10.33
10.28
10.07
9.85
9.81
10.04
10.38
10.53
10.20
9.23
7.76
6.10
4.63
3.62
3.14
2.97
2.77
2.19
1.01
-0.73
-2.73
-4.60
-5.97
-6.61
-6.55
-5.94
-4.98
-3.79
-2.36
-0.61
1.47
3.76
5.98
7.83
9.14
9.97
10.61
11.40
12.56
14.04
15.53
16.58
16.84
16.22
14.96
13.48
12.24
11.53
11.30
11.30
11.21
10.76
9.93
8.84
7.61
6.28
4.70
2.68
0.24
-2.28
-4.26
-5.00
-4.13
-1.82
1.24
4.15
6.08
6.64
5.89
4.18
1.92
-0.61
-3.26
-5.86
-8.14
-9.77
-10.49
-10.30
-9.54
-8.75
-8.58
-9.47
-11.59
-14.76
-18.50
-22.14
-25.09
-26.93
-27.57
-27.15
-25.99
-24.35
-22.39
-20.12
-17.57
-14.90
-12.37
-10.25
-8.67
-7.51
-6.45
-5.19
-3.58
-1.73
0.11
1.72
3.05
4.18
5.33
6.58
7.87
8.92
9.40
9.00
7.61
5.30
2.34
-0.89
-4.02
-6.72
-8.81
-10.22
-10.94
-11.02
-10.48
-9.36
-7.75
-5.79
-3.66
-1.51
0.61
2.71
4.85
6.98
8.86
10.14
10.48
9.77
8.18
6.13
4.11
2.46
1.27
0.36
-0.51
-1.50
-2.63
-3.74
-4.66
-5.31
-5.73
-6.05
-6.44
-6.91
-7.39
-7.78
-7.95
-7.87
-7.63
-7.39
-7.30
-7.47
-7.87
-8.42
-8.94
-9.29
-9.44
-9.45
-9.50
-9.71
-10.12
-10.61
-10.99
-11.07
-10.82
-10.35
-9.89
-9.64
-9.66
-9.82
-9.85
-9.50
-8.68
-7.47
-6.14
-4.96
-4.08
-3.47
-2.92
-2.19
-1.15
0.12
1.42
2.51
3.25
3.68
3.95
4.21
4.50
4.70
4.63
4.16
3.34
2.34
1.43
0.78
0.38
0.08
-0.38
-1.16
-2.24
-3.44
-4.45
-5.08
-5.31
-5.33
-5.39
-5.63
-6.00
-6.26
-6.13
-5.49
-4.50
-3.54
-3.06
-3.35
-4.36
-5.75
-7.02
-7.74
-7.67
-6.89
-5.67
-4.41
-3.42
-2.82
-2.53
-2.34
-2.03
-1.52
-0.90
-0.36
-0.02
0.14
0.30
0.68
1.35
2.19
2.94
3.35
3.35
3.11
2.93
3.03
3.44
3.97
4.32
4.28
3.78
2.97
2.11
1.48
1.21
1.28
1.53
1.75
1.73
1.42
0.89
0.35
-0.02
-0.13
-0.06
-0.04
-0.26
-0.81
-1.56
-2.27
-2.73
-2.84
-2.69
-2.48
-2.33
-2.26
-2.12
-1.74
-1.01
-0.02
1.01
1.86
2.39
2.65
2.82
3.08
3.51
4.02
4.41
4.53
4.34
3.98
3.66
3.56
3.70
3.99
4.23
4.28
4.12
3.78
3.33
2.80
2.18
1.39
0.41
-0.73
-1.95
-3.11
-4.06
-4.72
-5.07
-5.25
-5.48
-5.97
-6.80
-7.86
-8.86
-9.48
-9.53
-9.08
-8.40
-7.78
-7.35
-7.06
-6.68
-5.95
-4.78
-3.28
-1.74
-0.49
0.31
0.67
0.80
0.89
1.02
1.10
0.95
0.43
-0.38
-1.19
-1.63
-1.38
-0.42
1.00
2.42
3.40
3.75
3.56
3.13
2.83
2.88
3.27
3.81
4.18
4.18
3.73
2.95
2.04
1.13
0.29
-0.50
-1.24
-1.87
-2.26
-2.33
-2.09
-1.73
-1.54
-1.80
-2.65
-3.99
-5.52
-6.80
-7.46
-7.31
-6.41
-5.03
-3.53
-2.19
-1.17
-0.45
0.08
0.49
0.78
0.89
0.76
0.46
0.16
0.03
0.21
0.67
1.26
1.76
2.07
2.16
2.13
2.17
2.37
2.74
3.17
3.48
3.54
3.34
2.99
2.66
2.48
2.45
2.49
2.42
2.13
1.65
1.17
0.88
0.93
1.31
1.82
2.23
2.31
2.05
1.55
1.05
0.73
0.65
0.65
0.50
-0.03
-0.99
-2.18
-3.27
-3.91
-3.93
-3.36
-2.46
-1.49
-0.66
-0.01
0.50
0.93
1.28
1.53
1.63
1.59
1.47
1.32
1.21
1.11
0.95
0.65
0.14
-0.58
-1.43
-2.27
-2.90
-3.18
-3.02
-2.45
-1.64
-0.79
-0.14
0.17
0.09
-0.32
-0.90
-1.51
-2.05
-2.50
-2.88
-3.20
-3.40
-3.34
-2.96
-2.29
-1.59
-1.14
-1.16
-1.61
-2.23
-2.65
-2.63
-2.22
-1.67
-1.28
-1.15
-1.11
-0.85
-0.09
1.19
2.68
3.91
4.49
4.33
3.67
2.97
2.64
2.86
3.51
4.29
4.94
5.36
5.68
6.11
6.75
7.52
8.20
8.50
8.35
7.85
7.29
6.96
7.02
7.46
8.05
8.52
8.64
8.29
7.54
6.58
5.63
4.86
4.27
3.65
2.71
1.25
-0.73
-2.98
-5.09
-6.69
-7.65
-8.08
-8.25
-8.42
-8.64
-8.78
-8.57
-7.81
-6.49
-4.82
-3.09
-1.56
-0.34
0.63
1.48
2.33
3.15
3.82
4.25
4.41
4.47
4.65
5.14
5.95
6.90
7.67
8.04
8.00
7.82
7.86
8.41
9.47
10.70
11.62
11.86
11.38
10.52
9.83
9.75
10.38
11.44
12.35
12.56
11.82
10.29
8.47
6.93
6.10
6.08
6.63
7.34
7.83
7.91
7.66
7.35
7.33
7.86
9.02
10.69
12.56
14.21
15.19
15.15
14.00
11.91
9.50
7.59
7.14
8.84
12.85
18.54
24.50
28.85
29.87
26.60
19.20
8.88
-2.57
-13.38
-22.37
-29.05
-33.51
-36.05
-36.97
-36.52
-34.95
-32.65
-30.15
-27.97
-26.51
-25.79
-25.51
-25.16
-24.24
-22.46
-19.90
-16.95
-14.11
-11.73
-9.83
-8.13
-6.20
-3.73
-0.73
2.46
5.34
7.50
8.88
9.68
10.32
11.15
12.34
13.78
15.23
16.50
17.55
18.50
19.57
20.86
22.29
23.62
24.45
24.43
23.42
21.53
19.09
16.56
14.32
12.52
11.09
9.81
8.46
7.03
5.65
4.42
3.23
1.62
-1.02
-5.07
-10.50
-16.76
-23.08
-28.78
-33.43
-36.79
-38.56
-38.29
-35.51
-30.16
-22.80
-14.55
-6.68
-0.14
4.75
8.12
10.24
11.12
10.54
8.32
4.60
-0.01
-4.66
-8.59
-11.40
-13.18
-14.25
-15.00
-15.68
-16.39
-17.10
-17.80
-18.44
-19.02
-19.48
-19.77
-19.87
-19.81
-19.69
-19.65
-19.81
-20.19
-20.69
-20.99
-20.63
-19.12
-16.12
-11.64
-6.11
-0.28
5.02
9.20
12.03
13.61
14.17
13.90
12.83
10.92
8.25
5.08
1.87
-0.93
-3.05
-4.57
-5.74
-6.85
-8.02
-9.14
-9.95
-10.31
-10.24
-9.95
-9.72
-9.65
-9.57
-9.12
-7.94
-5.86
-3.14
-0.29
2.14
3.79
4.67
5.18
5.95
7.46
9.63
11.65
12.22
10.19
5.26
-1.61
-8.64
-13.88
-16.25
-15.88
-13.91
-11.76
-10.35
-9.80
-9.62
-9.33
-8.87
-8.61
-9.03
-10.24
-11.84
-13.17
-13.61
-12.87
-11.21
-9.17
-7.25
-5.69
-4.40
-3.10
-1.58
0.15
1.88
3.29
4.22
4.71
4.98
5.28
5.80
6.52
7.33
8.03
8.48
8.60
8.42
8.01
7.46
6.80
6.04
5.17
4.26
3.42
2.78
2.41
2.25
2.09
1.66
0.84
-0.30
-1.52
-2.50
-3.01
-3.08
-2.93
-2.91
-3.33
-4.28
-5.61
-6.90
-7.68
-7.58
-6.49
-4.60
-2.30
0.03
2.11
3.88
5.46
6.97
8.46
9.86
11.07
12.07
13.03
14.19
15.80
17.91
20.31
22.58
24.26
25.09
25.08
24.50
23.72
22.99
22.35
21.65
20.66
19.26
17.48
15.53
13.65
11.97
10.46
8.87
6.95
4.47
1.39
-2.17
-5.98
-9.78
-13.39
-16.72
-19.77
-22.54
-24.98
-26.92
-28.17
-28.62
-28.37
-27.73
-27.07
-26.59
-26.19
-25.49
-24.05
-21.65
-18.40
-14.76
-11.25
-8.21
-5.69
-3.49
-1.37
0.78
2.84
4.61
5.87
6.57
6.81
6.82
6.84
7.03
7.43
7.85
8.09
7.96
7.47
6.81
6.35
6.37
6.86
7.54
7.91
7.61
6.61
5.19
3.88
3.07
2.86
2.98
3.02
2.66
1.92
1.06
0.46
0.40
0.84
1.46
1.87
1.77
1.12
0.17
-0.71
-1.22
-1.31
-1.20
-1.23
-1.69
-2.61
-3.75
-4.71
-5.14
-4.90
-4.12
-3.07
-2.00
-0.97
0.10
1.43
3.16
5.17
7.17
8.68
9.33
8.99
7.94
6.68
5.81
5.70
6.37
7.45
8.41
8.80
8.43
7.41
6.04
4.62
3.35
2.35
1.65
1.32
1.43
1.97
2.81
3.64
4.11
3.99
3.23
2.07
0.84
-0.14
-0.72
-1.00
-1.19
-1.55
-2.21
-3.13
-4.14
-5.04
-5.69
-6.10
-6.35
-6.54
-6.67
-6.61
-6.16
-5.14
-3.54
-1.54
0.56
2.37
3.64
4.30
4.49
4.45
4.45
4.61
4.87
5.03
4.87
4.33
3.54
2.77
2.26
2.11
2.21
2.31
2.18
1.77
1.23
0.80
0.68
0.89
1.25
1.46
1.30
0.73
-0.06
-0.79
-1.21
-1.28
-1.15
-1.09
-1.30
-1.83
-2.56
-3.26
-3.80
-4.19
-4.57
-5.10
-5.77
-6.41
-6.74
-6.49
-5.59
-4.22
-2.74
-1.51
-0.72
-0.29
-0.01
0.43
1.17
2.17
3.20
4.00
4.35
4.20
3.72
3.15
2.75
2.69
2.97
3.45
3.93
4.23
4.23
3.99
3.63
3.30
3.05
2.85
2.59
2.22
1.84
1.64
1.85
2.54
3.57
4.60
5.27
5.39
5.01
4.45
3.97
3.71
3.51
3.04
2.04
0.48
-1.39
-3.13
-4.39
-5.05
-5.27
-5.32
-5.37
-5.37
-5.03
-4.03
-2.23
0.18
2.67
4.65
5.70
5.79
5.27
4.72
4.65
5.30
6.54
7.99
9.26
10.17
10.81
11.54
12.64
14.18
15.88
17.18
17.60
16.91
15.29
13.25
11.32
9.79
8.60
7.43
5.97
4.12
2.07
0.16
-1.36
-2.49
-3.49
-4.66
-6.13
-7.75
-9.16
-10.00
-10.16
-9.82
-9.41
-9.36
-9.82
-10.57
-11.15
-11.04
-9.97
-8.08
-5.81
-3.75
-2.34
-1.70
-1.64
-1.74
-1.65
-1.23
-0.56
0.08
0.44
0.47
0.29
0.17
0.37
1.01
1.97
3.02
3.94
4.64
5.16
5.68
6.33
7.09
7.80
8.18
8.04
7.26
5.93
4.25
2.44
0.66
-1.02
-2.62
-4.14
-5.54
-6.68
-7.37
-7.44
-6.90
-5.94
-4.99
-4.42
-4.47
-5.01
-5.66
-5.95
-5.59
-4.67
-3.62
-2.91
-2.78
-3.12
-3.52
-3.56
-3.07
-2.33
-1.83
-2.02
-3.02
-4.50
-5.94
-6.82
-6.95
-6.48
-5.81
-5.30
-5.14
-5.23
-5.27
-4.99
-4.31
-3.40
-2.60
-2.22
-2.39
-2.96
-3.60
-3.95
-3.86
-3.45
-3.07
-3.06
-3.58
-4.47
-5.40
-6.02
-6.20
-6.06
-5.98
-6.30
-7.16
-8.39
-9.63
-10.41
-10.48
-9.90
-8.97
-8.08
-7.49
-7.18
-6.90
-6.33
-5.26
-3.79
-2.22
-0.91
-0.04
0.48
1.02
1.92
3.36
5.13
6.79
7.84
8.01
7.42
6.51
5.82
5.66
6.01
6.51
6.72
6.38
5.52
4.47
3.62
3.20
3.16
3.25
3.22
2.94
2.50
2.09
1.91
1.99
2.18
2.28
2.12
1.73
1.26
1.02
1.28
2.11
3.40
4.82
6.03
6.80
7.15
7.32
7.63
8.33
9.44
10.76
11.99
12.89
13.38
13.53
13.53
13.51
13.48
13.37
13.06
12.54
11.86
11.23
10.82
10.68
10.69
10.55
9.97
8.79
7.07
5.09
3.19
1.58
0.26
-1.05
-2.71
-4.98
-7.91
-11.30
-14.81
-18.14
-21.11
-23.70
-25.93
-27.80
-29.19
-29.93
-29.86
-28.97
-27.42
-25.40
-23.04
-20.23
-16.76
-12.38
-7.05
-1.11
4.80
9.90
13.57
15.62
16.30
16.23
16.08
16.32
17.00
17.84
18.39
18.36
17.72
16.75
15.84
15.23
14.94
14.75
14.43
13.90
13.30
12.83
12.62
12.59
12.46
11.94
10.87
9.33
7.60
5.99
4.66
3.59
2.56
1.36
-0.14
-1.80
-3.32
-4.36
-4.65
-4.19
-3.23
-2.18
-1.45
-1.22
-1.40
-1.68
-1.70
-1.27
-0.45
0.47
1.25
1.73
2.05
2.46
3.20
4.29
5.56
6.68
7.44
7.87
8.18
8.67
9.51
10.61
11.67
12.34
12.43
12.01
11.39
10.96
10.98
11.35
11.63
11.18
9.44
6.21
1.77
-3.22
-7.97
-11.86
-14.59
-16.20
-16.86
-16.78
-16.11
-14.95
-13.46
-11.87
-10.48
-9.51
-9.02
-8.84
-8.70
-8.35
-7.69
-6.81
-6.02
-5.61
-5.76
-6.36
-7.06
-7.38
-6.96
-5.74
-3.98
-2.19
-0.84
-0.19
-0.13
-0.25
-0.14
0.48
1.57
2.85
4.00
4.82
5.31
5.67
6.14
6.85
7.77
8.73
9.61
10.41
11.25
12.28
13.55
14.93
16.15
16.93
17.19
17.11
17.04
17.34
18.12
19.17
20.04
20.26
19.60
18.22
16.58
15.24
14.61
14.81
15.71
17.10
18.82
20.81
23.12
25.89
29.24
33.06
36.82
39.41
39.47
35.78
27.90
16.57
3.61
-8.73
-18.56
-24.96
-28.10
-28.89
-28.46
-27.67
-26.87
-26.00
-24.65
-22.35
-18.75
-14.00
-8.80
-4.30
-1.59
-1.22
-3.00
-6.08
-9.43
-12.40
-14.93
-17.36
-20.11
-23.23
-26.41
-29.09
-30.78
-31.27
-30.75
-29.64
-28.40
-27.38
-26.68
-26.18
-25.67
-24.97
-24.06
-22.99
-21.84
-20.65
-19.39
-17.99
-16.41
-14.69
-12.89
-11.09
-9.34
-7.74
-6.41
-5.51
-5.10
-5.10
-5.24
-5.18
-4.66
-3.74
-2.86
-2.70
-3.85
-6.49
-10.20
-14.10
-17.21
-18.98
-19.49
-19.46
-19.81
-21.19
-23.63
-26.67
-29.67
-32.22
-34.33
-36.22
-38.00
-39.34
-39.59
-38.05
-34.44
-29.22
-23.47
-18.57
-15.61
-14.98
-16.31
-18.67
-20.98
-22.54
-23.14
-23.06
-22.70
-22.25
-21.46
-19.76
-16.46
-11.07
-3.45
6.15
17.19
28.86
40.20
50.11
57.56
61.69
62.11
59.01
53.32
46.56
40.41
36.16
34.05
33.27
32.46
30.57
27.50
24.10
21.48
20.14
19.58
18.62
16.28
12.44
8.04
4.43
2.52
2.33
3.10
3.94
4.37
4.47
4.59
4.97
5.56
6.09
6.30
5.97
5.01
3.37
1.11
-1.58
-4.35
-6.77
-8.41
-9.10
-8.94
-8.33
-7.80
-7.83
-8.72
-10.44
-12.71
-15.11
-17.12
-18.21
-17.87
-15.62
-11.19
-4.68
3.31
11.68
19.09
24.37
26.99
27.27
26.24
25.20
25.16
26.44
28.61
30.85
32.32
32.61
31.74
30.02
27.71
24.81
21.07
16.24
10.38
3.95
-2.25
-7.44
-11.13
-13.33
-14.44
-15.00
-15.43
-15.84
-16.09
-15.98
-15.41
-14.52
-13.57
-12.87
-12.53
-12.44
-12.32
-11.87
-10.99
-9.76
-8.46
-7.32
-6.38
-5.42
-4.13
-2.30
-0.03
2.21
3.79
4.16
3.14
0.97
-1.77
-4.45
-6.55
-7.87
-8.43
-8.39
-7.94
-7.19
-6.21
-5.08
-3.90
-2.85
-2.15
-1.91
-2.08
-2.41
-2.57
-2.25
-1.32
0.08
1.60
2.86
3.57
3.66
3.32
2.84
2.57
2.65
3.01
3.37
3.37
2.72
1.36
-0.51
-2.47
-4.15
-5.36
-6.20
-6.95
-7.88
-9.08
-10.41
-11.62
-12.52
-13.09
-13.47
-13.82
-14.14
-14.24
-13.76
-12.41
-10.02
-6.71
-2.80
1.26
4.96
7.92
9.95
11.19
12.06
13.17
14.94
17.47
20.34
22.81
24.19
24.07
22.47
19.68
16.04
11.83
7.35
3.09
-0.19
-1.67
-0.97
1.55
4.73
7.08
7.52
5.85
2.80
-0.46
-2.94
-4.26
-4.70
-4.79
-4.92
-5.12
-5.21
-5.06
-4.85
-4.92
-5.64
-7.04
-8.82
-10.43
-11.31
-11.17
-10.07
-8.34
-6.46
-4.82
-3.60
-2.75
-2.05
-1.22
-0.09
1.32
2.78
3.94
4.49
4.34
3.66
2.82
2.25
2.18
2.62
3.28
3.83
3.96
3.60
2.88
2.07
1.40
0.99
0.84
0.88
1.01
1.21
1.48
1.84
2.25
2.62
2.79
2.63
2.11
1.33
0.50
-0.15
-0.46
-0.46
-0.30
-0.18
-0.26
-0.57
-1.04
-1.53
-1.97
-2.35
-2.72
-3.08
-3.38
-3.47
-3.20
-2.48
-1.33
0.07
1.48
2.67
3.48
3.93
4.15
4.29
4.44
4.56
4.52
4.20
3.63
2.96
2.49
2.45
2.91
3.69
4.45
4.82
4.62
3.94
3.09
2.44
2.19
2.30
2.52
2.51
2.06
1.19
0.14
-0.80
-1.45
-1.85
-2.17
-2.61
-3.27
-4.01
-4.62
-4.89
-4.76
-4.35
-3.88
-3.56
-3.50
-3.61
-3.71
-3.62
-3.24
-2.63
-1.97
-1.39
-0.94
-0.52
0.01
0.78
1.72
2.63
3.28
3.52
3.39
3.10
2.90
2.95
3.21
3.49
3.59
3.38
2.90
2.34
1.90
1.70
1.72
1.82
1.83
1.64
1.24
0.73
0.25
-0.10
-0.34
-0.54
-0.82
-1.22
-1.66
-2.01
-2.12
-2.02
-1.84
-1.80
-2.09
-2.75
-3.63
-4.45
-4.94
-4.92
-4.39
-3.51
-2.58
-1.81
-1.35
-1.13
-0.92
-0.46
0.43
1.72
3.14
4.34
5.02
5.11
4.80
4.41
4.20
4.26
4.53
4.83
5.08
5.22
5.29
5.33
5.28
5.06
4.55
3.71
2.61
1.42
0.36
-0.37
-0.67
-0.58
-0.29
-0.04
-0.02
-0.31
-0.82
-1.35
-1.76
-2.01
-2.16
-2.38
-2.79
-3.41
-4.15
-4.85
-5.39
-5.65
-5.64
-5.42
-5.06
-4.62
-4.11
-3.51
-2.82
-2.03
-1.23
-0.48
0.18
0.76
1.32
1.93
2.62
3.31
3.88
4.20
4.22
3.99
3.70
3.52
3.56
3.76
3.96
4.00
3.79
3.39
3.02
2.89
3.08
3.47
3.80
3.76
3.22
2.29
1.32
0.71
0.65
1.04
1.50
1.60
1.15
0.28
-0.58
-1.02
-0.87
-0.34
0.08
-0.12
-1.12
-2.73
-4.46
-5.76
-6.28
-6.02
-5.28
-4.42
-3.73
-3.25
-2.83
-2.30
-1.58
-0.79
-0.15
0.15
0.10
-0.10
-0.16
0.16
0.86
1.71
2.38
2.61
2.35
1.82
1.36
1.28
1.65
2.32
2.98
3.34
3.29
2.90
2.38
1.92
1.59
1.34
1.09
0.79
0.52
0.37
0.42
0.64
0.86
0.86
0.51
-0.16
-0.98
-1.66
-2.03
-2.02
-1.78
-1.59
-1.72
-2.28
-3.21
-4.26
-5.13
-5.60
-5.57
-5.15
-4.51
-3.84
-3.24
-2.70
-2.09
-1.26
-0.17
1.09
2.29
3.20
3.65
3.61
3.24
2.84
2.68
2.87
3.33
3.81
4.06
3.93
3.50
3.02
2.74
2.77
3.00
3.20
3.16
2.86
2.50
2.36
2.59
3.11
3.62
3.74
3.32
2.44
1.44
0.66
0.31
0.32
0.40
0.26
-0.30
-1.23
-2.30
-3.21
-3.76
-3.94
-3.93
-3.98
-4.27
-4.78
-5.32
-5.61
-5.46
-4.86
-4.03
-3.24
-2.68
-2.37
-2.13
-1.78
-1.22
-0.55
0.03
0.40
0.54
0.60
0.81
1.26
1.87
2.39
2.58
2.31
1.73
1.09
0.72
0.78
1.23
1.83
2.30
2.47
2.32
2.03
1.79
1.72
1.79
1.79
1.48
0.71
-0.45
-1.74
-2.76
-3.23
-3.11
-2.61
-2.13
-2.01
-2.39
-3.17
-4.07
-4.77
-5.12
-5.12
-4.89
-4.62
-4.40
-4.27
-4.14
-3.92
-3.51
-2.88
-2.06
-1.11
-0.11
0.85
1.67
2.22
2.38
2.10
1.53
1.07
1.33
2.93
6.19
10.99
16.71
22.49
27.52
31.36
34.06
36.09
38.07
40.63
44.08
48.41
53.14
57.45
60.28
60.60
57.82
52.07
44.30
36.07
29.17
25.06
24.53
27.54
33.31
40.56
47.75
53.42
56.41
56.11
52.59
46.56
39.22
31.92
25.79
21.34
18.41
16.23
13.74
9.93
4.21
-3.44
-12.50
-22.08
-31.26
-39.29
-45.76
-50.60
-53.99
-56.22
-57.65
-58.60
-59.33
-59.99
-60.56
-60.91
-60.83
-60.18
-59.03
-57.66
-56.52
-55.99
-56.19
-56.92
-57.67
-57.90
-57.20
-55.46
-52.87
-49.75
-46.40
-42.98
-39.54
-36.15
-32.94
-30.11
-27.86
-26.15
-24.80
-23.42
-21.69
-19.47
-16.90
-14.29
-11.94
-9.97
-8.21
-6.31
-3.86
-0.64
3.23
7.38
11.25
14.33
16.38
17.47
17.88
17.94
17.77
17.25
16.13
14.27
11.86
9.36
7.42
6.52
6.75
7.77
8.97
9.88
10.32
10.47
10.65
11.07
11.62
11.98
11.80
10.96
9.70
8.47
7.71
7.58
7.83
7.94
7.41
5.98
3.79
1.25
-1.09
-2.80
-3.72
-3.96
-3.84
-3.71
-3.83
-4.25
-4.85
-5.41
-5.68
-5.55
-5.05
-4.30
-3.42
-2.43
-1.25
0.32
2.38
4.90
7.62
10.14
12.08
13.24
13.65
13.61
13.44
13.38
13.41
13.38
13.10
12.53
11.79
11.11
10.57
10.00
9.06
7.45
5.16
2.55
0.25
-1.23
-1.71
-1.53
-1.34
-1.71
-2.83
-4.36
-5.67
-6.14
-5.48
-3.83
-1.66
0.55
2.54
4.29
5.97
7.68
9.35
10.73
11.50
11.51
10.81
9.64
8.30
6.99
5.72
4.34
2.64
0.55
-1.84
-4.25
-6.31
-7.82
-8.82
-9.64
-10.71
-12.34
-14.46
-16.67
-18.36
-19.07
-18.73
-17.67
-16.48
-15.65
-15.40
-15.58
-15.83
-15.82
-15.40
-14.59
-13.55
-12.36
-11.01
-9.38
-7.41
-5.19
-2.98
-1.17
-0.05
0.34
0.27
0.18
0.53
1.50
2.99
4.60
5.85
6.42
6.25
5.55
4.67
3.90
3.34
2.91
2.43
1.77
0.95
0.09
-0.63
-1.07
-1.24
-1.29
-1.44
-1.81
-2.41
-3.07
-3.56
-3.68
-3.40
-2.85
-2.31
-2.02
-2.10
-2.49
-2.98
-3.31
-3.38
-3.28
-3.28
-3.58
-4.20
-4.92
-5.30
-4.99
-3.88
-2.19
-0.41
0.95
1.64
1.75
1.63
1.72
2.20
2.98
3.67
3.89
3.50
2.71
1.98
1.78
2.27
3.26
4.27
4.83
4.78
4.31
3.84
3.75
4.15
4.79
5.27
5.25
4.64
3.66
2.70
2.08
1.92
2.08
2.25
2.20
1.86
1.38
0.98
0.83
0.90
0.97
0.75
0.08
-1.02
-2.26
-3.25
-3.67
-3.41
-2.62
-1.66
-0.85
-0.39
-0.20
-0.03
0.40
1.21
2.30
3.36
4.09
4.33
4.16
3.86
3.72
3.87
4.21
4.52
4.58
4.35
3.97
3.74
3.84
4.30
4.86
5.16
4.97
4.32
3.49
2.90
2.80
3.16
3.68
3.94
3.63
2.73
1.50
0.31
-0.49
-0.81
-0.77
-0.69
-0.81
-1.20
-1.72
-2.08
-2.04
-1.51
-0.63
0.33
1.15
1.78
2.36
3.07
4.01
5.08
6.03
6.62
6.74
6.48
6.08
5.82
5.81
6.02
6.25
6.26
5.89
5.16
4.24
3.40
2.87
2.70
2.72
2.62
2.13
1.14
-0.22
-1.60
-2.66
-3.21
-3.34
-3.33
-3.43
-3.80
-4.37
-4.97
-5.47
-5.88
-6.33
-6.99
-7.91
-8.98
-9.96
-10.60
-10.74
-10.44
-9.86
-9.21
-8.58
-7.95
-7.18
-6.13
-4.73
-3.08
-1.41
0.01
0.96
1.43
1.55
1.59
1.80
2.28
3.00
3.77
4.44
4.90
5.19
5.40
5.62
5.84
5.95
5.83
5.44
4.82
4.12
3.49
3.04
2.78
2.62
2.40
1.98
1.31
0.45
-0.40
-1.02
-1.28
-1.25
-1.19
-1.39
-2.06
-3.13
-4.33
-5.29
-5.82
-5.94
-5.87
-5.82
-5.88
-5.89
-5.57
-4.73
-3.38
-1.80
-0.38
0.59
1.08
1.30
1.56
2.08
2.81
3.47
3.71
3.33
2.48
1.56
1.08
1.37
2.37
3.62
4.48
4.46
3.44
1.75
-0.03
-1.40
-2.18
-2.58
-2.99
-3.70
-4.61
-5.31
-5.28
-4.18
-2.10
0.53
3.12
5.20
6.57
7.26
7.45
7.28
6.81
5.94
4.60
2.76
0.54
-1.80
-3.91
-5.50
-6.46
-6.87
-7.01
-7.09
-7.17
-7.05
-6.37
-4.85
-2.54
0.19
2.73
4.58
5.57
5.89
5.98
6.20
6.65
7.13
7.29
6.95
6.14
5.20
4.58
4.61
5.40
6.77
8.39
9.90
11.03
11.72
12.03
12.14
12.16
12.17
12.17
12.12
12.07
12.11
12.41
13.02
13.83
14.51
14.63
13.81
11.94
9.18
5.96
2.67
-0.49
-3.60
-6.92
-10.61
-14.48
-17.98
-20.34
-20.93
-19.60
-16.73
-13.08
-9.40
-6.20
-3.53
-1.14
1.26
3.76
6.14
7.95
8.69
8.09
6.18
3.29
-0.12
-3.68
-7.17
-10.53
-13.66
-16.32
-18.11
-18.58
-17.53
-15.18
-12.16
-9.33
-7.37
-6.58
-6.76
-7.38
-7.87
-7.88
-7.43
-6.78
-6.21
-5.87
-5.71
-5.58
-5.35
-5.02
-4.73
-4.59
-4.64
-4.75
-4.72
-4.33
-3.52
-2.36
-1.04
0.18
1.15
1.85
2.41
3.02
3.88
5.01
6.27
7.39
8.09
8.27
8.04
7.65
7.35
7.25
7.27
7.19
6.88
6.30
5.58
4.91
4.46
4.28
4.29
4.30
4.15
3.77
3.26
2.76
2.43
2.33
2.37
2.36
2.16
1.69
1.07
0.47
0.05
-0.17
-0.38
-0.80
-1.58
-2.66
-3.78
-4.54
-4.68
-4.19
-3.29
-2.37
-1.73
-1.46
-1.37
-1.15
-0.55
0.45
1.64
2.69
3.33
3.49
3.33
3.16
3.25
3.74
4.53
5.37
5.96
6.15
5.95
5.51
5.06
4.74
4.55
4.38
4.09
3.64
3.11
2.73
2.66
2.96
3.49
3.98
4.18
3.95
3.38
2.71
2.20
1.95
1.87
1.71
1.25
0.40
-0.73
-1.94
-3.05
-4.02
-4.90
-5.79
-6.65
-7.35
-7.71
-7.59
-7.05
-6.29
-5.60
-5.22
-5.22
-5.44
-5.58
-5.28
-4.36
-2.87
-1.16
0.37
1.38
1.83
1.96
2.16
2.73
3.71
4.83
5.68
6.00
5.74
5.16
4.63
4.41
4.51
4.66
4.51
3.82
2.62
1.22
0.03
-0.66
-0.84
-0.78
-0.82
-1.18
-1.83
-2.53
-3.04
-3.26
-3.31
-3.49
-4.03
-4.99
-6.16
-7.19
-7.75
-7.65
-6.93
-5.84
-4.64
-3.56
-2.64
-1.82
-0.97
-0.01
1.06
2.10
2.93
3.40
3.47
3.23
2.88
2.66
2.72
3.09
3.62
4.10
4.32
4.21
3.86
3.43
3.08
2.82
2.49
1.94
1.04
-0.14
-1.36
-2.34
-2.90
-3.03
-2.88
-2.70
-2.68
-2.86
-3.14
-3.33
-3.30
-3.06
-2.79
-2.72
-3.01
-3.62
-4.35
-4.90
-5.04
-4.76
-4.20
-3.58
-3.08
-2.72
-2.37
-1.90
-1.24
-0.49
0.18
0.67
0.97
1.19
1.52
2.04
2.69
3.29
3.65
3.69
3.45
3.12
2.90
2.89
3.06
3.25
3.30
3.16
2.89
2.63
2.53
2.65
2.85
2.90
2.54
1.69
0.50
-0.67
-1.39
-1.42
-0.82
0.03
0.63
0.58
-0.20
-1.44
-2.74
-3.73
-4.30
-4.65
-5.05
-5.70
-6.55
-7.31
-7.61
-7.22
-6.19
-4.84
-3.58
-2.70
-2.27
-2.10
-1.88
-1.38
-0.58
0.35
1.15
1.60
1.70
1.66
1.78
2.27
3.13
4.07
4.70
4.70
3.97
2.70
1.24
-0.05
-0.99
-1.61
-2.07
-2.52
-2.98
-3.36
-3.48
-3.28
-2.84
-2.40
-2.24
-2.54
-3.24
-4.11
-4.79
-4.97
-4.60
-3.85
-3.10
-2.74
-2.94
-3.60
-4.43
-5.09
-5.38
-5.32
-5.11
-4.89
-4.72
-4.44
-3.85
-2.85
-1.53
-0.17
0.94
1.62
1.91
2.07
2.35
2.90
3.60
4.21
4.48
4.31
3.84
3.36
3.15
3.30
3.70
4.07
4.18
3.95
3.50
3.07
2.88
2.96
3.16
3.23
2.92
2.16
1.05
-0.13
-1.08
-1.63
-1.77
-1.67
-1.58
-1.67
-1.97
-2.38
-2.73
-2.90
-2.88
-2.81
-2.80
-2.98
-3.33
-3.70
-3.87
-3.67
-3.08
-2.26
-1.49
-1.04
-0.97
-1.14
-1.27
-1.07
-0.47
0.44
1.38
2.15
2.65
2.97
3.30
3.76
4.30
4.72
4.82
4.51
3.92
3.33
2.97
2.93
3.04
3.01
2.56
1.69
0.63
-0.23
-0.57
-0.35
0.17
0.59
0.61
0.19
-0.48
-1.07
-1.34
-1.29
-1.14
-1.20
-1.65
-2.48
-3.48
-4.33
-4.83
-4.94
-4.81
-4.70
-4.73
-4.89
-4.99
-4.79
-4.14
-3.07
-1.81
-0.65
0.19
0.69
1.02
1.47
2.19
3.16
4.13
4.78
4.92
4.64
4.22
4.01
4.17
4.54
4.81
4.66
4.01
3.08
2.20
1.70
1.62
1.80
1.95
1.86
1.49
0.95
0.44
0.11
0.01
0.07
0.13
-0.00
-0.42
-1.11
-1.95
-2.76
-3.40
-3.83
-4.22
-4.74
-5.49
-6.38
-7.09
-7.26
-6.65
-5.32
-3.60
-1.99
-0.88
-0.38
-0.29
-0.24
0.12
0.89
1.90
2.83
3.40
3.54
3.45
3.43
3.70
4.23
4.79
5.06
4.85
4.21
3.43
2.89
2.82
3.17
3.69
3.99
3.84
3.27
2.53
1.94
1.70
1.77
1.91
1.80
1.29
0.41
-0.59
-1.41
-1.88
-2.01
-2.02
-2.19
-2.70
-3.56
-4.57
-5.41
-5.78
-5.53
-4.74
-3.69
-2.68
-1.93
-1.48
-1.14
-0.68
0.04
0.95
1.85
2.53
2.91
3.10
3.34
3.84
4.65
5.59
6.35
6.68
6.54
6.11
5.71
5.62
5.89
6.34
6.63
6.44
5.67
4.42
3.04
1.87
1.12
0.80
0.70
0.59
0.38
0.15
0.09
0.37
0.95
1.53
1.74
1.28
0.15
-1.32
-2.64
-3.41
-3.49
-3.10
-2.66
-2.55
-2.94
-3.69
-4.44
-4.82
-4.65
-4.01
-3.15
-2.39
-1.88
-1.52
-1.06
-0.23
1.02
2.52
3.88
4.79
5.11
4.97
4.73
4.70
5.01
5.54
6.03
6.24
6.18
6.10
6.37
7.26
8.75
10.51
12.11
13.20
13.73
13.97
14.27
14.90
15.88
16.97
17.88
18.45
18.77
19.10
19.74
20.74
21.87
22.67
22.62
21.41
19.04
15.75
11.92
7.91
3.91
-0.00
-3.75
-7.19
-10.06
-12.10
-13.19
-13.45
-13.24
-12.98
-13.01
-13.39
-13.97
-14.46
-14.59
-14.30
-13.72
-13.15
-12.90
-13.18
-13.99
-15.17
-16.37
-17.23
-17.48
-17.09
-16.23
-15.27
-14.49
-13.95
-13.49
-12.77
-11.61
-10.09
-8.65
-7.80
-7.88
-8.83
-10.22
-11.46
-12.19
-12.42
-12.47
-12.74
-13.39
-14.26
-14.95
-15.08
-14.51
-13.43
-12.21
-11.16
-10.39
-9.79
-9.16
-8.34
-7.37
-6.39
-5.65
-5.31
-5.41
-5.88
-6.52
-7.10
-7.47
-7.57
-7.48
-7.32
-7.23
-7.22
-7.21
-7.08
-6.77
-6.29
-5.73
-5.14
-4.48
-3.62
-2.45
-1.02
0.46
1.60
2.07
1.74
0.75
-0.54
-1.66
-2.30
-2.32
-1.84
-1.10
-0.33
0.33
0.84
1.24
1.60
1.92
2.15
2.23
2.14
1.95
1.78
1.79
2.07
2.61
3.30
4.01
4.66
5.25
5.86
6.56
7.37
8.17
8.83
9.21
9.26
9.08
8.87
8.85
9.13
9.67
10.27
10.68
10.75
10.52
10.17
9.98
10.08
10.37
10.57
10.35
9.52
8.16
6.55
5.05
3.91
3.12
2.53
1.89
1.07
0.10
-0.83
-1.52
-1.82
-1.75
-1.51
-1.36
-1.51
-2.01
-2.67
-3.20
-3.27
-2.72
-1.66
-0.35
0.87
1.78
2.37
2.77
3.14
3.56
3.95
4.22
4.28
4.21
4.17
4.36
4.87
5.59
6.22
6.47
6.17
5.38
4.43
3.72
3.55
3.96
4.71
5.38
5.60
5.20
4.33
3.32
2.53
2.15
2.11
2.14
1.95
1.33
0.29
-0.97
-2.20
-3.25
-4.11
-4.88
-5.71
-6.61
-7.51
-8.28
-8.82
-9.14
-9.26
-9.23
-8.96
-8.35
-7.27
-5.73
-3.86
-1.86
-0.01
1.57
2.80
3.74
4.48
5.11
5.66
6.09
6.33
6.35
6.22
6.12
6.26
6.80
7.70
8.69
9.33
9.21
8.10
6.04
3.42
0.76
-1.43
-2.83
-3.39
-3.29
-2.78
-2.05
-1.21
-0.31
0.52
0.98
0.69
-0.64
-3.07
-6.32
-9.90
-13.26
-15.98
-17.80
-18.54
-18.03
-16.16
-12.98
-8.83
-4.36
-0.32
2.63
4.16
4.35
3.55
2.20
0.72
-0.56
-1.40
-1.63
-1.21
-0.26
0.94
2.03
2.72
2.88
2.59
2.02
1.32
0.59
-0.12
-0.77
-1.26
-1.53
-1.58
-1.58
-1.81
-2.49
-3.59
-4.84
-5.79
-6.09
-5.60
-4.58
-3.46
-2.66
-2.36
-2.43
-2.45
-2.00
-0.84
0.98
3.19
5.44
7.52
9.42
11.28
13.19
15.06
16.49
16.91
15.89
13.35
9.78
6.11
3.34
2.12
2.50
3.89
5.41
6.33
6.40
5.93
5.50
5.57
6.25
7.18
7.90
8.07
7.74
7.29
7.20
7.76
8.89
10.22
11.26
11.71
11.54
10.98
10.38
9.99
9.84
9.75
9.44
8.74
7.64
6.39
5.27
4.53
4.30
4.59
5.43
6.89
9.02
11.76
14.83
17.76
20.00
21.04
20.59
18.67
15.56
11.74
7.72
3.84
0.21
-3.32
-7.01
-10.92
-14.68
-17.48
-18.27
-16.21
-11.08
-3.48
5.39
14.05
21.12
25.59
26.91
24.93
19.88
12.47
3.84
-4.53
-11.14
-14.89
-15.43
-13.25
-9.47
-5.43
-2.24
-0.50
-0.25
-1.18
-2.88
-4.98
-7.26
-9.55
-11.61
-13.15
-13.85
-13.56
-12.40
-10.83
-9.46
-8.89
-9.38
-10.84
-12.81
-14.68
-15.89
-16.13
-15.43
-14.14
-12.73
-11.64
-11.16
-11.33
-11.97
-12.78
-13.47
-13.85
-13.88
-13.61
-13.13
-12.55
-11.93
-11.26
-10.50
-9.50
-8.07
-6.02
-3.23
0.31
4.43
8.78
12.80
15.75
16.92
15.79
12.30
6.97
0.75
-5.24
-10.13
-13.54
-15.60
-16.72
-17.34
-17.75
-18.05
-18.29
-18.47
-18.51
-18.16
-16.99
-14.56
-10.60
-5.28
0.78
6.59
11.18
13.86
14.49
13.52
11.76
10.12
9.25
9.35
10.16
11.20
11.97
12.16
11.70
10.63
8.96
6.64
3.61
-0.06
-4.11
-8.14
-11.78
-14.88
-17.54
-20.09
-22.84
-25.88
-28.93
-31.38
-32.40
-31.24
-27.50
-21.26
-13.18
-4.25
4.41
11.87
17.59
21.47
23.73
24.66
24.45
23.11
20.56
16.82
12.19
7.24
2.68
-0.93
-3.35
-4.67
-5.21
-5.19
-4.65
-3.42
-1.32
1.70
5.37
9.25
12.83
15.77
17.91
19.30
20.03
20.18
19.70
18.56
16.85
14.78
12.70
10.96
9.71
8.85
8.08
7.09
5.77
4.24
2.82
1.80
1.24
0.95
0.61
0.00
-0.91
-1.87
-2.57
-2.79
-2.51
-2.01
-1.66
-1.81
-2.56
-3.80
-5.18
-6.37
-7.22
-7.84
-8.55
-9.63
-11.17
-12.95
-14.52
-15.50
-15.76
-15.56
-15.39
-15.76
-16.92
-18.81
-21.12
-23.44
-25.36
-26.48
-26.48
-25.04
-22.00
-17.46
-11.82
-5.82
-0.27
4.14
7.04
8.47
8.80
8.49
7.97
7.47
7.01
6.48
5.75
4.76
3.56
2.32
1.19
0.30
-0.36
-0.89
-1.48
-2.27
-3.22
-4.07
-4.41
-3.82
-2.07
0.74
4.20
7.70
10.62
12.57
13.39
13.19
12.18
10.62
8.68
6.50
4.22
1.98
0.01
-1.53
-2.53
-3.05
-3.26
-3.36
-3.47
-3.51
-3.16
-2.08
-0.08
2.69
5.74
8.39
10.13
10.71
10.27
9.19
7.81
6.34
4.76
3.03
1.17
-0.65
-2.08
-2.87
-2.93
-2.43
-1.74
-1.24
-1.16
-1.49
-2.02
-2.49
-2.77
-2.97
-3.30
-3.94
-4.89
-5.89
-6.58
-6.71
-6.33
-5.71
-5.26
-5.28
-5.80
-6.58
-7.29
-7.66
-7.62
-7.34
-7.08
-7.08
-7.39
-7.89
-8.32
-8.43
-8.09
-7.37
-6.53
-5.83
-5.39
-5.10
-4.68
-3.86
-2.60
-1.17
0.03
0.65
0.64
0.30
0.14
0.59
1.75
3.34
4.85
5.80
5.98
5.56
4.91
4.42
4.25
4.31
4.29
3.96
3.29
2.47
1.80
1.46
1.40
1.34
0.97
0.14
-1.03
-2.22
-3.10
-3.54
-3.65
-3.75
-4.13
-4.91
-5.95
-6.93
-7.51
-7.49
-6.92
-6.08
-5.32
-4.89
-4.80
-4.85
-4.72
-4.14
-3.06
-1.70
-0.40
0.55
1.05
1.24
1.43
1.90
2.70
3.68
4.49
4.84
4.64
4.09
3.55
3.36
3.61
4.11
4.50
4.52
4.19
3.83
3.88
4.59
5.87
7.29
8.30
8.51
7.93
6.88
5.85
5.25
5.22
5.62
6.21
6.72
7.02
7.06
6.87
6.47
5.84
4.99
3.96
2.91
2.06
1.67
1.92
2.78
3.99
5.08
5.53
5.00
3.53
1.45
-0.65
-2.23
-3.02
-3.07
-2.67
-2.17
-1.79
-1.55
-1.34
-1.06
-0.69
-0.38
-0.33
-0.65
-1.27
-1.97
-2.46
-2.54
-2.19
-1.65
-1.21
-1.10
-1.34
-1.75
-2.00
-1.92
-1.50
-0.99
-0.74
-0.97
-1.67
-2.60
-3.44
-4.01
-4.36
-4.77
-5.49
-6.59
-7.84
-8.80
-9.07
-8.46
-7.13
-5.50
-4.03
-3.02
-2.49
-2.26
-2.02
-1.61
-1.02
-0.45
-0.14
-0.17
-0.47
-0.73
-0.62
0.04
1.14
2.39
3.39
3.93
4.01
3.89
3.86
4.09
4.51
4.89
4.97
4.67
4.11
3.52
3.17
3.16
3.40
3.64
3.65
3.32
2.70
1.97
1.35
1.00
0.90
0.91
0.77
0.27
-0.65
-1.85
-3.04
-3.91
-4.31
-4.32
-4.15
-4.05
-4.07
-4.12
-3.96
-3.38
-2.34
-0.99
0.39
1.53
2.25
2.50
2.35
1.91
1.34
0.76
0.28
-0.01
-0.11
-0.07
0.02
0.00
-0.25
-0.84
-1.75
-2.84
-3.89
-4.65
-4.99
-4.99
-4.94
-5.23
-6.16
-7.79
-9.83
-11.77
-13.05
-13.28
-12.44
-10.81
-8.84
-6.93
-5.32
-4.04
-3.05
-2.33
-1.99
-2.19
-3.05
-4.44
-6.02
-7.28
-7.77
-7.33
-6.15
-4.67
-3.39
-2.61
-2.28
-2.07
-1.55
-0.44
1.19
2.96
4.36
5.08
5.13
4.83
4.62
4.78
5.30
5.86
6.13
5.93
5.41
4.91
4.79
5.17
5.85
6.47
6.71
6.48
5.92
5.32
4.93
4.81
4.84
4.82
4.59
4.13
3.57
3.09
2.81
2.75
2.75
2.65
2.33
1.78
1.11
0.46
-0.09
-0.52
-0.92
-1.37
-1.88
-2.33
-2.52
-2.26
-1.43
-0.09
1.56
3.22
4.61
5.57
6.10
6.34
6.49
6.71
7.01
7.27
7.37
7.26
7.00
6.80
6.83
7.12
7.54
7.82
7.74
7.27
6.57
5.93
5.61
5.63
5.81
5.83
5.46
4.65
3.57
2.51
1.70
1.24
1.07
1.03
0.99
0.85
0.58
0.22
-0.23
-0.75
-1.39
-2.20
-3.13
-4.05
-4.66
-4.67
-3.91
-2.46
-0.64
1.08
2.31
2.93
3.04
2.92
2.86
3.01
3.36
3.80
4.19
4.41
4.39
4.12
3.72
3.32
3.07
3.03
3.10
3.14
3.00
2.71
2.39
2.26
2.38
2.65
2.80
2.60
1.95
0.99
0.03
-0.69
-1.06
-1.19
-1.28
-1.55
-2.05
-2.72
-3.40
-3.97
-4.43
-4.87
-5.42
-6.10
-6.82
-7.38
-7.56
-7.25
-6.52
-5.55
-4.51
-3.50
-2.47
-1.26
0.25
2.01
3.78
5.20
6.01
6.16
5.85
5.48
5.38
5.68
6.21
6.62
6.59
6.07
5.28
4.60
4.36
4.64
5.24
5.79
6.00
5.75
5.17
4.51
4.00
3.72
3.58
3.34
2.83
1.98
0.90
-0.20
-1.12
-1.76
-2.21
-2.68
-3.36
-4.27
-5.26
-6.04
-6.33
-6.06
-5.35
-4.52
-3.91
-3.69
-3.83
-4.11
-4.19
-3.83
-2.90
-1.50
0.22
2.01
3.66
5.01
5.95
6.44
6.48
6.12
5.51
4.86
4.40
4.27
4.49
4.96
5.44
5.71
5.65
5.29
4.79
4.36
4.21
4.36
4.72
5.07
5.17
4.86
4.12
3.08
1.96
0.94
0.07
-0.75
-1.66
-2.76
-4.03
-5.36
-6.60
-7.72
-8.74
-9.72
-10.64
-11.39
-11.78
-11.67
-11.01
-9.92
-8.66
-7.49
-6.59
-6.01
-5.64
-5.26
-4.63
-3.62
-2.34
-1.04
-0.01
0.58
0.80
0.94
1.25
1.84
2.59
3.22
3.54
3.55
3.39
3.32
3.47
3.81
4.14
4.25
4.01
3.48
2.87
2.46
2.42
2.76
3.26
3.57
3.40
2.63
1.43
0.13
-0.89
-1.47
-1.70
-1.89
-2.35
-3.18
-4.26
-5.21
-5.69
-5.50
-4.69
-3.54
-2.37
-1.39
-0.58
0.21
1.22
2.52
3.98
5.31
6.21
6.59
6.61
6.64
7.04
7.93
9.12
10.17
10.65
10.36
9.39
8.07
6.74
5.59
4.63
3.76
2.85
1.88
0.93
0.15
-0.34
-0.49
-0.42
-0.33
-0.45
-0.92
-1.71
-2.67
-3.55
-4.23
-4.78
-5.43
-6.42
-7.88
-9.68
-11.54
-13.12
-14.20
-14.75
-14.93
-14.90
-14.75
-14.44
-13.87
-12.94
-11.70
-10.32
-9.04
-7.96
-6.99
-5.87
-4.33
-2.22
0.30
2.81
4.82
5.93
6.04
5.36
4.27
3.14
2.19
1.44
0.80
0.21
-0.30
-0.54
-0.34
0.34
1.31
2.14
2.39
1.78
0.39
-1.34
-2.81
-3.49
-3.24
-2.26
-1.08
-0.27
-0.18
-0.85
-2.06
-3.44
-4.63
-5.43
-5.76
-5.67
-5.24
-4.53
-3.65
-2.70
-1.85
-1.27
-1.06
-1.18
-1.46
-1.63
-1.46
-0.88
-0.04
0.70
0.98
0.58
-0.47
-1.86
-3.16
-4.02
-4.30
-4.13
-3.78
-3.50
-3.33
-3.08
-2.49
-1.42
-0.03
1.21
1.75
1.31
0.14
-1.00
-1.07
0.73
4.66
10.34
17.01
23.93
30.59
36.76
42.33
47.14
50.97
53.61
54.98
55.21
54.41
52.66
49.92
46.19
41.70
36.96
32.57
28.97
25.99
22.85
18.32
11.23
0.94
-12.27
-27.17
-41.80
-53.97
-61.88
-64.62
-62.43
-56.60
-49.03
-41.54
-35.44
-31.21
-28.69
-27.39
-26.89
-26.98
-27.63
-28.72
-29.91
-30.63
-30.27
-28.45
-25.13
-20.65
-15.53
-10.27
-5.18
-0.39
4.01
7.88
10.82
12.30
11.76
8.97
4.22
-1.67
-7.48
-12.02
-14.47
-14.57
-12.61
-9.19
-4.92
-0.20
4.83
10.13
15.59
20.86
25.35
28.41
29.53
28.58
25.79
21.71
16.93
11.91
6.83
1.71
-3.44
-8.40
-12.67
-15.56
-16.50
-15.28
-12.25
-8.24
-4.25
-1.13
0.78
1.61
1.79
1.68
1.33
0.46
-1.26
-3.92
-7.15
-10.18
-12.29
-13.08
-12.78
-12.09
-11.76
-12.18
-13.17
-14.09
-14.21
-13.18
-11.11
-8.57
-6.12
-4.00
-1.99
0.43
3.71
7.84
12.26
16.04
18.31
18.63
17.21
14.79
12.25
10.22
8.97
8.36
8.12
8.09
8.32
8.98
10.18
11.76
13.33
14.38
14.57
13.90
12.65
11.33
10.33
9.82
9.70
9.73
9.67
9.39
8.89
8.17
7.25
6.04
4.47
2.55
0.47
-1.43
-2.76
-3.23
-2.79
-1.67
-0.33
0.76
1.30
1.29
1.03
0.95
1.35
2.21
3.23
3.94
3.96
3.19
1.81
0.19
-1.33
-2.62
-3.73
-4.86
-6.16
-7.59
-8.93
-9.89
-10.23
-9.98
-9.40
-8.91
-8.88
-9.46
-10.45
-11.42
-11.93
-11.74
-10.93
-9.77
-8.58
-7.54
-6.61
-5.66
-4.62
-3.57
-2.75
-2.39
-2.59
-3.23
-3.99
-4.52
-4.63
-4.37
-4.03
-3.96
-4.32
-5.03
-5.73
-5.92
-5.29
-3.81
-1.82
0.17
1.71
2.59
2.89
2.84
2.68
2.49
2.25
1.90
1.52
1.29
1.46
2.16
3.30
4.49
5.23
5.15
4.13
2.45
0.59
-0.96
-1.92
-2.26
-2.18
-1.89
-1.46
-0.84
0.08
1.35
2.88
4.43
5.70
6.45
6.58
6.13
5.29
4.30
3.41
2.77
2.43
2.32
2.31
2.36
2.49
2.76
3.21
3.78
4.29
4.57
4.50
4.18
3.85
3.81
4.27
5.19
6.25
7.06
7.29
6.86
5.94
4.90
4.03
3.48
3.19
2.97
2.66
2.20
1.67
1.14
0.56
-0.22
-1.40
-3.10
-5.21
-7.48
-9.52
-11.04
-11.93
-12.31
-12.48
-12.75
-13.30
-14.12
-14.92
-15.35
-15.12
-14.19
-12.69
-10.96
-9.25
-7.70
-6.21
-4.60
-2.76
-0.77
1.12
2.57
3.41
3.73
3.83
4.03
4.50
5.12
5.54
5.44
4.75
3.74
2.95
2.88
3.70
5.13
6.51
7.17
6.74
5.35
3.53
1.95
1.09
1.02
1.41
1.76
1.69
1.08
0.12
-0.88
-1.67
-2.24
-2.77
-3.47
-4.46
-5.57
-6.47
-6.80
-6.34
-5.19
-3.66
-2.19
-1.07
-0.37
0.06
0.49
1.13
1.98
2.85
3.50
3.77
3.68
3.39
3.12
3.02
3.15
3.45
3.91
4.57
5.54
6.94
8.76
10.81
12.78
14.35
15.39
15.97
16.38
16.90
17.62
18.35
18.64
18.05
16.36
13.71
10.49
7.13
3.85
0.65
-2.68
-6.26
-10.03
-13.64
-16.61
-18.54
-19.23
-18.77
-17.48
-15.77
-14.05
-12.61
-11.62
-11.13
-11.13
-11.56
-12.33
-13.32
-14.35
-15.15
-15.49
-15.18
-14.19
-12.66
-10.86
-9.08
-7.52
-6.23
-5.11
-3.92
-2.47
-0.65
1.50
3.80
6.01
7.92
9.46
10.64
11.51
12.00
11.90
10.88
8.70
5.37
1.20
-3.26
-7.46
-11.01
-13.84
-16.05
-17.74
-18.84
-19.10
-18.18
-15.93
-12.53
-8.54
-4.68
-1.64
0.19
0.78
0.40
-0.54
-1.63
-2.62
-3.38
-3.79
-3.66
-2.71
-0.71
2.41
6.33
10.47
14.09
16.64
17.91
18.08
17.56
16.72
15.73
14.50
12.90
10.94
8.87
7.16
6.25
6.36
7.29
8.55
9.50
9.70
9.13
8.16
7.41
7.44
8.37
9.85
11.14
11.48
10.41
7.95
4.53
0.75
-2.94
-6.30
-9.32
-11.96
-14.10
-15.46
-15.81
-15.10
-13.57
-11.61
-9.62
-7.71
-5.71
-3.30
-0.24
3.44
7.36
10.99
13.85
15.75
16.85
17.48
18.01
18.63
19.34
19.98
20.38
20.38
19.94
19.06
17.74
16.05
14.09
12.04
10.10
8.46
7.21
6.40
6.06
6.25
7.07
8.59
10.74
13.28
15.86
18.15
19.96
21.26
22.16
22.70
22.80
22.25
20.87
18.68
15.91
12.96
10.20
7.83
5.80
3.95
2.22
0.66
-0.52
-1.16
-1.34
-1.43
-1.93
-3.30
-5.70
-8.96
-12.63
-16.25
-19.52
-22.44
-25.13
-27.74
-30.26
-32.44
-33.93
-34.42
-33.77
-32.12
-29.75
-26.97
-24.00
-20.86
-17.50
-13.90
-10.24
-6.92
-4.37
-2.93
-2.68
-3.38
-4.57
-5.80
-6.73
-7.28
-7.51
-7.53
-7.41
-7.11
-6.54
-5.69
-4.75
-4.04
-3.93
-4.65
-6.11
-7.95
-9.65
-10.79
-11.21
-11.09
-10.80
-10.65
-10.74
-10.85
-10.67
-9.88
-8.40
-6.45
-4.36
-2.47
-0.87
0.57
2.20
4.33
7.06
10.17
13.18
15.55
16.93
17.27
16.87
16.17
15.60
15.34
15.35
15.40
15.33
15.09
14.81
14.69
14.83
15.13
15.35
15.22
14.64
13.77
12.95
12.53
12.64
13.10
13.55
13.66
13.29
12.55
11.70
10.93
10.29
9.66
8.94
8.13
7.43
7.15
7.60
8.91
10.98
13.51
16.03
18.04
19.13
19.07
17.86
15.69
12.80
9.36
5.36
0.74
-4.60
-10.58
-17.03
-23.60
-29.95
-35.81
-40.95
-45.17
-48.24
-49.98
-50.26
-49.22
-47.19
-44.71
-42.29
-40.26
-38.65
-37.20
-35.50
-33.24
-30.36
-27.16
-24.17
-21.90
-20.62
-20.22
-20.27
-20.19
-19.52
-18.03
-15.79
-12.98
-9.82
-6.44
-2.93
0.61
3.95
6.78
8.76
9.74
9.80
9.26
8.56
8.12
8.12
8.48
8.90
9.03
8.67
7.83
6.73
5.65
4.79
4.19
3.76
3.38
2.99
2.59
2.28
2.14
2.19
2.38
2.61
2.77
2.76
2.54
2.11
1.56
0.95
0.31
-0.38
-1.16
-2.01
-2.85
-3.52
-3.89
-3.96
-3.84
-3.70
-3.65
-3.61
-3.40
-2.75
-1.51
0.27
2.40
4.57
6.58
8.29
9.73
10.92
11.92
12.76
13.47
14.10
14.71
15.40
16.20
17.19
18.44
19.99
21.78
23.61
25.23
26.33
26.75
26.52
25.88
25.08
24.34
23.67
22.99
22.17
21.17
20.07
19.00
18.06
17.25
16.41
15.31
13.66
11.30
8.18
4.46
0.38
-3.84
-8.04
-12.17
-16.15
-19.87
-23.12
-25.67
-27.42
-28.46
-29.07
-29.56
-30.09
-30.60
-30.80
-30.36
-29.13
-27.25
-25.10
-23.12
-21.58
-20.47
-19.52
-18.35
-16.68
-14.48
-11.95
-9.36
-6.99
-4.90
-3.09
-1.46
0.02
1.31
2.34
3.08
3.65
4.22
4.97
5.98
7.13
8.19
8.89
9.07
8.72
7.97
7.00
6.01
5.16
4.47
3.91
3.35
2.66
1.68
0.36
-1.21
-2.81
-4.23
-5.30
-5.98
-6.36
-6.48
-6.33
-5.85
-4.96
-3.75
-2.42
-1.24
-0.40
0.06
0.27
0.47
0.81
1.35
2.05
2.83
3.58
4.24
4.79
5.18
5.38
5.37
5.15
4.79
4.43
4.22
4.29
4.66
5.25
5.84
6.14
5.97
5.27
4.19
2.99
1.94
1.21
0.77
0.44
-0.00
-0.70
-1.63
-2.60
-3.36
-3.72
-3.66
-3.32
-2.90
-2.50
-2.11
-1.55
-0.64
0.64
2.12
3.48
4.41
4.79
4.75
4.69
4.98
5.85
7.26
8.85
10.21
10.98
11.05
10.49
9.55
8.41
7.15
5.77
4.26
2.72
1.34
0.36
-0.13
-0.18
-0.04
0.00
-0.27
-0.86
-1.65
-2.41
-2.98
-3.33
-3.60
-4.02
-4.81
-6.02
-7.55
-9.09
-10.29
-10.91
-10.95
-10.61
-10.22
-10.00
-9.94
-9.81
-9.32
-8.26
-6.71
-4.95
-3.32
-2.03
-1.05
-0.21
0.73
1.90
3.28
4.72
6.05
7.15
8.01
8.72
9.40
10.14
10.93
11.62
12.01
11.91
11.25
10.14
8.85
7.68
6.79
6.17
5.67
5.14
4.52
3.92
3.47
3.23
3.05
2.63
1.66
-0.06
-2.50
-5.36
-8.24
-10.84
-13.05
-14.94
-16.68
-18.39
-19.97
-21.18
-21.69
-21.30
-20.07
-18.28
-16.38
-14.68
-13.30
-12.09
-10.81
-9.22
-7.34
-5.35
-3.57
-2.22
-1.36
-0.86
-0.47
-0.04
0.47
0.91
1.15
1.19
1.20
1.50
2.41
4.01
6.12
8.38
10.42
12.06
13.38
14.63
16.06
17.71
19.35
20.61
21.16
20.84
19.80
18.37
16.98
15.89
15.16
14.64
14.13
13.52
12.87
12.35
12.09
12.00
11.74
10.80
8.83
5.77
1.98
-1.93
-5.41
-8.17
-10.35
-12.25
-14.11
-15.84
-17.05
-17.29
-16.34
-14.43
-12.18
-10.30
-9.25
-9.08
-9.43
-9.78
-9.76
-9.24
-8.38
-7.47
-6.70
-6.11
-5.57
-4.88
-3.90
-2.69
-1.50
-0.70
-0.60
-1.27
-2.54
-4.00
-5.23
-5.96
-6.21
-6.20
-6.21
-6.39
-6.67
-6.79
-6.48
-5.58
-4.19
-2.53
-0.90
0.53
1.75
2.86
3.95
4.96
5.71
5.92
5.49
4.56
3.51
2.82
2.83
3.50
4.48
5.21
5.22
4.40
3.02
1.59
0.62
0.34
0.64
1.13
1.39
1.22
0.64
-0.07
-0.65
-1.02
-1.35
-1.91
-2.94
-4.48
-6.35
-8.23
-9.85
-11.14
-12.20
-13.23
-14.41
-15.75
-17.14
-18.35
-19.12
-19.29
-18.76
-17.53
-15.59
-12.86
-9.31
-4.89
0.23
5.70
11.00
15.55
18.94
21.02
21.92
21.98
21.62
21.17
20.76
20.40
20.04
19.64
19.22
18.86
18.67
18.68
18.88
19.19
19.54
19.90
20.29
20.73
21.16
21.39
21.10
19.90
17.57
14.10
9.83
5.34
1.25
-1.97
-4.16
-5.51
-6.31
-6.82
-7.16
-7.28
-7.15
-6.84
-6.62
-6.78
-7.44
-8.46
-9.45
-9.95
-9.69
-8.74
-7.49
-6.40
-5.79
-5.62
-5.57
-5.24
-4.41
-3.18
-1.88
-0.98
-0.72
-1.04
-1.56
-1.82
-1.46
-0.46
0.92
2.21
3.05
3.27
2.95
2.35
1.76
1.31
0.94
0.49
-0.21
-1.19
-2.32
-3.35
-4.11
-4.51
-4.67
-4.73
-4.78
-4.79
-4.59
-3.98
-2.88
-1.34
0.40
2.04
3.37
4.31
4.94
5.45
6.02
6.73
7.55
8.33
8.91
9.22
9.28
9.23
9.15
9.01
8.62
7.70
6.04
3.64
0.76
-2.18
-4.79
-6.87
-8.48
-9.86
-11.23
-12.66
-14.03
-15.11
-15.69
-15.77
-15.55
-15.36
-15.44
-15.81
-16.27
-16.49
-16.23
-15.48
-14.50
-13.66
-13.26
-13.34
-13.65
-13.83
-13.53
-12.63
-11.28
-9.80
-8.52
-7.58
-6.91
-6.23
-5.29
-3.95
-2.33
-0.72
0.55
1.30
1.53
1.49
1.50
1.84
2.58
3.58
4.58
5.32
5.65
5.58
5.27
4.86
4.40
3.84
3.06
2.00
0.70
-0.64
-1.80
-2.68
-3.33
-3.89
-4.43
-4.87
-5.04
-4.76
-4.08
-3.34
-3.08
-3.82
-5.75
-8.61
-11.74
-14.32
-15.71
-15.69
-14.46
-12.47
-10.21
-8.00
-5.94
-3.99
-2.08
-0.27
1.32
2.55
3.41
4.03
4.69
5.63
6.97
8.59
10.16
11.26
11.56
10.96
9.69
8.25
7.15
6.76
7.08
7.78
8.39
8.56
8.18
7.44
6.67
6.13
5.87
5.81
5.80
5.77
5.72
5.70
5.75
5.83
5.88
5.85
5.77
5.73
5.84
6.15
6.67
7.21
7.53
7.36
6.55
5.16
3.49
1.97
0.96
0.62
0.78
1.09
1.24
1.12
0.92
0.95
1.53
2.70
4.19
5.55
6.40
6.69
6.77
7.39
9.31
13.03
18.54
25.29
32.41
38.96
44.19
47.58
48.91
48.11
45.33
41.01
35.92
31.01
27.27
25.38
25.55
27.41
30.21
33.05
35.17
36.11
35.79
34.42
32.38
30.00
27.52
24.99
22.43
19.80
17.15
14.62
12.33
10.33
8.54
6.80
4.93
2.87
0.66
-1.58
-3.72
-5.75
-7.69
-9.68
-11.77
-13.99
-16.27
-18.54
-20.70
-22.62
-24.20
-25.26
-25.67
-25.35
-24.40
-23.03
-21.63
-20.60
-20.30
-20.94
-22.48
-24.66
-26.95
-28.75
-29.59
-29.31
-28.15
-26.64
-25.28
-24.31
-23.57
-22.58
-20.85
-18.19
-14.84
-11.38
-8.39
-6.24
-4.89
-4.00
-3.19
-2.29
-1.44
-0.97
-1.17
-2.06
-3.36
-4.57
-5.28
-5.34
-4.94
-4.47
-4.27
-4.46
-4.88
-5.19
-5.09
-4.47
-3.45
-2.35
-1.47
-1.01
-0.98
-1.21
-1.40
-1.29
-0.74
0.20
1.33
2.38
3.18
3.70
4.07
4.44
4.86
5.23
5.43
5.47
5.53
5.95
6.97
8.61
10.52
12.19
13.17
13.34
12.90
12.22
11.58
10.95
9.98
8.24
5.46
1.74
-2.50
-6.68
-10.29
-13.07
-15.08
-16.49
-17.47
-18.02
-17.99
-17.24
-15.78
-13.86
-11.97
-10.63
-10.16
-10.55
-11.48
-12.49
-13.17
-13.39
-13.27
-13.07
-13.01
-13.14
-13.26
-13.07
-12.29
-10.85
-8.96
-7.02
-5.42
-4.41
-3.94
-3.74
-3.50
-3.02
-2.35
-1.72
-1.42
-1.54
-1.96
-2.31
-2.24
-1.57
-0.38
0.94
1.96
2.37
2.13
1.46
0.71
0.14
-0.21
-0.56
-1.17
-2.22
-3.64
-5.10
-6.21
-6.70
-6.54
-5.94
-5.17
-4.41
-3.68
-2.90
-2.01
-1.10
-0.36
0.03
0.01
-0.26
-0.49
-0.39
0.12
0.92
1.76
2.35
2.63
2.70
2.78
3.08
3.64
4.32
4.83
4.96
4.63
3.97
3.23
2.63
2.26
2.05
1.85
1.47
0.88
0.15
-0.55
-1.10
-1.46
-1.73
-2.08
-2.70
-3.64
-4.81
-6.05
-7.18
-8.15
-9.05
-10.00
-11.05
-12.04
-12.62
-12.43
-11.23
-9.14
-6.57
-4.08
-2.12
-0.88
-0.18
0.31
0.99
2.09
3.62
5.37
7.04
8.32
9.06
9.24
9.02
8.62
8.20
7.81
7.39
6.89
6.29
5.69
5.28
5.20
5.47
5.94
6.31
6.31
5.79
4.81
3.63
2.58
1.90
1.63
1.61
1.60
1.36
0.85
0.13
-0.63
-1.33
-1.95
-2.60
-3.34
-4.12
-4.73
-4.92
-4.53
-3.59
-2.39
-1.28
-0.61
-0.48
-0.76
-1.12
-1.25
-0.95
-0.21
0.77
1.81
2.80
3.72
4.65
5.57
6.34
6.70
6.39
5.38
3.91
2.49
1.66
1.71
2.56
3.76
4.69
4.88
4.22
2.96
1.55
0.38
-0.37
-0.81
-1.17
-1.66
-2.32
-3.06
-3.73
-4.24
-4.64
-5.10
-5.77
-6.73
-7.88
-8.99
-9.81
-10.17
-10.05
-9.54
-8.85
-8.15
-7.50
-6.82
-5.96
-4.79
-3.29
-1.65
-0.16
0.98
1.74
2.27
2.84
3.66
4.70
5.74
6.44
6.56
6.12
5.39
4.83
4.80
5.42
6.48
7.57
8.28
8.40
7.98
7.30
6.66
6.23
5.97
5.70
5.24
4.62
4.00
3.62
3.58
3.70
3.59
2.79
1.02
-1.62
-4.68
-7.55
-9.68
-10.89
-11.36
-11.52
-11.76
-12.21
-12.64
-12.59
-11.60
-9.50
-6.49
-3.09
0.09
2.55
4.07
4.70
4.60
3.96
2.91
1.57
0.13
-1.14
-1.95
-2.11
-1.61
-0.62
0.51
1.48
2.10
2.42
2.68
3.21
4.28
5.94
7.98
9.98
11.46
12.07
11.70
10.53
8.92
7.24
5.64
4.05
2.30
0.22
-2.14
-4.50
-6.41
-7.50
-7.58
-6.77
-5.36
-3.65
-1.82
0.10
2.10
4.07
5.76
6.83
7.03
6.38
5.19
4.00
3.30
3.38
4.23
5.54
6.97
8.25
9.33
10.28
11.24
12.26
13.28
14.18
14.91
15.47
15.91
16.18
16.15
15.53
14.05
11.61
8.39
4.77
1.20
-1.97
-4.63
-6.86
-8.83
-10.72
-12.56
-14.28
-15.72
-16.67
-17.01
-16.75
-16.05
-15.15
-14.29
-13.63
-13.13
-12.69
-12.17
-11.51
-10.75
-9.97
-9.16
-8.20
-6.85
-4.97
-2.64
-0.19
1.87
3.15
3.52
3.21
2.65
2.25
2.20
2.42
2.65
2.66
2.38
1.94
1.58
1.46
1.61
1.89
2.12
2.24
2.27
2.36
2.68
3.31
4.16
4.97
5.41
5.20
4.22
2.66
0.87
-0.68
-1.65
-1.99
-1.99
-2.09
-2.71
-3.99
-5.74
-7.49
-8.80
-9.45
-9.51
-9.24
-8.87
-8.40
-7.54
-5.98
-3.61
-0.68
2.19
4.36
5.46
5.56
5.14
4.74
4.69
4.98
5.31
5.42
5.22
4.86
4.59
4.48
4.39
4.00
3.01
1.38
-0.63
-2.58
-4.08
-4.99
-5.46
-5.89
-6.70
-8.04
-9.72
-11.23
-12.02
-11.79
-10.65
-9.10
-7.75
-6.99
-6.83
-6.94
-6.90
-6.47
-5.77
-5.10
-4.77
-4.83
-5.05
-4.99
-4.29
-2.84
-0.88
1.10
2.57
3.18
2.84
1.71
0.08
-1.85
-3.98
-6.26
-8.59
-10.72
-12.32
-13.15
-13.22
-12.89
-12.68
-12.99
-13.81
-14.70
-15.05
-14.38
-12.68
-10.44
-8.48
-7.55
-7.99
-9.57
-11.61
-13.23
-13.69
-12.68
-10.38
-7.30
-4.02
-0.99
1.54
3.53
4.96
5.75
5.75
4.86
3.17
0.99
-1.18
-2.87
-3.73
-3.71
-2.97
-1.81
-0.50
0.78
2.02
3.29
4.68
6.23
7.83
9.33
10.57
11.48
12.13
12.71
13.38
14.22
15.13
15.93
16.48
16.72
16.72
16.63
16.57
16.48
16.22
15.56
14.36
12.71
10.84
9.08
7.71
6.82
6.29
5.91
5.46
4.86
4.15
3.47
2.93
2.57
2.34
2.19
2.09
2.13
2.37
2.85
3.42
3.86
3.89
3.40
2.49
1.53
0.99
1.27
2.55
4.68
7.26
9.70
11.47
12.22
11.89
10.73
9.19
7.80
6.96
6.81
7.24
7.94
8.52
8.69
8.26
7.21
5.62
3.65
1.52
-0.51
-2.21
-3.43
-4.19
-4.65
-5.10
-5.85
-7.08
-8.73
-10.52
-12.06
-12.92
-12.89
-12.02
-10.53
-8.74
-6.83
-4.84
-2.68
-0.25
2.39
4.99
7.19
8.69
9.38
9.32
8.76
7.90
6.89
5.77
4.58
3.40
2.41
1.81
1.65
1.82
2.09
2.20
2.18
2.30
3.03
4.73
7.42
10.66
13.65
15.57
15.86
14.40
11.47
7.54
3.18
-1.16
-5.12
-8.43
-10.88
-12.28
-12.50
-11.51
-9.38
-6.32
-2.70
1.01
4.32
6.92
8.75
10.01
11.05
12.14
13.36
14.52
15.39
15.85
15.97
16.02
16.23
16.62
16.90
16.62
15.43
13.29
10.53
7.67
5.23
3.39
2.10
1.05
-0.02
-1.26
-2.63
-4.02
-5.33
-6.52
-7.65
-8.79
-9.98
-11.16
-12.24
-13.10
-13.67
-13.99
-14.17
-14.32
-14.51
-14.67
-14.65
-14.27
-13.47
-12.38
-11.24
-10.29
-9.61
-9.08
-8.44
-7.48
-6.09
-4.43
-2.76
-1.40
-0.49
-0.03
0.13
0.15
0.15
0.13
0.08
0.01
0.02
0.21
0.65
1.32
2.06
2.63
2.87
2.75
2.41
2.09
2.05
2.46
3.31
4.45
5.55
6.31
6.50
6.12
5.39
4.63
4.16
4.11
4.36
4.65
4.72
4.49
4.09
3.82
3.88
4.30
4.89
5.37
5.57
5.52
5.37
5.31
5.34
5.29
4.91
4.07
2.84
1.50
0.44
-0.10
-0.13
0.12
0.30
0.11
-0.51
-1.36
-2.10
-2.46
-2.35
-1.98
-1.74
-1.98
-2.84
-4.13
-5.48
-6.48
-6.97
-7.10
-7.26
-7.81
-8.85
-10.12
-11.11
-11.31
-10.48
-8.83
-6.85
-5.15
-4.09
-3.65
-3.53
-3.32
-2.81
-2.10
-1.45
-1.15
-1.21
-1.33
-1.04
0.04
1.97
4.40
6.72
8.35
9.01
8.86
8.38
8.10
8.31
8.91
9.56
9.85
9.61
9.00
8.36
8.01
7.99
8.09
7.97
7.40
6.40
5.21
4.11
3.23
2.51
1.73
0.69
-0.66
-2.20
-3.64
-4.72
-5.29
-5.36
-5.10
-4.75
-4.46
-4.22
-3.88
-3.24
-2.18
-0.78
0.69
1.90
2.56
2.61
2.15
1.41
0.55
-0.37
-1.42
-2.67
-4.14
-5.66
-7.01
-8.00
-8.60
-9.00
-9.51
-10.38
-11.67
-13.16
-14.50
-15.35
-15.65
-15.61
-15.63
-16.02
-16.86
-17.88
-18.64
-18.79
-18.23
-17.25
-16.37
-16.06
-16.47
-17.37
-18.24
-18.53
-17.96
-16.56
-14.66
-12.61
-10.64
-8.74
-6.76
-4.57
-2.22
0.03
1.89
3.14
3.85
4.25
4.69
5.45
6.53
7.76
8.82
9.48
9.70
9.64
9.58
9.76
10.22
10.83
11.38
11.67
11.64
11.39
11.15
11.08
11.22
11.39
11.34
10.82
9.79
8.43
7.09
6.09
5.51
5.13
4.51
3.28
1.39
-0.84
-2.82
-4.03
-4.35
-4.05
-3.64
-3.53
-3.78
-4.09
-4.03
-3.33
-2.09
-0.70
0.39
0.98
1.16
1.29
1.73
2.64
3.84
4.98
5.69
5.77
5.34
4.71
4.26
4.18
4.43
4.73
4.73
4.24
3.31
2.25
1.42
1.06
1.12
1.35
1.43
1.17
0.58
-0.17
-0.90
-1.55
-2.22
-3.11
-4.35
-5.92
-7.63
-9.22
-10.45
-11.27
-11.76
-12.11
-12.47
-12.88
-13.24
-13.40
-13.22
-12.69
-11.88
-10.93
-9.93
-8.87
-7.62
-6.09
-4.23
-2.22
-0.35
1.05
1.77
1.79
1.36
0.92
0.88
1.54
2.96
4.96
7.29
9.72
12.08
14.33
16.38
18.09
19.28
19.75
19.46
18.52
17.22
15.93
14.93
14.33
14.02
13.71
13.14
12.14
10.77
9.27
7.92
6.94
6.32
5.95
5.63
5.26
4.86
4.55
4.41
4.50
4.77
5.23
5.92
6.90
8.15
9.54
10.77
11.49
11.40
10.35
8.40
5.79
2.89
0.10
-2.29
-4.15
-5.57
-6.77
-7.95
-9.15
-10.18
-10.71
-10.51
-9.56
-8.14
-6.66
-5.47
-4.69
-4.26
-3.98
-3.78
-3.70
-3.87
-4.34
-4.92
-5.27
-5.01
-4.01
-2.46
-0.83
0.36
0.82
0.59
0.03
-0.37
-0.23
0.58
1.87
3.33
4.63
5.63
6.37
7.10
8.08
9.46
11.21
13.07
14.75
16.05
16.97
17.69
18.44
19.30
20.16
20.80
21.03
20.82
20.38
20.03
19.93
19.99
19.87
19.16
17.65
15.47
13.03
10.81
9.14
7.96
6.90
5.48
3.37
0.57
-2.60
-5.67
-8.28
-10.35
-12.06
-13.73
-15.58
-17.64
-19.70
-21.55
-23.08
-24.41
-25.82
-27.51
-29.43
-31.28
-32.59
-32.99
-32.42
-31.12
-29.55
-28.06
-26.81
-25.67
-24.34
-22.58
-20.37
-17.93
-15.62
-13.75
-12.44
-11.59
-10.94
-10.24
-9.36
-8.31
-7.25
-6.34
-5.65
-5.16
-4.72
-4.19
-3.50
-2.64
-1.72
-0.84
-0.09
0.53
1.04
1.49
1.88
2.13
2.15
1.82
1.18
0.36
-0.38
-0.81
-0.82
-0.57
-0.37
-0.59
-1.42
-2.74
-4.14
-5.13
-5.37
-4.86
-3.93
-2.96
-2.25
-1.73
-1.11
-0.03
1.56
3.41
5.02
5.94
6.04
5.57
5.04
4.86
5.18
5.75
6.18
6.14
5.61
4.87
4.33
4.28
4.72
5.37
5.86
5.93
5.59
5.07
4.62
4.38
4.27
4.01
3.42
2.46
1.33
0.35
-0.22
-0.33
-0.23
-0.25
-0.70
-1.66
-2.98
-4.30
-5.25
-5.63
-5.48
-5.03
-4.54
-4.17
-3.81
-3.22
-2.17
-0.63
1.16
2.75
3.73
3.92
3.53
2.97
2.69
2.93
3.55
4.24
4.61
4.46
3.86
3.05
2.34
1.91
1.76
1.70
1.51
1.07
0.43
-0.20
-0.64
-0.83
-0.91
-1.10
-1.60
-2.39
-3.26
-3.83
-3.86
-3.35
-2.58
-2.00
-1.99
-2.64
-3.74
-4.89
-5.69
-5.92
-5.64
-5.04
-4.33
-3.61
-2.81
-1.82
-0.60
0.76
2.01
2.89
3.24
3.17
2.95
2.96
3.43
4.33
5.39
6.25
6.62
6.43
5.84
5.10
4.43
3.84
3.18
2.30
1.13
-0.19
-1.38
-2.19
-2.49
-2.40
-2.22
-2.25
-2.64
-3.32
-4.05
-4.54
-4.64
-4.48
-4.37
-4.66
-5.53
-6.95
-8.63
-10.16
-11.19
-11.56
-11.27
-10.47
-9.32
-7.98
-6.50
-4.94
-3.34
-1.82
-0.50
0.56
1.33
1.85
2.28
2.74
3.35
4.11
4.92
5.60
5.98
5.97
5.58
4.97
4.31
3.75
3.31
2.93
2.50
1.97
1.34
0.61
-0.26
-1.38
-2.84
-4.54
-6.22
-7.47
-7.97
-7.71
-7.09
-6.83
-7.67
-10.02
-13.73
-18.05
-21.87
-24.02
-23.76
-20.98
-16.27
-10.65
-5.19
-0.61
2.88
5.45
7.44
9.00
10.04
10.38
9.96
9.03
8.10
7.63
7.81
8.41
8.99
9.15
8.82
8.29
8.00
8.28
9.13
10.22
11.08
11.35
10.95
10.10
9.12
8.25
7.54
6.85
6.04
5.10
4.25
3.78
3.92
4.58
5.37
5.79
5.48
4.42
2.91
1.42
0.38
-0.08
-0.03
0.30
0.76
1.37
2.24
3.48
5.10
6.95
8.74
10.20
11.16
11.66
11.87
12.06
12.44
13.02
13.64
14.04
14.00
13.49
12.69
11.91
11.43
11.34
11.50
11.61
11.39
10.73
9.74
8.60
7.51
6.42
5.20
3.60
1.56
-0.76
-3.04
-4.91
-6.25
-7.19
-8.12
-9.49
-11.57
-14.28
-17.30
-20.14
-22.40
-23.90
-24.71
-25.00
-24.93
-24.53
-23.67
-22.23
-20.18
-17.69
-15.09
-12.69
-10.70
-9.03
-7.41
-5.56
-3.31
-0.79
1.60
3.43
4.38
4.45
3.95
3.39
3.17
3.44
4.04
4.66
4.99
4.96
4.73
4.57
4.70
5.10
5.56
5.83
5.73
5.33
4.83
4.49
4.38
4.35
4.09
3.32
1.96
0.26
-1.33
-2.37
-2.57
-1.99
-0.91
0.33
1.53
2.70
3.99
5.53
7.29
9.06
10.56
11.57
12.05
12.12
11.94
11.66
11.32
10.88
10.31
9.62
8.86
8.12
7.49
6.97
6.46
5.78
4.72
3.14
1.09
-1.15
-3.16
-4.59
-5.27
-5.37
-5.28
-5.36
-5.77
-6.40
-6.94
-7.13
-6.89
-6.45
-6.14
-6.24
-6.83
-7.76
-8.74
-9.53
-10.00
-10.19
-10.16
-9.96
-9.59
-8.91
-7.82
-6.28
-4.40
-2.41
-0.58
0.86
1.81
2.33
2.61
2.83
3.12
3.45
3.67
3.60
3.15
2.42
1.65
1.10
0.88
0.87
0.81
0.49
-0.09
-0.65
-0.80
-0.28
0.80
2.01
2.80
2.75
1.86
0.47
-0.93
-1.97
-2.54
-2.83
-3.10
-3.52
-4.09
-4.62
-4.91
-4.86
-4.57
-4.28
-4.20
-4.39
-4.75
-4.99
-4.87
-4.25
-3.21
-1.98
-0.77
0.30
1.24
2.13
3.06
4.03
4.95
5.69
6.18
6.41
6.48
6.51
6.62
6.84
7.10
7.26
7.18
6.78
6.15
5.50
5.08
5.04
5.33
5.68
5.77
5.38
4.49
3.35
2.25
1.43
0.88
0.41
-0.21
-1.04
-1.96
-2.71
-3.08
-3.10
-2.97
-3.01
-3.40
-4.07
-4.74
-5.01
-4.67
-3.75
-2.57
-1.53
-0.90
-0.73
-0.80
-0.74
-0.29
0.58
1.67
2.65
3.27
3.50
3.51
3.54
3.72
3.99
4.13
3.98
3.55
3.04
2.72
2.80
3.21
3.69
3.86
3.47
2.54
1.33
0.21
-0.51
-0.74
-0.61
-0.40
-0.40
-0.72
-1.33
-2.04
-2.64
-3.05
-3.29
-3.54
-3.94
-4.53
-5.13
-5.44
-5.17
-4.20
-2.68
-0.98
0.51
1.54
2.09
2.38
2.69
3.18
3.81
4.41
4.84
5.07
5.19
5.42
5.86
6.52
7.21
7.68
7.76
7.40
6.69
5.82
5.01
4.33
3.76
3.16
2.39
1.46
0.51
-0.24
-0.60
-0.60
-0.44
-0.45
-0.85
-1.69
-2.78
-3.88
-4.81
-5.58
-6.37
-7.35
-8.55
-9.78
-10.75
-11.14
-10.81
-9.88
-8.60
-7.27
-6.06
-4.99
-3.93
-2.77
-1.50
-0.28
0.66
1.11
1.03
0.56
0.00
-0.32
-0.24
0.21
0.81
1.25
1.36
1.13
0.76
0.49
0.48
0.64
0.74
0.53
-0.12
-1.11
-2.20
-3.11
-3.71
-3.99
-4.12
-4.28
-4.56
-4.96
-5.40
-5.72
-5.83
-5.72
-5.49
-5.30
-5.22
-5.24
-5.18
-4.83
-4.04
-2.84
-1.41
-0.00
1.17
2.07
2.79
3.47
4.23
5.02
5.67
5.99
5.90
5.50
5.09
4.96
5.30
6.05
6.92
7.57
7.81
7.67
7.38
7.16
7.06
6.88
6.32
5.20
3.63
1.96
0.64
-0.10
-0.33
-0.44
-0.91
-2.01
-3.69
-5.61
-7.31
-8.48
-9.06
-9.19
-9.15
-9.06
-8.91
-8.54
-7.74
-6.44
-4.77
-2.99
-1.44
-0.34
0.29
0.65
1.01
1.58
2.37
3.21
3.85
4.15
4.12
3.95
3.93
4.23
4.89
5.74
6.52
7.03
7.16
6.98
6.61
6.17
5.70
5.14
4.42
3.49
2.42
1.38
0.60
0.19
0.11
0.16
0.06
-0.44
-1.38
-2.61
-3.89
-4.97
-5.74
-6.25
-6.62
-6.91
-7.07
-6.97
-6.44
-5.47
-4.19
-2.80
-1.52
-0.44
0.44
1.20
1.88
2.45
2.84
2.97
2.89
2.68
2.51
2.52
2.80
3.31
3.93
4.46
4.71
4.58
4.13
3.54
3.01
2.66
2.44
2.14
1.58
0.72
-0.31
-1.23
-1.82
-2.05
-2.11
-2.30
-2.84
-3.76
-4.86
-5.85
-6.48
-6.73
-6.76
-6.83
-7.06
-7.39
-7.55
-7.22
-6.26
-4.77
-3.09
-1.64
-0.63
0.02
0.56
1.25
2.19
3.16
3.84
3.98
3.58
2.90
2.29
2.06
2.26
2.77
3.32
3.72
3.90
3.95
3.99
4.13
4.34
4.53
4.54
4.25
3.64
2.79
1.92
1.22
0.83
0.69
0.62
0.35
-0.29
-1.25
-2.35
-3.30
-3.90
-4.13
-4.18
-4.28
-4.59
-5.05
-5.47
-5.59
-5.27
-4.56
-3.66
-2.75
-1.95
-1.17
-0.24
0.95
2.39
3.84
5.01
5.69
5.88
5.82
5.88
6.31
7.15
8.19
9.07
9.50
9.36
8.79
8.06
7.46
7.11
6.93
6.74
6.36
5.75
5.05
4.47
4.14
3.99
3.74
3.07
1.83
0.14
-1.62
-3.03
-3.80
-3.98
-3.84
-3.79
-4.12
-4.85
-5.78
-6.59
-7.02
-7.03
-6.75
-6.47
-6.41
-6.59
-6.90
-7.13
-7.12
-6.85
-6.47
-6.18
-6.08
-6.09
-6.02
-5.62
-4.78
-3.63
-2.47
-1.67
-1.47
-1.87
-2.62
-3.35
-3.69
-3.52
-2.95
-2.31
-1.91
-1.94
-2.30
-2.73
-2.95
-2.86
-2.59
-2.44
-2.67
-3.34
-4.31
-5.29
-6.06
-6.59
-7.00
-7.47
-8.05
-8.59
-8.82
-8.45
-7.40
-5.81
-4.00
-2.31
-0.92
0.17
1.12
2.10
3.17
4.28
5.27
5.96
6.31
6.41
6.45
6.58
6.86
7.14
7.19
6.75
5.75
4.38
3.02
2.11
1.98
2.62
3.76
4.99
5.98
6.65
7.19
7.87
8.93
10.36
11.99
13.50
14.66
15.37
15.66
15.59
15.10
14.07
12.31
9.76
6.61
3.28
0.32
-1.77
-2.78
-2.91
-2.71
-2.79
-3.60
-5.18
-7.09
-8.68
-9.33
-8.75
-7.04
-4.54
-1.68
1.23
4.03
6.60
8.76
10.24
10.80
10.42
9.41
8.30
7.66
7.74
8.44
9.25
9.59
9.11
7.84
6.15
4.55
3.35
2.53
1.76
0.63
-1.07
-3.23
-5.43
-7.15
-8.02
-7.98
-7.24
-6.22
-5.26
-4.54
-3.97
-3.34
-2.42
-1.12
0.42
1.96
3.30
4.37
5.28
6.23
7.29
8.37
9.20
9.48
9.14
8.35
7.49
6.91
6.78
6.99
7.23
7.22
6.80
6.07
5.26
4.62
4.26
4.12
3.98
3.60
2.82
1.66
0.28
-1.11
-2.33
-3.37
-4.36
-5.51
-6.90
-8.48
-9.97
-11.05
-11.49
-11.23
-10.38
-9.11
-7.56
-5.82
-3.90
-1.88
0.09
1.79
3.03
3.72
3.93
3.83
3.68
3.62
3.72
3.93
4.08
4.03
3.71
3.12
2.42
1.81
1.44
1.41
1.68
2.13
2.59
2.94
3.09
2.98
2.58
1.81
0.65
-0.86
-2.59
-4.33
-5.83
-6.98
-7.77
-8.36
-8.97
-9.76
-10.72
-11.69
-12.42
-12.67
-12.33
-11.53
-10.51
-9.57
-8.86
-8.39
-7.97
-7.44
-6.71
-5.89
-5.24
-4.93
-4.98
-5.17
-5.14
-4.61
-3.56
-2.29
-1.20
-0.64
-0.69
-1.13
-1.62
-1.85
-1.76
-1.53
-1.44
-1.72
-2.39
-3.30
-4.22
-4.96
-5.51
-5.99
-6.59
-7.44
-8.54
-9.73
-10.76
-11.44
-11.70
-11.65
-11.53
-11.54
-11.70
-11.83
-11.66
-10.94
-9.67
-8.06
-6.39
-4.85
-3.43
-1.92
-0.14
1.90
3.96
5.66
6.68
6.99
6.87
6.76
7.07
7.88
8.98
9.93
10.34
10.06
9.22
8.19
7.36
6.92
6.81
6.73
6.37
5.62
4.57
3.54
2.82
2.53
2.55
2.55
2.24
1.51
0.50
-0.46
-1.06
-1.19
-1.03
-0.94
-1.24
-2.04
-3.11
-4.07
-4.55
-4.46
-3.95
-3.37
-2.94
-2.66
-2.25
-1.39
0.08
2.06
4.19
6.04
7.34
8.08
8.45
8.74
9.15
9.69
10.20
10.45
10.28
9.74
9.06
8.55
8.42
8.65
8.97
9.02
8.59
7.73
6.71
5.84
5.23
4.75
4.10
3.09
1.81
0.62
0.00
0.27
1.42
3.14
4.93
6.36
7.19
7.50
7.54
7.63
7.97
8.54
9.15
9.56
9.66
9.53
9.39
9.46
9.74
9.98
9.76
8.75
6.95
4.69
2.53
0.96
0.17
-0.03
0.02
0.02
-0.10
-0.20
-0.12
0.17
0.50
0.49
-0.16
-1.61
-3.72
-6.23
-8.82
-11.28
-13.57
-15.81
-18.23
-21.00
-24.16
-27.53
-30.74
-33.30
-34.85
-35.24
-34.61
-33.26
-31.50
-29.55
-27.45
-25.19
-22.83
-20.47
-18.31
-16.49
-15.03
-13.83
-12.71
-11.52
-10.23
-8.93
-7.81
-7.04
-6.65
-6.55
-6.52
-6.34
-5.91
-5.32
-4.76
-4.42
-4.36
-4.40
-4.24
-3.61
-2.46
-0.95
0.56
1.77
2.59
3.20
3.92
5.02
6.56
8.32
9.92
11.01
11.48
11.47
11.31
11.33
11.66
12.20
12.67
12.78
12.42
11.70
10.91
10.34
10.12
10.15
10.14
9.86
9.22
8.39
7.69
7.35
7.36
7.44
7.20
6.39
4.98
3.25
1.60
0.33
-0.46
-0.90
-1.14
-1.28
-1.31
-1.11
-0.63
0.03
0.59
0.68
-0.01
-1.59
-3.89
-6.49
-8.84
-10.45
-11.04
-10.59
-9.23
-7.24
-4.79
-2.02
1.02
4.20
7.35
10.26
12.72
14.67
16.21
17.48
18.65
19.79
20.82
21.53
21.67
21.07
19.71
17.73
15.40
12.93
10.40
7.71
4.68
1.17
-2.80
-6.99
-11.04
-14.63
-17.62
-20.15
-22.43
-24.60
-26.64
-28.28
-29.18
-29.12
-28.14
-26.57
-24.84
-23.33
-22.20
-21.38
-20.68
-19.96
-19.24
-18.69
-18.49
-18.68
-19.07
-19.30
-18.96
-17.82
-15.97
-13.77
-11.63
-9.82
-8.30
-6.78
-4.95
-2.73
-0.37
1.65
2.97
3.56
3.80
4.31
5.51
7.45
9.71
11.64
12.80
13.08
12.80
12.46
12.47
12.89
13.52
13.98
13.95
13.34
12.26
11.01
9.80
8.77
7.90
7.09
6.22
5.30
4.42
3.74
3.36
3.24
3.17
2.89
2.21
1.13
-0.12
-1.24
-2.01
-2.42
-2.69
-3.14
-3.96
-5.17
-6.53
-7.69
-8.35
-8.40
-7.95
-7.23
-6.41
-5.55
-4.54
-3.20
-1.39
0.84
3.28
5.63
7.65
9.23
10.46
11.53
12.62
13.79
14.94
15.90
16.51
16.74
16.72
16.70
16.88
17.31
17.86
18.33
18.55
18.56
18.57
18.90
19.73
21.00
22.33
23.27
23.46
22.88
21.81
20.76
20.10
20.00
20.28
20.64
20.85
20.93
21.04
21.37
21.90
22.35
22.28
21.34
19.47
16.83
13.72
10.37
6.79
2.90
-1.37
-5.82
-10.06
-13.58
-16.02
-17.33
-17.83
-18.11
-18.76
-20.22
-22.52
-25.37
-28.24
-30.65
-32.37
-33.45
-34.11
-34.51
-34.57
-34.00
-32.43
-29.73
-26.15
-22.31
-18.92
-16.50
-15.16
-14.56
-14.10
-13.23
-11.68
-9.53
-7.12
-4.89
-3.10
-1.79
-0.79
0.07
0.86
1.43
1.58
1.18
0.32
-0.68
-1.46
-1.79
-1.71
-1.49
-1.45
-1.73
-2.24
-2.67
-2.73
-2.26
-1.34
-0.26
0.70
1.43
2.03
2.80
4.02
5.79
7.86
9.83
11.26
11.95
12.00
11.77
11.60
11.68
11.97
12.23
12.26
12.02
11.65
11.38
11.37
11.60
11.88
11.90
11.45
10.49
9.16
7.75
6.50
5.51
4.66
3.73
2.50
0.93
-0.87
-2.65
-4.19
-5.40
-6.37
-7.31
-8.37
-9.57
-10.79
-11.79
-12.35
-12.44
-12.18
-11.82
-11.56
-11.46
-11.39
-11.10
-10.39
-9.21
-7.68
-6.04
-4.46
-3.02
-1.64
-0.25
1.18
2.52
3.57
4.11
4.11
3.68
3.15
2.90
3.21
4.15
5.50
6.84
7.74
7.91
7.34
6.28
5.05
3.92
2.93
1.96
0.84
-0.48
-1.92
-3.32
-4.53
-5.55
-6.50
-7.55
-8.79
-10.17
-11.55
-12.77
-13.70
-14.31
-14.62
-14.64
-14.38
-13.80
-12.85
-11.50
-9.78
-7.80
-5.79
-3.96
-2.48
-1.35
-0.38
0.65
1.88
3.26
4.57
5.52
5.95
5.92
5.62
5.30
5.09
4.98
4.83
4.48
3.87
3.00
1.97
0.89
-0.13
-1.06
-1.93
-2.81
-3.74
-4.68
-5.51
-6.06
-6.23
-6.05
-5.73
-5.55
-5.77
-6.52
-7.71
-9.10
-10.36
-11.23
-11.56
-11.34
-10.66
-9.64
-8.30
-6.63
-4.58
-2.21
0.32
2.74
4.85
6.54
7.89
9.08
10.28
11.51
12.70
13.67
14.35
14.75
14.99
15.17
15.28
15.17
14.67
13.67
12.24
10.66
9.30
8.46
8.24
8.49
8.90
9.13
9.00
8.51
7.84
7.17
6.54
5.86
4.90
3.48
1.60
-0.54
-2.60
-4.32
-5.60
-6.62
-7.66
-8.94
-10.40
-11.73
-12.47
-12.29
-11.18
-9.48
-7.67
-6.11
-4.88
-3.75
-2.41
-0.67
1.37
3.40
5.03
6.04
6.51
6.71
7.00
7.53
8.24
8.85
9.10
8.92
8.50
8.16
8.16
8.51
8.91
8.92
8.18
6.68
4.77
2.98
1.76
1.26
1.24
1.20
0.76
-0.25
-1.62
-2.96
-3.93
-4.43
-4.66
-5.01
-5.80
-7.14
-8.83
-10.52
-11.85
-12.69
-13.15
-13.50
-13.99
-14.66
-15.25
-15.35
-14.53
-12.64
-9.84
-6.59
-3.41
-0.69
1.45
3.12
4.53
5.86
7.13
8.28
9.22
9.92
10.42
10.83
11.22
11.56
11.73
11.57
11.00
10.12
9.21
8.62
8.58
9.05
9.71
10.09
9.83
8.83
7.30
5.64
4.19
3.07
2.18
1.27
0.13
-1.24
-2.64
-3.81
-4.62
-5.13
-5.62
-6.41
-7.69
-9.36
-11.07
-12.37
-12.90
-12.58
-11.57
-10.20
-8.73
-7.26
-5.73
-4.03
-2.17
-0.30
1.30
2.40
2.95
3.13
3.27
3.66
4.39
5.27
5.93
6.09
5.66
4.84
4.00
3.46
3.38
3.62
3.92
4.02
3.81
3.37
2.89
2.57
2.44
2.41
2.28
1.86
1.08
0.00
-1.15
-2.11
-2.69
-2.85
-2.76
-2.70
-2.94
-3.59
-4.58
-5.67
-6.65
-7.40
-7.95
-8.37
-8.60
-8.42
-7.57
-5.87
-3.42
-0.60
2.09
4.24
5.72
6.69
7.49
8.37
9.40
10.38
11.03
11.15
10.75
10.05
9.35
8.90
8.73
8.70
8.54
8.03
7.09
5.82
4.40
3.07
1.95
1.06
0.35
-0.23
-0.65
-0.84
-0.77
-0.49
-0.21
-0.22
-0.69
-1.60
-2.72
-3.69
-4.22
-4.32
-4.25
-4.41
-5.13
-6.46
-8.10
-9.63
-10.64
-10.99
-10.81
-10.41
-10.04
-9.78
-9.48
-8.84
-7.62
-5.77
-3.48
-1.11
0.98
2.62
3.77
4.58
5.17
5.60
5.76
5.57
5.02
4.32
3.83
3.96
4.94
6.66
8.67
10.36
11.21
11.01
9.96
8.54
7.23
6.32
5.72
5.10
4.09
2.51
0.48
-1.66
-3.54
-4.96
-5.99
-6.89
-7.94
-9.28
-10.80
-12.29
-13.53
-14.51
-15.37
-16.34
-17.52
-18.78
-19.85
-20.34
-20.07
-19.01
-17.28
-15.01
-12.20
-8.70
-4.33
0.94
6.87
12.90
18.34
22.61
25.40
26.83
27.32
27.39
27.38
27.30
26.87
25.71
23.62
20.72
17.44
14.33
11.74
9.69
7.91
6.05
3.95
1.76
-0.13
-1.31
-1.66
-1.41
-1.07
-1.12
-1.80
-2.98
-4.28
-5.31
-5.94
-6.34
-6.91
-7.99
-9.66
-11.72
-13.74
-15.26
-16.01
-15.96
-15.26
-14.12
-12.76
-11.32
-9.85
-8.37
-6.91
-5.54
-4.36
-3.54
-3.17
-3.29
-3.76
-4.29
-4.58
-4.39
-3.73
-2.76
-1.71
-0.73
0.24
1.40
2.99
5.12
7.61
10.12
12.26
13.74
14.52
14.69
14.45
13.91
13.09
11.98
10.62
9.18
7.93
7.08
6.68
6.54
6.31
5.69
4.57
3.11
1.66
0.55
-0.06
-0.25
-0.26
-0.34
-0.57
-0.92
-1.21
-1.36
-1.34
-1.24
-1.16
-1.10
-0.99
-0.68
-0.08
0.80
1.87
2.95
3.87
4.51
4.85
4.98
5.05
5.19
5.42
5.64
5.68
5.37
4.66
3.71
2.76
2.03
1.61
1.35
0.99
0.32
-0.67
-1.80
-2.78
-3.39
-3.64
-3.75
-4.06
-4.78
-5.94
-7.32
-8.60
-9.49
-9.83
-9.63
-8.97
-7.89
-6.40
-4.49
-2.17
0.45
3.17
5.77
8.12
10.20
12.07
13.78
15.30
16.50
17.19
17.30
16.89
16.16
15.41
14.89
14.69
14.74
14.85
14.82
14.49
13.84
12.93
11.89
10.86
9.86
8.81
7.53
5.84
3.71
1.30
-1.05
-2.98
-4.31
-5.07
-5.53
-6.03
-6.79
-7.92
-9.30
-10.79
-12.27
-13.71
-15.11
-16.50
-17.85
-19.02
-19.88
-20.29
-20.24
-19.84
-19.30
-18.78
-18.35
-17.83
-16.90
-15.31
-13.09
-10.57
-8.30
-6.73
-5.98
-5.76
-5.54
-4.85
-3.53
-1.79
-0.04
1.36
2.26
2.74
2.90
2.76
2.14
0.83
-1.18
-3.65
-6.03
-7.76
-8.51
-8.41
-7.95
-7.77
-8.34
-9.72
-11.60
-13.51
-15.05
-16.04
-16.52
-16.64
-16.45
-15.92
-14.98
-13.58
-11.80
-9.86
-8.01
-6.49
-5.45
-4.85
-4.56
-4.26
-3.60
-2.23
0.01
3.06
6.67
10.49
14.18
17.56
20.56
23.17
25.33
26.97
28.04
28.62
28.91
29.19
29.69
30.35
30.86
30.75
29.61
27.30
24.07
20.42
16.93
13.95
11.57
9.61
7.84
6.18
4.65
3.41
2.54
2.01
1.69
1.44
1.28
1.38
1.99
3.31
5.30
7.69
10.01
11.70
12.41
11.98
10.54
8.35
5.71
2.79
-0.38
-3.81
-7.44
-10.99
-14.03
-16.06
-16.74
-16.08
-14.36
-12.12
-9.86
-7.96
-6.53
-5.57
-5.00
-4.79
-5.00
-5.63
-6.61
-7.66
-8.43
-8.59
-8.07
-7.05
-5.97
-5.30
-5.30
-5.97
-7.10
-8.37
-9.61
-10.80
-12.04
-13.46
-15.12
-16.99
-19.01
-21.08
-23.12
-25.04
-26.73
-28.05
-28.85
-29.04
-28.56
-27.38
-25.49
-22.94
-19.84
-16.37
-12.77
-9.28
-6.06
-3.22
-0.85
1.01
2.27
2.92
3.00
2.69
2.31
2.16
2.45
3.15
4.03
4.73
5.00
4.79
4.28
3.74
3.32
2.98
2.48
1.61
0.35
-1.03
-2.09
-2.44
-1.98
-0.97
0.12
0.87
1.05
0.74
0.15
-0.51
-1.18
-1.89
-2.72
-3.63
-4.44
-4.91
-4.79
-3.96
-2.50
-0.66
1.20
2.72
3.68
4.06
4.05
3.93
3.90
3.98
3.99
3.71
3.04
2.08
1.14
0.50
0.32
0.46
0.61
0.46
-0.16
-1.11
-2.06
-2.65
-2.65
-2.07
-1.09
0.03
1.15
2.31
3.66
5.35
7.32
9.26
10.80
11.60
11.63
11.16
10.67
10.54
10.90
11.56
12.12
12.24
11.80
10.90
9.78
8.61
7.34
5.79
3.77
1.30
-1.35
-3.73
-5.42
-6.29
-6.51
-6.47
-6.60
-7.11
-7.95
-8.90
-9.70
-10.26
-10.64
-10.99
-11.38
-11.67
-11.55
-10.64
-8.76
-6.00
-2.79
0.24
2.59
3.99
4.56
4.67
4.72
5.00
5.52
6.09
6.47
6.50
6.16
5.58
4.91
4.26
3.65
2.99
2.25
1.44
0.66
-0.01
-0.49
-0.82
-1.11
-1.48
-1.93
-2.35
-2.59
-2.49
-2.06
-1.51
-1.12
-1.18
-1.80
-2.86
-4.02
-4.91
-5.18
-4.72
-3.61
-2.10
-0.48
1.03
2.33
3.49
4.61
5.74
6.82
7.68
8.19
8.33
8.27
8.26
8.53
9.13
9.88
10.47
10.62
10.22
9.36
8.30
7.27
6.36
5.55
4.72
3.76
2.67
1.55
0.53
-0.30
-1.02
-1.84
-3.01
-4.70
-6.86
-9.23
-11.40
-13.03
-13.91
-14.08
-13.66
-12.77
-11.40
-9.48
-7.00
-4.12
-1.17
1.40
3.27
4.32
4.70
4.75
4.80
5.10
5.69
6.46
7.25
7.90
8.36
8.63
8.76
8.74
8.50
7.93
6.98
5.72
4.28
2.88
1.65
0.63
-0.25
-1.10
-2.01
-2.96
-3.84
-4.51
-4.83
-4.78
-4.53
-4.34
-4.50
-5.09
-5.95
-6.67
-6.84
-6.26
-5.03
-3.51
-2.09
-0.90
0.17
1.38
2.87
4.51
5.94
6.71
6.62
5.78
4.61
3.58
3.02
2.98
3.22
3.41
3.28
2.82
2.19
1.68
1.50
1.63
1.87
1.92
1.57
0.84
-0.09
-0.94
-1.53
-1.87
-2.19
-2.76
-3.75
-5.17
-6.79
-8.32
-9.54
-10.35
-10.82
-11.13
-11.38
-11.55
-11.45
-10.84
-9.53
-7.55
-5.14
-2.71
-0.62
0.94
1.99
2.76
3.42
4.08
4.71
5.17
5.43
5.57
5.79
6.30
7.14
8.13
8.92
9.13
8.61
7.46
6.04
4.85
4.19
4.06
4.18
4.12
3.62
2.68
1.63
0.87
0.66
0.96
1.40
1.50
0.96
-0.23
-1.79
-3.29
-4.37
-4.89
-4.91
-4.56
-3.97
-3.13
-2.02
-0.60
1.04
2.67
4.01
4.83
5.07
4.86
4.54
4.44
4.72
5.34
6.02
6.47
6.49
6.12
5.59
5.18
5.04
5.08
5.03
4.60
3.66
2.28
0.70
-0.83
-2.20
-3.43
-4.65
-5.88
-7.03
-7.86
-8.14
-7.80
-7.02
-6.19
-5.70
-5.77
-6.31
-6.96
-7.27
-6.92
-5.86
-4.30
-2.59
-1.03
0.24
1.32
2.45
3.86
5.61
7.61
9.58
11.27
12.46
13.07
13.14
12.73
11.87
10.59
8.93
7.05
5.16
3.53
2.33
1.54
0.99
0.39
-0.48
-1.71
-3.17
-4.66
-5.93
-6.85
-7.48
-7.99
-8.59
-9.41
-10.46
-11.61
-12.66
-13.43
-13.86
-14.01
-13.95
-13.75
-13.38
-12.68
-11.52
-9.82
-7.67
-5.28
-2.90
-0.69
1.27
3.04
4.70
6.22
7.51
8.44
8.92
9.05
9.05
9.15
9.54
10.20
10.96
11.52
11.62
11.07
9.88
8.22
6.33
4.49
2.85
1.45
0.24
-0.87
-1.92
-2.83
-3.40
-3.48
-3.02
-2.20
-1.30
-0.63
-0.36
-0.46
-0.76
-1.12
-1.53
-2.16
-3.21
-4.77
-6.67
-8.47
-9.68
-9.92
-9.12
-7.53
-5.48
-3.33
-1.20
0.88
2.91
4.83
6.45
7.57
8.09
8.14
7.98
7.96
8.31
9.06
10.02
10.89
11.43
11.53
11.27
10.80
10.28
9.74
9.05
8.02
6.49
4.47
2.13
-0.17
-2.11
-3.49
-4.32
-4.74
-4.94
-5.06
-5.07
-4.85
-4.28
-3.42
-2.51
-1.93
-1.98
-2.74
-3.96
-5.21
-6.02
-6.17
-5.77
-5.12
-4.55
-4.14
-3.75
-3.01
-1.67
0.27
2.45
4.34
5.44
5.57
4.92
4.00
3.32
3.18
3.54
4.06
4.36
4.21
3.67
3.01
2.52
2.37
2.54
2.84
3.10
3.22
3.21
3.15
3.03
2.78
2.24
1.32
0.05
-1.36
-2.63
-3.56
-4.12
-4.50
-4.95
-5.67
-6.68
-7.86
-8.96
-9.78
-10.22
-10.26
-9.92
-9.17
-7.97
-6.32
-4.36
-2.33
-0.55
0.74
1.47
1.76
1.86
2.02
2.41
3.01
3.67
4.16
4.35
4.26
4.05
4.01
4.32
5.04
5.96
6.75
7.08
6.83
6.13
5.30
4.68
4.42
4.43
4.46
4.23
3.61
2.68
1.66
0.81
0.25
-0.03
-0.27
-0.73
-1.62
-2.94
-4.50
-5.97
-7.09
-7.79
-8.21
-8.66
-9.32
-10.13
-10.73
-10.71
-9.81
-8.20
-6.34
-4.77
-3.84
-3.51
-3.47
-3.30
-2.75
-1.86
-0.93
-0.27
-0.07
-0.27
-0.58
-0.67
-0.35
0.35
1.18
1.87
2.27
2.41
2.48
2.68
3.06
3.47
3.70
3.54
3.03
2.32
1.71
1.37
1.37
1.59
1.83
1.93
1.79
1.44
0.96
0.45
-0.03
-0.52
-1.09
-1.79
-2.58
-3.26
-3.53
-3.14
-1.99
-0.25
1.69
3.37
4.47
4.94
4.96
4.86
4.92
5.27
5.85
6.47
6.96
7.21
7.25
7.17
7.07
7.02
7.01
7.05
7.12
7.23
7.41
7.56
7.53
7.08
6.06
4.49
2.55
0.56
-1.23
-2.79
-4.29
-6.04
-8.29
-11.06
-14.10
-17.02
-19.36
-20.79
-21.24
-20.83
-19.85
-18.66
-17.55
-16.66
-15.94
-15.17
-14.12
-12.64
-10.77
-8.62
-6.33
-3.97
-1.47
1.21
4.00
6.70
9.01
10.75
11.97
12.93
14.01
15.47
17.34
19.49
21.76
24.17
26.92
30.26
34.20
38.40
42.20
44.80
45.59
44.30
41.02
35.97
29.40
21.46
12.31
2.27
-8.09
-17.96
-26.54
-33.23
-37.73
-40.08
-40.53
-39.31
-36.60
-32.48
-27.05
-20.58
-13.65
-7.06
-1.70
1.82
3.50
3.97
4.29
5.53
8.27
12.33
16.88
20.84
23.29
23.91
22.89
20.91
18.72
17.03
16.29
16.61
17.67
18.58
17.96
14.35
6.89
-4.03
-16.61
-28.10
-35.86
-38.50
-36.47
-31.80
-27.13
-24.61
-25.25
-28.94
-34.86
-42.10
-49.89
-57.47
-63.96
-68.25
-69.26
-66.35
-59.62
-49.93
-38.73
-27.61
-17.97
-10.69
-6.00
-3.57
-2.63
-2.31
-1.99
-1.45
-0.92
-0.86
-1.65
-3.33
-5.54
-7.73
-9.31
-9.94
-9.60
-8.47
-6.88
-5.19
-3.75
-2.78
-2.34
-2.17
-1.80
-0.65
1.69
5.30
9.82
14.71
19.41
23.54
26.88
29.28
30.47
30.21
28.43
25.46
21.98
18.89
16.93
16.40
17.08
18.42
19.77
20.66
20.99
20.91
20.66
20.39
20.10
19.65
18.94
17.97
16.91
15.99
15.41
15.13
14.94
14.56
13.84
12.88
12.06
11.80
12.30
13.43
14.81
15.99
16.73
17.01
16.90
16.41
15.44
13.86
11.80
9.74
8.34
8.00
8.54
9.14
8.69
6.41
2.32
-2.70
-7.33
-10.44
-11.66
-11.42
-10.64
-10.29
-10.94
-12.59
-14.74
-16.56
-17.25
-16.35
-14.00
-10.97
-8.43
-7.36
-8.09
-10.16
-12.53
-14.19
-14.71
-14.38
-13.75
-13.20
-12.89
-13.20
-15.16
-20.13
-28.82
-40.10
-50.75
-56.54
-54.39
-44.17
-29.08
-14.18
-3.84
0.20
-0.78
-3.83
-6.40
-7.58
-8.12
-9.23
-11.35
-13.75
-15.01
-14.04
-10.68
-5.87
-1.14
2.21
3.64
3.45
2.53
1.84
2.00
3.07
4.65
6.04
6.64
6.16
4.73
2.89
1.30
0.42
0.33
0.65
0.80
0.34
-0.84
-2.47
-4.11
-5.39
-6.21
-6.73
-7.22
-7.86
-8.63
-9.28
-9.50
-9.05
-7.92
-6.27
-4.42
-2.66
-1.16
0.13
1.40
2.87
4.66
6.71
8.79
10.61
11.99
12.89
13.40
13.66
13.70
13.47
12.92
12.02
10.92
9.81
8.82
7.97
7.10
6.00
4.60
3.00
1.44
0.20
-0.59
-0.97
-1.11
-1.21
-1.35
-1.50
-1.60
-1.57
-1.40
-1.10
-0.67
-0.08
0.69
1.62
2.62
3.59
4.46
5.26
6.06
6.94
7.95
9.00
10.00
10.83
11.46
11.90
12.19
12.37
12.42
12.28
11.91
11.28
10.44
9.54
8.76
8.23
7.94
7.76
7.47
6.91
6.12
5.27
4.61
4.28
4.18
4.04
3.56
2.66
1.46
0.28
-0.58
-1.04
-1.22
-1.36
-1.64
-2.07
-2.47
-2.58
-2.19
-1.23
0.19
1.89
3.64
5.23
6.52
7.45
8.01
8.24
8.18
7.88
7.44
6.97
6.52
6.05
5.29
3.87
1.40
-2.16
-6.39
-10.32
-12.76
-12.79
-10.25
-5.84
-0.92
3.05
5.03
4.69
2.33
-1.38
-5.72
-10.11
-14.12
-17.48
-20.00
-21.68
-22.65
-23.22
-23.66
-24.12
-24.55
-24.73
-24.44
-23.50
-21.92
-19.74
-17.10
-14.14
-11.07
-8.12
-5.48
-3.22
-1.21
0.83
3.16
5.88
8.78
11.44
13.46
14.67
15.26
15.73
16.54
17.99
20.07
22.55
25.20
27.82
30.30
32.47
34.06
34.70
34.14
32.42
29.93
27.34
25.37
24.46
24.64
25.54
26.54
27.07
26.83
25.84
24.35
22.66
20.94
19.21
17.39
15.54
13.86
12.68
12.29
12.78
13.97
15.53
17.16
18.65
19.95
20.99
21.62
21.54
20.40
17.96
14.24
9.56
4.41
-0.73
-5.59
-10.11
-14.37
-18.39
-21.96
-24.74
-26.40
-26.92
-26.62
-26.07
-25.85
-26.22
-27.02
-27.83
-28.19
-27.85
-26.89
-25.60
-24.27
-23.06
-21.93
-20.72
-19.28
-17.52
-15.48
-13.25
-10.97
-8.79
-6.80
-5.03
-3.46
-2.08
-0.90
0.03
0.68
1.14
1.68
2.73
4.76
8.03
12.44
17.50
22.47
26.75
30.21
33.28
36.71
41.15
46.76
53.08
59.22
64.30
67.64
68.81
67.39
63.01
55.66
45.97
35.39
25.67
18.10
12.88
9.10
5.37
0.83
-4.23
-8.45
-10.17
-8.38
-3.33
3.56
10.28
15.04
16.82
15.50
11.69
6.40
0.68
-4.69
-9.13
-12.16
-13.28
-11.96
-7.97
-1.69
5.84
13.09
18.74
22.09
23.37
23.38
23.02
22.88
23.08
23.56
24.30
25.42
26.99
28.70
29.71
28.80
24.82
17.17
6.11
-7.27
-21.43
-34.85
-46.47
-55.82
-62.87
-67.78
-70.49
-70.71
-68.08
-62.55
-54.66
-45.58
-36.77
-29.51
-24.50
-21.74
-20.83
-21.24
-22.54
-24.28
-25.81
-26.34
-25.13
-22.00
-17.65
-13.49
-11.10
-11.44
-14.40
-18.90
-23.40
-26.72
-28.48
-29.15
-29.56
-30.39
-31.82
-33.54
-35.14
-36.34
-37.23
-38.12
-39.25
-40.63
-42.00
-43.06
-43.66
-43.94
-44.25
-44.94
-46.15
-47.59
-48.51
-47.86
-44.54
-37.79
-27.66
-15.17
-2.19
9.14
17.07
20.87
21.05
19.06
16.61
14.99
14.69
15.38
16.43
17.43
18.63
20.71
24.39
29.71
35.86
41.34
44.62
44.80
41.98
37.04
31.15
25.19
19.61
14.54
10.15
6.75
4.74
4.26
4.96
6.05
6.58
5.89
3.83
0.88
-2.10
-4.22
-4.86
-3.96
-1.96
0.44
2.57
4.02
4.83
5.34
5.98
7.06
8.54
10.14
11.55
12.56
13.23
13.87
14.83
16.33
18.24
20.16
21.53
21.81
20.67
18.08
14.24
9.54
4.45
-0.50
-4.86
-8.31
-10.75
-12.30
-13.35
-14.41
-15.97
-18.27
-21.23
-24.45
-27.39
-29.51
-30.54
-30.45
-29.51
-28.07
-26.49
-24.97
-23.51
-22.06
-20.58
-19.19
-18.04
-17.21
-16.55
-15.61
-13.86
-10.95
-7.04
-2.72
1.11
3.82
5.26
5.88
6.41
7.48
9.28
11.58
14.01
16.41
18.96
22.04
25.88
30.28
34.60
38.00
39.90
40.24
39.51
38.48
37.77
37.48
37.15
35.92
33.00
28.03
21.38
13.95
6.94
1.30
-2.48
-4.44
-5.00
-4.68
-3.94
-3.16
-2.68
-2.87
-4.07
-6.39
-9.61
-13.11
-16.07
-17.77
-17.78
-16.17
-13.28
-9.58
-5.41
-0.93
3.86
8.97
14.47
20.41
26.84
33.48
39.55
43.59
43.89
39.35
30.23
18.47
7.00
-1.58
-6.24
-7.86
-8.48
-9.97
-12.96
-16.79
-20.24
-22.61
-24.21
-25.98
-28.73
-32.44
-36.26
-39.20
-40.56
-40.14
-37.83
-33.18
-25.25
-13.15
3.21
22.54
42.15
58.61
68.77
70.80
64.73
52.51
37.52
23.83
15.37
14.74
22.94
39.06
60.44
83.22
102.85
115.52
119.21
114.05
101.78
85.36
68.11
52.96
42.00
35.89
34.40
36.83
42.32
49.28
56.49
63.58
71.10
80.49
92.56
107.87
126.57
147.87
168.15
183.71
192.48
194.60
192.59
187.17
178.67
167.30
152.78
130.92
98.93
57.74
11.98
-30.74
-68.50
-101.64
-131.10
-158.69
-192.11
-236.81
-292.44
-352.94
-407.41
-453.88
-493.52
-528.00
-559.70
-597.88
-648.37
-709.45
-772.70
-824.52
-863.83
-893.89
-917.95
-887.05
-774.52
-593.27
-390.85
-243.84
-148.70
-89.69
-52.32
-16.49
27.25
75.11
120.62
160.11
195.03
233.70
275.53
318.82
362.96
406.23
440.85
460.86
466.18
463.19
464.07
472.93
490.94
518.08
551.65
583.50
605.04
610.49
598.67
574.26
539.96
499.58
457.89
418.54
382.09
348.24
317.35
290.96
271.62
258.28
248.07
237.48
223.23
203.05
176.71
145.95
113.71
83.58
57.92
38.43
25.96
19.80
17.34
14.12
4.98
-14.29
-45.68
-88.66
-140.73
-198.21
-256.65
-310.75
-354.69
-383.52
-395.10
-391.42
-378.23
-362.70
-350.28
-342.75
-338.24
-333.55
-327.02
-320.05
-316.76
-322.22
-340.46
-373.06
-418.53
-472.15
-526.18
-570.81
-596.20
-595.20
-565.77
-511.56
-440.45
-361.47
-281.91
-205.86
-134.48
-67.37
-3.95
56.11
113.43
169.22
224.79
280.23
333.27
379.16
412.40
429.01
428.73
415.39
395.36
374.79
357.44
343.88
332.60
321.77
310.71
300.15
291.35
285.01
280.75
277.39
273.83
269.71
265.57
262.57
261.75
263.58
267.60
272.39
275.83
275.43
268.87
254.60
232.48
203.91
171.71
139.20
109.29
83.59
62.25
44.29
28.31
12.98
-2.84
-20.16
-40.05
-63.47
-90.90
-122.16
-156.40
-192.68
-230.45
-269.58
-309.84
-349.97
-387.05
-416.78
-434.50
-436.66
-422.10
-392.86
-354.19
-313.97
-281.24
-263.98
-266.64
-288.29
-322.36
-358.54
-385.99
-396.77
-387.88
-361.08
-320.78
-271.67
-216.82
-157.26
-92.96
-24.22
47.51
119.49
188.30
250.65
303.74
345.30
373.59
387.69
388.09
377.22
359.31
339.36
321.55
308.03
298.64
291.92
286.56
282.28
279.50
278.14
276.50
271.15
258.20
235.20
202.23
161.75
117.33
72.14
28.01
-14.33
-54.40
-91.30
-123.40
-148.97
-166.87
-177.13
-180.94
-180.18
-176.70
-171.82
-166.05
-159.27
-151.01
-140.91
-129.00
-115.81
-102.25
-89.20
-77.15
-65.91
-54.66
-42.42
-28.72
-14.10
-0.32
10.22
15.27
13.70
5.96
-6.02
-19.47
-31.76
-40.98
-46.27
-47.63
-45.59
-40.88
-34.32
-26.83
-19.40
-13.09
-8.79
-6.93
-7.30
-9.02
-10.73
-10.98
-8.75
-3.78
3.30
11.29
18.79
24.70
28.40
29.68
28.58
25.17
19.67
12.63
5.15
-1.38
-5.58
-6.75
-5.20
-2.23
0.25
0.43
-2.86
-9.87
-19.94
-31.85
-44.26
-56.00
-66.26
-74.58
-80.69
-84.54
-86.19
-86.04
-84.80
-83.51
-83.33
-85.22
-89.66
-96.50
-104.99
-114.01
-122.42
-129.19
-133.54
-134.86
-132.64
-126.41
-115.85
-100.83
-81.71
-59.40
-35.32
-11.13
11.76
32.57
51.27
68.32
84.17
98.82
111.72
122.15
129.75
134.89
138.53
141.58
144.27
145.91
145.30
141.57
134.85
126.28
117.35
109.02
101.06
92.25
81.18
67.14
50.71
33.50
17.51
4.37
-5.16
-11.08
-13.85
-14.01
-11.99
-8.15
-2.88
3.28
9.64
15.50
20.30
23.81
26.13
27.72
29.28
31.52
35.07
40.33
47.39
56.04
65.67
75.24
83.31
88.27
88.82
84.49
75.98
65.05
53.94
44.53
37.72
33.22
29.98
26.79
22.95
18.36
13.33
8.17
2.95
-2.50
-8.36
-14.59
-20.98
-27.28
-33.51
-39.99
-47.20
-55.49
-64.81
-74.63
-84.12
-92.38
-98.65
-102.38
-103.19
-100.83
-95.16
-86.33
-74.91
-61.93
-48.75
-36.72
-26.86
-19.50
-14.32
-10.49
-7.15
-3.78
-0.47
2.15
3.27
2.40
-0.25
-3.71
-6.56
-7.64
-6.54
-3.84
-0.84
1.07
1.14
-0.40
-2.48
-3.66
-2.78
0.65
6.38
13.71
21.74
29.65
36.75
42.43
46.14
47.45
46.13
42.29
36.43
29.31
21.89
15.01
9.26
4.90
1.83
-0.28
-1.75
-2.73
-3.17
-2.87
-1.68
0.29
2.65
4.78
6.09
6.25
5.41
4.16
3.40
3.96
6.27
10.10
14.56
18.39
20.44
20.00
17.11
12.49
7.31
2.79
-0.08
-0.79
0.71
4.05
8.57
13.44
17.81
20.91
22.24
21.74
19.78
17.10
14.48
12.47
11.17
10.25
9.27
8.02
6.78
6.22
7.13
10.02
14.85
21.11
28.15
35.43
42.73
50.05
57.36
64.36
70.51
75.19
78.02
79.11
79.04
78.50
77.95
77.21
75.49
71.76
65.27
56.02
44.91
33.38
22.89
14.40
8.09
3.43
-0.57
-4.99
-10.69
-18.14
-27.28
-37.57
-48.06
-57.69
-65.53
-71.06
-74.24
-75.35
-74.85
-73.19
-70.71
-67.74
-64.70
-62.08
-60.37
-59.79
-60.13
-60.70
-60.58
-58.96
-55.45
-50.39
-44.54
-38.84
-33.91
-29.79
-26.05
-22.11
-17.63
-12.72
-7.80
-3.35
0.41
3.51
6.07
8.05
9.10
8.82
7.00
3.99
0.68
-1.86
-2.86
-2.24
-0.54
1.30
2.54
2.90
2.66
2.45
2.86
4.23
6.43
8.92
10.91
11.69
10.89
8.69
5.77
2.94
0.78
-0.76
-2.21
-4.28
-7.43
-11.57
-16.23
-20.90
-25.43
-30.10
-35.34
-41.29
-47.54
-53.17
-57.16
-58.87
-58.27
-55.95
-52.75
-49.47
-46.47
-43.62
-40.41
-36.21
-30.61
-23.68
-15.97
-8.46
-2.16
2.14
4.21
4.31
3.12
1.43
-0.11
-1.08
-1.32
-0.87
0.17
1.61
3.32
5.23
7.38
10.00
13.48
18.22
24.52
32.34
41.26
50.54
59.31
66.82
72.57
76.32
77.96
77.45
74.80
70.21
64.20
57.60
51.38
46.25
42.40
39.42
36.46
32.77
28.01
22.43
16.70
11.64
7.82
5.49
4.59
4.80
5.65
6.55
6.80
5.83
3.39
-0.17
-4.01
-7.08
-8.57
-8.19
-6.26
-3.50
-0.66
1.68
3.17
3.55
2.61
0.20
-3.61
-8.34
-13.16
-17.07
-19.22
-19.30
-17.60
-14.90
-12.18
-10.20
-9.27
-9.28
-9.86
-10.67
-11.70
-13.13
-15.21
-18.00
-21.24
-24.39
-26.86
-28.24
-28.40
-27.55
-26.04
-24.30
-22.67
-21.43
-20.67
-20.34
-20.08
-19.39
-17.58
-14.09
-8.78
-2.04
5.18
11.55
15.79
17.03
15.01
10.14
3.29
-4.44
-11.93
-18.20
-22.50
-24.43
-24.05
-21.91
-18.91
-16.04
-14.03
-13.14
-13.16
-13.55
-13.77
-13.54
-12.94
-12.33
-12.11
-12.52
-13.39
-14.25
-14.48
-13.57
-11.39
-8.15
-4.29
-0.22
3.78
7.66
11.41
14.95
18.11
20.67
22.43
23.17
22.48
19.65
13.86
4.65
-7.55
-21.25
-34.20
-44.24
-50.05
-51.46
-49.22
-44.35
-37.65
-29.60
-20.68
-11.64
-3.56
2.60
6.58
9.07
11.46
15.19
21.06
28.77
37.16
44.73
50.26
53.13
53.34
51.17
46.96
41.01
33.76
26.03
19.05
14.10
11.99
12.68
15.24
18.42
21.46
24.41
27.97
32.67
38.17
42.96
44.95
42.41
34.84
23.24
9.55
-4.14
-16.40
-26.76
-35.33
-42.38
-48.00
-52.01
-54.24
-54.80
-54.15
-52.99
-51.90
-51.09
-50.37
-49.31
-47.61
-45.33
-42.90
-40.95
-40.00
-40.16
-41.17
-42.46
-43.49
-43.85
-43.43
-42.38
-41.00
-39.55
-38.14
-36.69
-34.99
-32.79
-30.06
-27.06
-24.30
-22.28
-21.32
-21.30
-21.60
-21.26
-19.21
-14.69
-7.46
2.04
12.81
23.49
32.77
39.67
43.81
45.41
45.08
43.40
40.63
36.50
30.41
21.82
10.84
-1.44
-13.10
-21.95
-26.45
-26.43
-23.18
-18.82
-15.35
-13.77
-13.73
-14.06
-13.58
-11.78
-9.12
-6.46
-4.41
-2.98
-1.51
0.73
4.06
8.22
12.72
17.38
22.54
28.71
35.94
43.52
50.17
54.86
57.46
58.71
59.37
59.16
56.31
48.28
33.32
11.97
-12.65
-35.91
-53.74
-64.22
-67.90
-66.87
-63.15
-57.51
-49.57
-38.79
-25.37
-10.58
3.93
16.74
27.09
34.38
37.56
35.53
28.59
20.03
16.19
24.01
46.58
79.57
111.51
128.70
122.63
95.62
60.83
35.78
33.16
54.36
89.58
124.24
147.45
157.23
159.42
161.99
169.04
178.71
185.86
186.66
181.51
174.07
167.57
161.67
152.56
136.32
112.74
86.65
65.48
54.63
54.35
59.95
65.27
66.59
64.37
61.82
61.70
63.80
64.85
60.55
48.17
28.02
3.14
-22.42
-45.26
-63.46
-76.64
-85.54
-91.73
-97.43
-105.13
-116.70
-132.35
-149.95
-165.42
-174.07
-172.39
-159.71
-138.57
-114.00
-91.74
-76.35
-69.89
-71.59
-78.54
-87.00
-93.93
-97.89
-99.23
-99.59
-101.00
-105.03
-112.19
-121.63
-131.14
-137.50
-137.19
-127.53
-107.88
-80.46
-50.06
-22.53
-2.79
6.99
7.83
3.12
-3.24
-8.55
-12.16
-14.98
-18.15
-21.90
-24.97
-25.15
-20.33
-9.68
5.93
24.23
42.48
58.20
69.80
76.64
78.75
76.52
70.51
61.37
49.72
35.87
19.72
0.78
-21.34
-46.55
-74.04
-102.49
-130.64
-157.31
-181.15
-200.21
-212.12
-215.20
-209.84
-199.18
-188.12
-181.19
-180.15
-183.23
-186.47
-186.62
-183.62
-180.79
-182.42
-190.35
-201.68
-209.18
-204.39
-181.45
-139.48
-82.57
-17.57
48.66
111.08
166.86
214.73
253.91
283.66
303.54
314.02
316.83
314.92
311.64
309.67
310.00
311.62
312.11
308.64
299.03
282.15
257.81
226.27
188.25
145.19
99.72
55.69
17.43
-11.55
-29.51
-36.67
-34.61
-25.29
-10.69
7.04
25.27
40.99
51.63
56.17
55.73
53.19
51.96
54.45
61.08
70.19
78.80
83.78
82.95
75.86
63.95
50.00
37.23
28.01
23.03
21.16
20.16
17.72
12.11
2.28
-12.57
-33.16
-59.75
-91.30
-125.03
-156.89
-183.03
-201.42
-212.79
-220.10
-226.92
-235.65
-246.41
-257.09
-264.29
-264.71
-256.29
-238.82
-214.07
-185.28
-155.98
-128.69
-103.95
-80.42
-56.13
-30.13
-3.64
20.24
38.16
48.46
52.21
52.75
53.93
58.35
66.48
77.12
88.53
99.40
109.06
117.03
122.54
124.56
122.31
115.81
106.03
94.44
82.37
70.52
59.09
48.17
38.19
29.93
24.11
20.97
19.97
19.98
19.76
18.43
15.83
12.54
9.62
8.29
9.42
13.18
18.78
24.62
28.76
29.64
26.58
20.00
11.08
1.16
-8.72
-18.01
-26.34
-33.25
-37.94
-39.45
-37.05
-30.73
-21.48
-11.02
-1.31
6.28
11.48
15.25
19.11
24.18
30.37
36.10
39.11
37.58
31.18
21.15
9.52
-2.00
-12.84
-23.44
-34.41
-45.72
-56.51
-65.73
-72.90
-78.55
-83.75
-89.37
-95.43
-101.17
-105.74
-109.01
-111.90
-115.85
-121.89
-129.75
-137.63
-142.72
-142.36
-135.11
-121.30
-102.94
-82.82
-63.57
-46.85
-33.10
-21.83
-12.23
-3.66
4.24
11.75
19.40
28.00
38.36
50.85
65.04
79.74
93.36
104.47
112.13
116.08
116.69
114.63
110.72
105.64
99.94
94.02
88.20
82.75
78.01
74.20
71.42
69.47
67.81
65.75
62.73
58.63
53.84
49.16
45.31
42.65
40.92
39.45
37.46
34.46
30.34
25.35
19.84
14.01
7.89
1.52
-4.94
-11.18
-16.82
-21.71
-25.88
-29.56
-32.89
-35.76
-37.80
-38.62
-38.04
-36.30
-34.05
-32.07
-30.95
-30.84
-31.48
-32.34
-32.90
-32.83
-32.14
-31.10
-30.10
-29.46
-29.28
-29.42
-29.65
-29.71
-29.41
-28.67
-27.54
-26.16
-24.86
-23.98
-23.86
-24.62
-26.09
-27.92
-29.77
-31.49
-33.22
-35.22
-37.68
-40.47
-43.15
-45.16
-46.10
-45.97
-45.13
-44.08
-43.19
-42.50
-41.72
-40.40
-38.18
-34.96
-30.93
-26.39
-21.66
-16.89
-12.08
-7.06
-1.62
4.46
11.42
19.56
29.19
40.61
53.95
68.88
84.55
99.53
112.15
120.93
125.04
124.70
121.13
116.24
111.91
109.30
108.45
108.42
107.89
105.81
101.85
96.30
89.63
82.07
73.49
63.69
52.91
42.00
32.19
24.40
18.68
14.05
9.00
2.30
-6.38
-16.35
-26.41
-35.54
-43.31
-49.84
-55.42
-60.08
-63.53
-65.36
-65.41
-64.07
-62.22
-60.86
-60.76
-62.24
-65.17
-69.10
-73.46
-77.62
-81.01
-83.23
-84.21
-84.25
-83.85
-83.40
-82.79
-81.43
-78.60
-73.99
-68.07
-61.93
-56.80
-53.31
-51.17
-49.38
-46.77
-42.67
-37.12
-30.71
-24.13
-17.78
-11.64
-5.44
0.93
7.35
13.42
18.74
23.14
26.80
30.17
33.73
37.76
42.16
46.48
50.12
52.66
54.00
54.40
54.24
53.77
52.97
51.54
49.20
45.79
41.49
36.71
31.92
27.45
23.34
19.42
15.39
11.01
6.23
1.19
-3.81
-8.50
-12.65
-16.19
-19.21
-21.96
-24.78
-27.99
-31.67
-35.55
-38.91
-40.64
-39.53
-34.50
-24.87
-10.73
6.92
26.10
44.30
59.14
69.11
74.08
75.22
74.30
72.78
71.14
68.89
65.11
59.25
51.62
43.31
35.64
29.48
25.04
21.99
19.92
18.64
18.25
18.89
20.42
22.21
23.27
22.64
19.78
14.91
8.95
3.27
-0.71
-1.99
-0.18
4.44
11.17
19.09
27.33
35.15
42.00
47.45
51.19
53.11
53.34
52.22
50.19
47.66
44.84
41.78
38.41
34.62
30.44
25.96
21.40
17.00
13.04
9.71
7.18
5.52
4.78
4.87
5.59
6.62
7.55
7.90
7.39
6.01
4.12
2.36
1.50
2.21
4.80
9.00
13.83
17.85
19.58
18.31
14.56
10.02
6.76
6.05
7.74
10.09
11.05
9.43
5.72
1.81
-0.20
0.98
5.28
11.45
17.64
21.84
22.24
17.73
8.49
-3.63
-15.31
-23.00
-24.47
-20.00
-12.21
-4.68
-0.08
0.91
-0.52
-2.49
-3.78
-4.25
-4.47
-4.80
-4.95
-4.27
-2.17
1.01
4.27
6.24
5.89
3.11
-1.28
-5.89
-9.23
-10.28
-8.73
-5.05
-0.18
4.70
8.49
10.18
9.03
4.50
-3.50
-14.48
-27.29
-40.22
-51.39
-59.24
-63.03
-62.93
-59.84
-54.91
-49.14
-43.07
-36.96
-30.88
-24.99
-19.51
-14.62
-10.34
-6.48
-2.82
0.80
4.29
7.39
9.88
11.71
13.08
14.32
15.63
16.95
17.88
17.82
16.14
12.46
6.72
-0.73
-9.18
-17.77
-25.67
-32.36
-37.68
-41.79
-44.93
-47.18
-48.46
-48.62
-47.71
-46.07
-44.23
-42.67
-41.52
-40.57
-39.40
-37.76
-35.79
-34.00
-32.99
-33.10
-34.25
-35.95
-37.54
-38.45
-38.30
-36.87
-33.96
-29.37
-23.00
-15.09
-6.43
1.60
7.38
9.52
7.47
1.76
-6.13
-14.23
-20.78
-24.76
-26.08
-25.31
-23.20
-20.29
-16.84
-13.08
-9.40
-6.41
-4.68
-4.37
-4.99
-5.61
-5.40
-4.18
-2.72
-2.36
-4.43
-9.58
-17.47
-26.90
-36.31
-44.26
-49.73
-52.27
-51.90
-49.04
-44.27
-38.18
-31.25
-23.76
-15.85
-7.78
-0.06
6.53
11.14
13.40
13.81
13.82
15.31
19.77
27.52
37.43
47.45
55.51
60.37
62.04
61.43
59.64
57.41
54.83
51.66
47.76
43.31
38.77
34.67
31.36
28.94
27.41
26.76
27.01
28.08
29.72
31.46
32.70
32.90
31.81
29.61
26.92
24.55
23.31
23.62
25.37
27.94
30.37
31.85
31.95
30.74
28.66
26.24
23.78
21.36
18.84
16.21
13.68
11.71
10.76
11.02
12.15
13.30
13.47
11.96
8.72
4.42
0.18
-2.95
-4.47
-4.56
-3.91
-3.31
-3.30
-4.01
-5.20
-6.55
-7.84
-9.11
-10.53
-12.24
-14.21
-16.22
-17.97
-19.26
-20.15
-20.95
-22.09
-23.81
-25.96
-28.11
-29.67
-30.29
-30.04
-29.43
-29.11
-29.40
-30.08
-30.42
-29.43
-26.37
-21.16
-14.45
-7.45
-1.35
3.12
6.08
8.46
11.59
16.54
23.57
31.93
40.20
46.80
50.58
51.04
48.25
42.45
33.84
22.56
9.06
-5.70
-20.32
-33.19
-43.05
-49.39
-52.47
-53.01
-51.71
-48.95
-44.86
-39.52
-33.29
-26.95
-21.52
-17.82
-16.06
-15.68
-15.58
-14.58
-11.96
-7.86
-3.10
1.10
3.75
4.52
3.88
2.86
2.64
4.06
7.35
12.10
17.54
22.76
27.09
30.33
32.70
34.54
36.00
36.89
36.75
35.06
31.51
26.31
20.27
14.49
9.96
7.17
6.11
6.33
7.11
7.32
5.98
2.53
-2.85
-9.31
-15.36
-19.28
-19.76
-16.57
-11.28
-6.11
-2.71
-1.54
-1.89
-2.53
-2.20
0.05
4.89
11.72
19.46
26.59
30.98
30.13
22.50
8.93
-7.16
-21.40
-32.01
-40.22
-48.97
-60.73
-75.61
-90.52
-100.42
-101.16
-85.67
-54.38
-16.11
17.61
40.27
51.99
56.17
56.15
52.96
46.73
37.06
24.74
12.88
4.85
2.31
4.71
10.12
16.31
21.63
24.41
24.00
21.30
18.10
16.16
16.43
18.93
22.92
27.42
31.05
33.02
33.67
34.12
35.63
39.10
44.73
51.82
58.82
63.48
63.99
59.92
52.53
44.10
36.84
31.85
28.63
25.58
20.82
13.30
3.18
-8.55
-20.90
-33.42
-46.17
-59.21
-72.04
-83.52
-92.17
-96.75
-96.80
-92.82
-86.13
-78.44
-71.30
-65.66
-61.63
-58.58
-55.58
-51.87
-47.21
-41.95
-36.70
-31.99
-28.03
-24.70
-21.82
-19.29
-17.21
-15.63
-14.54
-13.67
-12.72
-11.50
-10.01
-8.48
-7.16
-6.18
-5.50
-4.97
-4.46
-3.94
-3.46
-3.08
-2.82
-2.60
-2.36
-2.08
-1.85
-1.78
-1.94
-2.21
-2.38
-2.23
-1.69
-0.90
-0.19
0.08
-0.30
-1.25
-2.48
-3.56
-4.12
-4.02
-3.33
-2.29
-1.12
0.07
1.31
2.72
4.35
6.07
7.64
8.77
9.35
9.51
9.59
9.94
10.69
11.63
12.32
12.24
11.17
9.28
7.08
5.23
4.27
4.36
5.28
6.55
7.59
7.94
7.33
5.64
3.05
0.02
-2.83
-4.92
-5.88
-5.63
-4.31
-2.08
0.83
4.33
8.33
12.51
16.31
19.04
20.12
19.50
17.65
15.25
13.18
12.16
12.36
13.29
13.90
12.95
9.68
3.87
-4.57
-15.02
-26.20
-36.85
-45.89
-52.60
-56.68
-57.72
-55.87
-52.72
-49.66
-47.14
-45.15
-43.31
-41.06
-38.02
-33.36
-26.76
-19.94
-14.05
-8.65
-2.83
4.56
14.29
26.32
40.71
56.75
71.37
82.91
92.13
100.45
109.09
118.23
119.85
107.88
92.31
78.74
66.52
57.35
52.54
52.14
54.85
58.52
62.21
65.50
66.42
64.11
59.26
52.37
43.73
33.65
22.64
12.37
4.48
-1.48
-6.05
-9.40
-12.16
-15.08
-18.68
-23.06
-27.31
-30.39
-32.48
-33.79
-34.24
-34.14
-33.99
-34.29
-35.33
-36.81
-38.19
-39.40
-40.28
-40.65
-40.59
-40.32
-40.02
-39.73
-39.22
-38.33
-37.29
-36.40
-35.80
-35.34
-34.66
-33.33
-31.17
-28.45
-25.66
-23.21
-21.21
-19.34
-17.23
-14.72
-12.07
-9.71
-7.97
-6.79
-5.75
-4.32
-2.24
0.33
2.88
4.85
5.94
6.25
6.11
5.92
5.91
6.04
6.07
5.67
4.62
2.97
0.98
-0.93
-2.41
-3.17
-2.98
-1.68
0.76
4.24
8.57
13.41
18.36
23.07
27.51
32.11
37.46
43.64
49.94
54.95
56.90
54.34
46.88
35.80
24.01
14.91
10.89
12.54
18.68
26.87
34.24
38.27
37.45
31.54
21.12
6.90
-10.09
-28.21
-44.29
-53.94
-54.82
-48.51
-38.99
-29.90
-23.43
-21.02
-21.96
-25.52
-31.27
-38.95
-48.12
-57.87
-65.71
-70.16
-70.82
-68.15
-63.39
-57.89
-52.76
-48.40
-44.54
-40.69
-36.84
-33.28
-30.16
-27.32
-24.19
-20.11
-14.59
-7.52
0.77
9.36
17.36
24.23
29.69
33.71
36.24
37.32
37.19
36.44
35.66
35.40
35.89
36.98
38.30
39.51
40.46
41.19
41.78
42.07
41.66
40.14
37.26
33.09
28.02
22.60
17.28
12.25
7.45
2.74
-1.90
-6.30
-10.08
-12.91
-14.65
-15.52
-16.02
-16.76
-18.13
-20.19
-22.69
-25.12
-26.97
-27.76
-27.13
-24.88
-21.00
-15.83
-10.10
-4.90
-1.32
-0.11
-1.34
-4.35
-7.98
-11.14
-13.13
-13.81
-13.37
-12.02
-9.79
-6.52
-2.18
2.89
7.97
12.17
14.89
16.08
16.26
16.24
16.63
17.63
18.97
20.14
20.76
20.75
20.30
19.71
19.13
18.50
17.56
16.07
13.97
11.41
8.62
5.82
3.02
0.06
-3.33
-7.35
-11.93
-16.69
-21.04
-24.38
-26.31
-26.90
-26.65
-26.29
-26.45
-27.36
-28.67
-29.56
-29.07
-26.52
-21.80
-15.48
-8.61
-2.28
2.66
5.95
7.84
8.88
9.60
10.28
10.93
11.42
11.65
11.69
11.70
11.78
11.83
11.59
10.82
9.54
8.10
7.19
7.49
9.40
12.77
16.93
21.04
24.44
26.92
28.75
30.39
32.19
34.20
36.20
37.93
39.27
40.23
40.85
41.01
40.42
38.81
36.11
32.69
29.14
25.95
23.18
20.46
17.11
12.61
6.85
0.24
-6.48
-12.49
-17.09
-19.87
-20.79
-20.21
-18.83
-17.44
-16.71
-16.87
-17.59
-18.16
-17.74
-15.73
-12.06
-7.16
-1.72
3.52
7.98
11.32
13.34
14.07
13.71
12.71
11.64
10.97
10.83
10.93
10.63
9.15
5.94
1.02
-5.05
-11.30
-16.75
-20.83
-23.47
-25.09
-26.25
-27.29
-28.16
-28.46
-27.63
-25.38
-21.93
-17.87
-14.01
-10.92
-8.74
-7.20
-5.84
-4.31
-2.44
-0.28
2.14
4.79
7.63
10.45
12.79
14.02
13.63
11.45
7.87
3.76
0.09
-2.35
-3.34
-3.25
-2.91
-3.32
-5.29
-9.10
-14.47
-20.59
-26.34
-30.63
-32.72
-32.41
-30.07
-26.57
-22.93
-20.07
-18.52
-18.30
-18.88
-19.33
-18.55
-15.64
-10.27
-2.86
5.49
13.33
19.39
22.94
23.92
22.84
20.58
18.11
16.32
15.77
16.52
18.02
19.16
18.73
15.95
10.75
3.87
-3.61
-10.62
-16.41
-20.55
-22.80
-23.03
-21.20
-17.55
-12.72
-7.54
-2.81
0.97
3.64
5.30
6.19
6.59
6.77
6.98
7.44
8.27
9.50
11.05
12.83
14.74
16.63
18.22
19.20
19.29
18.42
16.80
14.68
12.31
9.90
7.68
5.90
4.86
4.83
5.92
8.07
10.79
13.29
15.00
15.90
16.53
17.69
20.03
23.71
28.23
32.38
34.80
34.91
33.44
32.06
32.49
35.64
41.19
47.65
52.71
54.01
50.09
40.79
26.92
10.01
-7.61
-23.92
-33.99
-33.11
-21.58
-5.56
6.52
8.17
-2.67
-23.26
-47.71
-71.20
-90.38
-103.87
-111.66
-114.25
-112.27
-106.57
-98.47
-87.69
-75.98
-65.47
-58.00
-54.23
-53.47
-54.08
-54.31
-53.03
-49.99
-46.01
-42.18
-39.45
-38.13
-37.80
-37.63
-37.01
-35.68
-33.67
-31.17
-28.06
-23.95
-18.51
-11.59
-3.38
5.77
15.61
26.04
36.78
47.30
56.61
63.48
67.00
67.08
64.54
60.67
56.65
52.91
49.39
45.73
41.81
37.91
34.60
32.31
30.99
30.02
28.53
25.86
22.01
17.69
14.07
12.26
12.84
15.60
19.64
23.74
26.83
28.31
28.16
26.90
25.35
24.42
24.83
26.79
29.80
32.65
33.76
31.72
25.92
16.76
5.41
-6.72
-18.48
-29.23
-38.57
-46.00
-50.81
-52.23
-49.91
-44.34
-36.79
-28.79
-21.57
-15.51
-10.28
-5.21
0.10
5.46
10.14
13.38
14.75
14.46
13.20
11.71
10.35
9.01
7.20
4.49
0.84
-3.38
-7.47
-10.83
-13.17
-14.65
-15.71
-16.79
-18.01
-19.12
-19.64
-19.09
-17.28
-14.37
-10.80
-7.15
-3.92
-1.46
0.06
0.64
0.44
-0.24
-1.01
-1.37
-0.87
0.78
3.68
7.64
12.19
16.65
20.27
22.47
23.01
22.06
20.08
17.62
15.04
12.49
9.93
7.35
4.83
2.60
0.86
-0.35
-1.14
-1.68
-2.04
-2.05
-1.41
0.22
2.97
6.68
10.91
15.07
18.65
21.43
23.56
25.39
27.24
29.18
30.95
32.13
32.37
31.71
30.56
29.55
29.16
29.49
30.11
30.24
29.09
26.19
21.63
15.96
10.01
4.48
-0.31
-4.49
-8.53
-12.87
-17.59
-22.28
-26.13
-28.35
-28.56
-27.12
-25.01
-23.36
-22.90
-23.62
-24.72
-25.12
-24.04
-21.49
-18.23
-15.37
-13.73
-13.51
-14.14
-14.69
-14.32
-12.67
-9.96
-6.80
-3.85
-1.56
-0.01
0.99
1.66
2.07
2.01
1.15
-0.68
-3.32
-6.19
-8.54
-9.85
-10.07
-9.70
-9.42
-9.74
-10.71
-11.93
-12.87
-13.24
-13.21
-13.33
-14.24
-16.33
-19.45
-23.05
-26.40
-28.99
-30.71
-31.85
-32.84
-33.93
-35.02
-35.67
-35.38
-33.84
-31.14
-27.69
-24.01
-20.52
-17.46
-14.93
-13.01
-11.80
-11.38
-11.69
-12.43
-13.09
-13.04
-11.74
-8.83
-4.27
1.73
8.76
16.33
23.95
31.24
37.90
43.81
48.90
53.13
56.44
58.73
59.92
60.02
59.15
57.52
55.42
53.10
50.76
48.54
46.47
44.50
42.46
40.16
37.33
33.81
29.49
24.49
19.10
13.75
8.84
4.65
1.29
-1.30
-3.30
-4.91
-6.31
-7.66
-9.04
-10.50
-12.02
-13.50
-14.79
-15.68
-15.99
-15.63
-14.55
-12.90
-10.87
-8.74
-6.76
-5.11
-3.80
-2.72
-1.71
-0.61
0.59
1.74
2.62
3.07
3.10
2.99
3.16
4.02
5.77
8.27
11.06
13.57
15.32
16.19
16.43
16.52
16.95
17.94
19.42
20.97
22.08
22.22
21.13
18.86
15.80
12.55
9.89
8.55
9.14
11.89
16.56
22.29
27.71
31.20
31.45
27.89
20.93
11.81
2.16
-6.61
-13.75
-19.20
-23.29
-26.41
-28.72
-30.21
-30.86
-30.90
-30.77
-30.99
-31.87
-33.37
-35.07
-36.51
-37.34
-37.52
-37.29
-36.96
-36.73
-36.60
-36.38
-35.79
-34.66
-33.01
-31.09
-29.29
-27.99
-27.40
-27.40
-27.65
-27.73
-27.36
-26.48
-25.14
-23.37
-21.04
-17.92
-13.92
-9.19
-4.18
0.54
4.56
7.74
10.14
11.92
13.16
13.94
14.39
14.77
15.35
16.24
17.17
17.66
17.12
15.21
11.94
7.64
2.77
-2.21
-6.94
-11.08
-14.32
-16.49
-17.63
-18.11
-18.55
-19.57
-21.50
-24.21
-27.17
-29.72
-31.36
-31.93
-31.53
-30.40
-28.79
-26.90
-24.98
-23.29
-22.05
-21.24
-20.61
-19.82
-18.74
-17.61
-16.93
-17.07
-17.86
-18.53
-17.93
-15.19
-10.22
-3.81
2.64
7.91
11.45
13.59
15.21
17.16
19.85
23.04
26.22
28.88
30.91
32.53
34.06
35.67
37.26
38.61
39.72
40.92
42.63
45.04
47.74
49.80
50.24
48.52
44.91
40.34
35.93
32.43
29.95
28.03
26.02
23.50
20.39
16.92
13.39
10.05
6.98
4.17
1.71
-0.28
-1.58
-2.01
-1.49
-0.21
1.51
3.31
4.95
6.44
7.94
9.56
11.28
12.80
13.73
13.73
12.65
10.55
7.54
3.76
-0.62
-5.24
-9.54
-12.81
-14.45
-14.10
-11.87
-8.11
-3.33
2.11
7.98
14.25
20.99
28.46
36.99
46.79
57.67
68.73
78.34
84.41
85.00
78.91
66.21
48.29
27.60
6.96
-11.26
-25.75
-36.59
-45.00
-52.63
-60.69
-69.45
-78.26
-86.21
-92.82
-98.29
-103.13
-107.37
-110.11
-109.82
-105.14
-95.99
-83.75
-70.80
-59.28
-50.15
-42.95
-36.35
-29.17
-21.12
-12.89
-5.53
0.16
4.10
6.91
9.48
12.64
16.80
21.99
27.96
34.37
40.89
47.28
53.24
58.36
62.00
63.39
61.90
57.24
49.76
40.34
30.15
20.37
11.79
4.82
-0.56
-4.60
-7.74
-10.53
-13.48
-16.90
-20.76
-24.65
-27.84
-29.63
-29.58
-27.67
-24.26
-19.84
-14.88
-9.64
-4.20
1.50
7.46
13.59
19.62
25.15
29.84
33.49
36.18
38.24
40.13
42.18
44.52
47.06
49.62
52.09
54.44
56.72
58.94
61.02
62.75
63.95
64.48
64.26
63.36
61.87
59.96
57.81
55.58
53.39
51.25
49.05
46.66
43.96
40.92
37.58
33.98
30.04
25.55
20.25
13.97
6.77
-1.03
-9.01
-16.85
-24.49
-32.17
-40.12
-48.38
-56.62
-64.16
-70.28
-74.55
-77.05
-78.31
-78.97
-79.47
-79.80
-79.60
-78.50
-76.44
-73.82
-71.28
-69.38
-68.24
-67.49
-66.50
-64.79
-62.31
-59.58
-57.27
-55.84
-55.18
-54.56
-52.99
-49.59
-43.95
-36.27
-27.19
-17.44
-7.58
2.09
11.49
20.56
29.09
36.68
42.83
47.11
49.32
49.54
48.18
45.85
43.16
40.67
38.66
37.24
36.26
35.43
34.45
33.10
31.42
29.63
28.08
27.04
26.61
26.58
26.54
26.05
24.68
22.17
18.37
13.22
6.72
-0.96
-9.48
-18.25
-26.55
-33.82
-39.74
-44.41
-48.14
-51.16
-53.45
-54.61
-54.01
-51.16
-46.05
-39.24
-31.71
-24.49
-18.29
-13.26
-9.15
-5.54
-2.22
0.70
2.86
3.90
3.76
2.72
1.35
0.14
-0.71
-1.46
-2.58
-4.43
-6.93
-9.51
-11.31
-11.62
-10.25
-7.69
-4.91
-2.93
-2.33
-3.04
-4.43
-5.67
-6.19
-6.02
-5.78
-6.31
-8.24
-11.67
-16.10
-20.75
-24.94
-28.32
-30.90
-32.84
-34.36
-35.66
-37.12
-39.30
-42.67
-47.01
-50.95
-52.03
-47.52
-35.67
-16.77
6.46
29.72
48.64
60.37
64.38
62.22
56.46
49.55
43.07
37.83
34.38
33.43
35.77
41.71
50.43
59.92
67.53
71.01
69.49
63.73
55.57
46.95
39.10
32.24
26.00
19.86
13.69
7.73
2.47
-1.63
-4.24
-5.26
-4.82
-3.31
-1.39
0.17
0.73
0.03
-1.75
-4.08
-6.37
-8.25
-9.63
-10.53
-10.78
-9.97
-7.69
-3.91
0.72
4.89
7.29
7.19
4.85
1.51
-1.39
-2.97
-3.35
-3.30
-3.50
-3.85
-3.42
-1.13
3.41
9.43
15.28
19.26
20.58
19.63
17.56
15.51
13.83
11.95
8.95
4.33
-1.54
-7.50
-12.27
-15.15
-16.37
-16.83
-17.53
-19.01
-21.11
-23.14
-24.38
-24.45
-23.37
-21.46
-19.06
-16.39
-13.56
-10.65
-7.87
-5.44
-3.52
-2.10
-1.00
0.00
1.09
2.31
3.64
4.97
6.23
7.34
8.24
8.84
9.08
8.91
8.43
7.75
6.97
6.03
4.77
2.96
0.54
-2.25
-4.81
-6.50
-6.91
-6.14
-4.82
-3.78
-3.65
-4.68
-6.64
-9.04
-11.28
-12.82
-13.36
-12.89
-11.68
-10.19
-8.78
-7.45
-5.73
-2.89
1.63
7.75
14.60
20.92
25.63
28.42
29.73
30.34
30.81
31.19
31.06
30.06
28.20
26.00
24.19
23.35
23.55
24.34
25.04
25.01
24.06
22.45
20.85
20.07
20.76
23.14
26.91
31.41
35.87
39.74
42.92
45.70
48.58
52.00
56.12
60.83
65.76
70.42
74.26
76.69
77.01
74.63
69.28
61.37
51.93
42.26
33.19
24.51
14.94
2.76
-13.09
-32.27
-52.81
-71.93
-87.16
-97.27
-102.53
-104.18
-103.64
-101.77
-98.87
-94.92
-90.05
-84.75
-79.64
-75.23
-71.62
-68.48
-65.22
-61.35
-56.70
-51.47
-46.14
-41.27
-37.28
-34.31
-32.18
-30.50
-28.83
-26.84
-24.44
-21.76
-19.08
-16.62
-14.47
-12.57
-10.72
-8.73
-6.53
-4.14
-1.72
0.54
2.49
4.05
5.23
6.16
6.96
7.71
8.39
8.91
9.18
9.18
8.98
8.75
8.59
8.50
8.33
7.91
7.10
5.95
4.60
3.25
2.06
1.09
0.37
-0.12
-0.34
-0.27
0.06
0.58
1.14
1.60
1.91
2.13
2.32
2.51
2.60
2.39
1.74
0.64
-0.67
-1.86
-2.59
-2.74
-2.42
-1.90
-1.45
-1.24
-1.31
-1.63
-2.14
-2.83
-3.64
-4.42
-5.00
-5.25
-5.17
-4.92
-4.69
-4.60
-4.59
-4.47
-4.11
-3.46
-2.66
-1.92
-1.37
-0.99
-0.69
-0.42
-0.22
-0.24
-0.55
-1.05
-1.51
-1.63
-1.27
-0.54
0.26
0.72
0.58
-0.16
-1.25
-2.28
-2.88
-2.93
-2.59
-2.20
-2.13
-2.54
-3.37
-4.34
-5.15
-5.59
-5.64
-5.36
-4.80
-3.93
-2.69
-1.06
0.83
2.77
4.54
6.08
7.43
8.71
9.94
11.06
11.87
12.18
11.93
11.20
10.23
9.30
8.67
8.41
8.46
8.63
8.74
8.66
8.32
7.72
6.87
5.79
4.54
3.21
1.90
0.70
-0.29
-0.97
-1.30
-1.26
-0.93
-0.46
-0.13
-0.14
-0.62
-1.43
-2.20
-2.45
-1.85
-0.39
1.58
3.45
4.66
4.95
4.43
3.52
2.62
1.93
1.30
0.44
-0.92
-2.78
-4.82
-6.61
-7.79
-8.26
-8.21
-7.90
-7.54
-7.19
-6.85
-6.55
-6.39
-6.54
-7.12
-8.17
-9.59
-11.19
-12.78
-14.18
-15.30
-16.10
-16.67
-17.17
-17.85
-18.92
-20.54
-22.72
-25.37
-28.35
-31.48
-34.61
-37.59
-40.32
-42.73
-44.90
-46.97
-49.20
-51.79
-54.86
-58.33
-61.92
-65.18
-67.70
-69.25
-69.98
-70.46
-71.50
-73.81
-77.53
-81.90
-85.29
-85.62
-81.03
-70.39
-53.61
-31.55
-5.60
22.66
51.77
80.43
107.50
131.91
152.81
169.58
182.04
190.41
195.24
196.95
195.55
190.55
181.27
167.48
150.05
131.04
113.16
98.72
88.64
82.16
77.33
72.13
65.47
57.54
49.52
42.64
37.52
33.85
30.82
27.60
23.86
19.79
15.88
12.47
9.47
6.37
2.55
-2.22
-7.45
-11.94
-14.20
-13.21
-8.92
-2.35
4.90
11.33
15.98
18.49
18.76
16.64
12.08
5.69
-0.83
-4.86
-4.01
2.44
12.76
23.30
30.18
31.17
26.44
17.99
8.09
-2.01
-12.33
-23.29
-34.62
-44.95
-52.37
-55.69
-55.28
-52.92
-50.86
-50.58
-52.22
-54.83
-57.17
-58.41
-58.41
-57.57
-56.35
-54.94
-53.25
-51.09
-48.56
-46.08
-44.22
-43.34
-43.37
-43.73
-43.71
-42.97
-41.78
-41.11
-42.11
-45.58
-51.54
-59.13
-67.02
-73.95
-79.32
-83.41
-87.18
-91.64
-97.16
-103.10
-107.96
-110.03
-108.02
-101.47
-90.38
-75.01
-55.63
-32.75
-7.50
18.35
43.01
65.57
86.62
107.76
130.28
153.61
174.75
189.23
193.32
186.16
170.43
151.21
133.48
119.93
110.09
101.43
91.32
78.95
65.76
54.56
47.84
46.36
48.80
52.57
55.16
55.08
52.30
47.51
41.32
33.66
23.80
11.09
-4.29
-20.77
-35.77
-46.41
-50.77
-48.52
-41.22
-31.66
-22.87
-17.17
-15.73
-18.65
-25.35
-34.90
-46.26
-58.22
-69.49
-79.00
-86.58
-93.43
-102.10
-115.33
-134.45
-157.95
-181.36
-198.69
-204.96
-198.42
-181.19
-158.06
-133.85
-111.12
-89.35
-65.87
-38.03
-5.14
30.77
65.70
95.34
116.67
128.81
132.86
131.05
125.78
118.95
111.84
105.29
100.04
96.81
96.00
97.27
99.31
99.96
96.83
88.30
74.28
56.45
37.75
21.41
9.72
3.42
1.60
2.23
3.09
2.54
-0.04
-4.31
-9.40
-14.52
-19.30
-23.82
-28.28
-32.60
-36.26
-38.43
-38.51
-36.45
-32.97
-29.26
-26.47
-25.31
-25.83
-27.59
-29.96
-32.43
-34.73
-36.75
-38.39
-39.51
-39.93
-39.53
-38.31
-36.45
-34.21
-31.91
-29.81
-28.03
-26.56
-25.24
-23.84
-22.13
-20.00
-17.44
-14.55
-11.52
-8.48
-5.54
-2.72
-0.09
2.21
3.98
5.07
5.55
5.83
6.55
8.35
11.50
15.72
20.19
23.90
26.01
26.18
24.58
21.80
18.51
15.26
12.41
10.15
8.55
7.64
7.41
7.68
8.19
8.55
8.43
7.65
6.24
4.47
2.78
1.58
1.15
1.50
2.39
3.40
4.02
3.85
2.72
0.76
-1.66
-4.03
-5.89
-7.07
-7.64
-7.93
-8.22
-8.68
-9.21
-9.63
-9.82
-9.91
-10.21
-11.08
-12.69
-14.87
-17.12
-18.83
-19.50
-18.90
-17.17
-14.66
-11.84
-9.14
-6.88
-5.32
-4.64
-4.99
-6.43
-8.83
-11.80
-14.68
-16.66
-17.12
-15.80
-13.02
-9.52
-6.18
-3.68
-2.25
-1.62
-1.35
-0.95
-0.18
0.97
2.39
3.99
5.76
7.67
9.65
11.42
12.66
13.12
12.74
11.81
10.84
10.40
10.90
12.47
14.89
17.65
20.16
21.88
22.42
21.63
19.60
16.66
13.27
9.96
7.10
4.85
3.06
1.37
-0.62
-3.12
-6.02
-8.90
-11.14
-12.20
-11.79
-9.88
-6.67
-2.42
2.62
8.22
14.12
20.05
25.74
31.00
35.76
39.93
43.26
45.20
45.16
42.95
39.23
35.55
33.94
36.05
42.47
52.38
63.88
74.72
83.00
87.60
88.11
84.69
77.82
68.37
57.53
46.69
37.09
29.38
23.44
18.59
13.92
8.71
2.57
-4.61
-12.74
-21.60
-30.72
-39.38
-46.69
-52.01
-55.20
-56.75
-57.55
-58.39
-59.62
-60.98
-61.90
-61.82
-60.60
-58.49
-55.94
-53.28
-50.57
-47.57
-44.04
-39.97
-35.74
-31.97
-29.28
-27.94
-27.71
-27.94
-27.87
-27.01
-25.29
-23.00
-20.68
-18.81
-17.79
-17.82
-18.89
-20.76
-22.86
-24.40
-24.59
-22.93
-19.51
-14.94
-10.13
-5.92
-2.76
-0.72
0.33
0.45
-0.40
-2.27
-4.95
-7.88
-10.34
-11.72
-11.83
-10.99
-9.80
-8.77
-8.04
-7.35
-6.26
-4.45
-2.00
0.68
2.99
4.53
5.21
5.32
5.28
5.51
6.17
7.27
8.76
10.68
13.16
16.30
19.94
23.57
26.51
28.10
28.01
26.33
23.46
19.96
16.39
13.21
10.78
9.25
8.54
8.30
8.10
7.53
6.46
5.07
3.70
2.66
2.05
1.78
1.70
1.72
1.89
2.26
2.80
3.30
3.42
2.83
1.37
-0.86
-3.55
-6.29
-8.78
-10.94
-12.92
-14.98
-17.36
-20.05
-22.77
-25.09
-26.58
-26.99
-26.32
-24.77
-22.64
-20.23
-17.74
-15.37
-13.25
-11.53
-10.28
-9.48
-8.94
-8.37
-7.47
-6.04
-4.07
-1.78
0.48
2.41
3.83
4.82
5.53
6.13
6.64
6.92
6.82
6.31
5.51
4.65
3.94
3.43
3.03
2.60
2.02
1.35
0.79
0.57
0.90
1.79
3.09
4.50
5.74
6.66
7.27
7.82
8.63
9.99
11.98
14.39
16.74
18.51
19.25
18.77
17.22
14.97
12.48
10.04
7.71
5.32
2.68
-0.22
-3.15
-5.70
-7.57
-8.67
-9.17
-9.34
-9.31
-9.04
-8.42
-7.37
-6.01
-4.56
-3.17
-1.82
-0.31
1.54
3.74
6.05
8.07
9.39
9.75
9.14
7.71
5.78
3.65
1.61
-0.19
-1.74
-3.12
-4.48
-5.89
-7.36
-8.82
-10.32
-11.97
-13.93
-16.26
-18.74
-20.99
-22.63
-23.45
-23.57
-23.34
-23.17
-23.28
-23.67
-24.21
-24.81
-25.54
-26.67
-28.55
-31.44
-35.31
-39.80
-44.26
-47.95
-50.27
-51.01
-50.32
-48.72
-46.82
-45.18
-44.10
-43.50
-42.84
-41.24
-37.69
-31.31
-21.78
-9.49
4.51
18.76
31.87
42.82
51.20
57.05
60.68
62.50
62.94
62.43
61.48
60.72
60.75
61.98
64.35
67.24
69.59
70.35
68.84
65.11
59.86
54.15
48.96
44.86
41.99
40.17
39.14
38.64
38.40
38.10
37.37
35.91
33.58
30.51
27.01
23.44
20.12
17.18
14.58
12.12
9.57
6.75
3.65
0.40
-2.72
-5.38
-7.36
-8.63
-9.35
-9.75
-10.11
-10.62
-11.42
-12.64
-14.36
-16.61
-19.23
-21.86
-23.94
-24.93
-24.51
-22.73
-19.98
-16.80
-13.64
-10.77
-8.27
-6.20
-4.63
-3.66
-3.27
-3.26
-3.28
-3.00
-2.33
-1.52
-1.04
-1.32
-2.47
-4.24
-6.12
-7.62
-8.51
-8.84
-8.83
-8.65
-8.31
-7.65
-6.49
-4.87
-3.05
-1.51
-0.66
-0.64
-1.26
-1.99
-2.25
-1.55
0.33
3.33
7.16
11.40
15.67
19.73
23.62
27.67
32.32
37.92
44.36
51.05
57.00
61.27
63.37
63.50
62.36
60.82
59.46
58.38
57.27
55.60
52.98
49.34
44.94
40.25
35.76
31.86
28.68
26.04
23.61
21.03
18.12
15.01
12.05
9.63
8.08
7.64
8.42
10.31
12.79
14.78
14.92
12.13
6.31
-1.31
-8.51
-13.05
-13.80
-11.38
-7.90
-5.93
-7.32
-12.38
-19.90
-27.82
-34.30
-38.36
-40.08
-40.18
