1593098565.00
64.000000
-0.00
-0.00
-0.00
-0.00
-0.00
-0.00
-0.00
-0.00
-0.00
-0.00
0.00
0.01
0.01
-0.00
-0.03
-0.05
-0.05
0.00
0.13
0.36
0.66
1.01
1.37
1.72
2.06
2.40
2.79
3.24
3.80
4.42
5.06
5.66
6.20
6.68
7.15
7.68
8.31
9.14
10.09
11.04
11.88
12.56
13.14
13.76
14.65
15.96
17.91
20.32
22.90
25.38
27.58
29.57
31.68
34.32
37.81
42.54
48.15
54.10
59.83
64.97
69.58
74.14
79.34
85.71
93.76
103.00
112.62
121.73
129.77
136.75
143.30
150.75
157.77
166.64
177.95
191.79
206.97
220.57
228.25
225.36
208.53
176.87
132.76
80.05
23.07
-34.94
-92.44
-149.16
-205.23
-260.37
-313.74
-363.87
-409.83
-450.91
-486.50
-515.74
-537.23
-549.22
-549.96
-538.37
-514.21
-478.67
-433.88
-382.45
-327.02
-269.84
-212.63
-156.66
-102.95
-52.37
-5.90
35.58
71.43
101.35
125.50
144.38
158.69
169.15
176.37
180.75
182.57
182.07
179.51
175.23
169.65
163.18
156.15
148.81
141.30
133.69
126.02
118.33
110.68
103.15
95.81
88.72
81.88
75.30
68.95
62.85
57.02
51.53
46.42
41.71
37.39
33.40
29.66
26.12
22.76
19.63
16.78
14.29
12.17
10.40
8.88
7.49
6.14
4.81
3.55
2.49
1.78
1.47
1.51
1.66
1.66
1.28
0.50
-0.49
-1.31
-1.58
-1.12
-0.07
1.10
1.78
1.52
0.28
-1.51
-3.09
-3.68
-2.94
-1.11
0.98
2.27
1.99
0.10
-2.65
-5.03
-5.82
-4.57
-1.79
1.48
3.88
4.64
3.66
1.28
-2.12
-6.00
-9.15
-9.28
-3.72
9.03
27.63
47.44
62.06
66.29
58.82
43.04
25.30
11.68
5.17
4.93
7.65
9.98
10.42
9.49
8.69
9.07
10.52
12.06
12.52
10.98
6.95
0.62
-7.68
-17.44
-27.93
-38.38
-48.33
-57.47
-65.94
-74.05
-81.99
-89.82
-97.55
-105.32
-113.10
-120.11
-124.18
-122.04
-110.31
-87.49
-55.23
-18.25
17.32
46.37
66.55
78.47
84.33
86.25
85.29
81.85
76.98
72.91
72.40
77.48
87.93
100.99
113.02
121.40
125.23
125.14
122.20
117.24
110.99
104.31
97.93
91.60
82.87
67.75
43.05
9.69
-25.42
-50.09
-51.38
-21.83
35.79
108.27
176.64
223.66
240.33
227.96
196.32
158.07
123.28
95.87
73.77
51.90
25.96
-3.08
-32.12
-57.29
-76.10
-88.90
-99.36
-112.99
-135.51
-170.83
-219.15
-276.18
-332.39
-374.68
-389.69
-368.86
-311.97
-228.47
-135.35
-52.36
2.97
21.09
3.08
-40.17
-92.03
-134.33
-152.26
-138.20
-93.57
-30.17
34.07
81.13
98.99
85.05
48.37
6.31
-22.44
-24.67
-0.11
40.83
82.76
112.01
120.27
107.19
78.03
39.54
-1.89
-44.26
-86.33
-125.31
-146.83
-140.56
-105.25
-50.98
-3.15
27.37
35.99
22.85
-5.56
-43.52
-88.03
-136.72
-185.87
-229.28
-257.80
-264.92
-246.67
-203.26
-138.00
-57.95
29.89
120.60
212.06
304.11
389.16
457.90
504.75
532.66
548.32
557.77
562.65
559.69
543.66
509.63
464.15
410.48
356.20
308.50
271.77
246.13
228.19
213.47
197.63
178.33
153.31
126.09
97.77
68.23
37.18
5.13
-26.34
-55.33
-79.81
-99.56
-114.64
-126.76
-137.76
-148.74
-159.48
-168.82
-175.44
-178.21
-177.85
-175.47
-173.29
-173.34
-176.89
-184.08
-193.83
-203.76
-210.44
-211.18
-204.04
-189.52
-170.39
-150.75
-134.19
-122.46
-114.58
-107.82
-100.89
-93.60
-87.08
-82.91
-82.07
-84.06
-88.33
-94.14
-101.65
-115.04
-138.37
-173.91
-221.78
-280.81
-348.65
-423.87
-503.06
-579.84
-649.51
-705.42
-740.50
-750.15
-734.86
-698.87
-651.23
-599.73
-548.70
-504.93
-471.79
-448.81
-432.80
-420.22
-406.88
-393.03
-379.34
-332.84
-241.39
-115.27
18.89
136.16
212.87
259.41
286.81
302.71
312.16
314.28
308.22
296.73
285.65
280.63
286.36
301.44
322.83
347.86
370.75
388.34
401.42
414.13
431.39
458.23
494.54
536.83
577.80
604.11
602.09
563.28
488.39
388.10
281.37
188.06
124.80
100.46
112.76
150.93
199.52
242.77
267.53
265.81
234.33
175.11
95.15
5.22
-80.97
-148.54
-185.51
-187.62
-161.52
-124.67
-99.54
-104.46
-145.42
-213.29
-287.92
-347.57
-378.13
-377.72
-355.27
-324.20
-295.51
-273.48
-256.20
-238.65
-216.44
-187.60
-152.13
-110.56
-62.95
-9.25
50.08
110.65
163.54
197.53
204.28
183.32
143.93
102.09
74.01
72.08
98.11
143.87
195.93
243.05
281.19
312.62
340.75
364.04
378.38
375.99
350.55
302.11
239.75
178.98
134.49
113.90
114.55
132.69
163.84
205.70
257.97
320.91
394.03
474.27
557.05
601.65
579.06
482.95
336.03
175.36
30.72
-84.75
-172.53
-240.17
-296.21
-341.22
-372.89
-389.48
-392.36
-386.62
-374.60
-363.80
-359.03
-362.60
-370.22
-376.34
-377.10
-371.72
-362.80
-353.83
-348.02
-346.20
-347.64
-347.54
-340.24
-326.04
-305.61
-281.45
-256.51
-233.49
-213.36
-196.09
-179.65
-161.90
-141.64
-118.57
-93.96
-69.59
-47.19
-27.33
-9.68
7.24
25.14
45.28
68.51
94.46
122.14
150.32
178.32
206.02
233.74
262.08
291.76
323.93
359.48
398.45
439.19
477.98
509.29
527.26
527.76
510.11
477.62
436.25
392.39
350.82
313.68
280.89
251.36
224.19
199.12
176.33
155.76
136.76
118.25
99.24
79.44
59.33
40.10
23.00
8.77
-2.62
-11.85
-19.80
-27.08
-33.80
-39.65
-44.35
-48.02
-51.39
-55.53
-61.26
-68.62
-76.61
-83.60
-88.02
-89.37
-88.71
-88.59
-92.06
-101.29
-116.54
-135.82
-155.69
-172.65
-184.45
-190.50
-191.58
-188.98
-183.81
-176.98
-169.44
-162.43
-157.20
-154.21
-152.44
-149.38
-141.89
-127.77
-106.98
-82.00
-56.90
-35.70
-20.88
-12.57
-8.78
-6.33
-1.98
6.57
20.08
37.71
57.30
76.08
91.41
101.40
105.31
103.39
96.44
85.57
71.89
56.43
40.11
23.73
7.74
-7.78
-23.12
-38.51
-53.67
-67.53
-78.49
-84.97
-86.30
-83.04
-76.77
-69.24
-61.40
-52.93
-42.52
-28.90
-12.15
5.49
19.90
26.38
21.52
4.70
-21.35
-51.55
-80.24
-103.14
-118.59
-127.51
-132.24
-134.88
-136.11
-135.05
-129.95
-119.23
-102.25
-79.48
-52.19
-22.05
9.28
40.40
70.39
99.06
127.01
155.38
184.74
214.73
243.77
269.28
288.23
297.97
297.04
285.26
264.11
236.32
206.35
180.04
163.47
161.23
174.76
201.83
236.90
273.02
302.71
320.55
324.14
314.02
292.59
263.23
229.89
195.95
164.05
132.69
99.36
62.35
21.88
-20.26
-61.62
-99.06
-131.26
-157.71
-184.55
-217.44
-258.28
-304.62
-352.47
-399.04
-441.26
-478.04
-505.84
-527.57
-544.30
-554.29
-555.08
-547.71
-538.40
-532.58
-536.96
-552.25
-585.36
-639.12
-709.43
-786.23
-858.53
-919.29
-962.68
-991.62
-938.83
-768.45
-496.46
-185.94
97.83
321.89
465.74
558.69
620.15
660.53
673.86
653.09
602.66
533.21
457.74
385.29
332.87
306.18
305.12
316.14
324.62
323.39
315.06
306.99
305.00
313.75
330.00
344.72
352.76
351.15
340.67
326.22
313.77
306.88
307.62
312.34
316.82
315.46
309.54
299.92
289.11
279.95
274.04
272.33
272.96
274.22
274.86
273.96
270.86
265.95
259.92
253.05
245.38
236.00
224.21
210.24
194.41
176.59
156.97
135.78
113.27
89.66
65.15
40.12
15.43
-8.08
-30.03
-50.04
-68.00
-84.07
-98.57
-111.81
-123.90
-134.63
-143.74
-151.36
-157.83
-163.93
-170.71
-179.16
-189.87
-202.71
-216.89
-231.27
-244.97
-257.76
-270.27
-283.78
-299.64
-318.59
-340.38
-363.82
-387.31
-409.46
-429.74
-448.72
-467.79
-488.95
-514.56
-546.90
-587.31
-635.02
-686.09
-733.36
-768.02
-782.43
-773.00
-741.61
-694.77
-640.97
-587.52
-538.52
-494.76
-455.16
-418.50
-384.40
-353.10
-324.56
-297.80
-271.06
-242.49
-211.13
-177.30
-142.45
-108.44
-76.66
-47.58
-20.85
4.16
27.74
49.51
68.51
83.73
94.57
101.19
104.37
105.17
104.45
102.74
100.14
96.43
91.32
84.53
75.90
65.45
53.46
40.42
27.02
14.38
3.47
-5.05
-10.86
-13.88
-13.95
-10.86
-4.42
5.61
19.54
37.29
58.23
81.25
104.99
128.17
149.84
169.32
186.41
202.04
217.07
231.87
246.14
259.19
270.36
279.21
285.37
288.89
292.12
296.84
303.25
309.75
313.89
313.69
308.38
297.73
283.14
270.96
266.27
270.88
282.69
297.50
311.72
323.57
331.84
338.13
351.73
379.75
423.86
479.57
539.05
595.67
645.93
687.44
722.47
763.29
819.28
892.27
975.34
1056.73
1126.24
1178.15
1208.98
1160.76
1002.89
741.57
420.71
97.02
-188.37
-418.46
-578.78
-689.42
-765.54
-806.42
-808.11
-771.82
-706.86
-630.58
-557.19
-494.80
-447.47
-411.25
-373.15
-320.10
-245.76
-152.69
-50.28
50.15
138.10
203.37
241.24
240.23
198.19
123.56
33.72
-53.05
-125.28
-180.78
-223.99
-257.71
-283.20
-297.45
-299.45
-293.17
-287.16
-291.09
-312.63
-353.44
-410.47
-476.10
-538.34
-585.54
-609.65
-608.43
-585.24
-547.18
-502.28
-456.84
-414.10
-373.17
-332.43
-291.74
-253.23
-219.89
-193.38
-172.54
-154.18
-134.62
-111.04
-83.51
-54.78
-28.83
-8.44
6.49
19.12
34.11
55.63
85.68
123.14
164.15
203.93
238.84
267.86
292.93
318.09
348.35
387.78
437.69
494.97
551.60
595.78
614.78
599.42
548.45
471.13
385.46
312.69
269.24
260.24
277.63
303.99
319.64
310.04
270.33
205.39
127.18
50.78
-8.90
-40.09
-36.51
0.58
61.51
130.08
188.10
221.33
223.82
199.16
157.72
111.85
71.46
41.35
20.81
5.09
-12.11
-35.75
-66.73
-100.16
-126.07
-132.34
-109.72
-56.55
19.42
103.33
178.44
232.06
259.21
262.56
249.33
227.26
201.92
176.13
151.43
129.40
111.98
100.58
94.81
92.07
88.19
79.41
64.19
43.87
21.92
2.47
-11.63
-19.85
-23.90
-26.70
-30.88
-37.62
-46.17
-54.38
-59.80
-60.82
-57.38
-50.91
-43.70
-37.94
-34.87
-34.49
-35.73
-37.07
-37.24
-35.74
-32.95
-29.86
-27.60
-26.90
-27.81
-29.62
-31.55
-32.66
-32.16
-29.72
-25.71
-21.24
-17.60
-15.75
-15.88
-17.87
-21.07
-24.77
-28.72
-33.47
-40.25
-50.22
-63.66
-79.49
-96.61
-113.38
-128.42
-141.51
-154.15
-169.28
-189.80
-216.75
-248.40
-283.62
-319.44
-351.98
-378.09
-397.16
-412.24
-428.87
-452.89
-488.13
-540.84
-610.14
-685.62
-749.60
-784.76
-782.91
-749.61
-702.20
-662.93
-659.29
-703.55
-786.51
-881.82
-959.00
-997.17
-990.58
-946.74
-880.74
-822.65
-797.06
-814.99
-872.29
-954.44
-1044.24
-1126.05
-1188.12
-1143.27
-949.01
-622.49
-234.48
135.31
438.68
663.33
817.66
916.34
973.71
989.54
963.84
908.32
839.99
774.99
722.10
682.46
653.10
630.91
604.53
567.29
520.91
471.95
429.49
399.43
383.31
380.09
387.94
398.63
405.54
406.08
401.24
394.05
386.69
380.41
377.13
380.51
392.04
412.73
441.39
472.60
496.18
499.04
470.63
408.95
323.72
233.26
159.98
122.38
128.05
170.84
232.83
290.44
322.33
315.86
270.10
195.28
109.33
32.64
-17.44
-31.47
-10.45
34.10
83.48
117.75
122.89
95.96
46.72
-6.15
-42.86
-50.83
-30.11
7.19
41.82
55.59
38.32
-8.59
-73.14
-137.50
-183.33
-197.15
-173.73
-117.46
-40.93
37.69
99.28
128.97
120.55
78.70
18.15
-40.31
-76.12
-75.46
-35.86
32.79
111.47
178.16
214.93
213.24
176.73
119.73
62.47
24.29
16.92
41.17
87.13
138.78
180.09
200.62
197.29
172.53
131.23
78.62
20.67
-34.54
-76.06
-92.75
-78.08
-34.70
24.72
81.49
117.93
124.06
100.54
56.78
5.65
-42.07
-81.13
-112.00
-138.63
-165.79
-197.05
-234.44
-278.39
-327.68
-379.08
-426.92
-463.60
-481.47
-475.68
-446.35
-398.86
-341.75
-283.30
-228.36
-176.95
-125.29
-68.65
-4.54
65.32
134.84
195.37
238.55
259.25
256.74
234.60
198.66
154.55
106.43
56.40
4.92
-48.43
-104.14
-162.36
-221.98
-280.18
-331.94
-370.48
-389.33
-384.57
-355.99
-306.19
-239.47
-160.65
-75.46
8.74
82.96
138.08
167.72
171.10
155.80
133.48
117.00
114.20
124.27
140.34
155.06
164.91
170.56
175.23
181.14
188.18
194.20
196.83
194.83
188.53
179.59
169.84
161.25
153.79
145.92
135.21
120.13
100.47
77.26
52.17
26.75
2.67
-15.99
-29.35
-39.66
-48.32
-55.51
-60.39
-61.74
-62.91
-62.03
-58.83
-54.61
-52.22
-53.11
-57.57
-65.09
-75.03
-87.19
-101.51
-119.71
-134.38
-144.95
-152.23
-157.24
-160.52
-162.24
-162.30
-160.11
-155.91
-150.20
-144.90
-141.47
-141.55
-146.68
-157.06
-170.00
-179.16
-177.18
-158.30
-122.47
-74.99
-25.28
16.89
45.53
59.78
65.61
70.18
79.05
94.02
114.36
138.20
163.64
188.37
208.33
217.35
207.89
174.94
119.18
49.19
-20.66
-75.30
-104.68
-107.03
-88.01
-57.38
-24.11
6.49
32.99
56.55
79.11
102.59
127.03
153.39
183.29
218.57
259.64
303.45
343.47
371.21
378.94
363.13
326.09
275.29
221.03
171.47
129.34
91.86
52.96
6.66
-50.02
-115.69
-184.35
-245.45
-287.67
-303.11
-289.74
-253.10
-205.06
-159.73
-128.84
-117.61
-122.80
-137.35
-155.81
-176.79
-203.15
-239.41
-283.05
-326.63
-367.95
-401.17
-416.67
-411.40
-388.58
-355.46
-319.81
-286.54
-256.88
-229.03
-199.17
-165.58
-130.63
-98.45
-72.54
-53.68
-39.48
-26.38
-11.57
6.52
26.55
44.45
56.30
60.28
57.59
52.12
48.52
50.60
60.70
78.53
101.52
126.72
152.22
177.88
205.14
236.05
272.72
317.20
370.70
432.68
500.08
566.72
623.82
662.05
674.50
659.32
620.60
566.64
506.63
447.59
392.80
342.33
294.85
249.59
207.14
169.13
137.26
112.38
94.33
82.10
74.31
69.50
66.49
64.37
62.50
60.24
56.88
51.40
42.38
27.98
6.08
-25.81
-70.30
-129.49
-203.48
-288.80
-377.65
-458.90
-521.16
-556.25
-561.56
-540.53
-500.55
-449.70
-394.03
-336.25
-276.11
-211.95
-141.98
-65.77
14.69
94.43
165.96
221.27
254.52
264.51
254.91
233.07
207.26
183.83
165.82
153.42
145.56
141.22
139.74
139.10
136.78
130.26
117.85
99.15
75.21
48.18
20.95
-3.69
-25.98
-46.54
-65.42
-81.70
-94.26
-102.55
-106.64
-106.90
-103.69
-100.95
-101.98
-107.92
-117.96
-130.95
-146.90
-167.08
-193.58
-228.87
-279.89
-350.97
-440.26
-538.83
-633.48
-711.43
-764.10
-789.34
-761.68
-673.67
-538.46
-384.83
-240.96
-122.36
-32.17
32.69
76.90
105.06
117.27
115.31
103.98
90.14
79.83
74.66
75.18
81.15
92.29
105.35
118.64
132.95
151.09
175.76
207.78
242.18
274.07
299.88
315.76
320.22
314.36
301.16
283.94
264.99
245.47
226.23
207.85
189.70
171.43
153.25
135.86
120.05
106.03
93.57
82.57
72.90
64.09
55.78
47.86
40.32
33.41
27.21
21.64
16.81
12.75
9.47
6.90
4.91
3.16
1.64
0.30
-0.94
-2.06
-3.07
-4.11
-5.44
-6.25
-7.82
-10.67
-14.96
-20.70
-27.65
-35.38
-43.40
-51.24
-58.42
-64.86
-70.13
-73.97
-76.25
-76.96
-76.20
-74.23
-71.49
-68.59
-66.42
-65.17
-64.97
-65.75
-67.24
-69.07
-71.00
-73.10
-75.69
-79.46
-84.23
-89.67
-95.06
-99.45
-101.82
-101.61
-99.00
-94.96
-91.13
-88.23
-86.65
-85.89
-84.52
-80.43
-71.51
-55.99
-32.30
-4.70
24.39
52.82
79.37
104.00
128.34
155.37
188.52
229.54
276.28
322.80
359.34
375.70
365.19
327.56
269.81
204.64
146.91
109.69
101.21
121.78
163.62
212.84
252.89
269.13
252.95
204.38
132.28
52.63
-15.86
-56.87
-60.67
-27.48
32.52
101.77
160.90
194.23
193.91
160.75
103.11
34.34
-30.24
-76.41
-94.47
-82.18
-46.07
-0.01
39.07
56.62
44.48
2.62
-61.45
-134.89
-202.44
-249.52
-266.33
-251.40
-213.32
-168.94
-137.92
-135.52
-167.15
-227.04
-300.81
-371.25
-423.36
-447.71
-441.43
-407.58
-354.33
-293.09
-235.85
-191.72
-163.77
-148.05
-135.33
-115.18
-81.00
-33.88
17.07
58.25
78.14
73.26
50.56
24.38
9.02
11.16
25.83
39.01
35.04
5.37
-46.87
-107.86
-159.82
-188.72
-188.69
-162.26
-117.41
-64.44
-13.83
24.86
44.08
40.55
17.09
-17.06
-47.85
-60.63
-45.24
0.46
69.36
146.53
213.18
251.26
249.25
206.57
135.12
56.12
-6.43
-33.87
-19.04
32.17
102.90
171.61
219.52
236.70
224.41
194.24
163.63
149.46
162.20
201.30
255.40
308.23
345.14
357.58
344.89
312.10
266.37
214.70
160.70
103.45
42.21
-21.95
-86.02
-145.02
-193.21
-225.60
-237.55
-228.49
-203.85
-168.63
-125.43
-75.53
-19.49
41.62
105.18
169.11
229.28
277.53
309.29
324.72
325.64
314.89
296.05
258.63
202.79
153.61
116.50
84.99
56.74
30.24
4.65
-20.57
-46.75
-74.02
-99.47
-121.49
-136.56
-141.28
-135.98
-122.88
-103.72
-79.97
-51.47
-18.99
13.14
37.11
55.14
69.80
82.69
95.25
108.23
122.68
138.36
151.84
159.74
159.88
156.17
149.80
142.06
134.25
128.10
124.66
122.99
121.61
119.62
115.39
106.72
92.61
73.11
49.30
22.39
-6.93
-38.47
-71.84
-107.20
-145.50
-187.35
-232.89
-281.47
-330.70
-376.35
-413.08
-436.07
-443.83
-440.30
-433.99
-435.10
-451.46
-484.33
-527.15
-567.54
-591.71
-589.35
-556.62
-496.02
-414.84
-323.40
-233.75
-158.25
-107.58
-87.54
-96.11
-123.09
-152.18
-166.26
-152.98
-108.43
-37.81
47.25
132.56
204.78
254.10
275.44
268.29
235.68
182.91
116.19
42.23
-31.42
-96.44
-144.26
-167.55
-162.59
-130.55
-77.74
-14.36
47.88
97.80
126.30
127.29
98.83
43.72
-30.10
-110.87
-185.37
-242.04
-273.88
-279.81
-264.06
-234.07
-197.64
-160.59
-126.17
-95.15
-66.58
-39.30
-12.45
14.42
41.67
69.82
100.15
134.30
174.56
223.11
280.19
342.75
403.80
454.49
486.72
496.00
481.59
446.29
395.25
334.72
271.96
214.44
169.58
139.45
125.16
122.51
122.83
117.78
104.27
87.97
75.72
73.99
86.89
115.33
156.50
203.86
249.43
281.41
290.37
273.95
239.76
201.07
170.01
151.71
144.97
144.08
144.89
146.21
148.28
151.49
154.80
157.35
157.87
155.91
152.17
147.83
144.04
140.82
137.32
131.96
123.31
110.34
92.93
71.65
47.45
21.44
-5.22
-31.05
-54.27
-73.01
-86.25
-94.17
-98.35
-101.51
-106.55
-115.71
-130.33
-150.84
-176.80
-206.34
-235.55
-258.86
-270.62
-267.78
-251.85
-229.08
-207.93
-195.68
-195.43
-205.63
-222.08
-241.05
-261.64
-285.88
-317.13
-357.26
-404.41
-452.43
-492.47
-516.76
-522.21
-512.10
-494.71
-478.91
-469.10
-462.99
-453.21
-432.04
-396.53
-350.36
-301.69
-258.41
-223.84
-195.60
-168.16
-136.42
-98.22
-54.35
-6.79
42.17
89.55
130.20
156.64
160.91
138.38
91.48
29.95
-31.90
-80.83
-109.50
-118.05
-111.66
-96.34
-75.89
-51.75
-25.16
0.83
21.19
31.57
31.47
25.45
21.71
28.82
51.91
90.55
138.82
187.33
226.40
249.41
254.90
247.16
234.78
227.81
234.85
260.33
303.23
357.30
412.90
458.40
482.54
476.90
438.56
372.32
291.11
213.70
159.35
141.46
162.38
212.45
273.20
323.61
346.87
334.58
287.71
214.99
130.02
48.67
-13.73
-45.16
-40.53
-4.36
48.93
98.63
124.40
113.63
66.50
-4.03
-77.07
-131.06
-150.12
-127.94
-68.38
16.60
110.47
196.17
260.24
295.71
302.98
288.57
261.86
231.22
201.51
173.64
145.76
115.25
79.99
38.78
-8.68
-60.87
-113.29
-158.05
-185.50
-188.01
-164.35
-121.19
-71.76
-30.85
-9.54
-12.10
-36.75
-78.85
-134.15
-199.39
-270.32
-339.02
-393.32
-420.04
-410.99
-368.83
-308.37
-252.26
-221.45
-225.99
-260.49
-306.97
-343.16
-351.71
-326.32
-272.56
-204.09
-137.13
-86.19
-61.22
-66.66
-100.71
-155.29
-217.44
-272.89
-310.23
-323.87
-314.61
-287.13
-247.88
-203.58
-159.09
-118.87
-87.20
-67.21
-58.83
-58.87
-60.07
-55.69
-42.92
-20.33
10.46
45.69
80.65
111.64
135.45
154.16
171.02
188.74
214.42
254.14
309.51
376.08
445.53
506.49
555.26
591.74
617.52
642.09
675.43
723.45
786.00
858.74
932.83
1006.36
1077.02
1097.04
1029.42
865.29
634.49
388.10
193.66
52.13
-49.25
-124.72
-186.01
-237.22
-275.22
-298.24
-309.95
-318.65
-336.76
-367.04
-407.95
-456.46
-504.32
-544.20
-573.46
-594.47
-611.03
-626.99
-637.10
-633.95
-612.39
-568.02
-500.06
-412.88
-315.78
-221.36
-144.66
-96.01
-82.05
-104.58
-157.34
-227.46
-299.13
-357.82
-393.84
-404.84
-393.07
-365.29
-330.20
-295.02
-263.97
-238.43
-217.96
-201.58
-188.92
-179.50
-172.68
-167.57
-163.05
-158.22
-152.94
-147.87
-143.81
-141.27
-139.76
-138.02
-134.49
-128.01
-118.24
-105.52
-90.29
-72.54
-51.39
-25.45
6.46
44.35
86.71
130.84
173.94
214.17
251.28
286.63
322.19
359.57
399.67
442.75
488.63
536.15
582.45
622.69
651.46
665.71
667.04
662.11
659.73
666.08
680.80
696.61
702.91
691.65
661.73
618.67
571.00
525.54
484.33
445.03
403.96
359.09
311.71
265.55
223.40
185.13
147.62
106.51
58.38
2.56
-58.65
-120.60
-177.45
-225.80
-265.57
-299.16
-330.37
-363.03
-400.17
-444.02
-494.49
-547.87
-598.57
-639.75
-664.68
-669.23
-653.74
-619.51
-573.78
-530.47
-494.57
-464.87
-438.59
-412.85
-386.22
-358.83
-331.57
-305.46
-280.30
-254.20
-226.34
-197.25
-168.25
-141.14
-117.51
-98.20
-83.67
-73.41
-65.53
-58.62
-51.78
-44.40
-36.22
-27.51
-19.01
-12.02
-7.56
-5.41
-4.73
-3.91
-0.81
6.39
18.30
33.91
50.78
66.42
79.58
90.80
102.29
117.16
138.20
166.99
203.74
247.02
293.76
338.74
374.27
391.30
382.43
345.56
286.15
216.17
149.90
98.36
65.64
48.99
42.52
42.11
48.29
65.30
97.19
143.18
195.42
240.34
263.39
254.51
212.51
146.03
70.78
4.57
-37.84
-48.23
-25.94
23.22
89.17
159.28
219.78
257.38
261.96
230.18
168.40
92.86
25.41
-14.10
-15.65
16.45
65.07
106.96
121.81
100.00
45.68
-25.48
-92.58
-136.32
-144.56
-114.78
-53.44
26.13
106.91
171.57
206.30
204.55
169.64
114.91
60.06
24.48
20.07
46.65
92.42
139.34
170.32
174.98
151.27
104.05
42.07
-23.89
-81.74
-118.93
-125.08
-96.03
-37.38
35.65
102.84
146.09
155.30
130.50
79.70
14.75
-51.74
-107.94
-143.51
-151.02
-128.69
-82.71
-26.85
21.77
48.32
45.29
14.08
-36.94
-96.20
-152.11
-194.66
-215.76
-209.03
-171.76
-106.80
-23.57
63.39
138.19
187.89
206.00
193.30
157.53
109.20
58.17
11.35
-28.13
-60.44
-88.01
-114.35
-143.65
-178.65
-221.67
-273.02
-329.74
-384.77
-428.35
-451.31
-448.62
-422.19
-377.80
-324.57
-270.71
-220.65
-173.71
-125.43
-70.97
-4.45
65.49
133.29
190.79
230.76
247.14
238.37
211.24
179.40
155.86
145.47
146.71
153.44
160.49
166.10
171.78
179.45
189.50
199.26
203.77
200.42
188.55
170.06
148.36
127.02
108.18
91.23
76.09
59.89
40.48
16.39
-12.26
-44.07
-76.76
-108.37
-138.00
-166.43
-196.13
-229.13
-266.77
-309.38
-356.75
-408.35
-463.07
-518.40
-569.70
-610.80
-634.70
-636.38
-614.70
-573.10
-518.09
-456.69
-394.20
-333.43
-275.60
-221.24
-171.24
-126.72
-88.25
-55.17
-25.28
4.72
38.26
77.28
120.83
164.00
199.04
218.37
218.32
202.07
179.28
162.42
161.37
179.65
213.98
257.53
303.95
349.65
392.92
431.29
459.56
470.48
458.00
420.72
362.99
292.77
217.92
143.86
73.37
8.65
-46.14
-84.07
-97.62
-82.00
-38.59
24.13
92.49
151.28
187.88
194.81
170.74
119.86
50.92
-23.91
-90.56
-135.04
-146.77
-122.08
-66.44
6.01
75.50
122.50
133.66
105.89
47.24
-25.70
-92.67
-135.74
-144.45
-118.76
-68.60
-10.32
38.60
64.71
61.23
28.16
-29.24
-102.43
-180.90
-252.94
-306.33
-330.48
-319.26
-274.08
-204.78
-127.53
-60.80
-20.25
-14.99
-46.05
-106.81
-185.03
-266.03
-335.66
-383.23
-403.56
-397.64
-371.59
-334.24
-293.86
-256.16
-223.57
-195.67
-170.45
-145.67
-119.81
-92.26
-63.14
-31.68
2.31
37.65
72.23
104.34
134.15
164.42
199.17
240.76
289.82
340.30
380.40
397.46
385.36
349.12
303.76
267.62
254.62
274.09
324.81
396.24
472.46
537.61
580.39
595.97
586.44
560.59
538.43
539.61
574.89
640.97
722.62
799.94
856.31
883.11
842.42
719.41
527.56
305.23
94.08
-80.25
-210.83
-300.96
-356.91
-385.51
-388.40
-369.81
-339.69
-310.32
-290.78
-284.39
-288.31
-297.04
-306.31
-310.97
-311.15
-313.03
-323.18
-346.31
-384.09
-433.73
-489.56
-544.45
-587.98
-611.32
-609.56
-583.36
-535.68
-473.00
-401.90
-327.31
-251.07
-171.13
-86.13
7.58
94.09
165.75
214.40
236.50
233.35
212.27
186.76
169.57
166.49
173.83
185.80
196.61
204.71
211.83
219.96
230.07
239.39
243.61
238.92
226.10
207.61
187.21
167.61
148.97
131.19
111.03
84.73
49.67
7.06
-40.29
-88.61
-134.90
-177.84
-217.92
-257.70
-300.45
-349.31
-405.61
-468.96
-536.08
-600.70
-654.29
-688.32
-697.61
-681.97
-646.35
-598.52
-546.44
-495.59
-448.16
-403.80
-361.34
-320.32
-280.93
-243.31
-206.83
-170.15
-131.93
-91.80
-50.71
-10.47
26.85
60.16
89.73
116.94
143.46
170.42
197.84
224.68
249.42
270.73
288.21
302.70
316.33
332.17
353.35
381.59
415.37
449.26
474.53
481.83
464.70
422.00
357.90
279.32
192.65
101.82
9.27
-81.62
-164.31
-229.67
-269.08
-278.46
-260.35
-222.57
-174.80
-125.61
-81.73
-49.13
-33.62
-39.80
-68.20
-112.89
-162.13
-202.33
-223.70
-224.12
-209.01
-187.56
-168.06
-154.60
-146.70
-141.92
-138.46
-136.25
-136.18
-138.51
-141.99
-144.28
-142.94
-136.35
-124.38
-108.39
-90.28
-71.68
-53.40
-35.44
-17.46
0.66
19.46
39.06
59.09
78.93
98.00
116.03
133.03
149.01
163.96
180.37
200.60
225.92
255.66
287.57
318.90
347.68
373.23
396.02
421.48
453.05
489.64
525.27
552.58
567.62
572.15
571.63
570.94
578.55
596.71
620.94
642.63
654.65
656.09
652.27
650.21
654.43
675.59
720.46
790.14
879.00
976.35
1070.33
1150.56
1208.73
1177.37
1016.69
728.19
362.22
-8.23
-325.34
-564.58
-728.88
-834.43
-899.01
-926.51
-918.04
-877.28
-814.18
-742.91
-676.19
-621.69
-582.51
-558.69
-540.81
-519.80
-489.65
-450.04
-404.62
-360.64
-324.40
-300.84
-292.50
-294.04
-297.84
-295.50
-281.02
-252.06
-209.93
-159.40
-108.42
-66.49
-39.24
-28.92
-33.42
-48.28
-68.71
-90.84
-111.54
-128.44
-139.92
-140.06
-127.58
-106.58
-86.55
-79.07
-92.21
-125.12
-166.38
-197.41
-199.82
-164.76
-97.22
-14.99
58.07
101.60
106.44
77.09
28.58
-19.88
-51.77
-57.08
-33.35
14.76
77.05
139.64
187.60
208.75
198.02
159.94
108.53
62.38
37.07
38.74
61.57
90.80
109.68
106.69
79.84
36.53
-10.65
-49.77
-73.95
-82.90
-81.85
-78.67
-81.48
-96.48
-126.26
-168.59
-216.06
-257.34
-279.62
-272.58
-232.12
-162.94
-78.15
3.56
62.97
85.84
67.32
13.91
-57.90
-126.12
-169.79
-175.74
-142.87
-82.66
-15.25
37.41
58.66
42.09
-7.11
-74.87
-143.21
-195.27
-219.09
-209.16
-166.88
-100.12
-22.27
49.57
98.19
110.61
82.93
22.73
-52.53
-120.81
-162.24
-165.09
-128.50
-61.41
20.84
100.65
161.44
190.77
182.91
140.84
76.77
9.55
-40.42
-57.74
-37.44
13.37
78.24
137.08
172.30
173.55
139.66
78.20
3.09
-68.83
-121.72
-144.29
-131.84
-87.20
-19.66
57.50
130.18
186.16
217.50
221.81
202.30
166.74
125.19
87.09
58.25
39.32
26.27
13.16
-4.25
-26.13
-47.98
-62.57
-62.79
-44.31
-6.94
45.10
104.37
161.78
208.05
235.45
238.91
216.63
170.10
103.80
24.89
-56.86
-129.10
-178.57
-194.06
-171.18
-115.96
-45.33
17.27
50.24
42.57
-0.98
-61.76
-114.83
-139.91
-129.82
-92.75
-47.60
-15.31
-10.45
-36.92
-88.37
-152.19
-214.67
-264.22
-292.85
-296.49
-275.27
-233.80
-180.68
-126.30
-79.21
-42.69
-13.95
13.59
45.67
82.96
119.23
143.47
144.74
117.51
65.03
-1.23
-65.10
-111.03
-128.32
-113.28
-69.16
-5.26
64.76
125.24
161.93
166.10
138.61
90.96
42.37
12.79
14.61
47.39
97.89
145.68
171.51
164.18
123.40
58.39
-16.35
-85.62
-136.53
-160.33
-153.26
-117.14
-59.71
6.21
65.00
101.61
105.46
73.55
11.61
-67.10
-144.72
-203.11
-228.19
-213.22
-160.67
-81.88
5.77
82.90
133.24
147.74
126.57
78.89
20.05
-32.52
-63.84
-65.59
-39.00
5.08
49.57
77.41
78.68
55.45
21.52
-3.58
-3.83
25.14
73.54
121.71
149.16
143.82
106.92
51.87
-1.82
-36.14
-40.67
-14.99
32.19
86.33
131.83
156.61
156.13
135.14
105.80
82.97
78.33
95.76
130.11
170.33
203.67
220.32
215.64
189.73
145.74
89.14
28.53
-24.41
-55.85
-55.09
-18.56
47.42
127.64
202.35
253.69
272.10
257.66
219.00
166.84
110.37
55.50
5.28
-38.64
-74.78
-100.05
-112.31
-110.71
-100.07
-88.97
-86.28
-97.53
-123.05
-158.96
-197.97
-234.55
-250.33
-231.39
-176.93
-101.17
-22.33
49.05
104.20
149.76
189.58
224.20
249.89
262.47
263.26
255.80
245.24
235.65
229.79
226.60
223.96
217.64
204.39
183.88
158.57
132.47
108.72
89.61
74.74
63.09
52.17
40.07
26.58
12.90
0.89
-8.33
-14.15
-17.50
-19.39
-22.25
-27.71
-35.83
-45.68
-56.12
-66.61
-76.85
-86.93
-96.61
-108.61
-124.02
-141.58
-158.81
-173.93
-186.73
-197.79
-207.73
-216.57
-230.27
-251.55
-278.55
-306.88
-333.54
-358.31
-382.36
-406.50
-430.40
-463.16
-508.31
-561.82
-615.44
-663.23
-704.32
-741.44
-778.18
-816.83
-870.38
-941.13
-1017.44
-1079.75
-1112.19
-1109.36
-1075.80
-1021.85
-879.76
-636.25
-332.94
-38.89
197.63
363.95
468.66
526.69
550.14
555.93
542.21
511.25
472.09
436.49
411.55
398.26
392.88
392.59
396.69
395.12
386.57
376.22
370.65
371.80
376.96
382.72
387.85
393.65
395.72
397.74
405.62
422.53
445.86
469.69
489.47
504.05
514.93
521.45
531.38
552.63
588.54
635.67
686.41
732.34
765.59
779.50
729.19
596.62
402.18
194.83
18.58
-108.30
-189.62
-238.51
-267.90
-285.84
-289.50
-276.09
-248.58
-215.92
-187.71
-169.39
-161.43
-161.56
-166.05
-167.07
-160.25
-147.16
-134.46
-129.15
-134.79
-148.71
-167.26
-186.13
-198.65
-200.78
-193.09
-180.15
-167.39
-158.35
-153.89
-153.10
-153.79
-152.21
-146.07
-135.58
-123.30
-112.31
-104.68
-101.14
-101.84
-106.24
-112.56
-117.99
-118.88
-111.41
-92.99
-63.75
-27.42
9.41
39.92
59.67
68.13
68.10
63.75
58.36
53.27
48.20
42.44
36.10
30.19
25.92
23.80
23.22
22.75
20.95
17.00
11.17
4.58
-1.43
-5.92
-8.74
-10.48
-12.19
-14.73
-18.34
-22.51
-26.09
-27.83
-26.94
-23.17
-16.98
-9.25
-0.96
7.20
14.86
21.98
28.52
34.32
38.98
42.03
43.07
42.07
39.40
35.84
32.21
29.15
26.82
24.96
23.08
20.77
17.99
15.16
13.04
12.41
13.63
16.39
19.77
22.64
24.04
23.75
22.40
21.29
21.85
24.96
30.37
36.79
42.56
46.09
46.60
44.59
41.71
40.41
43.27
52.06
66.71
84.69
100.49
107.05
98.67
74.05
38.01
0.48
-27.02
-35.62
-21.97
10.49
53.36
96.56
131.25
151.76
155.74
143.54
114.74
71.99
19.46
-38.64
-99.01
-159.13
-215.87
-264.19
-296.87
-306.30
-287.15
-240.01
-172.07
-95.16
-21.90
37.92
79.36
102.20
109.55
106.39
97.84
88.17
79.81
72.76
64.55
51.67
31.81
6.05
-20.83
-42.46
-54.02
-54.80
-48.52
-41.24
-38.16
-41.26
-49.14
-58.73
-67.71
-75.69
-83.66
-92.38
-100.97
-106.95
-107.52
-101.54
-90.76
-79.68
-73.75
-76.82
-88.86
-105.27
-118.00
-118.23
-99.55
-60.34
-4.51
59.51
121.22
170.94
201.97
211.63
201.06
174.15
136.33
93.37
50.46
11.76
-19.66
-41.60
-52.31
-50.40
-35.19
-7.45
29.99
72.01
112.24
144.62
165.02
171.98
166.48
150.83
127.61
99.35
68.69
38.85
13.52
-3.93
-11.48
-9.05
1.87
19.20
41.35
67.50
96.95
128.22
158.55
184.64
203.96
215.93
222.19
225.62
228.79
232.74
236.65
238.43
235.92
227.62
212.94
191.81
164.35
130.90
92.78
52.96
16.09
-12.39
-27.99
-28.99
-17.22
2.46
23.83
41.25
51.07
51.88
43.82
27.66
4.18
-25.95
-61.57
-100.84
-141.36
-180.62
-216.87
-249.77
-280.63
-311.97
-346.18
-384.44
-425.67
-466.41
-501.45
-524.92
-531.58
-517.77
-482.27
-426.86
-356.69
-279.89
-206.20
-144.56
-100.49
-74.44
-61.91
-55.69
-49.01
-38.32
-24.23
-10.43
-1.03
1.91
-0.07
-2.33
0.60
12.50
33.55
60.15
86.41
106.46
116.53
115.90
106.50
91.92
76.27
63.52
57.17
59.51
70.63
87.37
103.42
110.91
103.35
78.71
40.93
-0.88
-35.77
-54.95
-54.98
-38.51
-12.40
15.53
39.66
57.86
70.96
80.78
88.28
92.96
93.54
89.49
82.32
75.55
73.50
79.40
93.96
114.94
138.14
159.07
174.61
183.90
188.26
190.12
191.48
192.62
191.60
184.92
169.12
142.45
105.84
62.57
16.86
-27.99
-70.79
-112.46
-155.20
-201.28
-251.98
-306.86
-363.44
-417.17
-461.98
-491.49
-500.62
-487.32
-453.22
-403.06
-342.92
-278.31
-213.01
-149.02
-87.36
-28.81
26.00
77.16
126.10
175.85
230.21
292.17
362.03
436.14
506.90
564.58
600.36
609.41
592.62
556.10
508.79
459.11
412.56
371.12
334.37
301.37
271.94
246.73
226.52
211.23
199.74
190.35
181.70
173.34
165.71
159.43
154.54
150.05
144.15
135.02
121.69
104.57
85.26
65.82
47.63
30.75
14.00
-4.21
-24.70
-46.65
-67.62
-84.56
-95.31
-99.68
-99.86
-99.51
-102.35
-110.98
-126.37
-147.83
-173.15
-198.67
-219.71
-231.78
-232.46
-223.06
-208.83
-197.17
-194.85
-205.07
-226.75
-255.98
-288.74
-323.02
-359.73
-401.46
-450.16
-505.04
-561.61
-611.94
-646.73
-658.26
-643.87
-608.02
-561.52
-517.41
-485.50
-468.22
-460.29
-452.44
-436.86
-411.37
-379.69
-348.19
-321.58
-300.31
-281.18
-260.22
-235.76
-209.42
-185.09
-166.23
-153.76
-145.57
-137.87
-127.05
-111.51
-92.35
-72.59
-55.77
-44.31
-38.65
-37.32
-37.78
-37.60
-35.41
-31.01
-25.00
-18.03
-10.23
-1.04
10.46
25.04
42.91
63.57
86.13
109.68
133.65
157.82
182.27
207.02
231.93
256.82
281.52
306.08
330.72
355.67
381.11
407.26
434.63
463.96
495.83
529.69
563.06
591.30
608.43
608.74
588.58
547.91
490.42
422.36
350.41
279.54
212.55
151.23
98.09
57.08
32.04
23.95
28.72
38.05
43.21
39.72
29.78
20.54
18.91
26.57
38.15
44.07
35.88
10.57
-29.05
-77.64
-131.26
-188.70
-249.60
-311.05
-365.62
-402.79
-413.18
-392.93
-345.59
-280.78
-210.03
-142.64
-83.31
-31.86
15.35
63.47
117.40
179.91
249.96
321.79
385.60
430.23
447.28
434.36
395.61
339.70
276.51
214.66
160.91
120.51
97.19
91.97
101.73
119.36
136.34
146.83
150.43
151.70
156.21
165.79
176.12
178.12
162.93
127.22
75.96
21.35
-21.46
-39.70
-26.96
15.06
77.44
146.98
210.16
256.62
281.15
283.73
267.92
238.66
200.53
157.12
111.47
66.57
25.52
-9.24
-36.57
-57.30
-74.23
-90.86
-110.53
-135.49
-166.74
-203.99
-245.70
-288.82
-328.53
-358.95
-374.31
-371.02
-349.01
-312.19
-267.70
-224.49
-191.57
-175.97
-180.67
-203.12
-235.16
-265.17
-282.14
-279.90
-259.44
-227.76
-193.97
-164.96
-143.21
-128.08
-118.38
-114.47
-118.02
-129.11
-144.16
-155.97
-156.98
-143.28
-117.12
-85.42
-55.65
-31.52
-10.93
11.98
42.77
82.66
127.32
168.82
199.45
215.14
216.74
208.79
196.40
182.95
169.30
154.90
139.89
126.96
121.61
130.38
157.91
203.63
260.54
316.65
358.84
377.69
370.63
342.14
300.95
255.95
212.74
172.61
133.94
94.48
53.33
11.43
-29.59
-68.88
-107.17
-146.61
-189.72
-238.13
-291.65
-347.90
-403.41
-455.07
-501.36
-542.27
-578.20
-608.08
-628.41
-633.92
-619.86
-584.69
-531.54
-467.57
-401.39
-340.06
-287.05
-242.16
-202.89
-166.27
-130.18
-93.68
-56.65
-19.27
18.22
55.73
93.33
131.05
168.90
206.99
246.00
287.38
332.93
383.43
437.04
488.38
529.31
551.49
549.52
522.98
476.24
416.27
349.96
282.65
218.52
161.97
118.38
93.17
89.62
106.69
138.59
176.31
210.26
232.83
239.51
228.73
201.42
160.34
110.05
56.57
6.36
-35.70
-68.02
-92.76
-114.56
-137.96
-165.13
-194.69
-222.18
-241.65
-247.57
-236.34
-207.06
-161.82
-105.55
-45.60
9.23
50.10
69.93
65.33
37.72
-6.75
-58.73
-108.46
-149.00
-178.47
-200.15
-219.95
-242.45
-267.46
-289.06
-298.14
-286.71
-251.90
-197.30
-131.12
-62.82
-0.31
50.79
86.27
102.36
96.60
70.07
29.57
-12.29
-40.29
-42.25
-14.15
37.93
100.00
156.06
194.12
209.75
205.75
188.89
166.08
142.39
120.83
103.18
90.69
83.40
79.75
77.32
74.71
73.51
78.33
94.33
123.24
160.95
198.07
223.75
230.69
217.88
190.02
154.10
115.43
75.76
33.94
-12.03
-63.25
-119.25
-178.34
-237.75
-293.38
-339.73
-370.52
-380.29
-366.49
-330.71
-278.38
-217.23
-154.69
-96.37
-45.32
-3.13
28.70
48.02
52.18
39.17
8.66
-37.34
-94.43
-156.21
-214.96
-262.73
-292.59
-300.19
-284.67
-248.98
-198.91
-141.13
-80.90
-20.89
38.37
96.54
151.32
197.97
231.09
247.71
249.76
243.80
237.88
237.38
241.90
245.17
238.46
214.86
172.27
113.37
43.27
-32.74
-110.07
-183.64
-246.48
-289.99
-306.83
-294.63
-258.13
-208.27
-157.69
-115.59
-84.41
-59.99
-34.45
-0.60
44.76
99.48
156.44
205.77
238.01
247.30
233.57
202.76
164.19
126.74
95.16
68.46
41.18
6.67
-39.09
-95.31
-156.29
-213.44
-257.96
-283.31
-286.68
-269.02
-234.08
-186.63
-130.77
-69.45
-5.25
58.29
115.94
161.52
190.17
200.22
193.91
176.27
152.91
128.25
105.06
85.11
69.75
60.09
56.26
56.48
57.25
54.42
45.18
29.47
10.10
-8.88
-24.25
-35.48
-44.77
-55.41
-69.34
-85.10
-97.63
-100.00
-86.42
-55.04
-9.26
43.10
92.55
130.85
153.40
159.95
154.12
141.78
129.14
120.92
119.05
122.27
126.96
128.75
124.49
113.49
97.69
80.70
66.36
57.00
52.58
50.60
46.65
35.42
12.03
-26.57
-79.77
-142.12
-203.56
-251.68
-275.31
-268.42
-232.62
-176.76
-113.91
-56.87
-14.11
12.05
24.75
30.01
33.59
39.30
48.70
61.85
78.28
97.22
117.39
136.98
153.86
166.04
172.29
172.27
166.52
156.63
145.38
136.99
136.38
147.20
169.48
198.35
225.03
240.17
238.34
220.80
194.85
169.92
152.56
143.18
136.52
125.08
103.66
72.04
34.53
-2.99
-36.37
-65.15
-91.94
-120.06
-151.53
-186.34
-223.29
-261.24
-299.28
-335.60
-365.98
-383.66
-381.76
-357.28
-314.33
-264.23
-221.90
-200.09
-204.28
-230.99
-269.92
-308.54
-336.39
-347.41
-339.70
-314.02
-272.43
-217.93
-154.59
-87.50
-21.83
38.48
92.20
140.86
187.78
236.33
288.09
341.85
393.65
437.83
468.59
481.50
474.30
447.24
402.93
346.04
282.72
219.45
161.45
110.94
66.39
23.64
-21.30
-69.12
-115.68
-153.80
-177.21
-184.61
-181.11
-175.55
-175.48
-182.63
-192.05
-195.53
-187.10
-166.99
-141.44
-118.65
-103.61
-95.51
-89.30
-80.43
-68.95
-60.12
-60.77
-74.10
-96.60
-119.31
-132.84
-132.67
-121.29
-105.74
-92.34
-82.46
-72.01
-54.96
-28.04
6.42
41.39
68.67
82.79
82.87
72.01
55.15
36.91
20.59
7.94
-0.60
-5.60
-8.30
-10.12
-12.19
-14.80
-17.46
-18.93
-17.46
-10.95
2.85
25.81
58.56
99.48
144.36
186.66
219.06
235.43
232.50
210.61
173.47
126.81
76.77
28.55
-14.80
-52.38
-84.80
-112.79
-135.68
-150.79
-153.88
-140.90
-110.23
-64.36
-9.69
45.40
93.47
130.30
155.37
170.47
177.27
175.92
164.72
141.72
106.48
61.14
10.73
-37.97
-77.83
-103.04
-110.23
-99.24
-72.94
-36.36
4.95
46.37
85.01
119.93
151.60
181.09
209.46
237.14
263.76
287.73
305.99
314.69
311.10
296.02
275.20
258.13
254.15
267.84
296.12
329.39
355.77
366.79
360.87
342.91
320.87
301.34
286.90
276.36
267.41
259.08
252.43
249.21
249.91
252.52
252.99
246.91
231.38
205.96
173.00
136.44
100.28
67.21
38.02
11.94
-12.27
-35.47
-57.82
-78.45
-95.95
-109.12
-117.55
-121.76
-122.98
-122.59
-121.87
-122.54
-125.79
-132.23
-141.90
-154.41
-169.24
-185.80
-203.37
-221.74
-243.18
-269.71
-302.27
-340.11
-381.19
-422.89
-462.78
-498.47
-529.24
-559.55
-593.26
-632.15
-675.53
-721.82
-770.13
-820.02
-869.03
-913.45
-953.56
-986.42
-1007.06
-1010.66
-995.85
-966.17
-927.98
-885.76
-843.58
-811.32
-794.48
-793.15
-802.32
-814.83
-824.89
-829.28
-825.38
-760.87
-612.05
-387.65
-127.56
120.41
324.18
473.58
562.69
612.69
640.11
646.70
632.51
600.25
557.22
513.52
476.26
448.97
433.89
428.43
422.76
409.61
386.60
356.63
325.16
296.81
274.07
258.87
249.72
240.74
227.83
210.08
189.77
170.62
155.56
145.95
142.66
144.29
147.26
148.86
147.95
144.89
140.72
136.03
130.86
125.22
118.41
109.29
97.43
83.21
67.56
51.62
36.17
21.62
8.36
-3.44
-13.37
-20.75
-24.81
-24.99
-21.13
-13.61
-3.12
9.55
23.92
39.96
58.04
78.65
101.86
127.03
152.72
177.10
198.62
216.65
231.76
245.53
259.80
275.74
293.25
310.97
327.01
339.87
349.36
356.83
364.71
375.78
392.51
416.64
448.76
487.74
530.00
569.44
598.31
609.27
598.03
564.88
514.66
454.71
391.80
329.58
267.99
204.87
138.86
72.18
11.25
-35.26
-60.18
-61.40
-43.27
-14.74
14.15
36.24
49.40
55.26
56.30
53.01
43.28
24.46
-3.71
-37.62
-70.93
-97.86
-116.50
-129.79
-143.85
-164.72
-195.32
-234.86
-280.45
-329.52
-381.13
-435.29
-490.77
-543.02
-584.60
-607.66
-607.48
-584.88
-545.92
-499.09
-451.91
-408.01
-366.78
-325.46
-281.44
-234.07
-184.71
-135.39
-87.00
-38.62
11.85
66.21
124.73
185.95
247.31
305.96
359.13
403.90
436.71
453.60
451.24
428.48
387.60
334.28
275.95
219.42
168.63
124.21
84.53
47.77
13.39
-17.42
-42.53
-59.90
-68.27
-67.73
-59.60
-46.06
-29.75
-13.43
0.35
9.60
13.28
11.64
6.36
-0.17
-5.88
-10.26
-15.20
-25.11
-45.85
-82.76
-137.72
-206.85
-279.97
-342.84
-381.72
-388.49
-363.85
-316.90
-261.17
-209.05
-167.18
-134.93
-106.47
-74.65
-34.49
15.51
74.12
138.60
205.27
269.10
323.44
361.17
377.23
370.98
347.30
314.78
282.13
254.69
233.08
214.19
194.18
171.12
146.20
122.84
104.79
94.31
91.36
94.01
99.33
104.36
106.99
106.10
101.65
94.61
86.95
81.39
80.61
86.22
97.55
111.22
121.76
123.46
112.37
87.59
51.39
8.25
-36.68
-78.77
-114.65
-142.87
-164.37
-182.58
-202.57
-228.84
-262.63
-300.23
-333.47
-352.82
-351.54
-328.56
-288.75
-240.26
-190.80
-144.68
-102.50
-62.73
-24.26
11.99
43.19
66.28
79.88
85.22
85.61
84.57
84.02
82.86
77.16
61.90
33.60
-7.15
-54.99
-101.20
-136.94
-156.56
-159.12
-147.72
-127.11
-101.33
-72.55
-41.96
-11.45
15.42
33.88
40.02
32.78
14.79
-8.82
-32.62
-53.08
-69.23
-81.76
-91.49
-98.15
-100.59
-98.41
-93.78
-92.00
-99.90
-122.36
-158.93
-202.55
-241.75
-264.84
-264.43
-239.55
-194.98
-138.82
-80.04
-27.45
10.73
27.77
20.19
-10.04
-54.84
-101.83
-138.47
-156.47
-154.28
-136.33
-109.82
-81.10
-53.53
-27.52
-2.15
23.20
48.00
70.90
90.63
106.76
119.86
131.06
141.40
151.23
159.84
165.98
168.18
165.29
156.70
142.41
123.11
100.01
75.05
50.77
30.25
16.53
11.90
17.04
30.25
47.68
64.05
74.25
74.81
65.06
47.16
25.41
5.00
-9.31
-14.33
-9.11
4.74
23.31
41.29
53.32
55.57
46.98
29.50
7.34
-14.46
-31.43
-40.61
-40.72
-32.22
-17.21
0.72
17.01
27.23
28.54
20.77
6.77
-8.57
-19.88
-23.10
-16.65
-1.65
18.55
39.24
55.36
62.58
58.42
43.19
20.40
-3.81
-22.25
-29.02
-21.48
-1.39
25.52
51.29
68.19
71.21
59.63
37.17
10.67
-12.16
-25.23
-25.77
-14.74
3.95
24.95
42.99
53.95
55.40
46.88
30.20
9.31
-10.37
-23.50
-26.86
-20.87
-9.68
0.59
4.67
0.68
-8.96
-18.60
-21.96
-14.86
3.12
28.63
55.80
78.12
90.07
88.31
72.41
45.12
12.18
-18.75
-39.86
-45.44
-33.77
-8.05
24.30
53.83
72.13
74.52
61.58
38.60
13.56
-5.76
-14.39
-11.34
0.63
16.63
31.63
41.96
45.93
43.63
36.45
26.78
17.79
13.12
15.94
27.85
47.95
72.79
97.27
116.34
126.49
126.64
117.98
103.24
85.59
67.85
52.26
40.74
35.12
37.08
47.41
65.13
86.95
107.66
121.58
124.46
115.06
95.66
71.21
47.61
29.89
21.03
21.50
29.57
41.80
53.76
60.81
59.08
46.26
21.98
-12.58
-55.33
-103.43
-153.20
-199.59
-236.33
-257.41
-259.49
-243.88
-216.77
-186.99
-162.08
-145.17
-134.09
-123.50
-108.75
-88.98
-67.78
-51.22
-44.44
-49.04
-62.41
-79.18
-93.69
-102.02
-102.84
-97.00
-86.57
-73.73
-60.27
-47.49
-36.28
-27.41
-21.48
-18.76
-18.95
-21.03
-23.39
-24.20
-22.04
-16.28
-7.37
3.30
13.67
21.38
24.23
20.65
10.13
-6.40
-26.45
-46.27
-61.62
-68.94
-66.41
-54.54
-36.01
-14.78
5.17
20.90
30.88
34.94
33.60
27.64
18.03
6.14
-5.97
-15.53
-19.54
-15.73
-3.48
15.61
37.90
58.74
73.81
80.43
78.17
68.66
54.85
39.95
26.68
16.82
11.26
10.09
12.78
18.22
24.86
30.89
34.79
35.83
34.45
31.99
29.82
28.43
26.72
22.35
12.97
-2.26
-21.68
-41.33
-56.17
-61.96
-56.65
-40.99
-18.05
7.79
31.90
50.21
59.65
58.61
47.28
27.99
5.13
-15.79
-29.51
-32.84
-25.86
-11.98
3.32
14.49
17.95
13.13
2.34
-10.44
-21.08
-26.46
-25.12
-17.28
-4.53
10.64
25.49
37.63
45.53
48.57
46.83
40.61
30.44
17.31
3.13
-9.03
-15.69
-14.08
-3.64
13.41
32.50
48.34
56.81
56.30
47.91
34.58
19.74
6.16
-4.50
-11.49
-14.42
-12.90
-6.64
4.17
18.19
32.67
43.74
47.38
40.75
23.38
-2.20
-30.77
-55.58
-70.24
-70.53
-55.76
-28.92
4.05
35.66
58.71
67.73
60.27
37.51
4.31
-31.67
-61.49
-77.26
-74.34
-52.77
-17.62
22.20
55.98
74.01
70.27
44.43
2.58
-43.93
-81.43
-98.19
-88.28
-53.73
-3.88
47.62
87.19
105.16
98.14
69.32
27.08
-17.38
-52.94
-71.32
-69.13
-48.58
-16.61
17.71
46.27
64.53
72.58
74.24
74.74
78.14
85.35
93.79
98.59
94.78
79.88
55.49
27.33
3.51
-8.16
-2.67
20.63
58.21
103.50
148.48
185.20
206.74
208.00
186.61
143.84
85.28
20.66
-37.64
-77.24
-89.01
-70.10
-25.42
33.28
90.68
132.27
148.74
137.95
104.34
55.85
0.21
-57.90
-117.51
-179.49
-243.38
-304.97
-356.42
-389.34
-399.08
-387.79
-363.95
-338.17
-317.47
-301.26
-281.70
-248.51
-195.37
-124.03
-43.76
33.18
97.05
143.58
173.35
188.81
191.78
183.13
164.42
139.17
112.78
90.43
74.84
65.07
57.75
49.49
39.01
27.49
17.28
9.93
5.19
1.35
-3.46
-9.86
-17.00
-23.19
-27.25
-29.32
-30.87
-33.80
-39.32
-47.15
-55.60
-62.46
-66.16
-66.47
-64.42
-61.47
-58.49
-55.29
-50.90
-44.35
-35.50
-25.35
-15.66
-8.12
-3.52
-1.54
-1.09
-1.07
-1.05
-1.48
-3.29
-7.16
-12.87
-19.11
-23.92
-25.46
-22.87
-16.44
-7.36
3.14
14.33
26.15
38.92
52.69
66.91
80.52
92.33
101.36
106.97
108.73
106.12
98.69
86.22
68.93
47.57
23.26
-2.59
-28.28
-51.82
-70.95
-83.45
-87.60
-82.65
-69.11
-48.70
-23.99
2.16
27.03
48.36
64.63
75.36
81.45
84.95
88.38
93.64
100.92
108.45
112.98
111.05
100.27
80.31
53.27
23.01
-5.87
-29.60
-46.37
-56.66
-62.60
-66.50
-69.54
-71.34
-70.81
-67.68
-63.64
-61.84
-65.01
-73.19
-82.86
-88.38
-84.87
-71.06
-50.14
-28.34
-12.02
-5.17
-8.31
-19.38
-35.25
-53.23
-71.64
-89.54
-106.18
-120.46
-131.12
-137.30
-139.19
-138.03
-135.32
-131.53
-125.02
-112.09
-88.60
-52.53
-5.84
45.52
93.76
132.60
159.75
177.08
188.52
196.94
201.78
199.02
183.23
150.80
102.55
44.65
-12.54
-57.76
-82.90
-85.98
-71.87
-50.03
-30.30
-18.76
-15.74
-17.07
-17.73
-15.40
-11.82
-11.31
-17.47
-30.46
-46.69
-60.86
-68.96
-70.01
-66.07
-60.67
-57.09
-57.72
-64.00
-76.41
-93.90
-113.39
-129.90
-137.90
-133.64
-116.79
-90.56
-59.93
-29.27
-0.77
25.36
49.35
70.35
86.23
94.85
95.83
91.34
85.37
81.74
82.14
85.21
87.39
84.84
75.58
60.59
43.58
29.47
22.28
23.50
31.58
42.68
52.36
57.27
56.16
49.85
40.42
30.24
21.33
15.25
13.02
15.10
20.88
28.49
35.04
37.56
34.26
25.52
13.87
3.14
-3.05
-2.65
4.30
15.91
29.24
41.12
48.90
50.88
46.69
37.52
26.03
15.75
9.98
10.50
16.74
25.64
32.68
33.51
25.73
9.92
-10.38
-29.89
-43.36
-47.29
-40.93
-26.35
-7.67
10.11
22.43
26.26
20.87
8.16
-7.81
-21.90
-29.48
-27.99
-17.72
-1.57
16.16
31.30
40.75
42.80
36.89
23.42
3.90
-18.81
-40.56
-56.69
-63.44
-59.26
-45.35
-25.11
-2.99
16.74
30.74
36.87
34.35
24.07
8.70
-7.53
-19.86
-24.56
-20.21
-8.21
7.95
24.02
36.28
42.18
40.39
30.65
13.94
-7.15
-28.36
-44.58
-51.39
-46.91
-32.59
-12.85
6.66
21.05
27.53
25.82
17.66
6.05
-5.51
-13.75
-16.35
-12.80
-5.03
2.80
5.58
-0.70
-16.89
-39.75
-62.66
-77.87
-79.29
-64.69
-36.38
-0.16
36.57
66.90
85.80
90.66
81.44
60.60
32.99
5.26
-15.44
-23.43
-16.39
3.59
30.56
56.67
74.64
79.94
71.67
52.37
26.88
1.09
-19.46
-30.57
-30.19
-18.83
0.48
22.85
42.53
54.17
54.19
41.77
19.39
-7.71
-32.91
-50.19
-55.89
-49.47
-33.26
-11.42
11.31
30.58
42.99
46.48
40.65
27.04
8.96
-9.04
-22.39
-27.73
-23.88
-12.03
4.65
22.09
36.39
44.89
46.98
44.30
40.17
38.38
41.71
50.73
63.66
76.98
86.79
90.13
85.76
74.41
58.45
41.49
27.80
21.46
25.44
40.55
64.76
93.54
121.03
141.78
152.42
152.34
143.52
129.30
112.95
96.51
80.44
63.85
45.09
22.51
-5.38
-39.71
-80.93
-128.10
-177.87
-224.24
-259.62
-277.50
-275.18
-255.22
-224.32
-190.40
-159.39
-133.59
-112.33
-94.07
-78.19
-65.50
-57.27
-53.91
-54.49
-57.42
-61.47
-66.28
-71.94
-77.99
-82.91
-84.35
-80.11
-69.15
-52.18
-31.51
-10.51
7.22
18.75
22.56
18.96
10.03
-1.00
-10.70
-16.39
-16.77
-11.99
-3.21
7.96
19.90
31.13
40.23
45.76
46.32
41.11
30.43
16.08
1.02
-11.50
-19.03
-20.93
-18.54
-14.66
-12.27
-13.26
-17.61
-23.42
-27.71
-27.61
-21.46
-9.30
7.19
25.10
40.97
51.32
53.33
45.49
28.29
4.51
-21.06
-42.75
-55.53
-56.52
-45.76
-25.98
-1.74
21.89
40.27
49.94
49.09
37.94
19.04
-2.93
-22.21
-33.48
-33.63
-22.76
-4.22
16.67
34.36
44.67
45.71
37.90
23.59
6.26
-10.23
-22.44
-28.09
-26.64
-19.45
-9.36
0.13
6.01
6.75
2.68
-4.22
-11.24
-16.06
-17.52
-15.77
-11.78
-6.49
-0.19
7.52
17.14
28.43
39.84
48.72
52.31
48.86
38.53
23.37
6.60
-8.39
-18.96
-23.56
-21.57
-13.11
1.04
19.20
38.53
55.11
64.63
63.72
51.37
29.81
4.19
-18.73
-32.70
-33.92
-22.22
-1.00
23.86
45.66
58.65
59.44
47.74
26.51
1.18
-21.69
-36.22
-38.86
-29.38
-10.77
11.78
32.50
46.53
50.84
44.77
29.99
10.21
-9.63
-24.51
-30.68
-26.84
-14.37
3.17
21.28
35.87
44.04
44.40
37.01
23.28
5.93
-11.03
-22.95
-25.56
-16.28
4.67
34.10
66.40
94.97
113.91
119.44
110.89
90.89
64.70
38.80
19.19
9.83
11.80
23.48
41.51
62.05
81.86
98.83
111.93
120.67
124.84
124.28
119.02
109.49
96.77
82.38
68.01
55.24
45.18
38.13
33.40
28.95
21.30
5.95
-21.27
-62.05
-113.49
-167.34
-211.47
-233.73
-226.59
-190.63
-134.90
-73.92
-22.38
9.85
20.25
12.75
-5.57
-28.48
-52.92
-78.98
-107.99
-140.21
-173.61
-204.19
-227.37
-239.57
-239.28
-226.92
-204.18
-173.38
-136.94
-97.54
-58.35
-23.01
4.80
22.31
28.62
25.37
16.51
7.28
2.52
5.04
14.75
28.78
42.54
51.40
52.16
44.20
30.10
15.23
6.34
9.33
26.79
56.50
91.98
124.83
147.92
157.89
155.66
144.82
129.17
110.99
90.75
68.42
44.80
21.87
2.08
-13.12
-24.05
-32.31
-39.48
-45.81
-50.04
-50.29
-45.58
-36.87
-26.87
-18.73
-14.54
-14.33
-16.34
-18.17
-18.07
-15.64
-11.60
-7.14
-3.06
0.47
3.74
6.97
9.99
12.30
13.31
13.00
11.97
11.40
12.64
16.59
23.40
32.39
42.27
51.49
58.77
63.58
66.55
69.52
75.12
85.94
103.57
127.79
156.43
186.10
213.30
235.64
252.45
264.61
273.81
281.74
289.72
298.57
308.65
319.61
330.03
337.29
338.04
329.33
309.81
280.43
244.11
204.47
164.37
125.04
86.29
47.42
8.32
-30.22
-66.77
-100.28
-130.73
-159.21
-187.45
-216.80
-247.60
-278.88
-308.95
-336.13
-359.71
-380.28
-399.58
-420.01
-444.13
-474.29
-512.15
-557.70
-608.22
-657.80
-698.04
-720.49
-719.55
-694.74
-650.79
-595.51
-536.57
-478.90
-423.95
-371.05
-319.49
-270.00
-224.56
-185.06
-151.77
-122.78
-94.79
-64.68
-30.98
5.61
42.64
77.46
108.54
136.29
162.92
191.39
224.41
263.66
309.61
361.42
416.60
470.64
517.00
547.98
556.79
539.70
497.50
435.13
359.81
278.49
195.83
113.71
32.18
-48.91
-128.65
-204.81
-274.57
-335.41
-385.59
-423.98
-449.53
-460.99
-457.17
-437.74
-404.18
-360.11
-310.66
-261.07
-215.00
-173.61
-135.47
-97.57
-56.77
-11.48
37.18
85.10
125.96
153.13
162.40
154.10
133.50
109.19
90.12
82.48
87.95
104.04
126.10
149.74
172.16
192.16
209.12
221.99
229.28
229.75
223.39
211.64
197.01
181.87
167.63
154.35
141.28
127.63
113.27
98.80
85.32
73.67
64.07
56.07
48.88
41.58
33.47
24.32
14.56
5.24
-2.16
-6.17
-5.88
-1.36
6.28
15.25
23.71
30.32
34.55
36.66
37.39
37.53
37.57
37.65
37.68
37.53
37.23
36.97
37.04
37.71
39.14
41.33
44.07
47.06
49.91
52.25
53.78
54.36
54.00
52.90
51.39
49.95
49.04
49.02
50.04
51.95
54.47
57.54
61.81
68.89
81.16
101.09
130.14
167.87
211.64
257.12
299.41
334.23
358.92
372.69
376.52
372.33
362.32
348.17
330.75
310.12
285.94
258.05
226.86
193.43
159.08
124.79
90.69
55.99
19.27
-20.79
-64.70
-111.80
-160.24
-207.67
-251.69
-290.53
-323.51
-350.94
-374.07
-395.10
-417.11
-443.61
-477.35
-518.60
-563.94
-606.47
-637.79
-651.11
-643.94
-618.96
-582.56
-541.89
-502.18
-465.59
-431.77
-399.50
-368.04
-337.36
-307.51
-277.87
-247.07
-213.59
-176.69
-136.92
-95.80
-55.31
-16.85
19.37
54.40
90.18
128.71
170.97
216.18
261.49
302.57
334.99
355.76
364.49
363.59
357.25
349.79
343.98
340.25
336.98
331.71
322.50
308.72
291.02
270.70
248.94
226.47
203.67
181.00
159.30
139.67
123.06
109.71
98.95
89.42
79.68
68.77
56.61
43.93
31.86
21.54
13.76
8.82
6.67
7.00
9.33
13.07
17.39
21.30
23.80
24.16
22.20
18.45
13.89
9.56
6.05
3.33
0.88
-1.85
-5.00
-8.19
-10.68
-11.93
-11.97
-11.44
-11.10
-11.34
-11.65
-10.81
-7.33
-0.35
9.96
22.44
35.68
49.00
62.90
79.00
99.07
123.84
151.95
179.77
201.91
212.54
207.08
183.61
143.73
92.64
38.22
-10.35
-45.09
-61.57
-60.66
-48.80
-36.49
-35.22
-53.63
-94.25
-151.92
-214.97
-268.77
-300.72
-304.36
-280.93
-237.98
-185.89
-134.03
-88.42
-51.56
-23.58
-3.72
8.97
15.72
18.46
19.64
21.35
24.42
27.89
29.61
27.39
19.94
7.59
-7.58
-22.29
-32.90
-36.58
-32.51
-22.41
-10.11
0.02
4.89
4.04
-0.31
-4.70
-6.31
-4.38
-0.40
2.87
3.03
-0.66
-6.72
-12.02
-13.08
-7.65
4.25
20.10
35.73
46.88
50.74
46.83
36.95
24.22
11.85
2.21
-3.55
-5.45
-4.28
-1.15
2.74
6.32
8.77
9.63
8.84
6.78
4.22
2.13
1.43
2.70
5.95
10.48
15.05
18.25
18.98
16.90
12.52
6.99
1.61
-2.58
-5.13
-6.17
-6.11
-5.43
-4.41
-3.10
-1.37
0.89
3.72
6.93
10.20
13.03
14.92
15.51
14.75
13.02
11.04
9.73
9.83
11.76
15.41
20.26
25.50
30.39
34.51
37.97
41.35
45.35
50.16
55.04
58.37
58.49
54.87
48.88
43.56
42.14
46.27
54.85
64.22
69.87
68.30
58.07
39.67
14.62
-15.12
-46.92
-77.05
-100.92
-114.42
-116.02
-108.08
-96.19
-86.56
-82.83
-84.37
-86.94
-85.57
-77.53
-63.74
-47.80
-33.63
-23.29
-16.34
-10.95
-5.61
-0.47
2.83
2.27
-3.07
-12.23
-22.73
-31.64
-36.99
-38.53
-37.73
-37.10
-39.09
-44.96
-54.27
-64.88
-73.74
-77.99
-75.93
-67.67
-54.89
-40.17
-25.98
-13.97
-4.66
2.42
8.48
14.97
23.07
33.18
44.59
55.57
64.05
68.50
68.69
65.72
61.40
57.18
53.51
49.85
45.35
39.72
33.63
28.50
25.71
25.95
28.86
33.32
37.95
41.73
44.20
45.49
46.04
46.19
45.97
45.13
43.29
40.27
36.32
32.09
28.52
26.54
26.85
29.84
35.50
43.54
53.48
64.77
76.86
89.17
100.92
111.04
118.11
120.56
117.00
106.65
89.82
68.01
43.89
20.65
1.10
-13.10
-22.04
-27.39
-31.83
-38.28
-49.65
-68.60
-97.39
-136.90
-185.12
-236.14
-280.60
-308.23
-311.55
-288.96
-245.57
-191.03
-135.77
-87.64
-50.64
-25.76
-12.93
-12.19
-23.48
-45.33
-73.67
-101.93
-122.49
-129.00
-118.32
-91.52
-53.64
-12.04
25.57
53.23
68.03
70.55
64.03
53.19
42.61
35.59
33.64
36.55
42.99
51.11
59.14
65.79
70.23
72.04
71.18
68.10
63.85
60.12
59.00
62.25
70.59
83.22
97.95
111.88
122.37
127.61
126.91
120.49
109.17
94.09
76.47
57.42
37.92
18.79
0.82
-14.99
-27.37
-35.04
-37.22
-34.20
-27.46
-19.26
-11.89
-6.84
-4.51
-4.37
-5.55
-7.27
-9.07
-10.75
-12.11
-12.86
-12.69
-11.47
-9.36
-6.91
-4.93
-4.24
-5.54
-9.13
-14.90
-22.27
-30.24
-37.64
-43.28
-46.23
-46.08
-42.98
-37.58
-30.80
-23.50
-16.22
-9.16
-2.25
4.57
11.03
16.53
20.28
21.65
20.56
17.54
13.58
9.68
6.51
4.20
2.51
1.09
-0.26
-1.62
-3.15
-5.14
-7.95
-11.70
-16.26
-21.36
-26.95
-33.22
-40.49
-48.70
-57.13
-64.48
-69.34
-70.99
-69.62
-66.20
-61.69
-56.50
-50.26
-42.23
-31.91
-19.47
-5.80
7.98
20.93
32.56
42.83
51.95
60.13
67.46
73.92
79.49
84.16
88.03
91.13
93.54
95.52
97.57
100.23
103.69
107.14
108.65
105.65
96.18
80.06
59.38
37.77
18.57
3.41
-8.74
-20.94
-36.91
-59.68
-91.11
-132.16
-183.15
-243.07
-308.27
-371.46
-422.43
-450.73
-449.55
-418.42
-363.63
-295.67
-225.04
-158.70
-98.71
-43.19
11.35
67.60
126.38
186.43
245.06
298.89
344.70
380.11
404.28
418.02
422.94
420.58
411.46
395.08
370.82
339.23
302.77
265.38
231.16
202.71
180.31
162.23
145.75
128.20
107.40
82.01
51.83
18.59
-13.65
-38.80
-50.52
-44.82
-22.18
11.99
49.18
80.69
100.38
105.77
97.44
77.47
48.18
11.80
-29.18
-71.67
-112.17
-147.53
-175.87
-196.94
-211.97
-223.16
-232.92
-243.13
-254.85
-267.89
-280.95
-291.94
-298.51
-298.68
-291.28
-276.20
-254.35
-227.65
-198.78
-170.74
-146.29
-127.40
-114.97
-108.88
-108.35
-111.93
-117.38
-121.39
-119.82
-108.66
-85.50
-50.85
-8.37
36.31
77.54
111.59
137.41
156.09
169.40
178.53
183.65
184.30
180.37
172.61
162.66
152.50
143.77
137.34
133.31
131.24
130.38
129.75
128.08
123.76
115.06
100.53
79.43
52.03
19.52
-16.13
-52.54
-87.19
-117.82
-142.87
-161.85
-175.49
-185.37
-193.20
-199.99
-205.59
-208.98
-209.07
-205.58
-199.39
-192.19
-185.56
-180.06
-174.85
-167.93
-157.09
-140.79
-118.91
-92.92
-65.40
-39.25
-16.80
0.77
13.50
22.25
28.10
31.93
34.12
34.76
33.85
31.60
28.44
25.02
22.06
20.18
19.69
20.39
21.56
22.09
20.86
17.19
11.09
3.25
-5.25
-13.30
-20.01
-24.69
-26.74
-25.57
-20.71
-12.17
-0.61
12.63
25.91
37.89
47.91
56.11
63.11
69.60
75.90
81.93
87.23
91.28
93.79
94.89
95.21
95.71
97.18
99.66
102.15
102.80
99.70
91.91
79.90
65.22
49.58
34.07
19.12
5.09
-6.97
-15.25
-17.78
-13.60
-3.50
10.19
24.53
37.07
46.37
51.89
53.37
50.57
43.39
32.22
18.11
2.60
-12.59
-25.88
-35.91
-41.54
-41.97
-37.11
-27.90
-16.19
-4.37
5.58
12.88
18.08
22.41
26.83
31.39
35.52
39.06
42.99
49.42
60.32
75.69
92.52
105.46
109.15
101.04
82.97
60.32
39.19
23.10
11.06
-2.00
-22.56
-54.96
-98.80
-148.42
-194.64
-227.99
-242.01
-235.24
-210.96
-175.23
-134.38
-93.25
-54.92
-21.52
4.93
22.50
30.33
29.89
25.31
22.27
25.96
39.24
61.97
91.91
125.97
161.30
195.16
224.44
245.12
252.87
244.37
218.93
179.10
130.19
78.52
29.32
-14.78
-54.12
-90.76
-126.40
-160.51
-189.73
-208.93
-213.55
-201.96
-176.61
-143.33
-109.15
-79.78
-58.13
-44.48
-37.67
-36.49
-40.40
-49.24
-62.58
-79.06
-96.27
-111.33
-121.73
-125.33
-120.38
-105.44
-79.43
-43.15
-0.19
42.75
76.83
92.89
84.92
52.55
1.88
-55.54
-106.54
-139.64
-148.11
-131.74
-96.94
-53.58
-10.77
26.70
60.04
93.34
130.50
172.01
213.28
245.61
260.42
253.32
225.71
184.00
134.73
82.74
32.27
-10.53
-39.67
-51.90
-48.06
-36.30
-19.91
-2.47
11.07
15.02
6.22
-17.12
-52.92
-94.83
-133.53
-159.03
-165.43
-151.66
-121.09
-80.10
-36.62
2.32
32.38
52.24
63.28
66.98
65.25
60.21
53.92
47.55
41.37
35.17
28.34
20.08
8.64
-6.82
-25.22
-43.34
-56.99
-62.53
-57.75
-42.66
-17.60
12.79
41.68
63.13
74.87
79.57
79.87
77.01
71.09
62.14
49.41
34.05
18.86
7.60
3.12
5.91
14.51
26.01
37.27
45.41
49.46
50.91
53.67
62.00
78.77
104.73
137.59
172.42
201.89
218.77
218.40
200.73
169.22
129.29
86.85
45.94
12.08
-10.44
-20.23
-22.09
-19.70
-15.38
-11.32
-8.18
-7.68
-11.18
-19.98
-34.94
-56.35
-83.24
-113.93
-145.55
-173.29
-191.19
-193.19
-175.76
-139.13
-87.16
-25.86
37.46
95.68
143.09
175.78
192.19
192.71
179.43
155.71
125.60
92.42
58.21
23.76
-10.80
-45.07
-78.16
-108.61
-134.56
-154.05
-165.88
-170.13
-168.69
-165.14
-163.56
-167.03
-176.15
-188.27
-198.21
-200.19
-190.12
-167.06
-133.48
-94.10
-54.12
-17.73
12.50
35.34
50.29
57.10
55.79
46.97
32.29
14.42
-3.40
-18.37
-29.12
-36.39
-42.83
-51.74
-65.46
-83.93
-104.45
-122.47
-133.35
-133.85
-123.09
-102.64
-75.68
-46.04
-17.00
9.41
32.55
52.73
70.32
84.90
94.87
98.14
93.40
81.35
65.05
48.92
36.94
31.03
30.56
32.99
35.08
33.53
25.09
6.54
-24.44
-67.64
-118.63
-168.72
-207.19
-225.21
-219.70
-194.68
-159.40
-124.04
-95.34
-74.48
-58.01
-41.00
-20.32
3.70
27.84
48.08
61.71
68.36
69.62
67.90
65.35
63.59
64.10
68.59
78.39
93.14
109.68
122.27
124.55
112.52
86.73
52.50
17.70
-10.58
-28.75
-37.38
-39.82
-39.87
-39.91
-40.35
-40.17
-38.04
-33.17
-25.60
-16.05
-5.64
4.40
13.01
19.47
23.47
25.08
24.65
22.87
20.71
19.23
19.45
21.89
26.24
31.37
35.63
37.51
36.33
32.49
27.28
22.34
19.07
18.17
19.55
22.58
26.40
30.24
33.65
36.49
38.93
41.32
44.13
47.68
52.06
56.99
61.83
65.96
69.07
71.63
74.86
80.37
89.51
102.66
119.07
137.04
154.52
169.78
181.69
189.67
193.49
193.17
189.16
182.65
175.72
170.98
170.49
174.72
181.75
187.72
188.08
179.25
159.67
130.13
93.28
52.81
12.67
-23.72
-53.92
-76.76
-92.47
-102.54
-109.32
-115.42
-122.77
-132.01
-142.08
-150.73
-155.65
-155.67
-151.63
-146.25
-143.13
-144.65
-150.50
-157.32
-160.07
-154.46
-139.01
-115.48
-87.80
-60.40
-36.23
-16.02
1.18
16.72
31.36
45.10
57.84
70.34
83.82
100.21
121.43
148.84
182.65
221.48
262.06
299.44
327.76
340.37
332.46
302.83
254.63
194.27
128.94
64.27
3.27
-53.30
-106.98
-159.19
-210.12
-258.62
-303.05
-342.41
-376.78
-406.78
-423.85
-419.88
-390.25
-337.37
-269.92
-198.13
-130.07
-70.21
-19.96
21.35
53.94
78.35
95.55
107.16
115.21
121.31
126.49
131.28
136.11
140.08
142.45
142.99
142.29
141.57
141.59
142.70
144.85
147.98
150.89
152.54
152.25
149.93
146.05
139.97
130.75
117.22
101.43
84.37
67.01
50.36
35.56
23.89
14.03
4.47
-5.83
-16.90
-28.77
-41.27
-54.18
-67.16
-79.73
-95.10
-116.20
-144.40
-178.81
-217.11
-256.34
-293.50
-325.82
-351.27
-373.68
-397.37
-425.50
-458.70
-496.17
-537.15
-582.08
-632.44
-659.85
-645.21
-581.93
-478.72
-351.84
-216.73
-85.54
31.77
127.60
198.28
240.46
256.26
251.98
236.20
216.69
198.77
185.32
177.80
176.90
178.52
179.89
179.52
178.30
178.61
183.15
194.22
213.37
241.46
273.70
304.36
326.52
333.68
321.59
290.14
244.33
193.11
146.56
111.14
89.05
78.02
73.87
72.77
72.41
71.66
69.92
65.51
56.14
40.58
19.05
-6.71
-34.15
-61.13
-85.56
-107.41
-127.81
-148.32
-169.98
-192.65
-214.16
-230.08
-234.87
-224.10
-197.07
-157.77
-114.05
-74.80
-46.53
-31.09
-25.64
-24.91
-24.14
-21.49
-17.23
-12.84
-9.31
-6.57
-3.81
-0.28
3.64
6.49
6.32
1.87
-6.87
-18.53
-30.84
-41.41
-48.14
-50.08
-47.19
-40.04
-29.15
-14.76
3.19
24.77
47.86
70.98
92.43
110.50
123.82
131.77
134.48
132.79
127.86
120.87
113.02
104.99
97.05
89.18
81.45
73.98
66.90
60.39
54.42
49.14
44.46
40.19
36.10
32.26
28.79
25.87
23.55
21.76
20.42
19.31
18.24
17.02
15.98
15.48
15.96
17.55
19.99
22.78
25.24
27.59
28.73
28.61
27.67
26.46
25.36
24.40
23.25
21.42
18.62
14.88
10.92
7.63
5.91
6.55
10.11
16.96
26.63
37.44
46.12
48.76
42.16
25.69
1.91
-24.14
-47.07
-63.55
-73.17
-78.23
-81.73
-85.66
-90.05
-93.51
-94.69
-93.35
-90.48
-87.45
-85.29
-84.03
-83.11
-81.94
-80.37
-78.47
-75.93
-71.54
-63.09
-48.75
-28.31
-3.85
20.80
41.42
55.02
60.70
57.71
47.18
31.17
11.91
-8.38
-27.38
-42.65
-51.99
-54.07
-49.01
-38.20
-24.30
-10.76
-1.14
1.72
-3.74
-17.20
-36.36
-57.36
-75.76
-88.26
-93.87
-94.14
-92.16
-91.08
-92.68
-96.89
-102.29
-107.18
-110.65
-112.78
-114.13
-114.85
-114.19
-110.82
-103.75
-93.16
-80.67
-68.87
-60.33
-56.41
-56.55
-58.25
-57.85
-51.82
-38.14
-17.34
7.22
30.36
46.73
52.89
48.54
36.47
21.12
6.59
-4.94
-13.55
-20.71
-27.85
-35.32
-42.30
-47.58
-50.38
-50.86
-49.97
-48.71
-47.50
-45.90
-42.98
-37.92
-30.39
-20.68
-9.48
2.47
14.67
26.91
39.12
51.26
62.99
73.53
82.06
88.10
91.80
94.09
96.35
99.67
104.34
109.66
114.46
117.95
120.39
123.20
128.35
137.24
149.93
164.80
179.10
189.92
195.16
194.38
188.97
181.82
176.30
175.27
180.28
191.19
206.37
223.04
237.81
247.49
249.85
243.90
229.90
208.98
182.28
150.42
113.31
70.54
22.23
-30.33
-84.48
-136.43
-181.81
-216.17
-235.52
-236.90
-219.26
-184.21
-136.14
-81.26
-25.95
24.70
67.42
100.24
121.49
129.30
121.96
98.94
61.79
14.40
-37.73
-88.40
-131.57
-161.84
-174.98
-168.54
-142.64
-100.57
-48.48
5.87
55.02
93.83
120.71
137.83
149.91
162.34
178.90
200.23
223.63
244.31
257.66
261.20
255.53
243.97
231.30
222.30
220.40
226.89
240.22
256.16
268.79
272.54
264.35
245.20
219.86
194.92
175.85
164.62
159.21
155.06
147.50
133.82
113.81
88.85
60.24
27.95
-9.46
-53.74
-105.25
-161.69
-218.11
-268.55
-308.12
-335.04
-351.31
-361.45
-370.50
-382.30
-399.01
-420.89
-446.31
-471.70
-491.33
-497.56
-482.85
-443.35
-382.32
-311.27
-246.11
-200.31
-178.59
-174.62
-174.11
-161.72
-127.91
-71.80
0.03
79.80
163.01
248.61
335.34
417.93
486.26
528.38
536.19
507.18
448.46
374.39
300.59
237.58
188.46
150.48
119.12
91.34
61.63
28.28
-6.23
-37.55
-63.39
-85.11
-106.27
-130.31
-159.03
-200.42
-258.02
-327.99
-401.01
-468.25
-524.64
-568.45
-599.42
-617.73
-634.51
-657.66
-687.41
-717.81
-743.56
-763.94
-781.81
-800.95
-758.21
-624.88
-421.33
-202.42
-13.86
127.92
227.05
294.61
341.62
376.53
394.43
392.02
373.02
347.32
324.23
308.48
300.22
298.09
300.51
298.02
284.59
261.05
233.93
209.79
192.00
180.18
173.06
169.32
162.81
149.91
131.33
111.56
93.30
80.16
72.49
69.80
71.06
72.55
71.67
67.42
60.82
53.08
47.02
41.06
34.20
26.10
16.01
4.26
-8.76
-21.80
-33.73
-43.75
-52.27
-59.38
-65.15
-71.40
-76.48
-79.52
-79.45
-75.27
-66.05
-51.69
-32.28
-8.27
19.53
51.98
85.87
118.66
148.29
173.28
192.42
205.15
211.14
210.67
204.89
194.20
179.45
161.31
140.52
117.67
92.55
65.28
36.74
8.86
-17.46
-41.29
-62.00
-78.87
-91.22
-99.91
-105.77
-108.94
-108.58
-105.76
-102.42
-101.21
-104.34
-113.53
-131.86
-161.77
-197.66
-232.79
-262.42
-283.19
-293.18
-291.13
-266.13
-215.35
-144.01
-75.24
-17.02
28.62
65.21
93.99
116.53
134.88
151.26
167.20
184.43
205.55
230.83
258.61
286.76
313.90
339.26
360.73
376.82
387.40
394.35
400.77
405.96
408.86
409.17
407.11
401.92
393.01
380.42
364.82
346.61
324.72
297.71
263.76
224.73
181.45
134.46
84.20
30.29
-25.95
-84.63
-145.03
-205.30
-262.76
-315.02
-359.89
-395.80
-424.05
-442.51
-452.66
-456.50
-456.16
-453.18
-448.19
-440.15
-426.52
-407.79
-378.12
-338.04
-290.48
-239.75
-189.92
-143.78
-102.09
-64.21
-34.26
-7.70
13.46
26.87
30.75
24.97
10.69
-9.95
-5.91
-13.14
-25.61
-43.87
-69.02
-102.29
-144.77
-196.81
-257.17
-322.33
-391.40
-452.88
-501.15
-532.69
-546.64
-544.47
-529.00
-503.22
-469.07
-431.28
-386.94
-337.38
-284.29
-229.35
-174.26
-120.72
-70.36
-23.44
17.90
56.05
90.24
119.44
143.03
161.17
174.99
186.38
198.88
214.52
235.72
261.33
288.84
315.98
341.28
364.13
384.56
404.74
426.31
450.09
474.26
495.74
511.81
520.53
520.58
498.77
446.99
366.42
267.82
165.20
69.44
-13.41
-81.24
-134.09
-173.03
-199.49
-213.15
-213.45
-201.60
-180.19
-151.80
-119.03
-84.53
-51.07
-19.86
7.73
30.07
44.65
44.81
26.83
-8.60
-56.27
-105.32
-149.72
-184.86
-207.02
-213.76
-203.49
-175.23
-129.22
-66.91
6.41
82.13
151.23
206.43
244.01
263.91
269.10
263.24
249.54
230.24
206.89
181.70
157.06
134.78
115.71
100.01
87.09
76.04
65.80
55.32
44.64
34.48
25.62
18.47
13.09
9.01
5.72
2.59
-0.91
-4.66
-8.22
-11.04
-12.87
-13.70
-13.91
-13.72
-13.48
-13.44
-13.57
-13.66
-13.48
-12.87
-11.84
-10.63
-9.22
-7.64
-5.94
-4.13
-2.21
-0.23
1.65
4.20
6.21
7.22
6.90
5.08
1.68
-3.24
-9.49
-16.78
-24.76
-33.29
-41.91
-50.28
-58.18
-65.44
-71.98
-77.66
-82.36
-86.07
-88.91
-90.88
-92.07
-92.64
-92.82
-92.97
-93.16
-93.52
-94.20
-95.40
-97.15
-99.46
-102.36
-105.88
-110.15
-114.82
-119.73
-124.87
-130.27
-135.98
-142.09
-148.75
-156.15
-164.54
-173.46
-182.56
-191.45
-199.63
-206.40
-210.86
-211.86
-207.65
-200.48
-190.84
-179.09
-165.57
-150.76
-135.17
-119.45
-104.28
-90.33
-78.31
-68.12
-59.66
-52.70
-46.92
-41.98
-37.62
-33.71
-30.32
-27.70
-25.63
-23.97
-22.45
-20.72
-18.46
-15.45
-11.69
-7.40
-2.95
1.68
6.67
12.49
19.79
29.20
41.04
55.12
70.80
87.12
103.45
119.53
135.67
152.53
170.83
190.89
212.42
234.58
256.31
276.90
296.16
314.55
332.93
352.40
374.15
399.22
428.03
459.58
490.97
517.39
533.28
534.05
517.92
486.65
444.86
398.24
351.52
307.38
266.55
228.93
194.63
164.28
138.65
117.82
100.80
85.81
71.08
55.59
39.39
23.32
8.45
-4.58
-15.86
-26.08
-36.17
-46.91
-58.65
-71.19
-83.81
-95.55
-105.41
-112.73
-117.34
-119.50
-119.90
-119.39
-118.70
-118.40
-118.74
-119.72
-121.19
-122.95
-124.84
-126.79
-128.69
-130.35
-131.38
-131.23
-129.30
-125.28
-119.18
-111.50
-102.94
-94.18
-85.58
-77.18
-68.78
-60.26
-51.82
-43.94
-37.25
-32.27
-29.20
-27.86
-27.84
-28.63
-29.79
-30.93
-31.65
-31.51
-30.11
-27.31
-23.35
-19.04
-15.47
-13.76
-14.61
-18.04
-23.35
-29.45
-35.21
-39.89
-43.18
-45.20
-46.14
-46.09
-44.97
-42.60
-38.89
-33.93
-28.07
-21.74
-15.35
-9.20
-3.54
1.37
5.22
7.68
8.57
7.91
5.97
3.22
0.17
-2.75
-5.24
-7.06
-8.11
-8.30
-7.74
-6.67
-5.49
-4.66
-4.49
-5.08
-6.21
-7.54
-8.68
-9.46
-9.95
-10.44
-11.29
-12.74
-14.78
-17.05
-18.95
-19.76
-18.86
-15.91
-10.97
-4.54
2.60
9.49
15.28
19.38
21.63
22.26
21.67
20.29
18.34
15.88
12.74
8.80
4.13
-0.90
-5.60
-9.25
-11.31
-11.67
-10.75
-9.39
-8.52
-8.81
-10.34
-12.58
-14.49
-14.98
-13.31
-9.39
-3.90
1.94
6.78
9.52
9.65
7.40
3.60
-0.60
-4.05
-6.00
-6.34
-5.56
-4.53
-4.09
-4.67
-6.03
-7.17
-6.63
-2.94
4.90
16.96
32.29
49.17
65.57
79.81
90.97
99.12
104.89
109.31
113.43
117.87
122.61
127.00
130.01
130.70
128.62
123.92
117.41
110.44
104.26
99.60
96.15
92.79
87.98
80.60
70.36
58.57
48.23
43.15
46.47
59.14
79.44
103.44
126.45
143.71
152.90
155.31
155.31
157.99
166.67
181.43
199.38
215.87
224.17
219.26
200.10
169.72
132.98
94.27
56.60
21.89
-8.77
-38.28
-69.99
-105.11
-142.04
-178.29
-212.42
-244.26
-274.14
-302.44
-333.78
-372.60
-419.69
-471.65
-523.74
-572.87
-617.99
-658.88
-666.17
-618.88
-517.83
-386.64
-253.55
-135.66
-37.93
41.12
105.02
154.83
190.83
210.87
214.82
206.17
189.71
168.65
143.99
117.65
92.48
68.23
43.34
17.70
-6.52
-26.45
-40.27
-47.47
-48.23
-43.41
-36.44
-31.45
-30.80
-34.36
-40.59
-47.62
-53.66
-56.94
-56.49
-53.07
-48.73
-45.19
-43.18
-42.86
-44.57
-49.06
-56.84
-67.28
-77.91
-84.42
-81.70
-66.14
-38.20
-2.90
31.99
59.31
75.44
81.32
80.84
78.45
76.89
76.26
75.16
71.93
66.03
58.43
50.74
44.01
38.70
34.75
31.82
30.54
32.41
39.27
51.93
68.57
84.53
93.16
89.91
74.44
51.17
26.72
6.59
-7.74
-17.35
-24.02
-27.55
-25.49
-15.00
4.83
31.05
58.32
81.44
97.77
106.95
110.06
107.11
96.21
77.92
54.19
29.00
7.16
-7.30
-12.63
-8.68
2.57
18.23
34.28
45.70
48.35
40.40
23.97
4.19
-11.87
-18.65
-13.58
2.15
23.25
42.91
55.13
57.30
49.95
37.24
24.05
14.68
10.64
9.48
6.63
-2.49
-20.60
-49.14
-81.41
-111.25
-137.30
-154.72
-159.64
-151.93
-136.89
-116.92
-100.61
-95.50
-105.55
-120.97
-128.14
-115.42
-79.75
-27.79
29.70
83.14
128.66
163.35
189.09
205.61
211.34
205.12
188.00
163.27
134.12
104.34
73.73
40.67
2.36
-42.82
-94.66
-151.39
-210.21
-268.91
-312.75
-332.16
-325.53
-301.29
-271.89
-247.20
-230.69
-219.15
-204.93
-179.40
-139.34
-86.97
-30.00
21.96
61.01
83.73
91.77
90.46
86.04
81.18
75.98
69.08
59.81
48.94
38.14
28.91
22.05
17.69
14.51
11.32
7.75
3.90
1.35
1.78
6.21
15.15
28.65
45.85
65.74
87.80
112.29
138.75
166.28
191.78
209.75
214.12
200.81
170.44
129.05
86.06
50.64
28.27
19.11
19.28
23.92
29.43
34.33
38.75
42.97
46.56
48.57
48.30
44.92
38.54
29.43
17.84
3.68
-13.10
-32.18
-52.42
-72.29
-90.35
-105.11
-115.97
-123.26
-128.26
-133.07
-140.09
-150.98
-163.88
-176.81
-185.08
-183.69
-169.99
-145.44
-115.74
-88.46
-69.55
-61.16
-61.70
-65.76
-68.24
-65.78
-57.13
-42.41
-22.12
3.30
33.13
64.67
95.17
121.60
141.70
154.63
161.25
163.57
163.79
163.30
162.26
160.42
157.00
151.62
144.58
136.79
129.55
124.40
122.65
124.78
129.87
134.53
133.58
121.96
97.31
61.84
22.21
-12.89
-36.41
-45.46
-42.15
-31.91
-20.61
-12.23
-8.22
-8.36
-11.96
-18.71
-28.88
-42.61
-59.48
-78.19
-97.17
-114.96
-131.09
-146.09
-160.75
-174.91
-186.37
-190.95
-184.20
-163.93
-132.09
-94.80
-60.23
-35.28
-23.06
-22.32
-28.80
-37.94
-46.88
-54.75
-61.71
-67.76
-71.72
-71.85
-66.71
-56.08
-40.91
-22.92
-4.00
14.61
31.99
48.03
62.76
75.92
86.81
94.56
98.44
98.28
94.66
89.17
83.03
77.39
72.89
69.48
66.68
63.89
60.75
57.18
53.47
50.19
47.87
46.77
46.73
47.43
48.44
49.32
50.00
49.85
48.41
45.32
40.31
33.24
24.31
14.03
3.23
-7.17
-16.25
-23.23
-27.73
-29.65
-29.21
-26.70
-22.49
-16.90
-10.36
-3.45
3.02
8.17
11.20
11.56
9.34
5.27
0.58
-3.41
-5.85
-6.70
-6.55
-6.18
-6.39
-7.18
-7.63
-6.25
-1.77
6.27
16.94
28.33
38.63
46.13
50.41
52.47
54.01
56.67
61.81
69.75
79.88
90.50
97.95
97.44
84.52
56.87
15.85
-32.90
-81.68
-123.03
-148.50
-154.59
-144.18
-123.20
-97.17
-71.43
-45.50
-20.19
0.92
12.42
9.02
-10.94
-43.71
-80.67
-111.13
-126.59
-120.60
-93.53
-51.27
-1.91
47.29
91.09
125.67
147.16
151.78
136.70
102.43
52.89
-5.42
-66.50
-126.55
-183.00
-232.32
-268.06
-282.67
-270.30
-231.52
-173.11
-106.41
-42.29
14.16
64.86
115.70
167.31
220.34
265.86
292.78
291.61
258.50
197.32
118.56
35.86
-37.68
-91.12
-117.61
-112.88
-78.18
-21.49
43.87
102.32
139.90
147.86
125.30
74.34
9.20
-49.47
-86.75
-99.89
-94.64
-78.36
-56.52
-32.06
-7.23
16.55
37.07
51.46
59.22
61.55
60.37
56.95
50.98
40.70
24.69
2.58
-24.35
-53.57
-81.62
-105.24
-122.45
-132.99
-138.15
-139.87
-140.82
-143.60
-148.91
-154.16
-153.97
-142.43
-116.28
-77.14
-31.26
12.47
45.97
65.28
71.59
69.64
64.65
59.81
55.70
51.54
46.69
41.56
37.42
35.49
35.96
37.79
39.25
38.68
35.45
30.20
24.47
19.92
17.70
17.93
19.73
21.60
22.05
20.20
16.08
10.56
4.88
0.19
-2.83
-4.23
-4.58
-4.67
-4.95
-5.37
-5.28
-3.71
0.16
6.73
15.90
27.25
40.15
53.62
65.98
74.83
77.53
72.24
59.12
40.66
21.21
5.24
-4.30
-6.98
-4.54
0.26
5.18
9.19
12.26
14.88
17.15
18.76
19.38
19.13
18.65
18.81
20.34
23.08
26.30
28.57
28.72
26.45
22.64
19.07
17.63
19.45
23.94
29.48
33.52
34.07
30.25
22.37
11.35
-1.84
-16.35
-31.85
-47.53
-62.88
-77.25
-90.29
-102.36
-114.51
-128.39
-142.51
-156.44
-165.29
-165.93
-157.02
-139.55
-116.30
-90.42
-64.36
-39.30
-16.02
5.43
24.41
40.23
52.45
61.11
66.93
71.03
74.90
79.47
85.43
92.41
99.31
104.91
108.27
109.26
108.02
105.10
100.72
94.82
86.40
74.19
57.15
35.03
9.74
-16.36
-40.61
-61.16
-77.00
-88.45
-96.58
-102.40
-106.75
-110.28
-113.92
-118.46
-123.86
-128.22
-127.66
-117.47
-94.29
-58.57
-15.24
27.75
62.72
85.01
94.48
94.40
89.40
83.08
77.13
71.98
67.91
66.30
68.64
74.70
81.03
81.49
69.36
40.65
-2.90
-54.52
-103.53
-139.93
-158.15
-158.32
-145.06
-124.45
-101.11
-75.61
-48.76
-20.02
10.34
40.50
67.90
90.14
105.78
114.58
117.71
116.18
111.27
103.47
92.53
77.74
58.53
34.97
8.28
-20.07
-49.18
-77.96
-104.85
-127.03
-140.30
-140.38
-125.06
-96.02
-59.17
-22.83
5.75
22.76
28.76
27.30
22.55
17.20
12.09
6.82
1.00
-4.59
-8.70
-10.52
-10.38
-9.72
-10.32
-13.55
-19.54
-27.18
-34.68
-40.46
-43.83
-45.17
-45.59
-46.20
-47.38
-48.54
-47.95
-43.79
-34.96
-21.74
-5.74
10.65
25.18
36.56
44.90
51.41
57.57
64.36
71.58
78.08
82.48
83.78
82.03
78.44
74.82
72.96
74.29
79.66
89.13
101.34
112.90
118.59
112.98
92.72
58.63
16.30
-25.69
-58.95
-78.27
-83.20
-77.81
-67.82
-57.65
-49.19
-42.28
-36.28
-31.16
-27.62
-26.32
-26.92
-27.85
-27.02
-22.56
-13.98
-2.31
10.34
21.68
30.05
34.98
37.33
38.74
40.82
44.57
49.88
55.85
61.25
65.00
66.42
65.50
62.85
58.74
53.33
46.50
38.01
27.83
16.45
5.08
-4.65
-11.18
-13.42
-11.18
-5.43
2.01
8.87
13.14
13.48
9.57
1.87
-8.80
-21.67
-36.44
-52.95
-71.10
-90.11
-108.45
-123.68
-133.44
-136.07
-131.12
-119.97
-105.11
-89.63
-76.62
-68.89
-68.41
-75.89
-90.08
-105.77
-117.73
-120.53
-111.31
-91.47
-66.56
-43.90
-29.63
-26.33
-32.35
-43.84
-56.68
-68.18
-77.35
-84.67
-89.15
-88.98
-82.36
-68.41
-48.09
-23.71
1.77
25.59
46.10
62.99
76.65
87.74
96.53
102.53
104.99
103.27
97.22
87.46
75.34
62.20
49.14
36.53
24.01
10.90
-3.33
-18.79
-34.90
-50.60
-64.93
-77.12
-86.94
-94.67
-100.58
-104.50
-105.53
-102.05
-92.17
-75.82
-53.33
-25.92
4.56
36.35
68.33
100.17
132.35
165.46
199.68
234.81
270.14
304.66
337.22
366.76
392.62
414.76
433.50
448.97
460.19
464.42
457.23
434.02
391.97
331.68
257.99
179.49
106.76
49.88
15.56
4.90
12.79
29.36
43.37
46.27
35.29
13.79
-11.08
-32.30
-46.23
-53.37
-56.85
-60.18
-65.70
-73.89
-83.53
-92.11
-96.36
-93.46
-82.92
-67.93
-55.34
-53.31
-67.85
-100.07
-146.01
-198.79
-252.06
-302.31
-349.18
-393.59
-436.02
-475.94
-512.18
-543.79
-569.97
-589.64
-600.98
-602.02
-591.44
-569.07
-536.04
-493.97
-444.48
-389.15
-330.28
-271.35
-216.65
-169.83
-132.41
-103.39
-80.08
-59.98
-42.42
-28.75
-21.26
-21.23
-27.74
-37.28
-44.65
-44.35
-32.34
-7.04
30.12
75.16
122.64
167.38
205.96
237.44
263.27
286.16
308.67
332.19
356.56
379.96
399.32
411.03
412.11
401.62
381.36
355.55
329.11
305.32
284.09
262.10
234.55
197.70
150.99
97.35
42.26
-7.64
-45.99
-67.51
-68.56
-47.77
-7.00
48.10
108.34
162.82
201.58
218.38
212.69
189.86
159.77
134.08
123.06
132.96
164.35
212.03
266.53
316.79
353.26
370.49
368.40
351.70
327.59
302.82
281.42
263.90
248.40
232.26
213.30
190.37
163.36
133.34
102.80
75.50
55.41
45.02
44.01
49.03
55.02
57.31
53.40
43.33
28.83
11.76
-6.85
-26.84
-48.21
-70.46
-92.62
-113.83
-133.99
-153.80
-174.04
-194.72
-214.63
-231.75
-244.35
-252.19
-257.10
-262.51
-272.29
-289.40
-315.16
-349.46
-391.40
-439.76
-492.61
-546.44
-595.43
-632.01
-648.80
-641.13
-608.94
-556.94
-492.86
-424.78
-358.86
-298.49
-244.86
-198.14
-158.55
-126.50
-102.15
-84.97
-73.66
-66.68
-62.69
-60.90
-61.05
-63.03
-66.45
-70.35
-72.90
-71.55
-63.57
-47.37
-23.86
2.70
25.41
36.93
32.38
11.62
-20.73
-57.47
-91.88
-120.06
-141.18
-155.93
-164.47
-165.41
-156.52
-136.50
-106.39
-69.58
-30.31
8.05
43.99
77.37
108.27
135.90
158.52
174.43
183.15
186.08
185.97
185.72
187.16
190.37
194.02
196.29
195.89
192.57
186.98
180.09
172.58
164.50
155.42
144.78
132.31
118.27
103.36
88.54
74.72
62.65
52.96
46.19
42.85
43.26
47.37
54.62
63.89
73.78
82.74
89.43
92.85
92.59
88.81
82.24
74.05
65.50
57.64
51.06
45.81
41.57
37.85
34.24
30.57
26.80
22.91
18.81
14.16
8.47
1.19
-8.04
-19.05
-30.84
-41.57
-48.86
-50.49
-45.14
-32.94
-15.52
4.51
24.35
41.82
55.76
65.90
72.46
75.82
76.30
74.28
70.32
65.27
60.06
55.45
51.74
48.68
45.64
41.94
37.13
31.16
24.38
17.35
10.71
4.93
0.21
-3.66
-7.33
-11.81
-18.00
-26.30
-36.17
-46.01
-53.68
-57.14
-55.24
-48.08
-36.88
-23.47
-9.62
3.29
14.43
23.27
29.42
32.65
33.01
30.99
27.57
23.92
20.99
19.21
18.36
17.83
16.92
15.22
12.76
9.98
7.47
5.66
4.66
4.23
3.90
3.13
1.43
-1.52
-5.78
-11.02
-16.40
-20.61
-22.19
-19.94
-13.47
-3.36
8.91
21.57
33.09
42.59
49.84
54.97
58.13
59.32
58.52
55.92
52.05
47.72
43.78
40.81
39.00
38.20
38.06
38.28
38.68
39.22
39.90
40.70
41.60
42.57
43.55
44.34
44.42
42.90
38.82
31.53
21.35
9.72
-0.95
-8.10
-9.75
-5.06
5.67
21.33
40.35
60.87
80.63
96.93
106.90
108.26
100.08
83.24
60.25
34.46
9.11
-13.31
-31.28
-43.98
-51.05
-52.45
-48.66
-40.83
-30.76
-20.56
-12.12
-6.69
-4.64
-5.77
-9.64
-15.95
-24.53
-35.17
-47.21
-59.37
-69.89
-77.02
-79.65
-77.79
-72.67
-66.32
-60.98
-58.44
-59.49
-63.74
-69.76
-75.49
-78.91
-78.69
-74.53
-67.16
-57.87
-47.97
-38.27
-29.14
-20.67
-13.07
-6.87
-2.67
-0.77
-0.73
-1.33
-0.96
1.81
7.65
16.23
26.35
36.30
44.47
49.80
52.13
52.25
51.58
51.72
53.91
58.54
65.00
71.72
76.64
77.87
74.47
66.86
56.73
46.35
37.52
30.71
24.84
17.86
7.84
-6.07
-23.26
-41.99
-60.14
-75.79
-87.45
-93.90
-94.15
-87.76
-75.37
-59.08
-42.19
-28.23
-19.76
-17.46
-20.10
-25.42
-31.25
-36.33
-40.40
-43.61
-45.72
-45.71
-41.96
-33.20
-19.42
-2.33
14.99
29.22
37.97
40.52
37.94
32.35
25.99
20.42
16.42
14.37
14.80
18.44
25.81
36.52
48.73
59.48
65.75
65.85
60.39
52.23
45.31
42.96
46.54
55.37
67.63
81.75
97.19
114.17
132.54
150.66
165.30
172.59
169.89
157.14
137.10
114.04
91.67
71.58
53.03
34.09
13.46
-8.38
-29.21
-46.31
-58.10
-65.13
-69.97
-76.08
-86.41
-102.19
-122.56
-144.83
-165.24
-180.03
-186.35
-182.84
-169.48
-147.27
-117.64
-82.41
-44.10
-6.33
26.57
50.79
64.87
70.64
72.58
75.67
82.83
93.62
104.80
112.50
114.40
110.79
103.90
96.24
89.14
82.36
74.90
66.10
56.39
47.14
39.90
35.45
33.27
31.54
27.65
19.25
5.24
-13.57
-34.42
-53.28
-65.84
-68.57
-59.63
-39.60
-11.80
17.87
42.22
54.64
51.35
32.96
4.63
-25.62
-49.70
-62.39
-62.88
-54.42
-42.29
-31.35
-24.26
-21.05
-20.08
-19.49
-18.34
-16.77
-15.34
-14.04
-11.78
-6.74
2.58
16.28
32.49
47.82
58.56
62.04
57.48
46.15
30.64
13.81
-2.27
-16.66
-29.51
-41.58
-53.38
-64.82
-75.10
-82.90
-87.00
-86.87
-83.13
-77.98
-75.22
-79.63
-95.54
-124.75
-164.54
-207.29
-241.91
-257.20
-245.65
-206.02
-143.54
-67.73
11.20
85.37
150.56
205.43
249.46
281.30
298.55
299.20
283.60
255.85
223.39
194.76
176.82
172.46
179.97
194.26
209.07
218.91
220.17
211.17
191.75
163.28
128.75
92.81
61.21
39.55
31.58
37.69
54.38
75.12
92.46
100.46
96.30
80.34
54.67
21.48
-17.81
-61.88
-108.34
-153.15
-191.63
-220.91
-241.70
-258.56
-277.89
-304.64
-340.09
-381.94
-426.68
-472.01
-517.45
-562.57
-604.34
-636.03
-648.79
-635.52
-594.63
-531.42
-456.05
-379.34
-308.82
-246.76
-191.22
-138.67
-86.59
-34.33
17.59
68.89
120.10
171.78
223.13
271.25
311.83
340.95
357.05
361.64
358.25
350.51
340.65
329.35
316.75
303.57
291.35
281.47
273.87
266.63
256.85
242.64
224.47
205.09
187.82
174.20
162.35
146.97
121.24
79.58
20.62
-51.15
-125.76
-190.19
-232.01
-243.10
-221.85
-173.34
-107.41
-35.83
30.53
83.59
118.93
135.85
136.82
126.70
111.64
97.72
89.66
90.11
99.39
116.13
138.10
162.80
187.61
209.57
225.08
230.34
222.61
201.95
172.45
141.81
118.98
110.63
118.12
136.58
156.76
168.95
166.83
149.34
119.99
84.06
45.81
7.19
-31.47
-69.75
-105.76
-136.21
-157.74
-168.93
-171.65
-170.93
-173.77
-187.17
-216.33
-263.20
-325.66
-397.42
-469.11
-530.46
-573.19
-593.38
-592.34
-575.31
-548.63
-517.01
-482.07
-442.95
-398.14
-347.38
-292.38
-236.06
-181.16
-128.94
-79.08
-30.49
17.63
65.18
111.20
154.48
194.06
229.24
259.25
282.74
297.61
301.32
291.68
267.78
230.71
183.60
130.97
77.67
27.70
-16.31
-53.00
-81.63
-101.32
-110.84
-109.19
-96.59
-75.08
-48.47
-21.16
3.36
23.26
38.43
49.47
56.74
59.94
58.49
52.29
42.36
30.86
20.52
13.69
11.56
13.79
18.69
23.90
27.37
28.21
27.22
26.52
28.62
35.09
45.56
57.64
67.61
71.83
68.04
56.14
38.06
17.26
-2.03
-15.39
-18.36
-6.97
21.41
66.66
124.69
187.66
245.88
290.69
317.43
326.59
322.82
312.16
299.14
285.43
270.38
252.74
232.32
210.37
188.74
168.85
151.28
136.12
123.72
114.70
108.79
103.76
94.83
75.66
40.38
-13.81
-84.89
-166.01
-246.93
-316.29
-363.85
-382.51
-370.19
-331.26
-276.49
-221.11
-180.21
-163.20
-169.79
-189.87
-207.94
-210.33
-191.30
-155.11
-113.05
-77.50
-56.26
-50.02
-53.45
-58.77
-59.29
-51.46
-35.22
-12.94
12.13
37.10
59.93
79.40
94.56
104.11
106.40
100.05
85.03
63.29
38.24
13.20
-10.32
-33.26
-58.13
-87.16
-120.59
-156.35
-190.95
-221.24
-245.56
-263.87
-276.88
-284.74
-286.27
-279.11
-260.90
-230.75
-190.36
-144.12
-98.08
-58.12
-27.83
-7.09
7.76
22.22
40.79
64.38
89.50
109.49
117.66
110.62
90.25
63.19
37.91
21.17
15.44
18.82
26.96
35.80
43.72
51.91
63.18
80.56
106.04
139.95
181.01
225.88
268.93
302.36
317.57
307.98
272.14
215.40
148.97
86.69
40.64
18.03
20.09
43.16
80.72
124.90
167.26
199.47
214.73
209.65
186.08
151.09
114.78
86.60
72.13
71.72
81.69
97.03
113.64
129.44
143.70
155.81
164.59
168.65
167.54
162.53
156.38
152.09
151.63
155.25
161.89
170.21
179.23
188.54
197.55
204.98
208.81
207.25
199.37
185.56
167.13
144.94
118.90
87.92
51.45
11.23
-28.20
-61.17
-83.56
-95.02
-98.66
-98.55
-97.08
-93.57
-85.60
-72.09
-55.87
-43.50
-42.46
-57.19
-86.81
-126.30
-169.54
-212.55
-254.72
-297.54
-342.10
-387.41
-430.42
-464.07
-481.20
-476.72
-449.41
-402.74
-343.40
-278.76
-214.76
-155.01
-101.03
-53.72
-13.84
17.89
41.24
56.89
66.60
72.79
77.98
84.23
92.33
102.05
112.35
122.24
131.14
139.14
146.61
153.87
160.96
167.80
173.29
175.98
175.07
170.66
163.58
155.13
146.61
138.99
132.70
127.58
122.69
117.11
110.21
101.68
91.77
81.08
70.55
61.30
54.46
50.20
48.46
48.75
50.05
50.93
49.50
43.58
30.72
14.03
-4.88
-24.10
-41.26
-53.75
-58.96
-54.92
-40.65
-16.33
16.70
55.46
96.64
136.99
173.72
204.47
227.69
242.48
248.62
246.36
235.71
217.22
191.97
161.48
127.55
92.18
57.25
24.28
-5.79
-32.90
-57.09
-78.28
-96.21
-110.82
-122.22
-130.94
-138.27
-146.16
-157.04
-172.80
-194.25
-220.78
-251.53
-284.88
-319.03
-352.46
-384.21
-414.30
-443.70
-474.40
-508.84
-550.47
-599.79
-653.10
-702.62
-738.96
-755.06
-749.18
-725.42
-691.64
-658.83
-634.32
-620.23
-614.10
-611.47
-608.91
-605.21
-600.73
-595.77
-593.15
-593.46
-594.98
-593.96
-585.82
-566.73
-534.15
-486.72
-400.92
-265.49
-82.64
129.96
345.38
538.15
691.93
801.22
868.74
901.90
906.21
887.91
853.28
808.57
759.25
709.17
660.58
614.85
573.09
533.74
495.83
458.89
422.96
388.15
354.39
321.71
290.54
262.15
236.29
212.84
191.54
172.48
156.17
143.05
132.11
120.04
102.02
73.43
34.00
-10.31
-48.82
-70.94
-71.29
-52.80
-25.13
0.56
16.63
21.84
20.15
16.85
14.99
14.51
13.42
10.21
5.54
1.91
1.68
5.80
13.72
21.98
27.54
28.69
25.50
19.53
12.94
7.42
3.75
1.31
-1.31
-5.18
-10.78
-17.73
-25.07
-31.73
-37.02
-40.47
-42.11
-42.25
-40.86
-37.81
-33.04
-26.87
-19.99
-13.33
-7.44
-2.39
2.23
7.30
13.40
20.39
27.19
32.24
34.03
32.02
27.05
21.24
17.53
18.85
27.51
44.53
68.58
95.39
118.16
129.21
122.75
97.54
57.93
12.91
-26.69
-51.96
-58.85
-48.85
-27.52
-1.86
22.42
42.42
57.37
68.27
77.26
86.38
96.46
106.86
115.73
121.09
121.50
116.41
106.20
91.84
74.75
56.79
40.63
29.31
25.57
30.80
44.31
63.39
84.06
102.40
115.80
123.76
127.43
128.60
128.23
125.72
119.18
106.55
86.84
61.08
32.14
3.59
-21.66
-42.47
-59.53
-74.40
-88.55
-102.48
-115.78
-127.69
-137.80
-146.50
-154.80
-163.97
-174.68
-186.84
-199.76
-212.65
-225.08
-236.93
-247.92
-257.14
-262.97
-263.64
-258.15
-247.12
-232.81
-218.41
-206.56
-198.22
-192.22
-185.79
-175.74
-159.64
-136.43
-106.37
-70.60
-30.51
12.46
56.89
101.23
143.89
183.32
218.18
247.54
270.62
286.51
293.90
291.09
276.41
248.93
209.16
159.48
104.05
48.25
-2.08
-41.68
-66.70
-75.39
-68.46
-49.15
-22.77
4.31
25.96
37.54
36.77
24.06
2.39
-23.22
-46.71
-62.15
-65.07
-53.79
-30.04
1.38
33.70
60.12
75.56
77.83
67.83
49.10
26.36
4.30
-13.40
-24.88
-30.09
-30.37
-27.93
-25.49
-26.00
-32.70
-48.18
-73.24
-106.03
-141.85
-174.26
-197.18
-206.95
-203.22
-188.28
-165.25
-136.47
-102.99
-65.28
-24.55
16.54
54.27
85.26
107.84
122.81
132.87
141.19
150.14
160.18
169.53
174.93
172.69
159.90
135.52
100.86
59.26
15.32
-26.48
-63.23
-94.05
-120.09
-143.83
-168.00
-194.65
-224.65
-257.53
-291.77
-325.12
-355.09
-379.44
-396.84
-407.36
-412.55
-414.77
-415.97
-416.36
-413.94
-405.12
-386.51
-356.76
-317.51
-272.90
-228.00
-186.86
-151.53
-122.08
-97.56
-76.93
-59.41
-44.17
-29.80
-14.21
4.91
29.24
59.23
93.78
130.55
166.66
199.45
227.31
249.95
268.21
283.20
295.25
303.12
304.21
295.61
275.78
245.93
210.26
174.85
145.75
126.93
119.22
120.52
127.16
135.58
143.56
150.71
158.09
167.02
178.27
191.32
204.33
214.63
219.31
215.65
201.53
175.79
139.13
94.90
49.19
9.45
-18.21
-31.77
-34.24
-32.12
-31.95
-37.05
-46.28
-55.57
-61.08
-61.70
-59.47
-57.65
-58.10
-59.82
-59.52
-53.68
-40.72
-21.82
-0.08
20.83
38.28
51.31
60.32
66.40
70.45
72.47
71.67
66.85
57.26
43.26
26.40
8.92
-7.07
-20.46
-31.37
-40.69
-49.33
-57.53
-64.55
-68.98
-69.49
-65.43
-57.28
-46.48
-34.95
-24.48
-16.26
-10.74
-7.80
-6.98
-7.77
-9.65
-12.14
-14.66
-16.64
-17.61
-17.34
-15.79
-13.03
-8.95
-3.22
4.51
14.39
26.05
38.52
50.35
59.95
65.93
67.48
64.53
57.69
48.08
37.05
25.79
15.07
5.28
-3.48
-11.12
-17.42
-22.04
-24.67
-25.21
-23.77
-20.68
-16.22
-10.67
-4.30
2.54
9.31
15.33
19.99
22.97
24.32
24.55
24.37
24.44
25.16
26.55
28.30
29.98
31.23
31.93
32.14
31.98
31.50
30.72
29.61
28.29
26.99
25.98
25.49
25.64
26.51
28.25
31.24
36.00
42.97
52.32
63.73
76.46
89.56
102.13
113.45
123.06
130.61
135.74
138.12
137.57
134.25
128.79
122.11
115.18
108.73
103.24
98.96
96.06
94.78
95.24
97.35
100.65
104.44
107.90
110.20
110.52
108.04
101.98
91.78
77.47
59.85
40.39
20.67
1.91
-15.35
-31.04
-45.35
-58.36
-69.94
-79.77
-87.45
-92.74
-95.67
-96.53
-95.81
-94.11
-91.95
-89.50
-86.58
-82.70
-77.36
-70.19
-61.09
-50.24
-38.01
-24.99
-12.16
-0.93
7.22
11.17
10.62
6.16
-1.02
-9.62
-18.49
-26.88
-34.43
-41.14
-47.13
-52.40
-56.59
-59.00
-58.74
-55.25
-48.80
-40.76
-33.16
-27.86
-25.67
-25.89
-26.96
-27.35
-26.52
-25.23
-25.20
-28.09
-34.44
-43.25
-52.17
-58.86
-61.99
-61.71
-59.45
-57.42
-57.82
-61.63
-68.83
-78.26
-88.95
-100.07
-109.92
-115.51
-113.21
-100.85
-78.64
-50.42
-21.10
4.98
27.03
49.29
79.19
122.67
179.58
243.15
300.77
339.85
350.54
328.54
276.27
201.34
113.50
21.42
-67.57
-149.30
-209.66
-232.63
-211.78
-156.11
-83.35
-9.27
50.09
94.57
125.37
144.61
153.74
153.61
147.28
137.35
125.71
112.44
97.20
78.00
53.82
23.89
-11.74
-50.98
-89.21
-119.75
-135.99
-132.69
-109.43
-70.15
-23.53
19.41
48.77
58.68
48.17
20.00
-20.75
-69.28
-120.93
-171.36
-215.80
-248.76
-265.09
-261.89
-240.63
-207.26
-170.98
-140.32
-119.96
-109.06
-102.38
-93.37
-77.86
-56.41
-33.94
-17.75
-14.19
-26.62
-54.40
-93.48
-137.42
-178.12
-207.18
-217.21
-203.76
-166.80
-111.44
-46.94
15.37
65.04
94.82
102.26
90.29
66.53
41.80
27.71
34.03
65.74
121.24
191.92
264.02
322.23
353.91
352.90
321.35
268.93
209.60
157.18
121.22
105.06
106.98
122.90
149.05
183.28
224.14
269.15
313.70
351.49
376.53
385.25
377.67
356.94
327.62
293.74
257.80
220.90
183.53
146.00
108.89
72.89
38.82
7.70
-18.94
-39.04
-50.45
-51.77
-43.19
-26.99
-7.16
12.07
27.47
37.48
41.89
40.97
34.73
23.26
7.41
-10.47
-26.81
-38.42
-44.37
-46.82
-49.92
-57.47
-70.49
-86.47
-100.91
-110.11
-113.62
-114.88
-119.57
-132.92
-157.34
-191.68
-232.27
-274.94
-316.59
-356.11
-394.00
-431.43
-469.72
-510.25
-554.51
-603.50
-656.60
-710.09
-756.75
-787.05
-792.35
-768.70
-719.30
-654.18
-586.95
-530.05
-490.65
-469.16
-460.59
-457.67
-453.91
-445.24
-430.06
-408.23
-380.11
-346.27
-307.58
-265.51
-222.18
-180.07
-141.28
-106.87
-76.73
-49.51
-23.18
4.22
33.78
65.43
97.79
128.82
156.65
180.37
200.56
219.26
239.30
263.42
293.18
328.39
367.16
406.74
444.55
479.29
511.32
542.29
574.28
608.89
646.81
687.71
730.21
771.54
807.25
831.37
837.72
821.87
782.86
723.89
651.00
570.38
485.99
398.79
308.66
217.41
131.25
60.47
16.65
8.35
37.54
98.28
178.24
261.98
334.77
385.82
409.53
406.73
382.01
342.20
294.37
244.46
196.75
153.98
117.71
88.19
65.46
47.79
32.48
16.76
-1.08
-21.00
-41.43
-60.40
-77.56
-92.06
-105.48
-119.68
-135.77
-153.43
-171.43
-188.57
-204.68
-223.61
-243.93
-266.15
-288.96
-309.78
-326.00
-335.98
-339.06
-334.95
-328.61
-313.82
-292.18
-267.73
-246.66
-235.28
-237.48
-253.35
-279.61
-320.42
-363.00
-407.08
-454.01
-504.20
-554.74
-598.92
-627.92
-633.91
-624.30
-587.97
-531.39
-462.94
-389.57
-314.62
-237.84
-157.65
-4.03
125.82
237.78
322.22
372.37
387.63
374.01
341.63
300.63
257.71
203.40
148.76
91.60
32.11
-26.62
-79.87
-124.01
-158.43
-185.75
-219.10
-253.22
-291.34
-334.33
-380.38
-425.12
-462.00
-483.55
-483.47
-464.38
-422.18
-363.42
-296.60
-229.19
-165.40
-105.87
-49.26
5.61
55.71
102.44
144.17
180.84
214.42
248.10
284.86
326.39
372.80
421.65
471.53
519.31
561.53
594.95
617.04
626.71
624.66
613.39
596.69
578.55
561.91
547.59
534.04
517.82
494.99
462.47
419.20
366.31
306.68
243.75
180.50
118.98
60.12
4.52
-47.70
-96.70
-143.23
-188.86
-235.79
-286.38
-341.83
-401.23
-460.81
-514.95
-558.46
-589.09
-608.47
-621.00
-631.28
-641.63
-651.24
-657.09
-656.09
-646.62
-628.74
-603.33
-571.01
-532.00
-486.73
-436.78
-384.95
-334.53
-288.15
-247.10
-211.59
-181.16
-155.17
-132.67
-112.20
-92.05
-70.79
-47.80
-23.44
1.13
24.78
47.13
68.81
91.16
115.37
141.85
169.96
198.38
225.86
251.60
275.09
295.44
310.82
318.99
318.63
310.21
295.84
277.55
255.72
228.83
195.20
155.80
116.03
84.75
70.84
78.99
107.53
149.42
196.05
241.22
283.27
324.44
368.56
418.66
475.44
536.87
598.51
654.01
696.32
719.22
719.33
697.06
656.43
603.52
544.13
482.11
419.16
355.66
292.25
230.58
173.03
121.35
75.59
33.58
-8.35
-53.71
-104.57
-161.03
-221.84
-285.37
-350.01
-413.61
-472.31
-520.17
-550.43
-558.33
-543.71
-511.74
-470.84
-428.69
-388.81
-349.92
-308.70
-263.85
-218.79
-180.79
-157.01
-149.96
-155.15
-163.01
-163.77
-152.41
-130.78
-106.26
-87.38
-79.82
-84.61
-98.69
-117.30
-136.04
-151.88
-162.86
-167.61
-164.81
-153.38
-132.97
-104.35
-69.63
-31.92
5.26
38.68
65.88
85.60
97.66
102.55
100.97
93.64
81.73
67.47
54.25
46.18
47.01
59.20
83.40
118.71
162.65
211.37
259.61
301.23
330.58
344.19
341.94
327.19
305.54
282.67
262.48
246.23
232.95
220.60
207.40
192.49
176.10
159.15
142.85
128.42
116.81
108.50
103.26
100.07
97.20
92.62
84.68
72.73
57.60
41.41
26.95
16.57
11.30
10.56
12.63
15.68
18.78
22.15
26.71
33.19
41.28
49.48
55.70
58.08
55.79
49.17
39.46
28.09
16.11
3.94
-8.44
-21.21
-34.48
-48.12
-61.80
-75.05
-87.33
-98.04
-106.66
-112.63
-115.59
-115.39
-112.23
-106.56
-98.91
-89.75
-79.50
-68.65
-57.91
-48.18
-40.25
-34.45
-30.43
-27.27
-23.94
-19.63
-13.99
-7.00
1.26
10.74
21.23
32.30
43.30
53.52
62.65
70.87
78.53
85.61
91.25
93.69
91.03
82.16
67.38
48.12
26.12
2.60
-22.02
-47.62
-73.96
-100.29
-125.77
-150.09
-173.68
-197.24
-220.64
-242.10
-258.14
-264.79
-259.27
-241.31
-213.37
-179.77
-145.17
-113.21
-85.74
-63.06
-44.45
-28.62
-14.24
-0.15
14.49
29.77
44.81
57.61
65.41
65.44
55.98
37.32
12.19
-14.65
-37.61
-51.92
-55.12
-47.85
-33.38
-16.37
-0.93
10.86
19.47
27.03
35.75
46.36
57.83
68.12
75.43
79.20
80.15
79.58
78.40
76.71
74.01
69.84
64.36
58.26
52.30
46.79
41.33
35.19
27.88
19.57
11.19
4.01
-0.93
-3.12
-2.72
-0.42
3.01
6.81
10.41
13.39
15.39
16.13
15.39
13.16
9.66
5.34
0.90
-2.77
-4.62
-3.74
0.47
7.92
17.77
28.64
39.01
47.76
54.40
58.98
61.74
62.78
61.92
58.93
53.89
47.34
40.21
33.45
27.64
22.75
18.32
13.75
8.75
3.42
-1.85
-6.63
-10.78
-14.41
-17.78
-21.04
-24.12
-26.76
-28.72
-29.98
-30.85
-31.91
-33.83
-37.00
-41.33
-46.10
-50.08
-51.85
-50.29
-44.94
-36.32
-25.75
-14.95
-5.51
1.62
6.21
8.61
9.42
9.12
8.01
6.23
4.01
1.74
-0.11
-1.08
-1.03
-0.18
0.95
1.75
1.77
0.86
-0.82
-2.98
-5.31
-7.67
-10.06
-12.51
-15.04
-17.60
-20.13
-22.70
-25.52
-28.86
-32.82
-37.08
-40.74
-42.56
-41.34
-36.46
-28.19
-17.68
-6.53
3.75
12.17
18.39
22.52
24.88
25.74
25.28
23.72
21.36
18.63
16.00
13.85
12.43
11.77
11.71
11.92
11.96
11.43
10.06
7.83
4.94
1.73
-1.48
-4.54
-7.44
-10.31
-13.35
-16.78
-20.81
-25.63
-31.25
-37.33
-43.04
-47.20
-48.54
-46.21
-40.07
-30.84
-19.79
-8.31
2.46
11.85
19.56
25.41
29.19
30.67
29.84
27.14
23.53
20.25
18.51
18.96
21.54
25.46
29.37
31.70
31.20
27.25
20.25
11.64
3.57
-1.72
-2.57
1.53
9.90
20.98
32.88
43.96
53.03
59.47
63.14
64.29
63.59
62.09
61.23
62.58
67.51
76.67
89.62
104.80
119.81
132.20
140.27
143.55
142.71
139.09
134.00
128.26
122.19
115.78
109.13
102.53
96.47
91.39
87.43
84.41
81.74
78.62
74.28
68.16
60.08
50.15
38.55
25.14
9.24
-10.36
-34.94
-65.14
-100.42
-138.87
-177.57
-213.43
-244.01
-268.05
-285.42
-296.50
-301.47
-299.95
-291.22
-274.92
-251.96
-224.93
-197.75
-174.59
-158.59
-150.70
-149.41
-151.38
-152.55
-149.53
-140.68
-126.79
-111.09
-98.34
-93.27
-98.79
-114.90
-138.57
-164.82
-188.31
-204.70
-211.23
-206.43
-189.63
-160.57
-119.85
-69.36
-12.52
46.12
101.64
149.53
186.07
208.68
216.40
210.54
195.05
175.69
158.33
146.92
142.33
142.71
144.99
146.79
147.41
147.43
147.53
147.29
144.91
138.09
125.11
105.65
80.88
53.21
25.68
1.44
-16.65
-26.51
-27.54
-21.29
-11.35
-2.29
2.11
0.63
-4.81
-10.24
-12.07
-9.21
-3.74
0.47
0.17
-5.22
-13.12
-19.19
-19.73
-13.60
-2.83
8.37
15.84
17.23
12.90
5.55
-1.16
-4.22
-2.46
3.34
11.19
19.14
26.28
32.83
39.54
46.68
53.48
58.45
60.24
58.31
53.28
46.55
39.59
33.39
28.12
23.22
17.73
10.76
1.97
-8.14
-18.29
-27.01
-33.22
-36.72
-38.14
-38.51
-38.53
-38.21
-36.89
-33.88
-29.03
-23.12
-17.55
-13.68
-12.12
-12.44
-13.36
-13.41
-11.57
-7.65
-2.29
3.39
8.33
11.93
14.19
15.52
16.46
17.42
18.55
19.79
21.01
22.07
22.91
23.52
23.98
24.45
25.07
25.82
26.42
26.35
25.06
22.27
18.21
13.56
9.14
5.55
2.87
0.75
-1.33
-3.74
-6.61
-9.85
-13.44
-17.40
-21.66
-25.87
-29.21
-30.69
-29.56
-25.72
-19.91
-13.40
-7.51
-3.03
-0.09
1.70
2.75
3.13
2.51
0.39
-3.43
-8.65
-14.41
-19.71
-23.73
-26.19
-27.24
-27.37
-27.11
-26.90
-26.90
-27.13
-27.48
-27.83
-28.12
-28.40
-28.84
-29.71
-31.23
-33.58
-36.87
-41.01
-45.74
-50.52
-54.41
-56.26
-54.96
-49.79
-40.82
-28.93
-15.63
-2.58
8.89
18.04
24.69
29.07
31.53
32.38
31.98
30.73
29.24
28.22
28.30
29.80
32.64
36.28
39.93
42.85
44.50
44.76
43.86
42.32
40.74
39.52
38.79
38.30
37.56
35.98
33.11
28.74
23.01
16.37
9.61
3.73
-0.31
-1.88
-0.96
1.71
4.81
6.64
5.53
0.18
-10.08
-24.98
-43.42
-63.59
-83.55
-101.77
-117.30
-129.69
-138.49
-142.94
-142.18
-135.80
-124.48
-110.10
-95.12
-81.54
-70.23
-60.85
-52.65
-45.29
-39.21
-35.23
-33.76
-34.08
-34.55
-33.35
-29.49
-23.27
-15.97
-8.87
-2.39
4.25
12.59
23.92
38.47
55.10
71.84
86.77
98.84
108.13
115.38
121.26
125.83
128.43
128.08
124.18
116.96
107.57
97.64
88.56
81.04
74.80
68.95
62.43
54.42
44.80
34.18
23.69
14.42
6.99
1.19
-3.86
-9.24
-16.06
-24.73
-34.91
-45.71
-56.15
-65.37
-72.79
-77.80
-79.87
-79.51
-77.87
-76.48
-76.46
-77.92
-79.34
-77.97
-70.54
-54.88
-32.47
-6.90
17.72
38.67
54.92
66.63
73.48
74.54
68.09
50.60
20.89
-18.06
-59.21
-94.51
-118.09
-128.96
-129.97
-126.48
-126.87
-137.24
-159.35
-190.29
-224.84
-257.42
-284.24
-301.99
-294.59
-253.48
-183.74
-102.65
-26.96
33.98
84.68
128.28
166.26
200.16
224.41
236.93
239.29
235.77
230.51
225.55
219.75
211.64
200.51
184.85
165.06
143.01
121.54
102.80
87.53
74.49
62.65
51.52
39.92
27.77
15.74
5.11
-3.26
-9.25
-13.98
-18.41
-23.22
-29.26
-36.51
-44.13
-50.43
-53.53
-52.00
-45.59
-35.01
-21.83
-8.28
3.82
13.31
19.89
23.78
25.33
24.69
22.09
18.01
13.26
9.01
6.46
6.41
9.12
14.19
20.76
27.81
34.45
40.01
44.13
46.59
47.24
45.86
42.15
35.81
26.61
14.49
-0.37
-17.46
-35.86
-54.15
-70.41
-82.49
-88.48
-87.26
-78.93
-64.88
-47.42
-29.17
-12.31
1.73
12.34
19.49
23.38
24.38
22.90
19.56
15.19
10.68
6.86
4.28
3.08
3.02
3.55
3.99
3.78
2.70
0.93
-1.07
-2.86
-4.21
-5.30
-6.56
-8.51
-11.46
-15.53
-20.66
-26.67
-33.27
-39.84
-45.24
-48.00
-46.68
-40.47
-29.68
-15.77
-0.88
12.90
24.07
32.04
36.94
39.21
39.29
37.46
33.98
29.21
23.80
18.56
14.27
11.42
9.97
9.49
9.27
8.68
7.37
5.33
2.77
-0.02
-2.88
-5.80
-8.81
-12.04
-15.54
-19.46
-24.02
-29.40
-35.59
-42.11
-47.95
-51.66
-51.83
-47.56
-38.93
-26.95
-13.32
0.17
12.11
21.72
28.83
33.56
36.13
36.69
35.45
32.76
29.25
25.64
22.61
20.58
19.59
19.45
19.73
19.98
19.72
18.58
16.40
13.29
9.65
5.95
2.57
-0.41
-3.21
-6.18
-9.66
-13.86
-18.88
-24.79
-31.48
-38.36
-44.18
-47.13
-45.29
-37.49
-23.88
-6.00
13.68
32.58
48.73
61.08
69.36
73.72
74.45
71.93
66.72
59.64
51.63
43.61
36.13
29.38
23.21
17.31
11.41
5.41
-0.57
-6.31
-11.46
-15.77
-19.01
-21.07
-21.96
-21.73
-20.52
-18.54
-16.03
-13.29
-10.54
-7.81
-4.83
-1.08
4.08
11.10
19.83
29.46
38.63
45.85
50.03
50.83
48.63
44.31
38.78
32.62
26.12
19.29
12.22
5.19
-1.30
-6.65
-10.41
-12.47
-13.10
-12.87
-12.40
-12.16
-12.29
-12.63
-12.89
-12.88
-12.66
-12.55
-12.91
-14.03
-15.94
-18.47
-21.40
-24.54
-27.70
-30.48
-32.16
-31.73
-28.24
-21.24
-11.22
0.45
11.91
21.38
27.78
30.91
31.26
29.59
26.60
22.70
18.18
13.36
8.68
4.65
1.70
-0.01
-0.64
-0.56
-0.22
-0.03
-0.21
-0.82
-1.86
-3.25
-4.96
-6.92
-9.01
-11.12
-13.15
-15.16
-17.38
-20.15
-23.69
-27.90
-32.16
-35.37
-36.23
-33.73
-27.58
-18.35
-7.38
3.61
13.06
19.91
23.78
24.83
23.54
20.49
16.22
11.25
6.06
1.19
-2.86
-5.68
-7.03
-7.03
-6.00
-4.55
-3.29
-2.73
-3.10
-4.30
-6.04
-7.90
-9.63
-11.14
-12.53
-13.92
-15.38
-16.94
-18.60
-20.52
-22.87
-25.70
-28.65
-30.92
-31.37
-29.00
-23.39
-15.00
-5.10
4.64
12.69
18.11
20.62
20.51
18.33
14.67
10.04
4.94
-0.06
-4.36
-7.42
-8.94
-8.96
-7.80
-5.93
-3.89
-2.11
-0.91
-0.44
-0.73
-1.72
-3.23
-5.07
-7.04
-9.05
-11.14
-13.43
-16.03
-18.98
-22.21
-25.41
-28.10
-29.60
-29.18
-26.25
-20.60
-12.62
-3.26
6.14
14.20
19.82
22.48
22.22
19.50
14.98
9.30
3.09
-3.12
-8.82
-13.56
-17.07
-19.20
-20.10
-20.09
-19.68
-19.39
-19.65
-20.70
-22.55
-25.04
-27.90
-30.92
-33.98
-37.00
-39.99
-42.92
-45.81
-48.76
-51.92
-55.42
-59.09
-62.37
-64.22
-63.39
-58.89
-50.46
-38.90
-25.91
-13.51
-3.34
4.01
9.24
14.06
20.72
31.52
48.29
72.10
102.87
138.99
177.12
212.53
240.00
255.11
255.40
240.88
213.74
177.45
135.98
93.25
53.02
18.69
-7.18
-23.43
-30.97
-32.49
-31.71
-32.04
-35.56
-42.72
-52.69
-64.03
-75.33
-85.43
-93.25
-97.87
-98.64
-95.55
-89.57
-82.46
-76.22
-72.35
-71.32
-72.46
-74.55
-76.54
-78.18
-80.17
-83.82
-90.19
-99.49
-110.69
-121.68
-129.89
-133.11
-130.16
-121.16
-107.33
-90.41
-72.04
-53.32
-34.75
-16.59
0.80
16.67
29.96
39.65
45.12
46.34
43.94
38.91
32.42
25.69
19.89
16.14
15.29
17.74
23.33
31.28
40.29
48.85
55.55
59.33
59.77
57.06
51.94
45.39
38.37
31.61
25.51
20.29
15.96
12.49
9.68
7.22
4.67
1.57
-2.32
-6.97
-12.02
-17.00
-21.48
-25.33
-28.60
-31.48
-34.15
-36.69
-39.07
-41.18
-42.85
-43.68
-43.01
-39.89
-33.39
-23.02
-9.04
7.41
24.63
40.92
55.12
66.85
76.33
84.15
90.88
97.03
103.09
109.44
116.26
123.19
129.19
132.67
131.97
125.95
114.44
98.23
78.73
57.50
35.73
14.21
-6.64
-26.52
-45.21
-62.36
-77.63
-90.80
-101.87
-111.08
-118.86
-125.62
-131.49
-136.17
-138.82
-138.40
-134.00
-125.27
-112.67
-97.38
-81.02
-65.14
-50.94
-39.05
-29.69
-22.80
-18.23
-15.82
-15.32
-16.24
-17.87
-19.37
-19.97
-19.25
-17.16
-13.96
-10.05
-5.78
-1.52
2.38
5.55
7.56
8.09
7.03
4.55
1.03
-3.09
-7.45
-11.88
-16.41
-21.23
-26.55
-32.45
-38.61
-44.21
-48.03
-48.72
-45.29
-37.47
-25.94
-12.06
2.44
15.96
27.35
35.98
41.64
44.43
44.64
42.67
39.09
34.59
29.87
25.62
22.41
20.60
20.28
21.27
23.19
25.53
27.80
29.57
30.60
30.78
30.08
28.48
25.95
22.51
18.25
13.38
8.03
2.28
-4.02
-11.05
-18.81
-26.83
-34.08
-39.11
-40.46
-37.23
-29.39
-17.90
-4.39
9.25
21.32
30.55
36.27
38.41
37.33
33.81
28.76
23.05
17.44
12.41
8.31
5.33
3.60
3.10
3.56
4.44
4.98
4.45
2.40
-1.16
-5.78
-10.74
-15.42
-19.50
-23.12
-26.80
-31.15
-36.65
-43.44
-51.27
-59.43
-66.74
-71.56
-72.03
-66.55
-54.31
-35.88
-13.26
10.72
33.38
53.09
69.67
83.92
96.70
108.21
117.80
124.39
127.20
126.29
122.83
118.67
115.42
113.62
112.38
109.60
102.88
90.51
72.14
48.85
22.68
-4.05
-29.39
-51.91
-70.65
-85.05
-94.91
-100.72
-103.48
-104.51
-104.71
-104.12
-101.81
-96.45
-87.06
-73.39
-56.28
-37.28
-18.30
-1.13
12.96
23.20
29.46
32.04
31.55
28.73
24.29
18.88
13.12
7.61
2.91
-0.53
-2.41
-2.72
-1.78
-0.14
1.56
2.69
2.80
1.74
-0.27
-2.61
-4.43
-4.92
-3.71
-1.10
1.87
3.78
3.39
0.19
-5.23
-11.24
-15.52
-15.67
-10.02
1.78
18.46
37.39
55.26
69.05
76.96
78.82
75.86
70.07
63.37
57.05
51.60
46.92
42.73
38.86
35.37
32.45
30.32
28.95
28.06
27.16
25.77
23.65
21.04
18.59
17.09
17.06
18.40
20.30
21.43
20.43
16.52
9.86
1.72
-5.89
-10.73
-11.10
-6.33
2.98
15.27
28.56
41.22
52.41
62.25
71.34
80.29
89.04
96.71
101.90
103.24
100.14
93.46
85.69
80.73
83.12
96.53
122.06
156.78
193.40
221.83
232.21
218.59
181.27
126.71
64.91
5.61
-44.87
-84.67
-115.13
-138.55
-156.47
-169.37
-177.48
-181.72
-183.72
-185.15
-186.67
-187.26
-184.70
-176.64
-161.85
-140.91
-116.13
-90.54
-67.19
-48.41
-35.25
-27.30
-23.09
-20.66
-18.39
-15.27
-10.57
-4.27
3.21
11.64
21.52
33.84
49.62
68.75
89.96
111.81
131.88
147.18
155.41
156.34
151.80
145.01
138.42
133.08
129.59
126.20
119.26
105.56
84.94
60.69
38.75
24.41
21.27
32.17
56.02
87.43
118.64
142.46
153.26
147.65
122.94
69.61
-6.58
-84.82
-141.63
-165.44
-158.45
-135.35
-104.23
-69.19
-31.51
10.49
56.33
101.96
139.06
159.94
161.07
145.44
120.12
94.14
76.24
69.40
69.87
70.13
63.91
48.88
27.06
1.69
-24.51
-49.72
-74.62
-101.72
-133.60
-170.78
-211.29
-251.40
-287.92
-319.03
-344.26
-365.03
-383.98
-403.76
-425.89
-450.69
-477.74
-506.42
-535.22
-560.40
-575.73
-573.59
-547.31
-493.64
-414.37
-316.06
-208.27
-100.98
-2.62
80.52
143.97
184.78
201.92
197.11
175.15
143.43
110.37
83.48
67.82
65.27
74.71
92.81
115.14
137.35
156.11
169.76
178.18
182.15
182.26
178.24
168.82
152.20
126.87
92.27
49.25
-0.15
-53.01
-106.03
-155.59
-197.88
-229.05
-245.90
-246.75
-232.16
-205.05
-169.93
-131.65
-94.21
-60.02
-30.02
-4.13
18.15
37.49
54.61
70.17
84.44
97.07
107.16
113.86
117.06
117.73
117.42
117.26
116.95
114.84
108.78
97.66
82.72
67.47
56.68
54.66
63.94
84.76
115.15
151.38
188.39
220.35
241.24
246.01
231.77
198.99
152.00
98.42
47.56
8.11
-13.77
-15.64
1.14
32.08
70.87
110.87
146.45
174.03
192.43
202.63
206.94
208.02
208.00
208.22
209.29
211.29
213.71
215.13
213.30
205.72
190.90
169.59
144.83
120.82
100.69
84.69
69.82
51.01
23.43
-15.33
-64.30
-119.56
-175.68
-227.54
-271.82
-307.69
-336.47
-360.36
-381.01
-398.70
-412.62
-421.80
-425.81
-424.85
-419.06
-408.21
-391.92
-370.75
-347.04
-324.73
-307.73
-297.60
-292.27
-286.51
-274.44
-252.28
-219.92
-180.46
-138.12
-96.07
-55.31
-15.03
25.82
67.08
106.72
141.36
167.54
183.09
187.91
183.92
174.15
161.69
148.66
135.79
122.81
109.17
94.81
80.57
67.90
58.08
51.38
46.68
41.75
34.29
22.98
8.21
-8.25
-24.33
-38.87
-51.93
-64.16
-75.52
-84.30
-87.38
-81.54
-65.28
-39.84
-8.92
23.03
52.62
78.83
102.85
126.86
152.31
178.74
203.69
223.56
235.17
237.00
229.77
216.01
199.09
181.91
166.01
151.31
136.59
120.53
102.56
83.52
65.55
51.41
43.52
43.12
49.64
60.83
73.32
83.63
89.03
88.21
81.30
69.64
55.40
41.04
28.98
21.08
18.29
20.33
25.92
32.89
38.93
42.08
41.20
36.17
28.02
19.05
12.54
11.96
19.56
35.13
55.47
75.20
88.82
92.93
87.63
76.32
64.02
55.21
52.17
54.67
60.68
67.66
73.45
76.53
75.78
70.14
58.64
40.83
17.36
-9.79
-37.42
-61.92
-80.45
-91.74
-96.35
-96.29
-94.01
-91.46
-89.54
-88.09
-86.43
-84.08
-81.13
-78.36
-76.87
-77.56
-80.57
-85.10
-89.50
-91.86
-90.66
-85.42
-76.80
-66.48
-56.52
-48.86
-44.84
-45.12
-49.79
-58.50
-70.70
-85.72
-102.84
-121.11
-139.21
-155.24
-166.65
-170.55
-164.48
-147.28
-119.65
-84.05
-43.74
-1.81
39.55
79.05
115.79
148.70
176.70
199.32
217.29
232.40
246.30
258.88
267.31
266.68
252.01
220.71
173.92
116.27
54.45
-4.60
-54.73
-90.95
-109.76
-109.56
-91.45
-59.55
-20.21
19.96
56.10
86.23
110.86
131.54
149.58
165.32
178.30
187.64
192.10
189.96
179.00
157.19
123.55
79.09
27.15
-27.20
-78.04
-119.76
-147.99
-160.27
-156.47
-138.89
-111.77
-80.20
-48.95
-21.55
0.03
15.05
23.53
26.02
23.62
17.98
11.12
4.92
0.66
-1.03
0.02
3.84
10.43
19.68
31.14
43.81
56.15
66.30
72.45
73.21
68.13
57.95
44.73
31.36
20.84
15.16
14.63
17.79
22.08
25.01
25.08
22.18
17.13
10.97
4.18
-3.69
-13.82
-27.54
-45.69
-68.28
-94.46
-122.80
-151.72
-179.64
-204.97
-226.15
-241.71
-250.59
-252.46
-247.68
-236.86
-220.25
-197.50
-167.97
-131.78
-90.72
-48.60
-10.45
19.04
37.21
44.29
43.26
38.63
35.01
35.87
42.91
56.07
73.86
94.05
114.24
132.61
148.30
161.64
174.07
187.37
202.76
219.87
236.25
247.71
249.56
238.41
213.69
178.23
137.57
98.06
64.83
40.29
23.79
12.49
2.89
-7.76
-20.62
-35.42
-51.16
-67.04
-82.99
-99.75
-118.21
-138.71
-160.42
-181.48
-199.68
-213.15
-221.07
-223.58
-221.14
-213.73
-200.67
-181.06
-154.56
-122.18
-86.13
-49.40
-14.82
15.78
41.82
63.54
81.26
94.79
103.29
105.89
102.01
91.76
76.28
57.62
38.11
19.69
3.65
-9.04
-16.47
-16.27
-6.02
16.33
51.82
99.61
156.46
217.16
275.60
327.47
369.00
396.75
408.16
402.43
380.72
345.80
301.51
251.91
202.52
155.99
111.05
64.28
13.47
-39.90
-90.04
-127.99
-144.58
-131.32
-87.89
-24.06
43.60
98.26
128.39
130.50
108.88
55.69
-21.62
-103.04
-167.51
-205.54
-219.56
-216.74
-204.27
-186.44
-166.97
-146.96
-128.73
-115.35
-108.72
-107.79
-109.50
-111.20
-112.13
-113.68
-115.95
-119.84
-126.91
-138.40
-153.81
-171.03
-187.38
-200.60
-209.48
-212.47
-209.51
-202.13
-192.22
-180.65
-166.89
-149.58
-127.26
-99.18
-64.95
-25.68
15.96
56.45
92.63
122.46
145.34
161.79
172.89
179.82
183.26
183.30
180.03
174.28
167.66
162.07
158.65
157.12
155.86
152.83
146.69
137.57
126.85
116.14
106.32
96.99
87.11
76.15
65.14
56.55
53.14
56.25
64.70
74.99
82.78
84.79
79.96
69.41
55.33
39.61
23.19
6.25
-10.79
-26.62
-39.05
-45.93
-46.26
-40.70
-31.25
-20.20
-9.14
1.43
11.69
21.76
31.06
38.42
42.61
43.17
40.93
37.91
36.62
39.21
46.62
58.18
71.76
84.20
92.22
93.26
86.22
71.69
51.51
28.07
3.37
-21.48
-46.21
-71.02
-96.07
-121.32
-146.51
-171.22
-194.87
-216.46
-234.44
-247.01
-252.79
-251.38
-243.70
-231.42
-216.14
-198.57
-178.52
-155.53
-129.89
-103.20
-78.06
-57.24
-42.52
-34.10
-30.82
-30.90
-32.78
-35.58
-39.02
-42.94
-46.95
-50.39
-52.62
-53.43
-53.36
-53.57
-55.50
-60.27
-68.15
-78.40
-89.39
-99.02
-105.25
-106.62
-102.47
-93.18
-79.99
-64.73
-49.37
-35.56
-24.26
-15.66
-9.46
-5.10
-2.25
-0.94
-1.48
-4.19
-9.14
-15.93
-23.76
-31.60
-38.39
-43.24
-45.65
-45.57
-43.47
-40.16
-36.60
-33.54
-31.38
-30.11
-29.48
-29.18
-29.06
-29.16
-29.61
-30.44
-31.53
-32.65
-33.58
-34.21
-34.55
-34.64
-34.57
-34.37
-34.01
-33.48
-32.78
-31.92
-30.91
-29.73
-28.35
-26.75
-25.09
-23.70
-23.17
-24.27
-27.73
-34.25
-44.25
-57.89
-74.89
-94.58
-115.85
-137.26
-157.33
-174.65
-188.11
-196.83
-200.06
-197.20
-187.91
-172.46
-151.88
-128.09
-103.50
-80.51
-60.96
-45.86
-35.45
-29.52
-27.61
-29.16
-33.49
-39.62
-46.37
-52.41
-56.45
-57.45
-54.82
-48.60
-39.47
-28.66
-17.74
-8.27
-1.52
1.72
1.23
-2.86
-10.16
-20.17
-32.31
-45.84
-59.90
-73.63
-86.49
-98.48
-110.25
-122.83
-137.25
-153.96
-172.50
-191.36
-208.23
-220.57
-226.23
-224.06
-214.10
-197.49
-176.01
-151.55
-125.87
-100.56
-77.36
-58.02
-43.91
-35.24
-30.48
-26.50
-19.54
-6.80
12.40
36.19
61.01
82.98
99.25
108.55
111.00
107.40
98.70
85.77
69.57
51.45
33.11
16.48
3.20
-5.68
-9.90
-9.89
-6.54
-0.80
6.57
15.14
24.78
35.47
47.16
59.62
72.50
85.45
98.25
110.87
123.27
135.33
146.56
156.22
163.45
167.60
168.42
166.15
161.40
154.99
147.80
140.75
134.66
130.24
127.92
127.74
129.30
131.80
134.31
136.09
136.76
136.34
135.20
133.79
132.41
131.08
129.49
127.17
123.73
119.14
113.81
108.61
104.44
101.85
100.68
99.93
98.14
94.05
87.33
79.08
71.74
68.33
71.23
81.25
97.03
115.64
133.76
149.04
160.96
170.60
179.50
188.38
196.40
201.46
201.39
195.21
183.83
169.85
156.80
148.33
147.80
158.28
182.25
220.73
271.92
330.03
385.85
429.19
452.61
454.36
438.87
414.25
388.21
364.53
341.89
315.69
281.23
236.32
181.93
120.88
55.85
-11.76
-81.74
-153.83
-226.72
-298.09
-365.42
-427.38
-484.75
-540.50
-598.44
-660.95
-726.71
-789.46
-839.12
-864.97
-859.81
-822.99
-761.00
-684.84
-605.96
-532.49
-467.74
-411.09
-360.40
-314.10
-272.03
-234.88
-202.99
-175.61
-151.00
-127.16
-102.59
-76.50
-48.94
-20.15
9.75
40.96
73.89
108.79
145.47
183.12
220.53
256.50
290.46
322.71
354.17
385.59
416.57
444.99
467.29
479.57
479.21
466.13
443.12
415.09
387.44
364.50
348.51
339.40
335.49
334.39
333.84
332.08
327.85
320.18
308.31
291.76
270.47
245.05
216.89
188.04
160.85
137.52
119.53
107.21
99.50
94.06
87.90
78.34
64.02
45.52
25.31
6.90
-6.49
-13.10
-13.36
-9.70
-5.72
-5.20
-11.06
-24.78
-46.12
-73.10
-102.28
-129.50
-150.78
-163.58
-167.61
-164.86
-158.58
-151.73
-145.52
-139.04
-130.07
-116.70
-98.73
-78.07
-57.85
-40.92
-28.66
-20.70
-15.62
-12.00
-9.09
-6.80
-5.16
-3.64
-1.05
4.04
12.63
24.81
39.72
56.07
72.64
88.69
104.00
118.52
131.96
143.54
152.15
156.63
156.23
150.80
140.78
126.98
110.45
92.35
73.97
56.64
41.62
29.72
21.20
15.70
12.43
10.58
9.46
8.62
7.60
5.79
2.39
-3.40
-12.04
-23.44
-36.84
-50.95
-64.29
-75.56
-84.03
-89.87
-94.17
-98.60
-104.87
-113.86
-125.23
-137.29
-147.63
-154.00
-155.06
-150.85
-142.45
-131.41
-118.97
-105.70
-91.62
-76.66
-61.16
-46.07
-32.65
-21.95
-14.26
-8.85
-4.15
1.72
10.26
22.02
36.40
51.94
66.88
79.91
90.69
99.78
108.13
116.13
122.73
125.15
119.58
102.64
72.96
32.16
-15.31
-63.40
-106.24
-139.55
-161.57
-172.91
-176.06
-174.58
-172.37
-172.76
-177.54
-185.86
-193.73
-194.84
-182.64
-153.36
-108.36
-54.47
-2.03
38.93
62.29
67.57
59.12
43.46
26.21
10.61
-2.44
-12.95
-20.66
-24.89
-25.36
-23.51
-22.78
-27.71
-41.95
-66.21
-97.30
-128.85
-153.50
-165.62
-163.16
-148.04
-124.86
-98.81
-73.75
-51.55
-32.83
-18.54
-11.23
-14.94
-33.43
-67.31
-111.76
-156.49
-188.58
-197.47
-179.66
-140.62
-92.70
-49.88
-21.96
-11.19
-12.78
-18.76
-22.54
-21.62
-17.24
-11.89
-6.62
0.14
11.41
29.46
54.05
82.16
109.11
130.51
143.69
148.15
145.20
137.00
125.88
113.89
102.56
92.59
83.54
73.62
60.19
40.84
14.70
-16.63
-49.23
-78.10
-98.92
-109.54
-110.51
-104.59
-95.41
-86.34
-79.67
-76.52
-77.14
-81.06
-87.30
-94.51
-101.31
-106.65
-110.11
-111.83
-112.00
-110.55
-107.05
-101.22
-93.50
-85.38
-79.00
-76.30
-78.10
-83.67
-91.03
-97.72
-101.67
-101.65
-97.36
-89.28
-78.28
-65.30
-51.02
-35.66
-18.93
-0.06
21.77
46.89
74.56
102.77
128.65
149.29
163.02
170.13
173.03
175.29
179.94
187.86
196.88
202.27
198.58
182.03
152.36
113.38
71.79
34.86
8.06
-6.29
-9.28
-4.28
4.56
13.36
19.04
19.24
12.25
-2.82
-25.57
-53.85
-83.73
-110.15
-128.12
-134.09
-126.78
-107.45
-79.37
-46.79
-13.97
15.59
39.39
56.08
65.40
68.23
66.48
62.66
59.23
57.76
58.52
60.71
63.16
65.17
66.89
69.14
72.81
78.38
85.63
93.71
101.39
107.15
109.39
106.78
98.79
86.18
71.08
56.23
43.88
34.68
27.55
20.40
11.50
0.55
-11.05
-21.01
-27.34
-29.26
-27.33
-22.82
-16.93
-10.30
-3.18
4.29
11.83
19.08
25.90
32.33
38.39
43.74
47.53
48.78
46.80
41.70
34.34
25.80
16.87
7.68
-2.13
-12.87
-24.45
-36.25
-47.52
-57.74
-66.74
-74.40
-80.26
-83.24
-81.75
-74.24
-59.96
-39.54
-15.08
10.36
33.82
53.32
68.42
79.94
89.21
97.16
103.74
108.01
108.74
105.06
96.73
84.13
67.88
48.58
26.86
3.68
-19.45
-40.62
-57.85
-69.71
-75.76
-76.59
-73.61
-68.63
-63.37
-58.97
-55.59
-52.27
-47.38
-39.52
-28.58
-16.09
-4.78
2.66
4.95
2.69
-1.97
-6.61
-9.65
-10.84
-10.77
-10.02
-8.54
-5.66
-0.65
6.72
15.93
26.06
36.26
46.06
55.33
64.01
71.85
78.35
82.98
85.46
85.90
84.67
82.12
78.30
72.87
65.35
55.55
43.90
31.56
19.99
10.35
2.75
-3.94
-11.82
-22.99
-38.46
-57.36
-76.83
-92.85
-101.65
-101.10
-91.28
-74.40
-53.81
-33.09
-15.21
-2.23
4.89
6.38
3.84
-0.11
-2.65
-2.03
1.41
5.24
6.23
2.27
-6.17
-16.08
-23.44
-25.51
-22.38
-17.01
-13.64
-15.68
-24.37
-38.53
-55.59
-72.66
-87.33
-97.57
-101.59
-97.86
-85.58
-65.35
-39.45
-11.30
15.65
38.95
57.65
71.92
82.08
87.87
88.38
82.86
71.70
57.03
42.16
30.33
23.26
20.44
19.70
18.47
15.20
9.93
3.76
-2.28
-8.15
-14.81
-23.43
-34.30
-46.32
-57.31
-65.12
-68.59
-67.90
-64.04
-58.08
-50.44
-40.94
-29.25
-15.64
-1.12
12.76
24.60
33.64
39.94
44.02
46.40
47.27
46.50
43.94
39.73
34.36
28.52
22.72
17.16
11.91
7.11
3.31
1.38
2.19
6.02
12.27
19.57
26.35
31.29
33.67
33.25
30.09
24.44
16.96
8.92
2.12
-1.64
-1.49
1.80
5.95
8.02
5.96
-0.34
-8.86
-16.37
-20.14
-19.21
-14.88
-9.90
-7.11
-7.93
-11.75
-16.22
-18.36
-15.78
-7.37
6.53
24.57
44.90
65.67
85.20
102.17
115.85
126.27
134.41
141.98
150.76
161.80
174.81
188.01
198.71
204.25
202.94
194.59
180.42
162.45
142.79
123.02
103.74
84.44
63.89
40.82
14.73
-13.41
-41.16
-65.46
-83.81
-95.54
-102.15
-106.55
-111.61
-118.65
-126.79
-133.43
-135.46
-130.64
-118.32
-99.56
-76.54
-51.92
-28.14
-7.01
10.57
24.59
35.74
44.86
52.33
57.57
58.84
53.68
39.68
15.25
-19.76
-63.76
-113.46
-164.16
-210.36
-246.72
-269.18
-275.80
-267.16
-245.77
-215.10
-178.61
-139.24
-99.48
-61.68
-28.25
-1.28
18.11
30.34
37.40
42.17
47.47
55.19
66.05
79.77
95.80
113.91
134.53
158.48
186.34
217.81
251.22
283.69
311.63
331.49
340.42
336.52
319.18
289.32
249.57
204.18
158.33
116.86
83.12
58.14
40.80
28.67
19.00
9.33
-2.39
-18.00
-39.02
-66.14
-98.79
-134.74
-170.53
-202.47
-227.75
-245.37
-256.49
-264.04
-271.58
-281.39
-292.99
-302.60
-304.39
-293.06
-266.60
-227.75
-183.19
-140.85
-106.78
-83.38
-69.59
-62.72
-60.43
-61.65
-66.03
-72.82
-80.01
-84.57
-83.52
-75.24
-60.03
-39.94
-18.11
2.45
19.59
32.42
41.31
47.49
52.57
57.93
64.20
71.08
77.55
82.31
84.42
83.92
82.03
80.82
82.44
88.08
97.36
108.27
117.86
123.34
123.16
117.49
107.97
96.76
85.33
73.62
59.90
41.54
16.25
-16.87
-56.82
-100.97
-145.64
-186.81
-220.41
-242.57
-250.02
-241.00
-216.26
-179.64
-137.48
-96.82
-63.08
-38.24
-20.67
-6.61
7.48
22.87
38.07
49.86
55.24
53.16
45.08
34.21
24.13
17.40
14.99
16.57
21.16
27.87
36.14
45.57
55.75
66.03
75.74
84.43
92.03
98.76
104.63
108.93
109.91
105.01
91.70
68.66
36.55
-1.74
-41.76
-78.69
-108.40
-128.35
-137.74
-137.42
-129.40
-116.49
-101.75
-88.16
-78.25
-73.87
-76.01
-84.69
-98.98
-116.94
-135.83
-152.51
-163.98
-167.94
-163.31
-150.34
-130.63
-106.88
-82.45
-60.63
-43.68
-32.09
-24.31
-17.44
-8.52
4.05
19.78
36.34
50.77
60.81
65.86
66.97
66.13
65.38
66.18
69.25
74.81
82.85
93.29
105.87
120.03
134.81
149.05
161.84
172.91
182.72
192.16
201.68
210.54
216.61
217.05
209.58
193.76
171.44
145.89
120.26
95.90
71.97
46.20
16.64
-16.81
-52.04
-85.58
-114.27
-136.63
-153.31
-166.35
-177.96
-189.40
-200.50
-210.13
-216.91
-219.91
-218.85
-213.81
-204.85
-191.99
-175.47
-156.14
-135.64
-116.03
-98.97
-85.11
-73.88
-63.93
-54.04
-43.78
-33.62
-24.56
-17.42
-12.39
-8.95
-6.15
-3.01
1.27
7.20
15.05
24.74
35.82
47.57
59.14
69.89
79.53
88.24
96.47
104.84
113.82
123.56
133.63
142.66
148.30
147.59
137.84
117.92
89.30
56.29
24.87
0.86
-12.36
-14.87
-10.01
-2.61
3.04
4.78
2.74
-1.65
-7.18
-13.93
-23.23
-36.75
-55.26
-77.89
-102.15
-124.60
-141.70
-150.55
-149.46
-138.35
-119.00
-94.92
-70.62
-50.33
-36.56
-29.26
-26.09
-23.73
-19.59
-12.96
-5.14
1.64
5.45
5.68
3.24
-0.09
-2.38
-2.13
1.75
10.17
23.95
43.67
69.14
98.90
130.34
160.44
186.90
209.16
228.27
246.00
263.34
279.39
291.36
295.78
290.13
274.10
249.63
219.80
187.47
154.21
120.33
85.65
50.42
15.64
-17.37
-47.97
-76.82
-105.74
-136.76
-170.86
-207.02
-242.28
-272.66
-294.57
-305.87
-306.15
-296.30
-277.91
-252.91
-223.63
-192.97
-164.13
-139.94
-121.70
-108.57
-97.76
-85.78
-70.07
-50.30
-28.61
-8.66
5.89
12.82
12.01
5.26
-4.51
-14.15
-20.93
-22.90
-18.98
-8.97
6.52
26.04
47.49
68.59
87.43
102.92
114.84
123.51
129.29
132.37
132.76
130.66
126.83
122.53
119.02
116.70
114.45
109.53
98.37
77.94
47.32
8.79
-32.37
-69.23
-95.45
-107.41
-105.43
-93.32
-76.84
-61.58
-51.38
-47.63
-49.42
-54.21
-58.84
-60.60
-58.15
-52.14
-44.86
-39.22
-37.19
-38.64
-41.27
-41.78
-37.66
-28.51
-16.26
-4.07
5.06
9.49
9.08
4.81
-1.86
-9.40
-16.16
-20.40
-20.39
-14.78
-2.97
14.59
36.38
60.22
84.00
106.34
126.85
145.86
163.59
179.32
191.16
196.65
194.14
183.98
168.88
152.88
139.46
129.76
122.07
112.84
98.69
78.25
52.85
25.64
-0.11
-22.72
-42.56
-61.51
-81.60
-103.77
-127.42
-150.68
-171.19
-186.65
-195.08
-194.96
-185.46
-166.86
-140.96
-111.02
-81.05
-54.70
-34.15
-19.57
-9.60
-2.25
4.04
9.85
14.96
18.72
20.64
20.67
19.28
17.35
16.05
16.63
20.18
27.37
38.17
51.86
67.17
82.71
97.33
110.54
122.69
134.79
148.04
162.95
178.55
191.96
198.98
195.54
179.55
152.36
118.67
84.95
56.83
36.88
23.86
13.80
2.24
-13.64
-33.99
-56.80
-79.45
-100.24
-119.18
-137.68
-157.60
-180.13
-205.34
-231.98
-257.87
-280.12
-295.56
-301.27
-295.54
-278.67
-253.38
-224.28
-196.34
-173.13
-155.59
-142.06
-129.43
-114.85
-97.12
-76.86
-55.87
-36.01
-18.45
-3.53
8.94
19.23
27.57
34.29
40.05
45.99
53.44
63.54
76.84
93.04
111.10
129.76
148.01
165.41
181.88
197.08
209.72
217.38
217.13
206.83
186.59
159.30
129.97
103.94
84.81
73.13
66.64
61.69
55.14
45.80
34.54
23.35
13.91
6.50
-0.18
-8.42
-20.31
-36.90
-57.79
-81.35
-105.31
-127.16
-144.37
-154.61
-156.07
-148.19
-132.17
-111.11
-89.22
-70.47
-57.17
-49.22
-44.46
-39.96
-33.42
-24.13
-13.02
-1.97
7.08
12.90
15.21
14.69
12.64
10.64
10.26
12.65
18.42
27.66
40.07
55.15
72.31
90.91
110.37
130.26
150.13
169.25
186.26
198.89
204.32
200.06
185.22
161.42
132.83
104.98
82.81
68.74
61.80
58.23
53.38
43.86
29.00
10.83
-7.05
-21.40
-30.80
-36.21
-40.36
-46.54
-57.27
-73.67
-95.30
-120.43
-146.39
-169.95
-187.70
-196.81
-195.80
-185.17
-167.27
-145.72
-124.16
-105.14
-89.57
-76.80
-65.33
-53.72
-41.16
-27.78
-14.56
-2.86
6.10
11.69
14.13
14.40
13.90
13.95
15.46
18.72
23.51
29.35
35.80
42.64
50.07
58.60
68.90
81.35
95.64
110.51
123.76
132.70
134.88
128.99
115.37
96.26
75.32
56.52
43.00
35.98
34.52
35.92
36.93
34.87
28.44
17.83
4.27
-10.71
-25.80
-40.11
-53.04
-64.12
-73.05
-79.81
-84.72
-88.33
-91.03
-92.88
-93.63
-93.05
-91.37
-89.42
-88.21
-88.26
-89.06
-88.95
-85.69
-77.48
-63.75
-45.47
-24.86
-4.57
13.09
26.67
35.77
40.91
43.20
43.91
44.06
44.23
44.53
44.95
45.70
47.43
51.10
57.63
67.63
81.13
97.63
115.93
134.06
149.14
157.65
156.31
143.46
120.24
90.85
61.30
37.19
21.51
13.64
10.21
7.18
2.07
-5.00
-11.79
-15.69
-15.47
-12.13
-8.58
-8.25
-13.68
-25.74
-43.73
-66.03
-90.72
-115.77
-138.95
-157.72
-169.53
-172.58
-166.66
-153.47
-136.26
-118.69
-103.42
-91.31
-81.43
-71.85
-60.89
-48.03
-34.17
-21.13
-10.81
-4.35
-1.70
-1.74
-2.67
-2.67
-0.37
4.93
13.28
24.34
37.60
52.57
68.75
85.63
102.61
118.98
133.95
146.56
155.72
160.14
158.61
150.41
135.97
117.29
97.95
82.20
73.50
72.97
78.57
85.65
88.67
83.47
69.00
47.57
23.60
1.50
-16.35
-30.36
-43.03
-57.35
-75.14
-96.27
-118.90
-140.52
-158.86
-172.29
-179.73
-180.38
-173.83
-160.37
-141.56
-120.14
-99.38
-81.96
-68.88
-59.18
-50.52
-40.45
-27.60
-12.32
3.55
17.64
27.95
33.66
35.20
34.01
31.84
30.22
29.93
31.05
33.23
36.16
39.93
45.13
52.68
63.60
78.68
98.11
121.05
145.23
166.83
180.99
183.07
170.50
144.27
109.25
72.85
42.40
22.45
13.28
11.53
12.26
11.55
8.04
2.84
-1.85
-4.49
-5.24
-5.96
-9.24
-17.44
-31.92
-53.03
-80.37
-112.75
-148.02
-182.73
-212.50
-232.90
-240.93
-236.23
-221.26
-200.46
-178.44
-158.33
-141.00
-125.50
-110.09
-93.47
-75.27
-55.80
-35.58
-14.97
5.66
25.67
43.92
59.05
70.03
76.73
80.09
81.61
82.78
84.42
86.59
88.86
90.85
92.46
94.05
96.14
98.93
102.34
106.15
110.25
114.43
118.12
119.77
117.33
108.84
93.11
70.74
44.52
18.96
-1.28
-12.54
-13.61
-5.08
11.53
33.94
59.83
87.16
114.36
139.72
161.69
177.95
186.68
186.96
178.21
160.29
133.60
99.46
59.45
15.67
-30.62
-77.04
-115.76
-137.86
-139.17
-122.66
-95.08
-67.31
-42.35
-22.06
-8.19
-2.37
-6.71
-21.06
-44.47
-74.31
-107.16
-139.36
-169.06
-195.55
-219.14
-241.68
-266.06
-294.97
-328.93
-365.42
-398.38
-420.76
-426.40
-412.42
-380.97
-338.31
-292.19
-248.60
-210.18
-176.16
-144.52
-113.29
-81.42
-48.85
-15.68
18.56
54.78
93.30
132.73
169.24
197.50
212.63
212.36
198.33
175.92
152.21
133.19
121.47
115.68
112.06
106.94
98.77
88.55
78.72
71.32
66.74
63.62
59.94
54.39
47.09
39.39
32.86
28.37
25.66
23.72
21.50
18.59
15.56
13.77
14.74
19.45
27.80
38.50
49.35
58.03
62.79
63.00
59.17
52.66
45.11
38.01
32.44
28.91
27.38
27.13
26.91
25.26
20.96
13.74
4.48
-5.02
-12.67
-16.84
-16.86
-12.90
-5.68
3.99
15.37
27.71
40.03
51.15
59.79
65.06
66.66
64.99
60.90
55.43
49.42
43.45
37.82
32.62
27.86
23.47
19.46
15.88
12.85
10.53
9.02
8.30
8.17
8.35
8.57
8.73
8.95
9.58
11.01
13.59
17.50
22.63
28.64
34.91
40.61
44.82
46.66
45.47
40.99
33.41
23.44
12.27
1.41
-7.45
-12.70
-13.05
-7.82
2.82
17.74
35.04
52.31
67.23
78.00
83.80
84.84
82.34
78.14
74.29
72.63
74.50
80.62
91.15
105.85
124.20
145.49
168.75
192.80
216.19
237.21
253.91
264.37
266.82
260.07
243.84
218.90
187.21
151.33
113.94
77.16
42.24
9.52
-21.22
-50.23
-77.48
-102.40
-124.34
-142.78
-157.71
-169.61
-179.22
-187.15
-193.64
-198.64
-201.80
-203.21
-203.41
-203.27
-203.54
-204.36
-205.12
-204.68
-202.16
-196.53
-187.70
-176.03
-161.97
-145.79
-127.49
-107.05
-84.78
-62.00
-39.31
-17.81
1.78
19.13
34.01
45.88
53.87
56.95
53.76
45.59
33.92
20.73
8.00
-2.98
-11.62
-17.94
-22.27
-26.23
-29.47
-33.08
-38.34
-45.98
-55.70
-65.67
-73.11
-68.54
-59.00
-44.16
-26.55
-9.21
5.73
17.62
27.09
34.92
41.17
43.83
42.63
36.62
25.99
12.28
-2.38
-15.95
-27.54
-37.06
-45.47
-51.75
-55.51
-56.23
-53.37
-46.84
-36.91
-24.86
-12.18
-0.63
9.56
17.76
23.34
26.32
26.99
26.49
25.49
25.20
27.05
32.95
43.14
55.61
66.82
71.64
65.80
45.87
11.84
-32.54
-80.47
-125.12
-161.87
-188.43
-206.15
-207.65
-189.82
-155.92
-114.24
-71.73
-30.41
6.86
44.10
82.28
119.45
150.85
172.72
182.38
180.27
169.30
153.23
136.16
120.11
105.71
91.06
73.60
51.23
23.43
-9.05
-44.37
-79.08
-109.34
-130.67
-139.57
-133.95
-113.84
-81.55
-41.83
-0.86
35.85
64.51
84.17
95.82
101.45
102.85
100.91
95.35
85.29
70.39
51.14
29.26
7.08
-12.97
-29.09
-40.48
-47.57
-51.91
-55.42
-59.85
-66.21
-74.75
-85.30
-97.73
-112.06
-128.13
-144.93
-160.25
-170.95
-173.92
-167.15
-150.25
-124.26
-90.89
-51.87
-8.93
35.65
78.54
115.54
142.53
156.78
157.72
146.82
126.87
101.08
72.66
44.61
19.76
0.39
-12.38
-19.00
-21.49
-22.63
-24.99
-29.96
-37.45
-46.28
-54.78
-61.34
-64.85
-64.96
-61.91
-56.27
-48.38
-38.00
-24.45
-7.29
12.56
32.26
47.37
53.42
47.88
31.57
8.64
-14.96
-33.73
-44.50
-46.91
-42.74
-34.41
-23.94
-12.74
-1.99
6.81
11.80
11.40
5.39
-4.41
-14.52
-21.25
-22.44
-18.49
-12.21
-7.28
-6.31
-9.57
-15.00
-19.44
-20.31
-16.71
-9.51
-0.61
8.18
15.75
21.88
26.81
30.86
34.15
36.63
38.28
39.21
39.77
40.45
41.62
43.42
45.73
48.34
51.24
54.56
58.36
62.18
64.77
64.30
59.09
48.54
33.71
17.30
2.79
-6.75
-9.64
-6.01
2.46
13.33
24.18
33.18
39.26
41.99
41.39
37.83
31.95
24.51
16.28
7.83
-0.68
-9.45
-18.95
-29.53
-41.30
-54.06
-67.37
-80.63
-93.15
-104.11
-112.62
-117.98
-119.81
-118.24
-113.75
-106.90
-98.05
-87.26
-74.47
-59.85
-43.88
-27.36
-11.04
4.59
19.30
32.95
45.19
55.43
63.17
68.27
71.31
73.39
75.61
78.49
81.60
83.90
84.32
82.57
79.45
76.63
75.91
78.48
84.38
92.34
100.07
104.82
103.98
95.78
79.77
57.19
30.94
4.97
-16.64
-30.95
-37.03
-36.22
-31.54
-26.40
-23.29
-23.00
-24.55
-26.02
-25.65
-22.77
-18.10
-13.43
-10.89
-12.31
-18.84
-30.81
-47.74
-68.24
-89.90
-109.43
-123.21
-128.31
-123.56
-110.14
-91.36
-71.46
-54.26
-41.83
-34.18
-29.73
-26.41
-22.73
-18.21
-13.35
-9.04
-6.09
-4.87
-5.23
-6.66
-8.30
-9.16
-8.19
-4.54
2.20
11.79
23.40
35.82
47.80
58.39
66.97
73.25
77.18
78.97
79.16
78.61
78.34
78.97
80.38
81.46
80.52
76.00
67.38
55.52
42.42
30.43
21.19
15.15
11.54
9.02
6.38
3.10
-0.76
-4.89
-9.19
-14.04
-20.00
-27.46
-36.21
-45.39
-53.74
-60.04
-63.49
-63.84
-61.26
-56.12
-48.79
-39.49
-28.39
-15.75
-2.16
11.38
23.41
32.40
37.18
37.49
34.17
28.95
23.89
20.60
19.71
20.85
23.02
25.23
26.93
28.10
29.05
30.04
31.08
31.94
32.49
32.87
33.63
35.55
39.25
44.90
52.07
59.88
67.31
73.56
78.29
81.82
84.93
88.49
92.90
97.60
100.81
99.97
92.58
77.37
55.17
28.99
3.32
-17.32
-29.69
-32.80
-27.90
-17.73
-5.46
6.36
16.21
23.69
29.00
32.53
34.37
34.35
32.14
27.44
20.15
10.28
-2.02
-16.61
-33.13
-50.70
-67.60
-81.34
-89.19
-89.09
-80.51
-64.82
-44.86
-23.88
-4.43
12.38
26.78
39.65
51.77
63.26
73.73
82.61
89.66
95.05
99.08
101.87
103.10
102.16
98.62
92.65
85.28
78.15
72.82
70.02
69.45
70.09
71.04
72.38
75.43
82.43
95.60
116.27
144.16
177.27
212.17
244.56
270.24
285.94
290.30
284.32
271.14
255.03
239.82
227.62
218.23
209.74
199.62
185.88
167.57
144.65
117.38
85.95
50.41
11.03
-31.19
-74.50
-116.77
-156.32
-192.54
-226.29
-259.57
-294.74
-333.56
-376.20
-420.91
-464.28
-501.98
-529.71
-544.06
-543.04
-526.48
-496.23
-455.81
-409.86
-363.04
-319.04
-279.83
-245.58
-215.20
-187.23
-160.58
-134.76
-109.72
-85.41
-61.51
-37.74
-14.31
7.70
26.46
39.95
46.74
46.70
41.18
32.64
23.85
17.01
13.30
12.92
15.45
20.25
26.62
33.72
40.57
46.22
50.17
52.58
54.25
56.01
58.13
60.07
60.57
58.46
53.25
45.51
36.73
28.58
22.25
17.94
14.94
12.13
8.68
4.59
0.67
-1.90
-2.43
-1.34
-0.36
-1.88
-7.90
-18.87
-33.08
-47.14
-56.94
-59.01
-51.49
-34.36
-9.25
21.09
53.24
83.58
108.73
126.31
135.49
137.43
134.81
130.79
127.55
125.33
122.49
116.65
106.25
91.55
74.58
58.06
44.07
33.31
25.22
18.83
13.44
8.75
4.23
-1.39
-10.19
-24.19
-44.16
-68.89
-95.33
-119.84
-139.60
-153.49
-161.97
-166.14
-166.76
-163.73
-156.62
-145.47
-131.33
-116.21
-102.19
-90.60
-81.63
-74.67
-68.89
-63.87
-59.62
-56.26
-53.78
-52.01
-50.81
-50.33
-50.74
-51.67
-51.74
-48.53
-39.45
-22.88
0.93
29.80
60.40
89.52
115.23
137.15
155.99
172.58
187.04
198.53
205.69
207.49
203.98
196.53
187.23
178.10
170.29
163.76
157.48
150.02
140.05
126.78
110.10
90.67
70.01
50.38
34.54
25.00
23.03
27.75
36.11
43.80
47.15
44.90
38.98
33.64
33.38
40.59
54.36
70.77
84.94
93.19
94.49
90.43
83.80
77.10
71.47
66.77
62.34
57.94
54.14
52.11
52.76
55.99
60.23
62.75
60.59
51.66
35.55
13.75
-11.04
-35.86
-58.58
-78.51
-96.24
-113.02
-129.85
-146.85
-163.22
-177.69
-189.28
-197.87
-204.28
-209.90
-216.14
-223.91
-233.59
-245.13
-258.04
-271.23
-282.53
-288.76
-286.26
-272.24
-246.09
-210.07
-168.75
-127.61
-91.25
-62.27
-41.17
-26.99
-18.31
-13.77
-12.09
-11.85
-11.42
-9.19
-4.17
3.61
13.14
22.81
31.02
36.81
40.04
41.35
41.72
42.16
43.28
45.24
47.79
50.44
52.70
54.24
54.90
54.71
53.77
52.24
50.28
48.15
46.17
44.73
44.18
44.77
46.55
49.38
52.94
56.82
60.58
63.90
66.67
69.06
71.49
74.38
77.96
82.05
86.00
89.01
90.42
90.07
88.61
87.40
88.27
93.06
102.89
117.65
135.64
153.76
168.14
175.18
172.67
160.51
140.76
117.03
93.34
72.92
57.50
47.07
40.31
35.25
29.94
22.85
13.17
1.00
-12.48
-25.38
-35.57
-41.45
-42.69
-40.19
-35.76
-31.26
-27.94
-26.30
-26.51
-28.84
-33.89
-42.23
-53.51
-65.89
-76.13
