1603737490.00
64.000000
-0.00
-0.00
-0.00
-0.00
-0.00
-0.00
-0.00
-0.00
-0.00
-0.00
0.00
0.01
0.01
-0.00
-0.03
-0.05
-0.05
0.00
0.13
0.36
0.66
1.01
1.37
1.72
2.06
2.40
2.79
3.24
3.80
4.42
5.06
5.66
6.20
6.68
7.15
7.68
8.31
9.14
10.09
11.04
11.88
12.56
13.14
13.76
14.65
15.96
17.91
20.32
22.90
25.38
27.58
29.57
31.68
34.32
37.81
42.54
48.15
54.10
59.83
64.97
69.58
74.14
79.34
85.71
93.76
103.00
112.62
121.73
129.77
136.75
143.30
150.75
157.77
166.64
177.95
191.79
206.97
220.57
228.25
225.36
208.53
176.87
132.76
80.05
23.07
-34.94
-92.44
-149.16
-205.23
-260.37
-313.74
-363.87
-409.83
-450.91
-486.50
-515.74
-537.23
-549.22
-549.96
-538.37
-514.21
-478.67
-433.88
-382.45
-327.02
-269.84
-212.63
-156.66
-102.95
-52.37
-5.90
35.58
71.43
101.35
125.50
144.38
158.69
169.15
176.37
180.75
182.57
182.07
179.51
175.23
169.65
163.18
156.15
148.81
141.30
133.69
126.02
118.33
110.69
103.16
95.81
88.69
81.83
75.25
68.95
62.94
57.24
51.86
46.79
42.05
37.62
33.48
29.60
25.99
22.64
19.57
16.80
14.34
12.17
10.27
8.59
7.08
5.73
4.53
3.50
2.64
1.98
1.48
1.10
0.76
0.41
0.02
-0.40
-0.77
-1.02
-1.11
-1.06
-0.97
-0.98
-1.20
-1.68
-2.31
-2.93
-3.33
-3.38
-3.12
-2.77
-2.63
-2.98
-3.88
-5.16
-6.46
-7.35
-7.57
-7.17
-6.53
-6.20
-6.65
-8.02
-10.05
-12.15
-13.68
-14.23
-13.83
-12.94
-12.20
-12.21
-13.39
-15.83
-19.37
-23.31
-26.44
-27.14
-23.88
-15.91
-3.96
9.75
22.13
30.42
33.35
31.63
27.42
23.26
20.89
20.70
21.98
23.72
25.24
26.48
27.69
28.98
30.07
30.50
29.88
28.27
26.25
24.50
23.55
23.48
23.93
24.36
24.00
22.38
19.26
14.88
9.63
4.12
-1.07
-5.61
-9.58
-13.14
-16.34
-18.94
-20.59
-21.14
-20.82
-20.25
-20.19
-21.01
-22.55
-24.35
-26.01
-27.22
-27.57
-26.29
-22.24
-14.65
-3.63
9.27
21.30
29.64
32.52
30.01
23.84
16.43
9.83
5.06
2.03
-0.00
-1.73
-3.34
-4.75
-5.62
-5.81
-5.46
-4.91
-4.52
-4.45
-4.42
-3.88
-2.36
0.18
3.23
5.74
6.66
5.55
2.69
-0.80
-3.72
-5.19
-5.11
-4.03
-2.78
-2.11
-2.44
-3.68
-5.57
-7.77
-9.85
-11.70
-13.42
-15.20
-17.12
-19.25
-21.56
-23.95
-26.34
-28.67
-30.88
-32.92
-34.70
-36.32
-37.99
-40.18
-43.30
-47.33
-51.49
-54.19
-53.41
-47.30
-35.09
-17.47
3.45
24.63
43.14
56.89
65.21
68.81
69.18
67.98
66.28
64.49
62.53
60.17
57.45
54.65
52.13
49.95
47.74
44.93
41.04
36.09
30.81
26.30
23.59
22.90
23.53
24.13
23.24
20.09
14.87
8.66
2.75
-1.94
-5.24
-7.68
-9.94
-12.52
-15.47
-18.57
-21.55
-24.27
-26.80
-29.15
-31.28
-33.08
-34.58
-36.16
-38.70
-43.40
-51.19
-62.06
-74.43
-85.28
-90.90
-88.28
-76.29
-56.30
-31.58
-5.98
17.36
36.76
51.81
62.68
69.58
72.59
72.11
68.99
64.52
59.86
55.51
51.20
46.30
40.41
33.72
26.87
20.42
14.48
8.53
1.85
-6.15
-15.58
-25.99
-36.69
-46.93
-56.32
-64.86
-73.03
-81.40
-90.55
-100.63
-111.26
-121.75
-131.30
-139.51
-146.57
-153.40
-161.33
-171.74
-185.57
-202.77
-221.97
-240.28
-253.69
-258.01
-250.26
-229.70
-198.55
-161.28
-123.45
-89.92
-63.76
-45.86
-35.40
-30.55
-29.14
-29.04
-28.47
-26.21
-21.80
-15.33
-7.31
1.94
12.45
24.49
38.11
52.70
66.92
79.09
88.03
93.61
96.76
98.96
101.36
104.22
106.82
108.13
107.32
104.49
100.57
96.99
94.99
95.20
97.44
101.04
105.07
108.50
110.39
109.91
106.43
99.82
90.56
79.71
68.52
58.16
49.43
42.76
38.42
36.41
36.45
37.65
38.74
38.28
35.35
29.95
23.14
16.58
11.70
9.18
8.43
8.04
6.40
2.53
-3.49
-10.64
-17.33
-22.06
-23.77
-22.03
-16.93
-8.73
2.28
15.83
31.38
48.15
64.95
80.43
93.45
103.43
110.52
115.51
119.46
123.19
126.94
130.47
133.10
134.33
133.95
132.13
129.29
125.87
122.18
118.52
115.14
112.29
110.20
108.84
107.88
106.62
104.28
100.31
94.59
87.49
79.75
72.12
64.97
58.25
51.56
44.53
37.07
29.37
21.75
14.43
7.41
0.56
-6.15
-12.57
-18.48
-23.82
-28.94
-34.59
-41.64
-50.42
-60.34
-69.70
-76.19
-77.68
-73.07
-62.78
-48.57
-32.92
-18.13
-5.68
4.00
11.18
16.32
19.74
21.53
21.72
20.49
18.29
15.59
12.78
9.92
6.84
3.26
-0.90
-5.42
-9.76
-13.29
-15.54
-16.27
-15.68
-14.20
-12.46
-11.03
-10.26
-10.25
-10.84
-11.82
-13.07
-14.63
-16.74
-19.68
-23.65
-28.62
-34.28
-40.16
-45.69
-50.34
-53.82
-56.09
-57.45
-58.48
-59.87
-62.17
-65.49
-69.39
-73.15
-76.18
-78.42
-80.53
-83.50
-88.23
-94.93
-102.89
-110.52
-115.64
-116.12
-110.28
-97.53
-78.50
-55.11
-30.02
-6.06
14.55
30.51
41.54
48.12
51.13
51.56
50.39
48.39
46.11
43.74
41.17
38.20
34.79
31.14
27.73
25.03
23.29
22.46
22.35
22.66
23.12
23.47
23.26
21.96
19.13
14.62
8.73
2.18
-4.27
-10.05
-15.08
-19.77
-24.69
-30.35
-36.86
-43.95
-51.03
-57.50
-63.01
-67.55
-71.43
-75.16
-79.31
-84.47
-91.19
-99.87
-110.38
-121.79
-132.24
-139.25
-140.37
-134.18
-121.01
-102.95
-83.17
-64.79
-49.86
-39.04
-31.88
-27.53
-25.25
-24.59
-25.11
-26.14
-26.69
-25.86
-23.25
-19.23
-14.68
-10.53
-7.27
-4.79
-2.50
0.18
3.51
7.42
11.52
15.42
18.85
21.68
24.01
25.88
27.27
28.18
28.57
28.65
28.92
30.11
32.76
36.67
40.53
42.22
39.67
31.90
19.75
5.57
-7.78
-18.18
-25.14
-29.59
-33.12
-37.00
-41.64
-46.74
-51.86
-56.93
-62.37
-68.61
-75.53
-82.11
-86.76
-87.99
-84.92
-77.89
-68.11
-57.08
-45.99
-35.29
-24.80
-14.06
-2.79
8.98
20.87
32.46
43.36
53.26
61.84
68.79
73.97
77.48
79.61
80.76
81.20
81.04
80.22
78.77
76.79
74.53
72.26
70.02
67.66
64.95
61.82
58.49
55.47
53.22
51.96
51.61
51.88
52.35
52.70
52.48
51.11
48.02
42.81
35.61
27.14
18.40
10.35
3.52
-1.98
-6.32
-9.66
-12.06
-13.62
-14.60
-15.67
-17.58
-21.02
-26.26
-33.05
-40.60
-47.72
-52.95
-54.97
-52.96
-46.93
-37.74
-26.87
-15.89
-5.94
2.43
9.25
14.86
19.55
23.43
26.42
28.36
29.22
29.18
28.62
28.08
27.97
28.39
29.13
29.71
29.70
28.86
27.30
25.40
23.61
22.24
21.35
20.68
19.86
18.52
16.49
13.80
10.58
7.00
3.11
-1.12
-5.61
-10.20
-14.64
-18.70
-22.33
-25.72
-29.17
-32.91
-36.96
-41.11
-45.03
-48.50
-51.40
-53.71
-55.40
-56.35
-56.33
-55.01
-51.98
-46.77
-39.03
-28.65
-15.91
-1.47
13.76
28.82
42.87
55.31
65.71
73.80
79.44
82.71
83.90
83.52
82.14
80.21
77.98
75.49
72.68
69.53
66.17
62.82
59.76
57.15
55.03
53.28
51.66
49.92
47.92
45.58
42.92
40.01
36.94
33.78
30.62
27.43
24.03
20.12
15.34
9.59
3.18
-3.12
-8.48
-12.31
-14.64
-16.11
-17.71
-20.25
-24.07
-28.95
-34.34
-39.62
-44.21
-47.60
-49.24
-48.65
-45.52
-39.93
-32.44
-23.97
-15.51
-7.77
-1.11
4.54
9.39
13.64
17.26
20.07
21.92
22.81
23.04
23.02
23.18
23.65
24.26
24.62
24.42
23.63
22.58
21.87
21.97
23.02
24.69
26.34
27.37
27.42
26.57
25.19
23.71
22.40
21.31
20.25
19.05
17.63
16.03
14.28
12.37
10.16
7.54
4.46
1.03
-2.65
-6.50
-10.59
-14.93
-19.45
-23.98
-28.33
-32.48
-36.56
-40.79
-45.12
-49.19
-52.28
-53.70
-53.15
-50.93
-47.91
-45.03
-43.03
-42.15
-42.32
-43.27
-44.81
-46.78
-48.91
-50.65
-51.27
-50.06
-46.74
-41.60
-35.34
-28.77
-22.39
-16.17
-9.74
-2.69
5.09
13.19
20.87
27.44
32.60
36.51
39.74
42.83
46.01
48.96
50.98
51.30
49.53
45.95
41.34
36.76
33.09
30.73
29.58
29.20
29.05
28.60
27.46
25.36
22.14
17.85
12.85
7.91
4.09
2.38
3.29
6.67
11.67
17.09
21.78
25.05
26.86
27.60
27.91
28.32
29.09
30.07
30.88
31.04
30.31
28.98
27.76
27.65
29.36
32.91
37.57
42.16
45.59
47.35
47.64
47.14
46.59
46.38
46.52
46.82
47.06
47.25
47.53
48.08
48.99
50.23
51.66
53.01
53.74
53.09
50.15
44.16
35.08
23.95
12.83
4.02
-0.97
-2.31
-1.76
-1.49
-2.80
-5.26
-7.08
-6.66
-4.00
-1.15
-1.20
-6.55
-17.55
-32.44
-48.58
-63.75
-76.98
-88.08
-96.58
-101.23
-100.25
-92.42
-78.12
-59.49
-39.63
-21.47
-6.77
4.05
11.49
16.29
19.07
20.25
20.21
19.34
17.90
15.98
13.27
9.37
4.16
-1.97
-8.08
-13.20
-16.74
-18.90
-20.55
-22.71
-25.97
-30.13
-34.46
-38.20
-41.12
-43.61
-46.37
-49.87
-54.06
-58.41
-62.25
-65.13
-66.84
-67.15
-65.63
-61.73
-55.16
-46.31
-36.39
-27.03
-19.66
-14.84
-12.16
-10.67
-9.39
-7.90
-6.35
-5.24
-5.00
-5.78
-7.33
-9.30
-11.36
-13.23
-14.66
-15.26
-14.53
-12.08
-7.80
-2.03
4.41
10.48
15.18
17.85
18.28
16.68
13.63
9.83
6.05
2.89
0.74
-0.19
-0.04
0.81
1.75
1.99
0.72
-2.64
-8.29
-15.84
-24.33
-32.46
-38.84
-42.29
-42.21
-38.56
-31.99
-23.63
-14.84
-6.89
-0.62
3.73
6.48
8.22
9.50
10.71
12.02
13.56
15.64
18.65
22.86
28.27
34.43
40.66
46.34
51.05
54.77
57.62
59.66
60.86
61.12
60.44
59.03
57.43
56.25
56.09
57.19
59.32
61.91
64.22
65.65
65.99
65.65
65.47
66.53
69.74
75.48
83.46
92.63
101.23
106.94
107.20
99.75
83.41
58.74
28.35
-3.53
-32.00
-52.80
-63.30
-63.05
-53.52
-37.27
-17.12
4.60
26.32
47.07
66.31
83.72
99.30
113.55
127.43
141.91
157.27
172.40
184.73
190.91
188.07
174.97
152.55
123.26
89.89
54.45
17.97
-18.95
-55.09
-88.13
-115.02
-133.34
-142.48
-144.14
-141.78
-139.18
-139.13
-142.58
-148.88
-156.42
-163.46
-168.57
-170.84
-169.67
-164.76
-156.09
-144.05
-129.52
-113.80
-98.53
-85.22
-74.78
-67.04
-60.67
-53.46
-43.28
-29.03
-11.37
7.43
24.28
36.49
42.78
43.50
40.08
34.18
26.95
18.78
9.57
-0.73
-11.68
-22.36
-31.69
-38.87
-43.64
-46.42
-47.97
-49.07
-50.12
-51.02
-51.39
-50.75
-48.98
-46.36
-43.55
-41.12
-39.36
-38.05
-36.75
-35.19
-33.54
-32.39
-32.38
-33.77
-36.17
-38.77
-40.73
-41.56
-41.26
-40.22
-38.84
-37.30
-35.44
-32.81
-28.88
-23.21
-15.60
-6.15
4.62
15.85
26.53
35.78
42.96
47.74
50.06
49.85
47.16
42.23
35.71
28.75
22.90
19.87
20.97
26.92
37.53
51.74
67.78
83.51
96.78
105.82
109.58
107.78
100.87
89.63
74.81
56.86
36.01
12.49
-13.13
-39.72
-65.72
-89.57
-110.25
-127.57
-142.13
-154.95
-166.85
-178.23
-188.93
-198.53
-206.52
-212.31
-215.04
-213.59
-207.05
-195.46
-180.51
-165.49
-154.29
-149.55
-151.20
-155.90
-158.01
-151.73
-133.20
-101.88
-60.59
-14.47
30.62
69.52
98.69
116.54
123.25
120.37
110.30
95.91
80.09
65.59
54.72
49.01
48.90
53.55
61.13
69.49
76.90
82.57
86.70
90.02
93.19
96.42
99.45
101.59
101.91
99.38
93.14
83.05
70.17
56.91
46.55
42.10
44.98
54.30
67.14
79.68
88.84
93.41
94.16
93.13
92.30
92.61
93.55
93.56
90.69
83.41
71.15
54.57
35.50
16.50
0.13
-11.87
-19.31
-23.79
-28.10
-35.10
-46.64
-62.95
-82.74
-103.88
-124.20
-141.89
-155.66
-164.54
-167.94
-165.95
-159.46
-150.23
-140.43
-132.02
-126.19
-123.10
-122.15
-122.35
-122.70
-122.24
-120.04
-115.22
-107.10
-95.43
-80.70
-64.19
-47.62
-32.68
-20.46
-11.19
-4.30
1.16
6.07
10.83
15.21
18.59
20.43
20.59
19.66
18.78
19.37
22.77
30.02
41.71
57.76
77.14
97.68
116.36
130.11
136.85
136.47
130.75
122.63
114.80
108.60
103.92
99.76
95.12
89.49
82.77
74.83
65.08
52.76
37.23
18.50
-2.78
-25.54
-48.66
-71.03
-91.53
-108.82
-121.39
-127.85
-127.41
-120.10
-106.96
-89.75
-70.72
-52.14
-36.00
-23.48
-14.70
-8.55
-2.84
5.07
17.40
35.21
58.03
83.95
110.28
134.18
153.39
166.70
174.08
176.53
175.61
172.74
168.50
162.38
153.05
139.23
120.57
98.14
74.24
51.50
31.84
15.92
3.09
-7.92
-18.25
-28.48
-38.60
-48.32
-57.42
-66.06
-74.73
-83.93
-93.96
-104.57
-114.82
-123.19
-127.82
-126.91
-119.10
-103.70
-80.80
-51.23
-16.43
21.75
61.32
100.43
137.64
171.95
202.65
228.98
249.82
263.78
269.45
266.13
254.14
234.84
210.25
182.29
152.21
120.37
86.22
48.38
5.25
-43.94
-98.14
-153.69
-204.71
-244.59
-268.27
-274.15
-264.53
-244.09
-217.53
-187.79
-155.80
-121.50
-85.32
-48.84
-14.37
15.76
40.49
60.07
75.24
86.25
92.54
93.42
88.85
79.86
67.47
53.55
40.54
30.73
25.08
22.50
20.10
14.02
0.79
-23.29
-58.44
-100.64
-142.98
-178.69
-203.49
-216.21
-218.26
-212.46
-205.21
-201.22
-201.83
-205.51
-210.27
-215.15
-219.91
-224.42
-228.42
-235.59
-248.10
-264.96
-282.62
-297.67
-308.34
-313.99
-314.21
-282.93
-209.83
-106.03
2.68
94.32
160.27
202.08
225.52
237.14
242.22
240.29
230.84
215.35
196.84
177.81
159.15
141.05
125.12
112.34
100.61
88.47
76.17
65.36
57.69
53.75
53.40
56.43
61.72
65.56
64.83
58.55
48.36
37.16
28.05
20.83
16.13
14.05
13.52
13.44
13.22
12.63
11.50
9.59
6.78
3.80
1.32
-0.48
-1.73
-2.58
-3.06
-3.01
-2.34
-1.19
0.30
1.50
1.73
0.55
-2.19
-6.31
-11.41
-16.97
-22.40
-26.99
-30.37
-32.70
-34.57
-36.76
-39.73
-43.35
-47.02
-50.13
-52.23
-53.38
-53.81
-53.57
-52.52
-50.31
-46.58
-40.90
-32.59
-20.69
-4.40
16.31
40.13
64.46
86.29
103.33
114.85
121.81
125.94
128.76
130.83
131.84
131.17
128.62
124.61
120.08
115.92
112.48
109.53
106.35
102.27
96.92
90.53
83.80
77.51
72.21
67.89
64.04
59.84
54.62
48.18
40.86
33.49
26.97
21.92
18.47
16.21
14.46
12.54
10.06
6.90
3.22
-0.86
-5.36
-10.44
-16.38
-23.36
-31.41
-40.30
-49.50
-58.29
-65.93
-71.79
-75.53
-77.18
-77.05
-75.68
-73.61
-71.24
-68.86
-66.61
-64.58
-62.80
-61.37
-60.22
-59.24
-58.03
-56.06
-52.78
-47.82
-41.26
-33.68
-26.02
-19.26
-14.02
-10.28
-7.47
-4.67
-1.00
4.07
10.59
18.16
26.15
33.87
40.73
46.32
50.57
53.85
57.08
61.49
68.10
77.05
87.15
96.03
100.96
99.94
92.58
80.22
65.20
49.75
35.13
21.48
8.35
-4.52
-16.67
-27.05
-34.54
-38.58
-39.43
-38.03
-35.53
-32.89
-30.63
-28.87
-27.42
-26.04
-24.55
-22.95
-21.44
-20.37
-20.14
-20.98
-22.78
-25.16
-27.62
-29.80
-31.68
-33.59
-36.01
-39.37
-43.65
-48.35
-52.65
-55.68
-56.87
-56.18
-54.04
-51.17
-48.32
-45.90
-43.83
-41.50
-37.93
-32.12
-23.42
-11.84
1.88
16.60
31.24
45.21
58.59
71.69
84.59
96.77
107.07
113.88
115.47
110.38
97.90
78.85
56.13
34.77
20.96
19.95
33.49
58.22
86.20
107.78
115.53
107.27
86.67
61.15
38.28
22.82
15.60
14.44
16.18
18.33
19.72
20.07
19.16
16.35
10.91
2.62
-7.70
-18.25
-26.83
-31.75
-32.38
-29.50
-24.94
-20.80
-18.62
-18.75
-20.32
-21.71
-21.43
-18.76
-14.25
-9.27
-5.46
-3.99
-5.20
-8.56
-13.08
-17.65
-21.42
-23.90
-24.85
-24.19
-22.01
-18.67
-14.89
-11.58
-9.64
-9.54
-11.19
-13.94
-16.94
-19.44
-20.97
-21.33
-20.40
-18.05
-14.15
-8.78
-2.44
4.00
9.45
12.95
14.04
12.84
9.99
6.42
3.03
0.59
-0.45
0.10
2.11
5.20
8.78
12.13
14.61
15.77
15.50
14.00
11.66
8.93
6.17
3.77
2.11
1.57
2.38
4.39
6.95
9.01
9.55
7.90
4.09
-1.17
-6.86
-12.09
-16.46
-20.06
-23.30
-26.45
-29.43
-31.81
-33.07
-32.83
-31.08
-28.11
-24.34
-20.16
-15.86
-11.71
-7.99
-5.07
-3.16
-2.16
-1.57
-0.60
1.43
4.79
9.20
13.87
17.85
20.32
20.83
19.38
16.36
12.36
8.11
4.26
1.34
-0.17
-0.13
1.28
3.51
5.83
7.52
8.13
7.47
5.72
3.43
1.24
-0.40
-1.37
-1.82
-2.00
-2.15
-2.35
-2.55
-2.16
-0.65
2.19
6.02
10.10
13.51
15.36
14.94
11.89
7.31
2.63
-0.99
-2.98
-3.20
-1.69
1.37
5.57
10.45
17.63
28.58
43.35
60.04
75.53
86.87
92.14
90.94
84.54
78.44
77.80
84.93
98.28
114.23
129.58
142.58
153.00
161.56
173.36
192.55
220.19
253.71
289.09
323.13
353.55
378.38
371.24
316.35
216.78
95.32
-20.99
-115.42
-183.49
-228.46
-256.28
-272.71
-278.43
-273.81
-260.65
-242.41
-223.46
-204.37
-184.34
-163.14
-142.35
-122.08
-103.64
-88.82
-79.56
-76.67
-79.12
-85.42
-94.46
-105.86
-114.87
-117.77
-112.68
-100.40
-83.76
-66.13
-50.50
-38.75
-31.31
-26.43
-22.26
-17.56
-12.26
-6.95
-2.14
1.88
5.04
7.49
9.70
11.80
13.79
15.44
16.48
16.69
15.88
13.94
10.99
7.42
3.68
0.28
-2.57
-5.01
-7.60
-10.95
-15.47
-20.96
-26.70
-31.76
-35.34
-37.14
-37.45
-37.06
-36.88
-37.60
-39.45
-42.21
-45.36
-48.24
-50.23
-50.83
-49.74
-46.84
-42.25
-36.38
-29.86
-23.50
-18.02
-13.82
-10.75
-8.28
-5.66
-2.45
1.32
5.18
8.52
10.95
12.43
13.17
13.25
12.63
11.11
8.58
5.40
2.35
0.39
0.25
2.13
5.54
9.64
13.49
16.41
18.14
18.79
18.72
18.26
17.55
16.42
14.54
11.60
7.56
2.78
-2.19
-6.86
-10.96
-14.72
-18.58
-23.02
-28.22
-33.83
-38.99
-42.66
-43.94
-42.47
-38.58
-33.12
-27.19
-21.72
-17.32
-14.16
-12.23
-11.47
-11.83
-13.26
-15.62
-18.60
-21.79
-24.82
-27.33
-28.98
-29.36
-28.01
-24.57
-19.01
-11.83
-4.02
3.22
8.79
12.08
13.19
12.73
11.63
10.69
10.35
10.65
11.34
12.11
12.73
13.18
13.52
13.85
14.30
14.97
15.98
17.48
19.62
22.51
26.23
30.90
36.64
43.56
51.68
60.69
69.92
78.21
84.06
86.04
83.13
75.10
62.73
47.52
31.43
16.28
3.43
-6.47
-13.46
-18.09
-21.11
-23.34
-25.42
-27.79
-30.57
-33.60
-36.41
-38.48
-39.33
-38.77
-37.02
-34.64
-32.39
-30.98
-30.76
-31.60
-32.90
-33.87
-33.72
-32.08
-29.08
-25.35
-21.82
-19.32
-18.31
-18.71
-20.02
-21.54
-22.83
-23.77
-24.64
-25.81
-27.49
-29.53
-31.56
-33.11
-33.89
-34.00
-33.74
-33.62
-34.01
-35.02
-36.43
-37.62
-37.86
-36.46
-33.10
-27.95
-21.53
-14.65
-8.02
-2.07
3.12
7.65
11.68
15.30
18.41
20.88
22.57
23.47
23.70
23.53
23.17
22.80
22.43
21.98
21.39
20.71
20.10
19.75
19.85
20.41
21.30
22.25
22.91
22.95
22.07
20.19
17.49
14.44
11.74
9.96
9.29
9.30
9.16
7.97
5.39
1.77
-2.05
-5.20
-7.33
-8.71
-10.06
-12.00
-14.79
-18.02
-20.98
-22.94
-23.47
-22.47
-20.18
-16.85
-12.72
-7.93
-2.63
2.92
8.39
13.35
17.41
20.31
22.10
23.10
23.82
24.72
26.02
27.58
29.02
29.97
30.22
29.95
29.50
29.24
29.34
29.70
29.94
29.64
28.42
26.11
22.74
18.53
13.89
9.40
5.75
3.53
2.98
3.83
5.33
6.50
6.44
4.72
1.42
-2.89
-7.50
-11.84
-15.65
-19.06
-22.21
-25.19
-27.88
-30.11
-31.82
-33.09
-34.16
-35.26
-36.56
-38.11
-39.92
-41.96
-44.20
-46.42
-48.16
-48.69
-47.29
-43.57
-37.69
-30.33
-22.43
-14.84
-8.15
-2.55
1.94
5.43
8.01
9.78
10.94
11.74
12.53
13.59
15.10
16.91
18.69
20.01
20.56
20.32
19.51
18.62
18.08
18.14
18.71
19.49
20.06
20.09
19.46
18.23
16.66
15.03
13.58
12.47
11.72
11.20
10.71
10.03
8.97
7.53
5.78
3.89
2.01
0.23
-1.44
-3.10
-4.83
-6.72
-8.80
-10.99
-13.15
-15.21
-17.18
-19.13
-21.06
-22.70
-23.53
-22.87
-20.20
-15.49
-9.25
-2.41
4.09
9.60
13.94
17.29
19.93
22.07
23.77
25.12
26.23
27.35
28.60
29.96
31.16
31.94
32.15
32.00
31.93
32.47
33.93
36.28
39.14
41.95
44.21
45.60
46.00
45.43
43.89
41.38
37.88
33.50
28.42
22.94
17.44
12.22
7.50
3.32
-0.49
-4.20
-8.05
-12.10
-16.20
-19.96
-23.01
-25.18
-26.63
-27.81
-29.17
-30.90
-32.71
-33.96
-33.86
-31.90
-28.05
-22.86
-17.07
-11.42
-6.25
-1.56
2.82
7.00
10.84
14.03
16.22
17.23
17.17
16.38
15.32
14.40
13.91
13.89
14.22
14.60
14.69
14.25
13.23
11.87
10.52
9.53
9.01
8.86
8.83
8.69
8.35
7.83
7.17
6.34
5.22
3.69
1.79
-0.24
-1.98
-3.10
-3.62
-3.90
-4.56
-6.07
-8.47
-11.31
-13.87
-15.59
-16.31
-16.32
-16.16
-16.32
-16.99
-18.12
-19.57
-21.24
-23.07
-24.98
-26.72
-27.90
-28.09
-26.93
-24.28
-20.22
-15.00
-9.07
-2.92
2.99
8.36
13.10
17.24
20.89
24.04
26.58
28.40
29.54
30.27
31.02
32.13
33.60
35.00
35.63
34.92
32.70
29.33
25.57
22.30
20.13
19.34
19.92
21.75
24.78
28.95
34.14
40.00
45.93
51.22
55.26
57.86
59.25
59.98
60.66
61.72
63.30
65.28
67.36
69.24
70.62
71.23
70.84
69.31
66.70
63.26
59.45
55.81
52.88
50.99
50.14
49.94
49.70
48.64
46.18
42.18
37.05
31.59
26.77
23.43
22.15
23.10
26.01
30.19
34.52
37.61
38.20
35.52
29.61
21.28
11.90
2.82
-4.94
-10.87
-15.02
-17.71
-19.38
-20.51
-21.51
-22.75
-24.45
-26.61
-28.97
-31.06
-32.38
-32.60
-31.84
-30.64
-29.79
-30.05
-31.80
-34.92
-38.97
-43.48
-48.35
-53.90
-60.82
-69.76
-80.98
-94.20
-108.57
-122.88
-135.72
-145.72
-151.63
-152.60
-148.21
-138.62
-124.46
-106.78
-86.93
-66.49
-47.09
-30.24
-16.98
-7.74
-2.20
0.44
1.16
0.78
-0.18
-1.47
-2.99
-4.62
-6.13
-7.35
-8.16
-8.52
-8.42
-7.86
-6.93
-5.81
-4.91
-4.80
-6.05
-9.02
-13.63
-19.47
-25.95
-32.52
-38.79
-44.65
-50.13
-55.22
-59.80
-63.60
-66.34
-67.89
-68.36
-68.13
-67.76
-67.85
-68.97
-71.52
-75.60
-80.99
-87.19
-93.54
-99.41
-104.21
-107.31
-108.05
-105.68
-99.58
-89.53
-76.05
-60.38
-44.35
-29.77
-17.93
-9.27
-3.40
0.71
4.32
8.62
14.41
21.94
30.83
40.26
49.32
57.38
64.38
70.70
76.90
83.28
89.74
95.81
101.04
105.14
108.01
109.54
109.49
107.53
103.55
97.76
90.71
82.93
74.62
65.66
55.79
45.01
33.81
23.01
13.45
5.62
-0.58
-5.57
-9.91
-13.99
-18.19
-22.87
-28.53
-35.61
-44.13
-53.36
-61.87
-67.84
-69.74
-66.88
-59.64
-49.34
-37.67
-26.17
-15.74
-6.58
1.65
9.45
17.12
24.67
31.71
37.78
42.46
45.58
47.24
47.72
47.39
46.55
45.42
43.96
41.77
38.17
32.26
23.34
11.24
-3.58
-19.99
-36.64
-52.18
-65.46
-75.55
-81.70
-83.35
-80.30
-72.92
-62.15
-49.40
-36.21
-23.82
-13.08
-4.37
2.36
7.39
11.02
13.50
14.78
14.62
12.79
9.44
5.25
1.34
-1.16
-1.54
0.33
4.07
9.29
15.83
23.61
32.40
41.37
49.19
54.51
56.59
55.64
52.71
49.12
45.80
42.95
40.15
36.85
32.76
28.04
23.14
18.60
14.79
11.87
9.90
8.86
8.70
9.35
10.68
12.52
14.78
17.33
19.99
22.55
24.60
25.80
25.90
24.88
23.16
21.44
20.58
21.31
24.03
28.58
34.33
40.31
45.59
49.56
52.12
53.68
54.93
56.52
58.74
61.33
63.41
63.80
61.38
55.53
46.58
35.85
25.50
17.77
14.34
15.67
21.01
28.76
37.09
44.54
50.21
53.74
55.10
54.36
51.58
46.90
40.56
32.89
24.28
15.02
5.33
-4.60
-14.58
-24.34
-33.55
-41.96
-49.46
-56.09
-62.06
-67.59
-72.77
-77.46
-81.35
-84.08
-85.46
-85.58
-84.74
-83.37
-81.74
-79.86
-77.50
-74.44
-70.72
-66.71
-62.94
-59.75
-57.10
-54.64
-51.97
-48.97
-45.99
-43.67
-42.69
-43.43
-45.87
-49.62
-54.13
-58.63
-62.22
-63.91
-62.87
-58.79
-52.05
-43.76
-35.20
-27.46
-21.14
-16.44
-13.45
-12.36
-13.29
-16.12
-20.24
-24.85
-29.22
-33.10
-36.63
-40.07
-43.32
-45.87
-46.86
-45.57
-41.66
-35.34
-27.27
-18.40
-9.88
-2.76
2.08
4.20
3.77
1.53
-1.53
-4.38
-6.29
-6.84
-5.78
-3.02
1.44
7.26
13.74
19.85
24.40
26.33
25.09
20.81
14.42
7.35
1.24
-2.79
-4.53
-4.76
-4.87
-6.27
-9.82
-15.48
-22.51
-29.80
-36.29
-41.07
-43.61
-43.60
-41.04
-36.21
-29.76
-22.50
-15.22
-8.48
-2.64
2.13
5.74
8.11
9.33
9.72
9.90
10.54
12.23
15.17
19.16
23.52
27.30
29.58
29.74
27.80
24.52
21.07
18.75
18.42
20.20
23.45
27.03
29.91
31.42
31.52
30.52
28.91
26.87
24.39
21.29
17.48
13.11
8.52
4.20
0.41
-2.84
-5.84
-8.95
-12.46
-16.41
-20.60
-24.76
-28.59
-31.81
-34.13
-35.21
-34.68
-32.21
-27.64
-21.04
-12.83
-3.73
5.32
13.36
19.75
24.31
27.35
29.44
31.18
32.92
34.62
36.04
36.90
37.02
36.44
35.39
34.17
33.12
32.59
32.86
34.10
36.21
38.83
41.44
43.47
44.50
44.38
43.18
41.12
38.47
35.43
32.16
28.76
25.31
21.88
18.51
15.17
11.82
8.32
4.56
0.51
-3.72
-7.89
-11.73
-15.06
-17.94
-20.66
-23.59
-26.98
-30.80
-34.63
-37.77
-39.38
-38.76
-35.57
-29.85
-22.09
-13.12
-3.89
4.75
12.23
18.40
23.49
27.87
31.89
35.68
39.18
42.26
44.84
47.02
49.05
51.14
53.33
55.43
57.16
58.35
59.12
59.92
61.28
63.64
67.14
71.53
76.22
80.57
84.07
86.65
88.68
90.79
93.70
97.78
102.97
108.89
115.01
120.85
126.03
130.19
132.86
133.54
131.87
127.95
122.30
115.68
108.56
100.82
91.75
80.38
65.93
48.22
27.75
5.58
-17.02
-38.62
-57.86
-73.54
-84.73
-90.96
-92.50
-90.22
-85.64
-80.56
-76.61
-75.10
-76.61
-81.08
-87.80
-95.69
-103.49
-110.02
-114.32
-115.73
-113.97
-109.18
-101.83
-92.63
-82.34
-71.48
-60.18
-48.29
-35.71
-22.83
-10.76
-1.10
4.66
6.01
3.77
-0.09
-3.28
-4.09
-2.08
2.03
6.89
11.20
14.29
16.00
16.59
16.34
15.42
13.98
12.12
9.96
7.51
4.69
1.35
-2.55
-6.80
-10.94
-14.46
-16.95
-18.24
-18.46
-17.95
-17.18
-16.58
-16.31
-16.31
-16.17
-15.31
-13.22
-9.66
-4.80
0.85
6.62
11.95
16.53
20.39
23.80
27.07
30.45
34.04
37.86
41.89
46.12
50.41
54.46
57.63
59.04
57.79
53.22
45.17
34.03
20.70
6.39
-7.56
-19.77
-29.05
-34.52
-35.94
-33.90
-29.79
-25.42
-22.42
-21.70
-23.11
-25.58
-27.64
-28.12
-26.57
-23.38
-19.42
-15.58
-12.33
-9.60
-6.96
-3.96
-0.50
3.19
6.49
8.76
9.49
8.55
6.16
2.93
-0.37
-2.89
-4.03
-3.57
-1.79
0.62
2.83
4.08
4.01
2.62
0.28
-2.51
-5.26
-7.54
-9.11
-9.91
-10.04
-9.81
-9.58
-9.56
-9.81
-10.09
-10.10
-9.58
-8.45
-6.75
-4.63
-2.27
0.10
2.18
3.65
4.25
3.97
3.06
1.84
0.51
-0.94
-2.61
-4.50
-6.37
-7.74
-8.21
-7.68
-6.28
-4.32
-2.01
0.46
2.62
3.66
2.49
-1.53
-8.11
-15.79
-22.40
-26.12
-26.21
-23.38
-19.23
-15.33
-12.52
-10.64
-8.94
-6.67
-3.65
-0.31
2.59
4.45
5.08
4.78
4.16
3.72
3.59
3.52
3.06
1.91
0.22
-1.47
-2.49
-2.49
-1.72
-0.96
-1.13
-2.77
-5.76
-9.33
-12.51
-14.58
-15.35
-15.09
-14.32
-13.47
-12.90
-12.91
-13.94
-16.45
-20.71
-26.55
-33.46
-40.69
-47.73
-54.53
-61.39
-68.65
-76.26
-83.67
-90.02
-94.38
-96.00
-94.40
-89.45
-81.38
-70.86
-58.99
-47.26
-37.20
-29.95
-26.16
-25.84
-28.53
-33.37
-39.27
-45.10
-50.02
-53.49
-55.15
-54.79
-52.16
-47.18
-40.00
-31.29
-22.27
-14.45
-8.80
-5.16
-2.45
0.71
5.13
10.58
16.01
20.12
21.53
20.01
16.67
13.09
10.42
8.83
7.83
6.79
5.31
2.15
-3.20
-10.02
-16.90
-22.57
-26.51
-28.71
-29.51
-29.60
-31.69
-37.51
-46.66
-57.13
-66.95
-75.07
-81.19
-85.32
-87.58
-90.53
-95.79
-103.01
-110.57
-117.04
-121.54
-122.85
-119.20
-93.40
-40.36
28.84
93.82
139.38
161.56
164.61
156.27
144.08
133.03
123.03
113.43
104.91
99.35
97.82
99.69
102.81
104.63
102.55
93.88
78.87
61.01
45.36
35.66
33.08
35.94
41.04
45.29
46.37
43.99
39.63
35.41
32.69
32.28
34.22
38.18
43.85
51.12
59.77
69.10
78.02
85.06
89.50
90.73
88.35
78.11
59.20
35.75
14.76
3.00
-0.52
1.57
6.68
12.30
16.90
20.57
23.82
26.61
28.13
27.21
23.70
18.15
11.70
5.91
2.75
3.22
6.62
10.82
13.03
11.43
5.28
-4.90
-17.33
-29.18
-37.81
-41.83
-41.46
-38.28
-34.15
-30.82
-29.41
-30.26
-33.03
-37.26
-42.67
-49.04
-55.84
-61.92
-65.96
-67.05
-65.11
-60.85
-55.55
-50.49
-46.53
-43.97
-42.65
-42.14
-41.96
-41.51
-40.16
-37.21
-32.03
-24.29
-14.07
-2.02
10.82
23.10
33.54
41.19
45.78
47.63
47.51
46.31
44.68
42.95
41.12
39.06
36.60
33.74
30.68
27.85
25.80
25.08
25.79
27.38
28.62
27.88
23.76
15.69
4.41
-7.98
-18.47
-24.06
-22.78
-14.32
-0.29
16.26
31.72
42.98
48.19
47.26
41.29
31.92
20.73
8.89
-2.97
-14.63
-26.06
-37.21
-47.56
-56.45
-63.27
-67.48
-68.69
-66.57
-60.94
-51.70
-38.87
-22.46
-3.26
16.80
35.00
48.76
56.72
59.38
58.89
55.69
50.78
45.11
39.10
32.67
25.90
19.33
13.49
7.88
1.04
-8.36
-20.66
-34.67
-47.87
-57.72
-62.63
-62.84
-60.32
-57.42
-55.51
-54.83
-54.84
-54.79
-54.16
-53.07
-51.22
-48.85
-46.28
-43.61
-40.83
-38.16
-35.89
-34.28
-33.03
-31.90
-30.95
-30.42
-30.44
-30.65
-30.55
-29.49
-26.16
-18.56
-5.24
14.24
39.50
69.85
105.31
142.81
179.24
205.95
215.99
206.56
180.83
146.18
110.22
78.08
55.37
38.70
24.96
13.13
3.52
-3.06
-6.07
-7.49
-8.36
-9.47
-11.46
-13.50
-14.35
-13.26
-10.30
-6.27
-2.25
1.32
4.30
6.47
8.45
10.38
11.64
11.17
8.08
2.05
-6.23
-15.73
-26.67
-37.70
-47.65
-56.22
-63.64
-69.88
-74.50
-76.80
-76.49
-75.02
-72.19
-67.72
-61.31
-52.79
-42.33
-30.67
-18.91
-8.20
0.56
7.25
12.22
16.28
20.31
24.69
29.03
32.27
33.28
31.46
27.45
22.50
18.03
15.04
13.70
13.33
13.00
12.02
10.43
8.95
8.28
8.53
9.03
8.57
6.01
0.83
-6.63
-15.58
-25.25
-35.36
-45.82
-56.11
-64.69
-69.03
-66.51
-55.71
-37.55
-15.37
5.88
21.39
28.12
25.95
17.66
7.91
1.52
1.89
9.91
23.69
39.54
52.83
58.96
53.84
34.52
0.31
-45.62
-95.34
-137.18
-159.16
-153.78
-121.64
-71.68
-17.69
27.43
56.44
69.23
70.71
66.89
61.74
56.38
50.54
44.37
39.29
37.15
38.78
43.12
47.53
49.04
45.85
38.00
27.05
15.28
4.67
-3.73
-9.92
-14.73
-19.30
-24.56
-30.86
-37.83
-44.54
-50.11
-54.12
-56.92
-59.36
-62.29
-65.76
-68.86
-69.98
-67.48
-60.54
-49.58
-36.15
-22.31
-9.88
0.15
7.69
13.26
17.59
21.23
24.44
27.27
29.72
31.89
33.89
35.76
37.47
38.88
39.84
40.38
40.62
40.77
40.98
41.18
40.99
39.78
36.77
31.27
23.01
12.29
-0.05
-12.72
-24.48
-34.59
-42.96
-50.09
-56.56
-62.59
-67.73
-71.11
-71.82
-69.54
-64.66
-58.15
-51.15
-44.39
-38.08
-31.90
-25.21
-17.24
-7.41
4.65
18.85
34.60
50.80
65.95
78.66
88.08
94.02
96.96
97.63
96.66
94.33
90.53
84.84
76.89
66.86
55.58
44.37
34.40
26.11
19.29
13.10
6.61
-0.60
-8.11
-14.93
-20.07
-23.22
-24.93
-25.55
-25.29
-24.30
-22.92
-21.71
-21.29
-22.19
-24.61
-28.26
-30.86
-29.90
-23.91
-13.52
-1.05
10.58
18.81
22.16
20.65
17.96
18.61
25.80
39.69
57.85
76.83
93.19
104.53
109.87
112.85
118.60
131.49
153.43
184.23
222.97
267.74
315.99
346.55
342.69
300.01
230.83
154.77
86.73
32.99
-7.53
-38.80
-64.96
-85.41
-97.87
-100.92
-96.07
-86.76
-74.97
-63.21
-52.88
-45.54
-40.80
-38.85
-40.94
-48.98
-64.03
-83.77
-106.12
-129.34
-154.04
-181.16
-213.21
-248.22
-285.58
-324.53
-349.09
-344.54
-302.16
-225.32
-125.92
-20.13
72.16
145.24
195.02
220.61
221.61
200.82
160.85
109.41
60.27
26.08
12.76
16.82
31.65
44.99
51.42
47.63
32.82
7.68
-27.26
-66.84
-108.40
-141.49
-159.64
-161.23
-151.00
-135.59
-119.94
-106.14
-93.35
-80.52
-66.09
-50.99
-37.06
-26.92
-21.88
-21.43
-23.77
-26.23
-26.69
-23.46
-17.18
-9.55
-3.29
-0.83
-3.64
-11.96
-23.63
-34.27
-37.53
-27.80
-2.05
38.22
87.03
135.20
172.76
191.95
189.23
166.29
128.92
85.33
43.62
9.86
-13.09
-25.56
-29.97
-29.39
-26.29
-22.32
-18.45
-15.82
-15.51
-18.10
-23.21
-29.38
-34.65
-37.61
-37.80
-36.11
-34.34
-34.21
-36.63
-41.38
-47.35
-53.10
-57.51
-60.69
-62.86
-65.00
-68.15
-72.89
-79.10
-86.09
-92.86
-98.45
-102.27
-103.97
-103.65
-101.84
-98.22
-92.28
-83.50
-71.52
-56.31
-38.25
-18.08
3.06
24.32
44.13
61.38
75.45
86.07
93.29
97.36
98.71
97.81
95.33
91.63
87.19
82.38
77.44
72.55
67.79
63.23
58.86
54.65
50.59
46.69
42.99
39.49
36.18
33.07
30.12
27.34
24.71
22.19
19.83
17.63
15.61
13.75
12.05
10.49
9.07
7.78
6.59
5.51
4.54
3.70
2.96
2.34
1.81
1.37
1.01
0.71
0.47
0.30
0.19
0.13
0.13
0.18
0.27
0.39
0.56
0.75
0.97
1.21
1.48
1.78
2.10
2.46
2.86
3.31
3.79
4.32
4.92
5.57
6.28
7.07
7.93
8.87
9.91
11.02
12.21
13.49
14.86
16.35
17.93
19.64
21.46
23.42
25.46
27.55
29.71
31.94
34.30
36.80
39.49
42.36
45.43
48.53
51.56
54.36
56.74
58.44
59.23
58.84
57.02
53.55
48.21
40.90
31.73
20.97
9.09
-3.36
-15.74
-27.47
-37.61
-46.22
-53.25
-58.68
-62.58
-64.94
-65.81
-65.27
-63.82
-61.59
-59.15
-56.95
-55.37
-54.49
-54.11
-53.81
-53.21
-52.09
-50.56
-49.19
-48.53
-48.97
-50.53
-52.80
-55.10
-56.90
-57.85
-58.14
-58.35
-59.10
-60.94
-64.24
-69.24
-75.80
-83.06
-89.20
-91.76
-88.57
-78.65
-63.08
-44.73
-27.12
-12.93
-3.21
3.49
9.26
15.76
23.47
31.69
39.27
45.36
49.89
53.37
56.35
58.96
60.90
61.78
61.31
59.73
57.61
55.26
52.28
47.48
39.36
27.18
11.92
-3.65
-15.83
-21.53
-19.71
-11.93
-1.46
7.93
13.48
14.54
12.19
8.33
4.81
2.65
2.17
3.85
8.03
14.43
21.45
26.03
24.65
15.37
-0.10
-16.09
-24.65
-19.76
-0.30
29.40
61.55
88.65
106.63
115.61
118.56
119.14
118.74
116.59
111.16
101.76
89.20
75.34
61.71
45.50
26.79
6.11
-15.69
-37.58
-58.40
-76.84
-91.71
-102.43
-109.29
-112.88
-114.70
-116.21
-118.32
-121.31
-124.74
-127.93
-130.43
-132.20
-133.29
-134.35
-135.79
-137.77
-140.10
-142.10
-142.79
-141.23
-136.72
-128.57
-116.61
-101.27
-82.15
-59.39
-33.46
-5.13
24.57
54.42
83.29
108.13
128.12
143.06
152.90
157.96
158.83
156.27
151.06
144.00
135.82
127.38
119.19
111.36
103.95
96.96
90.35
84.09
78.02
72.19
66.84
62.06
57.78
53.96
50.56
47.54
44.85
42.26
39.80
37.51
35.23
32.71
29.60
25.63
20.50
14.93
7.99
-0.35
-9.78
-19.82
-29.87
-39.21
-47.05
-52.71
-55.66
-55.77
-52.94
-47.45
-39.85
-31.01
-21.87
-13.31
-6.17
-1.11
1.37
1.27
-1.14
-5.36
-10.71
-16.45
-21.66
-25.76
-28.34
-29.25
-28.42
-25.95
-22.11
-17.28
-11.92
-6.20
-0.62
4.37
8.34
11.08
12.52
12.71
11.75
9.83
7.47
4.78
1.69
-1.91
-6.16
-11.05
-16.67
-23.02
-32.36
-43.94
-56.74
-69.86
-82.64
-94.77
-105.77
-115.40
-123.52
-130.14
-135.01
-138.36
-140.65
-142.13
-143.30
-144.21
-145.06
-146.05
-147.37
-149.00
-151.17
-154.20
-158.38
-164.09
-171.01
-178.87
-187.32
-195.94
-203.97
-210.62
-214.95
-215.51
-214.18
-211.19
-206.52
-200.02
-191.50
-180.75
-167.78
-152.79
-136.18
-118.56
-100.03
-80.80
-61.08
-40.99
-20.68
-0.35
19.65
38.75
56.49
72.70
86.93
98.50
107.30
113.66
118.12
121.03
122.50
122.64
121.67
119.70
116.67
113.07
109.69
107.15
105.48
104.04
102.53
100.73
98.47
95.35
92.51
91.76
94.76
101.87
112.14
125.73
142.40
161.27
179.51
197.51
217.17
240.59
268.29
299.61
337.47
383.18
434.41
481.25
517.54
540.42
551.07
552.24
547.32
544.62
546.84
548.83
534.82
500.67
453.43
409.12
383.20
385.95
427.82
508.26
614.78
719.40
805.01
863.25
893.60
897.00
823.11
652.14
401.48
171.88
-8.56
-137.93
-237.69
-315.53
-377.79
-430.50
-470.87
-497.72
-515.55
-539.40
-571.56
-606.87
-636.87
-658.20
-671.53
-673.40
-663.47
-648.40
-643.81
-654.45
-676.50
-699.73
-714.27
-711.55
-682.26
-607.73
-488.23
-347.38
-212.52
-102.42
-20.87
36.59
77.15
108.42
135.00
156.43
170.63
180.85
193.04
211.67
235.01
257.15
270.20
268.21
248.12
212.72
171.56
136.32
115.44
110.29
116.76
128.40
139.97
147.74
150.90
150.26
146.19
140.95
133.68
123.05
108.51
90.87
71.36
51.46
32.19
13.65
-5.12
-26.36
-52.00
-82.96
-118.81
-158.17
-198.84
-238.33
-273.90
-302.80
-322.76
-331.79
-328.92
-315.05
-293.28
-268.49
-245.89
-229.34
-220.38
-218.44
-221.48
-226.99
-232.57
-235.75
-233.78
-223.75
-203.34
-172.21
-133.20
-91.82
-54.72
-27.34
-11.85
-6.65
-7.49
-9.57
-9.63
-7.08
-3.21
0.28
2.82
5.40
9.74
16.68
25.02
31.66
33.17
27.60
15.67
0.23
-15.07
-27.39
-35.75
-40.91
-44.48
-47.86
-51.72
-55.77
-59.49
-61.82
-61.37
-56.54
-45.98
-29.09
-6.43
20.21
48.55
75.40
98.23
115.50
126.91
133.53
137.57
141.26
145.87
151.31
154.20
150.07
134.86
106.22
64.25
11.42
-47.85
-107.70
-160.24
-198.91
-218.09
-215.40
-193.67
-161.46
-131.22
-115.55
-123.40
-147.88
-178.29
-200.42
-202.79
-181.68
-141.04
-88.43
-30.70
22.35
70.01
109.70
136.97
146.82
136.73
108.89
70.40
32.16
4.42
-5.10
4.12
27.77
58.78
89.93
115.79
133.78
143.78
147.31
147.44
145.68
142.85
139.07
134.21
128.44
122.58
117.57
113.84
111.30
108.33
103.07
94.47
82.89
70.09
58.57
50.26
45.65
43.76
42.03
37.72
29.09
16.23
1.25
-12.83
-23.54
-30.23
-34.23
-38.34
-45.28
-56.08
-69.36
-82.16
-91.60
-96.60
-98.25
-98.60
-99.07
-99.74
-99.82
-98.69
-96.73
-94.83
-92.80
-87.48
-72.49
-39.87
14.36
86.21
164.21
234.80
288.09
319.68
328.75
315.34
279.99
225.12
156.97
85.67
22.51
-24.33
-52.73
-66.16
-70.79
-71.89
-71.96
-70.95
-67.98
-62.80
-56.46
-51.03
-48.69
-51.08
-58.45
-68.94
-78.83
-83.19
-77.40
-59.32
-30.97
1.80
31.00
48.93
52.21
42.50
25.04
6.28
-8.49
-16.49
-17.93
-15.91
-15.10
-20.56
-35.89
-61.57
-94.24
-127.68
-155.09
-169.61
-168.06
-150.16
-117.48
-73.18
-22.09
29.56
75.26
109.90
131.67
141.71
143.04
138.85
130.98
120.46
108.42
97.07
89.45
88.51
95.18
107.46
120.49
128.10
124.11
104.67
70.77
26.05
-21.56
-62.13
-86.71
-90.37
-74.25
-46.05
-18.09
-3.37
-10.59
-39.20
-79.94
-118.42
-141.93
-143.29
-123.32
-89.26
-50.84
-15.50
14.24
39.13
59.73
73.45
75.03
59.59
27.49
-13.36
-49.50
-67.25
-59.83
-30.50
8.01
40.61
57.20
57.06
47.44
38.16
35.40
38.39
40.90
36.06
21.27
0.16
-19.42
-29.56
-26.46
-11.60
9.56
30.57
46.57
54.76
53.66
42.11
19.25
-14.38
-55.83
-99.59
-138.68
-166.43
-178.00
-171.20
-146.85
-109.17
-64.97
-22.34
11.50
32.48
40.81
40.16
35.68
31.60
29.69
29.83
30.73
31.34
31.40
31.20
31.12
31.43
32.23
33.38
34.76
36.17
37.28
37.84
37.76
37.29
37.10
38.13
40.82
45.09
50.08
54.27
56.37
56.10
54.35
52.89
53.51
57.05
63.12
69.66
73.24
69.97
56.43
30.83
-6.08
-50.57
-96.09
-134.39
-157.59
-160.32
-141.53
-105.02
-58.24
-9.89
32.88
66.48
91.33
110.13
125.05
135.81
138.56
127.93
100.31
56.66
2.98
-51.60
-98.42
-132.72
-153.81
-164.15
-166.55
-162.29
-150.74
-130.59
-101.72
-65.73
-27.10
9.21
39.67
63.15
80.39
93.10
102.28
107.91
108.69
102.69
88.69
66.75
38.57
6.76
-25.51
-55.95
-83.36
-107.52
-128.88
-147.60
-164.17
-177.70
-186.97
-191.04
-189.66
-183.26
-172.90
-159.93
-145.39
-129.93
-113.63
-96.39
-77.98
-58.33
-37.52
-15.44
7.21
29.70
51.31
71.49
89.67
105.37
118.19
127.92
134.52
138.06
138.89
137.53
134.57
130.56
125.95
121.10
116.26
111.77
107.54
103.55
99.69
95.82
91.76
87.30
82.19
76.22
69.25
61.12
51.83
41.58
30.48
18.77
6.72
-5.38
-17.20
-28.40
-38.82
-48.24
-56.58
-63.82
-69.97
-75.14
-79.44
-82.93
-85.68
-87.81
-89.39
-90.49
-91.15
-91.33
-90.90
-89.71
-87.38
-83.57
-77.96
-70.32
-60.52
-48.60
-34.70
-18.76
-1.54
16.18
33.61
49.97
64.62
77.01
86.81
94.00
98.67
101.18
101.95
101.24
99.04
95.16
89.23
81.13
71.21
59.68
47.16
34.66
23.15
13.32
5.60
0.28
-2.29
-1.66
2.95
11.86
24.83
40.69
57.41
72.35
82.98
87.53
85.53
77.55
64.94
49.24
31.57
12.34
-8.60
-31.48
-55.56
-80.69
-106.55
-132.05
-154.83
-170.96
-175.76
-165.64
-140.11
-102.90
-61.29
-23.39
4.80
21.38
28.32
29.66
29.07
28.32
27.58
26.20
24.15
22.37
22.12
23.87
27.30
31.11
33.75
34.18
32.40
29.43
26.70
25.44
26.06
28.16
30.65
32.40
32.74
31.66
29.82
28.15
27.39
27.82
29.19
30.85
32.13
32.60
32.24
31.36
30.40
29.73
29.47
29.49
29.48
29.14
28.25
26.76
24.80
22.49
19.96
17.23
14.25
10.88
7.00
2.50
-2.69
-8.62
-15.32
-22.82
-31.16
-40.41
-50.67
-61.99
-74.49
-88.30
-103.51
-120.21
-138.44
-158.21
-179.42
-201.89
-225.17
-248.69
-271.63
-292.91
-311.22
-325.07
-332.92
-333.35
-325.70
-309.46
-284.72
-252.35
-213.88
-171.42
-127.41
-84.31
-44.37
-9.45
19.23
40.96
55.65
63.72
66.05
63.82
58.36
51.03
43.07
35.67
29.75
26.08
25.21
27.44
32.85
41.28
52.26
65.10
78.92
92.73
105.51
116.40
124.72
130.05
132.21
131.22
127.26
120.62
111.71
101.00
89.06
76.53
64.05
52.17
41.20
31.25
22.16
13.71
5.71
-1.84
-8.70
-14.46
-18.71
-21.23
-22.13
-21.81
-20.79
-19.44
-17.78
-15.43
-11.72
-5.95
2.27
12.87
25.10
38.16
51.32
64.33
77.36
90.96
106.01
123.54
144.59
169.62
197.94
227.22
253.57
272.49
280.33
275.55
259.34
235.09
207.01
178.77
152.65
129.46
109.21
91.77
77.21
65.67
57.02
50.64
45.58
40.84
35.71
29.96
23.76
17.48
11.27
5.03
-1.62
-9.05
-17.31
-25.96
-34.17
-41.06
-46.06
-49.21
-51.11
-52.60
-54.32
-56.44
-58.59
-60.16
-60.64
-59.89
-58.24
-56.28
-54.64
-53.74
-53.71
-54.39
-55.50
-56.68
-57.63
-58.09
-57.84
-56.76
-54.86
-52.28
-49.32
-46.29
-43.44
-40.82
-38.33
-35.81
-33.12
-30.35
-27.76
-25.74
-24.54
-24.07
-23.94
-23.58
-22.52
-20.55
-17.83
-14.75
-11.72
-8.99
-6.61
-4.60
-2.95
-1.78
-1.22
-1.28
-1.83
-2.59
-3.24
-3.55
-3.45
-3.02
-2.47
-2.07
-2.12
-2.88
-4.52
-6.93
-9.76
-12.48
-14.52
-15.51
-15.44
-14.59
-13.35
-12.02
-10.70
-9.32
-7.78
-6.13
-4.53
-3.24
-2.42
-2.07
-2.00
-2.04
-2.08
-2.14
-2.31
-2.62
-3.00
-3.26
-3.17
-2.62
-1.65
-0.51
0.49
1.07
1.11
0.70
0.07
-0.53
-0.98
-1.32
-1.63
-1.97
-2.32
-2.54
-2.46
-2.02
-1.25
-0.29
0.66
1.42
1.81
1.65
0.87
-0.54
-2.38
-4.30
-5.86
-6.62
-6.33
-4.92
-2.59
0.23
2.98
5.14
6.40
6.75
6.46
5.89
5.29
4.72
4.08
3.21
2.06
0.71
-0.71
-2.09
-3.35
-4.38
-4.98
-4.87
-3.84
-1.88
0.74
3.47
5.67
6.80
6.60
5.20
3.12
1.06
-0.35
-0.84
-0.58
-0.10
0.06
-0.37
-1.24
-2.07
-2.40
-2.01
-1.08
0.04
1.04
1.82
2.49
3.18
3.98
4.91
5.95
7.13
8.51
10.03
11.44
12.32
12.16
10.67
7.86
4.24
0.58
-2.22
-3.49
-2.98
-0.91
2.14
5.45
8.33
10.20
10.66
9.43
6.53
2.29
-2.65
-7.43
-11.31
-13.85
-15.07
-15.28
-14.96
-14.50
-14.12
-13.98
-14.20
-14.91
-16.15
-17.80
-19.56
-21.05
-21.97
-22.16
-21.68
-20.67
-19.29
-17.66
-15.86
-13.91
-11.86
-9.67
-7.28
-4.63
-1.75
1.06
3.31
4.51
4.34
2.91
0.76
-1.42
-3.13
-4.27
-5.08
-5.90
-6.80
-7.55
-7.70
-6.96
-5.32
-3.06
-0.39
2.69
6.41
11.02
16.33
21.59
25.68
27.56
26.82
23.86
19.79
15.83
12.91
11.27
10.63
10.41
10.08
9.42
8.50
7.58
6.88
6.44
6.11
5.59
4.65
3.26
1.68
0.32
-0.42
-0.44
0.04
0.52
0.49
-0.31
-1.73
-3.33
-4.64
-5.43
-5.77
-5.91
-6.09
-6.29
-6.45
-6.45
-6.39
-6.52
-6.99
-7.70
-8.19
-7.90
-6.41
-3.84
-0.74
2.04
3.87
4.65
4.83
5.35
7.18
10.83
15.97
21.26
24.63
24.07
18.47
8.23
-4.68
-17.38
-27.05
-31.82
-31.19
-25.91
-17.46
-7.44
2.58
11.34
17.74
21.08
21.11
18.23
13.50
8.32
4.14
1.92
2.10
4.33
7.74
11.20
13.59
14.17
12.79
9.96
6.67
4.07
2.88
3.17
4.31
5.33
5.50
4.62
3.10
1.56
0.36
-0.65
-1.97
-4.08
-7.00
-10.19
-12.76
-13.89
-13.22
-11.00
-8.03
-5.25
-3.42
-2.81
-3.05
-3.41
-3.09
-1.68
0.72
3.44
5.73
7.06
7.38
7.12
6.85
7.15
8.64
12.23
18.95
29.30
42.16
54.36
61.39
59.27
46.77
26.44
3.82
-14.98
-26.05
-29.08
-26.93
-23.45
-21.35
-21.08
-21.37
-20.72
-18.68
-16.14
-14.52
-14.72
-16.43
-18.40
-19.10
-17.58
-14.04
-9.66
-5.97
-4.10
-4.26
-5.72
-7.30
-7.86
-6.87
-4.52
-1.52
1.26
3.15
3.87
3.55
2.60
1.55
0.84
0.74
1.28
2.28
3.42
4.35
4.90
5.06
5.02
5.01
5.18
5.48
5.74
5.74
5.32
4.49
3.35
2.05
0.63
-0.91
-2.66
-4.61
-6.65
-8.56
-10.16
-11.40
-12.40
-13.41
-14.56
-15.74
-16.59
-16.64
-15.59
-13.50
-10.75
-7.91
-5.43
-3.50
-2.08
-1.03
-0.35
-0.12
-0.43
-1.24
-2.30
-3.24
-3.78
-3.93
-3.97
-4.29
-5.11
-6.27
-7.25
-7.36
-6.09
-3.41
0.18
3.76
6.40
7.48
6.94
5.17
2.85
0.62
-1.12
-2.18
-2.65
-2.71
-2.61
-2.55
-2.64
-2.76
-2.71
-2.18
-1.04
0.56
2.23
3.54
4.26
4.36
4.10
3.77
3.62
3.78
4.21
4.74
5.07
4.92
4.26
3.38
2.86
3.31
4.97
7.47
9.94
11.44
11.39
9.93
7.74
5.69
4.30
3.56
3.07
2.30
0.95
-0.90
-2.83
-4.31
-4.88
-4.30
-2.61
-0.21
2.16
3.47
2.70
-0.82
-6.98
-14.70
-22.14
-27.27
-28.61
-25.82
-19.79
-12.25
-5.07
0.41
3.65
4.89
4.86
4.37
4.11
4.51
5.74
7.70
10.08
12.38
14.09
14.85
14.66
13.95
13.33
13.31
13.98
14.97
15.58
15.20
13.62
11.09
8.15
5.27
2.65
0.21
-2.26
-4.77
-7.11
-8.82
-9.44
-8.75
-6.88
-4.29
-1.61
0.58
1.82
1.92
0.86
-1.18
-3.90
-6.99
-10.11
-13.00
-15.50
-17.63
-19.55
-21.33
-22.77
-23.24
-21.92
-18.22
-12.27
-5.07
1.80
6.86
9.33
9.36
7.81
5.70
3.71
1.98
0.40
-1.17
-2.66
-3.88
-4.68
-5.06
-5.21
-5.28
-5.32
-5.29
-5.14
-4.79
-4.23
-3.46
-2.53
-1.59
-0.96
-0.97
-1.77
-3.15
-4.49
-5.01
-4.13
-1.84
1.28
4.36
6.71
8.18
9.16
10.33
12.17
14.52
16.58
17.33
16.12
13.18
9.64
7.08
6.71
8.74
12.33
16.20
19.34
21.67
23.84
26.53
29.62
32.07
32.33
29.25
22.91
14.65
6.60
0.84
-1.16
1.33
8.64
20.86
37.60
57.30
76.47
89.57
90.20
73.48
39.04
-7.18
-53.83
-87.99
-100.55
-90.34
-64.73
-36.05
-15.84
-9.76
-16.18
-28.56
-39.83
-46.16
-48.06
-48.51
-50.46
-54.91
-60.97
-67.21
-72.90
-78.17
-83.34
-87.90
-90.22
-88.05
-79.75
-65.17
-46.14
-25.90
-8.15
4.10
9.43
8.41
3.51
-1.58
-3.14
1.38
12.45
28.23
45.34
59.99
69.40
72.51
70.13
64.22
57.00
50.26
44.88
40.92
37.99
35.51
33.09
30.56
27.93
25.16
22.15
18.72
14.77
10.45
6.10
2.08
-1.42
-4.43
-7.13
-9.67
-12.03
-14.03
-15.49
-16.30
-16.53
-16.34
-15.85
-15.15
-14.25
-13.16
-11.87
-10.37
-8.64
-6.64
-4.47
-2.34
-0.62
0.30
0.13
-1.24
-3.64
-6.79
-10.29
-13.72
-16.71
-18.88
-20.00
-20.04
-19.20
-17.83
-16.37
-15.18
-14.45
-14.17
-14.19
-14.31
-14.31
-14.05
-13.39
-12.20
-10.41
-8.08
-5.43
-2.86
-0.85
0.22
0.24
-0.56
-1.75
-2.86
-3.74
-4.65
-6.10
-8.42
-11.37
-14.03
-15.20
-14.13
-11.09
-7.38
-4.77
-4.56
-6.89
-10.77
-14.66
-17.27
-18.15
-17.73
-16.74
-15.77
-15.13
-14.93
-15.60
-17.78
-22.10
-28.81
-37.49
-47.41
-58.05
-69.62
-82.98
-98.91
-117.05
-135.11
-148.90
-153.41
-144.58
-120.93
-84.88
-42.18
-0.56
32.69
52.90
59.25
54.47
42.95
28.81
14.51
0.82
-12.37
-25.00
-36.65
-47.22
-57.43
-69.00
-83.33
-100.10
-116.47
-127.89
-130.16
-121.44
-103.21
-79.39
-54.30
-30.70
-8.80
13.33
38.43
68.56
104.10
143.01
181.52
215.17
240.27
255.23
261.08
260.92
258.45
256.52
256.26
257.35
258.94
260.62
262.76
265.97
270.36
275.07
278.45
278.67
274.49
265.68
252.96
237.67
221.19
204.59
188.43
172.74
157.08
140.96
124.03
106.37
88.40
70.66
53.42
36.42
18.91
-0.16
-21.76
-46.65
-75.17
-107.04
-141.14
-175.31
-206.44
-231.10
-246.59
-251.85
-247.93
-237.48
-223.58
-208.58
-193.62
-178.92
-164.37
-150.17
-136.77
-124.53
-113.38
-102.72
-91.84
-80.41
-68.61
-56.84
-45.31
-33.59
-20.72
-5.72
11.71
30.79
49.65
65.91
77.43
83.06
82.82
77.64
68.85
57.53
44.38
29.84
14.33
-1.73
-18.17
-35.13
-52.92
-71.46
-89.57
-104.84
-114.19
-115.09
-106.87
-91.32
-72.15
-53.70
-39.45
-31.09
-28.36
-29.76
-33.38
-37.78
-42.12
-46.03
-49.27
-51.32
-51.48
-49.06
-43.80
-36.11
-26.95
-17.59
-9.14
-2.25
3.03
7.05
10.32
13.16
15.60
17.34
18.06
17.55
15.97
13.84
11.95
10.94
11.09
12.12
13.35
13.97
13.42
11.61
8.91
5.88
3.03
0.55
-1.59
-3.58
-5.44
-7.07
-8.15
-8.35
-7.47
-5.58
-2.92
0.16
3.34
6.40
9.10
11.18
12.28
12.12
10.59
8.01
4.99
2.23
0.27
-0.76
-1.03
-0.84
-0.34
0.43
1.41
2.27
2.51
1.70
-0.17
-2.53
-4.42
-5.02
-4.08
-2.11
0.00
1.46
1.98
1.84
1.56
1.39
1.19
0.50
-0.97
-3.06
-5.06
-6.10
-5.66
-3.88
-1.51
0.52
1.62
1.86
1.93
2.64
4.45
7.11
9.74
11.31
11.09
9.01
5.59
1.63
-2.21
-5.58
-8.38
-10.40
-11.25
-10.35
-7.35
-2.53
3.09
8.02
10.95
11.27
9.30
5.99
2.38
-0.87
-3.55
-5.70
-7.25
-7.85
-7.09
-4.83
-1.50
2.02
4.67
5.80
5.31
3.69
1.61
-0.44
-2.37
-4.33
-6.52
-8.93
-11.31
-13.25
-14.29
-14.11
-12.59
-9.85
-6.23
-2.22
1.64
4.85
7.03
8.01
7.72
6.26
3.81
0.66
-2.85
-6.38
-9.61
-12.33
-14.39
-15.73
-16.33
-16.24
-15.63
-14.67
-13.62
-12.55
-11.48
-10.27
-8.77
-6.92
-4.76
-2.42
-0.06
2.19
4.21
5.88
7.11
7.84
8.04
7.70
6.73
5.03
2.59
-0.30
-2.98
-4.46
-3.68
0.06
6.87
16.13
26.64
36.85
45.20
50.49
52.11
50.10
44.96
37.49
28.46
18.58
8.61
-0.53
-7.82
-12.32
-13.65
-12.33
-9.76
-7.68
-7.45
-9.47
-13.02
-16.75
-19.30
-19.85
-18.33
-15.10
-10.70
-5.55
0.05
5.76
10.98
14.80
16.35
15.14
11.44
6.20
0.72
-3.88
-7.08
-8.91
-9.72
-9.61
-8.32
-5.42
-0.89
4.37
8.59
9.78
6.76
-0.19
-9.25
-17.92
-24.01
-26.40
-24.97
-20.22
-12.69
-2.96
8.04
18.64
26.53
29.54
26.55
18.04
5.93
-7.15
-18.77
-27.10
-31.07
-30.27
-25.02
-16.51
-6.86
1.22
5.37
4.52
-0.54
-7.44
-13.28
-16.01
-15.21
-12.21
-9.23
-8.33
-10.47
-15.26
-21.08
-25.76
-27.29
-24.32
-16.69
-5.73
5.84
14.44
16.55
10.18
-3.95
-21.88
-37.25
-43.44
-36.32
-16.18
11.90
39.74
58.89
63.32
51.12
25.01
-8.52
-40.88
-63.66
-71.12
-61.90
-39.45
-10.59
17.08
38.07
50.50
55.59
55.83
52.88
46.83
37.46
25.89
15.56
11.37
17.11
33.01
54.95
75.63
87.55
86.05
71.04
46.79
19.82
-3.92
-21.01
-31.15
-36.25
-38.59
-39.48
-38.83
-35.77
-29.82
-21.70
-13.32
-7.03
-4.55
-6.07
-10.23
-14.88
-18.03
-18.72
-17.19
-14.39
-11.39
-8.85
-6.81
-5.01
-3.34
-2.05
-1.74
-2.96
-5.83
-9.72
-13.37
-15.30
-14.39
-10.26
-3.32
5.40
14.60
23.12
30.10
35.05
37.81
38.49
37.44
35.19
32.38
29.64
27.46
26.20
25.88
26.16
26.42
25.77
23.27
18.27
10.84
2.16
-5.31
-8.27
-3.82
8.92
27.41
45.57
55.50
50.65
29.03
-5.21
-43.22
-75.50
-96.17
-105.17
-107.11
-107.73
-110.00
-112.70
-111.45
-101.70
-81.11
-50.40
-12.32
30.14
74.47
118.20
157.99
189.39
207.89
210.70
198.08
172.96
139.30
100.25
57.46
12.00
-34.00
-76.17
-108.60
-126.12
-127.16
-114.92
-96.22
-78.41
-66.03
-59.27
-54.97
-49.37
-40.67
-29.98
-20.21
-14.11
-12.42
-13.60
-15.04
-14.56
-11.55
-7.01
-2.67
-0.01
0.38
-1.24
-4.15
-7.55
-10.72
-12.84
-13.14
