1596802799.00
64.000000
-0.00
-0.00
-0.00
-0.00
-0.00
-0.00
-0.00
-0.00
-0.00
-0.00
0.00
0.01
0.01
-0.00
-0.03
-0.05
-0.05
0.00
0.13
0.36
0.66
1.01
1.37
1.72
2.06
2.40
2.79
3.24
3.80
4.42
5.06
5.66
6.20
6.68
7.15
7.68
8.31
9.14
10.09
11.04
11.88
12.56
13.14
13.76
14.65
15.96
17.91
20.32
22.90
25.38
27.58
29.57
31.68
34.32
37.81
42.54
48.15
54.10
59.83
64.97
69.58
74.14
79.34
85.71
93.76
103.00
112.62
121.73
129.77
136.75
143.30
150.75
157.77
166.64
177.95
191.79
206.97
220.57
228.25
225.36
208.53
176.87
132.76
80.05
23.07
-34.94
-92.44
-149.16
-205.23
-260.37
-313.74
-363.87
-409.83
-450.91
-486.50
-515.74
-537.23
-549.22
-549.96
-538.37
-514.21
-478.67
-433.88
-382.45
-327.02
-269.84
-212.63
-156.66
-102.95
-52.37
-5.90
35.58
71.43
101.35
125.50
144.38
158.69
169.15
176.37
180.75
182.57
182.07
179.51
175.23
169.65
163.18
156.15
148.81
141.30
133.69
126.02
118.33
110.69
103.16
95.80
88.68
81.83
75.25
68.95
62.95
57.25
51.86
46.79
42.03
37.58
33.45
29.61
26.07
22.82
19.85
17.15
14.70
12.47
10.46
8.66
7.06
5.70
4.57
3.64
2.88
2.26
1.71
1.22
0.77
0.38
0.08
-0.12
-0.23
-0.29
-0.36
-0.49
-0.70
-0.97
-1.24
-1.43
-1.48
-1.39
-1.26
-1.21
-1.37
-1.80
-2.44
-3.12
-3.62
-3.78
-3.63
-3.33
-3.19
-3.49
-4.36
-5.66
-7.05
-8.11
-8.55
-8.36
-7.85
-7.52
-7.87
-9.11
-11.04
-13.15
-14.81
-15.61
-15.49
-14.79
-14.05
-13.83
-14.56
-16.51
-19.72
-23.78
-27.60
-29.36
-27.06
-19.32
-6.33
9.90
26.09
39.01
46.70
49.12
47.82
44.85
41.73
38.98
36.46
33.96
31.68
30.18
29.93
30.88
32.36
33.40
33.11
31.11
27.60
23.17
18.58
14.20
10.21
6.56
3.11
-0.34
-3.89
-7.60
-11.37
-14.99
-18.09
-20.24
-21.04
-20.35
-18.31
-15.33
-12.02
-8.98
-6.65
-5.30
-4.87
-5.17
-5.92
-6.85
-7.73
-8.41
-8.85
-9.07
-9.10
-8.95
-8.66
-8.23
-7.70
-7.09
-6.44
-5.74
-4.96
-4.11
-3.29
-2.67
-2.40
-2.69
-3.55
-4.85
-6.29
-7.51
-8.23
-8.29
-7.76
-6.87
-5.89
-5.06
-4.51
-4.26
-4.28
-4.55
-5.06
-5.72
-6.30
-6.46
-5.79
-4.02
-1.10
2.75
7.13
11.43
15.12
17.86
19.51
20.08
19.63
18.24
16.05
13.31
10.42
7.83
5.96
5.04
5.01
5.60
6.44
7.19
7.63
7.68
7.39
6.85
6.13
5.29
4.30
3.17
1.87
0.44
-1.10
-2.67
-4.16
-5.48
-6.58
-7.48
-8.25
-9.00
-9.82
-10.74
-11.80
-13.06
-14.55
-16.24
-17.88
-19.01
-19.08
-17.61
-14.43
-9.71
-3.98
2.06
7.72
12.45
15.91
17.93
18.50
17.78
16.01
13.56
10.76
8.00
5.62
3.94
3.14
3.19
3.78
4.41
4.62
4.13
3.05
1.74
0.62
-0.09
-0.44
-0.80
-1.52
-2.83
-4.70
-6.81
-8.78
-10.31
-11.34
-12.00
-12.55
-13.16
-13.84
-14.52
-15.16
-15.89
-16.89
-18.20
-19.54
-20.23
-19.48
-16.78
-12.16
-6.31
-0.19
5.29
9.65
12.84
15.02
16.36
16.89
16.60
15.53
13.90
12.02
10.19
8.63
7.40
6.54
6.02
5.81
5.72
5.43
4.57
2.92
0.56
-2.14
-4.69
-6.73
-8.25
-9.60
-11.18
-13.23
-15.65
-18.08
-20.18
-21.84
-23.33
-25.08
-27.49
-30.69
-34.48
-38.47
-42.18
-45.17
-46.97
-47.08
-44.95
-40.20
-32.81
-23.33
-12.82
-2.57
6.32
13.22
18.12
21.41
23.58
24.97
25.67
25.71
25.17
24.42
23.97
24.31
25.62
27.66
29.84
31.46
32.00
31.31
29.67
27.53
25.34
23.36
21.65
20.10
18.61
17.15
15.83
14.78
14.11
13.83
13.81
13.82
13.53
12.63
10.86
8.15
4.73
1.03
-2.30
-4.58
-5.27
-4.09
-1.09
3.31
8.41
13.34
17.24
19.54
20.07
19.08
17.13
14.81
12.52
10.43
8.48
6.57
4.66
2.80
1.12
-0.24
-1.17
-1.61
-1.55
-1.04
-0.26
0.54
1.03
0.94
0.14
-1.37
-3.44
-5.81
-8.22
-10.41
-12.23
-13.61
-14.63
-15.46
-16.31
-17.41
-18.88
-20.76
-22.90
-24.97
-26.51
-26.99
-26.04
-23.45
-19.35
-14.09
-8.21
-2.32
3.00
7.28
10.21
11.70
11.93
11.26
10.19
9.12
8.33
7.81
7.40
6.87
6.00
4.79
3.41
2.23
1.66
2.01
3.33
5.28
7.19
8.19
7.56
4.93
0.43
-5.36
-11.72
-18.08
-24.33
-30.79
-38.18
-47.28
-58.54
-71.85
-86.15
-99.54
-109.43
-113.37
-109.80
-98.71
-81.74
-61.68
-41.61
-24.13
-10.84
-2.21
1.95
2.18
-0.99
-6.93
-14.73
-23.19
-30.85
-36.37
-38.56
-36.88
-31.63
-24.03
-15.89
-9.18
-5.50
-5.70
-9.60
-15.45
-20.74
-23.04
-20.72
-12.90
0.70
19.94
44.03
71.29
100.27
128.70
153.44
170.48
176.17
168.34
146.59
111.91
66.41
15.17
-35.58
-79.57
-112.08
-130.32
-133.21
-121.52
-98.11
-67.64
-32.87
4.33
43.05
82.54
122.49
163.32
205.31
247.51
272.26
264.36
219.73
151.19
79.27
19.49
-22.27
-47.69
-61.76
-69.51
-71.94
-68.90
-60.33
-48.23
-36.50
-28.73
-26.75
-30.43
-38.50
-45.36
-49.58
-50.08
-46.65
-41.17
-36.39
-34.87
-37.96
-45.31
-54.06
-61.27
-64.00
-59.84
-49.65
-36.63
-24.51
-15.14
-7.38
3.32
18.16
40.18
73.26
117.03
166.58
214.03
251.87
275.39
283.49
277.71
246.37
189.85
119.60
51.38
-5.36
-50.16
-87.37
-121.16
-152.79
-179.36
-192.69
-188.61
-166.51
-130.56
-87.80
-45.59
-9.78
16.46
29.14
31.58
29.78
28.52
28.85
28.96
25.94
17.64
3.50
-15.39
-35.19
-52.91
-66.92
-76.70
-81.62
-80.77
-73.65
-61.29
-46.79
-31.49
-17.41
-6.18
1.43
5.71
7.64
8.11
7.51
5.79
3.49
0.74
-2.47
-6.00
-9.28
-11.48
-11.97
-10.64
-9.25
-10.29
-15.99
-26.44
-39.22
-50.34
-56.27
-55.34
-48.52
-38.98
-30.36
-25.57
-25.60
-29.46
-34.64
-37.86
-35.71
-25.31
-5.36
22.96
55.36
85.15
105.18
110.90
102.29
83.96
62.85
44.73
31.95
23.33
16.71
11.13
7.76
8.41
13.24
19.50
22.56
18.80
7.85
-6.87
-20.04
-27.37
-27.49
-22.25
-15.17
-9.43
-6.52
-6.06
-6.60
-6.70
-5.62
-3.47
-0.92
1.23
2.35
2.26
1.04
-1.00
-3.67
-6.84
-10.41
-14.45
-18.88
-23.53
-28.09
-32.28
-35.85
-38.65
-40.54
-41.33
-40.90
-39.02
-35.67
-31.12
-25.90
-20.71
-16.15
-12.54
-9.36
-6.49
-3.41
0.18
4.14
7.85
10.56
11.69
11.17
9.61
7.82
6.59
6.22
6.38
6.24
4.82
1.20
-5.52
-15.54
-28.47
-42.60
-54.86
-61.40
-58.97
-46.44
-25.61
-1.62
19.80
34.30
40.62
40.49
37.31
34.22
32.73
32.50
32.22
30.82
28.16
25.03
22.62
21.85
22.96
25.39
28.01
29.60
29.49
27.52
24.25
20.69
17.91
16.74
17.77
21.26
26.96
33.65
38.76
38.76
30.35
12.01
-14.60
-44.56
-71.11
-87.89
-91.49
-82.89
-67.10
-50.99
-40.08
-36.14
-36.91
-37.80
-34.57
-25.47
-11.44
5.28
22.79
40.07
56.54
70.93
81.28
85.98
84.72
78.75
69.75
58.63
45.11
28.59
9.47
-10.22
-27.32
-38.91
-43.60
-41.76
-35.23
-26.61
-18.99
-15.33
-17.49
-25.15
-35.41
-43.57
-45.51
-39.55
-27.28
-12.53
0.55
9.21
12.71
11.84
8.13
3.09
-1.46
-3.67
-2.36
2.37
9.14
15.86
20.79
23.19
22.93
21.02
18.86
17.14
15.22
11.65
5.24
-4.21
-15.52
-27.29
-35.93
-36.27
-23.90
2.96
42.71
90.64
139.73
182.14
208.97
215.89
203.95
177.52
141.65
100.36
56.04
9.27
-40.29
-94.99
-152.99
-207.80
-251.47
-277.92
-284.35
-271.52
-243.20
-189.09
-116.77
-45.47
9.38
44.18
61.76
65.19
56.20
36.74
10.79
-18.05
-43.04
-56.63
-54.95
-40.34
-19.80
-1.18
10.02
12.47
6.53
-3.50
-11.78
-14.42
-11.32
-5.03
1.57
6.40
10.13
13.10
17.08
24.40
36.09
50.78
65.19
75.48
78.76
74.07
61.97
45.36
28.27
14.01
4.03
-1.96
-4.97
-5.75
-4.40
-1.06
4.09
10.40
16.55
21.00
22.63
20.78
15.94
9.23
1.84
-5.33
-11.81
-17.55
-22.74
-27.83
-33.46
-40.33
-49.14
-60.30
-73.63
-88.37
-103.40
-117.63
-130.28
-140.68
-148.05
-151.30
-149.28
-141.29
-127.55
-109.54
-89.66
-70.59
-54.44
-42.10
-33.30
-26.82
-21.20
-15.19
-8.16
-0.10
8.58
17.24
25.19
31.80
36.49
38.87
38.84
36.86
33.85
30.98
29.31
29.43
31.37
34.73
39.05
44.07
49.76
56.29
63.78
72.16
80.94
89.27
95.96
99.91
100.54
98.21
94.28
90.69
89.20
90.65
94.76
100.32
105.88
110.18
112.44
112.11
108.82
102.39
93.06
81.80
70.22
60.25
53.46
50.60
51.33
54.41
58.02
60.24
59.49
54.94
46.74
35.97
24.30
13.28
3.80
-4.21
-11.59
-19.31
-27.83
-36.76
-44.98
-51.16
-54.35
-54.50
-52.38
-49.37
-46.79
-45.46
-45.44
-46.24
-47.17
-47.85
-48.32
-48.89
-49.70
-50.52
-50.76
-49.87
-47.87
-45.38
-43.39
-42.66
-43.17
-44.10
-44.16
-42.28
-38.05
-31.79
-24.19
-15.98
-7.68
0.33
7.60
13.48
17.27
18.44
17.00
13.53
9.11
4.93
2.12
1.31
2.55
5.13
7.65
8.22
5.02
-3.06
-15.97
-32.35
-50.03
-66.75
-80.86
-91.78
-99.77
-105.56
-109.82
-112.92
-114.77
-115.15
-113.96
-111.82
-110.33
-112.00
-119.62
-135.15
-158.81
-188.32
-219.32
-246.31
-263.91
-268.09
-256.74
-229.52
-187.47
-133.05
-70.99
-8.81
43.82
77.53
86.80
73.06
45.02
15.77
-2.12
-1.56
17.42
49.37
87.67
128.11
169.95
214.01
259.61
302.84
337.06
356.20
357.82
344.41
322.16
298.14
277.33
261.10
248.00
234.79
219.46
202.08
184.87
170.87
162.35
159.72
161.48
165.56
168.57
168.84
166.63
164.16
164.49
169.83
180.37
194.24
209.04
219.97
223.64
218.17
203.74
181.94
154.55
123.06
88.97
55.04
21.25
-12.21
-45.36
-77.67
-108.08
-135.74
-159.97
-187.31
-205.80
-217.95
-228.08
-242.04
-264.10
-294.69
-329.80
-361.68
-381.08
-379.70
-349.37
-291.79
-222.80
-162.42
-121.10
-96.81
-81.39
-67.84
-52.96
-39.78
-32.37
-32.51
-37.47
-41.68
-40.53
-32.55
-19.21
-2.38
13.94
26.77
34.83
38.88
40.53
40.64
39.09
35.52
30.31
23.51
15.06
4.97
-6.04
-16.43
-24.48
-28.84
-29.16
-25.73
-20.20
-14.90
-11.74
-11.16
-12.10
-13.00
-12.81
-11.51
-9.91
-9.24
-10.44
-13.64
-18.04
-22.46
-25.77
-27.30
-26.81
-24.35
-20.26
-15.04
-9.33
-3.75
1.17
5.11
7.91
9.51
9.97
9.36
7.89
5.96
4.08
2.75
2.25
2.64
3.74
5.30
7.01
8.58
9.75
10.35
10.34
9.83
8.98
7.91
6.74
5.44
3.95
2.19
0.16
-2.04
-4.29
-6.52
-8.75
-10.96
-13.09
-15.06
-16.80
-18.18
-19.00
-18.98
-17.86
-15.55
-11.93
-7.19
-1.88
3.16
7.11
9.46
10.16
9.52
8.05
6.76
6.49
7.51
9.33
10.97
11.67
11.30
10.16
8.83
8.55
10.16
13.46
17.08
19.27
19.17
17.34
15.06
13.53
14.29
18.14
24.90
33.52
42.53
50.87
57.73
61.65
55.64
35.88
5.51
-25.77
-48.08
-57.21
-54.45
-43.09
-26.32
-5.54
19.92
50.86
86.91
126.58
163.96
189.43
197.27
186.21
158.26
117.63
69.18
18.28
-29.21
-67.70
-93.61
-106.71
-108.47
-102.16
-91.33
-78.91
-67.06
-57.89
-53.95
-55.50
-61.99
-71.24
-80.36
-86.20
-86.52
-80.69
-70.15
-57.74
-46.25
-37.43
-31.57
-28.54
-27.93
-29.00
-30.49
-30.53
-26.87
-17.65
-3.07
15.96
36.34
54.09
66.02
70.88
69.46
63.84
56.19
47.99
39.96
32.00
24.15
16.84
10.81
6.54
3.92
2.20
0.19
-2.20
-5.16
-8.48
-11.77
-14.69
-17.20
-19.56
-22.10
-24.94
-27.71
-29.81
-30.41
-28.85
-24.92
-19.05
-12.09
-5.15
0.88
5.50
8.57
10.26
10.93
10.94
10.58
10.06
9.53
9.13
8.93
8.86
8.80
8.57
8.02
7.12
5.92
4.52
3.00
1.41
-0.31
-2.11
-3.90
-5.52
-6.86
-7.98
-9.19
-10.91
-13.53
-17.08
-21.17
-25.00
-27.66
-28.43
-27.01
-23.59
-18.72
-13.09
-7.37
-2.07
2.51
6.20
8.94
10.75
11.74
12.05
11.85
11.33
10.68
10.10
9.74
9.68
9.86
10.11
10.17
9.91
9.31
8.55
7.82
7.21
6.62
5.82
4.58
2.84
0.75
-1.37
-3.22
-4.70
-5.93
-7.21
-8.88
-11.16
-13.98
-16.99
-19.61
-21.18
-21.14
-19.21
-15.45
-10.25
-4.27
1.75
7.15
11.45
14.48
16.31
17.18
17.37
17.06
16.26
14.93
13.09
10.92
8.82
7.25
6.52
6.70
7.55
8.65
9.57
9.99
9.80
9.00
7.67
5.91
3.80
1.50
-0.79
-2.86
-4.55
-5.88
-7.05
-8.37
-10.11
-12.37
-15.07
-17.93
-20.57
-22.55
-23.39
-22.61
-19.94
-15.41
-9.46
-2.90
3.39
8.82
13.21
16.75
19.71
22.15
23.82
24.40
23.75
22.15
20.18
18.43
17.20
16.41
15.69
14.70
13.34
11.74
10.13
8.62
7.13
5.43
3.28
0.59
-2.52
-5.76
-8.79
-11.30
-13.19
-14.53
-15.53
-16.49
-17.65
-19.10
-20.80
-22.60
-24.36
-25.92
-27.13
-27.75
-27.48
-26.02
-23.15
-18.86
-13.38
-7.19
-0.91
4.79
9.33
12.38
13.84
13.89
12.90
11.32
9.59
8.02
6.82
6.08
5.71
5.46
5.02
4.17
2.94
1.58
0.28
-0.94
-2.28
-4.12
-6.69
-9.93
-13.41
-16.48
-18.54
-19.34
-18.79
-16.84
-13.65
-9.79
-6.37
-4.76
-5.99
-10.13
-16.39
-22.93
-27.52
-28.46
-25.36
-19.14
-11.36
-3.35
4.28
10.83
16.18
20.70
24.75
28.05
29.77
29.01
25.37
19.18
10.21
-1.12
-13.44
-25.02
-34.78
-42.59
-48.99
-54.62
-60.11
-67.63
-78.90
-93.91
-110.88
-127.17
-139.85
-146.16
-143.83
-122.70
-80.85
-27.25
24.06
63.24
87.91
100.67
105.20
104.70
101.46
95.58
86.83
77.10
70.04
69.13
75.50
86.81
96.78
97.99
84.00
52.29
7.60
-40.17
-80.71
-105.64
-113.59
-109.06
-99.80
-88.08
-73.44
-52.88
-24.05
12.44
53.28
93.79
131.11
165.01
196.51
219.74
228.51
217.44
184.33
132.59
70.54
9.99
-38.75
-65.91
-71.86
-66.92
-64.61
-74.73
-94.85
-116.49
-129.48
-125.89
-98.98
-50.38
12.21
77.33
132.04
164.70
167.25
138.17
83.02
12.69
-61.10
-127.09
-175.85
-201.91
-204.31
-186.21
-153.08
-111.58
-68.56
-30.17
1.02
27.49
53.69
82.50
112.75
139.44
155.86
156.68
140.15
105.37
59.96
16.49
-15.01
-32.43
-39.59
-41.09
-39.41
-35.18
-28.43
-19.27
-9.37
-1.44
2.35
1.75
-1.53
-4.86
-6.11
-4.34
0.53
7.02
12.69
15.45
14.62
10.87
5.49
-0.82
-6.96
-11.62
-13.70
-12.53
-7.99
-0.59
8.49
17.60
25.00
29.86
32.51
33.83
34.60
35.11
35.24
34.76
33.61
31.79
29.75
28.07
27.09
26.71
26.41
25.37
22.56
19.20
15.63
12.11
8.73
5.38
1.95
-1.49
-4.45
-6.11
-5.57
-2.68
2.12
7.74
12.82
16.24
17.48
16.72
14.60
11.90
8.99
6.08
3.28
0.72
-1.46
-3.12
-4.32
-5.35
-6.57
-8.46
-11.13
-14.40
-17.94
-21.55
-25.36
-29.86
-35.52
-42.47
-50.28
-57.88
-63.98
-67.71
-69.11
-69.22
-69.73
-72.23
-77.46
-84.90
-92.96
-99.61
-103.32
-103.71
-101.46
-97.77
-93.47
-88.73
-83.15
-76.27
-67.49
-55.55
-38.04
-12.04
24.14
68.89
116.33
157.87
185.48
195.12
188.02
169.20
144.19
116.34
86.33
53.84
19.99
-11.61
-36.12
-49.75
-51.88
-45.18
-34.28
-23.68
-16.42
-13.85
-16.13
-22.89
-33.73
-48.12
-65.38
-84.48
-104.00
-122.23
-137.19
-147.08
-150.73
-147.91
-139.41
-126.74
-111.68
-95.77
-79.96
-64.68
-50.02
-36.05
-22.89
-10.67
0.42
10.24
18.64
25.55
31.08
35.63
39.81
44.33
49.75
56.18
63.36
70.74
77.82
84.30
89.98
94.54
97.37
97.76
95.04
89.07
80.48
70.59
61.04
53.17
47.46
43.50
40.35
36.97
32.70
27.44
21.55
15.74
11.45
9.97
11.55
15.23
19.18
21.94
22.76
21.51
18.55
14.59
9.72
4.06
-2.03
-8.37
-14.09
-18.14
-20.12
-20.47
-20.28
-19.87
-19.09
-17.04
-13.15
-6.46
3.51
15.77
27.79
36.24
36.93
27.04
8.59
-16.50
-45.17
-72.47
-93.27
-103.69
-102.01
-88.90
-66.95
-37.29
-6.10
19.70
36.26
43.65
43.97
39.42
31.76
22.60
13.63
5.61
-0.54
-4.22
-6.48
-9.11
-13.66
-20.50
-28.39
-35.08
-38.90
-38.60
-34.01
-26.17
-16.70
-7.15
1.32
8.43
14.33
18.90
22.06
23.69
23.63
21.95
19.17
16.37
14.89
15.79
19.29
24.90
31.61
38.13
43.35
46.61
47.85
47.53
46.49
45.62
45.83
47.85
51.99
57.85
64.36
69.98
73.13
72.74
68.41
60.57
50.29
38.87
27.60
17.43
8.87
2.06
-3.25
-7.53
-11.41
-15.48
-20.28
-26.14
-33.13
-40.99
-49.28
-57.41
-64.82
-71.05
-75.75
-78.62
-79.41
-78.00
-74.45
-69.12
-62.65
-55.77
-49.15
-43.20
-38.02
-33.44
-29.26
-25.35
-21.77
-18.70
-16.40
-15.09
-14.78
-15.24
-16.10
-16.95
-17.51
-17.66
-17.49
-17.19
-17.04
-17.21
-17.77
-18.66
-19.72
-20.68
-21.19
-20.92
-19.66
-17.50
-14.79
-12.03
-9.88
-8.89
-9.35
-11.10
-13.40
-15.33
-16.06
-14.93
-11.54
-5.83
1.98
11.54
22.45
34.54
47.15
59.16
69.36
76.92
81.37
82.68
81.29
78.12
74.76
72.28
70.93
70.42
70.41
70.34
69.71
68.40
66.76
65.60
64.31
60.38
50.41
31.93
4.07
-31.74
-71.80
-113.98
-151.91
-178.87
-192.38
-195.08
-191.09
-183.48
-172.89
-158.35
-138.73
-113.79
-84.39
-54.10
-27.45
-7.25
5.08
10.16
10.57
10.35
14.43
27.10
51.65
84.51
122.89
160.93
190.25
202.49
193.34
165.90
130.18
99.86
87.34
99.62
134.66
183.72
235.98
282.51
317.86
338.87
343.02
327.96
292.74
238.56
170.79
98.44
31.25
-24.05
-65.89
-97.21
-123.41
-145.35
-161.26
-168.95
-167.61
-158.03
-142.44
-124.07
-106.04
-92.45
-85.70
-88.28
-101.10
-122.41
-148.05
-172.86
-192.22
-204.06
-197.63
-171.58
-134.90
-101.41
-81.05
-74.90
-76.55
-77.14
-70.12
-56.41
-38.55
-20.51
-5.19
6.59
15.20
20.86
23.22
21.81
17.41
10.94
4.20
-0.06
0.90
8.32
21.17
36.50
50.86
61.67
67.48
68.37
65.84
61.92
58.14
54.86
51.54
47.30
41.59
34.16
25.21
15.43
5.88
-2.39
-8.53
-12.07
-12.96
-11.62
-9.00
-6.42
-5.16
-6.06
-9.33
-14.47
-20.46
-26.09
-30.38
-32.86
-33.82
-34.19
-35.20
-37.96
-42.98
-49.87
-57.34
-63.52
-66.65
-65.64
-60.48
-52.15
-42.18
-32.00
-22.51
-14.01
-6.46
0.14
5.52
9.27
11.15
11.40
10.76
10.23
10.57
12.03
14.23
16.48
18.11
18.80
18.70
18.28
18.06
18.41
19.31
20.46
21.33
21.42
20.46
18.56
16.06
13.48
11.27
9.70
8.71
8.02
7.08
5.17
1.57
-4.20
-12.03
-21.03
-29.63
-35.93
-38.35
-36.23
-30.01
-21.12
-11.39
-2.39
4.99
10.62
14.88
18.29
21.22
23.85
26.25
28.53
30.85
33.32
35.85
38.05
39.39
39.39
37.89
35.16
31.88
28.89
26.87
26.10
26.34
26.92
27.00
25.90
23.35
19.57
15.10
10.59
6.56
3.25
0.63
-1.51
-3.56
-6.02
-9.37
-13.94
-19.65
-25.87
-31.42
-34.88
-35.10
-31.60
-24.81
-15.93
-6.53
1.98
8.73
13.48
16.51
18.29
19.27
19.66
19.52
18.85
17.76
16.44
15.18
14.18
13.51
13.08
12.70
12.24
11.63
10.93
10.23
9.53
8.65
7.29
5.10
1.81
-2.63
-8.04
-14.05
-20.16
-25.88
-30.76
-34.52
-37.08
-38.57
-39.27
-39.51
-39.52
-39.23
-38.23
-35.84
-31.23
-23.78
-13.40
-0.73
12.93
25.97
37.00
45.25
50.78
54.26
56.51
58.10
59.02
58.74
56.39
51.11
42.37
30.02
14.40
-3.62
-22.52
-40.20
-54.33
-62.95
-65.13
-61.24
-52.77
-41.53
-28.80
-14.80
0.94
18.49
36.50
52.01
61.49
62.44
54.83
41.36
26.47
14.25
6.31
1.10
-4.98
-15.44
-31.68
-52.19
-73.24
-90.10
-99.23
-100.16
-95.98
-92.06
-93.73
-104.54
-125.04
-152.86
-182.44
-206.31
-217.17
-209.60
-181.21
-133.89
-74.82
-16.03
28.41
48.40
42.04
16.41
-15.54
-40.12
-48.15
-38.06
-13.75
13.57
31.22
34.18
27.07
17.42
8.99
0.81
-10.11
-23.83
-38.87
-50.58
-53.45
-44.93
-27.04
-5.33
14.24
28.43
34.30
33.65
31.35
32.26
38.31
47.89
57.66
65.34
70.86
75.82
82.16
91.04
102.76
117.32
135.04
156.43
180.89
205.16
223.32
229.15
219.45
196.33
166.80
139.76
122.01
115.53
117.21
121.06
121.65
116.47
106.35
94.21
83.18
75.03
69.97
67.20
65.72
64.78
63.51
60.37
53.11
39.58
19.26
-5.58
-29.84
-47.57
-54.55
-50.81
-41.10
-33.08
-34.08
-48.19
-74.79
-109.10
-144.43
-174.70
-196.50
-209.67
-216.48
-219.90
-221.89
-222.30
-219.33
-211.02
-197.07
-179.57
-162.16
-147.86
-137.03
-126.80
-112.73
-91.44
-63.05
-31.42
-2.50
18.65
29.98
32.94
31.28
28.92
28.12
29.01
30.32
30.58
29.26
27.20
26.05
27.34
31.49
37.46
43.14
46.46
46.19
42.39
36.11
28.55
20.35
11.28
0.73
-11.40
-23.79
-33.65
-37.61
-33.44
-21.56
-5.22
10.53
21.28
25.15
23.46
19.53
16.35
14.59
12.15
5.70
-7.16
-26.34
-49.54
-73.70
-96.77
-118.16
-137.89
-155.08
-167.28
-171.39
-165.50
-150.47
-129.85
-108.09
-88.11
-69.79
-50.61
-27.87
-1.06
27.21
52.27
69.93
78.63
80.05
77.90
75.76
75.44
76.81
79.07
82.02
86.48
93.64
103.86
116.13
128.59
139.81
150.03
161.41
176.90
198.60
226.32
257.33
287.22
311.06
324.79
326.30
316.05
296.70
272.06
245.61
219.34
193.59
166.85
136.86
101.92
61.73
17.13
-30.27
-77.95
-121.74
-154.39
-167.78
-155.72
-116.83
-56.09
15.47
83.48
134.63
160.55
161.18
141.05
105.83
60.05
7.46
-47.75
-99.38
-138.65
-155.90
-142.20
-96.34
-27.42
47.39
109.94
147.41
155.98
140.42
98.59
38.65
-24.07
-75.78
-112.43
-136.83
-153.38
-164.70
-171.63
-176.38
-181.83
-193.72
-215.88
-250.97
-296.69
-344.84
-383.82
-402.61
-394.90
-359.78
-303.11
-235.05
-166.24
-103.54
-48.69
-0.08
44.56
86.00
121.47
145.56
154.82
150.58
138.12
123.37
110.06
99.35
90.33
82.15
74.95
69.97
70.00
75.53
85.82
98.31
108.85
112.76
106.97
91.47
69.47
45.85
25.00
9.60
0.03
-4.53
-5.90
-5.87
-5.33
-4.28
-2.52
-0.40
1.53
2.74
3.03
2.60
1.97
1.76
2.37
3.65
4.89
5.32
4.50
2.52
-0.14
-2.76
-4.77
-5.90
-6.38
-6.70
-7.31
-8.40
-9.90
-11.63
-13.40
-15.06
-16.55
-17.91
-19.24
-20.66
-22.24
-23.96
-25.58
-26.68
-26.72
-25.35
-22.56
-18.77
-14.70
-11.09
-8.41
-6.74
-5.84
-5.33
-4.98
-4.76
-4.82
-5.28
-6.10
-7.03
-7.77
-8.10
-8.06
-7.81
-7.54
-7.30
-6.96
-6.38
-5.62
-4.95
-4.78
-5.38
-6.71
-8.40
-9.95
-11.01
-11.51
-11.69
-11.82
-12.05
-12.31
-12.41
-12.16
-11.51
-10.51
-9.23
-7.69
-5.79
-3.49
-0.80
2.10
4.86
7.07
8.38
8.63
7.90
6.47
4.71
2.95
1.35
-0.06
-1.32
-2.45
-3.36
-3.94
-4.10
-3.94
-3.68
-3.62
-4.00
-4.94
-6.34
-7.97
-9.55
-10.85
-11.75
-12.25
-12.46
-12.52
-12.55
-12.59
-12.63
-12.60
-12.41
-12.02
-11.39
-10.51
-9.33
-7.79
-5.84
-3.49
-0.80
2.09
4.98
7.68
10.03
11.89
13.22
14.00
14.27
14.10
13.55
12.70
11.60
10.30
8.84
7.28
5.72
4.26
2.99
1.95
1.13
0.47
-0.10
-0.67
-1.28
-1.94
-2.59
-3.18
-3.57
-3.69
-3.46
-2.94
-2.24
-1.59
-1.23
-1.32
-1.88
-2.70
-3.45
-3.66
-3.00
-1.27
1.45
4.86
8.51
11.88
14.51
16.11
16.66
16.36
15.58
14.69
13.93
13.35
12.85
12.28
11.54
10.66
9.67
8.64
7.59
6.51
5.39
4.27
3.21
2.30
1.61
1.16
0.90
0.72
0.48
0.00
-0.85
-2.14
-3.86
-5.94
-8.31
-10.85
-13.35
-15.53
-17.01
-17.46
-16.72
-14.87
-12.16
-9.01
-5.79
-2.80
-0.27
1.71
3.08
3.87
4.19
4.20
4.10
4.01
3.91
3.69
3.21
2.37
1.26
0.10
-0.81
-1.28
-1.32
-1.19
-1.24
-1.78
-2.89
-4.39
-5.96
-7.32
-8.35
-9.13
-9.82
-10.57
-11.43
-12.39
-13.43
-14.58
-15.81
-16.99
-17.86
-18.09
-17.40
-15.69
-13.06
-9.78
-6.21
-2.68
0.54
3.20
5.13
6.19
6.39
5.90
4.97
3.90
2.90
2.02
1.22
0.40
-0.44
-1.25
-1.95
-2.53
-3.09
-3.80
-4.84
-6.24
-7.89
-9.58
-11.11
-12.41
-13.54
-14.58
-15.57
-16.49
-17.33
-18.16
-19.18
-20.55
-22.27
-23.98
-25.10
-25.01
-23.37
-20.24
-16.06
-11.50
-7.14
-3.34
-0.22
2.24
4.16
5.61
6.66
7.36
7.71
7.71
7.36
6.64
5.60
4.37
3.10
1.97
1.12
0.61
0.40
0.37
0.33
0.12
-0.39
-1.22
-2.31
-3.53
-4.72
-5.78
-6.66
-7.40
-8.08
-8.75
-9.39
-9.82
-9.78
-8.97
-7.21
-4.51
-1.13
2.50
5.93
8.86
11.17
12.91
14.20
15.15
15.76
15.98
15.76
15.08
13.99
12.59
10.95
9.10
7.06
4.88
2.67
0.59
-1.20
-2.62
-3.69
-4.50
-5.17
-5.77
-6.32
-6.83
-7.35
-7.95
-8.72
-9.68
-10.82
-12.03
-13.15
-14.05
-14.52
-14.37
-13.35
-11.31
-8.26
-4.41
-0.20
3.90
7.47
10.30
12.34
13.68
14.40
14.60
14.39
13.91
13.34
12.82
12.36
11.85
11.09
9.93
8.38
6.56
4.71
3.04
1.64
0.46
-0.63
-1.78
-3.09
-4.55
-6.05
-7.41
-8.49
-9.23
-9.69
-10.06
-10.58
-11.38
-12.44
-13.47
-14.02
-13.65
-12.13
-9.59
-6.42
-3.22
-0.45
1.68
3.27
4.59
5.89
7.21
8.38
9.16
9.38
9.07
8.46
7.84
7.49
7.53
7.92
8.56
9.26
9.88
10.29
10.44
10.32
9.96
9.33
8.42
7.15
5.50
3.55
1.48
-0.44
-1.94
-2.89
-3.38
-3.73
-4.34
-5.56
-7.50
-9.94
-12.38
-14.20
-14.87
-14.11
-12.01
-8.90
-5.26
-1.56
1.82
4.66
6.81
8.27
9.08
9.37
9.32
9.12
8.87
8.68
8.57
8.55
8.60
8.64
8.61
8.37
7.91
7.25
6.52
5.90
5.48
5.28
5.15
4.90
4.35
3.46
2.29
0.97
-0.38
-1.64
-2.74
-3.68
-4.45
-5.16
-5.94
-7.02
-8.51
-10.39
-12.38
-14.00
-14.76
-14.27
-12.40
-9.30
-5.34
-0.95
3.40
7.29
10.39
12.48
13.52
13.61
13.02
12.08
11.08
10.22
9.55
9.02
8.59
8.24
8.01
7.92
7.91
7.89
7.75
7.47
7.13
6.85
6.66
6.44
5.95
5.02
3.72
2.37
1.39
1.05
1.21
1.45
1.26
0.34
-1.22
-3.07
-4.86
-6.44
-7.90
-9.33
-10.70
-11.63
-11.66
-10.42
-7.89
-4.45
-0.69
2.85
5.85
8.25
10.12
11.47
12.18
12.08
11.06
9.26
7.02
4.85
3.21
2.37
2.31
2.75
3.30
3.55
3.25
2.38
1.15
-0.14
-1.22
-2.01
-2.65
-3.40
-4.48
-5.95
-7.64
-9.27
-10.56
-11.45
-12.07
-12.65
-13.40
-14.41
-15.59
-16.75
-17.60
-17.84
-17.19
-15.45
-12.62
-8.93
-4.80
-0.77
2.71
5.37
7.19
8.26
8.74
8.73
8.35
7.66
6.76
5.72
4.59
3.37
2.11
0.87
-0.19
-0.94
-1.34
-1.48
-1.54
-1.72
-2.13
-2.79
-3.59
-4.47
-5.36
-6.30
-7.34
-8.54
-9.93
-11.49
-13.16
-14.85
-16.45
-17.81
-18.73
-18.89
-18.03
-15.94
-12.68
-8.56
-4.07
0.24
4.00
7.06
9.44
11.18
12.25
12.54
12.02
10.89
9.52
8.37
7.69
7.39
7.17
6.67
5.78
4.68
3.72
3.14
2.96
2.89
2.61
1.88
0.71
-0.70
-2.18
-3.63
-5.06
-6.51
-7.94
-9.24
-10.34
-11.29
-12.29
-13.55
-15.08
-16.62
-17.61
-17.51
-15.95
-12.97
-9.01
-4.65
-0.43
3.32
6.49
9.10
11.17
12.68
13.54
13.77
13.43
12.72
11.86
11.02
10.31
9.72
9.20
8.60
7.82
6.85
5.79
4.86
4.24
3.99
3.95
3.79
3.20
2.00
0.29
-1.64
-3.43
-4.84
-5.83
-6.57
-7.26
-8.06
-9.07
-10.27
-11.60
-12.94
-14.08
-14.71
-14.47
-13.05
-10.34
-6.53
-2.04
2.55
6.71
10.15
12.84
14.93
16.58
17.79
18.44
18.35
17.50
16.12
14.64
13.52
12.99
13.01
13.30
13.48
13.32
12.78
11.97
11.08
10.24
9.53
8.90
8.27
7.53
6.60
5.49
4.25
3.01
1.88
0.88
-0.10
-1.24
-2.71
-4.55
-6.65
-8.82
-10.85
-12.55
-13.79
-14.42
-14.28
-13.24
-11.29
-8.61
-5.55
-2.51
0.16
2.24
3.74
4.77
5.45
5.85
5.98
5.80
5.36
4.75
4.12
3.64
3.34
3.16
2.93
2.54
1.99
1.39
0.85
0.43
0.04
-0.53
-1.47
-2.82
-4.49
-6.25
-7.85
-9.15
-10.10
-10.77
-11.25
-11.64
-12.05
-12.58
-13.39
-14.52
-15.90
-17.24
-18.11
-18.08
-16.84
-14.36
-10.86
-6.82
-2.73
0.96
4.01
6.33
7.95
8.95
9.42
9.44
9.12
8.59
7.96
7.32
6.75
6.25
5.82
5.40
4.92
4.37
3.74
3.10
2.55
2.16
1.96
1.82
1.60
1.15
0.41
-0.56
-1.66
-2.78
-3.91
-5.03
-6.20
-7.43
-8.70
-10.02
-11.41
-12.95
-14.58
-16.12
-17.22
-17.44
-16.47
-14.23
-10.97
-7.11
-3.15
0.58
3.87
6.70
9.06
10.95
12.32
13.14
13.45
13.36
13.04
12.66
12.33
12.08
11.91
11.74
11.49
11.07
10.42
9.59
8.68
7.80
7.09
6.53
6.04
5.50
4.80
3.91
2.86
1.67
0.33
-1.17
-2.79
-4.37
-5.75
-6.78
-7.50
-8.11
-8.86
-9.90
-11.15
-12.37
-13.21
-13.45
-12.99
-11.82
-9.88
-7.13
-3.53
0.76
5.36
9.74
13.44
16.20
18.04
19.16
19.79
20.00
19.81
19.17
18.09
16.68
15.13
13.54
12.02
10.61
9.36
8.33
7.52
6.90
6.33
5.67
4.88
3.99
3.05
2.03
0.85
-0.61
-2.38
-4.32
-6.20
-7.85
-9.25
-10.53
-11.86
-13.31
-14.82
-16.23
-17.43
-18.43
-19.31
-20.09
-20.61
-20.57
-19.60
-17.53
-14.42
-10.60
-6.52
-2.59
0.90
3.82
6.14
7.80
8.80
9.14
8.89
8.23
7.41
6.62
5.97
5.46
4.98
4.37
3.54
2.46
1.23
0.05
-0.83
-1.20
-1.02
-0.51
-0.10
-0.27
-1.34
-3.27
-5.64
-7.88
-9.49
-10.33
-10.61
-10.75
-11.14
-11.98
-13.19
-14.50
-15.56
-16.01
-15.53
-13.87
-10.94
-6.87
-2.05
2.98
7.67
11.70
14.99
17.63
19.73
21.34
22.35
22.69
22.36
21.52
20.43
19.32
18.33
17.47
16.70
15.96
15.22
14.45
13.59
12.58
11.40
10.09
8.76
7.55
6.54
5.72
4.99
4.13
3.02
1.58
-0.14
-1.95
-3.64
-5.06
-6.15
-6.99
-7.71
-8.50
-9.50
-10.75
-12.18
-13.55
-14.56
-14.84
-14.10
-12.22
-9.30
-5.63
-1.62
2.33
5.84
8.63
10.45
11.17
10.83
9.62
7.92
6.16
4.71
3.77
3.37
3.40
3.62
3.84
3.85
3.52
2.81
1.75
0.48
-0.91
-2.33
-3.81
-5.37
-7.01
-8.58
-9.91
-10.89
-11.58
-12.28
-13.36
-15.07
-17.39
-19.99
-22.35
-23.95
-24.48
-23.84
-22.12
-19.46
-16.04
-12.00
-7.60
-3.18
0.87
4.17
6.54
7.97
8.61
8.64
8.22
7.46
6.49
5.51
4.73
4.30
4.17
4.13
3.86
3.20
2.20
1.09
0.16
-0.48
-0.98
-1.63
-2.71
-4.27
-6.09
-7.86
-9.27
-10.17
-10.62
-10.80
-10.98
-11.43
-12.35
-13.77
-15.51
-17.12
-18.01
-17.60
-15.62
-12.16
-7.71
-2.89
1.73
5.83
9.33
12.26
14.64
16.37
17.33
17.44
16.75
15.52
14.08
12.74
11.68
10.91
10.34
9.83
9.29
8.65
7.94
7.14
6.28
5.36
4.39
3.38
2.34
1.25
0.12
-1.02
-2.13
-3.14
-4.04
-4.89
-5.82
-6.91
-8.22
-9.72
-11.32
-12.96
-14.52
-15.83
-16.58
-16.40
-14.98
-12.20
-8.30
-3.78
0.73
4.74
8.02
10.59
12.59
14.08
14.98
15.13
14.42
12.97
11.07
9.15
7.60
6.56
5.88
5.27
4.46
3.44
2.43
1.83
1.92
2.79
4.23
5.86
7.31
8.31
8.76
8.64
8.01
6.94
5.56
4.05
2.57
1.28
0.23
-0.63
-1.38
-2.15
-3.01
-4.02
-5.13
-6.14
-6.76
-6.63
-5.51
-3.35
-0.44
2.75
5.77
8.28
10.22
11.74
12.99
14.06
14.92
15.46
15.59
15.36
14.93
14.49
14.19
14.05
13.95
13.74
13.28
12.56
11.69
10.85
10.18
9.70
9.29
8.71
7.74
6.28
4.47
2.54
0.81
-0.56
-1.56
-2.35
-3.14
-4.10
-5.32
-6.79
-8.48
-10.32
-12.17
-13.79
-14.80
-14.79
-13.50
-10.92
-7.40
-3.50
0.14
3.04
4.98
6.07
6.53
6.59
6.38
5.87
5.01
3.80
2.38
0.99
-0.07
-0.58
-0.52
-0.04
0.57
0.99
0.96
0.40
-0.61
-1.90
-3.24
-4.48
-5.55
-6.53
-7.52
-8.62
-9.79
-10.90
-11.73
-12.16
-12.23
-12.14
-12.28
-12.96
-14.32
-16.17
-18.09
-19.50
-19.82
-18.74
-16.21
-12.51
-8.15
-3.75
0.19
3.31
5.51
6.92
7.75
8.18
8.23
7.82
6.88
5.53
4.05
2.83
2.28
2.58
3.66
4.89
5.45
4.69
2.47
-0.82
-4.37
-7.05
-8.20
-7.66
-6.41
-5.93
-7.47
-11.33
-16.85
-22.60
-26.66
-28.06
-26.71
-24.18
-22.62
-23.60
-27.34
-32.68
-37.64
-39.43
-36.70
-29.26
-19.50
-11.38
-9.18
-15.81
-32.14
-56.62
-85.20
-114.77
-136.15
-142.44
-131.94
-109.02
-80.18
-49.79
-24.18
-0.77
21.61
42.96
62.61
81.08
100.22
120.16
136.04
139.70
126.39
98.09
63.95
33.77
12.70
-0.87
-14.02
-32.12
-55.41
-78.77
-95.83
-101.23
-93.59
-75.21
-50.44
-22.08
5.53
28.59
44.85
52.76
51.60
40.90
20.99
-6.51
-38.51
-70.86
-98.94
-118.55
-127.52
-125.97
-116.36
-102.36
-87.22
-72.09
-55.45
-33.21
-0.95
43.12
96.12
150.49
196.51
226.04
235.75
227.95
209.14
186.77
166.27
149.89
137.38
127.68
120.33
115.69
114.45
117.09
123.75
134.25
148.09
163.90
178.84
188.38
186.99
169.55
132.79
76.24
2.42
-83.38
-173.42
-258.24
-327.79
-373.54
-390.62
-379.49
-345.85
-298.59
-246.72
-196.52
-150.19
-106.36
-62.03
-14.83
35.35
85.97
132.70
170.93
197.28
210.65
212.23
204.69
191.07
173.78
154.25
133.17
111.00
88.44
66.43
45.92
27.61
11.82
-1.33
-11.71
-18.96
-22.60
-22.11
-17.32
-8.78
1.99
12.79
21.21
25.35
24.46
18.95
10.01
-1.01
-13.23
-26.58
-41.61
-59.23
-80.29
-105.36
-134.76
-168.61
-206.95
-249.31
-294.22
-338.55
-377.39
-404.69
-414.64
-403.25
-369.42
-315.22
-245.35
-166.28
-85.55
-11.07
49.65
90.79
109.62
107.66
90.40
65.89
42.38
26.11
20.24
25.07
38.91
59.15
82.79
106.63
127.55
142.92
151.29
152.82
149.16
142.70
135.64
129.11
122.99
116.23
107.56
96.30
82.76
68.35
54.93
44.08
36.43
31.62
28.52
25.82
22.54
18.35
13.62
9.07
5.36
2.84
1.46
0.90
0.62
0.02
-1.54
-4.24
-7.83
-11.56
-14.13
-13.87
-9.17
0.94
16.29
35.57
57.46
80.79
104.95
130.08
157.07
186.83
219.31
252.65
283.25
307.83
323.40
327.67
319.37
298.70
267.48
228.39
184.31
137.80
92.83
52.24
16.14
-18.00
-52.86
-88.59
-121.98
-147.91
-162.02
-160.59
-143.88
-116.05
-82.73
-47.51
-10.32
30.62
75.77
107.03
108.93
78.24
27.03
-27.50
-73.09
-104.84
-123.71
-133.76
-139.60
-142.31
-141.40
-136.62
-128.89
-119.80
-110.41
-101.40
-93.45
-87.43
-82.21
-76.47
-69.73
-62.62
-56.07
-50.25
-44.68
-38.66
-31.70
-22.76
-11.88
-0.84
7.62
10.51
6.73
-2.43
-13.94
-24.12
-29.35
-27.79
-20.09
-9.20
0.74
6.05
4.58
-3.70
-16.81
-30.68
-41.33
-46.45
-45.94
-41.43
-34.95
-27.99
-21.17
-14.66
-8.63
-3.66
-0.40
0.93
0.81
0.36
0.70
2.46
5.48
8.97
11.90
13.54
13.88
13.43
12.98
13.03
13.47
13.65
12.69
9.94
5.17
-0.91
-7.31
-13.16
-18.15
-22.73
-27.74
-33.83
-41.00
-48.38
-54.60
-58.37
-58.97
-56.91
-53.81
-51.74
-52.64
-57.60
-66.59
-78.05
-89.00
-95.13
-92.58
-79.33
-56.25
-27.21
2.02
25.54
39.38
42.66
38.41
31.33
26.44
27.35
35.49
50.01
68.34
87.35
104.66
120.31
135.35
151.01
167.19
181.40
189.06
184.99
165.13
122.97
60.02
-16.21
-93.41
-157.53
-196.82
-204.66
-180.53
-129.62
-61.03
14.77
85.38
138.58
164.60
159.02
125.67
77.58
32.95
8.52
12.96
41.61
79.79
110.24
120.24
107.06
77.97
43.73
14.23
-1.58
-2.40
5.58
14.89
21.08
22.33
23.49
27.11
31.69
32.89
24.37
5.19
-22.94
-58.97
-99.30
-137.98
-170.52
-195.76
-215.36
-233.60
-253.54
-276.69
-307.43
-346.88
-391.32
-434.48
-469.97
-492.09
-498.11
-486.85
-433.99
-339.75
-228.38
-129.38
-57.55
-14.27
14.15
35.70
54.49
73.17
88.61
100.33
111.01
123.46
137.68
151.76
162.43
168.61
170.86
167.06
157.07
143.93
132.90
129.14
136.67
156.17
185.66
220.66
253.88
281.21
303.54
324.87
348.20
373.08
394.82
407.41
406.36
389.51
359.08
320.60
280.92
246.23
221.12
207.36
203.47
204.68
203.68
193.86
172.19
140.19
102.76
65.47
32.01
3.13
-21.68
-42.59
-58.64
-68.60
-72.54
-72.70
-73.07
-77.69
-89.98
-110.42
-136.26
-162.61
-184.37
-197.75
-201.28
-196.03
-185.04
-174.13
-167.74
-166.95
-169.53
-172.00
-171.69
-167.70
-161.01
-153.38
-149.54
-152.07
-159.95
-169.44
-176.94
-180.79
-181.18
-179.58
-177.17
-178.44
-185.24
-195.54
-204.96
-210.15
-210.77
-208.89
-207.94
-187.19
-137.59
-66.02
9.65
75.51
127.32
166.40
195.26
212.98
221.99
219.34
203.76
177.49
145.32
111.54
77.61
46.14
17.07
-10.51
-41.95
-81.36
-130.73
-189.18
-252.93
-315.19
-366.64
-398.51
-405.13
-388.67
-354.15
-308.78
-259.13
-209.40
-160.86
-112.89
-65.60
-20.46
19.04
53.33
84.18
114.10
145.31
179.40
217.42
259.39
304.33
349.46
394.34
435.56
467.11
483.24
482.32
468.13
447.71
428.08
389.49
324.92
241.49
154.88
77.92
16.40
-29.12
-61.32
-84.57
-103.28
-116.67
-123.89
-125.42
-123.29
-119.45
-115.46
-112.81
-112.65
-115.24
-117.15
-115.48
-109.17
-98.79
-86.03
-73.18
-63.07
-58.65
-61.81
-71.07
-84.03
-98.09
-110.86
-119.93
-123.33
-120.20
-111.27
-98.40
-83.50
-68.87
-56.63
-48.23
-44.05
-43.63
-45.88
-51.41
-58.72
-64.41
-64.23
-54.63
-34.67
-7.07
22.35
46.75
61.07
64.35
59.43
51.26
44.44
41.22
41.06
41.65
40.58
36.59
30.20
22.92
16.37
11.65
9.26
9.17
11.21
15.08
20.35
26.39
32.09
35.92
36.38
32.45
24.03
12.17
-1.07
-13.12
-21.46
-24.32
-21.10
-12.39
0.17
14.31
27.62
37.92
43.72
44.54
40.96
34.41
26.80
19.99
15.36
13.72
15.13
18.94
23.86
28.20
30.31
29.12
24.53
17.40
9.18
1.27
-5.57
-11.31
-16.47
-21.62
-26.94
-32.14
-36.53
-39.34
-39.94
-37.97
-33.41
-26.60
-18.20
-9.13
-0.38
7.26
13.33
17.79
20.87
22.89
24.00
24.16
23.27
21.40
18.88
16.27
14.16
12.83
12.18
11.80
11.15
9.93
8.14
6.09
4.13
2.51
1.20
-0.12
-1.85
-4.28
-7.46
-11.14
-14.93
-18.46
-21.49
-23.96
-25.88
-27.12
-27.25
-25.73
-22.09
-16.21
-8.57
-0.09
8.12
15.18
20.62
24.41
26.83
28.15
28.54
28.03
26.64
24.49
21.90
19.25
16.92
15.14
13.90
13.01
12.20
11.23
9.96
8.33
6.36
4.06
1.42
-1.53
-4.67
-7.81
-10.73
-13.31
-15.68
-18.15
-21.07
-24.49
-27.95
-30.50
-31.05
-28.80
-23.63
-16.21
-7.71
0.56
7.66
13.12
17.01
19.69
21.60
23.13
24.50
25.78
26.93
27.86
28.48
28.78
28.82
28.69
28.48
28.19
27.71
26.89
25.60
23.83
21.75
19.68
17.96
16.76
15.96
15.11
13.60
10.89
6.74
1.38
-4.58
-10.24
-14.72
-17.28
-17.44
-15.12
-10.60
-4.46
2.49
9.42
15.60
20.53
24.00
26.08
27.01
27.13
26.78
26.25
25.72
25.30
24.99
24.72
24.38
23.84
23.05
22.02
20.89
19.82
18.91
18.14
17.30
16.17
14.52
12.30
9.65
6.78
3.93
1.28
-1.09
-3.14
-4.94
-6.66
-8.72
-11.62
-15.77
-21.13
-27.15
-32.85
-37.33
-40.23
-41.81
-42.71
-43.40
-43.80
-43.30
-41.32
-37.85
-33.83
-30.73
-29.83
-31.43
-34.55
-37.27
-37.66
-34.61
-28.35
-20.31
-12.53
-6.91
-4.53
-5.46
-8.96
-14.00
-19.72
-25.66
-31.66
-37.56
-43.00
-47.44
-50.40
-51.70
-51.63
-50.84
-50.00
-49.53
-49.34
-48.86
-47.26
-43.71
-37.69
-29.15
-18.56
-6.83
4.89
15.46
24.04
30.23
34.17
36.47
38.03
39.71
42.15
45.52
49.58
53.92
58.19
62.27
66.25
70.15
73.79
76.65
78.11
77.70
75.38
71.55
66.97
62.35
58.07
54.08
50.04
45.64
40.85
36.09
31.91
28.70
26.39
24.41
21.98
18.58
14.24
9.59
5.58
3.08
2.49
3.73
6.35
9.76
13.39
16.83
19.79
22.08
23.57
24.21
24.02
23.14
21.80
20.35
19.12
18.31
17.83
17.37
16.48
14.84
12.44
9.56
6.70
4.28
2.47
1.21
0.32
-0.37
-0.88
-1.16
-1.21
-1.09
-0.94
-0.90
-1.03
-1.29
-1.66
-2.23
-3.21
-4.85
-7.17
-9.88
-12.28
-13.52
-12.93
-10.36
-6.26
-1.51
2.94
6.38
8.55
9.56
9.61
8.92
7.60
5.77
3.63
1.46
-0.44
-1.88
-2.88
-3.62
-4.34
-5.18
-6.14
-7.11
-7.98
-8.80
-9.77
-11.14
-13.05
-15.37
-17.69
-19.55
-20.59
-20.80
-20.38
-19.69
-18.99
-18.29
-17.49
-16.53
-15.53
-14.81
-14.72
-15.44
-16.79
-18.24
-19.01
-18.33
-15.72
-11.11
-4.98
1.72
7.88
12.49
15.03
15.57
14.68
13.18
11.80
11.03
11.08
12.04
13.97
16.85
20.48
24.25
27.20
28.26
26.69
22.40
16.11
9.05
2.56
-2.44
-5.57
-6.89
-6.53
-4.51
-0.78
4.43
10.37
15.73
19.09
19.49
16.97
12.59
7.87
4.17
2.06
1.27
1.09
0.95
0.82
1.24
2.95
6.37
11.29
16.79
21.66
24.78
25.64
24.43
21.90
18.96
16.32
14.24
12.64
11.25
9.90
8.57
7.40
6.49
5.84
5.36
4.96
4.60
4.34
4.28
4.42
4.64
4.75
4.52
3.79
2.48
0.60
-1.78
-4.51
-7.39
-10.25
-12.98
-15.63
-18.34
-21.19
-24.03
-26.46
-27.88
-27.78
-25.98
-22.75
-18.66
-14.41
-10.49
-7.18
-4.52
-2.47
-1.07
-0.42
-0.62
-1.61
-3.16
-4.90
-6.49
-7.76
-8.76
-9.74
-10.90
-12.33
-13.89
-15.31
-16.39
-17.17
-17.95
-19.15
-21.06
-23.66
-26.57
-29.28
-31.33
-32.55
-33.11
-33.39
-33.85
-34.86
-36.62
-39.07
-41.87
-44.40
-45.91
-45.74
-43.60
-39.64
-34.44
-28.74
-23.15
-17.94
-13.01
-8.06
-2.80
2.88
8.80
14.62
19.98
24.53
28.07
30.48
31.83
32.38
32.57
32.92
33.84
35.41
37.36
39.09
39.90
39.26
36.90
32.94
27.77
21.93
16.07
10.88
6.98
4.81
4.41
5.39
7.03
8.48
9.05
8.42
6.73
4.48
2.39
1.11
1.04
2.16
4.10
6.28
8.13
9.27
9.60
9.24
8.47
7.65
7.09
7.06
7.73
9.11
11.04
13.21
15.20
16.68
17.45
17.60
17.37
17.11
17.03
17.12
17.18
16.85
15.89
14.30
12.40
10.64
9.42
8.77
8.24
7.02
4.08
-1.55
-10.45
-22.54
-36.92
-51.78
-64.77
-73.61
-76.75
-74.03
-66.62
-56.55
-45.90
-36.01
-27.17
-18.91
-10.62
-2.17
5.78
11.88
14.70
13.35
8.02
0.10
-8.19
-14.52
-17.33
-16.54
-13.61
-11.10
-11.62
-16.84
-26.69
-39.21
-51.15
-58.78
-59.31
-52.16
-39.71
-27.19
-21.43
-29.05
-54.07
-96.05
-149.35
-204.11
-248.88
-273.92
-274.21
-250.56
-208.73
-156.87
-102.44
-49.97
-0.60
46.91
94.04
140.58
183.98
220.13
245.06
256.63
255.37
244.04
226.49
206.17
185.02
163.56
141.62
119.34
97.81
78.76
63.69
52.93
45.31
38.61
30.69
20.45
8.33
-4.00
-14.62
-22.41
-27.63
-31.69
-36.26
-42.23
-49.18
-55.54
-59.41
-59.32
-54.71
-45.81
-33.35
-18.36
-2.12
13.83
27.79
38.21
44.12
45.37
42.55
36.77
29.33
21.46
14.28
8.51
4.40
1.49
-1.25
-4.96
-10.27
-16.89
-23.66
-29.00
-31.61
-30.88
-27.04
-20.95
-13.81
-6.88
-1.31
1.98
2.60
0.77
-2.60
-6.25
-8.96
-10.05
-9.66
-8.56
-7.77
-8.11
-9.88
-12.80
-16.17
-19.18
-21.09
-21.40
-19.91
-16.82
-12.72
-8.44
-4.86
-2.58
-1.80
-2.18
-3.15
-4.14
-4.79
-5.07
-5.17
-5.33
-5.67
-6.21
-6.82
-7.28
-7.39
-6.95
-5.84
-4.14
-2.06
0.04
1.76
2.84
3.20
2.93
2.25
1.45
0.90
0.97
1.92
3.72
5.93
7.64
7.75
5.38
0.20
-7.33
-16.07
-24.61
-31.57
-35.98
-37.32
-35.57
-31.13
-24.75
-17.45
-10.27
-4.13
0.43
3.22
4.34
4.06
2.66
0.52
-1.86
-3.73
-4.28
-2.81
0.92
6.49
12.82
18.50
22.16
22.97
20.80
16.24
10.35
4.28
-1.06
-5.10
-7.68
-8.95
-9.19
-8.83
-8.29
-7.96
-8.09
-8.78
-9.96
-11.49
-13.14
-14.66
-15.78
-16.26
-15.92
-14.75
-12.96
-10.87
-8.77
-6.76
-4.73
-2.46
0.18
3.00
5.55
7.31
7.96
7.54
6.52
5.53
5.06
5.28
6.02
6.95
7.83
8.59
9.31
10.07
10.82
11.28
11.15
10.26
8.70
6.81
5.02
3.59
2.61
1.92
1.31
0.51
-0.71
-2.56
-5.12
-8.34
-11.83
-14.93
-16.89
-17.09
-15.37
-12.09
-8.03
-4.09
-0.98
1.02
2.05
2.54
2.97
3.62
4.57
5.67
6.78
7.83
8.83
9.86
10.89
11.78
12.32
12.29
11.63
10.46
9.02
7.59
6.37
5.46
4.86
4.47
4.19
3.88
3.38
2.57
1.38
-0.16
-1.93
-3.75
-5.49
-7.09
-8.54
-9.84
-10.91
-11.53
-11.41
-10.33
-8.28
-5.62
-2.89
-0.72
0.51
0.80
0.50
0.11
0.03
0.38
1.01
1.66
2.14
2.45
2.78
3.29
4.04
4.91
5.68
6.17
6.34
6.32
6.29
6.36
6.51
6.58
6.39
5.80
4.84
3.65
2.41
1.22
0.08
-1.08
-2.33
-3.65
-4.97
-6.25
-7.49
-8.79
-10.22
-11.74
-13.08
-13.84
-13.58
-12.10
-9.52
-6.27
-2.93
-0.02
2.20
3.70
4.63
5.18
5.49
5.58
5.49
5.23
4.96
4.83
5.03
5.60
6.47
7.38
8.05
8.24
7.92
7.30
6.70
6.44
6.60
7.02
7.29
7.00
5.93
4.19
2.13
0.19
-1.37
-2.52
-3.47
-4.51
-5.85
-7.52
-9.37
-11.14
-12.57
-13.45
-13.60
-12.91
-11.40
-9.17
-6.48
-3.66
-1.01
1.24
3.01
4.27
4.99
5.14
4.71
3.79
2.54
1.25
0.22
-0.30
-0.24
0.29
1.05
1.74
2.14
2.15
1.86
1.46
1.19
1.14
1.21
1.16
0.71
-0.28
-1.72
-3.23
-4.30
-4.47
-3.63
-2.11
-0.56
0.36
0.22
-1.01
-2.86
-4.45
-4.88
-3.67
-0.91
2.86
6.98
10.87
14.06
16.20
17.26
17.33
16.45
14.64
12.15
9.47
7.10
5.12
3.07
0.59
-2.39
-5.37
-7.05
-5.26
2.46
17.96
38.94
60.30
76.41
84.02
83.74
78.41
70.54
60.84
48.34
33.80
15.95
-4.34
-24.36
-41.03
-52.37
-58.08
-59.19
-57.34
-53.42
-48.01
-40.80
-31.39
-20.22
-8.91
0.06
4.27
2.27
-5.76
-18.02
-31.15
-41.59
-46.96
-46.76
-42.22
-35.38
-28.18
-21.85
-17.01
-13.59
-11.44
-10.56
-11.01
-12.56
-14.55
-16.02
-16.23
-15.03
-12.75
-9.99
-7.26
-4.82
-2.61
-0.48
1.56
3.34
4.52
4.97
4.84
4.52
4.37
4.62
5.18
5.78
6.12
5.98
5.25
3.95
2.11
-0.22
-2.88
-5.63
-8.10
-9.83
-10.52
-10.07
-8.70
-6.89
-5.22
-4.16
-3.91
-4.36
-5.17
-5.95
-6.50
-6.85
-7.23
-7.87
-8.91
-10.29
-11.82
-13.28
-14.45
-15.16
-15.26
-14.62
-13.35
-11.86
-10.89
-11.37
-13.91
-18.53
-24.38
-30.00
-33.85
-34.89
-33.00
-28.97
-23.99
-19.05
-14.50
-9.99
-4.77
1.83
9.98
19.20
28.52
36.70
42.58
45.32
44.57
40.65
34.43
27.17
20.19
14.51
10.60
8.41
7.48
7.12
6.57
5.11
2.18
-2.41
-8.30
-14.59
-20.01
-23.42
-24.20
-22.36
-18.43
-13.07
-6.77
0.26
7.94
16.12
24.43
32.22
38.68
42.94
44.27
42.33
37.33
30.11
21.94
14.13
7.63
2.72
-0.93
-3.97
-6.94
-10.00
-12.87
-15.04
-16.03
-15.63
-14.00
-11.53
-8.74
-6.02
-3.56
-1.34
0.73
2.76
4.79
6.87
9.10
11.67
14.63
17.75
20.46
22.04
21.95
20.12
17.05
13.49
10.16
7.30
4.71
2.00
-1.09
-4.47
-7.74
-10.46
-12.37
-13.48
-13.95
-13.80
-12.83
-10.67
-7.01
-1.89
4.27
10.75
16.84
22.09
26.30
29.45
31.40
31.85
30.46
27.11
22.05
15.92
9.51
3.46
-1.95
-6.84
-11.48
-16.03
-20.35
-24.04
-26.63
-27.85
-27.79
-26.93
-25.83
-24.88
-24.06
-22.96
-21.01
-17.86
-13.57
-8.62
-3.68
0.79
4.74
8.46
12.37
16.61
20.96
24.79
27.42
28.34
27.51
25.28
22.30
19.23
16.59
14.57
13.01
11.59
9.91
7.74
5.07
2.18
-0.50
-2.55
-3.78
-4.19
-4.00
-3.48
-2.84
-2.23
-1.75
-1.53
-1.76
-2.59
-4.00
-5.73
-7.38
-8.47
-8.63
-7.72
-5.86
-3.37
-0.70
1.62
3.13
3.54
2.79
1.10
-1.07
-3.17
-4.71
-5.40
-5.20
-4.31
-3.08
-1.86
-0.91
-0.31
0.06
0.41
0.92
1.59
2.20
2.41
1.88
0.47
-1.79
-4.65
-7.81
-10.98
-13.92
-16.45
-18.49
-19.97
-20.90
-21.28
-21.08
-20.24
-18.71
-16.53
-13.90
-11.17
-8.72
-6.91
-5.98
-6.05
-7.11
-9.07
-11.72
-14.70
-17.58
-19.92
-21.44
-22.10
-22.14
-21.94
-21.86
-22.09
-22.53
-22.81
-22.37
-20.64
-17.24
-12.10
-5.59
1.69
9.03
15.87
21.92
27.08
31.33
34.60
36.84
38.09
38.52
38.42
37.99
37.15
35.56
32.85
28.90
24.14
19.39
15.58
13.27
12.32
11.87
10.69
7.64
2.22
-5.03
-12.54
-18.02
-19.22
-14.78
-4.89
8.63
22.82
34.50
41.32
42.34
38.27
31.01
23.11
16.98
14.16
15.00
18.60
23.12
26.45
26.87
23.58
16.87
7.87
-1.80
-10.43
-16.64
-19.57
-19.04
-15.64
-10.55
-5.22
-0.98
1.35
1.66
0.46
-1.40
-3.16
-4.37
-5.02
-5.38
-5.79
-6.43
-7.29
-8.32
-9.56
-11.26
-13.75
-17.25
-21.66
-26.45
-30.83
-34.00
-35.34
-34.56
-31.70
-27.07
-21.17
-14.73
-8.54
-3.37
0.23
2.18
2.89
3.11
3.59
4.78
6.59
8.57
10.09
10.70
10.35
9.33
8.00
6.58
4.96
2.86
0.03
-3.53
-7.49
-11.34
-14.51
-16.59
-17.39
-16.86
-15.06
-12.10
-8.12
-3.43
1.57
6.39
10.58
13.93
16.46
18.39
19.97
21.28
22.15
22.25
21.25
19.01
15.70
11.73
7.59
3.73
0.45
-2.09
-3.83
-4.75
-4.84
-4.15
-2.77
-0.84
1.45
3.84
6.05
7.86
9.12
9.86
10.24
10.45
10.61
10.68
10.45
9.68
8.19
5.99
3.22
0.13
-2.99
-5.80
-7.95
-9.06
-8.88
-7.36
-4.76
-1.58
1.62
4.39
6.50
7.87
8.60
8.80
8.59
8.07
7.31
6.34
5.09
3.45
1.35
-1.20
-4.01
-6.84
-9.41
-11.54
-13.14
-14.21
-14.70
-14.57
-13.81
-12.53
-10.95
-9.37
-8.09
-7.23
-6.75
-6.48
-6.32
-6.26
-6.47
-7.19
-8.56
-10.50
-12.69
-14.69
-16.05
-16.55
-16.17
-15.09
-13.58
-11.79
-9.78
-7.50
-4.95
-2.28
0.24
2.31
3.70
4.39
4.57
4.53
4.58
4.87
5.37
5.92
6.33
6.46
6.29
5.90
5.38
4.86
4.40
4.01
3.69
3.40
3.12
2.80
2.37
1.79
1.08
0.32
-0.40
-1.05
-1.77
-2.72
-4.06
-5.74
-7.41
-8.58
-8.80
-7.90
-6.07
-3.84
-1.80
-0.44
0.05
-0.28
-1.16
-2.22
-3.12
-3.67
-3.92
-4.09
-4.49
-5.30
-6.38
-7.30
-7.49
-6.45
-4.04
-0.49
3.67
7.77
11.23
13.67
14.97
15.23
14.78
14.06
13.45
13.08
12.83
12.29
11.04
8.86
5.80
2.24
-1.39
-4.63
-7.08
-8.33
-7.93
-5.52
-1.01
5.14
11.95
18.11
22.42
24.17
23.32
20.48
16.56
12.49
8.99
6.45
4.97
4.41
4.45
4.72
4.89
4.82
4.52
4.11
3.70
3.35
2.97
2.44
1.58
0.20
-1.85
-4.65
-8.15
-12.22
-16.64
-21.17
-25.54
-29.45
-32.45
-34.08
-33.98
-32.19
-29.20
-25.87
-23.06
-21.24
-20.33
-19.83
-19.14
-17.95
-16.33
-14.57
-12.91
-11.36
-9.67
-7.56
-4.88
-1.75
1.57
4.71
7.39
9.43
10.72
11.25
11.04
10.22
8.94
7.44
5.99
4.83
4.12
3.93
4.13
4.50
4.73
4.60
4.00
3.03
1.86
0.65
-0.60
-1.99
-3.72
-5.89
-8.41
-10.99
-13.20
-14.64
-15.09
-14.54
-13.24
-11.57
-9.91
-8.50
-7.41
-6.51
-5.57
-4.42
-2.98
-1.39
0.13
1.28
1.90
1.96
1.65
1.29
1.28
1.92
3.34
5.41
7.76
9.87
11.30
11.75
11.23
10.03
8.56
7.22
6.25
5.63
5.12
4.38
3.18
1.50
-0.39
-2.03
-2.93
-2.69
-1.22
1.29
4.37
7.38
9.76
11.12
11.38
10.74
9.58
8.28
7.13
6.31
5.95
6.16
6.95
8.10
9.14
9.55
9.00
7.63
6.08
5.17
5.45
6.93
9.01
10.86
11.79
11.52
10.21
8.18
5.71
3.00
0.22
-2.33
-4.27
-5.26
-5.08
-3.78
-1.57
1.30
4.61
8.17
11.73
14.89
17.14
17.96
17.08
14.50
10.60
5.91
0.99
-3.69
-7.73
-10.74
-12.28
-11.96
-9.54
-5.20
0.44
6.40
11.65
15.41
17.36
17.61
16.52
14.39
11.42
7.67
3.33
-1.12
-4.90
-7.23
-7.62
-6.13
-3.39
-0.27
2.45
4.33
5.31
5.45
4.85
3.49
1.44
-1.08
-3.56
-5.39
-5.99
-5.07
-2.65
0.93
5.15
9.36
12.88
15.12
15.71
14.57
11.96
8.35
4.28
0.20
-3.58
-6.88
-9.52
-11.34
-12.22
-12.17
-11.36
-10.07
-8.64
-7.32
-6.30
-5.66
-5.43
-5.62
-6.22
-7.22
-8.56
-10.22
-12.18
-14.46
-17.05
-19.86
-22.64
-24.97
-26.38
-26.42
-24.93
-22.05
-18.30
-14.36
-10.95
-8.55
-7.33
-7.19
-7.79
-8.81
-9.99
-11.21
-12.52
-14.07
-16.03
-18.57
-21.71
-25.33
-29.02
-32.21
-34.20
-34.38
-32.43
-28.40
-22.80
-16.43
-10.18
-4.82
-0.84
1.62
2.71
2.78
2.19
1.29
0.29
-0.68
-1.57
-2.44
-3.36
-4.41
-5.59
-6.71
-7.44
-7.37
-6.19
-3.83
-0.51
3.31
7.17
10.67
13.68
16.19
18.29
20.01
21.38
22.41
23.18
23.84
24.56
25.46
26.61
27.95
29.34
30.56
31.31
31.34
30.45
28.61
25.90
22.49
18.54
14.22
9.65
5.04
0.72
-2.99
-5.81
-7.69
-8.85
-9.71
-10.75
-12.29
-14.43
-16.98
-19.54
-21.63
-22.73
-22.45
-20.62
-17.34
-12.97
-8.07
-3.23
1.04
4.44
6.88
8.45
9.30
9.65
9.67
9.54
9.45
9.60
10.13
11.06
12.26
13.45
14.27
14.37
13.54
11.72
9.08
5.93
2.65
-0.38
-2.84
-4.59
-5.61
-6.05
-6.19
-6.37
-6.91
-8.07
-9.91
-12.20
-14.45
-15.94
-16.04
-14.43
-11.28
-7.25
-3.20
0.10
2.16
2.96
2.75
1.88
0.67
-0.70
-2.08
-3.33
-4.33
-5.02
-5.63
-6.59
-8.46
-11.70
-16.34
-21.96
-27.71
-32.64
-35.99
-37.42
-37.01
-35.20
-32.60
-29.81
-27.33
-25.46
-24.30
-23.69
-23.33
-22.91
-22.26
-21.39
-20.45
-19.73
-19.49
-19.86
-20.78
-21.94
-22.81
-22.75
-21.26
-18.20
-13.86
-8.89
-3.99
0.35
4.10
7.56
11.09
14.78
18.38
21.53
24.16
26.76
30.32
35.97
44.40
55.61
68.77
82.48
95.01
104.70
110.33
111.44
108.61
103.30
97.43
92.62
89.63
88.25
87.61
86.92
85.89
84.75
83.80
83.10
82.26
80.69
77.87
73.34
66.47
56.33
41.94
22.73
-0.91
-27.74
-55.86
-83.29
-108.47
-130.48
-148.73
-162.73
-172.05
-176.39
-176.13
-172.18
-165.72
-157.78
-149.23
-140.42
-131.50
-122.71
-114.34
-107.01
-100.99
-95.77
-90.05
-82.74
-72.88
-60.20
-45.58
-30.58
-18.00
-10.15
-7.54
-8.62
-11.59
-13.82
-13.11
-8.44
0.57
11.68
22.61
32.51
41.88
50.06
56.58
60.81
61.94
60.39
54.29
41.89
22.55
-3.63
-38.00
-79.85
-125.70
-169.76
-204.18
-226.38
-237.96
-243.31
-230.20
-193.51
-135.90
-66.93
-9.96
34.48
68.25
91.82
108.78
120.47
126.80
129.40
130.37
131.00
132.78
133.01
129.32
122.40
115.52
111.19
110.90
113.58
116.44
118.33
117.68
115.01
112.77
112.69
113.31
111.52
103.88
89.42
72.67
59.44
54.43
58.33
67.19
73.58
74.79
70.95
63.87
55.80
48.47
41.83
35.33
28.63
22.15
17.02
13.57
11.29
9.33
6.53
2.05
-3.94
-10.71
-16.63
-19.72
-19.26
-15.98
-11.64
-8.32
-7.71
-10.36
-16.65
-25.42
-34.45
-41.83
-46.66
-49.04
-49.55
-48.99
-48.02
-48.82
-52.54
-59.10
-68.18
-80.11
-95.78
-116.03
-141.05
-169.99
-202.99
-237.75
-269.40
-292.05
-300.95
-293.85
-271.34
-236.44
-180.82
-108.26
-32.01
33.10
79.32
106.99
120.50
124.46
122.49
117.44
109.53
99.87
90.51
83.38
79.03
76.89
76.39
76.80
78.14
79.36
80.66
83.58
89.84
99.90
112.46
124.18
130.94
129.38
117.13
95.03
66.88
37.67
9.59
-15.15
-35.76
-52.23
-64.30
-71.57
-73.20
-68.66
-58.78
-46.02
-33.40
-23.67
-18.08
-16.00
-15.71
-15.39
-14.05
-12.07
-10.83
-11.49
-14.43
-18.76
-22.61
-24.02
-22.00
-16.84
-9.79
-2.16
5.54
13.45
21.86
30.57
38.58
44.30
46.40
44.41
39.05
31.81
24.21
17.26
11.42
6.71
3.06
0.44
-1.13
-1.62
-1.01
0.72
3.49
7.07
10.89
14.08
15.76
15.47
13.52
10.99
9.39
9.85
12.70
17.22
21.94
25.22
25.76
22.88
16.51
7.07
-4.65
-17.53
-30.17
-41.22
-49.62
-54.85
-56.98
-56.50
-54.18
-50.80
-47.08
-43.61
-40.86
-39.04
-37.98
-37.01
-35.19
-31.53
-25.48
-17.12
-7.16
3.27
13.05
21.44
28.30
34.00
39.12
44.08
48.90
53.19
56.43
58.25
58.62
57.84
56.41
54.90
53.65
52.79
52.17
51.46
50.36
48.75
46.82
45.00
43.68
42.94
42.40
41.40
39.32
36.00
31.84
27.64
24.20
21.92
20.53
19.33
17.57
14.84
11.36
7.82
5.00
3.38
2.88
3.02
3.10
2.49
0.65
-2.81
-8.19
-15.47
-24.11
-32.83
-39.92
-43.80
-43.60
-39.73
-33.68
-27.52
-23.08
-21.40
-22.60
-26.14
-31.21
-36.96
-42.52
-46.96
-49.40
-49.28
-46.63
-42.20
-37.22
-32.93
-30.11
-28.91
-28.90
-29.45
-30.02
-30.22
-29.78
-28.40
-25.73
-21.53
-15.87
-9.14
-2.02
4.66
10.17
14.04
16.22
17.18
17.73
18.80
21.10
24.80
29.43
34.08
37.65
39.25
38.44
35.32
30.39
24.33
17.86
11.63
6.13
1.73
-1.42
-3.36
-4.25
-4.33
-3.82
-2.92
-1.77
-0.44
0.99
2.45
3.79
4.89
5.64
6.08
6.32
6.58
7.09
8.00
9.44
11.45
14.02
17.05
20.26
23.27
25.65
27.09
27.50
27.13
26.42
25.79
25.45
25.30
25.10
24.67
24.13
23.81
24.09
25.16
26.87
28.71
30.04
30.28
29.03
26.23
22.09
17.14
12.04
7.45
3.86
1.53
0.59
1.04
2.89
6.13
10.56
15.72
20.95
25.51
28.88
30.90
31.64
31.31
30.11
28.16
25.66
22.83
19.94
17.11
14.26
11.15
7.48
3.17
-1.57
-6.34
-10.73
-14.46
-17.47
-19.85
-21.65
-22.87
-23.39
-23.11
-22.08
-20.50
-18.75
-17.21
-16.16
-15.68
-15.68
-15.98
-16.37
-16.75
-17.06
-17.29
-17.41
-17.33
-16.94
-16.13
-14.85
-13.11
-10.95
-8.48
-5.82
-3.13
-0.60
1.58
3.22
4.25
4.64
4.54
4.16
3.75
3.55
3.67
4.12
4.76
5.41
5.85
5.93
5.64
5.09
4.49
4.00
3.68
3.38
2.89
2.05
0.86
-0.46
-1.62
-2.38
-2.64
-2.53
-2.26
-1.99
-1.83
-1.84
-2.05
-2.56
-3.38
-4.43
-5.43
-6.02
-5.92
-5.06
-3.65
-2.04
-0.54
0.69
1.72
2.66
3.58
4.43
5.05
5.35
5.35
5.23
5.19
5.33
5.56
5.69
5.57
5.19
4.74
4.43
4.38
4.49
4.50
4.10
3.11
1.47
-0.71
-3.23
-5.88
-8.38
-10.41
-11.66
-11.94
-11.22
-9.76
-8.00
-6.41
-5.35
-4.94
-5.12
-5.70
-6.49
-7.36
-8.17
-8.79
-9.03
-8.73
-7.79
-6.27
-4.37
-2.39
-0.61
0.77
1.68
2.14
2.28
2.19
2.01
1.81
1.72
1.80
2.08
2.50
2.99
3.42
3.74
3.92
4.01
4.02
3.91
3.60
2.94
1.91
0.54
-0.99
-2.49
-3.83
-4.93
-5.85
-6.66
-7.39
-8.06
-8.64
-9.13
-9.59
-10.11
-10.78
-11.62
-12.49
-13.18
-13.45
-13.08
-12.01
-10.28
-8.03
-5.53
-3.10
-1.06
0.26
0.69
0.34
-0.39
-0.93
-0.78
0.28
1.93
3.51
4.26
3.72
2.02
-0.15
-1.77
-1.94
-0.30
2.80
6.47
9.59
11.21
10.82
8.45
4.62
0.28
-3.21
-4.38
-2.00
4.34
13.76
24.04
32.20
35.55
32.78
24.46
12.83
0.85
-8.87
-14.77
-16.44
-14.24
-8.75
-0.58
9.53
20.39
30.24
37.03
39.10
35.80
27.82
17.03
5.85
-3.49
-9.54
-11.83
-10.75
-7.24
-2.46
2.46
6.57
9.17
9.94
8.98
6.85
4.39
2.42
1.48
1.65
2.53
3.45
3.73
2.90
0.79
-2.48
-6.56
-11.01
-15.28
-18.76
-20.89
-21.21
-19.64
-16.44
-12.23
-7.81
-3.92
-1.03
0.65
1.24
1.02
0.32
-0.57
-1.49
-2.41
-3.30
-4.15
-4.89
-5.39
-5.58
-5.48
-5.19
-4.90
-4.68
-4.55
-4.40
-4.12
-3.72
-3.34
-3.22
-3.54
-4.40
-5.74
-7.40
-9.18
-10.87
-12.37
-13.67
-14.89
-16.10
-17.40
-18.81
-20.24
-21.52
-22.44
-22.84
-22.69
-22.15
-21.43
-20.81
-20.60
-20.93
-21.79
-22.92
-24.03
-24.96
-25.88
-26.95
-28.46
-30.63
-33.43
-36.58
-39.62
-42.34
-45.04
-48.47
-52.81
-57.83
-62.79
-66.60
-68.14
-66.52
-61.29
-52.38
-39.99
-23.44
-2.56
21.62
46.51
68.56
84.69
93.53
96.10
95.23
95.51
100.43
111.01
125.67
141.57
156.49
169.80
182.61
188.28
182.02
162.13
131.63
96.50
62.35
32.72
8.88
-9.22
-22.66
-31.82
-37.17
-39.39
-39.49
-38.62
-36.66
-34.78
-33.76
-34.19
-35.53
-37.13
-38.51
-39.62
-40.70
-41.88
-43.20
-44.33
-44.98
-44.40
-42.16
-38.41
-33.71
-28.86
-24.55
-21.30
-19.26
-18.53
-18.87
-19.97
-21.38
-22.63
-23.28
-23.02
-21.90
-20.18
-18.31
-16.64
-15.27
-14.04
-12.67
-11.01
-9.10
-7.23
-5.65
-4.50
-3.68
-2.93
-1.96
-0.62
0.97
2.53
3.66
4.02
3.41
1.81
-0.62
-3.57
-6.72
-9.82
-12.73
-15.40
-17.76
-19.59
-20.55
-20.30
-18.75
-16.21
-13.39
-11.11
-10.02
-10.33
-11.74
-13.59
-15.17
-15.98
-15.82
-14.81
-13.18
-11.16
-8.87
-6.40
-3.81
-1.27
0.97
2.63
3.53
3.59
2.92
1.72
0.21
-1.38
-2.87
-4.06
-4.76
-4.82
-4.15
-2.77
-0.83
1.39
3.62
5.59
7.17
8.31
9.03
9.38
9.37
9.02
8.34
7.34
6.03
4.46
2.70
0.88
-0.78
-1.98
-2.53
-2.36
-1.60
-0.52
0.58
1.55
2.38
3.18
4.05
4.95
5.73
6.16
6.11
5.60
4.85
4.15
3.72
3.66
3.88
4.14
4.11
3.58
2.51
1.12
-0.19
-0.97
-0.94
-0.16
0.98
1.86
1.89
0.70
-1.72
-5.12
-9.05
-13.07
-16.67
-19.40
-20.82
-20.60
-18.67
-15.31
-11.10
-6.82
-3.23
-0.80
0.33
0.35
-0.41
-1.59
-2.98
-4.46
-5.97
-7.32
-8.11
-7.77
-5.66
-1.39
4.93
12.50
20.03
26.10
29.65
30.31
28.42
24.78
20.22
15.38
10.60
6.13
2.23
-0.79
-2.67
-3.30
-2.80
-1.38
0.76
3.43
6.35
8.99
10.57
10.30
7.73
3.00
-3.12
-9.47
-14.88
-18.49
-19.90
-19.18
-16.70
-12.99
-8.61
-4.09
0.13
3.77
6.65
8.70
9.91
10.32
9.95
8.87
7.23
5.16
2.80
0.20
-2.58
-5.40
-7.96
-9.78
-10.36
-9.41
-7.07
-3.95
-0.96
0.97
1.26
-0.10
-2.61
-5.44
-7.72
-8.79
-8.42
-6.80
-4.54
-2.44
-1.23
-1.35
-2.74
-4.86
-6.94
-8.27
-8.44
-7.42
-5.46
-2.80
0.38
3.98
7.84
11.56
14.58
16.29
16.32
14.71
11.97
8.89
6.27
4.70
4.44
5.40
7.21
9.36
11.30
12.58
12.90
12.16
10.50
8.22
5.76
3.64
2.33
2.19
3.28
5.29
7.56
9.26
9.64
8.30
5.31
1.16
-3.45
-7.75
-11.09
-12.98
-13.09
-11.32
-7.84
-3.16
1.93
6.53
9.93
11.75
12.11
11.40
10.08
8.52
6.88
5.23
3.62
2.23
1.22
0.73
0.74
1.10
1.60
2.08
2.52
2.91
3.24
3.37
3.13
2.38
1.14
-0.42
-2.06
-3.65
-5.17
-6.73
-8.35
-9.95
-11.27
-12.08
-12.33
-12.22
-12.11
-12.27
-12.75
-13.37
-13.83
-13.94
-13.70
-13.23
-12.67
-12.00
-11.08
-9.74
-7.91
-5.66
-3.26
-1.02
0.75
1.86
2.26
2.04
1.43
0.70
0.10
-0.27
-0.40
-0.38
-0.27
-0.08
0.18
0.45
0.58
0.35
-0.38
-1.52
-2.71
-3.47
-3.36
-2.30
-0.65
0.97
1.93
1.91
1.08
-0.11
-1.12
-1.73
-2.02
-2.25
-2.61
-2.99
-3.05
-2.42
-0.97
1.12
3.44
5.60
7.42
8.92
10.26
11.51
12.62
13.43
13.82
13.81
13.56
13.27
13.13
13.23
13.52
13.86
14.06
13.90
13.21
11.88
9.95
7.54
4.90
2.26
-0.19
-2.36
-4.19
-5.66
-6.71
-7.28
-7.36
-7.00
-6.39
-5.76
-5.37
-5.39
-5.92
-6.96
-8.49
-10.38
-12.44
-14.34
-15.60
-15.76
-14.47
-11.68
-7.70
-3.14
1.25
4.79
7.01
7.77
7.17
5.56
3.42
1.25
-0.53
-1.58
-1.78
-1.21
-0.08
1.26
2.48
3.32
3.66
3.54
3.10
2.52
1.91
1.29
0.60
-0.22
-1.16
-2.12
-3.02
-3.81
-4.62
-5.63
-7.02
-8.78
-10.74
-12.61
-14.16
-15.26
-15.89
-16.05
-15.66
-14.57
-12.73
-10.26
-7.47
-4.80
-2.60
-1.03
-0.00
0.65
1.10
1.41
1.58
1.66
1.72
1.89
2.25
2.79
3.37
3.77
3.87
3.63
3.19
2.75
2.48
2.43
2.54
2.60
2.47
2.01
1.23
0.20
-0.98
-2.17
-3.26
-4.18
-4.90
-5.43
-5.83
-6.16
-6.42
-6.52
-6.33
-5.70
-4.61
-3.12
-1.37
0.48
2.30
3.97
5.34
6.28
6.66
6.48
5.86
5.05
4.35
3.98
4.03
4.43
5.00
5.53
5.89
6.01
5.93
5.72
5.42
5.01
4.46
3.74
2.89
1.98
1.13
0.40
-0.23
-0.87
-1.62
-2.55
-3.61
-4.62
-5.38
-5.69
-5.45
-4.65
-3.37
-1.70
0.22
2.21
4.09
5.65
6.76
7.36
7.53
7.40
7.18
6.97
6.87
6.87
6.97
7.10
7.20
7.16
6.91
6.39
5.64
4.76
3.92
3.27
2.93
2.88
2.94
2.79
2.05
0.53
-1.60
-3.77
-5.15
-5.03
-3.24
-0.25
2.88
4.96
5.13
3.21
-0.32
-4.50
-8.27
-10.80
-11.64
-10.68
-8.10
-4.24
0.38
5.12
9.28
12.15
13.21
12.27
9.53
5.61
1.36
-2.32
-4.69
-5.37
-4.36
-2.07
0.87
3.71
5.82
6.82
6.59
5.22
2.96
0.07
-3.13
-6.31
-9.13
-11.26
-12.50
-12.91
-12.75
-12.43
-12.31
-12.50
-12.86
-13.06
-12.79
-11.92
-10.54
-8.90
-7.27
-5.77
-4.37
-2.97
-1.48
0.04
1.43
2.52
3.24
3.65
3.92
4.22
4.58
4.93
5.12
5.05
4.72
4.30
3.97
3.86
3.90
3.92
3.66
2.96
1.80
0.34
-1.23
-2.75
-4.11
-5.26
-6.10
-6.53
-6.45
-5.88
-4.99
-4.08
-3.44
-3.20
-3.28
-3.42
-3.30
-2.69
-1.57
-0.10
1.47
2.92
4.12
5.08
5.83
6.42
6.84
7.04
7.00
6.69
6.18
5.59
5.02
4.53
4.11
3.71
3.30
2.88
2.50
2.23
2.12
2.08
2.00
1.72
1.12
0.22
-0.88
-1.99
-2.98
-3.81
-4.55
-5.26
-5.98
-6.67
-7.28
-7.80
-8.28
-8.80
-9.40
-9.97
-10.29
-10.13
-9.35
-8.00
-6.28
-4.44
-2.67
-1.04
0.46
1.86
3.14
4.18
4.86
5.07
4.83
4.28
3.64
3.12
2.84
2.78
2.82
2.84
2.78
2.69
2.66
2.74
2.90
3.01
2.91
2.49
1.76
0.84
-0.13
-1.06
-1.91
-2.75
-3.64
-4.60
-5.68
-6.84
-8.05
-9.23
-10.18
-10.68
-10.48
-9.46
-7.68
-5.35
-2.83
-0.42
1.64
3.28
4.49
5.27
5.60
5.39
4.65
3.52
2.31
1.40
1.08
1.38
2.09
2.82
3.16
2.91
2.06
0.79
-0.66
-2.09
-3.39
-4.49
-5.35
-5.95
-6.31
-6.51
-6.67
-6.92
-7.28
-7.77
-8.39
-9.13
-10.08
-11.25
-12.60
-13.96
-15.06
-15.60
-15.40
-14.45
-12.99
-11.43
-10.20
-9.62
-9.81
-10.61
-11.68
-12.63
-13.24
-13.53
-13.85
-14.68
-16.42
-19.12
-22.43
-25.67
-28.16
-29.55
-30.08
-30.46
-31.54
-33.86
-37.43
-41.67
-45.60
-48.09
-48.09
-44.87
-38.18
-28.54
-17.33
-6.66
1.18
4.52
3.06
-1.86
-7.63
-11.19
-10.09
-3.27
8.83
24.52
41.55
57.75
71.50
82.09
89.57
94.57
97.91
100.34
102.34
104.10
105.49
106.22
105.89
104.14
100.76
95.71
89.24
81.88
74.37
67.41
61.51
57.01
54.10
52.78
52.74
53.41
54.11
54.27
53.26
50.55
45.96
39.81
32.86
25.85
19.32
13.54
8.63
4.18
-0.42
-5.64
-11.41
-17.36
-23.19
-28.70
-33.37
-36.32
-37.19
-36.72
-36.79
-39.84
-48.07
-62.78
-83.76
-109.29
-133.26
-148.43
-150.70
-142.11
-128.33
-113.88
-100.14
-86.47
-72.17
-57.62
-44.70
-35.57
-30.96
-29.35
-27.65
-22.93
-13.75
-0.33
15.84
32.32
46.46
56.28
60.86
60.44
55.95
48.78
40.67
33.26
27.31
22.65
19.09
17.03
17.62
21.93
30.09
41.10
53.13
64.03
72.03
76.36
77.10
74.65
69.42
62.05
53.87
46.87
42.48
40.88
41.13
41.64
41.00
38.85
36.05
34.14
34.27
35.97
37.28
37.18
36.17
35.69
36.89
39.99
44.29
48.60
51.04
49.17
43.13
34.80
25.40
14.10
-1.55
-24.74
-51.83
-80.29
-110.13
-139.33
-165.08
-186.08
-203.45
-219.44
-236.05
-254.64
-276.92
-306.73
-342.22
-375.44
-396.07
-395.74
-370.53
-322.03
-256.91
-164.25
-57.84
36.71
102.65
140.60
159.78
168.33
170.52
168.13
162.12
150.90
136.68
124.11
116.39
113.29
112.15
110.39
106.68
100.97
91.70
80.25
69.95
63.19
59.86
58.18
56.35
53.36
49.10
42.53
34.45
26.99
21.75
18.83
17.26
15.93
14.15
11.67
7.87
3.09
-1.49
-4.78
-6.40
-6.51
-5.54
-3.91
-2.05
-0.24
1.28
2.90
5.17
8.46
12.78
17.82
22.97
27.52
30.94
32.98
33.88
34.18
34.48
35.32
37.10
40.07
44.12
48.54
51.83
52.04
47.33
37.00
22.02
4.98
-10.84
-22.70
-29.37
-31.34
-30.15
-27.51
-24.61
-21.93
-19.66
-18.07
-17.71
-19.14
-22.52
-27.21
-31.96
-35.41
-36.63
-35.50
-32.72
-29.43
-26.63
-25.34
-25.65
-27.08
-28.89
-30.47
-31.54
-32.14
-32.47
-32.80
-33.27
-33.88
-34.48
-34.92
-35.01
-34.66
-33.90
-32.88
-31.76
-30.69
-29.62
-28.40
-26.94
-25.18
-23.21
-21.16
-19.11
-17.13
-15.25
-13.44
-11.66
-9.81
-7.71
-5.16
-2.03
1.67
5.76
10.04
14.35
18.65
22.96
27.24
31.24
34.60
36.90
37.88
37.55
36.16
34.10
31.73
29.33
27.02
24.88
22.92
21.15
19.52
17.95
16.29
14.42
12.27
9.88
7.40
5.08
3.15
1.81
1.14
1.08
1.52
2.24
3.04
3.73
4.15
4.24
3.98
3.39
2.55
1.55
0.50
-0.52
-1.42
-2.14
-2.66
-2.95
-3.06
-3.11
-3.33
-3.94
-5.08
-6.74
-8.74
-10.70
-12.21
-12.96
-12.82
-11.90
-10.47
-8.85
-7.24
-5.62
-3.84
-1.69
0.95
3.99
7.17
10.21
12.89
15.18
17.14
18.88
20.47
21.90
23.14
24.21
25.13
25.94
26.67
27.29
27.82
28.32
28.94
29.87
31.23
32.99
34.92
36.69
37.96
38.49
38.28
37.44
36.24
34.94
33.73
32.66
31.68
30.65
29.45
28.00
26.22
24.02
21.27
17.83
13.55
8.39
2.51
-3.71
-9.68
-14.80
-18.55
-20.60
-20.84
-19.28
-16.06
-11.46
-5.89
-0.01
5.43
9.71
12.41
13.55
13.57
13.05
12.53
12.19
11.97
11.63
10.99
9.99
8.68
7.07
5.15
2.98
0.79
-0.97
-1.75
-1.20
0.60
3.11
5.53
7.08
7.34
6.23
4.01
1.01
-2.44
-6.07
-9.60
-12.77
-15.40
-17.41
-18.82
-19.81
-20.59
-21.46
-22.82
-25.11
-28.79
-34.00
-40.41
-47.09
-52.78
-56.20
-56.60
-54.00
-49.22
-43.55
-38.42
-35.07
-34.37
-36.81
-42.42
-50.77
-61.05
-72.12
-82.78
-92.05
-99.41
-104.78
-108.32
-110.20
-110.32
-108.18
-102.87
-93.23
-78.00
-56.35
-28.33
4.71
40.08
74.26
103.67
125.59
138.59
142.60
138.62
128.18
113.10
95.32
76.75
58.96
42.73
27.79
13.06
-2.74
-20.16
-38.42
-55.40
-68.31
-74.73
-73.54
-65.32
-52.06
-36.45
-21.02
-7.52
3.24
11.26
16.89
20.62
22.86
24.08
24.88
26.02
28.24
32.01
37.33
43.73
50.38
56.42
61.09
63.71
63.68
60.43
53.62
43.56
31.45
19.38
9.70
4.19
3.21
5.50
8.68
10.37
9.31
5.79
1.36
-2.11
-3.32
-1.95
1.55
6.48
12.26
18.51
24.75
30.15
33.63
34.19
31.37
25.54
17.77
9.46
1.86
-4.18
-8.30
-10.49
-11.00
-10.18
-8.45
-6.19
-3.71
-1.26
0.98
2.88
4.32
5.16
5.34
4.89
3.98
2.95
2.14
1.84
2.12
2.84
3.75
4.55
5.10
5.36
5.35
5.11
4.63
3.88
2.90
1.81
0.84
0.16
-0.14
-0.18
-0.19
-0.51
-1.40
-2.98
-5.18
-7.74
-10.30
-12.43
-13.79
-14.16
-13.51
-11.98
-9.83
-7.35
-4.78
-2.28
0.06
2.15
3.95
5.43
6.62
7.62
8.60
9.71
11.04
12.57
14.14
15.55
16.63
17.32
17.68
17.85
17.99
18.24
18.64
19.20
19.90
20.71
21.55
22.27
22.67
22.56
21.87
20.70
19.33
18.09
17.19
16.67
16.34
15.97
15.44
14.78
14.23
14.06
14.44
15.34
16.54
17.75
18.72
19.28
19.36
18.89
17.80
15.97
13.31
9.81
5.59
0.89
-3.93
-8.50
-12.48
-15.69
-18.10
-19.88
-21.35
-22.83
-24.62
-26.84
-29.51
-32.50
-35.65
-38.70
-41.33
-43.19
-43.92
-43.32
-41.38
-38.33
-34.57
-30.55
-26.65
-23.16
-20.27
-18.15
-16.90
-16.59
-17.13
-18.26
-19.52
-20.36
-20.33
-19.27
-17.29
-14.82
-12.31
-10.15
-8.48
-7.26
-6.33
-5.57
-4.90
-4.24
-3.48
-2.45
-1.02
0.83
2.92
4.96
6.62
7.70
8.18
8.16
7.84
7.42
7.02
6.72
6.53
6.42
6.30
6.10
5.79
5.43
5.11
4.97
5.04
5.28
5.57
5.77
5.77
5.59
5.33
5.14
5.20
5.62
6.46
7.68
9.18
10.80
12.36
13.69
14.66
15.25
15.48
15.46
15.30
15.04
14.65
14.04
13.13
11.94
10.58
9.24
8.07
7.17
6.49
5.94
5.43
4.91
4.35
3.78
3.15
2.42
1.58
0.63
-0.37
-1.35
-2.23
-2.95
-3.48
-3.81
-4.01
-4.22
-4.58
-5.20
-6.03
-6.88
-7.48
-7.68
-7.53
-7.26
-7.17
-7.41
-7.89
-8.35
-8.51
-8.23
-7.55
-6.63
-5.59
-4.47
-3.24
-1.91
-0.61
0.47
1.14
1.36
1.29
1.15
1.16
1.40
1.81
2.28
2.71
3.05
3.24
3.21
2.88
2.25
1.52
1.07
1.31
2.53
4.68
7.34
9.84
11.53
11.92
10.91
8.71
5.83
2.91
0.56
-0.80
-1.10
-0.61
0.12
0.51
0.15
-1.05
-2.82
-4.76
-6.50
-7.92
-9.09
-10.23
-11.48
-12.82
-14.06
-14.94
-15.25
-14.91
-13.94
-12.45
-10.58
-8.47
-6.31
-4.32
-2.69
-1.52
-0.77
-0.30
0.05
0.40
0.74
1.04
1.24
1.38
1.49
1.60
1.63
1.51
1.13
0.52
-0.23
-0.96
-1.52
-1.83
-1.89
-1.80
-1.68
-1.68
-1.87
-2.22
-2.66
-3.05
-3.32
-3.46
-3.53
-3.62
-3.77
-3.92
-3.97
-3.83
-3.47
-2.96
-2.39
-1.91
-1.61
-1.52
-1.63
-1.85
-2.05
-2.10
-1.90
-1.38
-0.59
0.40
1.46
2.47
3.36
4.10
4.70
5.19
5.65
6.08
6.49
6.84
7.12
7.32
7.50
7.76
8.18
8.82
9.62
10.44
11.09
11.41
11.30
10.80
10.06
9.30
8.71
8.40
8.32
8.28
8.08
7.54
6.65
5.56
4.47
3.50
2.57
1.41
-0.30
-2.70
-5.67
-8.79
-11.53
-13.49
-14.62
-15.18
-15.68
-16.55
-18.03
-20.08
-22.43
-24.74
-26.73
-28.19
-28.95
-28.90
-28.01
-26.33
-24.08
-21.53
-18.90
-16.33
-13.85
-11.44
-9.08
-6.79
-4.57
-2.37
-0.12
2.17
4.35
6.17
7.36
7.81
7.62
7.08
6.50
6.04
5.68
5.28
4.73
3.99
3.16
2.34
1.60
0.89
0.14
-0.70
-1.58
-2.39
-2.99
-3.30
-3.39
-3.38
-3.41
-3.52
-3.62
-3.51
-3.04
-2.16
-0.97
0.31
1.45
2.26
2.70
2.81
2.75
2.67
2.67
2.80
3.04
3.35
3.69
4.07
4.52
5.09
5.73
6.34
6.75
6.83
6.52
5.92
5.24
4.70
4.42
4.39
4.42
4.32
3.94
3.27
2.45
1.65
1.02
0.58
0.27
0.03
-0.14
-0.17
0.03
0.43
0.92
1.29
1.41
1.26
1.01
0.86
1.00
1.43
2.00
2.51
2.80
2.83
2.68
2.44
2.16
1.85
1.47
1.02
0.57
0.21
0.03
0.09
0.38
0.79
1.14
1.24
1.01
0.47
-0.19
-0.67
-0.76
-0.43
0.15
0.63
0.71
0.30
-0.45
-1.22
-1.74
-1.90
-1.76
-1.46
-1.09
-0.64
-0.04
0.79
1.79
2.83
3.79
4.59
5.25
5.83
6.38
6.88
7.29
7.59
7.80
7.99
8.17
8.31
8.34
8.21
7.96
7.72
7.66
7.84
8.17
8.38
8.20
7.44
6.14
4.53
2.94
1.63
0.69
0.03
-0.55
-1.24
-2.16
-3.28
-4.51
-5.71
-6.79
-7.76
-8.65
-9.50
-10.31
-11.00
-11.46
-11.57
-11.27
-10.66
-9.92
-9.29
-8.95
-9.00
-9.35
-9.86
-10.36
-10.73
-10.96
-11.10
-11.21
-11.30
-11.39
-11.41
-11.32
-11.09
-10.72
-10.21
-9.60
-8.95
-8.31
-7.70
-7.11
-6.52
-5.96
-5.51
-5.27
-5.31
-5.58
-5.89
-6.02
-5.85
-5.36
-4.72
-4.12
-3.68
-3.34
-2.92
-2.21
-1.12
0.27
1.79
3.21
4.43
5.43
6.24
6.89
7.33
7.47
7.26
6.75
6.07
5.35
4.72
4.20
3.74
3.31
2.93
2.61
2.39
2.22
2.03
1.80
1.56
1.42
1.46
1.64
1.80
1.72
1.27
0.49
-0.42
-1.22
-1.78
-2.15
-2.53
-3.11
-3.93
-4.87
-5.67
-6.10
-6.05
-5.54
-4.68
-3.59
-2.36
-1.08
0.13
1.17
1.98
2.55
2.95
3.24
3.43
3.48
3.35
3.00
2.50
2.01
1.66
1.52
1.60
1.79
1.98
2.08
2.03
1.83
1.50
1.10
0.68
0.30
-0.03
-0.33
-0.67
-1.07
-1.51
-1.94
-2.28
-2.53
-2.70
-2.86
-3.07
-3.33
-3.58
-3.75
-3.80
-3.72
-3.52
-3.23
-2.85
-2.36
-1.72
-0.95
-0.10
0.74
1.46
1.96
2.16
2.04
1.65
1.07
0.45
-0.02
-0.19
0.03
0.69
1.67
2.83
3.94
4.79
5.22
5.21
4.83
4.28
3.78
3.51
3.55
3.81
4.15
4.40
4.48
4.41
4.28
4.18
4.19
4.35
4.65
5.12
5.77
6.61
7.61
8.68
9.73
10.63
11.35
11.97
12.68
13.76
15.45
17.84
20.77
23.83
26.42
27.93
27.87
26.07
22.68
18.18
13.20
8.33
3.99
0.33
-2.77
-5.58
-8.39
-11.44
-14.89
-18.72
-22.84
-26.93
-30.58
-33.31
-34.76
-34.80
-33.63
-31.68
-29.47
-27.42
-25.71
-24.23
-22.71
-20.87
-18.48
-15.50
-11.93
-7.84
-3.30
1.65
6.88
12.11
16.91
20.75
23.14
23.79
22.72
20.25
16.88
13.20
9.71
6.80
4.68
3.42
2.94
3.01
3.25
3.08
1.86
-1.00
-5.83
-12.51
-20.41
-28.54
-35.82
-41.38
-44.79
-46.08
-45.60
-43.84
-41.19
-37.94
-34.20
-30.06
-25.63
-21.06
-16.52
-12.12
-7.93
-3.90
-0.03
3.66
7.07
9.99
12.22
13.66
14.37
14.56
14.57
14.69
15.08
15.70
16.34
16.75
16.73
16.23
15.30
14.09
12.77
11.51
10.49
9.98
10.19
11.17
12.70
14.29
15.31
15.29
14.11
12.07
9.77
7.81
6.61
6.27
6.62
7.29
7.86
7.98
7.45
6.25
4.61
2.93
1.69
1.24
1.73
3.00
4.75
6.63
8.35
9.71
10.57
10.81
10.34
9.13
7.29
5.10
2.91
1.06
-0.24
-0.98
-1.29
-1.39
-1.47
-1.63
-1.85
-2.04
-2.08
-1.90
-1.44
-0.74
0.16
1.22
2.37
3.55
4.67
5.60
6.15
6.10
5.23
3.42
0.73
-2.51
-5.78
-8.46
-10.07
-10.37
-9.50
-7.83
-5.84
-3.98
-2.52
-1.56
-1.04
-0.81
-0.65
-0.30
0.48
1.88
3.92
6.47
9.29
12.13
14.78
17.04
18.73
19.61
19.47
18.13
15.65
12.27
8.44
4.70
1.50
-0.92
-2.53
-3.53
-4.19
-4.76
-5.38
-6.06
-6.62
-6.79
-6.24
-4.75
-2.25
1.07
4.81
8.37
11.14
12.60
12.45
10.64
7.35
2.97
-1.99
-6.93
-11.24
-14.42
-16.20
-16.55
-15.76
-14.24
-12.46
-10.79
-9.47
-8.62
-8.28
-8.40
-8.89
-9.64
-10.52
-11.46
-12.47
-13.61
-14.98
-16.61
-18.52
-20.71
-23.15
-25.82
-28.63
-31.38
-33.79
-35.51
-36.26
-35.92
-34.51
-32.26
-29.42
-26.29
-23.02
-19.68
-16.20
-12.48
-8.43
-4.07
0.46
4.91
8.98
12.43
15.10
16.95
18.05
18.55
18.68
18.64
18.63
18.75
18.98
19.25
19.39
19.28
18.84
18.07
17.04
15.88
14.74
13.72
12.91
12.30
11.87
11.49
11.10
10.62
10.04
9.39
8.74
8.12
7.54
6.98
6.45
5.92
5.38
4.78
4.04
3.11
2.02
0.94
0.09
-0.36
-0.37
-0.10
0.21
0.35
0.28
0.10
0.04
0.20
0.58
0.96
1.07
0.65
-0.37
-1.81
-3.24
-4.07
-3.70
-1.83
1.40
5.35
9.10
11.75
12.74
11.91
9.52
5.95
1.62
-3.07
-7.67
-11.68
-14.65
-16.33
-16.78
-16.33
-15.34
-14.00
-12.28
-10.03
-7.22
-4.19
-1.52
0.17
0.56
-0.26
-1.78
-3.39
-4.61
-5.26
-5.41
-5.26
-4.90
-4.26
-3.16
-1.46
0.90
3.76
6.78
9.45
11.23
11.64
10.44
7.77
4.20
0.56
-2.29
-3.71
-3.47
-1.73
1.07
4.45
8.04
11.56
14.80
17.50
19.33
19.93
19.02
16.56
12.82
8.46
4.34
1.25
-0.32
-0.34
0.82
2.62
4.64
6.67
8.67
10.58
12.18
13.08
12.90
11.53
9.18
6.44
4.03
2.57
2.33
3.27
5.10
7.52
10.37
13.63
17.34
21.42
25.58
29.36
32.24
33.80
33.89
32.59
30.19
27.14
23.86
20.68
17.69
14.66
11.10
6.42
0.27
-7.25
-15.51
-23.59
-30.59
-35.91
-39.44
-41.43
-42.29
-42.44
-42.15
-41.60
-40.93
-40.20
-39.36
-38.22
-36.48
-33.92
-30.52
-26.59
-22.59
-19.02
-16.15
-13.95
-12.12
-10.27
-8.16
-5.77
-3.29
-1.01
0.90
2.39
3.61
4.74
5.92
7.17
8.40
9.43
10.06
10.16
9.68
8.70
7.46
6.32
5.64
5.72
6.60
8.07
9.67
10.84
11.11
10.35
8.91
7.64
7.68
9.99
14.84
21.45
28.15
32.89
34.09
31.33
25.53
18.57
12.59
9.23
9.27
12.59
18.40
25.44
32.13
36.75
37.75
34.20
26.25
15.15
2.97
-8.06
-16.21
-20.61
-21.22
-18.70
-14.02
-8.38
-3.01
0.96
2.70
1.91
-1.21
-5.96
-11.49
-16.97
-21.77
-25.48
-27.85
-28.79
-28.38
-26.88
-24.72
-22.41
-20.37
-18.86
-18.00
-17.74
-17.98
-18.52
-19.09
-19.42
-19.25
-18.45
-17.10
-15.57
-14.37
-14.10
-15.19
-17.78
-21.65
-26.31
-31.14
-35.60
-39.33
-42.25
-44.49
-46.31
-48.01
-49.74
-51.44
-52.69
-52.71
-50.35
-44.33
-33.66
-18.06
1.61
23.34
44.27
61.44
72.59
76.79
74.69
68.25
60.09
52.74
48.10
46.99
49.13
53.33
57.87
61.03
61.54
58.89
53.37
45.84
37.40
29.12
21.83
16.13
12.41
10.91
11.62
14.13
17.64
20.93
22.61
21.42
16.57
8.03
-3.35
-15.96
-27.68
-36.39
-40.51
-39.35
-33.33
-23.86
-13.01
-3.10
3.72
5.84
2.42
-6.39
-19.47
-34.91
-50.47
-64.05
-74.20
-80.32
-82.50
-81.11
-76.50
-68.78
-58.03
-44.64
-29.59
-14.40
-0.77
9.91
17.02
20.83
22.18
22.14
21.52
20.74
19.85
18.82
17.69
16.70
16.09
15.99
16.28
16.58
16.46
15.65
14.10
12.01
9.61
7.03
4.24
1.17
-2.12
-5.31
-7.86
-9.09
-8.42
-5.66
-1.16
4.13
8.80
11.35
10.72
6.63
-0.16
-8.06
-15.18
-19.80
-20.75
-17.53
-10.18
0.82
14.46
29.08
42.33
51.56
54.68
51.01
41.76
29.71
18.21
9.89
5.74
5.11
6.30
7.65
8.31
8.39
8.57
9.46
11.08
12.82
13.70
12.80
9.67
4.42
-2.36
-9.77
-16.93
-23.12
-27.85
-30.82
-31.83
-30.72
-27.57
-22.72
-16.94
-11.29
-6.84
-4.38
-4.19
-6.09
-9.65
-14.45
-20.15
-26.42
-32.81
-38.76
-43.76
-47.59
-50.61
-53.63
-57.62
-63.11
-69.87
-76.75
-82.03
-83.94
-81.37
-74.23
-63.69
-51.81
-40.98
-33.32
-29.91
-30.34
-32.77
-34.33
-32.12
-24.22
-10.41
7.65
27.02
44.58
57.91
65.89
68.57
66.77
61.59
54.25
46.09
38.70
33.63
31.96
33.75
37.82
42.18
44.74
44.18
40.49
34.74
28.67
23.76
20.79
19.69
19.73
20.05
20.05
19.58
18.96
18.64
18.95
19.90
21.20
22.46
23.50
24.44
25.66
27.44
29.68
31.76
32.80
32.20
30.02
27.18
25.05
24.91
27.34
32.02
37.84
43.42
47.57
49.56
49.26
47.02
43.69
40.43
38.57
39.21
42.70
48.10
53.06
54.28
48.59
34.31
12.22
-14.31
-40.22
-60.47
-71.66
-73.04
-66.53
-55.64
-44.13
-34.81
-28.95
-26.45
-26.35
-27.52
-28.91
-29.64
-28.92
-25.82
-19.53
-9.62
3.47
18.28
32.52
43.58
49.39
48.92
42.44
31.26
17.24
2.20
-12.41
-25.62
-36.85
-45.82
-52.50
-57.15
-60.36
-62.97
-65.93
-69.89
-75.03
-80.82
-86.34
-90.80
-93.85
-95.78
-97.37
-99.51
-102.70
-106.69
-110.09
-110.72
-105.91
-93.13
-70.59
-38.37
1.07
43.14
82.21
113.59
134.70
145.60
148.53
146.89
143.54
140.08
136.89
133.64
130.32
127.15
124.14
120.88
116.54
109.44
97.48
78.79
50.94
15.63
-21.21
-51.99
-71.36
-77.87
-74.00
-64.19
-52.74
-43.27
-37.02
-33.44
-31.20
-30.72
-30.80
-31.38
-32.91
-35.67
-40.87
-49.42
-62.16
-79.02
-98.28
-115.98
-127.23
-127.76
-110.47
-75.31
-28.04
21.76
64.33
92.89
105.31
102.83
86.53
60.48
30.00
0.43
-24.35
-41.52
-49.18
-47.01
-37.44
-24.91
-13.92
-8.33
-9.17
-14.59
-20.73
-23.69
-20.97
-12.30
0.60
15.23
28.15
36.12
37.22
31.50
21.66
12.68
10.10
17.70
35.88
60.14
82.65
95.26
92.68
75.13
48.08
19.89
-2.78
-17.66
-27.91
-38.96
-54.98
-75.84
-96.04
-106.63
-98.74
-69.35
-22.34
32.62
84.93
127.27
154.00
162.03
152.53
130.46
100.84
67.24
30.73
-8.72
-48.33
-81.85
-102.61
-112.45
-109.35
-93.60
-64.25
-26.31
13.55
49.94
80.06
103.85
122.56
137.82
148.09
149.65
137.73
109.86
67.00
13.08
-45.75
-101.92
-146.79
-173.23
-176.44
-155.35
-112.11
-52.43
14.87
79.37
131.49
165.03
177.11
168.27
140.98
98.87
46.00
-13.46
-74.58
-130.88
-174.51
-198.39
-198.49
-175.58
-134.48
-82.38
-26.84
25.64
70.44
104.63
126.00
132.84
123.59
98.63
60.25
11.76
-43.24
-100.57
-154.68
-198.59
-224.94
-229.14
-208.95
-165.53
-104.11
-32.95
39.07
104.43
157.22
192.98
206.33
195.60
163.33
114.98
56.79
-5.31
-66.59
-124.54
-177.87
-227.78
-270.89
-299.68
-306.64
-288.65
-247.81
-190.47
-125.24
-43.46
45.69
124.28
179.11
208.46
217.16
207.31
180.37
136.71
81.46
19.18
-43.79
-101.45
-149.85
-186.51
-206.81
-205.06
-177.41
-124.56
-54.90
21.03
93.62
155.98
195.82
208.83
201.85
185.97
169.41
155.02
144.09
136.88
131.61
123.91
109.96
86.64
54.68
16.49
-23.02
-57.57
-82.19
-95.37
-99.20
-91.57
-78.02
-64.48
-54.15
-46.61
-38.76
-26.67
-8.10
15.93
41.78
62.43
71.31
65.49
47.21
23.45
2.95
-5.84
2.98
31.19
73.41
119.67
158.43
180.13
180.03
159.90
126.61
88.39
57.88
40.92
36.30
39.57
46.64
54.11
62.90
72.98
82.81
90.00
91.40
85.35
73.57
59.98
48.63
42.06
39.33
36.38
26.96
10.66
-13.63
-44.36
-77.80
-109.58
-136.22
-156.77
-172.69
-187.06
-203.74
-226.53
-256.65
-292.40
-329.33
-361.03
-380.93
-383.91
-367.51
-332.89
-284.75
-228.70
-169.67
-110.66
-52.24
6.97
68.88
134.44
201.81
265.30
316.55
346.93
350.58
327.36
283.72
230.94
181.65
145.59
126.76
123.44
130.06
139.72
146.34
145.73
135.75
116.31
89.25
58.19
27.99
3.62
-11.16
-14.86
-9.09
1.99
13.23
20.17
20.29
13.61
2.03
-11.62
-24.66
-35.76
-45.34
-54.82
-65.95
-79.79
-96.41
-115.05
-134.51
-153.32
-171.00
-188.24
-206.28
-226.30
-248.71
-272.71
-296.33
-316.74
-330.05
-334.06
-329.00
-316.62
-299.25
-279.04
-257.78
-236.67
-216.22
-194.21
-169.81
-143.91
-117.46
-90.19
-60.94
-28.64
6.75
44.30
85.65
129.13
170.23
204.99
232.85
256.36
279.87
307.69
343.08
391.03
448.91
506.06
549.05
567.95
559.03
525.41
474.95
391.76
285.41
183.55
107.44
57.87
25.13
-1.83
-26.85
-51.16
-76.43
-97.06
-111.48
-121.33
-128.16
-131.43
-130.14
-124.62
-117.40
-111.55
-106.01
-101.38
-99.89
-102.98
-109.54
-116.83
-122.13
-124.45
-124.68
-123.18
-123.39
-130.79
-150.15
-182.87
-226.27
-273.73
-316.14
-343.85
-348.47
-327.43
-284.87
-229.39
-170.27
-114.31
-64.30
-19.52
22.63
65.10
108.95
153.13
195.02
231.49
259.67
277.49
284.37
281.58
271.80
258.07
242.91
227.67
212.96
199.46
188.47
181.73
180.45
184.37
191.50
198.99
204.46
207.27
208.59
210.52
214.69
221.16
228.30
233.64
235.15
232.22
225.99
218.71
212.81
209.83
209.80
211.08
210.76
205.44
192.27
170.07
140.09
105.97
72.84
45.44
26.28
14.55
6.51
-2.84
-17.47
-38.80
-65.43
-94.26
-122.37
-148.31
-172.47
-196.30
-221.45
-248.84
-278.49
-309.51
-340.22
-368.23
-390.72
-405.02
-409.37
-403.68
-389.46
-369.30
-345.68
-320.05
-292.67
-263.26
-232.24
-201.58
-174.77
-155.51
-146.09
-145.97
-151.72
-158.35
-161.22
-157.89
-148.91
-137.32
-127.37
-123.18
-127.72
-142.13
-165.34
-193.80
-222.13
-244.41
-256.02
-255.09
-242.77
-222.12
-196.17
-166.66
-133.80
-97.52
-58.76
-20.03
15.27
44.53
67.33
85.85
104.06
126.39
156.32
195.31
242.01
291.90
337.78
371.26
384.97
374.96
342.20
292.36
234.14
176.56
126.70
88.47
62.77
48.39
43.09
44.20
48.85
54.00
56.74
54.75
46.98
34.03
18.08
2.41
-9.77
-16.52
-17.91
-16.03
-14.14
-15.40
-21.53
-32.17
-45.05
-57.01
-65.36
-68.85
-68.20
-65.46
-63.15
-63.12
-65.85
-70.39
-74.55
-75.46
-70.15
-56.56
-34.59
-6.93
21.03
42.61
52.19
47.53
30.69
7.15
-16.71
-36.07
-48.93
-55.76
-58.05
-57.02
-53.26
-47.33
-40.52
-34.88
-32.65
-35.14
-42.24
-52.57
-64.23
-75.59
-85.80
-94.73
-102.79
-110.83
-119.87
-130.74
-143.48
-156.67
-167.46
-172.22
-167.86
-153.13
-129.07
-98.50
-64.62
-29.70
5.60
41.62
78.53
115.27
149.42
178.00
198.70
210.70
214.62
211.84
203.71
191.28
175.58
158.00
140.44
124.81
112.32
103.06
96.21
90.77
86.20
82.76
81.08
81.62
84.26
88.41
93.34
98.63
104.12
109.55
114.16
116.62
115.50
110.38
101.88
91.62
81.82
74.74
71.96
73.92
79.84
88.04
96.62
103.47
106.24
102.77
91.43
71.37
42.66
6.50
-34.62
-76.04
-112.59
-140.02
-155.87
-159.89
-154.13
-142.40
-128.99
-117.33
-106.98
-97.10
-88.21
-81.90
-79.18
-79.58
-81.18
-81.09
-76.27
-60.04
-30.05
9.38
49.88
84.18
108.59
122.82
128.96
130.36
137.82
157.79
188.48
223.08
256.00
284.85
309.06
328.50
343.03
362.27
391.60
427.63
462.21
490.06
510.82
526.82
540.93
494.74
368.93
195.63
28.26
-102.84
-194.89
-256.52
-296.94
-323.04
-339.77
-341.42
-326.20
-300.45
-274.43
-254.52
-241.58
-233.59
-228.28
-224.21
-213.71
-193.65
-168.58
-147.05
-134.88
-132.72
-137.56
-144.90
-150.74
-148.46
-136.26
-118.61
-102.76
-93.30
-90.27
-90.82
-91.56
-90.32
-84.37
-73.58
-59.89
-46.42
-35.63
-28.80
-26.41
-28.01
-31.98
-34.79
-33.16
-25.70
-13.63
-0.04
11.57
18.73
20.81
19.05
15.56
12.22
10.15
9.49
9.86
11.03
13.03
15.88
19.11
21.66
22.17
19.73
14.23
6.37
-2.36
-10.29
-16.13
-19.29
-19.83
-18.01
-14.12
-7.66
0.58
9.01
15.53
18.04
14.91
5.24
-10.83
-31.06
-51.40
-67.55
-76.70
-78.48
-74.35
-66.51
-57.35
-49.12
-43.55
-41.41
-41.94
-42.23
-37.73
-24.03
0.42
32.26
63.97
86.46
92.96
81.90
57.41
26.88
-2.59
-26.51
-43.08
-50.97
-47.99
-31.94
-3.05
33.80
69.53
94.10
101.90
92.48
71.70
48.49
30.33
20.43
17.49
17.79
17.94
16.49
13.68
10.66
8.29
6.76
5.94
5.58
5.68
6.38
7.66
9.12
10.25
10.48
9.46
7.19
4.07
0.66
-2.27
-4.16
-4.91
-4.95
-5.17
-6.69
-10.54
-16.19
-22.92
-29.51
-34.64
-37.42
-37.55
-35.39
-31.60
-26.52
-19.73
-10.18
3.33
21.16
42.02
62.74
78.84
85.74
79.98
60.18
27.01
-16.63
-65.97
-114.56
-154.94
-179.90
-184.19
-165.98
-126.92
-71.76
-7.12
59.51
120.58
169.03
199.13
207.54
194.36
163.87
122.96
78.60
35.61
-4.06
-40.43
-73.95
-104.26
-129.91
-147.90
-155.63
-152.56
-140.64
-123.53
-105.52
-90.69
-81.75
-80.33
-83.79
-86.84
-83.46
-68.99
-41.20
-1.62
44.01
87.46
117.79
129.19
120.57
94.56
55.83
10.09
-37.26
-75.16
-93.80
-97.34
-93.30
-87.83
-83.04
-77.60
-69.71
-54.66
-29.21
8.80
53.35
100.77
148.65
197.76
245.59
292.29
337.12
364.28
391.03
406.00
401.99
375.30
327.52
264.78
196.12
126.48
59.90
0.96
-53.07
-102.94
-149.60
-193.98
-237.79
-282.81
-334.34
-391.50
-444.55
-484.10
-499.64
-485.57
-442.96
-379.29
-279.43
-157.63
-44.81
37.60
86.90
113.96
129.82
141.05
149.53
154.35
149.25
132.12
107.19
78.19
49.41
24.08
4.58
-7.78
-12.51
-13.42
-8.31
1.22
11.35
18.13
19.52
17.11
14.21
16.38
25.32
40.51
58.69
75.21
85.39
86.44
78.61
64.48
47.25
30.41
16.96
7.82
2.36
-1.35
-5.63
-12.18
-21.81
-32.98
-43.38
-51.12
-55.97
-58.70
-61.11
-65.40
-73.33
-85.72
-100.09
-111.78
-116.38
-111.27
-95.60
-70.21
-37.35
2.86
42.11
71.08
86.66
91.40
88.98
82.12
72.61
62.00
51.72
42.57
35.95
33.04
33.41
35.30
36.77
36.60
34.49
30.91
26.41
22.49
20.73
21.60
24.23
27.17
29.08
28.90
26.51
22.63
19.34
18.87
21.82
26.46
29.36
27.01
17.28
0.83
-19.22
-38.46
-52.35
-57.77
-53.40
-39.13
-15.76
14.26
46.45
74.26
90.51
89.97
71.71
40.06
2.81
-29.52
-50.18
-57.82
-55.69
-48.88
-41.47
-35.17
-29.73
-24.32
-18.76
-14.23
-12.13
-13.08
-16.39
-20.39
-23.23
-23.72
-21.84
-18.52
-15.41
-13.86
-14.30
-16.21
-18.34
-19.40
-18.59
-15.94
-12.15
-8.45
-5.85
-4.83
-5.26
-6.71
-8.68
-10.73
-12.40
-13.03
-11.87
-8.29
-2.13
5.88
14.52
22.12
27.27
29.24
28.17
24.87
20.37
15.66
11.37
7.80
5.00
2.84
1.22
0.04
-0.76
-1.19
-1.29
-1.23
-1.19
-1.36
-1.86
-2.63
-3.44
-4.01
-4.08
-3.40
-1.75
1.05
5.08
10.17
15.83
21.33
25.76
28.36
28.73
27.05
24.05
20.63
17.50
14.98
13.03
11.42
9.88
8.24
6.50
4.78
3.10
1.47
-0.05
-1.25
-1.74
-1.19
0.45
3.04
6.04
8.53
9.38
7.88
4.51
0.94
-0.85
0.41
4.75
11.46
18.07
21.33
18.84
10.85
0.23
-9.13
-14.24
-13.62
-7.63
1.58
10.76
17.09
20.47
23.27
27.93
34.95
43.60
52.89
62.05
70.24
76.36
79.79
79.92
75.70
66.95
57.90
56.94
76.45
120.64
175.87
219.17
235.00
226.19
202.14
173.18
146.63
123.52
101.73
76.38
45.77
12.89
-17.80
-44.49
-68.07
-91.45
-117.95
-149.55
-187.50
-226.40
-256.42
-270.09
-267.32
-253.53
-235.89
-219.78
-207.20
-201.20
-199.44
-196.63
-190.38
-184.02
-183.04
-191.23
-209.40
-236.20
-274.70
-322.09
-368.95
-404.10
-419.39
-410.40
-376.79
-322.74
-222.68
-88.70
41.21
136.45
192.63
220.54
231.94
234.14
230.57
223.13
208.51
188.84
170.54
158.74
153.41
151.03
147.69
141.31
132.15
118.17
102.29
90.07
85.69
88.25
94.08
99.35
101.99
102.12
98.94
95.41
96.03
103.90
118.92
138.02
156.19
167.58
166.89
144.65
103.47
52.97
5.05
-31.01
-51.42
-58.18
-57.09
-54.49
-55.01
-59.35
-64.65
-67.97
-67.47
-62.48
-53.30
-40.79
-26.23
-10.76
3.22
14.09
21.52
26.20
28.77
29.04
25.80
17.55
3.55
-14.71
-34.79
-53.54
-68.10
-76.80
-79.51
-77.52
-72.54
-65.95
-58.30
-49.51
-39.70
-29.71
-21.01
-15.08
-12.71
-13.52
-16.16
-18.68
-19.66
-18.44
-15.47
-11.86
-8.74
-6.77
-6.12
-6.61
-7.98
-9.58
-11.25
-13.32
-16.26
-20.05
-24.11
-27.52
-29.38
-28.78
-24.18
-15.15
-2.71
11.25
24.79
36.25
44.33
48.18
48.30
47.70
48.92
53.16
60.37
70.11
81.58
93.40
103.88
112.60
121.85
132.65
144.11
153.91
160.24
162.48
161.05
157.44
141.44
112.32
77.23
45.95
23.99
12.39
8.92
11.64
11.97
3.10
-16.88
-47.62
-86.15
-128.42
-168.76
-196.51
-204.89
-196.96
-182.22
-168.82
-160.64
-154.85
-147.03
-129.56
-99.03
-57.75
-12.11
31.70
70.73
97.20
106.19
99.85
85.77
70.55
56.38
42.13
26.95
12.08
-0.32
-7.49
-8.29
-3.71
3.20
8.71
10.33
7.88
3.07
-2.08
-5.29
-5.41
-2.70
1.32
4.79
6.48
6.25
4.63
2.32
0.39
-0.43
0.03
1.30
2.73
3.92
4.96
6.40
8.77
12.33
16.67
19.94
19.96
15.48
7.00
-3.24
-12.28
-17.80
-19.02
-16.87
-13.28
-9.94
-7.56
-5.75
-3.84
-1.65
0.31
1.17
0.39
-1.87
-4.63
-6.75
-7.32
-6.42
-5.09
-4.86
-6.97
-11.70
-18.04
-23.84
-26.66
-24.53
-17.03
-5.54
7.28
18.38
25.21
26.12
20.66
8.31
-9.62
-30.57
-51.09
-67.31
-75.69
-74.08
-62.70
-43.93
-21.97
-1.07
15.20
25.06
28.97
29.26
28.94
30.33
35.13
43.33
53.91
64.45
71.75
72.92
66.21
51.32
28.98
1.76
-28.14
-58.81
-86.87
-109.80
-127.38
-140.24
-147.13
-144.40
-126.39
-93.38
-46.16
10.17
67.70
119.06
160.24
191.67
206.19
204.07
190.07
170.14
147.35
121.90
93.42
63.04
33.51
7.70
-11.45
-23.85
-31.87
-39.40
-49.13
-61.14
-73.47
-83.69
-90.44
-92.99
-92.11
-89.16
-85.37
-81.34
-77.24
-73.39
-70.53
-68.36
-66.36
-63.66
-59.03
-51.29
-39.55
-23.50
-3.66
18.68
41.51
62.47
78.89
88.29
89.03
81.10
66.27
47.72
29.03
13.09
1.40
-5.94
-9.85
-11.46
-11.47
-10.08
-7.24
-3.13
1.60
5.91
8.94
10.35
10.46
9.89
9.12
8.26
7.00
4.91
1.73
-2.31
-6.54
-10.09
-12.22
-12.60
-11.33
-8.93
-5.95
-2.81
0.40
3.81
7.46
11.00
13.64
14.41
12.72
8.72
3.47
-1.53
-4.96
-6.27
-5.88
-4.84
-4.27
-4.81
-6.49
-8.81
-11.09
-12.80
-13.67
-13.71
-13.07
-12.04
-11.01
-10.46
-10.86
-12.51
-15.35
-18.85
-22.15
-24.17
-24.00
-21.08
-15.35
-7.25
2.46
12.80
22.83
31.68
38.69
43.53
46.19
46.98
46.33
44.66
42.21
39.05
35.22
30.86
26.29
21.93
18.11
14.99
12.49
10.42
8.61
6.95
5.41
3.90
2.28
0.40
-1.74
-3.91
-5.79
-7.06
-7.65
-7.73
-7.64
-7.72
-8.16
-8.94
-9.89
-10.73
-11.17
-10.82
-9.34
-6.49
-2.29
2.83
8.07
12.48
15.19
15.73
14.17
10.99
6.89
2.60
-1.31
-4.48
-6.72
-8.00
-8.47
-8.45
-8.33
-8.45
-8.95
-9.66
-10.21
-10.23
-9.58
-8.41
-7.11
-6.13
-5.80
-6.17
-7.06
-8.13
-9.03
-9.52
-9.53
-9.19
-8.72
-8.31
-8.03
-7.80
-7.46
-6.90
-6.19
-5.48
-4.91
-4.45
-3.91
-3.05
-1.77
-0.29
0.90
1.33
0.77
-0.60
-2.30
-3.80
-4.77
-5.16
-5.10
-4.76
-4.15
-3.20
-1.91
-0.46
0.83
1.59
1.65
1.14
0.39
-0.24
-0.57
-0.64
-0.59
-0.58
-0.65
-0.76
-0.92
-1.25
-1.95
-3.16
-4.88
-6.83
-8.60
-9.80
-10.16
-9.69
-8.51
-6.89
-5.01
-3.08
-1.22
0.37
1.51
2.04
1.87
1.04
-0.28
-1.87
-3.50
-4.96
-6.13
-6.98
-7.58
-8.07
-8.63
-9.42
-10.48
-11.70
-12.82
-13.55
-13.74
-13.48
-13.15
-13.30
-14.39
-16.55
-19.52
-22.66
-25.26
-26.74
-26.86
-25.67
-23.34
-20.08
-16.09
-11.59
-6.88
-2.28
1.99
5.96
9.84
13.87
18.10
22.25
25.83
28.35
29.61
29.77
29.18
28.18
26.90
25.27
23.19
20.77
18.33
16.31
15.05
14.54
14.47
14.35
13.76
12.53
10.81
8.95
7.33
6.28
5.91
6.21
7.00
7.99
8.87
9.40
9.50
9.23
8.80
8.35
7.91
7.33
6.37
4.81
2.62
-0.03
-2.80
-5.31
-7.31
-8.61
-9.17
-8.98
-8.06
-6.51
-4.53
-2.48
-0.70
0.56
1.29
1.66
1.92
2.21
2.47
2.54
2.30
1.80
1.28
0.96
0.88
0.86
0.58
-0.14
-1.23
-2.32
-2.97
-2.88
-2.09
-0.89
0.27
1.06
1.31
1.01
0.22
-0.94
-2.37
-3.88
-5.21
-6.15
-6.58
-6.66
-6.71
-7.14
-8.10
-9.49
-10.90
-11.83
-12.00
-11.40
-10.28
-8.92
-7.47
-5.90
-4.13
-2.26
-0.58
0.46
0.49
-0.54
-2.33
-4.31
-5.91
-6.71
-6.60
-5.71
-4.33
-2.84
-1.59
-0.80
-0.54
-0.67
-0.89
-0.86
-0.42
0.38
1.28
1.98
2.33
2.41
2.41
2.49
2.63
2.59
2.16
1.24
-0.02
-1.31
-2.33
-2.96
-3.24
-3.25
-3.03
-2.50
-1.61
-0.42
0.83
1.84
2.40
2.57
2.60
2.82
3.46
4.51
5.76
6.95
7.85
8.33
8.40
8.12
7.62
7.06
6.54
6.14
5.87
5.63
5.31
4.80
4.01
2.85
1.27
-0.77
-3.21
-5.88
-8.46
-10.57
-11.90
-12.27
-11.62
-10.03
-7.62
-4.60
-1.31
1.72
3.89
4.66
3.82
1.61
-1.27
-3.92
-5.52
-5.64
-4.34
-2.05
0.56
2.91
4.51
5.10
4.61
3.10
0.78
-2.02
-4.84
-7.17
-8.55
-8.73
-7.84
-6.34
-4.90
-4.14
-4.38
-5.50
-7.03
-8.38
-9.15
-9.27
-8.92
-8.37
-7.76
-7.15
-6.54
-6.00
-5.73
-6.00
-7.09
-9.10
-11.82
-14.70
-16.96
-17.75
-16.40
-12.62
-6.67
0.62
8.18
15.04
20.63
24.70
27.58
29.99
32.78
36.37
40.55
44.55
47.51
49.14
49.66
50.15
52.03
56.05
61.21
64.67
62.67
52.16
32.10
3.25
-31.46
-67.53
-99.71
-123.22
-134.58
-132.20
-116.94
-92.25
-64.68
-41.39
-27.62
-24.95
-31.46
-43.26
-56.35
-68.25
-72.68
-66.98
-53.21
-36.59
-21.41
-8.96
1.26
9.72
16.32
20.89
22.82
22.43
21.00
20.09
20.46
21.64
22.51
22.22
20.77
18.29
15.33
12.68
10.99
10.27
9.98
9.38
7.93
5.46
1.87
-2.33
-5.74
-6.47
-3.09
4.26
13.76
22.58
28.20
29.46
27.21
23.68
21.33
21.49
23.93
27.51
31.17
34.34
36.82
38.40
38.39
36.11
31.06
23.73
15.63
8.86
5.17
5.07
7.88
11.59
14.16
13.87
10.36
4.69
-1.06
-5.11
-6.47
-5.38
-3.42
-2.47
-4.61
-11.00
-21.59
-35.26
-50.07
-63.16
-70.52
-69.23
-56.38
-31.77
1.81
39.08
73.71
100.43
116.76
123.10
119.42
107.97
88.14
58.80
21.65
-16.81
-46.66
-59.12
-52.38
-31.96
-8.53
6.35
6.38
-6.65
-24.74
-38.65
-43.00
-38.68
-31.07
-26.04
-26.71
-31.57
-35.88
-34.78
-26.28
-11.65
3.97
15.10
18.51
14.36
6.06
-1.64
-4.62
-0.70
10.07
25.59
42.15
55.46
61.21
56.30
40.11
15.21
-13.35
-40.03
-59.69
-70.14
-72.88
-71.04
-66.86
-60.81
-52.11
-40.43
-27.37
-16.06
-9.99
-11.20
-19.36
-31.81
-44.17
-51.21
-48.18
-33.27
-7.29
25.24
57.46
82.69
96.90
100.01
93.97
84.61
76.49
71.21
67.14
61.12
50.51
34.65
15.11
-5.28
-23.37
-37.29
-46.37
-51.35
-53.22
-52.73
-50.31
-45.39
-38.04
-29.14
-20.75
-15.01
-13.38
-15.81
-20.77
-25.91
-29.09
-29.29
-26.77
-23.09
-20.01
-19.05
-20.68
-24.21
-28.12
-30.74
-31.15
-29.52
-27.25
-26.09
-27.77
-33.08
-41.44
-50.92
-58.87
-62.75
-60.96
-53.39
-41.16
-26.99
-14.35
-6.37
-4.60
-8.30
-14.50
-19.04
-20.74
-18.86
-15.26
-13.93
-19.28
-33.87
-56.99
-84.69
-111.22
-130.99
-139.89
-136.62
-122.53
-100.60
-74.34
-46.73
-19.48
7.36
34.89
64.69
97.06
130.51
162.01
188.04
205.53
212.63
208.87
195.24
174.62
151.58
132.25
122.69
126.56
142.89
165.68
185.92
195.39
190.46
173.30
150.13
127.58
109.26
94.64
80.66
64.60
46.24
28.23
14.28
6.79
5.43
7.40
9.14
8.14
3.89
-2.33
-8.35
-12.40
-14.05
-14.43
-15.64
-19.84
-28.13
-40.09
-53.90
-67.28
-78.61
-87.61
-95.01
-101.58
-106.96
-109.29
-106.30
-96.82
-81.66
-63.41
-45.25
-29.38
-15.81
-2.47
13.33
32.58
53.18
70.21
77.66
70.77
48.26
13.50
-26.06
-61.30
-85.05
-94.48
-91.17
-79.65
-64.96
-50.31
-35.76
-18.95
2.19
26.64
49.92
66.11
70.81
62.68
43.87
18.83
-9.71
-36.93
-58.04
-72.18
-82.70
-93.07
-103.80
-111.43
-112.24
-100.38
-73.50
-34.74
8.16
46.24
73.16
86.25
84.55
70.88
50.49
28.08
6.04
-15.79
-38.07
-60.14
-81.15
-100.21
-113.41
-117.67
-113.52
-105.01
-96.37
-91.50
-85.05
-71.03
-46.23
-10.72
33.04
78.94
120.66
149.73
160.42
154.00
137.14
117.97
102.01
90.39
80.38
68.14
50.90
28.96
5.75
-14.80
-29.45
-37.73
-40.46
-39.62
-37.45
-35.64
-34.42
-32.68
-29.66
-25.42
-20.87
-17.30
-16.02
-17.65
-21.77
-26.62
-29.64
-29.17
-25.30
-19.70
-14.49
-11.19
-9.84
-9.15
-7.19
-2.31
5.44
14.37
22.04
26.59
27.42
25.39
22.24
20.02
20.63
24.49
30.08
34.56
35.19
30.94
23.20
15.35
11.20
13.76
23.29
37.37
52.03
63.33
68.79
67.44
59.20
41.30
13.97
-18.38
-48.35
-69.93
-81.40
-84.76
-84.19
-83.85
-86.14
-90.15
-92.59
-90.39
-80.07
-60.99
-35.29
-7.35
17.58
35.09
43.49
41.00
30.33
16.95
5.75
-0.47
-1.46
1.44
6.43
12.40
18.72
25.53
32.66
39.12
43.83
46.05
45.60
42.79
39.20
34.90
29.77
23.21
14.70
4.87
-4.32
-10.22
-10.92
-6.15
2.39
11.95
19.35
22.33
20.48
14.98
7.77
0.65
-5.04
-8.27
-8.51
-6.17
-2.50
0.75
1.78
-0.42
-5.32
-10.31
-11.10
-3.96
11.95
33.74
55.62
70.76
73.59
61.63
34.54
-1.78
-36.89
-61.71
-73.35
-74.66
-70.49
-64.51
-58.15
-51.19
-42.76
-33.17
-24.25
-18.18
-15.97
-17.06
-19.73
-21.90
-22.09
-19.58
-15.01
-10.13
-6.80
-6.00
-7.51
-10.24
-12.82
-14.13
-13.51
-11.24
-8.46
-6.46
-6.05
-7.18
-9.14
-11.03
-12.28
-12.80
-13.04
-13.41
-13.68
-12.74
-9.07
-1.62
9.37
22.34
34.92
44.70
50.08
50.52
46.57
39.54
31.34
23.80
18.80
17.61
20.46
26.23
32.54
36.43
35.33
27.99
15.02
-1.31
-17.70
-31.06
-39.50
-43.09
-43.66
-43.96
-46.93
-53.47
-62.38
-70.34
-72.88
-66.29
-49.52
-25.06
1.82
25.05
39.94
45.67
44.73
40.87
36.90
33.50
29.76
24.71
18.65
13.41
11.26
13.32
18.70
24.89
28.96
28.86
24.68
18.41
13.07
11.31
14.07
20.25
27.20
31.92
32.52
29.04
23.27
18.00
15.82
17.97
24.17
32.76
41.14
46.18
44.84
34.66
14.65
-13.69
-46.00
-75.75
-96.06
-102.28
-94.22
-75.60
-52.77
-31.73
-15.75
-4.89
2.79
9.10
14.45
17.98
18.86
17.55
16.14
17.16
21.62
27.79
31.58
28.66
16.82
-2.49
-24.64
-43.77
-55.10
-57.09
-51.17
-41.92
-34.13
-31.15
-33.89
-40.84
-48.85
-53.22
-49.83
-36.31
-13.35
15.24
43.26
64.19
73.55
70.47
57.72
40.22
22.86
8.77
-1.02
-7.07
-10.35
-11.40
-10.12
-6.48
-0.94
5.09
9.34
9.58
4.87
-3.63
-12.84
-18.81
-18.55
-11.45
0.40
13.19
23.10
27.97
27.83
24.43
20.00
16.20
13.61
11.95
10.68
9.51
8.52
8.00
8.02
8.43
8.88
9.03
8.72
7.96
6.90
5.62
4.12
2.26
-0.10
-3.03
-6.37
-9.78
-12.76
-14.82
-15.70
-15.45
-14.36
-12.75
-10.88
-8.83
-6.61
-4.20
-1.71
0.71
2.81
4.34
5.14
5.14
4.36
2.97
1.22
-0.64
-2.39
-3.78
-4.48
-3.94
-1.57
2.93
9.29
16.58
23.40
28.47
30.92
30.66
28.26
24.65
20.74
17.28
14.73
13.26
13.23
14.58
16.70
18.61
19.25
17.91
14.52
9.69
4.51
0.12
-2.73
-3.90
-3.76
-2.99
-2.28
-2.09
-2.64
-3.96
-6.03
-8.89
-12.50
-16.64
-20.96
-25.02
-28.44
-30.92
-32.19
-31.97
-30.00
-26.17
-20.69
-14.16
-7.40
-1.27
3.62
7.02
9.08
10.12
10.50
10.52
10.32
9.94
9.34
8.48
7.39
6.22
5.21
4.55
4.42
4.89
5.94
7.40
8.97
10.24
10.75
10.05
7.73
3.74
-1.54
-7.22
-12.24
-15.73
-17.39
-17.60
-17.21
-17.31
-18.50
-20.70
-23.21
-25.32
-26.75
-27.69
-28.41
-28.49
-27.21
-23.31
-15.73
-4.64
7.58
16.61
17.69
7.60
-13.92
-45.45
-83.96
-125.43
-165.50
-199.90
-224.30
-234.84
-228.92
-205.91
-169.47
-125.10
-77.15
-27.00
26.78
86.56
151.56
216.22
273.66
313.52
327.69
314.44
278.96
230.48
177.90
127.29
77.53
34.79
3.93
-14.91
-23.85
-24.21
-16.95
-4.28
10.86
25.96
40.04
51.04
57.19
57.94
54.60
49.82
46.53
47.90
56.69
74.06
96.78
119.68
138.26
150.82
158.22
159.93
156.47
149.73
141.83
132.45
122.49
112.99
105.51
101.18
94.27
80.34
59.94
37.41
16.51
-0.17
-11.20
-16.45
-17.86
-28.07
-56.06
-100.80
-154.18
-208.73
-259.91
-305.81
-346.44
-383.29
-429.69
-492.61
-566.57
-639.30
-702.89
-755.57
-798.43
-831.45
-781.24
-622.53
-397.04
-173.21
8.50
138.95
224.14
274.81
302.29
316.42
313.09
291.28
259.49
232.88
221.05
226.67
246.85
275.18
303.11
313.53
296.48
250.44
190.78
135.15
95.84
76.97
75.15
82.39
84.94
75.15
54.97
34.44
22.23
22.18
33.13
50.47
68.03
77.54
74.65
59.77
39.64
21.78
11.71
11.33
18.79
29.31
36.18
33.93
18.99
-6.59
-37.90
-68.89
-93.72
-107.70
-108.50
-96.15
-65.37
-25.01
13.29
41.83
58.80
66.19
66.92
62.53
53.99
42.55
29.35
18.21
13.53
17.83
30.38
47.04
60.98
65.94
57.26
33.39
-1.29
-38.18
-68.12
-84.94
-85.40
-73.88
-57.85
-43.75
-34.87
-29.87
-25.17
-18.11
-8.39
1.90
9.67
12.93
10.87
3.33
-7.99
-19.73
-27.42
-25.72
-11.07
16.58
53.42
91.52
120.66
132.27
122.35
92.71
50.25
3.68
-38.12
-66.89
-77.06
-66.79
-38.23
2.56
46.28
82.55
102.23
100.79
80.30
46.66
6.34
-35.72
-77.36
-119.43
-158.57
-192.22
-216.54
-225.69
-215.46
-185.73
-140.24
-85.23
-27.57
27.30
74.86
106.57
121.66
125.82
122.84
111.91
91.27
62.43
31.34
5.73
-7.63
-5.04
10.95
31.83
47.39
49.96
37.02
12.06
-17.25
-41.61
-52.90
-48.46
-32.06
-11.16
6.78
17.28
19.96
17.30
12.44
8.03
4.59
1.07
-3.17
-7.28
-9.33
-7.85
-2.99
3.18
7.97
9.07
5.46
-2.09
-11.53
-20.45
-27.00
-30.08
-29.71
-26.63
-22.13
-17.79
-14.90
-13.92
-14.14
-13.85
-10.66
-3.21
8.64
23.53
38.92
51.89
60.02
62.13
57.05
47.32
35.75
24.71
15.77
9.46
5.62
3.81
3.61
4.65
6.65
8.97
10.94
12.15
12.61
12.80
13.51
15.36
18.61
22.17
24.15
22.68
16.72
6.66
-5.64
-17.60
-26.81
-31.87
-32.74
-30.58
-27.11
-23.92
-21.92
-21.28
-21.56
-22.17
-22.59
-22.70
-22.71
-23.04
-23.98
-25.52
-27.34
-28.97
-30.09
-30.74
-31.35
-32.44
-34.28
-36.73
-39.15
-40.58
-39.99
-36.47
-29.34
-18.69
-5.23
9.82
24.98
38.78
49.84
56.95
59.25
56.48
49.17
38.76
27.35
17.10
9.60
5.42
4.09
4.44
5.12
4.96
3.16
-0.81
-7.28
-16.25
-27.20
-39.10
-50.68
-60.78
-68.62
-73.84
-76.40
-76.33
-73.63
-68.29
-60.54
-50.97
-40.65
-30.77
-22.25
-15.64
-11.10
-8.43
-7.03
-5.96
-4.03
-0.05
6.82
17.09
30.07
43.83
55.80
63.88
67.21
66.31
62.70
58.34
55.79
56.48
60.08
64.96
69.31
71.93
72.46
71.32
69.43
69.24
72.15
77.67
83.83
88.75
91.63
92.86
93.59
95.25
100.76
111.39
125.77
140.36
151.24
155.29
150.51
136.23
102.42
48.79
-13.87
-69.85
-109.17
-131.15
-140.74
-143.89
-145.06
-146.45
-146.50
-143.11
-134.84
-120.92
-100.95
-75.68
-48.23
-24.05
-8.94
-4.95
-10.54
-21.42
-32.46
-39.46
-40.67
-36.94
-30.47
-23.21
-14.86
-4.50
7.81
20.37
30.91
36.67
36.19
29.90
20.02
10.07
3.03
0.11
0.54
2.38
3.61
3.06
0.67
-2.67
-5.61
-7.15
-7.18
-6.35
-5.61
-5.61
-6.31
-6.95
-6.36
-3.56
1.58
8.00
13.83
17.03
16.35
11.83
4.73
-3.22
-10.03
-14.33
-15.78
-14.97
-12.94
-10.71
-8.98
-8.07
-8.04
-8.70
-9.61
-10.21
-9.83
-8.01
-4.66
-0.13
4.93
9.79
13.86
16.76
18.30
18.55
17.81
16.57
15.27
14.20
13.40
12.77
12.23
11.85
11.88
12.50
13.63
14.90
15.78
15.89
15.12
13.56
11.44
9.01
6.59
4.51
3.20
3.01
3.89
5.29
6.36
6.39
5.21
3.23
1.05
-0.87
-2.52
-4.34
-6.86
-10.35
-14.57
-18.89
-22.60
-25.33
-26.86
-26.97
-25.46
-22.25
-17.58
-12.13
-6.99
-3.31
-2.25
-3.97
-7.44
-11.11
-13.78
-15.00
-15.01
-14.42
-13.75
-14.11
-15.90
-18.67
-21.83
-25.22
-28.99
-33.15
-37.42
-41.35
-45.87
-51.25
-56.61
-60.76
-63.19
-64.28
-64.86
-65.88
-68.03
-73.24
-81.70
-91.41
-99.49
-103.86
-103.62
-98.65
-89.07
-64.57
-24.38
22.31
64.21
95.88
117.29
130.21
136.04
135.56
129.33
116.43
97.57
75.65
54.32
36.25
22.72
13.75
8.62
6.26
4.23
1.26
-2.17
-4.67
-5.88
-5.14
-2.71
0.76
4.59
7.69
9.82
11.59
13.41
14.60
13.69
9.12
0.93
-9.48
-19.78
-27.42
-30.66
-29.47
-25.27
-20.01
-15.31
-11.80
-9.43
-8.10
-7.91
-9.07
-11.56
-14.69
-16.92
-16.41
-11.66
-2.47
9.80
22.65
33.46
40.54
43.84
44.49
43.99
43.31
42.49
40.91
37.94
33.73
28.60
23.40
18.81
14.98
11.52
7.80
3.38
-1.69
-6.88
-11.46
-14.82
-16.74
-17.44
-17.33
-16.77
-15.92
-14.79
-13.31
-11.52
-9.63
-8.02
-7.05
-6.98
-7.86
-9.64
-12.19
-15.20
-18.35
-21.15
-23.05
-23.32
-21.18
-16.00
-7.30
3.80
15.50
25.75
32.93
36.23
35.91
32.98
28.88
24.88
21.85
20.23
20.02
20.86
22.16
23.38
24.05
24.00
23.33
22.34
21.60
21.70
23.22
26.43
30.74
34.51
35.24
30.47
18.97
1.78
-18.08
-36.60
-50.45
-58.20
-60.56
-59.47
-56.87
-54.16
-50.82
-46.27
-40.32
-33.47
-26.70
-20.93
-16.47
-13.02
-9.89
-6.31
-2.07
2.61
7.07
10.57
12.61
13.07
12.35
11.12
10.20
10.01
10.64
11.79
12.90
13.46
13.08
11.67
9.38
6.64
3.89
1.64
0.36
0.37
1.78
4.37
7.66
11.07
14.17
16.75
18.81
20.44
21.54
21.82
20.88
18.50
14.78
10.37
6.15
2.89
0.86
-0.32
-1.48
-3.49
-6.83
-11.35
-16.24
-20.39
-22.71
-22.46
-19.52
-14.44
-8.36
-2.76
0.93
1.77
-0.41
-4.98
-10.66
-16.02
-19.86
-21.57
-21.28
-19.70
-17.83
-16.48
-16.03
-16.25
-16.38
-15.51
-12.95
-8.50
-2.52
4.24
10.91
16.80
21.51
24.93
27.12
28.28
28.57
28.18
27.21
25.58
23.06
19.28
14.05
7.52
0.41
-6.10
-10.65
-12.20
-10.41
-5.82
0.28
6.19
10.24
11.23
8.75
3.21
-4.25
-12.13
-19.02
-23.96
-26.59
-27.12
-26.11
-24.21
-21.93
-19.60
-17.32
-14.99
-12.44
-9.44
-5.85
-1.71
2.73
7.02
10.70
13.46
15.23
16.16
16.48
16.39
15.99
15.39
14.68
13.98
13.31
12.55
11.51
10.00
8.07
6.03
4.32
3.29
2.93
2.79
2.22
0.67
-2.03
-5.61
-9.58
-13.54
-17.41
-21.39
-25.79
-30.84
-36.60
-42.96
-49.66
-56.38
-62.69
-68.13
-72.24
-74.62
-75.08
-73.58
-70.28
-65.40
-59.31
-52.56
-45.88
-40.11
-35.90
-33.46
-32.42
-31.92
-30.93
-28.72
-24.91
-19.62
-13.13
-5.79
2.12
10.27
18.21
25.39
31.29
35.68
38.65
40.66
42.24
43.81
45.54
47.33
48.96
50.13
50.57
50.03
48.32
45.38
41.39
36.70
31.84
27.29
23.34
20.05
17.30
14.91
12.72
10.68
8.76
7.01
5.50
4.30
3.51
3.17
3.28
3.79
4.63
5.74
7.09
8.64
10.32
12.01
13.52
14.68
15.43
15.78
15.85
15.82
15.80
15.82
15.86
15.86
15.74
15.38
14.64
13.43
11.83
10.10
8.56
7.48
6.95
6.83
6.84
6.72
6.40
6.11
6.08
6.29
6.42
6.01
4.76
2.64
-0.04
-2.80
-4.88
-5.80
-5.53
-4.41
-2.84
-1.09
0.70
2.49
4.42
7.33
11.81
17.79
24.53
31.04
36.58
40.78
43.64
45.49
47.75
51.30
55.96
60.70
64.52
66.98
68.23
68.67
68.86
70.39
73.98
78.98
83.78
86.87
87.57
85.83
81.84
67.58
39.89
2.25
-36.98
-70.54
-95.41
-111.67
-120.68
-124.62
-124.83
-120.64
-111.86
-99.63
-86.19
-73.99
-64.60
-58.65
-56.28
-56.99
-58.93
-60.49
-60.82
-59.42
-56.05
-50.92
-44.68
-37.76
-30.43
-22.28
-13.91
-6.26
-0.43
2.85
3.60
2.46
0.48
-1.24
-1.60
-0.09
3.16
7.46
11.88
15.62
18.25
19.70
20.08
19.59
18.28
16.17
13.32
9.98
6.58
3.64
1.50
0.20
-0.45
-0.80
-1.04
-1.27
-1.47
-1.67
-1.94
-2.43
-3.37
-4.92
-7.16
-9.86
-12.56
-14.62
-15.42
-14.55
-11.96
-8.02
-3.41
1.09
4.83
7.46
8.96
9.53
9.50
9.13
8.61
8.02
7.42
6.88
6.46
6.22
6.09
5.96
5.69
5.22
4.65
4.15
3.89
3.91
4.07
4.12
3.83
3.07
1.90
0.53
-0.81
-1.90
-2.72
-3.32
-3.86
-4.51
-5.40
-6.62
-8.20
-10.07
-12.04
-13.76
-14.85
-15.02
-14.11
-12.27
-9.80
-7.07
-4.41
-1.98
0.16
2.02
3.62
4.92
5.84
6.34
6.46
6.31
6.07
5.96
6.17
6.82
7.90
9.29
10.70
11.79
12.22
11.77
10.42
8.40
6.08
3.87
2.03
0.64
-0.40
-1.23
-1.95
-2.62
-3.34
-4.30
-5.79
-7.98
-10.75
-13.61
-15.80
-16.55
-15.47
-12.69
-8.90
-5.12
-2.42
-1.56
-2.84
-5.98
-10.16
-14.28
-17.27
-18.47
-17.78
-15.66
-12.81
-9.83
-6.96
-4.14
-1.16
2.09
5.51
8.80
11.62
13.74
15.08
15.68
15.70
15.32
14.79
14.32
14.00
13.68
13.02
11.57
9.03
5.42
1.19
-2.92
-6.10
-7.69
-7.42
-5.39
-2.01
2.13
6.48
10.58
14.12
16.91
18.86
19.96
20.19
19.58
18.23
16.28
13.96
11.54
9.22
7.13
5.29
3.65
2.22
1.12
0.53
0.61
1.32
2.38
3.33
3.74
3.39
2.39
1.10
-0.04
-0.74
-0.93
-0.82
-0.73
-0.99
-1.70
-2.67
-3.44
-3.48
-2.32
0.16
3.64
7.45
10.78
13.07
14.20
14.58
14.93
15.95
17.99
20.90
24.06
26.65
27.94
27.55
25.63
22.84
20.24
19.02
20.17
24.07
30.15
36.83
41.86
42.96
38.54
28.21
12.90
-5.58
-25.19
-44.40
-62.57
-79.86
-96.61
-112.67
-126.92
-137.38
-141.72
-138.05
-125.59
-105.10
-78.79
-50.02
-22.66
-0.39
14.17
20.09
18.49
12.13
4.44
-1.76
-5.24
-6.47
-6.91
-7.87
-9.70
-11.68
-12.66
-11.81
-9.05
-5.02
-0.64
3.35
6.53
8.72
9.79
9.63
8.31
6.28
4.35
3.48
4.42
7.37
11.86
16.89
21.19
23.63
23.48
20.62
15.58
9.36
3.16
-1.89
-5.06
-6.10
-5.24
-3.08
-0.33
2.36
4.56
6.12
7.16
7.89
8.53
9.19
9.83
10.29
10.40
10.05
9.29
8.37
7.71
7.80
8.96
11.11
13.76
16.14
17.55
17.58
16.28
14.05
11.38
8.67
6.08
3.68
1.48
-0.41
-1.90
-2.96
-3.77
-4.61
-5.78
-7.42
-9.49
-11.78
-14.05
-16.16
-18.06
-19.77
-21.33
-22.74
-23.91
-24.72
-24.99
-24.52
-23.20
-21.05
-18.33
-15.46
-12.89
-10.89
-9.52
-8.60
-7.90
-7.29
-6.75
-6.18
-5.32
-3.70
-0.81
3.57
9.21
15.45
21.49
26.71
30.83
33.89
36.05
37.34
37.60
36.63
34.32
30.79
26.37
21.44
16.28
11.00
5.64
0.26
-4.99
-9.89
-14.36
-18.50
-22.62
-27.09
-32.15
-37.79
-43.76
-49.62
-54.89
-59.09
-61.87
-63.06
-62.71
-61.11
-58.61
-55.48
-51.77
-47.44
-42.51
-37.21
-31.95
-26.89
-21.77
-15.75
-7.74
3.01
16.45
31.58
46.85
60.68
72.06
80.67
86.78
90.75
92.81
92.91
90.86
86.64
80.54
73.22
65.59
58.47
52.43
47.61
43.75
40.38
37.01
33.28
29.12
24.71
20.43
16.76
14.07
12.59
12.30
13.00
14.46
16.49
19.01
22.04
25.58
29.56
33.82
38.12
42.22
45.91
49.05
51.57
53.47
54.86
55.84
56.54
57.00
57.19
57.06
56.53
55.55
54.08
52.10
49.68
46.96
44.07
40.99
37.38
32.65
26.11
17.41
6.81
-4.75
-15.89
-25.26
-32.00
-35.87
-37.18
-36.44
-34.17
-30.74
-26.54
-22.03
-17.82
-14.46
-12.27
-11.26
-11.09
-11.29
-11.43
-11.22
-10.59
-9.59
-8.39
-7.18
-6.16
-5.44
-5.03
-4.86
-4.81
-4.76
-4.67
-4.61
-4.67
-4.91
-5.36
-6.02
-6.86
-7.90
-9.15
-10.59
-12.15
-13.71
-15.12
-16.29
-17.16
-17.73
-18.04
-18.17
-18.22
-18.25
-18.27
-18.18
-17.78
-16.91
-15.49
-13.60
-11.45
-9.28
-7.29
-5.52
-3.91
-2.43
-1.12
-0.16
0.27
0.14
-0.34
-0.80
-0.89
-0.48
0.29
1.05
1.46
1.37
0.88
0.28
-0.13
-0.25
-0.18
-0.16
-0.45
-1.22
-2.46
-4.05
-5.80
-7.49
-8.98
-10.17
-11.03
-11.63
-12.11
-12.65
-13.43
-14.52
-15.85
-17.25
-18.46
-19.25
-19.47
-19.08
-18.12
-16.69
-14.90
-12.88
-10.78
-8.82
-7.23
-6.20
-5.81
-5.96
-6.43
-6.96
-7.36
-7.57
-7.63
-7.59
-7.50
-7.32
-7.00
-6.51
-5.93
-5.36
-4.94
-4.71
-4.69
-4.79
-4.97
-5.20
-5.51
-5.94
-6.51
-7.16
-7.74
-8.10
-8.15
-7.97
-7.73
-7.68
-7.99
-8.66
-9.56
-10.50
-11.39
-12.18
-12.90
-13.54
-13.92
-13.77
-12.87
-11.10
-8.57
-5.59
-2.54
0.22
2.47
4.12
5.18
5.73
5.86
5.69
5.36
5.00
4.73
4.61
4.69
4.97
5.40
5.89
6.31
6.53
6.46
6.11
5.58
5.00
4.48
4.04
3.62
3.11
2.48
1.75
0.99
0.24
-0.51
-1.30
-2.19
-3.13
-4.07
-4.89
-5.54
-6.07
-6.58
-7.17
-7.95
-8.91
-9.92
-10.72
-10.99
-10.44
-8.98
-6.74
-4.05
-1.35
1.00
2.87
4.33
5.54
6.61
7.56
8.27
8.65
8.65
8.32
7.72
6.97
6.15
5.40
4.85
4.62
4.74
5.08
5.40
5.48
5.22
4.69
4.05
3.46
2.97
2.48
1.84
0.95
-0.21
-1.51
-2.82
-4.00
-5.00
-5.84
-6.58
-7.31
-8.10
-8.99
-10.02
-11.17
-12.37
-13.52
-14.44
-14.91
-14.71
-13.70
-11.92
-9.59
-7.09
-4.76
-2.89
-1.57
-0.76
-0.39
-0.37
-0.64
-1.13
-1.75
-2.32
-2.69
-2.73
-2.42
-1.82
-1.04
-0.23
0.45
0.90
1.06
0.98
0.82
0.73
0.80
0.98
1.07
0.86
0.28
-0.55
-1.34
-1.85
-2.02
-1.98
-1.99
-2.27
-2.86
-3.68
-4.61
-5.57
-6.46
-7.14
-7.36
-6.82
-5.37
-3.11
-0.42
2.18
4.24
5.57
6.26
6.50
6.47
6.23
5.77
5.11
4.37
3.74
3.41
3.43
3.72
4.09
4.39
4.48
4.34
3.98
3.51
3.05
2.69
2.46
2.25
1.89
1.19
0.09
-1.35
-2.89
-4.34
-5.57
-6.63
-7.68
-8.84
-10.12
-11.35
-12.25
-12.61
-12.27
-11.24
-9.64
-7.65
-5.50
-3.42
-1.60
-0.18
0.81
1.44
1.87
2.27
2.72
3.20
3.63
3.92
4.05
4.09
4.19
4.43
4.80
5.21
5.50
5.53
5.26
4.72
4.03
3.23
2.34
1.30
0.09
-1.31
-2.83
-4.39
-5.90
-7.30
-8.57
-9.70
-10.65
-11.29
-11.48
-11.05
-9.95
-8.24
-6.11
-3.78
-1.50
0.61
2.51
4.19
5.65
6.78
7.50
7.75
7.57
7.11
6.55
6.02
5.53
5.05
4.54
4.05
3.69
3.56
3.69
3.99
4.32
4.50
4.38
3.86
2.87
1.43
-0.33
-2.17
-3.78
-4.89
-5.40
-5.47
-5.45
-5.80
-6.81
-8.55
-10.72
-12.84
-14.30
-14.67
-13.79
-11.84
-9.21
-6.36
-3.67
-1.36
0.48
1.89
2.93
3.71
4.38
5.19
6.32
7.87
9.77
11.76
13.53
14.85
15.64
15.97
15.97
15.71
15.20
14.37
13.15
11.56
9.73
7.85
6.12
4.69
3.64
2.96
2.55
2.26
1.92
1.35
0.43
-0.87
-2.48
-4.30
-6.14
-7.83
-9.14
-9.80
-9.61
-8.51
-6.65
-4.40
-2.22
-0.48
0.66
1.25
1.49
1.59
1.68
1.79
1.93
2.10
2.33
2.64
3.00
3.30
3.42
3.29
2.91
2.38
1.84
1.37
1.01
0.69
0.34
-0.11
-0.68
-1.33
-2.01
-2.68
-3.34
-3.99
-4.64
-5.33
-6.13
-7.08
-8.22
-9.54
-10.97
-12.37
-13.62
-14.58
-15.09
-15.01
-14.18
-12.55
-10.21
-7.38
-4.44
-1.77
0.31
1.67
2.29
2.35
2.05
1.68
1.45
1.55
2.01
2.74
3.57
4.33
4.98
5.53
6.08
6.62
7.08
7.28
7.09
6.50
5.62
4.66
3.75
2.95
2.25
1.58
0.97
0.45
0.03
-0.34
-0.74
-1.28
-2.05
-3.09
-4.42
-6.00
-7.68
-9.21
-10.25
-10.46
-9.63
-7.81
-5.27
-2.39
0.43
2.92
4.97
6.51
7.54
8.07
8.15
7.89
7.44
6.97
6.63
6.48
6.46
6.42
6.22
5.72
4.93
3.99
3.12
2.52
2.26
2.24
2.22
1.95
1.26
0.15
-1.16
-2.41
-3.36
-3.95
-4.29
-4.61
-5.12
-5.89
-6.85
-7.81
-8.61
-9.16
-9.52
-9.74
-9.74
-9.35
-8.32
-6.54
-4.16
-1.56
0.81
2.66
3.93
4.84
5.61
6.37
7.09
7.64
7.90
7.89
7.75
7.63
7.64
7.79
7.97
8.09
8.02
7.75
7.28
6.63
5.87
5.04
4.18
3.32
2.47
1.61
0.77
-0.02
-0.70
-1.18
-1.46
-1.61
-1.75
-2.01
-2.36
-2.57
-2.24
-1.03
1.18
4.15
7.39
10.39
12.88
14.92
16.86
19.06
21.78
24.93
28.23
31.28
33.83
35.83
37.46
39.11
41.14
43.74
46.73
49.72
52.33
54.60
57.02
60.38
65.18
71.18
77.26
81.42
81.71
76.96
67.28
53.86
38.45
22.67
7.57
-6.47
-20.28
-35.11
-52.21
-72.02
-93.79
-115.39
-133.45
-143.80
-142.16
-126.19
-95.93
-54.45
-7.73
36.06
68.34
82.51
76.27
52.70
18.15
-19.34
-52.69
-77.65
-93.90
-104.50
-114.03
-126.29
-136.23
-137.58
-126.06
-103.12
-74.93
-48.22
-27.25
-12.75
-2.58
6.44
15.46
23.33
27.88
28.07
25.51
23.98
27.60
38.68
55.93
75.30
91.20
99.04
97.27
87.71
74.17
60.80
50.92
46.52
47.58
52.76
60.10
67.45
72.86
74.82
72.66
66.57
58.13
49.10
41.17
35.53
32.67
32.40
33.92
36.19
38.15
38.96
37.71
33.97
27.82
19.68
10.09
-0.43
-11.42
-22.53
-33.47
-44.71
-56.05
-66.51
-74.86
-80.19
-82.16
-80.98
-77.29
-72.04
-67.60
-65.02
-64.08
-64.36
-66.15
-70.11
-76.39
-84.00
-90.92
-96.91
-100.40
-99.72
-95.21
-90.25
-90.09
-99.71
-122.15
-157.50
-205.15
-258.68
-307.06
-338.78
-346.02
-326.95
-285.74
-230.86
-154.62
-66.99
12.48
69.26
102.10
117.62
122.39
120.78
115.77
109.69
101.43
91.65
80.69
68.91
57.20
47.56
43.15
46.60
58.20
74.02
90.54
106.68
120.01
130.51
138.93
145.47
148.64
145.60
133.75
112.88
84.99
53.18
20.78
-9.54
-35.90
-56.66
-69.96
-72.41
-61.97
-39.65
-9.12
25.30
59.99
92.87
123.85
154.71
190.79
235.18
285.81
335.56
375.14
396.08
393.20
366.33
302.77
207.63
101.66
9.08
-57.00
-97.11
-118.23
-127.57
-130.07
-128.91
-123.56
-114.53
-103.89
-93.75
-85.05
-77.10
-69.13
-61.11
-54.13
-47.55
-41.97
-39.54
-41.24
-46.30
-50.44
-47.92
-34.24
-9.54
21.48
49.36
63.96
59.78
37.51
4.82
-28.43
-54.14
-69.36
-75.35
-75.78
-73.78
-70.84
-69.82
-70.16
-74.83
-87.29
-110.27
-144.71
-189.73
-243.01
-287.86
-310.43
-303.48
-268.83
-213.18
-145.21
-74.58
-10.68
39.82
74.92
95.31
104.59
106.64
104.50
99.38
91.55
81.86
72.78
67.57
67.02
69.97
73.56
75.10
72.75
66.38
57.59
49.12
43.82
42.60
45.13
50.06
55.70
60.08
61.48
58.35
50.33
38.63
25.29
12.95
3.84
-0.95
-1.86
-0.44
1.58
3.16
4.19
4.94
5.65
6.14
5.87
4.32
1.40
-2.46
-6.39
-9.46
-11.06
-11.16
-10.13
-8.65
-7.16
-5.78
-4.29
-2.29
0.50
3.99
7.72
11.31
14.10
15.65
15.85
14.99
13.60
12.18
11.02
10.09
9.13
7.82
6.05
4.00
2.08
0.74
0.22
0.47
1.18
2.03
2.80
3.52
4.40
5.63
7.25
9.08
10.81
12.15
12.89
12.94
12.30
11.04
9.30
7.24
5.09
3.03
1.18
-0.37
-1.56
-2.29
-2.39
-1.73
-0.37
1.39
3.13
4.47
5.24
5.57
5.74
6.03
6.55
7.13
7.50
7.32
6.41
4.82
2.83
0.85
-0.70
-1.54
-1.74
-1.69
-1.93
-2.94
-4.77
-7.19
-9.65
-11.71
-13.07
-13.72
-13.68
-12.98
-11.68
-9.99
-8.40
-7.57
-8.02
-9.75
-12.17
-14.26
-15.11
-14.30
-12.03
-8.86
-5.39
-1.99
1.20
4.05
6.35
7.81
8.30
7.99
7.35
6.86
6.72
6.74
6.49
5.66
4.30
2.73
1.34
0.28
-0.60
-1.60
-2.91
-4.49
-6.21
-7.95
-9.82
-12.00
-14.58
-17.35
-19.93
-21.98
-23.54
-24.98
-26.73
-29.02
-31.55
-33.64
-34.62
-34.11
-32.18
-29.22
-25.62
-21.61
-17.33
-12.87
-8.54
-4.74
-1.84
-0.02
0.79
0.84
0.46
-0.19
-1.02
-1.97
-2.94
-3.77
-4.23
-4.20
-3.72
-2.94
-2.17
-1.61
-1.36
-1.41
-1.62
-1.87
-2.01
-2.03
-1.97
-2.00
-2.26
-2.88
-3.90
-5.20
-6.52
-7.52
-7.86
-7.32
-5.86
-3.61
-0.84
2.14
5.06
7.70
9.96
11.75
13.07
13.90
14.29
14.27
13.95
13.42
12.77
12.02
11.13
10.07
8.87
7.61
6.40
5.30
4.27
3.18
1.87
0.30
-1.48
-3.33
-5.09
-6.71
-8.27
-9.90
-11.74
-13.87
-16.26
-18.79
-21.28
-23.48
-25.08
-25.84
-25.53
-24.07
-21.54
-18.15
-14.22
-10.11
-6.15
-2.59
0.40
2.80
4.69
6.20
7.52
8.78
10.06
11.41
12.90
14.60
16.58
18.86
21.39
24.12
26.91
29.70
32.38
34.78
36.67
37.74
37.71
36.48
34.16
31.05
27.51
23.82
20.13
16.42
12.63
8.75
4.98
1.67
-0.78
-2.04
-1.99
-0.69
1.58
4.47
7.65
10.84
13.82
16.35
18.29
19.52
20.07
20.16
20.04
19.92
19.81
19.56
18.89
17.69
15.99
14.08
12.21
10.52
8.91
7.18
5.09
2.59
-0.23
-3.24
-6.34
-9.49
-12.68
-15.81
-18.69
-21.17
-23.18
-24.85
-26.46
-28.20
-30.18
-32.24
-34.05
-35.18
-35.20
-33.77
-30.73
-26.15
-20.34
-13.87
-7.44
-1.70
2.81
5.86
7.53
8.10
7.92
7.31
6.46
5.45
4.36
3.27
2.29
1.46
0.78
0.12
-0.68
-1.71
-2.96
-4.21
-5.24
-5.87
-6.07
-6.07
-6.27
-7.06
-8.68
-11.12
-14.11
-17.29
-20.35
-23.11
-25.56
-27.74
-29.52
-30.62
-30.63
-29.22
-26.29
-22.06
-16.96
-11.53
-6.23
-1.37
2.90
6.54
9.56
11.98
13.79
14.98
15.53
15.47
14.91
14.01
12.96
11.87
10.82
9.81
8.89
8.08
7.42
6.88
6.25
5.30
3.82
1.79
-0.60
-3.01
-5.07
-6.63
-7.75
-8.73
-9.91
-11.51
-13.58
-15.91
-18.12
-19.76
-20.40
-19.77
-17.83
-14.73
-10.79
-6.36
-1.75
2.84
7.20
11.09
14.18
16.19
16.99
16.75
15.87
14.81
13.94
13.34
12.83
12.17
11.20
9.91
8.46
7.04
5.74
4.59
3.57
2.69
1.98
1.48
1.10
0.65
-0.08
-1.21
-2.64
-4.10
-5.25
-5.89
-6.12
-6.25
-6.74
-7.91
-9.85
-12.29
-14.76
-16.71
-17.67
-17.40
-15.91
-13.42
-10.26
-6.80
-3.33
-0.02
2.99
5.61
7.70
9.11
9.75
9.65
8.96
7.96
6.93
6.11
5.69
5.70
6.01
6.36
6.31
5.44
3.49
0.53
-3.02
-6.51
-9.28
-10.85
-11.06
-10.14
-8.55
-6.88
-5.67
-5.33
-5.98
-7.54
-9.71
-12.19
-14.74
-17.30
-19.89
-22.49
-24.97
-27.05
-28.44
-28.85
-28.16
-26.34
-23.50
-19.81
-15.51
-10.91
-6.30
-1.88
2.23
6.00
9.36
12.12
14.05
14.97
14.94
14.25
13.38
12.72
12.38
12.22
11.93
11.35
10.50
9.62
8.97
8.70
8.74
8.83
8.69
8.05
6.79
4.87
2.36
-0.52
-3.44
-5.93
-7.57
-8.06
-7.47
-6.13
-4.70
-3.82
-4.02
-5.49
-8.09
-11.40
-14.87
-17.90
-20.01
-20.86
-20.32
-18.41
-15.31
-11.26
-6.55
-1.53
3.44
8.01
11.85
14.76
16.63
17.48
17.46
16.77
15.71
14.56
13.61
13.02
12.79
12.76
12.66
12.28
11.56
10.63
9.69
8.87
8.18
7.44
6.37
4.72
2.39
-0.53
-3.79
-7.03
-9.89
-12.15
-13.78
-15.05
-16.39
-18.24
-20.79
-23.85
-26.85
-29.03
-29.75
-28.75
-26.24
-22.70
-18.68
-14.54
-10.39
-6.21
-2.02
2.09
6.01
9.68
13.08
16.14
18.54
19.82
19.57
17.84
15.27
13.03
12.29
13.72
17.20
21.91
26.77
30.86
33.65
34.90
34.49
32.30
28.25
22.54
15.69
8.55
1.95
-3.45
-7.41
-10.13
-12.01
-13.56
-15.15
-16.90
-18.63
-19.89
-20.10
-18.72
-15.51
-10.71
-4.99
0.71
5.55
9.09
11.35
12.69
13.52
14.08
14.35
14.20
13.59
12.67
11.63
10.61
9.58
8.35
6.83
5.15
3.63
2.55
1.96
1.55
0.85
-0.51
-2.59
-5.12
-7.73
-10.17
-12.51
-14.93
-17.63
-20.49
-23.21
-25.51
-27.29
-28.68
-29.82
-30.61
-30.62
-29.23
-25.99
-20.91
-14.58
-7.86
-1.60
3.75
8.14
11.74
14.64
16.77
18.03
18.35
17.97
17.25
16.56
16.08
15.78
15.52
15.19
14.81
14.37
13.83
12.95
11.51
9.39
6.77
4.01
1.48
-0.65
-2.55
-4.54
-6.96
-9.93
-13.33
-16.86
-20.16
-22.95
-24.95
-25.83
-25.23
-22.83
-18.58
-12.87
-6.44
-0.26
4.87
8.55
10.89
12.30
13.23
13.92
14.39
14.53
14.29
13.78
13.21
12.69
12.22
11.66
10.89
9.98
9.14
8.57
8.34
8.23
7.85
6.84
5.08
2.72
0.09
-2.53
-5.01
-7.44
-10.01
-12.86
-15.99
-19.19
-22.12
-24.35
-25.50
-25.29
-23.55
-20.40
-16.13
-11.20
-6.11
-1.26
3.15
7.07
10.55
13.61
16.23
18.32
19.79
20.59
20.76
20.43
19.78
18.96
18.15
17.47
16.95
16.54
16.11
15.53
14.69
13.61
12.31
10.86
9.29
7.62
5.85
4.01
2.22
0.57
-0.90
-2.28
-3.72
-5.38
-7.30
-9.35
-11.31
-12.96
-14.24
-15.23
-16.19
-17.37
-18.96
-20.95
-23.01
-24.58
-24.91
-23.32
-19.44
-13.45
-6.03
1.83
9.21
15.49
20.52
24.42
27.40
29.52
30.76
31.12
30.76
30.04
29.29
28.71
28.26
27.73
26.96
25.96
24.88
23.90
23.08
22.30
21.37
20.16
18.71
17.20
15.78
14.48
13.18
11.74
10.02
8.04
5.88
3.56
1.13
-1.48
-4.31
-7.30
-10.30
-13.11
-15.60
-17.79
-19.81
-21.86
-24.05
-26.37
-28.58
-30.32
-31.14
-30.67
-28.64
-25.05
-20.11
-14.28
-8.14
-2.25
2.96
7.26
10.64
13.17
14.96
16.05
16.49
16.37
15.86
15.16
14.45
13.82
13.22
12.58
11.77
10.78
9.65
8.46
7.31
6.27
5.35
4.50
3.61
2.53
1.19
-0.41
-2.17
-3.91
-5.51
-7.00
-8.52
-10.29
-12.44
-14.94
-17.63
-20.31
-22.79
-25.06
-27.15
-29.06
-30.55
-31.21
-30.46
-27.87
-23.36
-17.26
-10.34
-3.43
2.74
7.83
11.82
14.89
17.23
18.91
19.87
20.06
19.54
18.49
17.21
15.94
14.87
14.09
13.59
13.32
13.16
12.97
12.59
11.94
11.01
9.89
8.71
7.56
6.49
5.49
4.56
3.69
2.83
1.86
0.59
-1.15
-3.44
-6.11
-8.86
-11.28
-13.16
-14.49
-15.54
-16.73
-18.43
-20.80
-23.71
-26.77
-29.44
-31.15
-31.42
-30.02
-26.97
-22.53
-17.16
-11.36
-5.57
-0.01
5.19
9.94
14.12
17.52
19.94
21.33
21.77
21.55
21.00
20.39
19.87
19.46
19.09
18.64
18.01
17.22
16.32
15.46
14.81
14.43
14.24
13.98
13.30
11.99
10.03
7.66
5.22
3.02
1.19
-0.37
-1.88
-3.55
-5.51
-7.73
-10.08
-12.37
-14.44
-16.18
-17.60
-18.79
-19.99
-21.42
-23.23
-25.34
-27.38
-28.70
-28.67
-26.79
-22.96
-17.52
-11.09
-4.46
1.74
7.13
11.62
15.31
18.33
20.74
22.48
23.44
23.60
23.06
22.13
21.14
20.37
19.92
19.73
19.57
19.26
18.75
18.06
17.35
16.76
16.32
15.98
15.56
14.89
13.86
12.47
10.83
9.16
7.61
6.29
5.21
4.28
3.38
2.42
1.27
-0.17
-2.01
-4.28
-6.87
-9.56
-12.09
-14.31
-16.24
-18.17
-20.42
-23.17
-26.27
-29.25
-31.36
-31.89
-30.37
-26.73
-21.37
-14.94
-8.23
-1.93
3.53
8.01
11.58
14.41
16.61
18.16
19.02
19.12
18.49
17.29
15.77
14.15
12.64
11.32
10.17
9.11
8.09
7.11
6.22
5.53
5.07
4.78
4.50
4.01
3.19
2.05
0.70
-0.77
-2.40
-4.32
-6.69
-9.44
-12.29
-14.81
-16.65
-17.76
-18.44
-19.20
-20.51
-22.52
-25.06
-27.69
-29.95
-31.45
-31.91
-31.17
-29.11
-25.69
-21.08
-15.61
-9.77
-4.08
1.08
5.51
9.13
11.94
13.89
14.93
15.09
14.53
13.55
12.50
11.69
11.21
10.99
10.84
10.57
10.04
9.26
8.29
7.26
6.29
5.41
4.65
3.90
3.03
1.89
0.40
-1.38
-3.30
-5.10
-6.57
-7.58
-8.11
-8.25
-8.15
-7.99
-8.04
-8.59
-9.98
-12.38
-15.76
-19.74
-23.72
-26.96
-28.73
-28.54
-26.17
-21.77
-15.82
-9.05
-2.35
3.54
8.14
11.40
13.67
15.47
17.23
19.14
21.09
22.79
23.99
24.59
24.63
24.28
23.67
22.87
21.87
20.65
19.29
17.92
16.67
15.61
14.69
13.78
12.68
11.31
9.67
7.91
6.21
4.66
3.26
1.83
0.21
-1.71
-3.86
-6.00
-7.84
-9.22
-10.17
-10.98
-12.06
-13.75
-16.19
-19.14
-22.10
-24.42
-25.47
-24.85
-22.47
-18.52
-13.37
-7.49
-1.31
4.81
10.50
15.49
19.56
22.59
24.57
25.58
25.77
25.35
24.54
23.58
22.67
21.97
21.46
21.03
20.52
19.75
18.67
17.33
15.81
14.20
12.55
10.86
9.15
7.41
5.63
3.81
1.92
-0.07
-2.09
-4.09
-5.99
-7.80
-9.57
-11.45
-13.53
-15.85
-18.32
-20.88
-23.47
-26.08
-28.67
-31.07
-32.98
-34.01
-33.86
-32.41
-29.74
-26.16
-21.98
-17.46
-12.77
-8.08
-3.54
0.56
4.02
6.66
8.44
9.49
9.93
9.89
9.46
8.74
7.78
6.74
5.73
4.85
4.15
3.60
3.16
2.78
2.42
2.05
1.62
1.06
0.28
-0.76
-2.07
-3.62
-5.37
-7.22
-9.14
-11.04
-12.97
-14.99
-17.19
-19.64
-22.35
-25.12
-27.69
-29.67
-30.67
-30.33
-28.38
-24.75
-19.58
-13.30
-6.54
-0.00
5.70
10.28
13.68
16.03
17.48
18.13
18.04
17.38
16.45
15.61
15.17
15.16
15.36
15.40
15.05
14.28
13.35
12.51
11.92
11.46
10.88
10.00
8.76
7.27
5.70
4.09
2.41
0.57
-1.48
-3.75
-6.14
-8.64
-11.26
-14.01
-16.85
-19.64
-22.23
-24.57
-26.75
-28.88
-30.92
-32.52
-33.06
-31.87
-28.55
-23.24
-16.56
-9.41
-2.57
3.43
8.45
12.59
15.97
18.65
20.63
21.93
22.66
23.02
23.15
23.14
22.98
22.62
22.07
21.41
20.73
19.99
19.08
17.83
16.12
14.02
11.76
9.59
7.68
6.03
4.47
2.91
1.31
-0.21
-1.52
-2.64
-3.72
-4.99
-6.56
-8.35
-10.10
-11.63
-12.95
-14.31
-16.06
-18.38
-21.14
-23.88
-26.01
-27.03
-26.67
-24.90
-21.79
-17.48
-12.18
-6.19
0.08
6.14
11.56
16.09
19.70
22.44
24.41
25.67
26.26
26.32
26.07
25.78
25.63
25.58
25.46
25.06
24.33
23.42
22.58
22.00
21.69
21.50
21.17
20.53
19.53
18.20
16.57
14.63
12.35
9.82
7.19
4.73
2.69
1.20
0.23
-0.43
-1.04
-1.89
-3.20
-5.13
-7.71
-10.85
-14.32
-17.87
-21.17
-23.88
-25.63
-26.13
-25.29
-23.23
-20.25
-16.75
-13.06
-9.36
-5.69
-2.00
1.73
5.26
8.27
10.53
11.95
12.63
12.67
12.13
10.98
9.09
6.17
2.27
-2.06
-5.89
-8.39
-9.24
-8.76
-7.73
-7.21
-8.58
-12.49
-18.42
-24.97
-30.75
-35.18
-38.54
-41.60
-45.46
-51.65
-60.59
-71.14
-81.11
-88.56
-92.83
-94.47
-94.86
-95.92
-100.77
-111.42
-127.89
-147.97
-168.02
-184.09
-192.29
-189.95
-171.67
-139.32
-102.22
-72.14
-55.35
-49.24
-46.33
-39.81
-25.89
-4.02
21.01
45.18
67.03
87.98
110.70
137.14
169.91
210.60
258.02
306.37
347.15
371.09
370.37
340.97
284.08
209.90
134.35
73.75
38.79
32.77
52.02
88.27
131.99
163.78
169.59
146.68
104.49
55.85
9.60
-30.53
-63.25
-84.44
-95.19
-95.42
-86.68
-73.36
-61.79
-57.23
-61.05
-72.63
-87.26
-100.32
-107.16
-105.88
-97.87
-86.76
-76.20
-68.06
-62.41
-58.06
-54.60
-51.07
-47.05
-42.76
-38.76
-35.38
-32.40
-29.46
-26.13
-22.80
-19.43
-15.86
-11.84
-7.25
-2.21
2.90
7.40
10.69
12.20
12.04
10.79
9.30
8.44
8.76
10.29
12.45
14.26
14.44
11.95
6.31
-2.18
-12.29
-22.37
-30.91
-36.83
-39.38
-38.15
-33.00
-24.22
-12.72
0.59
14.32
26.89
36.80
43.31
46.67
47.96
48.54
49.55
52.45
57.94
65.70
74.44
82.75
89.73
95.16
99.18
101.96
104.59
107.59
110.58
112.36
112.19
110.57
109.05
108.95
103.38
86.72
57.09
18.03
-23.98
-62.55
-93.00
-112.99
-122.86
-124.83
-120.44
-111.81
-99.97
-86.85
-75.44
-68.82
-69.04
-75.89
-86.28
-94.32
-92.15
-75.55
-47.12
-15.32
10.65
25.79
31.58
34.69
43.01
60.00
82.07
100.52
104.24
85.61
44.09
-12.76
-70.55
-111.96
-123.08
-98.81
-45.01
23.51
88.79
136.17
156.50
147.63
114.71
66.80
13.02
-39.66
-86.55
-124.26
-149.99
-162.18
-161.53
-151.61
-137.79
-124.45
-112.61
-99.73
-82.17
-58.51
-31.20
-6.21
9.52
11.07
-1.42
-22.34
-42.09
-52.90
-53.52
-47.71
-39.70
-31.32
-22.16
-11.27
1.16
12.88
20.68
22.00
16.47
6.09
-5.52
-14.21
-16.27
-9.25
5.99
26.58
47.81
65.02
75.23
77.94
74.83
67.13
58.10
49.36
40.50
30.15
17.88
5.05
-5.65
-11.47
-10.92
-4.25
6.12
16.78
24.63
28.16
27.75
25.18
22.79
22.31
24.29
27.34
29.47
28.28
22.86
14.10
4.17
-4.47
-10.25
-12.81
-13.09
-12.31
-11.18
-9.60
-7.14
-3.83
-0.44
1.74
1.75
-0.55
-4.26
-7.99
-10.57
-11.54
-11.37
-10.98
-11.23
-12.48
-14.52
-16.71
-18.37
-18.98
-18.46
-17.12
-15.54
-14.24
-13.66
-13.90
-14.75
-15.81
-16.74
-17.40
-17.93
-18.69
-20.08
-22.37
-25.56
-29.35
-33.24
-36.64
-39.03
-40.05
-39.52
-37.47
-34.11
-29.76
-24.90
-20.07
-15.80
-12.42
-10.01
-8.36
-7.06
-5.54
-3.05
1.29
8.22
18.00
29.99
42.54
53.29
60.07
61.65
58.28
51.53
43.51
36.08
30.12
25.58
21.83
18.26
14.61
10.99
7.73
5.10
3.27
2.30
2.25
3.12
4.84
7.12
9.41
10.96
11.04
9.20
5.42
0.18
-5.61
-10.86
-14.53
-15.98
-15.12
-12.48
-8.99
-5.72
-3.50
-2.66
-3.01
-3.91
-4.73
-5.04
-4.79
-4.30
-3.94
-4.00
-4.46
-5.06
-5.38
-5.01
-3.69
-1.36
1.82
5.50
9.13
11.98
13.22
12.09
8.18
1.67
-6.57
-15.12
-22.41
-27.08
-28.29
-25.75
-19.59
-10.22
1.62
14.68
27.05
36.27
39.96
36.65
26.56
11.75
-4.37
-18.12
-26.75
-29.16
-25.85
-18.38
-8.57
2.10
12.61
22.16
29.92
34.86
35.99
32.78
25.53
15.49
4.53
-5.32
-12.45
-15.94
-15.64
-11.99
-5.85
1.54
8.62
13.60
14.79
11.15
2.87
-8.50
-20.25
-29.29
-33.20
-30.91
-23.00
-11.35
1.55
13.37
22.51
28.21
30.47
29.77
26.82
22.46
17.56
12.89
9.10
6.56
5.29
4.99
5.16
5.28
5.00
4.25
3.24
2.31
1.76
1.71
2.06
2.50
2.61
1.99
0.38
-2.24
-5.69
-9.59
-13.46
-16.75
-19.02
-19.95
-19.43
-17.64
-14.93
-11.74
-8.48
-5.43
-2.71
-0.32
1.80
3.72
5.44
6.96
8.22
9.15
9.72
9.94
9.88
9.64
9.33
8.99
8.61
8.20
7.88
7.89
8.48
9.67
11.19
12.51
13.05
12.53
11.09
9.18
7.30
5.72
4.39
3.07
1.53
-0.27
-2.23
-4.23
-6.26
-8.42
-10.76
-13.09
-14.99
-15.93
-15.54
-13.86
-11.27
-8.35
-5.56
-3.06
-0.71
1.70
4.27
6.78
8.85
10.09
10.34
9.79
8.91
8.28
8.34
9.29
11.06
13.32
15.64
17.55
18.67
18.84
18.02
16.39
14.20
11.72
9.19
6.81
4.70
2.89
1.37
0.07
-1.08
-2.10
-2.97
-3.61
-3.98
-4.14
-4.25
-4.62
-5.49
-6.96
-8.85
-10.72
-11.98
-12.10
-10.77
-8.03
-4.26
-0.06
3.94
7.23
9.58
11.04
11.77
12.00
11.87
11.43
10.69
9.71
8.62
7.56
6.62
5.81
5.00
4.08
3.05
2.01
1.15
0.52
0.02
-0.71
-2.07
-4.35
-7.51
-11.19
-14.78
-17.63
-19.22
-19.28
-17.87
-15.29
-12.05
-8.87
-6.46
-5.45
-6.14
-8.49
-12.04
-16.13
-20.06
-23.20
-25.20
-25.93
-25.44
-23.91
-21.64
-18.93
-16.05
-13.18
-10.35
-7.48
-4.51
-1.48
1.40
3.77
5.29
5.80
5.38
4.32
2.99
1.70
0.59
-0.27
-0.86
-1.14
-1.05
-0.63
-0.02
0.48
0.60
0.21
-0.65
-1.76
-2.95
-4.21
-5.73
-7.77
-10.53
-13.88
-17.41
-20.58
-22.98
-24.58
-25.84
-27.58
-30.64
-35.46
-41.67
-48.07
-52.83
-54.01
-50.26
-41.26
-27.98
-12.43
2.89
15.66
24.38
28.74
29.59
28.62
27.85
29.05
33.30
40.71
50.39
60.67
69.55
75.21
76.60
73.73
67.67
60.10
52.68
46.49
41.72
37.78
33.80
29.00
23.02
15.98
8.31
0.63
-6.42
-12.30
-16.66
-19.47
-21.14
-22.46
-24.33
-27.36
-31.47
-35.87
-39.28
-40.48
-38.83
-34.50
-28.52
-22.31
-17.16
-13.64
-11.50
-9.70
-6.68
-0.83
9.00
22.94
40.00
58.16
75.35
89.91
101.31
110.48
119.41
130.02
142.87
156.48
167.59
173.06
170.93
161.46
147.20
132.02
119.27
110.15
103.13
94.49
80.62
58.53
27.07
-12.35
-55.41
-95.65
-125.85
-139.91
-134.57
-109.56
-69.28
-21.92
22.97
57.38
77.12
82.26
76.13
57.13
27.57
-7.88
-43.85
-76.26
-102.47
-120.63
-129.80
-130.61
-125.60
-117.40
-108.64
-100.95
-94.53
-88.62
-82.51
-76.30
-70.76
-67.42
-65.55
-63.67
-60.49
-55.41
-48.80
-41.74
-35.59
-31.53
-30.17
-31.07
-33.09
-35.22
-36.95
-38.03
-38.33
-37.89
-37.36
-36.44
-35.99
-36.59
-38.62
-41.71
-44.29
-43.83
-37.51
-23.35
-0.93
28.55
63.74
102.28
141.19
177.32
208.08
231.75
247.36
254.53
247.56
224.72
190.16
152.89
121.85
101.92
93.28
92.93
96.87
100.78
104.65
109.49
115.95
123.31
129.52
131.97
128.23
116.68
99.90
81.26
62.63
44.79
27.47
9.83
-9.08
-29.73
-51.67
-73.42
-93.27
-112.31
-131.74
-152.02
-172.83
-193.83
-215.17
-237.05
-258.98
-280.35
-303.34
-327.96
-351.32
-369.05
-378.16
-378.63
-372.35
-361.05
-346.53
-333.95
-325.51
-319.73
-313.08
-303.16
-290.15
-275.41
-259.92
-216.83
-137.76
-35.25
66.37
149.70
210.38
251.64
274.57
286.32
290.15
283.31
265.45
240.18
213.22
191.26
176.49
168.04
163.86
160.68
152.95
138.62
119.26
98.44
77.49
55.92
32.99
8.97
-15.67
-41.90
-68.86
-94.50
-115.56
-130.86
-139.48
-140.13
-131.23
-112.24
-84.95
-51.30
-14.10
32.95
84.99
131.71
166.30
188.52
200.18
200.08
187.22
158.50
115.20
61.52
4.74
-48.21
-94.56
-131.02
-159.01
-182.17
-204.81
-226.27
-242.38
-245.99
-231.03
-195.78
-143.92
-83.93
-19.07
37.41
73.65
86.76
83.50
72.35
58.25
42.70
25.78
8.81
-6.64
-17.55
-22.56
-22.35
-20.11
-19.09
-20.86
-24.46
-26.69
-24.99
-17.69
-6.08
7.27
18.52
25.05
27.21
28.74
35.43
52.29
82.41
120.13
160.35
197.44
226.55
244.74
252.06
251.36
246.75
241.11
234.10
225.44
212.96
192.89
161.47
118.06
67.08
18.20
-17.62
-32.53
-21.05
15.69
69.28
119.45
141.69
122.28
70.62
18.29
-24.83
-60.67
-96.65
-139.72
-191.19
-243.18
-288.93
-316.69
-320.03
-293.20
-239.50
-173.94
-116.46
-80.05
-64.77
-61.09
-57.25
-47.82
-35.31
-25.60
-23.42
-29.25
-38.55
-45.28
-44.42
-33.51
-14.52
7.88
29.17
46.91
61.07
73.04
84.06
94.47
104.51
109.24
106.60
96.99
83.05
68.45
56.35
48.21
43.75
41.73
40.39
38.81
36.32
32.79
28.60
24.47
20.99
18.40
16.62
15.14
13.78
11.96
9.10
4.91
-0.47
-6.56
-12.60
-17.89
-21.99
-24.59
-25.88
-26.46
-26.90
-27.61
-28.64
-29.75
-30.59
-30.84
-30.14
-28.32
-25.37
-21.36
-16.42
-10.75
-4.66
1.50
7.33
12.52
16.85
20.17
22.43
23.57
23.64
22.79
21.28
19.49
17.80
16.43
15.34
14.32
13.08
11.49
9.57
7.53
5.60
3.98
2.74
1.84
1.21
0.71
0.20
-0.54
-1.70
-3.40
-5.61
-8.13
-10.75
-13.29
-15.63
-17.65
-19.29
-20.52
-21.27
-21.42
-20.95
-19.90
-18.36
-16.34
-13.63
-10.05
-5.59
-0.47
4.87
9.83
13.72
16.15
17.30
17.90
18.80
20.49
23.04
26.26
29.68
32.61
34.53
35.34
35.50
35.57
35.85
36.45
37.52
39.04
40.56
41.30
40.16
36.07
27.52
12.80
-9.24
-36.26
-61.39
-76.61
-77.96
-67.07
-47.98
-24.73
-0.53
22.08
40.89
53.60
57.12
50.82
36.75
20.86
11.54
16.38
38.54
74.64
115.18
147.75
161.91
151.52
117.36
66.98
11.48
-38.51
-75.63
-96.86
-102.97
-97.16
-83.94
-67.93
-53.37
-43.49
-39.97
-42.59
-49.62
-58.48
-66.66
-72.57
-75.61
-76.18
-75.59
-75.82
-78.90
-86.22
-97.55
-111.29
-125.30
-137.80
-148.01
-156.37
-164.45
-174.35
-187.74
-204.14
-221.28
-236.01
-245.52
-247.62
-240.65
-223.69
-196.64
-160.29
-115.07
-62.08
-3.42
57.14
115.29
167.61
212.14
248.42
269.94
270.93
251.94
221.60
189.21
159.79
134.22
111.38
90.07
69.98
54.17
44.41
42.92
50.24
65.53
86.83
110.96
133.58
150.22
158.96
156.00
142.63
123.03
102.81
86.64
76.11
69.25
61.98
51.20
36.14
19.29
3.89
-7.56
-14.19
-16.79
-17.11
-16.90
-16.95
-17.38
-17.38
-16.69
-15.66
-14.94
-15.06
-16.06
-17.39
-18.01
-17.09
-14.06
-9.40
-4.24
0.21
3.30
5.22
6.71
8.57
11.04
13.80
15.94
16.45
14.83
11.25
6.43
1.39
-2.72
-4.64
-2.89
3.83
15.90
31.91
48.39
60.43
63.29
54.16
33.19
3.48
-30.01
-61.70
-86.48
-100.25
-100.44
-86.59
-60.89
-28.30
4.41
30.46
45.15
47.17
38.58
23.57
6.67
-8.57
-20.23
-27.80
-31.74
-32.96
-32.59
-31.76
-31.47
-32.34
-34.44
-37.41
-40.49
-42.92
-44.01
-43.31
-40.68
-36.31
-30.83
-25.28
-20.97
-19.05
-20.16
-23.99
-29.20
-33.70
-35.16
-31.73
-22.63
-8.48
9.01
27.47
44.81
60.02
73.17
85.02
96.60
108.70
121.60
134.84
146.96
155.55
157.82
151.14
134.36
108.78
78.11
47.22
20.32
-0.62
-16.00
-27.19
-35.84
-42.78
-47.71
-49.96
-49.41
-46.85
-44.27
-43.51
-44.68
-47.86
-53.34
-61.26
-71.69
-84.78
-100.59
-120.03
-143.32
-167.57
-190.25
-209.49
-222.94
-228.60
-226.10
-217.32
-207.75
-203.09
-203.75
-209.30
-217.39
-221.72
-214.07
-188.03
-141.85
-81.58
-17.34
43.81
92.45
120.05
124.11
107.97
78.22
56.26
58.21
66.50
71.13
71.97
63.67
42.73
9.50
-32.59
-78.50
-125.33
-170.50
-188.92
-166.68
-109.00
-34.13
40.17
104.42
156.29
194.10
217.08
228.69
229.56
219.97
202.79
183.67
167.29
155.73
146.66
136.59
124.44
107.28
82.97
52.79
20.73
-9.43
-30.42
-40.10
-39.38
-30.39
-18.14
-7.60
-1.03
2.24
4.38
7.42
11.17
14.41
15.89
14.02
8.23
-0.44
-9.97
-18.09
-23.01
-24.70
-24.20
-23.22
-23.73
-27.02
-33.20
-41.64
-50.48
-57.25
-60.52
-60.48
-58.70
-57.30
-57.88
-60.91
-66.36
-72.67
-76.98
-76.87
-70.99
-59.04
-41.47
-19.95
1.98
18.16
23.19
15.32
-2.69
-24.31
-41.21
-46.17
-36.03
-7.38
32.50
68.94
90.88
97.67
95.36
90.04
84.39
77.99
69.55
57.83
44.20
32.13
24.72
22.68
24.31
26.75
27.50
25.25
19.45
11.44
3.89
-0.87
-2.26
-1.35
0.05
0.36
-1.28
-5.25
-10.80
-16.31
-20.38
-22.53
-23.30
-23.54
-24.03
-25.11
-26.90
-28.91
-30.18
-29.78
-27.16
-22.39
-15.90
-8.35
-0.48
6.88
13.22
18.39
22.49
25.80
28.58
31.09
33.39
35.40
36.99
38.14
39.01
39.92
41.23
43.25
46.22
50.24
55.15
60.43
65.06
67.52
66.00
59.15
46.67
29.83
10.91
-7.49
-23.16
-34.72
-41.83
-45.01
-45.13
-43.13
-39.56
-35.08
-30.38
-26.53
-23.53
-20.56
-16.53
-10.54
-2.35
7.85
18.83
28.80
36.43
41.88
46.55
52.51
61.65
74.97
92.63
112.57
130.77
142.37
143.22
130.90
105.35
68.95
23.14
-25.00
-66.01
-93.06
-105.13
-105.81
-99.97
-91.29
-81.70
-71.98
-62.09
-52.74
-45.22
-40.47
-38.29
-37.56
-36.74
-34.74
-31.13
-25.81
-19.63
-13.96
-9.94
-7.83
-7.11
-6.88
-6.40
-5.29
-3.39
-1.25
0.17
-0.01
-2.01
-5.41
-9.28
-12.69
-14.86
-15.41
-14.58
-13.16
-12.00
-11.60
-12.38
-14.07
-16.71
-20.52
-25.50
-31.22
-36.45
-39.31
-38.11
-32.33
-23.03
-12.64
