1589312746.00
64.000000
-0.00
-0.00
-0.00
-0.00
-0.00
-0.00
-0.00
-0.00
-0.00
-0.00
0.00
0.01
0.01
-0.00
-0.03
-0.05
-0.05
0.00
0.13
0.36
0.66
1.01
1.37
1.72
2.06
2.40
2.79
3.24
3.80
4.42
5.06
5.66
6.20
6.68
7.15
7.68
8.31
9.14
10.09
11.04
11.88
12.56
13.14
13.76
14.65
15.96
17.91
20.32
22.90
25.38
27.58
29.57
31.68
34.32
37.81
42.54
48.15
54.10
59.83
64.97
69.58
74.14
79.34
85.71
93.76
103.00
112.62
121.73
129.77
136.75
143.30
150.75
157.77
166.64
177.95
191.79
206.97
220.57
228.25
225.36
208.53
176.87
132.76
80.05
23.07
-34.94
-92.44
-149.16
-205.23
-260.37
-313.74
-363.87
-409.82
-450.88
-486.46
-515.68
-537.14
-549.10
-549.80
-538.16
-513.94
-478.35
-433.50
-382.00
-326.51
-269.26
-211.98
-155.94
-102.16
-51.50
-4.95
36.62
72.56
102.59
126.85
145.85
160.30
170.91
178.29
182.86
184.90
184.63
182.33
178.35
173.09
166.97
160.33
153.41
146.35
139.24
132.10
124.99
117.96
111.09
104.46
98.11
92.09
86.40
81.07
76.11
71.52
67.31
63.49
60.06
57.02
54.35
52.05
50.12
48.54
47.29
46.29
45.46
44.67
43.78
42.58
40.91
38.58
35.44
31.38
26.39
20.50
13.85
6.64
-0.83
-8.26
-15.32
-21.75
-27.32
-31.89
-35.39
-37.82
-39.28
-39.91
-39.85
-39.25
-38.28
-37.10
-35.83
-34.56
-33.36
-32.33
-31.46
-30.70
-29.92
-29.03
-27.92
-26.42
-24.29
-21.28
-17.15
-11.60
-4.41
4.55
15.18
27.16
39.95
52.87
65.63
77.20
86.75
93.52
97.51
98.94
98.20
95.64
91.70
86.85
81.47
76.05
71.02
66.83
63.75
62.00
61.46
62.01
63.37
65.25
67.51
70.11
73.12
76.57
80.45
84.38
87.99
90.43
90.93
88.91
84.06
76.20
65.02
52.24
38.55
24.34
8.86
-8.56
-28.16
-49.62
-72.08
-94.54
-116.12
-136.62
-156.16
-176.48
-199.11
-224.92
-253.72
-284.40
-315.36
-345.02
-372.46
-397.10
-420.52
-444.03
-467.94
-491.11
-511.07
-524.60
-528.72
-521.53
-491.19
-432.15
-345.31
-238.63
-124.66
-15.79
79.36
157.17
217.72
263.01
293.48
309.47
311.71
302.11
284.10
262.16
240.83
223.41
211.32
202.60
194.06
182.73
166.97
146.89
123.79
99.78
77.61
60.90
52.99
56.60
72.32
97.50
126.63
153.21
172.38
182.64
185.67
184.24
180.22
173.66
163.82
150.62
136.10
123.90
117.25
117.25
122.35
129.33
134.93
136.37
131.30
117.17
91.73
55.75
11.74
-32.96
-69.09
-89.16
-90.91
-78.20
-58.86
-40.31
-26.60
-17.46
-10.66
-6.29
-8.38
-23.11
-54.23
-98.88
-146.77
-183.71
-197.68
-184.35
-148.99
-103.88
-62.66
-34.38
-20.71
-17.30
-17.09
-14.58
-8.36
-1.41
1.24
-4.09
-17.22
-33.77
-47.66
-54.36
-53.63
-48.86
-45.36
-46.57
-51.87
-56.82
-56.05
-46.54
-29.24
-9.33
7.70
18.63
23.53
24.55
23.53
20.20
12.34
-2.86
-26.04
-54.03
-80.07
-96.36
-97.71
-83.92
-59.80
-32.82
-10.16
3.45
6.41
-0.25
-13.66
-29.37
-41.68
-44.71
-34.47
-10.92
20.97
53.52
79.53
95.30
101.46
101.24
98.01
93.43
87.50
79.85
71.05
62.79
56.82
53.79
53.04
52.86
51.30
47.33
41.53
34.86
28.97
25.22
24.04
24.81
26.17
26.68
25.42
22.37
18.31
14.58
12.39
12.28
13.91
16.25
18.00
18.21
16.66
13.95
11.45
10.48
11.76
15.06
19.14
22.40
23.39
21.61
17.61
13.00
9.45
7.88
8.21
8.56
6.80
1.33
-7.76
-18.73
-28.71
-34.83
-35.54
-30.93
-22.21
-10.87
1.36
12.45
19.38
19.06
9.86
-6.78
-25.59
-39.18
-41.36
-30.95
-12.92
3.56
9.73
1.71
-17.62
-40.31
-57.85
-64.33
-59.94
-49.20
-37.71
-29.25
-24.75
-23.14
-22.81
-22.90
-23.49
-24.82
-26.14
-25.22
-19.42
-7.57
8.74
24.30
31.73
24.43
-0.15
-38.04
-79.00
-109.92
-119.69
-104.35
-69.05
-25.21
14.78
42.54
56.20
59.32
57.37
54.49
51.81
48.36
43.07
36.33
30.07
26.60
27.01
30.37
34.26
36.00
34.16
28.93
22.38
17.15
15.22
16.96
21.05
25.22
27.30
26.27
22.70
18.39
15.41
15.10
17.51
21.45
25.19
27.25
27.09
25.21
22.90
21.48
21.88
24.45
28.94
34.48
39.51
41.85
39.31
30.58
16.10
-1.76
-19.34
-33.07
-40.94
-43.13
-41.50
-38.40
-35.35
-32.70
-29.97
-26.73
-23.20
-20.10
-18.20
-17.77
-18.40
-19.31
-19.79
-19.54
-18.82
-18.25
-18.38
-19.47
-21.27
-23.00
-23.70
-22.56
-19.30
-14.40
-8.96
-4.27
-1.24
-0.14
-0.55
-1.70
-2.93
-3.81
-4.31
-4.53
-4.56
-4.40
-4.07
-3.57
-2.97
-2.32
-1.46
-0.40
0.86
2.08
2.89
3.01
2.37
1.15
-0.35
-1.81
-3.10
-4.18
-5.06
-5.80
-6.45
-7.05
-7.64
-8.19
-8.52
-8.33
-7.26
-5.06
-1.89
1.85
5.46
8.37
10.21
10.97
10.83
10.07
8.86
7.17
5.02
2.44
-0.33
-2.90
-4.85
-5.93
-6.03
-5.20
-3.67
-1.86
-0.15
1.17
1.99
2.40
2.64
3.06
3.98
5.61
7.99
11.08
14.76
18.76
22.58
25.42
26.36
24.62
19.96
12.93
4.79
-2.87
-8.74
-12.20
-13.45
-13.29
-12.66
-12.23
-12.31
-12.90
-13.84
-15.01
-16.30
-17.65
-19.05
-20.50
-21.95
-23.20
-23.88
-23.57
-22.01
-19.25
-15.75
-12.13
-8.94
-6.40
-4.41
-2.75
-1.36
-0.41
-0.23
-1.09
-2.90
-5.24
-7.45
-8.91
-9.23
-8.40
-6.68
-4.42
-1.87
0.88
3.92
7.38
11.28
15.46
19.63
23.49
26.71
29.02
30.17
30.12
29.10
27.63
26.38
25.84
26.09
26.70
27.01
26.47
24.89
22.49
19.61
16.49
13.05
9.05
4.36
-0.93
-6.46
-11.86
-16.89
-21.53
-25.85
-29.88
-33.56
-36.71
-39.23
-41.11
-42.56
-43.80
-44.88
-45.56
-45.33
-43.58
-39.91
-34.30
-27.19
-19.29
-11.32
-3.76
3.27
9.86
16.17
22.28
28.07
33.36
37.96
41.70
44.44
45.98
46.07
44.56
41.46
36.96
31.42
25.19
18.50
11.43
3.91
-4.15
-12.72
-21.63
-30.47
-38.60
-45.26
-49.73
-51.59
-50.90
-48.06
-43.64
-38.06
-31.35
-23.29
-13.68
-2.67
9.06
20.48
30.51
38.46
44.09
47.58
49.26
49.37
47.93
44.90
40.32
34.39
27.61
20.55
13.79
7.63
2.18
-2.64
-6.87
-10.47
-13.25
-15.08
-15.98
-16.22
-16.28
-16.62
-17.52
-18.95
-20.61
-22.04
-22.88
-22.96
-22.32
-21.23
-20.08
-19.28
-19.07
-19.43
-20.02
-20.23
-19.37
-16.99
-13.02
-7.82
-2.02
3.73
8.98
13.54
17.35
20.35
22.39
23.31
23.09
22.02
20.66
19.68
19.51
20.22
21.45
22.61
23.18
22.98
22.16
21.06
20.03
19.19
18.44
17.52
16.12
14.08
11.43
8.44
5.48
2.92
0.91
-0.73
-2.48
-4.98
-8.61
-13.30
-18.41
-22.93
-25.81
-26.39
-24.51
-20.50
-15.00
-8.71
-2.26
3.86
9.22
13.44
16.20
17.39
17.10
15.69
13.69
11.66
10.02
8.99
8.53
8.45
8.50
8.52
8.41
8.14
7.74
7.23
6.69
6.14
5.57
4.94
4.15
3.11
1.79
0.25
-1.28
-2.52
-3.33
-3.79
-4.19
-4.84
-5.84
-7.00
-7.79
-7.39
-5.05
-0.46
6.17
14.14
22.63
30.86
38.19
44.19
48.74
51.85
53.30
52.97
50.92
47.56
43.58
39.55
35.60
31.54
26.98
21.36
14.87
8.54
3.85
2.76
6.42
13.78
22.73
31.77
39.59
45.09
46.51
41.80
29.90
11.83
-9.04
-27.92
-42.63
-52.35
-57.64
-60.40
-62.70
-66.00
-70.94
-77.58
-85.95
-89.28
-87.83
-83.37
-77.66
-71.65
-65.63
-59.63
-53.80
-48.27
-43.12
-39.19
-36.43
-34.42
-32.75
-31.18
-29.83
-28.96
-28.68
-28.80
-29.59
-30.53
-31.01
-30.84
-30.12
-29.58
-30.21
-32.95
-38.03
-44.95
-51.28
-53.81
-49.82
-38.40
-21.18
-1.63
16.64
31.22
41.47
48.34
53.35
57.42
61.29
65.66
71.32
77.92
83.40
84.25
77.27
61.57
39.33
14.92
-7.58
-26.21
-41.53
-55.19
-67.36
-75.77
-76.44
-66.18
-44.98
-16.92
12.02
35.88
51.19
57.84
58.26
55.86
53.71
53.64
56.37
61.81
69.41
77.51
83.13
82.16
71.36
49.60
19.47
-13.17
-41.20
-59.22
-65.62
-62.29
-54.15
-45.83
-39.93
-36.83
-35.52
-34.76
-34.22
-33.89
-34.03
-34.78
-35.88
-37.01
-38.42
-41.14
-46.18
-53.43
-60.63
-63.55
-57.63
-40.52
-13.49
17.96
46.41
65.64
73.12
70.55
62.21
52.38
43.16
35.25
27.88
20.60
14.09
9.81
8.92
11.33
15.48
19.20
20.43
18.32
13.63
8.38
4.88
4.77
8.30
14.12
19.91
23.73
24.48
22.67
20.09
18.95
21.17
28.14
40.34
56.92
75.50
91.78
100.16
95.56
75.58
41.79
1.48
-36.46
-64.69
-80.41
-85.67
-85.45
-84.90
-87.14
-93.18
-101.98
-111.66
-119.25
-120.87
-112.36
-91.18
-57.93
-17.06
25.06
62.72
92.61
113.99
127.08
131.57
125.50
109.03
84.59
57.24
33.54
18.74
14.96
20.98
34.25
52.25
72.96
93.89
110.98
118.82
112.49
90.24
54.95
13.80
-24.78
-54.36
-72.72
-81.74
-85.41
-87.30
-89.01
-90.46
-90.67
-89.40
-87.81
-87.74
-90.70
-97.04
-106.09
-115.42
-123.84
-129.29
-129.00
-120.13
-101.35
-73.78
-41.23
-8.72
19.67
42.18
60.01
75.42
89.61
101.73
110.10
113.18
111.48
107.06
101.53
94.72
84.57
69.26
49.55
29.84
16.73
15.90
29.12
53.53
82.83
110.66
132.54
145.76
148.10
137.22
111.69
73.00
26.37
-19.81
-57.24
-80.92
-90.83
-91.28
-87.85
-84.74
-83.44
-83.37
-83.21
-82.36
-81.29
-80.85
-81.70
-83.76
-86.32
-88.42
-89.55
-89.66
-89.27
-89.47
-90.51
-92.20
-93.80
-94.15
-92.06
-87.15
-78.96
-67.73
-54.23
-39.35
-23.92
-8.47
6.83
22.40
37.84
52.68
66.08
77.10
84.94
89.16
90.06
88.59
86.17
84.18
83.65
84.57
86.10
86.89
85.50
81.02
73.46
63.67
52.77
41.97
31.59
21.31
10.21
-2.94
-19.52
-40.61
-66.22
-94.40
-119.82
-136.34
-138.04
-122.17
-91.03
-51.89
-14.24
13.83
28.64
31.98
28.64
23.91
21.30
22.10
25.86
31.11
35.48
35.71
28.18
10.16
-17.98
-52.21
-85.56
-110.62
-122.30
-119.50
-104.78
-82.52
-57.02
-30.84
-6.14
15.67
33.28
45.59
52.32
54.38
53.71
52.44
52.13
53.12
54.71
55.72
55.05
52.32
47.99
43.20
39.21
36.86
36.21
36.70
37.33
37.14
35.55
32.47
28.23
23.31
18.02
12.38
6.13
-0.99
-9.15
-18.19
-27.64
-36.61
-44.15
-49.44
-51.96
-51.56
-48.42
-43.00
-35.74
-27.50
-19.00
-10.84
-3.44
2.90
8.05
11.95
14.67
16.36
17.13
17.19
16.79
16.16
15.52
15.05
14.82
14.83
14.92
14.89
14.61
14.07
13.43
12.93
12.78
13.14
13.88
14.72
15.26
15.24
14.67
13.87
13.37
13.71
15.15
17.48
20.03
21.89
22.47
21.66
20.10
18.92
19.26
21.72
25.95
30.72
34.30
35.35
33.49
29.48
24.90
21.20
19.17
18.22
16.63
12.21
3.24
-11.11
-30.57
-53.48
-76.74
-95.87
-106.10
-103.22
-87.22
-61.54
-32.68
-7.62
9.02
16.53
17.95
18.09
20.91
27.67
36.35
42.51
41.21
29.52
7.91
-19.46
-46.08
-65.68
-74.28
-71.73
-61.04
-46.49
-31.17
-15.91
0.11
17.63
35.32
50.25
58.96
59.15
50.58
35.12
15.19
-6.82
-28.91
-48.68
-62.93
-68.33
-62.06
-45.45
-22.60
0.64
18.97
29.60
32.88
31.45
28.26
25.15
22.52
20.14
18.13
16.98
17.23
18.85
21.15
23.08
23.91
23.38
22.16
21.22
21.29
22.43
23.97
24.92
24.45
22.42
19.76
18.54
20.77
27.25
36.05
42.49
40.60
25.50
-4.24
-45.69
-92.10
-135.00
-166.45
-181.07
-176.96
-155.97
-123.06
-85.14
-49.48
-21.86
-5.22
0.67
-1.58
-8.49
-17.23
-26.19
-34.53
-41.64
-46.89
-49.90
-51.03
-51.51
-52.96
-56.44
-61.79
-67.43
-71.03
-70.30
-64.04
-52.64
-38.03
-22.57
-8.37
3.70
14.07
24.10
35.33
48.57
63.30
77.91
90.46
99.38
104.65
107.54
110.23
115.28
125.01
140.91
163.00
189.00
212.67
227.29
226.38
206.62
170.17
124.65
80.22
45.66
24.74
15.38
11.96
8.23
-0.02
-14.30
-33.61
-56.27
-79.57
-99.91
-113.20
-116.06
-107.91
-91.25
-72.03
-56.44
-48.47
-48.60
-54.55
-63.10
-71.57
-78.69
-84.10
-87.62
-88.58
-86.27
-80.69
-72.60
-63.42
-54.38
-46.03
-37.80
-28.35
-16.05
0.03
19.56
41.00
61.99
80.06
93.31
100.72
102.23
98.47
90.28
78.51
63.73
46.42
26.85
6.18
-14.27
-33.06
-48.80
-60.40
-67.24
-69.06
-66.09
-58.75
-47.57
-33.36
-16.66
1.87
21.36
40.78
59.07
75.23
88.46
98.29
104.32
106.36
104.32
98.29
88.55
75.64
60.34
43.38
26.04
9.31
-6.18
-20.25
-33.06
-44.91
-55.87
-65.77
-74.19
-80.64
-84.96
-87.51
-89.24
-91.41
-95.15
-100.96
-108.39
-116.22
-122.92
-127.59
-130.26
-132.11
-134.97
-140.28
-148.03
-156.43
-162.16
-161.51
-151.83
-132.78
-106.41
-76.03
-44.90
-14.65
15.20
46.77
82.30
122.96
168.08
215.26
261.01
300.24
327.10
335.10
318.94
277.44
216.08
147.36
85.44
41.53
19.58
15.59
20.42
25.21
25.79
23.76
23.85
29.60
40.23
50.23
51.99
39.66
12.29
-25.24
-64.02
-94.94
-112.40
-115.68
-108.69
-97.03
-84.96
-73.63
-61.79
-47.76
-31.57
-15.53
-3.09
3.02
2.39
-2.94
-9.34
-13.32
-13.06
-8.95
-3.14
1.65
3.48
1.94
-1.83
-5.82
-8.20
-8.02
-5.64
-2.30
0.51
1.79
1.33
-0.28
-2.09
-3.24
-3.36
-2.60
-1.47
-0.51
-0.09
-0.25
-0.76
-1.33
-1.70
-1.80
-1.71
-1.54
-1.39
-1.29
-1.20
-1.07
-0.92
-0.79
-0.75
-0.84
-1.01
-1.13
-1.04
-0.67
-0.04
0.67
1.25
1.48
1.31
0.91
0.61
0.77
1.58
2.96
4.49
5.63
5.93
5.29
4.14
3.25
3.43
5.13
8.10
11.42
13.83
14.31
12.66
9.70
7.07
6.50
8.98
14.11
20.13
24.65
25.69
22.70
16.98
11.17
7.79
8.18
11.53
15.12
15.44
9.80
-3.05
-22.40
-45.71
-69.14
-87.90
-96.78
-91.61
-70.97
-37.83
0.32
33.36
52.39
53.10
37.67
13.52
-10.45
-27.60
-36.04
-38.32
-39.26
-42.65
-48.92
-56.22
-60.02
-56.69
-44.99
-27.15
-7.06
9.99
21.51
28.68
35.23
44.29
55.20
63.35
61.99
46.75
18.82
-14.36
-42.41
-56.92
-54.72
-39.83
-20.16
-3.39
6.77
11.02
12.81
15.40
19.87
24.95
28.23
28.05
24.32
18.51
12.82
9.02
7.61
7.81
8.13
7.06
3.99
-0.56
-5.27
-8.74
-10.17
-9.66
-8.08
-6.52
-5.74
-5.77
-5.97
-5.41
-3.43
-0.10
3.81
7.19
9.08
9.15
7.92
6.41
5.79
6.70
8.86
11.30
12.82
12.55
10.49
7.53
5.07
4.16
5.36
8.13
11.31
13.58
13.86
11.31
5.38
-3.94
-15.48
-26.42
-32.84
-31.12
-19.76
-0.79
20.69
38.41
47.68
46.97
38.77
27.35
16.48
7.93
1.48
-3.88
-8.69
-12.46
-14.19
-13.31
-10.38
-6.81
-4.11
-3.37
-4.53
-6.61
-8.32
-8.62
-7.20
-4.63
-1.99
-0.25
0.14
-0.51
-1.38
-1.60
-0.72
1.12
3.23
4.83
5.49
5.38
5.17
5.69
7.41
10.18
13.29
15.76
16.91
16.78
16.14
16.19
17.93
21.55
26.42
31.24
34.81
36.44
36.40
35.76
35.89
38.05
43.22
52.16
64.97
80.40
95.29
105.02
104.99
92.72
69.49
40.26
12.04
-9.26
-21.11
-25.03
-24.93
-24.70
-26.37
-28.95
-31.62
-33.45
-34.55
-35.73
-37.85
-40.93
-44.05
-45.99
-45.66
-43.00
-38.59
-34.11
-30.38
-28.14
-27.53
-28.16
-29.31
-30.23
-30.56
-30.17
-29.27
-28.16
-27.36
-27.24
-28.00
-29.59
-31.79
-34.31
-36.77
-39.05
-41.04
-42.79
-44.30
-45.45
-46.28
-47.52
-50.79
-57.81
-69.10
-82.33
-92.26
-92.11
-76.72
-45.53
-3.71
39.37
73.83
93.39
97.31
89.88
77.67
66.20
58.41
54.71
54.53
57.19
61.45
64.14
59.68
41.76
6.90
-42.28
-96.13
-141.05
-165.37
-164.53
-143.09
-112.15
-83.93
-66.46
-61.32
-65.06
-72.60
-80.39
-87.32
-93.52
-98.47
-100.10
-95.47
-82.01
-59.56
-29.65
4.58
39.54
72.68
103.00
130.85
157.21
182.69
206.91
228.56
245.89
257.57
263.34
264.22
262.06
258.81
255.72
252.94
249.64
244.32
235.56
222.43
204.83
183.18
158.10
130.46
100.82
69.45
36.41
1.80
-34.09
-70.74
-107.60
-144.20
-180.21
-215.55
-250.27
-284.46
-318.23
-351.57
-384.15
-415.51
-445.03
-471.82
-494.69
-512.18
-522.63
-524.36
-516.82
-499.08
-470.64
-431.73
-383.38
-327.42
-266.24
-202.49
-138.86
-77.77
-21.07
29.83
74.04
111.16
141.26
164.69
181.94
193.55
199.98
201.75
199.22
192.74
182.73
169.73
154.41
137.50
119.75
101.82
84.27
67.49
51.79
37.51
25.01
14.69
6.85
1.59
-1.32
-2.38
-2.26
-1.61
-0.86
-0.10
0.78
1.91
3.25
4.39
4.63
3.16
-0.66
-6.97
-15.30
-24.67
-33.81
-41.55
-47.05
-49.82
-49.69
-46.49
-39.89
-29.22
-13.09
10.72
45.66
95.46
162.30
244.28
333.99
419.51
487.50
527.90
537.44
519.96
483.98
438.55
390.39
343.26
298.76
257.82
220.93
187.82
157.26
127.64
98.56
72.38
54.18
49.81
62.74
91.81
130.45
168.74
196.67
207.41
198.88
173.41
135.88
91.32
43.13
-7.02
-57.89
-106.70
