1588544895.00
64.000000
-0.00
-0.00
-0.00
-0.00
-0.00
-0.00
-0.00
-0.00
-0.00
-0.00
0.00
0.01
0.01
-0.00
-0.03
-0.05
-0.05
0.00
0.13
0.36
0.66
1.01
1.37
1.72
2.06
2.40
2.79
3.24
3.80
4.42
5.06
5.66
6.20
6.68
7.15
7.68
8.31
9.14
10.09
11.04
11.88
12.56
13.14
13.76
14.65
15.96
17.91
20.32
22.90
25.38
27.58
29.57
31.68
34.32
37.81
42.54
48.15
54.10
59.83
64.97
69.58
74.14
79.34
85.71
93.76
103.00
112.62
121.73
129.77
136.75
143.30
150.75
157.77
166.64
177.95
191.79
206.97
220.57
228.25
225.36
208.53
176.87
132.76
80.05
23.07
-34.94
-92.44
-149.16
-205.23
-260.37
-313.74
-363.87
-409.83
-450.91
-486.50
-515.74
-537.23
-549.22
-549.96
-538.37
-514.21
-478.67
-433.88
-382.45
-327.02
-269.84
-212.63
-156.66
-102.95
-52.37
-5.90
35.58
71.43
101.35
125.50
144.38
158.69
169.15
176.37
180.75
182.57
182.07
179.51
175.23
169.65
163.18
156.15
148.81
141.30
133.69
126.02
118.33
110.69
103.15
95.80
88.68
81.82
75.25
68.96
62.97
57.29
51.92
46.88
42.17
37.77
33.69
29.93
26.48
23.34
20.50
17.91
15.52
13.32
11.27
9.42
7.79
6.44
5.37
4.55
3.91
3.37
2.87
2.37
1.89
1.52
1.32
1.33
1.54
1.88
2.20
2.40
2.43
2.35
2.32
2.50
3.03
3.86
4.79
5.52
5.81
5.59
5.08
4.66
4.80
5.74
7.39
9.26
10.66
11.05
10.27
8.69
7.12
6.50
7.40
9.75
12.78
15.24
16.05
14.67
11.40
7.15
2.94
-0.51
-3.25
-6.04
-10.23
-17.09
-27.85
-43.46
-63.89
-87.32
-109.57
-124.71
-126.24
-111.47
-82.30
-45.22
-8.85
19.52
36.86
45.03
48.74
52.67
59.29
68.65
79.15
88.79
95.99
99.37
97.48
88.88
73.11
51.56
27.51
5.58
-10.02
-16.68
-14.18
-4.68
7.92
18.97
23.90
19.82
6.17
-14.90
-38.65
-59.66
-73.63
-79.02
-76.90
-69.82
-60.36
-50.40
-41.98
-37.15
-37.49
-42.50
-48.62
-49.73
-39.75
-16.11
18.65
57.20
91.41
116.14
131.67
142.62
155.05
172.82
193.66
214.03
226.80
225.90
208.59
177.49
138.66
99.83
67.53
44.24
28.89
17.81
7.60
-3.36
-14.12
-24.06
-31.90
-38.49
-46.59
-58.41
-74.28
-91.92
-107.49
-116.55
-117.43
-111.64
-96.11
-70.20
-35.31
5.13
46.88
81.03
106.98
125.02
133.27
129.48
114.35
89.89
59.67
27.54
-3.63
-31.82
-57.54
-84.30
-114.67
-148.95
-184.80
-218.49
-247.12
-269.92
-287.55
-302.97
-322.83
-353.20
-397.46
-454.90
-520.67
-586.82
-643.73
-681.96
-676.14
-615.97
-510.94
-386.07
-267.95
-172.57
-103.04
-54.57
-20.38
2.03
13.51
14.38
7.26
-2.38
-8.47
-7.21
1.95
17.53
35.54
50.96
61.00
66.50
71.10
78.61
90.69
106.07
121.75
134.65
142.16
143.90
142.28
141.15
143.52
149.73
157.38
163.09
164.31
160.06
151.80
142.99
137.41
137.49
143.22
152.64
163.61
173.77
180.66
182.08
177.45
169.08
162.53
165.02
182.01
215.28
258.61
298.62
319.90
312.59
278.03
228.79
182.78
154.97
154.14
178.46
218.08
260.82
298.15
327.89
352.99
377.47
403.90
437.00
480.92
537.90
606.65
681.70
753.90
812.57
848.48
830.11
742.27
591.16
402.89
211.14
42.50
-90.49
-187.00
-252.26
-290.42
-307.19
-306.83
-293.80
-273.83
-252.67
-234.33
-220.47
-211.23
-205.19
-198.97
-189.78
-177.20
-163.71
-152.68
-146.26
-144.49
-145.82
-148.45
-149.77
-147.92
-142.77
-137.29
-134.66
-136.50
-142.04
-148.98
-154.93
-157.81
-156.44
-150.94
-145.52
-144.18
-148.87
-158.54
-170.17
-180.72
-188.30
-192.30
-193.30
-197.48
-210.40
-234.71
-269.02
-309.41
-352.09
-395.18
-438.47
-482.62
-534.57
-599.45
-677.87
-764.63
-850.90
-927.97
-989.87
-1033.73
-1019.60
-923.64
-745.29
-511.69
-263.70
-35.77
153.91
301.36
410.65
488.89
537.14
556.72
551.28
528.20
496.76
465.48
438.67
417.23
400.44
382.06
357.13
324.21
286.37
249.44
218.82
199.15
191.02
192.43
196.88
198.63
194.70
185.89
175.60
167.27
162.82
162.00
163.28
162.40
155.56
140.65
118.25
90.89
61.19
30.94
0.62
-27.84
-54.84
-81.73
-110.13
-140.64
-171.32
-198.07
-214.71
-214.73
-193.87
-152.93
-98.01
-39.70
8.70
40.16
50.67
41.03
16.84
-12.87
-38.86
-52.02
-48.90
-31.56
-5.38
22.82
48.07
68.30
84.00
95.82
104.11
108.14
107.29
102.01
93.54
82.04
67.26
48.59
25.82
0.66
-23.09
-39.99
-45.04
-36.77
-16.91
6.94
26.69
37.11
37.47
30.35
19.67
8.49
-2.21
-12.67
-23.23
-33.17
-41.17
-46.23
-48.62
-49.67
-50.90
-53.73
-58.55
-64.84
-71.20
-76.29
-79.35
-80.79
-81.68
-83.07
-85.72
-89.55
-93.69
-96.60
-96.99
-93.27
-84.85
-71.86
-55.02
-35.27
-13.58
9.14
32.11
53.70
73.10
89.50
102.25
111.00
115.74
116.85
114.92
110.70
104.91
98.36
91.65
85.28
79.58
74.72
70.62
66.98
63.30
59.21
54.67
49.98
45.74
42.54
40.72
40.16
40.25
40.10
39.39
37.63
35.25
33.24
32.63
34.06
37.32
41.47
45.15
47.40
47.82
46.97
45.96
45.91
47.64
51.69
58.30
67.08
76.47
83.37
83.81
74.37
54.17
25.97
-4.47
-30.59
-47.78
-55.12
-55.22
-52.19
-49.45
-48.36
-48.46
-48.63
-48.37
-48.16
-48.97
-51.23
-54.34
-56.95
-57.62
-55.44
-50.70
-44.61
-38.76
-34.43
-32.06
-31.12
-30.51
-29.09
-26.13
-21.70
-16.49
-11.53
-7.59
-4.94
-3.16
-1.63
0.37
3.25
6.96
11.02
14.83
17.95
20.30
22.30
24.18
26.47
29.71
34.26
40.23
47.44
55.40
63.49
71.15
77.32
81.47
83.60
84.11
83.63
82.86
82.38
82.53
83.59
84.73
85.37
85.02
83.24
79.59
73.40
63.53
47.95
30.05
10.73
-8.96
-27.64
-43.68
-55.49
-62.00
-63.08
-59.41
-52.31
-44.27
-37.52
-34.02
-35.46
-43.15
-57.68
-78.47
-103.46
-129.24
-152.64
-170.89
-182.68
-188.52
-190.26
-190.07
-189.49
-188.73
-186.65
-181.84
-172.83
-158.91
-140.47
-118.87
-95.99
-73.65
-53.06
-34.66
-18.42
-3.97
9.08
21.09
32.34
43.19
53.98
64.82
75.48
85.31
93.56
99.79
104.24
107.76
111.61
117.00
124.58
134.19
144.85
155.04
163.05
167.59
168.12
165.10
159.81
153.88
148.72
145.08
142.86
141.24
139.00
134.69
126.65
113.43
93.99
67.96
35.63
-1.96
-42.92
-84.83
-125.09
-161.50
-191.86
-213.67
-224.17
-221.25
-204.55
-176.24
-141.08
-105.18
-74.75
-53.35
-40.61
-32.97
-26.04
-16.62
-3.75
11.64
27.68
40.65
48.09
50.15
49.11
47.42
46.44
46.42
46.71
46.05
38.88
21.33
-5.64
-36.36
-64.30
-85.08
-97.35
-102.58
-104.23
-112.74
-135.54
-171.79
-212.92
-248.87
-272.59
-281.02
-274.84
-257.98
-245.42
-251.27
-281.79
-334.30
-402.00
-477.08
-550.43
-612.36
-602.58
-490.54
-298.15
-85.87
93.08
215.20
280.68
302.29
297.70
284.82
269.70
254.53
242.10
236.04
237.35
243.85
253.07
263.58
274.94
279.70
271.61
250.85
224.11
200.38
186.45
186.89
202.54
230.51
260.51
281.35
285.88
271.92
242.09
202.19
160.08
123.33
96.72
78.91
65.36
51.97
35.69
15.62
-8.42
-37.06
-71.63
-113.24
-162.01
-215.83
-261.06
-286.86
-286.75
-261.38
-217.91
-166.57
-116.15
-70.88
-29.84
11.47
56.75
107.99
163.79
219.17
266.41
296.69
302.63
280.85
233.65
167.37
91.16
13.58
-59.87
-127.35
-189.65
-248.76
-306.70
-365.05
-425.22
-486.79
-546.44
-597.76
-632.57
-644.12
-630.08
-593.73
-542.76
-486.56
-432.70
-385.21
-344.66
-309.42
-277.49
-247.32
-217.82
-187.91
-156.48
-122.71
-86.59
-49.14
-11.48
24.94
59.04
90.38
119.27
146.53
172.96
198.69
223.08
246.30
268.02
287.73
305.21
321.36
338.01
356.82
377.97
399.44
420.14
437.59
448.73
451.24
445.20
433.22
419.10
406.03
395.66
392.33
397.75
410.14
424.97
437.63
445.46
448.09
446.87
444.02
447.18
460.63
482.50
505.28
520.11
521.02
506.60
479.70
411.48
293.78
141.04
-16.16
-150.61
-250.29
-316.05
-354.56
-373.25
-378.71
-370.94
-350.93
-322.52
-291.85
-264.00
-240.92
-222.50
-207.62
-195.45
-181.62
-163.89
-142.99
-123.25
-108.38
-99.50
-96.28
-97.24
-100.92
-103.62
-103.01
-99.65
-95.97
-93.89
-93.52
-94.57
-96.03
-97.20
-96.51
-93.32
-89.39
-87.77
-91.30
-95.66
-98.41
-97.36
-91.24
-79.25
-61.70
-41.52
-22.82
-9.10
-2.45
-4.84
-17.66
-42.06
-78.79
-116.88
-146.28
-161.90
-165.47
-161.73
-154.93
-146.76
-137.57
-127.32
-116.09
-105.70
-98.04
-93.86
-92.37
-92.43
-92.75
-92.52
-91.20
-92.78
-96.15
-100.08
-102.76
-101.74
-94.80
-80.46
-58.47
-29.72
8.66
51.32
92.61
128.69
157.78
179.39
193.61
200.87
202.65
199.19
190.10
175.63
156.60
134.65
112.19
92.19
77.66
70.54
70.71
75.48
81.00
83.13
78.73
66.25
45.46
17.58
-15.53
-51.92
-89.71
-126.68
-160.61
-189.35
-211.48
-226.51
-234.85
-237.65
-236.46
-232.65
-226.76
-218.57
-207.13
-191.20
-169.68
-141.76
-107.47
-67.71
-24.27
20.81
65.36
107.55
145.89
179.26
206.83
227.77
241.21
246.40
242.85
230.56
210.12
182.71
149.99
114.03
76.96
40.94
8.01
-20.20
-42.95
-60.62
-74.65
-86.60
-97.26
-106.09
-111.45
-111.42
-105.02
-93.28
-79.31
-67.23
-60.69
-61.41
-69.00
-81.50
-96.26
-110.52
-122.34
-130.48
-134.29
-133.76
-129.92
-125.15
-122.85
-125.74
-133.05
-140.88
-143.52
-135.80
-115.27
-83.65
-46.40
-10.43
18.68
40.84
58.30
73.22
86.31
97.33
106.48
115.03
125.28
139.93
164.61
201.97
249.75
301.51
349.96
389.85
418.80
436.82
445.72
452.79
463.21
477.72
492.87
504.32
509.49
508.04
500.83
458.09
366.89
236.25
92.46
-39.57
-147.81
-231.50
-294.81
-342.93
-379.49
-402.45
-410.88
-407.14
-396.67
-384.91
-374.84
-366.78
-361.13
-354.86
-341.53
-316.88
-280.48
-235.36
-185.60
-134.24
-82.97
-35.62
5.48
41.23
72.60
99.42
120.35
134.26
141.13
142.00
138.28
132.15
126.36
122.72
121.60
122.11
122.96
123.12
124.74
125.79
125.19
122.56
117.59
109.79
98.60
83.67
65.14
40.90
13.67
-13.70
-39.19
-61.45
-79.70
-93.62
-103.34
-109.29
-112.10
-112.44
-111.02
-108.56
-105.60
-102.54
-99.64
-97.07
-94.93
-93.28
-91.91
-90.77
-89.75
-88.64
-87.08
-84.78
-81.45
-76.95
-71.24
-64.48
-57.21
-50.18
-44.15
-39.75
-37.51
-37.78
-40.59
-45.57
-52.00
-59.03
-65.71
-70.90
-73.39
-72.26
-66.91
-57.11
-43.16
-25.76
-6.00
14.85
34.97
53.34
69.10
81.79
91.26
97.50
100.67
101.05
99.05
95.12
90.03
84.44
79.06
74.39
70.54
67.25
64.09
60.67
56.72
52.93
49.49
47.02
45.97
46.34
47.55
48.70
48.98
48.00
46.22
44.52
44.19
46.06
50.16
55.61
60.92
64.81
66.46
66.39
65.03
63.28
61.93
61.49
62.38
64.60
67.18
67.70
62.61
48.45
24.10
-8.01
-42.10
-70.96
-88.92
-93.97
-88.25
-76.39
-63.23
-51.86
-43.28
-37.22
-33.44
-32.22
-34.28
-40.07
-49.22
-60.48
-72.03
-81.55
-86.89
-86.39
-79.46
-66.81
-50.42
-32.77
-16.09
-1.83
9.65
18.88
26.66
33.33
38.43
40.84
39.35
33.04
21.28
4.02
-18.27
-44.53
-72.65
-98.61
-116.79
-121.10
-107.54
-77.51
-38.34
-1.48
21.77
25.23
10.63
-13.21
-34.59
-39.50
-19.99
24.53
88.38
162.58
237.95
306.61
362.07
398.95
413.51
404.15
373.13
326.79
274.23
224.50
184.12
155.63
138.28
129.67
126.83
127.84
131.84
138.55
147.54
158.01
168.83
178.97
187.83
195.06
200.79
205.24
208.39
209.88
209.24
206.26
201.40
195.93
191.36
188.80
188.54
189.79
190.82
189.80
185.14
175.72
160.85
140.39
115.46
88.98
65.37
48.84
41.20
40.31
40.42
34.44
17.19
-12.27
-50.49
-91.65
-130.49
-164.37
-193.51
-219.45
-243.36
-265.21
-284.06
-299.21
-311.03
-320.88
-330.27
-340.22
-350.36
-358.95
-364.54
-365.46
-360.20
-347.76
-328.07
-301.81
-269.89
-233.03
-191.43
-146.34
-99.10
-51.06
-3.62
41.46
82.27
117.27
145.67
167.84
182.54
189.74
191.08
189.40
187.21
185.82
185.48
185.92
187.09
182.46
167.85
143.59
113.77
82.30
50.49
17.42
-18.67
-58.10
-113.55
-191.72
-288.76
-392.42
-490.54
-576.52
-649.02
-709.93
-759.94
-821.36
-907.93
-1017.23
-1133.28
-1239.44
-1326.62
-1392.41
-1438.54
-1464.38
-1497.85
-1556.72
-1639.24
-1727.84
-1805.13
-1863.92
-1905.91
-1938.26
-1804.70
-1442.27
-901.75
-315.38
201.52
602.00
890.95
1092.11
1206.90
1266.22
1262.66
1193.62
1075.28
939.46
815.27
715.95
652.69
621.66
618.94
618.33
604.33
578.44
554.34
544.28
551.17
570.12
591.40
610.40
612.95
593.01
554.44
507.43
461.16
420.21
385.63
355.38
329.81
305.72
282.00
258.76
236.40
214.54
193.19
174.03
159.71
154.97
166.34
198.52
250.88
317.73
391.33
465.80
538.63
609.86
645.15
620.58
536.95
420.38
301.96
200.15
119.92
58.62
11.25
-27.31
-55.75
-72.33
-78.64
-79.08
-78.62
-79.93
-83.84
-89.48
-96.53
-101.11
-96.69
-86.37
-74.85
-66.43
-63.39
-66.29
-73.35
-83.44
-93.93
-103.20
-111.80
-120.76
-130.15
-138.93
-145.70
-147.11
-141.97
-130.99
-116.42
-100.41
-88.20
-80.42
-74.86
-69.04
-57.83
-39.09
-15.20
9.17
29.96
46.82
62.30
80.76
104.69
138.83
184.18
236.32
287.93
332.11
364.13
380.36
379.52
331.41
229.04
97.20
-24.22
-109.41
-155.63
-174.11
-178.19
-173.43
-158.21
-125.17
-71.00
-1.52
70.50
131.86
174.60
179.24
146.43
89.21
27.60
-24.28
-63.26
-93.93
-121.82
-149.22
-174.59
-191.89
-197.41
-189.59
-172.27
-151.51
-133.93
-123.23
-119.59
-120.13
-118.45
-110.01
-92.89
-68.99
-42.34
-17.28
3.99
21.40
37.57
55.42
77.74
106.32
141.27
180.98
221.51
256.70
277.96
277.69
253.05
206.82
146.63
82.67
24.69
-21.91
-49.37
-55.49
-45.70
-27.54
-6.56
15.03
36.51
56.68
75.12
91.27
104.41
114.82
124.32
133.33
142.39
152.56
164.23
176.60
187.99
196.11
199.61
198.63
190.38
174.48
153.85
131.88
109.66
85.65
56.68
19.78
-26.67
-89.03
-168.29
-257.84
-348.49
-433.11
-507.92
-571.48
-623.72
-665.74
-707.79
-755.00
-802.43
-840.22
-859.03
-852.29
-816.86
-753.76
-618.08
-413.67
-190.32
-7.38
102.70
138.96
117.32
59.16
-13.92
-82.62
-139.84
-186.83
-214.68
-217.56
-198.57
-167.78
-136.21
-110.61
-91.10
-78.33
-65.88
-40.49
9.44
85.57
181.03
284.73
386.00
476.75
547.93
595.47
621.74
631.01
627.00
612.84
591.72
566.99
541.47
515.24
488.83
465.78
450.47
445.48
450.25
460.33
468.07
464.58
441.93
396.76
332.76
258.67
184.04
116.41
59.73
14.72
-20.05
-47.02
-68.94
-87.41
-102.51
-114.09
-120.83
-120.13
-108.29
-81.98
-40.11
8.39
49.36
69.17
60.87
27.30
-22.62
-77.52
-126.71
-162.63
-182.26
-190.07
-187.67
-177.04
-159.99
-138.53
-114.80
-91.26
-70.72
-55.92
-48.19
-41.19
-31.30
-16.39
3.54
26.57
49.74
69.94
85.03
94.80
101.14
105.38
108.51
110.69
111.31
109.36
103.65
93.28
78.13
59.41
38.27
16.28
-4.95
-24.28
-41.26
-56.16
-69.62
-82.26
-94.43
-107.14
-121.62
-139.17
-160.67
-186.04
-214.03
-242.38
-268.40
-289.94
-306.35
-318.44
-328.19
-338.41
-352.32
-372.83
-401.36
-436.50
-473.33
-504.01
-520.02
-515.16
-488.17
-443.32
-388.52
-332.35
-280.90
-236.60
-198.80
-165.72
-136.02
-109.18
-84.83
-61.75
-37.95
-11.37
18.69
50.85
81.72
106.85
122.43
126.61
120.22
106.39
89.73
74.92
65.62
63.50
68.10
77.42
88.81
100.08
110.03
118.48
125.76
132.12
137.46
141.47
144.02
145.30
145.50
144.46
141.53
135.90
127.19
116.07
104.21
93.81
86.71
83.65
84.07
86.49
89.15
90.59
90.16
88.03
84.99
81.93
79.26
76.61
73.00
67.22
58.51
47.02
33.85
20.72
9.40
1.09
-3.77
-5.49
-4.86
-2.84
-0.32
2.07
4.08
6.13
9.30
15.09
25.04
40.05
59.90
82.98
106.68
128.22
145.78
159.15
169.81
180.16
192.38
207.60
225.51
244.75
263.68
281.02
296.20
309.16
320.00
328.57
334.37
336.75
335.09
329.35
320.49
310.48
301.84
296.51
294.46
293.01
287.36
272.33
244.48
203.84
153.81
99.82
47.16
-0.75
-42.77
-79.50
-112.21
-142.13
-170.28
-197.61
-225.02
-252.90
-280.84
-307.36
-330.42
-348.22
-360.05
-366.84
-371.08
-376.48
-387.02
-405.46
-431.98
-463.24
-492.85
-513.23
-518.31
-505.87
-478.17
-440.56
-398.73
-356.35
-314.41
-272.41
-230.20
-189.31
-152.26
-120.70
-93.68
-67.44
-37.02
0.81
45.57
93.14
137.79
174.72
201.68
218.90
228.17
232.17
233.94
236.52
241.69
248.52
252.35
245.52
220.60
174.64
112.54
46.65
-7.13
-35.67
-34.14
-8.25
28.39
60.13
75.93
73.34
58.69
43.81
40.02
52.74
79.27
111.10
138.79
156.72
165.05
168.29
171.89
178.89
188.31
195.86
196.88
189.45
176.09
163.34
159.65
171.74
200.70
239.89
275.41
292.60
283.47
251.23
208.41
170.02
145.78
135.44
129.88
114.81
81.15
30.98
-23.59
-67.70
-92.09
-96.52
-87.89
-76.37
-73.88
-86.87
-114.09
-148.43
-182.20
-210.72
-232.84
-249.02
-261.02
-276.27
-302.99
-346.87
-408.70
-485.51
-571.83
-660.50
-743.76
-777.03
-725.18
-584.52
-388.99
-183.53
2.15
157.59
278.20
372.90
444.91
489.77
504.13
490.00
455.37
406.16
348.51
286.34
219.68
147.26
66.03
-24.09
-119.35
-213.06
-298.99
-373.53
-415.27
-413.53
-374.40
-318.55
-265.20
-221.18
-181.15
-135.81
-79.38
-13.58
50.98
102.22
132.36
141.61
136.40
125.33
114.99
108.43
105.70
103.48
99.11
92.18
84.37
77.66
73.04
70.19
68.29
66.75
64.03
59.23
52.79
46.08
40.36
36.27
33.66
32.09
31.19
29.79
26.92
22.10
15.73
8.35
0.70
-6.97
-14.80
-22.99
-31.63
-39.87
-46.05
-48.71
-49.07
-49.18
-52.85
-63.13
-80.12
-100.36
-118.27
-129.15
-131.44
-127.05
-118.86
-108.43
-94.49
-74.28
-46.50
-13.68
17.76
40.26
48.57
42.59
26.58
6.86
-11.06
-24.72
-34.54
-42.48
-50.08
-57.81
-64.90
-70.61
-74.99
-78.94
-84.30
-92.58
-104.57
-119.91
-137.49
-155.81
-173.78
-191.03
-207.89
-225.26
-243.67
-263.15
-282.83
-301.20
-316.31
-326.16
-328.97
-323.01
-308.58
-285.81
-255.09
-217.18
-173.47
-125.94
-77.05
-29.63
13.76
50.92
80.72
102.85
117.81
126.71
130.93
131.89
130.76
128.58
126.07
123.96
122.59
122.10
122.36
123.04
123.77
124.19
124.09
123.44
122.48
121.50
120.78
120.39
120.17
119.87
119.29
118.50
117.88
118.15
119.97
123.80
129.56
136.67
144.19
151.27
157.45
162.93
168.56
175.37
184.18
195.20
208.02
221.65
235.02
247.44
258.88
270.13
282.70
298.71
320.09
347.63
379.94
412.84
440.09
455.19
453.71
435.03
402.57
362.17
319.70
278.94
240.80
204.17
167.58
130.67
94.49
60.83
31.21
6.31
-13.83
-29.16
-39.21
-43.49
-42.39
-38.18
-34.95
-37.16
-47.72
-66.56
-90.78
-116.30
-139.94
-160.60
-178.61
-193.83
-204.22
-206.03
-196.29
-175.67
-149.96
-128.60
-120.52
-129.64
-152.58
-180.06
-201.38
-209.24
-202.43
-185.00
-162.80
-139.72
-115.93
-88.76
-55.32
-15.10
29.24
72.92
111.01
140.10
158.94
168.16
169.54
165.41
158.31
150.80
145.20
143.24
145.83
153.06
164.30
178.26
193.28
207.49
219.29
227.77
232.80
234.97
235.15
233.80
230.47
223.58
210.57
188.62
155.43
110.15
53.87
-10.52
-79.02
-147.67
-213.57
-275.45
-333.04
-385.97
-433.00
-472.13
-501.75
-521.87
-534.59
-542.74
-547.92
-549.05
-542.54
-524.40
-493.02
-451.38
-406.74
-368.19
-342.72
-332.23
-332.82
-336.59
-335.25
-323.40
-300.30
-269.37
-236.08
-205.12
-178.51
-155.39
-133.18
-109.11
-81.09
-47.51
-6.78
42.71
101.44
167.50
236.15
300.96
355.76
397.02
424.79
441.92
452.23
458.61
462.38
463.62
462.30
458.71
453.35
446.16
436.01
421.00
399.40
370.86
336.87
300.68
266.23
236.91
214.45
198.58
187.43
178.50
169.98
161.38
153.50
147.73
144.80
144.08
143.68
141.41
135.83
127.24
117.33
108.29
101.70
97.78
95.54
93.36
90.16
85.55
79.99
74.21
68.58
62.84
56.28
48.64
40.95
35.75
36.17
44.20
59.03
76.61
91.03
96.78
91.22
75.42
53.14
28.62
4.62
-18.15
-40.20
-61.73
-81.70
-98.12
-109.16
-114.39
-114.93
-112.74
-109.48
-105.99
-101.89
-96.45
-89.30
-80.91
-72.74
-66.76
-64.87
-68.35
-77.65
-92.36
-111.48
-133.72
-157.81
-182.58
-207.01
-230.35
-252.18
-272.52
-291.82
-310.83
-330.19
-350.03
-369.50
-386.82
-399.57
-405.28
-402.11
-389.34
-367.65
-338.89
-305.72
-270.84
-236.61
-204.47
-174.94
-147.73
-122.06
-97.02
-71.78
-45.81
-18.93
8.71
36.71
64.58
91.85
118.16
143.22
166.76
188.31
207.28
222.81
233.84
239.23
237.91
229.43
214.12
193.37
169.42
144.81
121.58
100.76
82.45
66.27
52.09
40.40
32.15
28.02
27.95
31.00
35.86
41.52
47.59
54.23
61.40
68.40
73.80
76.16
74.85
70.57
65.23
60.95
59.26
60.36
63.27
66.42
68.38
68.39
66.37
62.54
56.97
49.29
38.71
24.33
5.50
-17.72
-44.64
-73.94
-103.90
-132.54
-157.74
-177.57
-190.57
-196.38
-195.88
-191.06
-184.40
-177.95
-172.65
-168.02
-162.38
-153.72
-140.56
-122.62
-101.16
-78.52
-57.40
-39.87
-26.63
-16.94
-9.08
-1.33
7.17
16.18
24.68
31.71
36.77
40.01
41.76
42.11
40.72
37.11
31.25
23.96
16.96
12.11
10.77
12.92
17.21
21.52
23.83
22.94
18.95
12.99
6.66
1.52
-1.60
-2.56
-1.88
-0.42
0.92
1.33
0.05
-3.69
-10.54
-20.82
-34.15
-49.12
-63.46
-74.65
-80.86
-81.74
-78.67
-74.17
-70.89
-70.48
-73.19
-78.05
-83.57
-88.56
-92.43
-95.19
-96.99
-97.95
-98.01
-97.05
-95.25
-92.92
-90.37
-87.64
-84.22
-79.30
-72.10
-62.27
-50.13
-36.63
-23.08
-10.73
-0.42
7.67
13.90
18.90
23.13
26.60
28.78
28.99
26.89
22.87
18.19
14.62
13.85
16.95
24.25
35.35
49.59
66.21
84.41
103.31
121.87
139.12
154.30
166.98
177.02
184.37
188.82
190.13
188.24
183.55
176.98
169.93
163.70
159.21
156.70
155.84
155.93
156.34
156.60
156.37
155.36
153.23
149.70
144.79
139.08
133.56
129.23
126.41
124.10
120.15
112.03
98.16
79.23
58.28
39.71
27.25
22.06
22.09
23.09
20.91
13.76
3.08
-7.48
-14.18
-15.29
-12.01
-7.79
-6.46
-10.62
-20.81
-35.96
-54.42
-74.92
-96.61
-118.83
-140.50
-159.94
-175.20
-184.76
-188.22
-186.71
-182.91
-180.31
-182.33
-191.25
-207.61
-230.23
-256.49
-283.22
-307.58
-328.03
-344.92
-360.65
-379.21
-405.19
-442.22
-490.98
-547.87
-604.96
-651.65
-677.86
-677.19
-648.91
-597.70
-531.54
-458.75
-385.62
-315.72
-250.38
-190.15
-135.64
-87.56
-46.00
-9.88
23.14
55.70
89.68
125.49
161.87
196.75
228.28
255.85
280.41
304.00
328.82
355.99
385.24
414.67
441.49
462.80
476.37
481.19
477.59
467.04
451.72
433.91
415.33
396.80
378.14
358.45
336.66
311.95
284.10
253.56
221.32
188.67
157.11
127.93
101.92
79.09
58.63
39.37
20.38
1.59
-16.22
-31.65
-43.39
-50.80
-54.13
-54.29
-52.45
-49.67
-46.66
-43.94
-41.98
-41.31
-42.40
-45.34
-49.67
-54.35
-58.05
-59.59
-58.50
-55.07
-50.30
-45.35
-41.18
-38.30
-36.94
-37.47
-40.58
-47.36
-58.79
-75.20
-95.96
-119.42
-143.41
-165.82
-185.12
-200.66
-212.54
-221.33
-227.91
-233.28
-238.60
-245.17
-254.18
-266.37
-281.59
-298.49
-314.56
-326.85
-332.90
-331.73
-323.99
-311.57
-296.46
-279.62
-260.69
-238.34
-211.38
-179.65
-144.13
-106.51
-68.20
-29.82
8.96
48.71
89.70
131.52
173.36
214.48
254.69
294.60
335.42
378.47
424.26
471.66
517.46
556.67
583.66
593.80
584.68
556.66
512.39
455.68
390.48
320.37
248.72
179.07
115.10
60.07
16.07
-16.64
-39.46
-54.72
-64.55
-70.29
-72.32
-70.54
-65.16
-57.21
-48.51
-41.26
-37.37
-37.92
-42.92
-51.19
-60.62
-68.39
-71.56
-67.87
-56.68
-39.31
-18.92
0.58
15.86
25.22
28.90
28.34
25.17
20.48
14.64
7.88
0.80
-5.51
-9.86
-11.71
-11.55
-10.75
-10.97
-13.35
-18.19
-24.90
-32.37
-39.51
-45.50
-50.02
-53.24
-55.72
-58.22
-61.56
-66.37
-72.95
-81.36
-91.31
-102.30
-113.52
-123.87
-131.96
-136.36
-136.11
-131.17
-122.72
-112.88
-104.03
-97.88
-94.99
-94.62
-95.36
-95.82
-95.20
-93.33
-90.27
-85.80
-79.16
-69.28
-55.44
-37.92
-18.28
1.01
17.43
29.40
36.73
40.58
42.87
45.26
48.65
52.91
57.28
60.85
63.10
63.90
63.40
61.80
59.12
55.33
50.48
44.99
39.66
35.51
33.44
33.82
36.35
40.12
44.13
47.60
50.29
52.35
53.87
54.57
53.77
50.66
44.89
37.06
28.70
21.76
17.83
17.42
19.73
22.99
25.23
24.97
21.66
15.60
7.54
-1.79
-11.96
-22.79
-34.16
-45.72
-56.84
-66.62
-74.16
-78.74
-80.06
-78.32
-74.22
-68.87
-63.53
-59.35
-56.93
-56.16
-56.13
-55.51
-53.09
-48.27
-41.23
-32.70
-23.38
-13.61
-3.21
8.24
20.98
34.70
48.62
61.76
73.39
83.18
91.26
97.82
102.90
106.28
107.55
106.50
103.25
98.37
92.55
86.24
79.40
71.52
61.93
50.29
36.84
22.33
7.74
-6.37
-20.00
-33.73
-48.08
-63.05
-77.74
-90.67
-100.39
-106.26
-108.67
-108.91
-108.60
-108.98
-110.47
-112.36
-112.77
-108.88
-97.47
-75.69
-41.88
3.73
58.97
120.08
182.38
241.14
292.16
332.24
359.68
374.69
379.35
377.22
372.09
366.67
361.72
356.11
347.91
335.68
319.37
300.14
279.51
258.28
236.07
211.69
184.08
153.31
120.73
88.36
57.86
29.69
2.96
-23.94
-52.38
-82.79
-114.39
-145.62
-174.85
-200.79
-222.69
-240.21
-253.24
-261.61
-265.03
-263.12
-255.37
-241.54
-221.89
-197.53
-170.43
-143.03
-117.60
-95.50
-77.00
-61.55
-48.42
-37.38
-28.75
-22.92
-19.64
-17.68
-15.06
-9.95
-1.53
9.49
21.08
30.71
36.28
36.72
32.01
22.83
10.20
-4.65
-20.36
-35.70
-49.88
-63.12
-76.68
-92.49
-112.34
-136.98
-165.52
-195.57
-223.73
-246.41
-260.48
-263.73
-255.25
-235.48
-206.32
-170.65
-131.53
-91.61
-52.59
-15.63
18.22
47.43
70.02
84.14
88.79
84.38
72.74
56.57
38.46
20.50
3.96
-10.54
-22.69
-32.40
-39.86
-45.45
-49.58
-52.38
-53.32
-51.29
-44.97
-33.44
-16.72
4.26
27.92
52.80
77.99
103.36
129.43
156.92
186.40
217.85
250.37
281.95
309.46
328.99
336.81
330.53
310.02
277.69
237.64
194.37
151.47
110.85
73.04
37.89
5.40
-24.11
-50.17
-72.86
-92.99
-111.86
-130.86
-150.90
-172.32
-194.79
-217.65
-239.73
-259.34
-274.32
-282.55
-282.59
-274.54
-260.18
-242.51
-224.76
-209.26
-196.81
-186.82
-177.86
-168.55
-157.98
-145.84
-132.12
-116.92
-100.37
-82.80
-64.90
-47.60
-31.76
-17.95
-6.42
2.75
9.45
13.45
14.46
12.24
6.88
-1.23
-11.39
-22.79
-34.49
-45.37
-54.04
-58.98
-58.82
-52.85
-41.28
-25.45
-7.56
9.81
24.30
34.39
39.73
40.95
39.31
36.02
31.72
26.36
19.59
11.22
1.66
-8.06
-16.64
-23.03
-26.60
-27.11
-24.59
-19.24
-11.55
-2.59
6.03
12.59
15.71
14.94
10.80
4.37
-3.25
-11.33
-19.42
-26.92
-32.65
-34.92
-31.98
-22.68
-7.07
13.40
36.20
58.40
77.49
92.00
101.75
107.77
111.98
116.56
123.47
133.89
147.82
164.07
180.40
194.05
202.35
203.35
196.01
180.33
157.14
127.83
94.49
59.78
26.97
-0.80
-21.27
-33.81
-39.43
-40.03
-37.35
-32.20
-24.48
-14.02
-1.49
11.27
21.66
27.45
27.72
23.14
15.68
7.71
1.27
-2.53
-3.57
-2.60
-0.95
-0.03
-1.13
-5.11
-12.33
-22.80
-36.04
-51.21
-67.03
-81.97
-94.45
-103.33
-108.07
-108.89
-106.42
-101.39
-94.35
-85.59
-75.15
-62.98
-49.00
-33.08
-15.02
5.35
28.01
52.63
78.55
104.82
130.45
154.46
176.06
194.62
209.64
220.76
227.62
229.78
226.77
218.04
203.26
182.55
156.68
127.14
95.93
65.28
37.35
13.79
-4.40
-16.94
-24.30
-27.48
-27.83
-26.63
-24.98
-23.48
-22.28
-21.17
-19.76
-17.77
-15.25
-12.73
-11.03
-11.02
-13.27
-17.75
-23.78
-30.35
-36.37
-41.10
-44.24
-45.99
-46.80
-47.15
-47.32
-47.27
-46.70
-45.20
-42.53
-38.77
-34.57
-30.93
-28.99
-29.46
-32.26
-36.33
-39.91
-40.89
-37.55
-29.04
-15.70
0.99
18.95
35.91
50.04
60.31
66.57
69.39
69.78
68.75
67.07
65.20
63.29
61.13
58.28
54.13
48.13
40.00
29.90
18.45
6.57
-4.74
-14.70
-23.09
-30.45
-38.00
-47.35
-59.72
-75.24
-92.46
-108.56
-120.23
-124.89
-121.72
-111.87
-97.92
-82.76
-68.65
-56.63
-46.65
-37.91
-29.41
-20.33
-10.22
0.91
12.58
23.95
34.10
42.27
48.19
52.09
54.62
56.48
58.33
60.66
63.81
67.88
72.74
77.84
82.26
84.81
84.28
79.83
71.24
59.02
44.31
28.56
13.12
-1.05
-13.52
-24.38
-33.99
-42.87
-51.42
-59.85
-67.98
-75.32
-81.07
-84.44
-84.92
-82.49
-77.62
-71.05
-63.38
-54.80
-45.12
-34.01
-21.45
-8.08
4.91
16.09
24.28
29.05
30.75
30.37
29.06
27.68
26.62
25.86
25.15
24.30
23.34
22.34
21.36
20.24
18.60
15.99
12.23
7.71
3.48
1.04
1.71
5.94
13.02
21.16
28.24
32.66
33.95
32.90
31.05
29.84
30.06
31.66
33.94
36.10
37.60
38.28
38.33
38.10
37.82
37.67
37.73
38.04
38.64
39.52
40.62
41.84
43.16
44.56
46.11
47.83
49.70
51.74
53.97
56.48
59.30
62.22
64.95
67.22
69.15
71.52
75.42
81.56
89.30
96.26
98.71
93.06
77.21
51.63
19.02
-16.77
-52.19
-84.81
-113.32
-137.01
-155.35
-167.97
-175.20
-178.41
-179.77
-181.48
-184.83
-189.65
-194.61
-197.91
-198.22
-195.13
-189.09
-181.07
-172.15
-163.08
-154.30
-145.98
-138.16
-130.91
-124.20
-117.79
-111.27
-104.03
-95.55
-85.65
-74.63
-63.22
-52.20
-42.09
-32.76
-23.58
-13.74
-2.69
9.60
22.62
35.74
48.55
61.08
73.72
86.83
100.36
113.76
126.09
136.38
144.04
149.01
151.71
152.98
153.67
154.52
156.00
158.34
161.66
165.95
171.21
177.25
183.83
190.64
197.37
203.86
210.15
216.42
222.77
229.04
234.55
238.24
238.97
235.90
228.85
218.27
204.84
188.91
170.18
147.66
120.28
87.53
49.84
8.59
-34.40
-77.28
-118.33
-155.70
-187.45
-211.74
-227.39
-234.63
-235.14
-231.55
-226.31
-220.82
-215.00
-207.98
-199.09
-188.65
-178.07
-168.94
-161.90
-155.84
-147.97
-134.87
-113.93
-84.49
-48.20
-8.58
30.00
63.32
88.03
102.17
105.39
99.01
85.77
69.15
52.27
37.05
23.80
11.66
-0.23
-11.86
-22.00
-28.91
-31.34
-29.38
-24.42
-18.44
-12.98
-8.55
-4.81
-1.18
2.51
5.75
7.72
7.81
6.09
3.32
0.67
-0.88
-0.95
0.18
1.72
2.81
2.88
1.90
0.33
-1.17
-2.03
-2.03
-1.31
-0.34
0.41
0.61
0.23
-0.50
-1.23
-1.67
-1.68
-1.33
-0.82
-0.37
-0.15
-0.16
-0.35
-0.57
-0.73
-0.77
-0.71
-0.63
-0.58
-0.60
-0.68
-0.81
-0.93
-1.03
-1.09
-1.13
-1.15
-1.16
-1.16
-1.16
-1.17
-1.16
-1.16
-1.16
-1.15
-1.15
-1.15
-1.14
-1.14
-1.14
-1.14
-1.13
-1.13
-1.13
-1.13
-1.13
-1.12
-1.12
-1.12
-1.12
-1.11
-1.11
-1.11
-1.11
-1.10
-1.10
-1.10
-1.10
-1.09
-1.09
-1.09
-1.09
-1.08
-1.08
-1.08
-1.08
-1.08
-1.07
-1.07
-1.07
-1.07
-1.06
-1.06
-1.06
-1.06
-1.06
-1.05
-1.05
-1.05
-1.05
-1.04
-1.04
-1.04
-1.04
-1.03
-1.03
-1.03
-1.03
-1.03
-1.02
-1.02
-1.02
-1.02
-1.02
-1.01
-1.01
-1.01
-1.01
-1.00
-1.00
-1.00
-1.00
-1.00
-0.99
-0.99
-0.99
-0.99
-0.99
-0.98
-0.98
-0.98
-0.98
-0.98
-0.97
-0.97
-0.97
-0.97
-0.97
-0.96
-0.96
-0.96
-0.96
-0.96
-0.95
-0.95
-0.95
-0.95
-0.95
-0.94
-0.94
-0.94
-0.94
-0.94
-0.93
-0.93
-0.93
-0.93
-0.93
-0.92
-0.92
-0.92
-0.92
-0.92
-0.91
-0.91
-0.91
-0.91
-0.91
-0.90
-0.90
-0.90
-0.90
-0.90
-0.90
-0.90
-0.90
-0.91
-0.92
-0.92
-0.93
-0.93
-0.93
-0.94
-0.96
-0.97
-0.98
-0.98
-0.96
-0.92
-0.87
-0.83
-0.80
-0.79
-0.80
-0.81
-0.80
-0.77
-0.71
-0.62
-0.54
-0.48
-0.46
-0.48
-0.50
-0.49
-0.42
-0.29
-0.13
0.02
0.11
0.11
0.05
-0.01
0.01
0.18
0.51
0.94
1.35
1.62
1.70
1.64
1.58
1.68
2.11
2.86
3.83
4.80
5.53
5.90
5.97
6.00
6.27
7.07
8.48
10.41
12.61
14.85
16.94
18.82
20.62
22.51
24.80
27.75
31.45
35.66
39.81
43.05
44.52
43.66
40.40
35.26
29.29
23.64
19.29
16.68
15.59
15.12
14.16
11.79
7.64
2.12
-3.97
-9.74
-14.74
-19.05
-23.09
-27.23
-31.45
-35.42
-38.70
-41.08
-42.71
-44.10
-45.80
-48.16
-51.16
-54.52
-57.85
-60.86
-63.37
-65.42
-67.13
-68.61
-69.92
-71.05
-72.05
-73.08
-74.40
-76.29
-78.90
-82.06
-85.29
-87.86
-89.09
-88.53
-86.07
-81.88
-76.18
-69.04
-60.03
-48.36
-33.11
-13.71
9.56
35.30
61.17
84.47
102.89
115.26
121.61
122.86
120.34
115.23
108.41
100.65
92.82
85.97
81.16
79.21
80.46
84.63
90.97
98.34
105.23
109.90
110.50
105.48
94.11
76.83
55.39
32.39
10.49
-8.36
-23.35
-34.81
-43.65
-50.75
-56.61
-61.29
-64.86
-67.68
-70.55
-74.48
-80.14
-87.60
-96.15
-104.65
-111.87
-116.93
-119.49
-119.67
-117.84
-114.45
-109.87
-104.32
-97.96
-90.90
-83.24
-75.07
-66.50
-57.60
-48.40
-38.90
-29.02
-18.76
-8.28
2.07
11.75
20.21
26.91
31.60
34.33
35.37
35.14
33.96
32.06
29.54
26.46
22.96
19.29
15.81
12.87
10.66
9.03
7.58
5.71
2.92
-1.08
-6.27
-12.39
-19.03
-25.75
-32.04
-37.37
-41.22
-43.18
-43.09
-41.11
-37.67
-33.25
-28.20
-22.62
-16.48
-9.79
-2.76
4.17
10.41
15.47
19.11
21.36
22.54
23.09
23.43
23.85
24.45
25.20
25.93
26.47
26.71
26.59
26.15
25.43
24.45
23.12
21.41
19.26
16.69
13.69
10.34
6.73
3.06
-0.39
-3.41
-5.89
-7.98
-10.09
-12.71
-16.19
-20.58
-25.51
-30.23
-33.92
-35.87
-35.74
-33.55
-29.64
-24.41
-18.21
-11.31
-3.90
3.75
11.24
18.09
23.94
28.61
32.16
34.82
36.85
38.40
39.50
40.08
40.09
39.56
38.58
37.28
35.77
34.11
32.34
30.42
28.26
25.80
22.99
19.84
16.44
12.93
9.39
5.88
2.38
-1.23
-5.11
-9.36
-14.10
-19.40
-25.15
-31.06
-36.57
-40.97
-43.58
-43.89
-41.78
-37.51
-31.68
-24.91
-17.68
-10.22
-2.54
5.33
13.26
20.84
27.57
32.98
36.84
39.24
40.56
41.23
41.54
41.54
41.11
40.10
38.50
36.49
34.33
32.26
30.43
28.75
27.06
25.19
23.06
20.74
18.36
16.02
13.75
11.49
9.10
6.37
3.18
-0.55
-4.82
-9.60
-14.84
-20.37
-25.86
-30.72
-34.19
-35.58
-34.43
-30.73
-24.92
-17.75
-9.95
-2.07
5.67
13.29
20.69
27.62
33.62
38.20
41.06
42.29
42.35
41.88
41.53
41.60
42.07
42.70
43.13
43.14
42.68
41.83
40.67
39.23
37.48
35.36
32.88
30.16
27.38
24.65
22.00
19.27
16.21
12.66
8.60
4.17
-0.38
-4.78
-8.93
-12.92
-16.99
-21.39
-26.12
-30.79
-34.63
-36.77
-36.52
-33.67
-28.56
-21.95
-14.63
-7.23
-0.06
6.78
13.25
19.16
24.25
28.24
30.97
32.50
33.08
33.03
32.66
32.19
31.72
31.30
30.92
30.58
30.22
29.81
29.26
28.49
27.48
26.22
24.72
23.04
21.31
19.59
17.93
16.33
14.65
12.77
10.54
7.89
4.85
1.57
-1.77
-5.01
-8.03
-10.88
-13.70
-16.72
-20.06
-23.66
-27.17
-29.97
-31.37
-30.85
-28.24
-23.82
-18.25
-12.26
-6.47
-1.20
3.59
7.97
12.03
15.62
18.51
20.45
21.36
21.34
20.62
19.49
18.13
16.68
15.22
13.86
12.73
11.88
11.29
10.80
10.21
9.33
8.04
6.33
4.29
2.05
-0.27
-2.56
-4.71
-6.68
-8.45
-10.06
-11.60
-13.16
-14.82
-16.70
-18.93
-21.59
-24.64
-27.83
-30.72
-32.75
-33.46
-32.57
-30.16
-26.53
-22.09
-17.23
-12.16
-7.03
-1.93
2.98
7.48
11.26
14.08
15.77
16.33
15.94
14.94
13.72
12.67
11.97
11.60
11.36
10.97
10.19
8.95
7.39
5.66
3.97
2.38
0.91
-0.54
-2.05
-3.65
-5.23
-6.69
-7.95
-9.11
-10.36
-11.98
-14.21
-17.15
-20.72
-24.72
-28.91
-33.01
-36.61
-39.22
-40.25
-39.26
-36.17
-31.35
-25.52
-19.47
-13.74
-8.49
-3.62
1.03
5.49
9.53
12.89
15.39
17.11
18.26
19.10
19.75
20.20
20.36
20.16
19.56
18.61
17.37
15.91
14.26
12.46
10.59
8.73
6.95
5.30
3.73
2.13
0.47
-1.29
-3.12
-4.89
-6.52
-7.96
-9.25
-10.50
-11.95
-13.76
-16.06
-18.88
-22.02
-25.10
-27.58
-28.84
-28.38
-26.06
-22.03
-16.84
-11.16
-5.63
-0.71
3.42
6.77
9.49
11.69
13.46
14.78
15.68
16.24
16.62
17.03
17.65
18.53
19.52
20.42
20.95
20.94
20.36
19.27
17.79
16.01
14.01
11.85
9.61
7.38
5.24
3.24
1.34
-0.60
-2.77
-5.29
-8.19
-11.24
-14.15
-16.62
-18.53
-20.00
-21.34
-22.90
-24.87
-27.17
-29.38
-30.92
-31.22
-29.99
-27.19
-23.13
-18.23
-12.96
-7.67
-2.62
2.00
6.04
9.32
11.72
13.25
14.09
14.51
14.82
15.19
15.67
16.15
16.47
16.46
16.02
15.15
13.94
12.53
11.05
9.51
7.94
6.28
4.47
2.45
0.23
-2.14
-4.60
-7.09
-9.58
-12.02
-14.37
-16.62
-18.78
-20.97
-23.35
-26.12
-29.33
-32.90
-36.41
-39.23
-40.67
-40.19
-37.62
-33.17
-27.39
-20.93
-14.39
-8.15
-2.40
2.80
7.35
11.20
14.18
16.24
17.38
17.72
17.52
17.06
16.62
16.32
16.23
16.25
16.25
16.10
15.75
15.20
14.49
13.68
12.80
11.82
10.62
9.08
7.11
4.67
1.89
-1.04
-3.85
-6.39
-8.64
-10.77
-13.00
-15.49
-18.38
-21.66
-25.29
-29.24
-33.37
-37.40
-40.82
-42.93
-43.09
-40.99
-36.77
-30.97
-24.39
-17.68
-11.24
-5.26
0.24
5.17
9.35
12.57
14.75
15.99
16.65
17.11
17.67
18.46
19.41
20.35
21.16
21.77
22.15
22.33
22.23
21.74
20.76
19.29
17.42
15.37
13.30
11.27
9.25
7.09
4.70
2.07
-0.72
-3.50
-6.08
-8.34
-10.28
-11.95
-13.48
-15.05
-16.93
-19.37
-22.44
-25.96
-29.38
-31.90
-32.63
-31.01
-27.02
-21.22
-14.57
-8.08
-2.48
1.94
5.22
7.61
9.37
10.68
11.74
12.70
13.72
14.97
16.49
18.20
19.86
21.20
22.01
22.23
21.92
21.25
20.41
19.58
18.84
18.14
17.37
16.36
15.01
13.29
11.28
9.08
6.78
4.43
1.97
-0.60
-3.21
-5.70
-7.89
-9.62
-10.98
-12.21
-13.65
-15.65
-18.42
-21.80
-25.41
-28.59
-30.59
-30.89
-29.25
-25.81
-21.09
-15.66
-10.09
-4.78
0.05
4.29
7.81
10.49
12.26
13.21
13.59
13.71
13.88
14.21
14.67
15.09
15.28
15.16
14.75
14.14
13.43
12.69
11.93
11.13
10.18
9.00
7.49
5.60
3.37
0.87
-1.76
-4.41
-7.03
-9.61
-12.19
-14.73
-17.23
-19.63
-21.91
-24.10
-26.32
-28.65
-31.02
-33.19
-34.75
-35.28
-34.47
-32.23
-28.75
-24.42
-19.61
-14.61
-9.55
-4.48
0.55
5.37
9.72
13.35
16.08
17.97
19.17
19.89
20.34
20.60
20.69
20.65
20.50
20.31
20.18
20.05
19.86
19.51
18.92
18.08
17.00
15.69
14.17
12.39
10.26
7.79
5.00
2.02
-1.00
-3.94
-6.74
-9.37
-11.92
-14.56
-17.44
-20.71
-24.41
-28.47
-32.58
-36.35
-39.17
-40.49
-39.87
-37.10
-32.31
-25.90
-18.50
-10.79
-3.38
3.33
9.18
14.14
18.28
21.64
24.25
26.13
27.36
28.11
28.64
29.19
29.91
30.80
31.65
32.21
32.28
31.77
30.68
29.14
27.34
25.39
23.45
21.56
19.71
17.90
16.08
14.21
12.26
10.23
8.20
6.25
4.49
2.91
1.46
-0.01
-1.74
-3.93
-6.58
-9.51
-12.31
-14.43
-15.36
-14.80
-12.72
-9.39
-5.27
-0.88
3.30
7.00
10.06
12.52
14.45
15.92
16.96
17.56
17.67
17.26
16.27
14.78
12.91
10.90
9.08
7.73
7.06
7.08
7.57
8.28
8.94
9.36
9.49
9.26
8.64
7.56
5.96
3.88
1.50
-0.96
-3.26
-5.32
-7.21
-9.13
-11.31
-13.98
-17.28
-21.30
-26.05
-31.30
-36.60
-41.28
-44.59
-45.90
-45.04
-42.21
-37.92
-32.81
-27.29
-21.59
-15.89
-10.30
-5.03
-0.42
3.30
6.03
7.78
8.71
8.99
8.77
8.28
7.70
7.13
6.63
6.14
5.60
5.01
4.47
4.17
4.28
4.80
5.49
6.03
6.03
5.18
3.49
1.19
-1.39
-3.88
-6.11
-8.09
-9.96
-11.95
-14.18
-16.57
-18.82
-20.57
-21.48
-21.39
-20.34
-18.53
-16.14
-13.33
-10.17
-6.72
-3.11
0.45
3.75
6.60
9.02
11.12
13.13
15.22
17.51
19.93
22.28
24.26
25.59
26.13
25.86
24.94
23.49
21.68
19.56
17.14
14.47
11.67
8.85
6.14
3.51
0.77
-2.30
-5.85
-9.83
-13.98
-18.00
-21.70
-25.05
-28.26
-31.64
-35.36
-39.26
-42.79
-45.18
-45.78
-44.29
-40.93
-36.30
-31.14
-26.00
-21.01
-16.03
-10.77
-5.22
0.28
5.11
8.69
10.79
11.67
11.96
12.28
12.96
13.86
14.48
14.33
13.22
11.38
9.42
7.89
7.00
6.63
6.30
5.55
4.15
2.24
0.22
-1.49
-2.70
-3.59
-4.60
-6.15
-8.54
-11.75
-15.56
-19.68
-23.82
-27.68
-30.94
-33.18
-33.93
-32.86
-29.83
-25.06
-19.11
-12.68
-6.38
-0.63
4.54
9.32
14.00
18.74
23.42
27.73
31.27
33.81
35.38
36.28
36.84
37.33
37.68
37.70
37.10
35.70
33.59
31.03
28.37
25.85
23.57
21.42
19.21
16.78
14.12
11.36
8.65
6.06
3.48
0.62
-2.88
-7.20
-12.22
-17.56
-22.59
-26.68
-29.36
-30.41
-29.88
-28.00
-25.06
-21.30
-16.94
-12.11
-7.04
-2.10
2.27
5.67
7.90
9.14
9.79
10.37
11.19
12.30
13.37
14.06
14.14
13.68
12.93
12.15
11.50
10.90
10.12
8.93
7.26
5.26
3.19
1.34
-0.23
-1.58
-3.07
-5.04
-7.74
-11.18
-15.18
-19.38
-23.42
-27.05
-30.07
-32.28
-33.37
-33.01
-30.96
-27.25
-22.22
-16.44
-10.58
-5.10
-0.16
4.35
8.63
12.78
16.64
19.88
22.15
23.28
23.44
23.05
22.59
22.40
22.45
22.43
22.01
21.02
19.56
17.95
16.47
15.18
13.90
12.27
9.96
6.93
3.44
-0.03
-3.03
-5.35
-7.17
-8.92
-11.13
-14.11
-17.84
-21.95
-25.87
-29.04
-31.09
-31.83
-31.19
-29.19
-25.81
-21.13
-15.32
-8.75
-1.89
4.68
10.46
15.13
18.57
20.89
22.35
23.22
23.72
24.00
24.01
23.73
23.21
22.54
21.91
21.43
21.12
20.82
20.31
19.37
18.01
16.43
14.96
13.80
12.89
11.84
10.18
7.62
4.21
0.44
-3.16
-6.19
-8.66
-10.98
-13.66
-16.97
-20.73
-24.43
-27.27
-28.58
-28.06
-25.71
-21.98
-17.41
-12.47
-7.40
-2.32
2.76
7.64
12.01
15.45
17.63
18.59
18.65
18.42
18.42
18.90
19.73
20.53
20.90
20.65
19.89
18.88
17.85
16.92
16.01
14.94
13.57
11.92
10.09
8.27
6.55
4.91
3.22
1.33
-0.81
-3.17
-5.62
-8.04
-10.44
-12.99
-15.97
-19.56
-23.66
-27.78
-31.18
-33.06
-32.89
-30.65
-26.80
-22.09
-17.19
-12.49
-8.09
-3.86
0.29
4.25
7.69
10.22
11.62
12.00
11.78
11.53
11.73
12.48
13.51
14.25
14.20
13.21
11.50
9.56
7.80
6.37
5.02
3.32
1.00
-1.92
-5.01
-7.72
-9.65
-10.76
-11.41
-12.12
-13.36
-15.26
-17.73
-20.46
-23.14
-25.55
-27.56
-29.06
-29.79
-29.43
-27.63
-24.26
-19.44
-13.65
-7.52
-1.75
3.17
7.04
9.91
12.01
13.61
14.78
15.53
15.82
15.69
15.38
15.16
15.29
15.80
16.45
16.85
16.63
15.70
14.22
12.52
10.91
9.48
8.12
6.56
4.60
2.21
-0.40
-2.95
-5.14
-6.87
-8.29
-9.77
-11.76
-14.54
-18.11
-22.10
-25.89
-28.77
-30.17
-29.81
-27.77
-24.35
-19.96
-14.97
-9.64
-4.22
1.03
5.84
9.87
12.92
15.01
16.36
17.33
18.26
19.28
20.23
20.83
20.79
20.10
18.96
17.83
17.07
16.82
16.88
16.81
16.20
14.84
12.82
10.47
8.08
5.76
3.46
0.96
-1.83
-4.86
-7.87
-10.54
-12.64
-14.24
-15.64
-17.29
-19.55
-22.54
-26.01
-29.47
-32.26
-33.80
-33.73
-32.04
-28.94
-24.75
-19.80
-14.37
-8.73
-3.23
1.70
5.67
8.41
10.00
10.80
11.38
12.21
13.47
15.02
16.49
17.56
18.08
18.12
17.85
17.40
16.77
15.79
14.32
12.34
10.07
7.80
5.86
4.37
3.24
2.37
1.61
0.99
0.64
0.72
1.26
2.03
2.57
2.39
1.15
-0.99
-3.47
-5.31
-5.54
-3.50
0.87
7.07
14.22
21.50
28.40
34.72
40.58
46.05
51.10
55.52
59.19
62.19
64.87
67.65
70.83
74.34
77.83
80.88
83.18
84.78
85.98
87.12
88.36
89.50
90.08
89.62
87.89
85.05
81.64
78.29
75.54
73.63
72.49
71.85
71.39
70.93
70.37
69.62
68.50
66.70
63.98
60.28
55.86
51.33
47.35
44.26
41.91
39.55
36.20
31.15
24.17
15.64
6.29
-3.07
-11.73
-19.10
-24.73
-28.33
-29.94
-30.13
-29.93
-30.49
-32.57
-36.15
-40.29
-43.58
-44.66
-42.73
-37.91
-31.06
-23.49
-16.62
-11.64
-9.30
-9.85
-13.04
-18.29
-24.86
-32.09
-39.46
-46.64
-53.51
-59.99
-66.10
-71.91
-77.60
-83.34
-89.15
-94.70
-99.16
-101.48
-100.64
-96.11
-88.10
-77.38
-65.08
-52.20
-39.39
-26.92
-14.92
-3.61
6.48
14.50
19.48
20.60
17.40
10.03
-0.75
-13.67
-27.30
-40.43
-52.30
-62.71
-71.79
-79.63
-86.19
-91.14
-94.17
-95.21
-94.60
-92.97
-91.00
-89.13
-87.42
-85.59
-83.29
-80.35
-76.93
-73.46
-70.46
-68.34
-67.16
-66.68
-66.30
-65.23
-62.71
-58.11
-51.18
-42.13
-31.63
-20.59
-10.02
-0.72
6.77
12.13
15.32
16.34
15.35
12.71
8.96
4.79
0.76
-2.74
-5.74
-8.40
-10.90
-13.23
-15.03
-15.70
-14.54
-11.07
-5.00
3.59
14.35
26.73
40.08
53.80
67.43
80.62
93.02
104.19
113.35
119.42
121.14
117.36
107.46
91.65
71.08
47.74
24.10
2.54
-15.14
-28.12
-36.61
-41.59
-44.25
-45.51
-45.72
-44.73
-42.21
-38.08
-32.66
-26.67
-20.94
-16.03
-12.00
-8.51
-4.94
-0.79
4.12
9.58
14.97
19.50
22.35
22.95
21.03
16.69
10.29
2.29
-6.79
-16.45
-26.16
-35.28
-43.20
-49.44
-53.87
-56.82
-58.96
-61.02
-63.57
-66.69
-70.08
-73.10
-75.06
-75.28
-73.25
-68.69
-61.61
-52.45
-42.01
-31.35
-21.44
-12.99
-6.27
-1.18
2.59
5.33
7.25
8.47
9.13
9.42
9.58
9.87
10.49
11.50
12.83
14.25
15.47
16.26
16.47
16.12
15.32
14.16
12.68
10.80
8.41
5.45
2.05
-1.55
-5.00
-8.02
-10.43
-12.31
-13.86
-15.35
-17.12
-19.38
-22.29
-25.74
-29.47
-32.91
-35.34
-36.00
-34.31
-30.08
-23.69
-15.97
-7.94
-0.55
5.57
10.20
13.45
15.55
16.76
17.25
17.20
16.81
16.35
16.01
15.89
15.92
15.87
15.51
14.65
13.23
11.35
9.15
6.72
4.12
1.32
-1.74
-5.03
-8.54
-12.19
-15.90
-19.57
-23.05
-26.14
-28.69
-30.65
-32.11
-33.47
-35.16
-37.52
-40.49
-43.53
-45.65
-45.80
-43.26
-37.93
-30.40
-21.74
-13.03
-5.08
1.77
7.60
12.69
17.20
21.09
24.10
26.01
26.82
26.71
26.13
25.42
24.71
23.87
22.56
20.53
17.78
14.58
11.40
8.77
6.91
5.78
5.05
4.33
3.23
1.54
-0.69
-3.19
-5.54
-7.36
-8.53
-9.23
-9.89
-11.05
-13.14
-16.37
-20.74
-26.05
-31.90
-37.75
-42.71
-45.79
-46.02
-42.90
-36.67
-28.35
-19.36
-11.06
-4.21
1.11
5.31
8.89
12.09
14.75
16.53
17.20
16.84
15.98
15.28
15.26
16.14
17.68
19.41
20.90
21.91
22.53
23.03
23.70
24.66
25.84
26.95
27.73
28.01
27.74
26.96
25.66
23.68
20.71
16.44
10.67
3.39
-5.21
-14.89
-25.46
-36.87
-49.06
-61.73
-74.12
-84.95
-92.77
-96.44
-95.56
-90.72
-83.32
-75.04
-67.31
-60.99
-56.32
-53.11
-51.04
-49.83
-49.21
-48.98
-48.86
-48.53
-47.85
-46.83
-45.65
-44.53
-43.55
-42.57
-41.10
-38.51
-34.21
-27.95
-19.89
-10.59
-0.70
9.19
18.77
27.96
36.66
44.60
51.23
55.97
58.33
58.24
56.14
52.78
48.96
45.19
41.59
37.90
33.76
29.00
23.69
18.37
13.72
10.65
10.04
12.81
19.69
31.12
47.04
66.58
88.21
109.84
129.33
144.92
155.76
162.02
164.75
165.55
165.89
166.73
168.31
170.40
172.57
174.38
175.37
174.76
171.36
163.88
151.56
134.95
116.09
97.88
82.85
72.21
65.44
61.20
58.45
57.30
58.81
63.91
72.16
81.34
88.08
89.21
82.90
69.02
48.51
22.55
-7.86
-41.59
-76.62
-109.67
-136.73
-154.22
-160.43
-156.09
-144.02
-127.78
-110.47
-93.75
-77.85
-61.92
-44.68
-24.99
-2.25
23.20
50.13
76.51
100.06
118.85
131.75
138.55
139.62
135.64
127.27
115.28
100.58
84.16
66.86
49.13
31.09
12.99
-4.48
-20.14
-32.76
-41.90
-48.20
-53.01
-57.48
-61.63
-64.19
-63.17
-57.16
-46.27
-32.47
-18.82
-8.53
-4.24
-7.86
-20.69
-43.27
-74.90
-112.98
-152.91
-188.86
-215.19
-228.00
-225.95
-210.28
-183.96
-150.81
-114.73
-79.35
-47.72
-21.91
-2.68
10.67
19.80
26.63
32.40
37.47
41.44
43.79
44.58
44.54
44.96
46.99
51.12
57.00
63.68
70.10
75.61
80.21
84.31
88.32
92.16
95.22
96.52
95.12
90.52
82.65
71.73
58.18
42.82
27.04
13.03
3.47
0.77
6.17
19.15
37.66
58.94
80.63
101.21
119.90
136.11
149.03
157.91
162.74
164.99
167.61
174.21
187.54
208.33
234.75
263.13
289.46
310.72
325.66
334.51
337.92
336.05
328.11
312.65
288.45
255.56
215.74
172.22
128.80
88.79
54.36
26.45
5.13
-9.93
-19.35
-24.13
-25.88
-26.78
-29.05
-34.22
-42.63
-53.38
-64.72
-74.93
-82.99
-88.69
-92.50
-95.02
-96.78
-98.15
-99.62
-101.91
-106.06
-113.12
-124.07
-139.68
-160.30
-185.63
-214.37
-244.09
-271.53
-293.32
-307.05
-312.04
-309.37
-301.37
-290.52
-278.70
-266.78
-254.86
-242.78
-230.42
-217.86
-205.14
-192.13
-178.46
-163.75
-147.75
-130.66
-113.20
-96.69
-82.70
-72.55
-66.74
-64.61
-64.48
-64.43
-63.27
-61.23
-59.86
-61.07
-65.93
-73.95
-83.31
-91.92
-98.76
-104.41
-110.61
-118.93
-129.58
-141.03
-150.65
-156.11
-156.39
-152.10
-144.84
-136.08
-126.44
-115.69
-103.26
-89.03
-73.70
-58.73
-45.68
-35.66
-28.79
-24.17
-20.12
-14.73
-6.35
5.86
21.78
40.37
60.01
78.96
95.81
109.73
120.38
127.80
132.18
133.92
133.66
132.47
131.49
131.51
132.47
133.27
132.14
127.44
118.55
106.19
92.17
78.58
66.82
57.07
48.36
39.21
28.38
15.43
0.80
-14.63
-29.91
-44.58
-58.61
-72.16
-85.31
-97.88
-109.59
-120.46
-131.06
-142.26
-154.63
-167.45
-178.43
-184.02
-180.70
-166.52
-141.94
-109.85
-74.45
-39.86
-8.98
16.67
36.55
50.24
56.88
55.23
44.29
23.98
-4.37
-38.22
-74.64
-111.21
-146.72
-181.20
-215.12
-248.47
-279.99
-307.20
-327.15
-337.34
-336.59
-325.21
-304.67
-276.94
-243.97
-207.34
-168.21
-127.51
-85.94
-44.33
-3.91
33.52
65.60
89.89
104.85
110.50
108.68
102.49
95.24
89.34
85.68
83.92
83.19
83.04
83.93
87.10
94.00
105.38
120.83
138.79
156.93
172.94
185.26
193.52
198.62
202.36
206.53
212.29
219.72
227.83
235.18
240.53
243.38
244.04
243.24
241.45
238.60
234.12
227.26
217.62
205.40
191.27
176.13
160.90
146.38
133.32
122.31
113.44
106.31
99.80
92.50
83.24
71.56
57.91
43.48
29.70
17.69
7.92
0.11
-6.52
-12.97
-20.00
-28.08
-37.30
-47.58
-58.90
-71.29
-84.73
-98.84
-112.69
-124.97
-134.47
-140.51
-143.23
-143.57
-142.76
-141.90
-141.61
-141.97
-142.72
-143.30
-143.07
-141.34
-137.55
-131.39
-123.06
-113.34
-103.43
-94.69
-88.16
-84.31
-82.80
-82.72
-82.75
-81.67
-78.58
-72.92
-64.53
-53.44
-40.04
-25.02
-9.45
5.45
18.55
29.17
37.29
43.43
48.42
53.00
57.44
61.58
64.97
67.28
68.53
69.13
69.63
70.38
71.35
71.98
71.57
69.63
66.22
61.81
57.17
52.78
48.62
44.17
38.69
31.63
22.87
12.79
2.07
-8.61
-18.75
-28.16
-36.90
-45.18
-53.21
-61.07
-68.59
-75.39
-81.00
-85.05
-87.39
-88.00
-86.93
-84.23
-79.95
-74.34
-67.89
-61.19
-54.81
-48.87
-42.91
-36.02
-27.24
-15.99
-2.50
12.32
27.09
40.47
51.49
59.70
65.15
68.17
69.29
68.98
67.77
66.15
64.57
63.41
62.82
62.73
62.80
62.57
61.74
60.36
58.93
58.04
58.06
58.78
59.32
58.52
55.52
50.31
43.89
38.03
34.49
34.34
37.55
43.09
49.37
54.88
58.73
60.61
60.68
59.13
55.87
50.60
42.97
33.00
21.32
9.08
-2.39
-12.15
-20.01
-26.47
-32.38
-38.36
-44.40
-49.84
-53.77
-55.65
-55.63
-54.62
-53.75
-53.75
-54.60
-55.47
-55.26
-53.20
-49.33
-44.45
-39.87
-36.74
-35.65
-36.44
-38.27
-39.84
-39.73
-36.71
-30.05
-19.96
-7.67
4.63
14.42
19.66
19.58
14.99
7.82
0.34
-5.89
-10.44
-13.78
-16.61
-19.03
-20.37
-19.49
-15.43
-8.03
1.91
13.08
24.23
34.67
44.42
53.93
63.70
73.97
84.55
94.95
104.61
113.07
120.16
126.13
131.61
137.53
144.81
153.99
164.94
176.92
188.70
199.02
207.02
212.56
216.36
219.91
225.23
234.28
248.31
267.03
288.31
308.37
322.72
327.62
321.22
304.07
278.76
248.83
217.78
188.35
162.36
140.77
123.83
111.09
101.39
93.11
84.42
73.74
60.07
43.08
23.07
0.90
-22.22
-45.01
-66.44
-86.20
-104.81
-123.42
-143.17
-164.59
-187.21
-209.63
-229.90
-246.19
-257.36
-263.35
-265.26
-265.16
-265.51
-268.54
-275.52
-286.45
-300.05
-314.03
-325.80
-333.02
-334.17
-328.75
-317.25
-300.73
-280.35
-256.97
-231.11
-203.24
-174.24
-145.55
-118.85
-95.33
-75.15
-57.50
-41.31
-26.20
-12.97
-3.21
1.80
2.25
0.47
0.26
5.51
18.54
39.11
64.60
91.01
114.47
132.30
143.58
148.82
149.34
146.66
142.02
136.18
129.41
121.46
111.62
99.21
84.21
67.82
52.65
41.89
37.99
41.37
49.88
59.42
65.74
66.20
60.75
51.54
41.41
32.20
23.67
13.64
-0.94
-22.52
-51.89
-88.04
-128.62
-170.96
-212.60
-251.47
-285.48
-312.07
-328.17
-330.89
-318.51
-291.33
-251.97
-204.52
-153.32
-101.82
-52.26
-5.92
36.08
72.45
102.05
124.41
140.31
151.64
160.54
168.40
175.07
179.07
178.29
171.22
157.63
138.75
116.73
93.91
72.19
52.78
36.20
22.40
11.06
1.55
-6.88
-14.93
-23.07
-31.25
-39.03
-45.72
-50.84
-54.24
-56.08
-56.55
-55.72
-53.45
-49.60
-44.41
-38.55
-33.09
-28.88
-26.34
-25.11
-24.39
-23.30
-21.25
-18.11
-13.94
-8.83
-2.71
4.38
12.05
19.43
25.31
28.57
28.61
25.65
20.47
14.12
7.48
1.09
-4.72
-9.65
-13.27
-15.09
-14.72
-12.21
-8.11
-3.42
0.73
3.48
4.51
4.15
3.20
2.53
2.73
3.85
5.50
7.14
8.42
9.43
10.65
12.71
16.00
20.45
25.45
30.07
33.27
34.30
32.82
28.90
22.93
15.37
6.54
-3.43
-14.52
-26.52
-38.88
-50.65
-60.83
-68.78
-74.51
-78.76
-82.60
-86.90
-91.93
-97.28
-102.10
-105.59
-107.29
-107.16
-105.41
-102.18
-97.35
-90.55
-81.29
-69.15
-54.01
-36.18
-16.40
4.36
25.14
45.16
64.07
81.96
99.19
116.26
133.57
151.23
168.91
185.81
200.77
212.49
219.83
222.16
219.53
212.77
203.26
192.58
182.18
173.05
165.54
159.44
154.17
149.14
143.91
138.22
131.65
123.44
112.39
97.11
76.63
50.93
21.16
-10.51
-41.45
-69.18
-91.77
-108.07
-117.67
-120.80
-118.31
-111.47
-101.87
-91.10
-80.58
-71.28
-63.73
-57.98
-53.71
-50.38
-47.32
-43.98
-40.04
-35.41
-30.29
-24.94
-19.60
-14.36
-9.24
-4.19
0.77
5.58
10.21
14.68
19.07
23.44
27.71
31.61
34.78
36.89
37.79
37.63
36.63
35.07
33.12
30.83
28.04
24.56
20.18
14.96
9.33
4.16
0.57
-0.42
1.71
6.71
13.73
21.79
30.28
39.31
49.40
60.93
73.52
85.85
96.08
102.62
104.75
102.93
98.37
92.38
85.78
78.88
71.78
64.85
58.76
54.09
50.60
46.90
40.68
29.72
12.86
-9.38
-34.98
-61.20
-85.57
-106.51
-123.40
-136.23
-145.27
-150.93
-153.79
-154.74
-155.10
-156.44
-160.32
-167.93
-179.55
-194.28
-209.99
-223.83
-232.98
-235.51
-231.02
-220.64
-206.38
-190.32
-174.00
-158.16
-143.02
-128.65
-115.10
-102.52
-90.87
-79.79
-68.68
-57.00
-44.56
-31.63
-18.79
-6.58
4.69
15.12
24.91
34.13
42.42
48.95
52.71
53.05
50.14
45.00
39.19
33.99
29.56
24.51
16.07
1.00
-23.15
-56.80
-98.00
-142.63
-185.39
-221.11
-245.78
-257.19
-255.09
-240.95
-217.52
-188.29
-156.77
-125.94
-97.93
-73.80
-53.79
-37.63
-24.92
-15.21
-7.89
-1.99
3.72
10.52
19.35
30.61
43.97
58.63
73.55
87.66
100.13
110.44
118.48
124.69
129.92
135.08
140.85
147.49
154.82
162.52
170.43
178.64
187.32
196.29
204.74
211.40
215.07
215.18
212.32
208.03
204.19
202.34
203.08
206.08
210.47
215.43
220.59
226.18
232.83
241.34
252.34
266.25
283.05
302.13
322.26
341.58
357.97
369.57
375.20
374.76
369.22
360.33
350.20
340.69
332.99
327.18
322.10
315.56
305.04
288.65
266.12
239.17
211.00
185.07
163.79
147.69
135.51
125.13
114.75
103.47
91.17
77.85
62.86
44.86
22.44
-5.08
-36.93
-71.06
-104.75
-135.59
-161.99
-183.38
-199.78
-211.54
-219.02
-222.59
-222.77
-220.27
-215.93
-210.47
-204.27
-197.42
-189.93
-181.93
-173.96
-166.89
-161.71
-159.13
-159.37
-162.13
-166.72
-172.45
-179.02
-186.65
-196.23
-209.35
-227.96
-253.71
-286.74
-324.55
-361.87
-391.84
-408.36
-408.57
-394.07
-370.24
-344.13
-321.78
-306.52
-298.78
-296.93
-298.53
-300.92
-301.48
-297.82
-288.21
-272.32
-251.63
-229.11
-208.07
-191.12
-179.46
-172.75
-169.70
-168.57
-167.61
-165.01
-159.06
-148.31
-131.85
-109.70
-82.74
-52.48
-20.69
11.09
41.76
70.55
96.95
120.39
140.07
154.99
164.28
167.64
165.98
161.54
157.52
157.06
161.96
171.76
183.64
193.37
197.01
192.55
180.69
164.53
148.24
135.56
128.63
127.80
132.17
140.25
150.45
161.15
170.67
177.22
179.32
176.17
168.01
155.91
141.34
125.50
108.93
91.74
74.08
56.53
40.25
26.57
16.48
10.28
7.51
7.11
7.69
7.64
5.28
-0.89
-11.49
-25.76
-41.49
-55.50
-64.92
-68.44
-66.84
-62.59
-58.64
-57.06
-58.50
-62.47
-68.18
-75.26
-83.74
-93.34
-102.67
-109.01
-108.93
-99.58
-79.87
-51.17
-16.85
18.74
51.65
79.22
100.47
115.62
125.34
130.09
129.87
124.44
113.90
99.06
81.62
63.82
47.83
35.13
26.07
19.96
15.32
10.45
3.86
-5.34
-17.25
-31.21
-45.96
-60.05
-72.17
-81.62
-88.49
-93.67
-98.70
-105.32
-115.00
-128.38
-144.90
-162.92
-180.14
-194.11
-202.73
-204.56
-198.94
-185.98
-166.68
-142.84
-116.90
-91.49
-68.58
-48.97
-32.14
-16.70
-1.17
15.29
32.63
50.03
66.41
80.85
92.84
102.24
109.29
114.44
118.41
122.09
126.32
131.54
137.67
143.92
149.13
152.06
151.69
147.24
138.24
124.25
104.89
80.10
50.30
16.60
-19.24
-55.29
-89.77
-121.40
-149.34
-172.94
-191.28
-203.12
-207.14
-202.41
-188.98
-168.01
-141.64
-112.31
-82.20
-52.81
-24.91
1.12
25.03
46.17
63.57
75.99
82.37
82.23
76.03
65.28
52.40
40.15
30.76
25.31
23.32
22.88
21.45
16.62
7.09
-6.98
-23.98
-41.47
-56.96
-68.56
-75.38
-77.58
-76.10
-72.39
-68.07
-64.68
-63.46
-65.32
-70.69
-79.61
-91.65
-106.13
-121.98
-137.71
-151.42
-160.95
-164.41
-160.73
-150.18
-134.20
-115.01
-94.75
-74.81
-55.67
-37.14
-18.97
-1.26
15.33
29.91
41.68
50.34
56.21
60.15
63.35
67.06
72.31
79.67
89.16
100.27
112.20
123.90
134.35
142.72
148.40
151.00
150.31
146.08
137.94
125.44
108.23
86.43
60.89
33.27
5.76
-19.54
-41.05
-58.20
-71.25
-80.95
-88.04
-92.86
-95.29
-94.88
-91.14
-83.74
-72.63
-58.11
-40.67
-20.99
0.12
21.75
43.03
63.17
81.50
97.62
111.30
122.53
131.46
138.43
143.77
147.81
150.71
152.41
152.78
151.69
149.22
145.65
141.46
137.15
133.08
129.38
125.93
122.52
118.92
114.99
110.74
106.29
101.81
97.45
93.27
89.18
85.02
80.63
75.93
70.99
65.98
61.09
56.51
52.39
48.95
46.56
45.70
46.81
50.15
55.54
62.50
70.43
79.01
88.31
98.78
110.86
124.54
139.27
153.84
166.88
177.24
184.25
187.97
189.13
189.09
189.62
192.46
198.53
207.31
216.62
223.20
224.05
217.73
205.09
188.83
172.25
157.73
145.84
135.45
124.56
111.39
94.89
74.57
50.16
21.43
-11.40
-47.04
-82.86
-115.26
-140.67
-156.81
-163.40
-161.99
-155.35
-146.43
-137.80
-131.41
-128.81
-131.16
-139.08
-152.17
-168.79
-186.21
-201.18
-210.99
-214.12
-210.72
-202.38
-191.57
-180.57
-170.79
-162.35
-154.20
-144.85
-133.16
-119.08
-103.85
-89.77
-79.32
-74.31
-75.12
-80.40
-87.53
-93.46
-95.71
-93.20
-86.55
-77.74
-69.35
-63.74
-62.41
-65.80
-73.49
-84.46
-97.60
-111.84
-126.22
-139.72
-151.19
-159.16
-162.09
-158.72
-148.41
-131.45
-109.03
-82.94
-55.12
-27.38
-1.10
22.59
42.75
58.61
69.63
75.80
77.70
76.45
73.33
69.43
65.26
60.73
55.26
48.15
39.06
28.32
16.86
6.12
-2.40
-7.63
-9.24
-7.64
-3.89
0.83
5.65
10.13
14.34
18.47
22.55
26.08
28.09
27.43
23.32
15.88
6.37
-3.12
-10.28
-13.44
-12.00
-6.35
2.39
13.07
24.63
36.17
46.66
54.96
60.04
61.62
60.51
58.39
57.34
58.81
62.89
68.15
72.07
71.98
66.17
54.52
38.68
21.55
6.26
-4.70
-10.31
-10.90
-7.78
-2.62
3.06
7.94
10.68
9.69
3.42
-9.11
-27.54
-49.84
-72.57
-91.77
-104.23
-108.35
-104.48
-94.46
-80.82
-66.09
-52.27
-40.87
-32.97
-29.39
-30.50
-35.93
-44.35
-53.58
-61.15
-65.11
-64.85
-61.17
-56.01
-51.30
-48.11
-46.19
-44.28
-41.06
-35.99
-29.81
-24.10
-20.49
-19.68
-21.18
-23.58
-25.23
-25.05
-22.85
-19.32
-15.47
-12.22
-10.01
-8.78
-8.31
-8.39
-8.98
-10.10
-11.56
-12.78
-12.88
-10.94
-6.50
0.22
8.26
16.14
22.43
26.04
26.47
23.75
18.38
11.20
3.26
-4.08
-9.43
-11.55
-9.70
-3.91
4.89
15.10
24.86
32.62
37.64
40.01
40.53
40.26
40.03
40.28
40.97
41.77
42.22
41.86
40.26
37.09
32.23
25.76
18.04
9.57
0.88
-7.48
-15.03
-21.34
-25.98
-28.66
-29.27
-27.96
-25.00
-20.83
-15.94
-10.93
-6.59
-3.72
-2.98
-4.63
-8.44
-13.67
-19.46
-25.02
-29.82
-33.62
-36.28
-37.69
-37.71
-36.25
-33.28
-28.97
-23.59
-17.55
-11.34
-5.55
-0.67
3.06
5.76
7.86
9.89
12.22
14.84
17.36
19.28
20.20
20.17
19.72
19.69
20.93
24.00
29.03
35.79
43.86
52.69
61.60
69.69
75.96
79.36
79.16
75.28
68.44
59.98
51.57
44.64
39.95
37.58
36.97
37.30
37.89
38.50
39.32
40.89
43.74
48.06
53.63
59.95
66.37
72.27
77.10
80.20
80.82
78.34
72.57
64.19
54.80
46.44
40.99
39.36
41.22
45.25
49.67
52.82
53.45
50.69
43.86
32.45
16.28
-4.14
-27.28
-50.69
-71.61
-87.76
-98.09
-103.13
-104.65
-104.99
-106.30
-109.79
-115.56
-122.74
-129.84
-135.20
-137.38
-135.36
-128.70
-117.54
-102.57
-84.95
-66.09
-47.46
-30.24
-15.19
-2.52
8.05
17.08
25.13
32.50
39.17
44.89
49.39
52.56
54.59
55.73
56.10
55.56
53.61
49.66
43.36
34.82
24.75
14.30
4.70
-3.20
-9.22
-13.94
-18.42
-23.71
-30.44
-38.56
-47.52
-56.51
-65.03
-72.97
-80.61
-88.26
-95.88
-102.89
-108.32
-111.04
-110.20
-105.35
-96.58
-84.49
-70.01
-54.29
-38.48
-23.63
-10.45
0.67
9.75
17.00
22.67
26.91
29.74
31.15
31.25
30.39
29.17
28.40
28.90
31.23
35.56
41.57
48.56
55.58
61.76
66.49
69.52
70.88
70.71
69.07
65.91
61.29
55.68
50.07
45.87
44.25
45.66
49.35
53.63
56.51
56.57
53.65
48.71
43.23
38.42
34.70
31.66
28.62
25.15
21.39
17.95
15.53
14.55
15.04
16.79
19.55
23.22
27.81
33.33
39.57
46.14
52.46
57.86
61.62
63.07
61.79
57.79
51.60
44.28
37.22
31.67
28.39
27.39
27.90
28.74
28.64
26.70
22.57
16.53
9.32
1.99
-4.34
-8.59
-9.92
-7.86
-2.53
5.28
14.16
22.47
28.97
33.21
35.70
37.57
39.82
42.82
45.93
47.91
47.65
44.80
39.93
34.23
28.80
24.07
19.73
14.96
9.16
2.31
-4.92
-11.63
-17.21
-21.67
-25.61
-29.81
-34.55
-39.33
-42.92
-43.98
-41.80
-36.88
-30.88
-26.17
-24.81
-27.85
-35.00
-44.93
-55.78
-65.80
-73.75
-78.96
-81.29
-80.94
-78.50
-74.74
-70.50
-66.32
-62.22
-57.71
-52.03
-44.65
-35.71
-26.27
-18.09
-13.10
-12.70
-17.30
-26.14
-37.70
-50.12
-61.76
-71.49
-78.68
-83.09
-84.73
-83.78
-80.65
-75.91
-70.23
-64.18
-58.09
-52.03
-45.85
-39.36
-32.44
-25.06
-17.35
-9.55
-1.94
5.20
11.65
17.30
22.12
26.02
28.88
30.47
30.61
29.32
27.03
24.69
23.62
25.24
30.58
39.87
52.36
66.55
80.60
92.90
102.35
108.31
110.42
108.30
101.63
90.42
75.46
58.33
41.19
26.13
14.52
6.69
1.91
-1.20
-4.26
-8.48
-14.46
-21.98
-30.05
-37.28
-42.31
-44.31
-43.24
-39.79
-34.97
-29.73
-24.57
-19.59
-14.75
-10.27
-6.71
-4.76
-4.99
-7.42
-11.55
-16.59
-21.78
-26.83
-31.89
-37.31
-43.31
-49.73
-55.95
-61.10
-64.41
-65.48
-64.42
-61.67
-57.78
-53.14
-47.85
-41.66
-34.24
-25.37
-15.06
-3.73
8.03
19.49
29.96
38.90
45.94
50.96
54.04
55.63
56.33
56.83
57.77
59.41
61.63
63.93
65.56
65.74
63.96
59.97
53.81
45.71
35.91
24.78
12.71
0.33
-11.49
-21.71
-29.30
-33.60
-34.52
-32.59
-28.73
-23.97
-19.00
-13.97
-8.50
-1.94
6.26
16.27
27.73
39.96
52.26
64.27
76.09
88.29
101.57
116.43
132.96
150.67
168.71
186.02
201.60
214.61
224.48
230.93
233.97
233.97
231.57
227.66
223.10
218.47
213.70
208.03
200.08
188.35
171.74
149.81
122.93
91.90
57.59
20.93
-16.88
-54.03
-88.06
-116.26
-136.65
-148.80
-154.18
-155.61
-156.15
-157.97
-161.64
-166.35
-170.55
-172.99
-173.32
-172.26
-171.16
-171.53
-174.53
-180.76
-190.14
-201.97
-215.14
-228.17
-239.41
-247.37
-250.98
-250.05
-245.35
-238.39
-230.96
-224.48
-219.39
-215.07
-210.13
-203.07
-192.97
-179.93
-165.05
-150.15
-137.11
-127.36
-121.46
-119.09
-119.32
-120.96
-122.92
-124.51
-125.43
-125.60
-125.00
-123.40
-120.34
-115.38
-108.32
-99.59
-90.19
-81.46
-74.48
-69.46
-65.38
-60.15
-51.26
-36.66
-15.41
11.96
43.77
77.61
110.84
140.85
165.23
181.92
189.58
188.00
178.34
163.08
145.37
128.23
113.66
102.36
93.91
87.32
81.68
76.44
71.53
67.12
63.43
60.57
58.63
57.69
57.82
59.06
61.27
64.05
66.81
69.02
70.39
71.04
71.39
71.88
72.68
73.40
73.23
71.12
66.22
58.20
47.34
34.44
20.54
6.68
-6.43
-18.31
-28.72
-37.57
-44.82
-50.40
-54.22
-56.28
-56.66
-55.71
-53.81
-51.43
-48.93
-46.51
-44.27
-42.16
-40.18
-38.21
-36.07
-33.43
-29.93
-25.26
-19.45
-12.87
-6.12
0.11
5.40
9.63
12.98
15.63
17.64
18.85
18.93
17.67
15.24
12.15
9.18
7.07
6.19
6.46
7.41
8.46
9.22
9.63
9.99
10.66
11.86
13.44
14.96
15.94
16.14
15.71
15.03
14.53
14.28
13.91
12.68
9.94
5.41
-0.48
-6.72
-12.05
-15.48
-16.55
-15.48
-12.95
-9.63
-5.93
-1.97
2.44
7.34
12.47
17.19
20.76
22.67
22.95
22.18
21.20
20.64
20.62
20.65
20.01
18.16
15.16
11.58
8.25
5.76
4.12
2.80
1.09
-1.44
-4.67
-7.99
-10.64
-12.18
-12.61
-12.37
-11.98
-11.70
-11.46
-10.91
-9.78
-8.07
-6.15
-4.46
-3.27
-2.44
-1.43
0.43
3.47
7.60
12.19
16.37
19.53
21.53
22.77
23.93
25.53
27.64
29.84
31.51
32.18
31.95
31.34
31.06
31.53
32.59
33.60
33.75
32.59
30.28
27.52
25.10
23.54
22.73
22.09
20.90
18.77
15.76
12.37
9.19
6.60
4.55
2.61
0.25
-2.82
-6.46
-10.08
-12.90
-14.20
-13.68
-11.55
-8.37
-4.86
-1.43
1.79
4.97
8.33
11.81
15.02
17.39
18.50
18.34
17.32
16.06
15.11
14.59
14.20
13.44
11.92
9.71
7.29
5.35
4.43
4.60
5.37
5.90
5.46
3.81
1.30
-1.33
-3.33
-4.38
-4.71
-4.98
-5.82
-7.48
-9.69
-11.92
-13.68
-14.89
-15.89
-17.16
-18.88
-20.59
-21.45
-20.51
-17.31
-12.17
-6.05
-0.20
4.49
7.76
9.98
11.75
13.53
15.34
16.84
17.55
17.26
16.20
14.91
14.06
14.02
14.75
15.74
16.34
16.08
14.98
13.44
12.06
11.25
10.92
10.63
9.72
7.74
4.82
1.52
-1.33
-3.20
-4.04
-4.38
-5.04
-6.61
-9.15
-12.19
-14.93
-16.70
-17.22
-16.63
-15.36
-13.70
-11.66
-9.04
-5.61
-1.44
3.04
7.11
10.09
11.63
11.89
11.41
10.83
10.52
10.47
10.31
9.51
7.84
5.53
3.14
1.42
0.73
0.95
1.52
1.67
0.90
-0.81
-2.99
-4.99
-6.30
-6.85
-6.99
-7.29
-8.17
-9.72
-11.66
-13.58
-15.27
-16.76
-18.33
-20.23
-22.26
-23.78
-23.91
-21.90
-17.61
-11.72
-5.40
0.12
4.13
6.75
8.58
10.39
12.54
14.84
16.70
17.54
17.21
16.07
14.78
13.88
13.52
13.39
12.91
11.61
9.51
7.04
4.82
3.41
2.88
2.84
2.61
1.61
-0.34
-2.83
-5.20
-6.82
-7.46
-7.46
-7.48
-8.22
-10.06
-12.84
-15.96
-18.64
-20.24
-20.46
-19.40
-17.47
-15.01
-12.28
-9.33
-6.10
-2.62
0.82
3.80
5.88
6.87
7.01
6.81
6.90
7.73
9.28
11.14
12.69
13.49
13.48
12.98
12.47
12.28
12.44
12.53
12.06
10.77
8.84
6.76
5.14
4.23
3.79
3.19
1.73
-0.84
-4.23
-7.71
-10.56
-12.47
-13.74
-15.02
-16.97
-19.64
-22.45
-24.34
-24.35
-22.07
-17.84
-12.60
-7.40
-2.93
0.65
3.66
6.54
9.39
12.00
13.82
14.40
13.66
12.09
10.47
9.64
9.97
11.24
12.77
13.80
13.91
13.25
12.37
11.95
12.25
13.01
13.55
13.13
11.46
8.80
5.85
3.35
1.69
0.74
-0.09
-1.35
-3.32
-5.84
-8.45
-10.72
-12.52
-14.10
-15.88
-18.10
-20.52
-22.48
-23.09
-21.77
-18.55
-14.07
-9.33
-5.22
-2.10
0.25
2.39
4.80
7.48
9.96
11.54
11.74
10.66
8.97
7.61
7.27
8.06
9.46
10.59
10.81
10.02
8.68
7.51
7.04
7.29
7.77
7.75
6.66
4.47
1.60
-1.24
-3.38
-4.59
-5.10
-5.46
-6.25
-7.78
-9.91
-12.22
-14.18
-15.56
-16.44
-17.20
-18.07
-18.93
-19.28
-18.44
-16.07
-12.37
-8.11
-4.33
-1.79
-0.57
-0.19
0.17
1.12
2.79
4.79
6.48
7.42
7.58
7.36
7.29
7.73
8.66
9.60
9.98
9.37
7.83
5.78
3.84
2.48
1.72
1.19
0.26
-1.54
-4.20
-7.19
-9.77
-11.35
-11.87
-11.90
-12.29
-13.80
-16.59
-20.18
-23.62
-25.89
-26.43
-25.17
-22.59
-19.31
-15.81
-12.24
-8.49
-4.43
-0.13
3.96
7.18
9.01
9.42
8.88
8.19
8.08
8.75
9.84
10.67
10.72
9.96
8.87
8.13
8.15
8.86
9.71
10.02
9.33
7.69
5.52
3.46
1.99
1.16
0.71
0.13
-0.96
-2.59
-4.49
-6.23
-7.49
-8.35
-9.32
-11.08
-14.08
-18.21
-22.70
-26.38
-28.25
-27.91
-25.61
-22.20
-18.46
-14.84
-11.28
-7.39
-2.90
2.02
6.72
10.42
12.53
13.12
12.76
12.38
12.73
14.02
15.85
17.41
18.00
17.39
15.91
14.29
13.20
12.92
13.24
13.52
13.25
12.26
10.81
9.44
8.59
8.30
8.12
7.45
5.81
3.24
0.20
-2.64
-4.82
-6.35
-7.80
-9.89
-13.09
-17.27
-21.69
-25.28
-27.19
-27.07
-25.23
-22.40
-19.30
-16.25
-13.17
-9.68
-5.52
-0.87
3.71
7.45
9.79
10.74
10.85
10.95
11.70
13.20
14.96
16.16
16.20
15.06
13.31
11.89
11.45
12.11
13.31
14.21
14.17
13.15
11.60
10.19
9.33
8.97
8.67
7.86
6.28
4.11
1.90
0.29
-0.33
-0.06
0.58
0.94
0.61
-0.31
-1.16
-1.05
0.75
4.42
9.49
15.06
20.30
24.79
28.55
32.01
35.55
39.34
43.31
47.34
51.41
55.87
61.09
67.26
74.00
80.27
84.64
85.97
83.96
79.46
74.18
69.93
67.74
67.39
67.59
66.62
63.45
58.09
51.59
45.33
40.37
37.02
34.84
33.12
31.16
28.42
24.43
18.71
10.82
0.55
-11.76
-25.15
-38.18
-49.27
-57.08
-60.81
-60.28
-55.89
-48.49
-39.13
-28.69
-17.73
-6.45
5.26
17.44
29.88
42.13
53.65
64.19
73.95
83.42
92.92
102.32
110.99
118.07
123.09
126.36
128.87
131.88
136.07
141.10
145.65
147.91
146.44
140.90
132.15
121.91
112.08
103.96
97.81
92.75
86.94
78.18
64.52
44.99
20.01
-8.50
-37.57
-64.06
-85.54
-100.97
-110.57
-115.51
-117.21
-116.87
-115.39
-113.42
-111.43
-109.70
-108.26
-106.85
-105.13
-102.97
-100.73
-99.23
-99.51
-102.32
-108.01
-116.49
-127.42
-140.46
-155.30
-171.50
-188.27
-204.41
-218.46
-229.07
-235.31
-236.66
-233.01
-224.40
-210.97
-193.11
-171.48
-147.27
-121.97
-97.07
-73.77
-52.71
-34.02
-17.61
-3.41
8.51
17.96
24.98
29.94
33.58
36.80
40.37
44.66
49.65
55.05
60.53
65.95
71.25
76.32
80.88
84.42
86.42
86.61
85.10
82.37
78.98
75.35
71.47
67.04
61.58
54.76
46.65
37.61
28.07
18.24
8.04
-2.86
-14.88
-28.36
-43.41
-59.89
-77.30
-94.60
-110.13
-121.77
-127.55
-126.45
-119.11
-107.79
-95.81
-86.34
-81.12
-79.91
-80.57
-80.00
-75.11
-63.85
-45.75
-22.01
4.72
30.99
53.44
69.53
78.10
79.43
74.82
65.97
54.49
41.66
28.56
16.14
5.29
-3.45
-10.08
-15.18
-19.59
-23.94
-28.34
-32.21
-34.84
-35.75
-35.31
-34.77
-36.00
-40.95
-50.98
-66.42
-86.23
-108.20
-129.35
-146.60
-157.51
-160.88
-156.93
-147.17
-133.80
-119.07
-104.80
-92.01
-80.97
-71.45
-62.97
-55.28
-48.60
-43.69
-41.70
-43.69
-50.15
-60.74
-74.44
-89.94
-106.06
-121.72
-135.78
-146.64
-152.21
-150.31
-139.45
-119.44
-91.44
-57.47
-19.72
19.67
58.36
93.27
120.59
136.69
139.58
130.24
112.71
92.82
76.00
65.35
60.87
60.21
60.17
58.23
53.24
45.26
34.94
23.04
10.26
-2.67
-14.86
-25.33
-33.15
-37.72
-38.90
-37.04
-32.84
-27.25
-21.16
-15.15
-9.34
-3.48
2.89
9.95
17.41
24.45
30.04
33.44
34.59
34.25
33.66
33.96
35.70
38.67
42.05
44.87
46.38
46.38
45.14
43.20
40.98
38.64
35.97
32.62
28.29
22.94
16.90
10.64
4.67
-0.76
-5.71
-10.50
-15.51
-21.03
-27.16
-33.78
-40.56
-46.98
-52.36
-55.96
-57.16
-55.63
-51.40
-44.81
-36.44
-26.94
-17.00
-7.29
1.53
8.87
14.46
18.35
20.94
22.83
24.56
26.36
28.10
29.43
29.91
29.33
27.72
25.29
22.33
19.00
15.30
11.19
6.74
2.13
-2.27
-6.16
-9.43
-12.24
-14.92
-17.76
-20.84
-23.93
-26.72
-29.00
-30.82
-32.49
-34.31
-36.30
-37.98
-38.41
-36.56
-31.78
-24.02
-13.97
-2.68
8.86
19.98
30.43
40.13
48.93
56.39
61.90
65.00
65.60
64.08
61.11
57.35
53.22
48.87
44.31
39.60
34.97
30.77
27.32
24.76
22.98
21.70
20.56
19.29
17.76
15.91
13.75
11.26
8.38
4.93
0.64
-4.70
-11.18
-18.48
-25.93
-32.42
-36.74
-37.93
-35.60
-30.05
-22.10
-12.87
-3.41
5.53
13.55
20.45
26.16
30.65
33.94
36.17
37.60
38.59
39.46
40.40
41.38
42.23
42.71
42.69
42.13
41.16
39.89
38.39
36.59
34.31
31.46
28.05
24.30
20.49
16.85
13.45
10.15
6.72
2.99
-1.17
-5.68
-10.37
-14.88
-18.74
-21.30
-21.90
-20.02
-15.50
-8.63
-0.15
8.99
17.86
25.71
32.12
36.91
40.10
41.78
42.21
41.74
40.81
39.86
39.22
39.07
39.45
40.24
41.25
42.25
43.05
43.45
43.24
42.25
40.32
37.42
33.57
28.89
23.56
17.77
11.81
6.05
0.90
-3.35
-6.64
-9.25
-11.73
-14.69
-18.42
-22.65
-26.56
-28.92
-28.63
-24.97
-17.99
-8.39
2.78
14.42
25.70
36.19
45.74
54.22
61.49
67.28
71.33
73.61
74.38
74.09
73.30
72.38
71.46
70.39
68.94
66.94
64.44
61.57
58.45
55.02
51.00
45.97
39.60
31.78
22.75
13.04
3.29
-5.93
-14.27
-21.73
-28.55
-35.08
-41.59
-48.12
-54.36
-59.77
-63.55
-64.94
-63.39
-58.77
-51.35
-41.86
-31.27
-20.55
-10.50
-1.60
6.02
12.43
17.85
22.48
26.49
29.99
33.07
35.82
38.27
40.37
42.03
43.07
43.32
42.63
41.01
38.59
35.63
32.42
29.19
26.03
22.83
19.39
15.49
11.10
6.47
2.00
-1.79
-4.58
-6.35
-7.40
-8.25
-9.39
-11.02
-12.85
-14.22
-14.26
-12.27
-8.06
-2.04
4.89
11.62
17.22
21.19
23.47
24.35
24.13
23.09
21.41
19.29
17.12
15.41
14.69
15.31
17.25
20.16
23.48
26.69
29.51
31.93
34.11
36.15
37.93
39.16
39.42
38.43
36.24
33.18
29.81
26.64
23.99
21.84
19.90
17.73
14.93
11.31
6.96
2.28
-2.02
-5.18
-6.50
-5.57
-2.43
2.46
8.31
14.18
19.29
23.07
25.23
25.78
24.93
23.05
20.65
18.32
16.62
15.97
16.55
18.22
20.56
23.02
25.04
26.28
26.66
26.30
25.51
24.58
23.79
23.29
23.10
23.08
22.93
22.31
20.79
18.09
14.08
8.81
2.49
-4.61
-12.21
-20.08
-27.90
-35.19
-41.23
-45.21
-46.48
-44.74
-40.34
-34.19
-27.53
-21.58
-17.18
-14.57
-13.54
-13.64
-14.32
-15.06
-15.41
-14.95
-13.39
-10.66
-6.97
-2.91
0.78
3.41
4.50
3.92
1.79
-1.61
-6.00
-11.11
-16.70
-22.48
-28.13
-33.41
-38.09
-42.07
-45.35
-47.98
-50.09
-51.82
-53.25
-54.29
-54.64
-53.72
-50.86
-45.57
-37.76
-27.91
-17.05
-6.36
3.07
10.58
15.99
19.57
21.60
22.38
22.04
20.73
18.62
16.10
13.64
11.66
10.41
9.82
9.55
9.20
8.44
7.16
5.46
3.52
1.56
-0.34
-2.19
-4.01
-5.78
-7.44
-8.78
-9.67
-10.09
-10.18
-10.28
-10.68
-11.47
-12.42
-12.96
-12.24
-9.58
-4.70
2.18
10.33
18.87
26.96
34.05
39.83
44.17
46.88
47.73
46.51
43.26
38.40
32.70
27.11
22.43
19.07
17.00
15.81
15.13
14.79
14.94
15.87
17.75
20.42
23.37
25.98
27.68
28.22
27.52
25.50
21.79
15.68
6.29
-6.88
-23.56
-42.37
-61.00
-76.76
-87.31
-91.30
-88.66
-80.57
-68.90
-55.69
-42.69
-31.03
-21.24
-13.40
-7.27
-2.41
1.69
5.51
9.43
13.49
17.28
19.95
20.48
18.20
13.11
6.03
-1.65
-8.50
-13.57
-16.56
-17.76
-17.70
-16.80
-15.41
-13.86
-12.70
-12.67
-14.41
-17.99
-22.66
-26.98
-29.31
-28.55
-24.48
-17.85
-9.79
-1.15
7.97
18.29
30.78
46.03
63.72
82.67
101.30
118.30
133.11
145.84
156.85
166.12
172.95
176.10
174.36
167.12
154.86
139.00
121.40
103.86
87.66
73.53
61.78
52.62
46.22
42.66
41.76
42.93
45.25
47.56
48.67
47.40
42.73
33.81
20.24
2.18
-19.52
-43.41
-67.81
-91.06
-111.85
-129.26
-142.61
-151.35
-155.02
-153.40
-146.70
-135.70
-121.60
-105.79
-89.61
-74.12
-60.14
-48.25
-38.94
-32.42
-28.64
-27.11
-26.95
-27.18
-26.90
-25.60
-23.12
-19.58
-15.01
-9.39
-2.60
5.37
14.22
23.39
32.16
39.98
46.61
52.20
57.12
61.67
65.99
69.95
73.33
75.94
77.74
78.93
79.88
81.08
83.20
86.98
93.10
102.06
113.89
127.97
143.02
157.30
169.15
177.49
182.16
183.83
183.59
182.33
180.37
177.39
172.78
166.11
157.43
147.36
136.89
126.94
118.21
111.03
105.38
100.95
97.08
92.78
86.88
78.31
66.42
51.27
33.47
13.97
-6.42
-27.33
-48.90
-71.32
-94.46
-117.48
-138.79
-156.56
-169.30
-176.40
-178.30
-176.17
-171.46
-165.49
-159.35
-154.03
-150.60
-150.18
-153.66
-161.55
-173.94
-190.85
-212.29
-237.90
-266.24
-293.93
-315.66
-325.38
-318.46
-293.62
-253.91
-205.81
-157.04
-114.07
-80.49
-56.83
-41.40
-31.66
-25.20
-20.14
-15.17
-9.47
-2.89
3.95
9.68
12.52
10.91
4.15
-7.35
-22.12
-38.09
-53.15
-65.68
-74.81
-80.44
-82.86
-82.36
-78.56
-70.16
-55.16
-31.64
1.35
43.00
90.71
140.83
189.81
235.28
276.21
312.46
343.92
369.93
389.31
400.85
404.03
399.29
387.87
371.20
350.21
325.16
295.79
261.92
224.08
183.89
143.91
107.00
75.43
49.90
29.35
11.25
-7.44
-29.04
-54.57
-83.46
-114.16
-144.74
-173.43
-198.73
-219.22
-233.47
-240.22
-238.76
-229.45
-213.83
-194.34
-173.77
-154.72
-139.20
-128.49
-123.12
-122.91
-127.03
-134.08
-142.32
-149.89
-155.06
-156.52
-153.60
-146.41
-135.90
-123.66
-111.43
-100.65
-92.00
-85.37
-80.11
-75.50
-71.02
-66.34
-61.24
-55.25
-47.73
-38.12
-26.16
-12.11
3.29
18.94
33.51
45.65
54.18
58.43
58.40
54.95
49.55
43.85
39.22
36.34
35.18
35.25
35.89
36.53
36.75
36.22
34.78
32.51
29.77
27.18
25.41
24.94
25.80
27.54
29.35
30.28
29.51
26.37
20.37
11.21
-1.11
-16.19
-33.11
-50.51
-66.85
-80.73
-91.24
-98.17
-101.82
-102.83
-101.81
-99.16
-95.08
-89.86
-83.99
-78.33
-73.85
-71.21
-70.39
-70.39
-69.57
-66.27
-59.56
-49.72
-38.26
-27.18
-18.24
-12.38
-9.61
-9.36
-10.95
-13.99
-18.36
-24.04
-30.85
-38.34
-45.88
-52.77
-58.51
-62.81
-65.83
-67.99
-69.93
-72.05
-74.25
-75.89
-76.08
-74.22
-70.17
-64.05
-55.76
-44.50
-29.13
-9.04
14.89
39.99
62.42
78.68
86.92
87.54
82.71
75.27
67.78
62.31
60.59
64.31
74.95
93.31
118.90
149.77
182.97
215.31
244.06
267.60
285.39
297.92
306.24
311.35
313.78
313.22
308.71
299.14
283.87
263.22
238.54
211.78
184.97
159.60
136.40
115.27
95.49
76.07
56.07
34.88
12.42
-10.94
-34.44
-57.36
-79.31
-100.45
-121.55
-144.00
-169.51
-199.64
-235.08
-274.73
-315.49
-352.66
-381.35
-398.30
-403.20
-398.92
-390.33
-382.39
-378.24
-378.28
-380.42
-381.36
-377.92
-368.18
-351.67
-329.18
-302.09
-271.97
-240.04
-207.11
-173.58
-139.75
-106.08
-73.34
-42.60
-15.02
8.46
27.40
41.96
52.85
61.05
67.52
72.97
77.87
82.52
87.31
92.69
99.11
106.81
115.57
124.82
133.72
141.60
148.16
153.67
158.87
164.85
172.67
183.00
195.82
210.31
224.84
237.24
245.36
247.50
242.82
231.38
214.07
192.20
167.29
140.72
113.71
87.28
62.30
39.55
19.59
2.75
-10.99
-22.03
-30.99
-38.45
-44.81
-50.18
-54.54
-57.89
-60.44
-62.66
-65.20
-68.81
-74.24
-82.35
-93.88
-109.36
-128.53
-150.18
-172.03
-191.22
-205.07
-211.91
-211.51
-204.90
-193.84
-179.96
-164.43
-147.84
-130.46
-112.68
-95.16
-78.79
-64.44
-52.68
-43.67
-37.13
-32.41
-28.54
-24.27
-18.12
-8.51
5.93
25.86
51.01
80.15
111.38
142.73
172.56
199.75
223.54
243.24
258.04
267.12
269.97
266.58
257.53
243.58
225.56
204.13
179.93
153.85
127.02
100.72
75.93
53.21
32.52
13.50
-4.05
-19.96
-33.37
-43.00
-47.70
-46.91
-41.10
-31.71
-20.68
-9.71
0.23
9.13
17.47
25.46
32.47
37.00
37.29
32.21
22.15
8.99
-4.30
-14.78
-20.41
-20.54
-15.68
-6.77
5.41
20.61
38.75
59.34
80.93
101.05
116.93
126.55
129.66
128.18
125.59
125.67
131.05
142.06
156.45
169.88
177.13
173.81
157.62
129.24
92.12
51.30
11.86
-22.70
-51.06
-74.03
-93.48
-111.41
-129.24
-147.71
-167.10
-187.33
-208.04
-228.42
-247.34
-263.72
-276.91
-286.83
-293.57
-296.92
-296.09
-289.98
-277.91
-260.47
-239.70
-218.75
-200.84
-188.32
-182.08
-181.55
-185.13
-190.88
-196.88
-201.51
-203.42
-201.54
-195.37
-185.17
-172.26
-158.75
-147.05
-139.08
-135.62
-136.12
-139.09
-142.85
-146.32
-149.26
-152.03
-154.87
-157.33
-158.10
-155.38
-147.73
-134.80
-117.65
-98.52
-80.15
-65.00
-54.72
-49.84
-49.80
-53.20
-58.20
-62.93
-66.00
-66.79
-65.59
-63.35
-61.25
-60.32
-61.18
-64.01
-68.65
-74.62
-81.17
-87.13
-91.07
-91.62
-87.84
-79.58
-67.47
-52.64
-36.22
-18.99
-1.28
16.87
35.32
53.58
70.75
85.76
97.70
106.20
111.51
114.40
115.90
116.92
118.07
119.69
121.81
124.22
126.50
128.07
128.23
126.47
122.53
116.54
108.94
100.30
91.15
81.79
72.22
62.18
51.18
38.61
23.96
7.21
-10.83
-28.39
-42.97
-52.08
-54.01
-48.53
-36.89
-21.38
-4.31
12.61
28.73
44.15
59.15
73.69
87.22
98.88
107.97
114.29
118.17
120.30
121.29
121.40
120.54
118.45
114.95
110.21
104.63
98.67
92.62
86.44
79.75
72.13
63.30
53.32
42.61
31.75
21.32
11.60
2.57
-6.04
-14.66
-23.73
-33.60
-44.56
-56.71
-69.94
-83.78
-97.18
-108.75
-116.95
-120.61
-119.36
-113.73
-104.92
-94.27
-82.79
-70.86
-58.52
-45.91
-33.77
-23.52
-16.76
-14.50
-16.32
-20.34
-23.43
-22.28
-14.19
2.36
27.62
60.73
99.95
142.85
186.44
227.63
263.68
292.86
314.60
329.29
337.67
340.20
336.86
327.51
312.42
292.68
270.07
246.54
223.56
201.76
181.12
161.37
142.48
124.98
109.83
98.17
91.05
89.21
92.99
102.21
116.14
133.45
152.27
170.46
186.01
197.32
203.39
203.78
198.48
187.76
171.94
151.31
126.05
96.23
61.90
23.20
-19.44
-65.03
-111.99
-158.15
-201.15
-238.84
-269.71
-293.09
-309.21
-318.81
-322.85
-322.03
-316.61
-306.33
-290.64
-269.05
-241.66
-209.53
-174.87
-140.69
-110.00
-84.99
-66.24
-52.65
-41.99
-31.79
-20.16
-6.27
9.75
27.20
45.15
62.74
79.23
93.95
106.40
116.34
123.95
129.83
134.91
140.21
146.57
154.41
163.53
173.21
182.50
190.62
197.34
203.00
208.23
213.40
218.08
220.94
220.24
214.63
203.84
188.92
171.70
154.17
137.61
122.32
107.67
92.62
76.02
56.95
34.91
9.97
-16.90
-43.79
-67.85
-86.07
-96.09
-97.23
-90.94
-80.54
-70.33
-64.18
-64.45
-71.34
-83.21
-97.37
-111.21
-122.91
-131.68
-137.53
-140.84
-142.12
-141.92
-140.98
-140.26
-140.70
-142.76
-145.95
-148.60
-147.94
-140.93
-125.20
-100.11
-67.32
-30.53
5.51
36.40
59.32
73.71
80.77
82.64
81.31
78.01
73.25
67.31
60.61
53.95
48.28
44.25
42.02
41.19
40.97
40.43
38.78
35.30
29.42
20.64
8.56
-6.89
-25.27
-45.45
-65.64
-83.64
-97.42
-105.60
-107.77
-104.51
-97.04
-86.72
-74.74
-61.85
-48.41
-34.68
-20.97
-7.65
4.87
16.34
26.66
35.81
43.69
49.94
53.98
55.28
53.62
49.36
43.48
37.17
31.51
26.95
23.12
19.03
13.45
5.45
-5.31
-18.25
-32.09
-45.06
-55.39
-61.74
-63.47
-60.75
-54.42
-45.78
-36.12
-26.56
-17.86
-10.47
-4.60
-0.28
2.56
4.10
4.61
4.49
4.15
3.98
4.32
5.37
7.21
9.78
12.93
16.37
19.81
22.93
25.49
27.27
28.15
28.01
26.74
24.28
20.64
15.93
10.35
4.23
-2.09
-8.34
-14.38
-20.32
-26.41
-32.93
-39.97
-47.36
-54.53
-60.67
-64.81
-66.11
-64.07
-58.69
-50.47
-40.28
-29.16
-18.04
-7.56
1.95
10.45
17.96
24.37
29.44
32.95
34.78
35.15
34.50
33.33
32.06
30.84
29.65
28.31
26.77
25.06
23.28
21.54
19.79
17.93
15.84
13.52
10.99
8.34
5.50
2.40
-1.13
-5.14
-9.51
-13.98
-18.23
-22.09
-25.54
-28.81
-32.09
-35.51
-38.92
-41.88
-43.76
-43.86
-41.66
-36.97
-30.07
-21.63
-12.62
-4.00
3.51
9.62
14.37
17.95
20.55
22.21
22.95
22.85
22.15
21.27
20.60
20.34
20.44
20.66
20.70
20.44
19.87
19.10
18.21
17.15
15.77
13.87
11.35
8.18
4.52
0.61
-3.27
-6.81
-9.83
-12.25
-14.11
-15.55
-16.86
-18.33
-20.21
-22.65
-25.52
-28.38
-30.51
-30.99
-29.02
-24.29
-17.13
-8.53
0.15
7.67
13.27
16.88
19.01
20.32
21.34
22.23
22.85
22.99
22.70
22.24
22.00
22.24
22.85
23.43
23.49
22.71
21.17
19.30
17.67
16.65
16.22
15.92
15.14
13.34
10.37
6.45
2.19
-1.84
-5.28
-8.10
-10.66
-13.38
-16.56
-20.25
-24.30
-28.49
-32.60
-36.37
-39.37
-40.97
-40.42
-37.13
-31.03
-22.68
-13.17
-3.68
4.89
12.20
18.31
23.50
27.95
31.60
34.32
36.00
36.74
36.85
36.76
36.80
37.10
37.59
37.94
37.75
36.75
34.80
32.08
28.94
25.76
22.78
20.00
17.15
13.86
9.94
5.43
0.67
-3.91
-7.98
-11.46
-14.55
-17.59
-20.88
-24.46
-28.25
-32.00
-35.46
-38.42
-40.67
-41.89
-41.68
-39.61
-35.43
-29.26
-21.64
-13.47
-5.70
0.94
6.11
9.91
12.68
14.80
16.44
17.65
18.41
18.73
18.75
18.69
18.72
18.88
19.05
18.99
18.49
17.44
15.91
14.16
12.48
11.14
10.21
9.54
8.82
7.70
5.99
3.78
1.41
-0.69
-2.22
-3.24
-4.08
-5.29
-7.36
-10.47
-14.47
-18.82
-22.89
-26.00
-27.62
-27.45
-25.39
-21.47
-15.98
-9.36
-2.20
4.77
10.87
15.56
18.58
19.98
20.07
19.33
18.23
17.13
16.18
15.40
14.69
13.97
13.16
12.22
11.20
10.08
8.89
7.58
6.15
4.62
3.03
1.38
-0.42
-2.51
-5.04
-8.04
-11.43
-14.92
-18.24
-21.21
-23.85
-26.39
-29.13
-32.23
-35.58
-38.79
-41.18
-42.05
-40.88
-37.55
-32.40
-26.14
-19.56
-13.30
-7.70
-2.80
1.49
5.22
8.32
10.68
12.19
12.93
13.16
13.21
13.35
13.72
14.20
14.55
14.47
13.81
12.54
10.84
8.97
7.10
5.30
3.46
1.45
-0.76
-3.04
-5.20
-7.02
-8.49
-9.84
-11.44
-13.65
-16.66
-20.43
-24.58
-28.58
-31.78
-33.63
-33.78
-32.14
-28.93
-24.56
-19.60
-14.58
-10.03
-6.23
-3.32
-1.23
0.31
1.59
2.94
4.57
6.54
8.70
10.78
12.47
13.44
13.57
12.87
11.51
9.75
7.74
5.54
3.14
0.62
-1.92
-4.19
-5.94
-7.07
-7.66
-7.93
-8.08
-8.17
-8.18
-8.11
-8.02
-8.20
-8.91
-10.23
-11.87
-13.18
-13.44
-12.12
-9.18
-5.00
-0.32
4.13
7.83
10.50
12.12
12.76
12.54
11.57
10.06
8.33
6.80
5.96
6.09
7.29
9.41
12.01
14.65
16.94
18.67
19.83
20.51
20.78
20.61
19.95
18.62
16.56
13.78
10.45
6.76
2.99
-0.70
-4.17
-7.37
-10.42
-13.44
-16.58
-19.93
-23.28
-26.20
-28.03
-28.09
-25.99
-21.82
-16.13
-9.80
-3.82
1.12
4.61
6.64
7.41
7.27
6.63
5.90
5.53
5.79
6.83
8.52
10.54
12.52
14.20
15.45
16.33
16.98
17.51
17.92
18.07
17.76
16.79
15.04
12.54
9.44
5.95
2.26
-1.45
-5.06
-8.51
-11.75
-14.84
-17.86
-20.92
-24.07
-27.18
-29.78
-31.20
-30.71
-27.81
-22.46
-15.17
-6.86
1.45
8.96
15.31
20.52
24.81
28.29
30.94
32.59
33.15
32.74
31.76
30.63
29.58
28.53
27.08
24.82
21.56
17.44
12.95
8.59
4.68
1.21
-2.07
-5.46
-9.08
-12.84
-16.47
-19.65
-22.23
-24.26
-25.91
-27.40
-28.94
-30.58
-32.31
-33.98
-35.30
-35.89
-35.31
-33.24
-29.49
-24.21
-17.75
-10.63
-3.46
3.26
9.02
13.53
16.59
18.23
18.64
18.19
17.31
16.38
15.67
15.19
14.85
14.46
13.94
13.31
12.77
12.52
12.71
13.31
14.05
14.64
14.78
14.34
13.41
12.10
10.51
8.58
6.20
3.26
-0.24
-4.20
-8.51
-13.11
-18.07
-23.37
-28.84
-34.00
-38.17
-40.64
-40.93
-38.95
-35.08
-29.95
-24.25
-18.59
-13.34
-8.69
-4.65
-1.26
1.43
3.36
4.50
4.95
4.92
4.70
4.55
4.54
4.51
4.17
3.18
1.43
-0.96
-3.72
-6.51
-9.11
-11.52
-13.86
-16.28
-18.76
-21.11
-22.99
-24.18
-24.64
-24.65
-24.69
-25.26
-26.64
-28.65
-30.74
-32.05
-31.78
-29.45
-25.07
-19.09
-12.20
-5.10
1.75
8.07
13.73
18.60
22.52
25.37
27.14
28.10
28.67
29.29
30.25
31.49
32.66
33.24
32.83
31.23
28.63
25.42
22.00
18.64
15.43
12.34
9.41
6.85
4.97
4.11
4.45
5.91
8.19
10.88
13.59
15.95
17.66
18.47
18.28
17.22
15.67
14.25
13.54
13.89
15.15
16.78
18.02
18.25
17.25
15.25
12.79
10.47
8.74
7.89
8.05
9.29
11.68
15.28
19.97
25.51
31.39
37.07
42.01
45.81
48.26
49.29
48.94
47.25
44.34
40.28
35.14
29.05
22.22
15.02
8.02
1.82
-3.06
-6.33
-8.08
-8.73
-8.78
-8.70
-8.67
-8.64
-8.34
-7.50
-5.95
-3.69
-0.99
1.76
4.04
5.40
5.44
4.01
1.12
-2.98
-7.83
-12.79
-17.04
-19.75
-20.14
-17.76
-12.62
-5.30
3.17
11.57
18.79
24.07
27.05
27.74
26.38
23.31
19.00
13.99
8.92
4.33
0.62
-2.12
-4.02
-5.36
-6.40
-7.23
-7.85
-8.14
-8.07
-7.67
-7.13
-6.88
-7.48
-9.49
-13.22
-18.53
-24.71
-30.58
-34.86
-36.55
-35.24
-31.17
-25.11
-18.02
-10.95
-4.72
0.13
3.40
5.24
6.11
6.66
7.42
8.72
10.54
12.53
14.18
14.97
14.51
12.61
9.29
4.69
-0.93
-7.23
-13.76
-20.02
-25.39
-29.26
-31.18
-31.00
-28.95
-25.54
-21.50
-17.59
-14.37
-12.22
-11.28
-11.54
-12.93
-15.37
-18.73
-22.76
-27.04
-30.91
-33.57
-34.33
-32.87
-29.45
-24.85
-19.95
-15.39
-11.27
-7.28
-2.97
1.77
6.62
10.88
13.83
15.22
15.38
15.08
15.23
16.44
18.72
21.54
23.94
24.88
23.62
19.92
14.10
6.93
-0.67
-7.85
-13.94
-18.47
-21.12
-21.72
-20.38
-17.60
-14.36
-11.96
-11.56
-13.72
-18.08
-23.55
-28.63
-32.12
-33.58
-33.41
-32.67
-32.48
-33.62
-36.30
-40.13
-44.38
-48.29
-51.17
-52.50
-51.97
-49.47
-45.37
-40.50
-35.98
-32.90
-31.78
-32.23
-32.99
-32.36
-28.91
-22.09
-12.49
-1.57
8.94
17.70
24.18
28.69
31.99
34.91
37.89
40.90
43.54
45.29
45.88
45.41
44.34
43.29
42.79
43.07
43.90
44.81
45.23
44.73
43.20
40.86
38.20
35.84
34.29
33.80
34.34
35.63
37.32
39.26
41.65
45.01
49.89
56.54
64.61
73.04
80.28
84.60
84.68
79.86
70.60
58.59
46.82
38.98
38.39
46.69
62.55
81.58
97.29
103.35
95.98
75.51
46.16
14.24
-14.25
-35.81
-50.01
-58.82
-64.95
-70.37
-75.73
-80.73
-84.97
-88.64
-92.71
-98.33
-106.23
-116.14
-126.89
-136.82
-144.08
-146.99
-143.88
-133.39
-114.77
-88.67
-57.68
-26.18
0.64
18.29
24.37
19.29
5.74
-12.44
-31.49
-48.77
-62.82
-73.23
-80.06
-83.60
-84.08
-81.59
-76.06
-67.19
-54.56
-37.91
-17.43
5.92
30.36
53.56
73.19
87.44
95.54
97.84
95.69
91.01
85.88
82.16
81.14
83.31
88.11
93.97
98.55
99.34
94.50
83.48
67.34
48.35
29.18
12.00
-2.24
-13.87
-23.97
-33.65
-43.50
-53.37
-62.68
-70.91
-77.91
-83.99
-89.63
-95.15
-100.39
-104.70
-107.12
-106.75
-102.95
-95.56
-84.87
-71.48
-56.24
-40.11
-24.04
-9.01
4.11
14.57
21.95
26.22
27.72
27.09
25.01
22.07
18.64
14.86
10.79
6.55
2.39
-1.27
-3.95
-5.18
-4.59
-2.01
2.42
8.25
14.72
21.01
26.33
30.13
32.16
32.42
31.05
28.23
24.12
18.85
12.63
5.70
-1.61
-8.94
-15.87
-21.97
-26.85
-30.23
-32.00
-32.25
-31.28
-29.38
-26.79
-23.59
-19.72
-15.18
-10.05
-4.55
0.98
6.26
11.09
15.34
18.88
21.50
22.87
22.63
20.55
16.63
11.28
5.21
-0.73
-5.72
-9.21
-11.00
-11.28
-10.47
-9.14
-7.79
-6.68
-5.94
-5.54
-5.35
-5.26
-5.06
-4.50
-3.30
-1.26
1.63
5.05
8.45
11.11
12.50
12.40
11.00
8.81
6.44
4.43
3.03
2.20
1.64
0.96
-0.09
-1.53
-3.18
-4.75
-6.04
-7.11
-8.20
-9.65
-11.71
-14.31
-17.14
-19.70
-21.46
-22.03
-21.19
-18.89
-15.24
-10.48
-4.93
0.89
6.36
10.79
13.54
14.24
12.90
9.92
6.01
2.01
-1.49
-4.14
-6.03
-7.44
-8.76
-10.23
-11.81
-13.25
-14.10
-13.88
-12.16
-8.76
-3.66
2.86
10.38
18.34
26.17
33.35
39.44
44.20
47.46
49.26
49.71
49.13
47.93
46.68
46.15
47.16
50.51
56.71
65.87
77.59
91.14
105.62
120.31
134.95
149.72
165.11
181.64
199.36
217.56
234.68
248.56
257.13
259.02
254.05
243.14
227.92
210.09
191.04
171.76
153.06
135.70
120.26
106.77
94.54
82.07
67.52
49.31
26.68
-0.07
-29.80
-60.95
-91.99
-121.73
-149.50
-174.96
-197.74
-217.15
-231.89
-240.25
-240.63
-232.19
-215.22
-191.29
-162.66
-131.55
-99.67
-67.93
-36.59
-5.53
25.44
56.33
86.63
115.10
139.65
157.64
166.85
166.36
157.33
142.76
126.62
112.34
101.72
94.66
89.74
85.35
80.50
75.09
69.45
63.86
58.15
51.93
44.93
37.26
29.29
21.17
12.65
3.35
-6.38
-14.98
-19.88
-18.67
-10.54
2.81
17.56
29.32
34.91
33.51
26.52
16.45
5.78
-3.89
-11.66
-16.96
-19.37
-18.90
-16.58
-14.70
-16.47
-24.93
-41.80
-66.52
-96.02
-125.48
-149.87
-165.53
-171.31
-168.69
-160.70
-150.51
-140.21
-130.55
-121.58
-113.72
-108.21
-106.73
-110.27
-118.06
-127.53
-135.20
-138.34
-136.33
-130.97
-125.59
-123.54
-126.68
-134.82
-146.08
-157.86
-167.92
-175.07
-179.33
-181.37
-182.00
-181.88
-181.35
-180.71
-180.29
-180.29
-180.23
-178.55
-172.75
-160.09
-138.96
-109.88
-75.77
-41.06
-10.24
13.79
30.36
40.70
46.88
50.60
52.53
52.41
49.77
44.63
37.91
31.14
25.84
22.80
21.73
21.41
20.34
17.43
12.42
5.92
-0.98
-7.16
-11.76
-14.28
-14.50
-12.29
-7.76
-1.31
6.21
13.64
19.71
23.52
24.79
23.95
22.00
20.22
19.77
21.43
25.47
31.62
39.14
47.10
54.53
60.64
64.94
67.17
67.19
64.95
60.48
54.01
45.95
36.96
27.81
19.20
11.57
5.16
0.10
-3.48
-5.33
-5.29
-3.52
-0.58
2.54
4.62
4.62
2.09
-2.68
-8.66
-14.34
-18.30
-19.57
-17.96
-13.99
-8.49
-2.28
4.18
10.82
17.72
24.78
31.57
37.43
41.79
44.54
46.11
47.23
48.53
50.31
52.36
54.26
55.74
56.75
57.48
58.00
58.04
57.05
54.44
50.03
44.30
38.31
33.24
29.94
28.51
28.29
28.29
27.63
26.01
23.80
21.76
20.49
20.12
20.08
19.41
17.45
14.34
11.30
10.19
12.80
19.87
30.82
43.77
56.28
66.07
71.60
72.24
68.09
59.87
48.73
36.15
23.53
11.72
0.39
-12.08
-28.13
-50.11
-79.09
-114.13
-152.18
-188.85
-219.61
-240.93
-251.14
-250.58
-241.29
-226.25
-208.65
-191.17
-175.64
-162.90
-152.97
-145.24
-138.82
-132.62
-125.69
-117.30
-107.18
-95.57
-83.13
-70.64
-58.63
-47.23
-36.00
-24.18
-11.05
3.70
19.84
36.71
53.49
69.43
84.22
97.92
110.79
123.04
134.62
145.12
153.86
160.10
163.25
163.25
160.67
156.63
152.46
149.19
147.00
145.16
142.24
136.95
128.89
118.87
108.59
99.80
93.42
89.14
85.76
81.79
76.14
68.23
57.60
43.54
24.94
0.80
-28.84
-62.25
-96.00
-125.91
-148.36
-161.41
-165.12
-161.24
-152.21
-140.33
-127.26
-114.09
-101.54
-90.16
-80.33
-71.99
-64.57
-57.04
-48.45
-38.27
-26.74
-14.80
-3.72
5.37
11.89
16.01
18.51
20.32
22.22
24.47
26.91
29.14
30.81
31.94
32.89
34.14
36.05
38.59
41.32
43.61
44.74
44.14
41.44
36.49
29.34
20.21
9.51
-2.18
-14.13
-25.47
-35.23
-42.48
-46.45
-46.81
-43.87
-38.60
-32.55
-27.43
-24.69
-25.11
-28.66
-34.59
-41.78
-49.10
-55.66
-60.95
-64.82
-67.50
-69.42
-71.16
-73.23
-75.91
-78.98
-81.81
-83.64
-83.93
-82.63
-80.19
-77.29
-74.45
-71.82
-69.08
-65.86
-62.04
-58.06
-54.92
-53.86
-55.75
-60.47
-66.59
-71.71
-73.41
-70.43
-63.52
-55.34
-49.55
-49.21
-55.50
-67.21
-81.40
-94.29
-102.30
-102.65
-93.69
-75.11
-48.22
-15.94
17.79
49.06
75.12
95.08
109.64
120.17
127.87
133.29
136.57
138.06
138.78
140.27
144.17
151.56
162.68
176.86
192.65
207.79
219.28
223.77
218.46
202.04
175.57
142.41
107.40
75.54
50.79
35.32
29.15
30.29
35.07
38.83
37.09
26.95
8.22
-16.23
-41.34
-61.81
-73.92
-76.78
-72.13
-63.29
-53.71
-45.91
-41.19
-39.61
-40.40
-42.18
-43.40
-42.76
-39.68
-34.54
-28.62
-23.56
-20.77
-20.88
-23.66
-28.33
-34.10
-40.44
-47.12
-54.08
-61.11
-67.87
-73.97
-79.28
-84.08
-89.03
-94.85
-101.99
-110.36
-119.27
-127.70
-134.61
-139.19
-140.91
-139.53
-135.11
-127.97
-118.78
-108.41
-97.73
-87.01
-75.44
-61.02
-41.05
-13.26
22.93
65.89
112.05
157.15
197.63
231.57
258.61
279.26
293.85
302.16
303.65
298.19
286.76
271.48
254.91
239.16
225.04
211.85
197.78
180.88
159.93
135.17
108.34
82.20
59.73
43.10
33.11
29.02
29.06
31.17
33.78
36.15
38.30
40.67
43.71
47.54
51.96
56.49
60.39
62.76
62.60
59.11
52.03
41.86
29.92
17.95
7.48
-0.70
-6.75
-11.60
-16.40
-21.88
-28.09
-34.48
-40.37
-45.44
-49.84
-53.97
-57.95
-61.31
-63.18
-62.93
-60.84
-58.37
-57.75
-60.86
-68.23
-78.64
-89.56
-98.23
-102.84
-103.05
-99.92
-95.36
-91.16
-88.69
-88.48
-90.34
-93.46
-96.78
-99.24
-100.14
-99.44
-97.64
-95.67
-94.49
-94.84
-97.08
-101.22
-106.92
-113.56
-120.26
-126.04
-130.25
-132.94
-135.03
-137.97
-142.65
-148.50
-153.13
-153.20
-145.97
-130.89
-109.94
-86.69
-64.49
-44.80
-26.86
-8.62
11.58
33.89
56.86
78.38
97.05
112.79
126.74
140.33
154.54
169.51
184.84
199.96
214.54
228.61
242.38
256.10
269.90
283.82
297.91
312.15
326.32
339.77
351.30
359.30
362.15
358.79
349.09
333.98
315.20
294.91
275.05
256.99
241.15
227.08
213.57
199.00
181.72
160.43
134.32
103.01
66.52
25.09
-20.63
-69.39
-119.06
-166.78
-209.48
-244.59
-270.81
-288.19
-297.82
-301.11
-299.08
-292.14
-280.37
-263.97
-243.69
-220.86
-196.97
-173.10
-149.51
-125.53
-100.11
-72.42
-42.51
-11.43
18.84
46.04
68.22
84.33
94.61
100.35
103.37
105.42
107.53
109.84
111.87
112.82
112.15
109.79
106.21
102.08
98.00
94.19
90.49
86.56
81.92
75.99
68.17
57.86
44.60
28.45
10.12
-9.02
-27.29
-43.19
-55.85
-65.04
-71.08
-74.57
-76.20
-76.90
-77.85
-80.37
-85.58
-93.88
-104.71
-116.64
-127.95
-137.30
-144.37
-149.86
-155.16
-161.58
-169.62
-178.43
-185.76
-188.37
-182.95
-167.34
-141.62
-108.30
-71.84
-37.32
-8.85
11.44
23.50
28.59
28.19
23.41
15.04
4.18
-7.23
-16.75
-22.42
-24.00
-23.65
-25.28
-32.84
-48.38
-71.09
-97.67
-124.11
-147.20
-165.38
-178.54
-186.86
-190.00
-186.85
-176.29
-158.18
-134.06
-106.86
-79.91
-55.84
-35.73
-19.22
-4.95
8.62
22.65
37.82
54.43
72.63
92.23
112.55
131.88
147.56
156.50
156.15
145.59
125.87
99.70
70.47
41.32
14.28
-9.94
-31.73
-52.17
-72.35
-92.94
-113.56
-132.58
-147.19
-154.23
-151.50
-138.78
-118.23
-93.85
-70.06
-50.26
-36.01
-26.97
-21.84
-19.20
-18.04
-17.82
-18.10
-18.23
-17.47
-15.27
-11.64
-7.25
-3.06
0.16
2.28
3.96
6.47
11.18
19.13
30.58
45.03
61.30
78.08
94.41
109.90
124.77
139.41
153.93
167.82
180.09
189.58
195.67
198.40
198.68
197.77
196.85
196.62
197.13
197.79
197.71
195.83
191.12
182.58
169.37
150.90
126.94
97.84
64.47
28.11
-9.88
-48.36
-86.67
-124.39
-161.10
-196.13
-228.36
-256.57
-279.82
-297.85
-311.01
-319.72
-323.83
-322.28
-313.32
-295.49
-268.66
-234.56
-196.62
-158.78
-124.30
-94.87
-70.62
-50.70
-34.11
-20.19
-8.66
0.71
8.31
14.78
20.83
26.89
33.02
38.95
44.24
48.42
51.21
52.60
52.94
52.89
53.21
54.44
56.71
59.56
62.21
63.89
64.21
63.22
61.30
58.87
56.24
53.51
50.69
47.81
44.85
41.82
38.70
35.59
32.94
31.52
32.14
35.20
40.20
45.77
50.10
51.63
49.82
45.26
39.27
33.21
27.84
23.09
18.47
13.51
8.24
3.24
-0.69
-2.96
-3.45
-2.54
-0.88
0.83
2.18
2.98
3.21
2.86
1.80
-0.17
-3.22
-7.48
-12.87
-19.06
-25.60
-31.91
-37.53
-42.26
-46.14
-49.50
-52.72
-56.05
-59.47
-62.80
-65.63
-67.55
-68.14
-67.01
-63.90
-58.69
-51.51
-42.81
-33.36
-24.03
-15.66
-8.95
-4.22
-1.57
-0.75
-1.35
-2.81
-4.62
-6.39
-7.96
-9.35
-10.62
-11.75
-12.58
-12.83
-12.32
-11.07
-9.40
-7.84
-6.99
-7.31
-9.02
-12.00
-15.62
-18.78
-19.92
-17.57
-10.82
-0.02
13.18
26.11
35.94
40.60
39.33
32.74
22.36
10.10
-2.38
-13.65
-22.56
-28.20
-29.97
-27.82
-22.31
-14.61
-6.14
1.81
8.30
12.94
15.73
16.92
16.91
16.24
15.46
15.15
15.65
17.03
19.08
21.43
23.84
26.29
28.98
32.18
35.98
40.21
44.45
48.21
51.01
52.55
52.59
50.95
47.56
42.48
35.97
28.50
20.66
12.97
5.80
-0.72
-6.73
-12.38
-17.79
-22.82
-27.07
-29.87
-30.59
-28.78
-24.44
-18.05
-10.56
-2.97
3.87
9.53
13.96
17.38
20.05
22.12
23.62
24.52
24.91
25.05
25.24
25.72
26.46
27.18
27.44
26.85
25.31
22.97
20.21
17.42
14.75
12.05
9.01
5.28
0.71
-4.42
-9.56
-14.00
-17.23
-19.11
-19.91
-20.17
-20.40
-20.94
-21.86
-23.06
-24.35
-25.48
-26.21
-26.21
-25.10
-22.52
-18.32
-12.60
-5.81
1.39
8.31
14.35
19.23
23.01
25.94
28.35
30.55
32.65
34.62
36.35
37.76
38.80
39.49
39.77
39.54
38.62
36.85
34.19
30.84
27.17
23.56
20.30
17.40
14.74
12.14
9.55
7.12
5.16
3.94
3.49
3.53
3.54
2.99
1.49
-1.02
-4.15
-7.30
-9.76
-10.93
-10.51
-8.65
-5.72
-2.30
1.10
4.18
6.87
9.20
11.21
12.86
14.02
14.67
14.98
15.29
15.99
17.28
19.00
20.69
21.85
22.07
21.35
19.96
18.27
16.57
14.88
13.06
10.97
8.64
6.33
4.40
3.09
2.39
1.98
1.27
-0.27
-3.01
-6.92
-11.57
-16.21
-20.03
-22.38
-22.93
-21.72
-19.02
-15.20
-10.65
-5.69
-0.62
4.26
8.64
12.27
15.07
17.13
18.71
20.10
21.48
22.90
24.26
25.37
26.12
26.56
26.96
27.62
28.75
30.31
31.96
33.23
33.77
33.60
33.06
32.71
32.92
33.78
34.96
36.07
36.79
37.14
37.45
38.17
39.56
41.60
43.99
46.33
48.45
50.54
53.07
56.62
61.60
68.00
75.30
82.52
88.44
91.86
91.66
86.96
77.09
61.83
41.56
17.47
-8.41
-33.54
-55.55
-72.96
-85.51
-94.20
-100.72
-106.72
-113.30
-120.84
-129.21
-138.09
-147.15
-155.92
-163.67
-169.36
-171.73
-169.84
-163.45
-153.26
-140.78
-127.82
-115.91
-105.86
-97.63
-90.50
-83.47
-75.67
-66.54
-55.87
-43.63
-29.76
-14.13
3.34
22.60
43.30
64.83
86.39
107.25
127.05
146.01
164.82
184.37
205.22
227.18
249.26
269.98
288.02
302.79
314.59
324.32
332.91
340.75
347.44
351.94
353.01
349.49
340.48
325.24
303.16
273.77
237.16
194.28
147.12
98.55
51.51
8.08
-31.31
-67.90
-103.99
-141.65
-181.67
-222.84
-262.20
-295.87
-320.19
-332.73
-332.69
-320.99
-299.76
-271.91
-240.59
-208.77
-178.90
-152.67
-130.78
-113.00
-98.27
-85.00
-71.58
-56.89
-40.68
-23.76
-7.74
5.58
14.92
19.99
21.66
21.50
21.19
21.79
23.51
25.74
27.51
27.94
26.64
23.69
19.50
14.60
9.38
4.08
-1.15
-6.18
-10.87
-15.12
-19.01
-22.83
-27.01
-31.88
-37.54
-43.49
-48.80
-52.28
-52.87
-50.09
-44.21
-36.25
-27.71
-20.06
-14.41
-11.19
-10.19
-10.86
-12.56
-14.83
-17.38
-20.00
-22.39
-24.12
-24.81
-24.24
-22.50
-19.98
-17.16
-14.35
-11.64
-8.94
-6.16
-3.45
-1.19
0.04
-0.24
-2.13
-5.25
-8.77
-11.75
-13.54
-14.07
-13.90
-13.96
-15.16
-17.93
-22.16
-27.26
-32.40
-36.83
-39.97
-41.54
-41.41
-39.62
-36.39
-32.18
-27.63
-23.50
-20.45
-18.91
-18.95
-20.31
-22.62
-25.60
-29.26
-33.85
-39.81
-47.41
-56.61
-67.01
-78.08
-89.45
-101.06
-113.16
-126.08
-139.81
-153.73
-166.60
-176.78
-182.55
-182.55
-176.23
-164.07
-147.64
-129.08
-110.40
-92.72
-75.95
-59.09
-41.01
-21.35
-0.97
18.39
34.94
47.67
56.75
63.20
68.30
73.05
77.98
83.45
89.98
98.35
109.33
123.27
139.88
158.24
177.14
195.54
212.84
228.93
243.89
257.78
270.36
281.15
289.66
295.70
299.51
301.81
303.55
305.55
308.15
311.07
313.40
313.90
311.34
304.82
293.94
278.75
259.54
236.82
211.16
183.41
154.60
125.85
98.15
72.05
47.54
24.19
1.31
-21.65
-44.91
-68.38
-91.64
-114.25
-135.87
-156.54
-176.60
-196.51
-216.46
-235.93
-253.51
-267.06
-274.40
-274.06
-265.86
-251.03
-231.73
-210.36
-188.86
-168.43
-149.59
-132.51
-117.32
-104.15
-93.09
-83.94
-76.22
-69.22
-62.21
-54.63
-46.27
-37.22
-27.79
-18.33
-9.13
-0.43
7.50
14.36
19.80
23.50
25.27
25.10
23.32
20.63
17.91
15.92
15.04
15.13
15.55
15.43
14.03
11.07
6.95
2.65
-0.71
-2.15
-1.24
1.80
6.22
11.06
15.42
18.70
20.64
21.21
20.43
18.32
14.84
10.12
4.48
-1.53
-7.22
-12.00
-15.53
-17.88
-19.49
-20.97
-22.89
-25.59
-29.12
-33.31
-37.86
-42.45
-46.61
-49.79
-51.30
-50.71
-48.12
-44.44
-41.23
-40.06
-41.95
-46.85
-53.83
-61.42
-68.21
-73.04
-74.85
-72.39
-64.17
-48.81
-25.77
3.97
37.81
72.09
103.28
129.07
148.93
163.84
175.34
184.42
190.78
193.00
189.34
178.76
161.66
139.70
115.21
90.13
65.41
40.86
15.63
-11.07
-39.47
-68.89
-98.06
-125.20
-148.51
-166.32
-177.24
-180.20
-174.67
-160.80
-139.65
-113.21
-84.20
-55.56
-29.80
-8.28
9.04
23.53
37.17
51.86
68.57
87.10
106.16
123.93
138.76
149.63
156.48
159.94
161.10
161.07
160.92
161.60
163.94
168.54
175.35
183.47
191.04
195.70
195.34
188.76
176.15
158.76
138.38
116.66
94.66
72.88
51.52
30.81
10.88
-8.34
-27.54
-47.90
-70.75
-96.86
-125.84
-156.03
-184.87
-209.71
-228.38
-239.51
-242.38
-236.59
-222.08
-199.22
-169.27
-134.71
-99.10
-66.48
-40.57
-23.92
-17.30
-19.67
-28.36
-39.88
-50.69
-58.00
-60.28
-57.31
-49.98
-39.84
-28.74
-18.47
-10.66
-6.55
-6.70
-10.85
-17.88
-26.18
-34.20
-40.89
-45.76
-48.70
-49.68
-48.50
-45.06
-39.68
-33.34
-27.55
-23.99
-23.80
-27.28
-33.97
-42.85
-52.73
-62.44
-70.73
-76.22
-77.54
-73.66
-64.29
-50.17
-32.83
-14.32
3.44
19.08
31.97
42.30
50.83
58.64
66.72
75.58
84.97
93.82
100.57
103.55
101.72
94.98
84.38
71.81
59.53
49.48
42.78
39.51
38.79
39.19
39.19
37.66
34.08
28.63
22.03
15.24
9.16
4.19
-0.07
-4.95
-12.58
-25.26
-44.75
-71.24
-102.89
-136.01
-166.07
-189.15
-203.33
-209.27
-209.83
-208.97
-210.12
-215.13
-223.91
-234.88
-245.93
-255.43
-262.67
-267.95
-272.13
-276.14
-280.51
-285.23
-289.68
-292.85
-293.50
-290.21
-281.51
-266.22
-243.76
-214.59
-180.39
-143.69
-107.38
-74.04
-45.31
-21.69
-2.76
12.49
25.24
36.50
47.02
57.33
67.64
77.84
87.46
95.87
102.59
107.58
111.41
115.11
119.98
127.22
137.63
151.36
167.93
186.20
204.62
221.56
235.81
247.15
256.57
265.96
277.20
291.06
306.56
321.17
331.89
336.62
334.98
328.23
318.29
306.61
293.43
277.95
259.24
237.26
213.17
188.89
166.14
145.48
126.09
106.34
84.78
61.13
36.70
13.99
-4.14
-15.40
-18.62
-13.99
-2.93
12.15
28.05
41.25
48.61
48.17
39.76
25.12
7.26
-10.55
-25.78
-37.22
-44.90
-49.67
-52.66
-54.97
-57.54
-60.84
-64.79
-68.55
-70.67
-69.67
-64.71
-56.17
-45.51
-34.76
-25.74
-19.55
-16.56
-16.79
-20.21
-26.82
-36.34
-47.82
-59.82
-70.90
-80.34
-88.60
-97.01
-107.06
-119.55
-134.17
-149.74
-164.91
-178.78
-191.08
-201.89
-211.02
-217.80
-221.16
-220.26
-215.05
-206.60
-196.94
-188.37
-182.79
-181.07
-182.94
-187.28
-192.65
-197.92
-202.71
-207.37
-212.75
-219.84
-229.24
-240.86
-253.68
-265.66
-273.95
-275.53
-267.92
-250.09
-222.88
-188.80
-151.30
-113.70
-78.25
-45.65
-15.23
14.49
45.04
76.94
109.46
140.37
166.59
185.18
194.49
194.83
188.63
179.70
172.05
168.88
171.81
180.76
194.24
209.80
224.50
235.34
239.73
235.94
223.44
203.11
177.09
148.25
119.49
92.85
68.95
46.75
24.10
-1.36
-30.99
-64.36
-98.98
-131.16
-157.27
-175.10
-184.63
-187.81
-187.62
-186.74
-186.54
-187.00
-187.24
-186.28
-183.61
-179.00
-171.92
-161.16
-144.73
-120.66
-87.94
-47.27
-1.07
47.24
94.41
138.23
177.91
213.72
246.23
275.68
301.73
323.66
340.80
352.82
359.86
362.33
360.63
355.03
345.68
333.00
317.78
301.10
283.90
266.34
247.44
225.42
198.51
166.03
129.21
91.03
55.41
26.03
5.18
-6.53
-9.92
-6.65
1.35
12.20
24.03
34.99
43.17
46.81
44.72
36.56
23.17
6.42
-11.05
-26.65
-38.49
-45.87
-49.33
-50.17
-49.80
-49.19
-48.59
-47.77
-46.35
-44.23
-41.82
-39.88
-39.30
-40.69
-44.10
-49.02
-54.65
-60.27
-65.55
-70.66
-75.98
-81.89
-88.43
-95.36
-102.31
-109.04
-115.54
-122.06
-128.84
-135.86
-142.53
-147.71
-150.15
-149.11
-145.02
-139.77
-136.39
-138.00
-146.47
-161.55
-180.80
-200.21
-215.61
-223.54
-221.96
-210.15
-188.43
-157.68
-119.13
-74.32
-25.20
25.63
74.78
118.25
152.09
173.27
180.65
175.35
160.48
140.21
118.67
98.91
82.53
69.56
58.79
48.15
35.43
19.00
-1.42
-24.32
-46.62
-64.53
-74.76
-75.60
-67.58
-53.30
-36.76
-22.30
-13.38
-11.72
-16.84
-26.27
-36.39
-43.66
-45.69
-41.87
-33.30
-22.18
-10.81
-0.97
6.56
11.86
15.54
18.48
21.58
25.75
31.72
39.97
50.43
62.39
74.80
86.56
97.32
107.68
119.18
133.63
152.37
175.54
202.06
230.00
257.38
282.86
306.01
327.16
346.80
365.24
382.20
397.07
409.20
418.25
424.28
427.51
427.70
423.84
414.13
396.57
369.88
334.24
291.50
244.77
197.34
151.67
108.85
68.58
29.93
-7.94
-45.17
-81.16
-114.85
-145.28
-171.85
-194.54
-213.72
-229.96
-243.95
-256.49
-268.57
-281.10
-294.41
-307.77
-319.03
-325.14
-323.17
-311.65
-291.34
-265.14
-237.02
-210.71
-188.50
-170.95
-157.34
-146.45
-137.22
-128.98
-121.35
-113.94
-106.24
-97.67
-87.90
-77.03
-65.74
-55.15
-46.32
-39.95
-36.05
-34.11
-33.33
-33.13
-33.46
-34.85
-38.26
-44.60
-54.38
-67.37
-82.66
-98.73
-114.02
-127.22
-137.63
-145.22
-150.30
-153.22
-154.13
-153.03
-149.90
-145.12
-139.45
-133.91
-129.42
-126.61
-125.81
-127.34
-131.93
-140.69
-154.61
-173.64
-195.77
-216.82
-231.52
-235.21
-225.72
-204.28
-175.20
-144.08
-115.75
-92.78
-75.23
-61.53
-49.86
-39.16
-29.41
-21.16
-14.82
-10.20
-6.46
-2.51
2.70
9.99
19.94
32.94
49.01
67.31
85.85
101.51
110.64
110.17
98.70
77.12
48.38
16.59
-14.27
-41.38
-63.42
-80.24
-92.25
-99.83
-103.19
-102.41
-97.91
-90.46
-81.15
-71.00
-60.68
-50.26
-39.28
-26.90
-12.07
6.31
29.19
57.12
90.05
127.18
167.17
208.48
249.64
289.59
327.48
362.49
393.70
420.17
441.33
457.20
468.35
475.35
478.31
476.52
468.61
453.30
430.23
400.56
366.95
332.80
301.06
273.29
249.13
226.73
203.89
179.07
152.28
124.84
98.79
75.75
56.39
40.22
26.26
13.76
2.49
-7.23
-15.08
-21.09
-25.80
-29.96
-34.08
-38.24
-42.22
-45.95
-50.03
-55.82
-65.15
-79.59
-99.56
-124.03
-150.64
-176.57
-199.56
-218.63
-234.12
-247.20
-258.93
-269.76
-279.51
-287.96
-295.51
-303.27
-312.80
-325.29
-340.91
-358.65
-376.68
-392.84
-404.98
-411.13
-409.37
-398.08
-376.18
-343.68
-301.98
-253.65
-202.10
-150.76
-102.67
-60.18
-24.96
2.17
21.38
33.96
42.07
48.18
54.32
61.47
69.50
77.46
84.31
89.44
92.75
94.49
94.84
93.76
91.11
87.01
82.03
77.08
73.08
70.58
69.51
69.36
69.51
69.53
69.32
68.97
68.39
67.31
65.23
61.79
56.94
51.10
44.95
39.16
34.23
30.32
27.43
25.60
25.12
26.45
30.09
36.26
44.73
54.81
65.60
76.46
87.36
99.06
112.73
129.45
149.61
172.53
196.57
219.70
240.15
256.96
270.19
280.57
289.14
296.59
303.05
307.93
310.14
308.37
301.39
288.35
269.11
244.26
215.26
184.07
152.93
123.86
98.12
76.05
57.11
40.19
24.20
8.49
-6.95
-21.50
-34.31
-44.75
-52.66
-58.53
-63.38
-68.46
-74.93
-83.66
-94.98
-108.72
-124.28
-140.92
-158.00
-175.22
-192.66
-210.63
-229.42
-249.11
-269.49
-290.17
-310.65
-330.20
-347.65
-361.08
-368.08
-366.30
-354.44
-333.06
-304.79
-273.65
-243.80
-218.30
-198.34
-183.45
-172.19
-163.09
-155.17
-148.04
-141.57
-135.57
-129.72
-123.69
-117.44
-111.32
-106.06
-102.41
-100.64
-100.19
-99.78
-97.68
-92.59
-84.13
-73.23
-61.83
-52.15
-45.59
-42.06
-39.89
-36.31
-28.65
-15.29
3.75
26.95
51.90
76.00
97.04
113.52
124.80
131.16
133.90
135.06
136.85
140.73
146.69
152.93
156.47
154.22
144.24
126.71
104.04
80.25
60.02
47.44
45.00
52.89
68.80
88.24
105.60
115.58
114.70
102.34
80.95
55.11
30.08
10.21
-2.33
-7.79
-8.43
-7.37
-7.48
-10.42
-16.34
-23.85
-30.75
-35.05
-35.94
-34.41
-33.06
-35.08
-42.70
-55.97
-72.39
-87.84
-98.49
-102.62
-101.49
-98.74
-98.48
-103.02
-111.57
-120.50
-125.01
-121.30
-108.28
-87.87
-63.90
-40.31
-19.31
-0.59
18.30
40.44
67.78
99.79
133.19
163.09
184.84
195.82
196.21
188.57
176.29
162.05
147.07
131.29
114.54
97.35
81.19
67.90
58.60
53.13
50.02
47.30
43.50
38.43
33.10
29.28
28.78
32.84
41.87
55.60
73.26
93.74
115.59
136.97
155.73
169.77
177.47
178.28
172.80
162.64
149.86
136.32
123.11
110.54
98.16
84.99
69.69
50.78
26.90
-2.60
-37.28
-75.34
-113.87
-149.60
-179.80
-202.88
-218.46
-227.03
-229.46
-226.64
-219.43
-208.79
-195.79
-181.59
-167.30
-153.83
-141.94
-132.30
-125.53
-122.06
-121.67
-123.27
-124.97
-124.57
-120.52
-112.60
-102.06
-90.96
-81.02
-72.48
-63.79
-52.23
-35.20
-11.50
18.24
51.91
86.91
120.99
152.48
180.04
202.31
217.95
226.16
227.41
223.66
217.92
213.24
211.62
213.30
217.08
221.13
223.98
225.00
224.42
222.64
219.59
214.31
205.20
190.69
170.11
144.16
114.84
84.74
56.20
30.46
7.56
-13.35
-33.21
-52.31
-70.01
-84.93
-95.62
-101.28
-102.46
-101.27
-101.16
-106.33
-120.71
-146.72
-184.25
-230.13
-278.43
-321.87
-353.61
-369.22
-367.74
-351.61
-325.42
-294.20
-261.68
-229.82
-199.08
-169.23
-140.15
-112.19
-85.99
-62.18
-41.24
-23.61
-10.17
-2.49
-2.54
-11.79
-30.41
-56.56
-86.69
-116.31
-141.20
-158.33
-166.44
-165.94
-158.34
-145.53
-128.67
-108.48
-85.33
-59.74
-32.46
-4.69
22.21
47.05
69.28
90.25
112.23
138.19
170.98
212.32
261.76
316.03
369.37
414.91
448.10
466.70
471.55
466.14
455.56
445.20
439.71
442.45
454.73
477.14
507.17
539.63
567.87
585.81
589.99
580.43
560.92
525.08
470.92
398.97
313.13
220.52
129.80
48.55
-19.09
-72.17
-112.38
-140.80
-158.89
-168.10
-170.05
-166.68
-158.19
-147.63
-137.69
-130.40
-125.35
-121.45
-117.19
-111.49
-103.84
-94.47
-84.56
-75.26
-67.73
-62.13
-58.55
-55.81
-53.26
-50.59
-48.02
-46.41
-46.39
-48.56
-52.82
-58.71
-65.48
-72.83
-80.57
-88.80
-98.11
-108.75
-121.19
-135.54
-151.37
-167.91
-185.07
-202.65
-220.63
-239.28
-258.11
-277.27
-297.15
-318.08
-340.49
-365.58
-393.12
-421.19
-446.27
-463.19
-468.84
-462.74
-446.62
-423.67
-398.01
-371.53
-343.82
-313.43
-278.11
-239.02
-199.89
-165.33
-129.86
-91.08
-48.20
-2.58
33.42
57.66
70.95
74.89
74.44
72.31
69.15
65.59
62.34
60.20
61.44
66.84
76.72
91.70
112.08
136.61
162.97
187.29
204.67
211.95
207.06
190.73
166.37
138.21
109.10
80.41
52.28
24.83
0.05
-19.55
-31.57
-34.87
-30.59
-21.81
-11.95
-3.35
3.44
9.64
16.63
25.13
34.98
45.45
56.12
67.40
80.38
96.04
114.36
133.58
150.52
161.74
164.59
158.12
143.12
121.62
96.18
69.29
43.03
19.09
-1.20
-16.91
-27.58
-33.31
-34.81
-33.28
-30.16
-26.84
-24.36
-23.30
-23.77
-25.56
-28.38
-31.98
-36.28
-41.20
-46.64
-52.27
-57.58
-62.00
-65.04
-66.53
-66.59
-65.44
-63.30
-60.21
-56.03
-50.63
-44.10
-36.80
-29.41
-22.58
-16.84
-12.42
-9.33
-7.51
-6.91
-7.49
-9.00
-10.97
-12.62
-13.14
-11.95
-8.98
-4.64
0.28
4.98
9.03
12.50
15.93
20.08
25.42
32.00
39.37
46.81
53.80
60.09
65.77
71.02
75.88
79.98
82.85
84.04
83.57
82.01
80.20
78.96
78.58
78.74
78.51
76.98
73.63
68.65
62.92
57.45
52.94
49.36
46.09
42.25
37.31
31.26
24.55
17.76
11.28
5.26
-0.34
-5.36
-9.50
-12.27
-13.29
-12.52
-10.29
-7.14
-3.60
-0.01
3.72
7.90
12.86
18.71
25.13
31.50
37.03
41.12
43.62
44.84
45.44
46.00
46.79
47.73
48.43
48.54
48.00
47.07
46.22
45.88
46.16
46.84
47.45
47.52
46.85
45.55
43.89
42.18
40.46
38.52
35.95
32.35
27.62
22.09
16.44
11.49
7.97
6.18
5.99
7.00
8.88
11.55
15.28
20.48
27.29
35.38
43.82
51.40
57.06
60.31
61.28
60.58
58.95
56.90
54.66
52.18
49.58
47.10
45.21
44.28
44.27
44.58
44.09
41.62
36.35
28.24
18.03
6.94
-3.87
-13.68
-22.47
-30.76
-39.25
-48.41
-58.21
-68.07
-77.14
-84.58
-89.86
-92.98
-94.28
-94.27
-93.41
-91.94
-89.96
-87.58
-85.00
-82.55
-80.38
-78.39
-76.09
-72.88
-68.27
-62.14
-54.88
-47.04
-39.09
-31.21
-23.27
-15.07
-6.56
1.91
9.71
16.15
20.82
23.69
25.13
25.68
25.82
25.79
25.47
24.58
22.89
20.29
16.84
12.77
8.22
3.31
-1.88
-7.25
-12.54
-17.36
-21.33
-24.27
-26.29
-27.77
-29.17
-30.69
-32.21
-33.25
-33.20
-31.68
-28.75
-24.93
-21.01
-17.74
-15.43
-14.05
-13.20
-12.43
-11.43
-10.14
-8.73
-7.44
-6.40
-5.52
-4.61
-3.34
-1.57
0.61
2.97
5.21
7.15
8.81
10.33
11.79
13.12
14.04
14.12
13.20
11.45
9.34
7.41
5.98
4.85
3.47
1.23
-2.16
-6.36
-10.51
-13.59
-14.82
-14.02
-11.57
-8.21
-4.63
-1.28
1.75
4.54
7.21
9.71
11.84
13.26
13.77
13.39
12.37
11.17
10.20
9.63
9.36
8.95
7.89
5.95
3.37
0.67
-1.45
-2.61
-2.91
-2.87
-3.20
-4.35
-6.35
-8.78
-11.06
-12.81
-13.96
-14.90
-16.11
-17.97
-20.52
-23.56
-26.65
-29.42
-31.60
-33.09
-33.85
-33.77
-32.65
-30.28
-26.57
-21.72
-16.23
-10.78
-6.01
-2.25
0.61
2.95
5.28
7.87
10.70
13.37
15.52
16.95
17.79
18.40
19.13
20.10
21.08
21.63
21.32
20.01
17.99
15.72
13.64
11.86
10.10
7.82
4.53
0.18
-4.86
-9.89
-14.30
-17.86
-20.88
-24.06
-28.01
-32.96
-38.57
-44.06
-48.55
-51.51
-52.88
-53.03
-52.44
-51.32
-49.54
-46.74
-42.63
-37.29
-31.24
-25.28
-20.16
-16.25
-13.46
-11.32
-9.29
-7.09
-4.70
-2.46
-0.72
0.32
0.72
0.80
0.93
1.33
1.88
2.24
1.99
1.02
-0.52
-2.17
-3.51
-4.44
-5.25
-6.51
-8.71
-11.95
-15.87
-19.86
-23.42
-26.48
-29.34
-32.54
-36.32
-40.37
-43.89
-45.87
-45.53
-42.76
-38.07
-32.36
-26.49
-20.94
-15.64
-10.23
-4.39
1.83
7.96
13.34
17.43
20.17
21.97
23.49
25.30
27.54
29.87
31.64
32.34
31.87
30.63
29.27
28.39
28.13
28.14
27.80
26.51
24.14
21.04
17.91
15.34
13.56
12.21
10.67
8.43
5.28
1.48
-2.55
-6.46
-10.26
-14.15
-18.40
-22.88
-26.99
-29.78
-30.31
-28.11
-23.34
-16.83
-9.63
-2.63
3.77
9.70
15.55
21.58
27.65
33.20
37.54
40.26
41.50
41.87
42.15
42.88
44.15
45.60
46.67
47.01
46.67
46.07
45.66
45.65
45.86
45.80
44.97
43.07
40.28
37.02
33.85
31.11
28.82
26.72
24.36
21.45
17.94
14.01
10.02
6.29
2.93
-0.20
-3.41
-7.02
-11.06
-15.20
-18.80
-21.22
-22.07
-21.36
-19.54
-17.08
-14.29
-11.07
-7.12
-2.23
3.45
9.29
14.44
18.22
20.40
21.29
21.51
21.67
22.06
22.61
22.96
22.78
22.03
20.98
20.07
19.68
19.85
20.19
20.13
19.16
17.19
14.58
11.97
9.87
8.43
7.30
5.88
3.74
0.88
-2.30
-5.28
-7.79
-10.07
-12.75
-16.47
-21.40
-27.01
-32.20
-35.73
-36.71
-35.02
-31.21
-26.25
-21.02
-16.00
-11.19
-6.25
-0.83
5.12
11.30
17.09
21.90
25.50
28.04
30.03
32.02
34.30
36.72
38.80
40.10
40.45
40.15
39.71
39.54
39.63
39.55
38.63
36.48
33.23
29.42
25.82
22.96
20.86
19.17
17.28
14.78
11.66
8.18
4.69
1.38
-1.88
-5.52
-9.88
-15.04
-20.55
-25.56
-29.06
-30.30
-29.09
-25.81
-21.29
-16.34
-11.46
-6.74
-1.90
3.28
8.82
14.32
19.22
23.11
25.95
28.07
29.99
32.11
34.42
36.61
38.20
38.98
39.11
39.11
39.58
40.77
42.48
44.11
44.97
44.67
43.36
41.61
40.19
39.68
40.15
41.18
42.11
42.39
41.82
40.67
39.53
39.00
39.65
41.77
45.55
51.07
58.37
67.35
77.77
89.15
100.92
112.52
123.56
133.94
143.74
153.07
161.88
169.79
176.08
179.93
180.61
177.70
171.23
161.47
148.73
133.36
115.71
96.23
75.64
54.90
35.15
17.52
3.05
-7.42
-13.36
-14.74
-12.09
-6.40
1.20
9.69
18.51
27.49
36.64
45.91
55.10
63.95
72.22
79.79
86.55
92.26
96.63
99.44
100.74
100.86
100.32
99.54
98.73
97.87
96.95
95.94
94.80
93.26
90.78
86.67
80.47
72.20
62.59
52.72
43.61
35.80
29.12
22.84
16.00
7.71
-2.51
-14.68
-28.49
-43.47
-59.17
-75.37
-92.08
-109.43
-127.73
-147.34
-168.54
-191.34
-215.23
-238.99
-260.90
-279.12
-292.35
-300.32
-303.88
-304.67
-304.41
-304.36
-304.95
-306.05
-307.20
-308.02
-308.39
-308.37
-308.04
-307.26
-305.38
-301.19
-293.04
-279.12
-258.08
-229.64
-194.72
-155.39
-114.34
-74.18
-37.04
-4.41
22.74
44.02
59.46
69.76
76.20
80.45
84.22
88.90
95.27
103.50
113.29
124.07
135.07
145.26
153.36
157.94
157.66
151.68
139.87
122.87
101.85
78.04
52.35
25.20
-3.31
-33.16
-64.06
-95.51
-126.92
-157.92
-188.32
-217.97
-246.47
-273.11
-297.05
-317.60
-334.49
-347.67
-356.94
-361.64
-360.58
-352.65
-337.43
-315.71
-289.34
-260.61
-231.61
-203.80
-178.12
-155.21
-135.68
-120.07
-108.48
-100.31
-94.29
-88.74
-81.98
-72.70
-60.16
-44.26
-25.56
-5.32
14.76
33.01
48.33
60.60
70.66
79.81
89.08
98.77
108.36
116.87
123.41
127.59
129.60
129.92
128.94
126.75
123.07
117.57
110.14
101.03
90.89
80.48
70.40
60.93
52.04
43.61
35.60
28.14
21.45
15.67
10.67
6.12
1.68
-2.71
-6.66
-9.36
-9.92
-7.68
-2.56
4.84
13.49
22.30
30.61
38.34
45.98
54.08
62.82
71.81
80.09
86.58
90.60
92.06
91.49
89.67
87.20
84.24
80.60
76.02
70.59
64.93
59.93
56.46
54.90
54.89
55.55
55.74
54.60
51.75
47.30
41.56
34.78
26.93
17.79
7.18
-4.68
-16.94
-28.30
-37.22
-42.51
-43.68
-41.02
-35.38
-27.77
-19.06
-9.91
-1.00
6.87
12.80
16.11
16.69
15.22
12.92
10.97
10.01
9.77
9.29
7.45
3.54
-2.29
-9.10
-15.43
-19.82
-21.20
-19.14
-13.94
-6.47
2.12
10.73
18.59
25.40
31.16
36.03
40.16
43.59
46.30
48.28
49.53
49.93
49.34
47.54
44.47
40.44
36.16
32.63
30.67
30.58
31.94
33.80
35.08
34.99
33.40
30.75
27.90
25.60
24.24
23.61
23.03
21.66
18.90
14.68
9.56
4.51
0.53
-1.72
-2.24
-1.58
-0.55
0.15
0.20
-0.38
-1.39
-2.78
-4.77
-7.74
-11.92
-17.14
-22.78
-27.95
-31.91
-34.26
-35.01
-34.32
-32.25
-28.60
-23.01
-15.15
-4.97
7.19
20.65
34.60
48.33
61.36
73.51
84.83
95.53
105.88
116.06
126.14
136.04
145.59
154.53
162.57
169.32
174.37
177.30
177.82
175.97
172.07
166.66
160.34
153.42
145.79
136.97
126.32
113.36
98.02
80.65
61.91
42.39
22.52
2.41
-17.93
-38.29
-58.20
-76.90
-93.64
-108.01
-120.10
-130.43
-139.56
-147.68
-154.51
-159.41
-161.72
-161.20
-158.19
-153.43
-147.55
-140.78
-132.88
-123.42
-112.29
-100.01
-87.72
-76.91
-68.82
-64.07
-62.63
-64.05
-67.76
-73.36
-80.50
-88.77
-97.51
-105.65
-112.07
-115.83
-116.46
-114.17
-109.62
-103.79
-97.59
-91.73
-86.55
-82.07
-78.03
-73.97
-69.36
-63.82
-57.11
-49.25
-40.42
-30.84
-20.75
-10.29
0.31
10.79
20.82
30.04
38.20
45.12
50.80
55.24
58.58
61.09
63.24
65.77
69.46
74.81
81.76
89.62
97.18
103.26
107.09
108.46
107.76
105.66
102.80
99.60
96.35
93.31
90.83
89.36
89.26
90.68
93.38
96.85
100.36
103.23
105.04
105.73
105.67
105.58
106.30
108.46
112.23
117.23
122.64
127.49
130.92
132.27
131.05
126.74
118.79
106.71
90.52
70.85
48.96
26.42
4.57
-15.89
-34.76
-52.24
-68.46
-83.21
-96.15
-106.92
-115.45
-122.12
-127.59
-132.55
-137.43
-142.27
-146.76
-150.43
-152.86
-153.79
-153.31
-151.71
-149.39
-146.60
-143.42
-139.63
-134.89
-128.86
-121.24
-111.96
-101.03
-88.55
-74.69
-59.71
-44.06
-28.36
-13.36
0.14
11.46
20.21
26.26
29.74
31.07
30.86
29.95
29.28
29.84
32.36
37.21
44.23
52.80
62.04
71.07
79.18
85.95
91.18
94.73
96.41
95.99
93.13
87.60
79.25
68.27
55.19
40.84
26.26
12.47
0.28
-9.86
-17.86
-23.88
-28.19
-31.02
-32.53
-32.92
-32.36
-31.22
-29.98
-29.20
-29.35
-30.75
-33.41
-37.01
-40.94
-44.37
-46.32
-45.81
-42.06
-34.72
-24.18
-11.63
1.06
11.83
19.08
22.19
21.70
19.03
15.79
13.15
11.47
10.37
9.18
7.37
4.75
1.51
-2.12
-6.11
-10.65
-15.91
-21.81
-27.78
-32.87
-36.15
-37.05
-35.67
-32.73
-29.27
-26.09
-23.56
-21.40
-18.89
-15.20
-9.79
-2.54
6.17
15.63
25.11
33.97
41.85
48.56
53.96
57.88
60.14
60.63
59.53
57.27
54.45
51.68
49.26
47.15
45.10
42.86
40.44
38.15
36.49
35.83
36.26
37.43
38.68
39.30
38.84
37.06
34.01
29.90
24.91
19.18
12.84
6.11
-0.61
-6.78
-11.96
-15.90
-18.73
-20.95
-23.20
-25.87
-28.88
-31.56
-33.03
-32.61
-30.16
-26.16
-21.46
-16.80
-12.42
-8.11
-3.34
2.16
8.21
14.16
19.23
22.85
24.92
25.73
25.67
25.00
23.65
21.38
17.94
13.43
8.37
3.57
-0.09
-2.09
-2.37
-1.38
0.22
1.78
2.96
3.78
4.47
5.25
6.04
6.51
6.17
4.64
1.81
-2.07
-6.53
-11.13
-15.51
-19.49
-22.92
-25.54
-27.00
-26.87
-24.86
-20.92
-15.33
-8.55
-1.09
6.64
14.36
21.68
28.14
33.10
35.92
36.14
33.80
29.45
24.02
18.54
13.77
10.00
7.10
4.65
2.27
-0.22
-2.76
-5.14
-7.16
-8.85
-10.40
-12.05
-13.91
-15.78
-17.19
-17.62
-16.76
-14.68
-11.96
-9.40
-7.71
-7.20
-7.65
-8.46
-8.98
-8.78
-7.78
-6.29
-4.64
-3.08
-1.54
0.33
2.95
6.63
11.36
16.88
22.67
28.33
33.57
38.34
42.83
47.14
51.28
55.08
58.35
60.95
62.96
64.57
65.98
67.20
68.04
68.10
67.00
64.65
61.15
56.86
52.08
46.90
41.22
34.81
27.55
19.62
11.47
3.58
-3.77
-10.68
-17.65
-25.26
-33.81
-43.03
-52.07
-59.81
-65.13
-67.41
-66.58
-63.14
-57.84
-51.42
-44.47
-37.33
-30.24
-23.48
-17.41
-12.36
-8.57
-5.89
-3.92
-2.03
0.27
3.17
6.50
9.81
12.63
14.61
15.65
15.79
15.13
13.66
11.27
7.79
3.17
-2.46
-8.73
-15.14
-21.18
-26.57
-31.27
-35.45
-39.36
-43.14
-46.80
-50.22
-53.29
-56.00
-58.51
-61.08
-63.91
-66.94
-69.88
-72.20
-73.28
-72.59
-69.89
-65.23
-58.93
-51.49
-43.41
-35.17
-27.12
-19.44
-12.24
-5.54
0.71
6.58
12.14
17.46
22.52
27.22
31.37
34.79
37.29
38.85
39.56
39.63
39.31
38.75
37.95
36.74
34.91
32.26
28.70
24.26
19.07
13.32
7.26
1.15
-4.69
-10.01
-14.64
-18.60
-22.17
-25.75
-29.63
-33.81
-37.87
-41.10
-42.82
-42.73
-41.07
-38.52
-35.85
-33.44
-31.15
-28.39
-24.49
-18.99
-11.89
-3.54
5.58
15.07
24.77
34.54
44.11
52.90
60.07
64.71
66.17
64.37
59.87
53.66
46.88
40.42
34.66
29.52
24.65
19.83
15.18
11.13
8.29
7.11
7.59
9.25
11.31
13.07
14.19
14.77
15.15
15.59
16.07
16.17
15.28
12.94
9.11
4.19
-1.08
-5.98
-10.02
-13.10
-15.37
-16.97
-17.83
-17.62
-15.87
-12.28
-6.92
-0.34
6.56
12.80
17.68
20.89
22.54
23.01
22.70
21.99
21.11
20.32
19.91
20.18
21.41
23.67
26.80
30.37
33.82
36.69
38.79
40.28
41.57
43.06
44.88
46.79
48.32
48.95
48.38
46.67
44.08
40.90
37.14
32.56
26.80
19.79
11.76
3.31
-4.84
-12.16
-18.49
-23.93
-28.75
-33.05
-36.73
-39.59
-41.47
-42.44
-42.86
-43.29
-44.24
-45.98
-48.36
-50.90
-52.92
-53.79
-53.11
-50.78
-46.95
-41.76
-35.32
-27.59
-18.55
-8.33
2.66
13.76
24.24
33.68
42.11
49.95
57.76
65.88
74.09
81.64
87.45
90.55
90.35
86.84
80.45
71.83
61.60
50.25
38.25
26.22
15.08
5.93
-0.21
-2.85
-2.27
0.40
3.54
5.63
5.80
4.15
1.71
-0.14
-0.16
2.18
6.58
12.20
18.01
23.24
27.53
30.88
33.49
35.60
37.46
39.25
41.08
42.73
43.54
42.37
38.01
29.70
17.60
2.91
-12.54
-27.02
-39.56
-50.21
-59.81
-69.35
-79.34
-89.57
-99.24
-107.40
-113.45
-117.36
-119.57
-120.64
-120.83
-119.97
-117.49
-112.78
-105.50
-95.94
-84.94
-73.64
-63.05
-53.73
-45.64
-38.42
-31.67
-25.31
-19.58
-14.95
-11.70
-9.69
-8.34
-6.81
-4.48
-1.12
2.94
7.06
10.62
13.23
14.87
15.87
16.62
17.31
17.84
17.89
17.17
15.62
13.51
11.35
9.59
8.46
7.74
6.97
5.63
3.51
0.76
-2.23
-5.06
-7.51
-9.66
-11.67
-13.61
-15.32
-16.35
-16.17
-14.45
-11.19
-6.81
-1.95
2.85
7.30
11.34
15.02
18.31
20.93
22.41
22.39
20.88
18.26
15.22
12.43
10.21
8.49
6.83
4.70
1.78
-1.88
-5.93
-9.90
-13.43
-16.53
-19.52
-22.85
-26.86
-31.62
-36.79
-41.89
-46.48
-50.29
-53.36
-55.81
-57.74
-59.17
-60.08
-60.54
-60.77
-61.14
-62.03
-63.63
-65.78
-68.04
-69.93
-71.21
-72.19
-73.61
-76.32
-80.78
-86.69
-92.90
-97.86
-100.15
-99.03
-94.60
-87.66
-79.15
-69.80
-60.01
-49.77
-39.06
-28.03
-17.04
-6.58
2.93
11.37
18.83
25.48
31.43
36.54
40.47
42.82
43.42
42.47
40.56
38.40
36.63
35.37
34.32
32.81
30.23
26.29
21.25
15.74
10.50
6.09
2.66
0.10
-1.69
-2.62
-2.38
-0.65
2.63
7.12
12.18
17.14
21.61
25.59
29.31
33.05
36.81
40.35
43.30
45.32
46.35
46.56
46.25
45.55
44.38
42.45
39.44
35.19
29.90
24.14
18.60
13.90
10.24
7.46
5.05
2.49
-0.52
-3.92
-7.40
-10.55
-13.15
-15.28
-17.30
-19.68
-22.73
-26.47
-30.54
-34.36
-37.30
-38.85
-38.75
-36.99
-33.63
-28.84
-22.74
-15.49
-7.37
1.23
9.80
17.73
24.57
30.07
34.24
37.37
39.76
41.67
43.14
44.11
44.47
44.30
43.80
43.30
43.05
43.04
43.01
42.63
41.69
40.23
38.50
36.72
34.91
32.83
30.10
26.46
21.98
17.10
12.42
8.44
5.28
2.65
0.09
-2.92
-6.65
-11.05
-15.89
-20.85
-25.67
-30.11
-33.93
-36.71
-37.97
-37.23
-34.27
-29.28
-22.88
-15.94
-9.32
-3.57
1.18
5.11
8.59
11.83
14.88
17.58
19.76
21.39
22.62
23.72
24.93
26.38
27.97
29.50
30.71
31.52
31.94
32.12
32.15
32.09
31.90
31.47
30.63
29.29
27.43
25.11
22.51
19.79
17.10
14.48
11.88
9.20
6.46
3.71
1.09
-1.30
-3.47
-5.49
-7.45
-9.30
-10.72
-11.18
-10.20
-7.54
-3.30
2.00
7.71
13.21
18.09
22.21
25.60
28.30
30.25
31.34
31.44
30.64
29.27
27.81
26.75
26.32
26.40
26.53
26.13
24.80
22.60
19.94
17.44
15.51
14.18
13.05
11.53
9.18
5.94
2.26
-1.21
-3.82
-5.28
-5.66
-5.31
-4.59
-3.61
-2.20
0.03
3.41
7.94
13.33
19.03
24.54
29.75
34.95
40.77
47.84
56.47
66.52
77.57
89.06
100.52
111.45
121.29
129.22
134.27
135.45
132.14
124.32
112.45
97.40
80.15
61.82
43.69
27.29
14.31
6.34
4.43
8.67
18.32
31.92
47.81
64.61
81.55
98.54
115.92
134.16
153.28
172.56
190.16
203.30
208.91
204.65
189.80
165.77
135.74
103.57
72.56
44.47
19.41
-3.46
-25.02
-45.36
-63.68
-78.80
-89.80
-96.58
-99.88
-100.85
-100.50
-99.45
-97.81
-95.60
-93.03
-90.63
-89.13
-88.99
-90.08
-91.55
-92.15
-90.80
-87.10
-81.45
-74.85
-68.22
-61.94
-55.67
-48.66
-40.26
-30.39
-19.69
-9.15
0.25
8.00
14.08
18.84
22.69
26.03
29.34
33.46
39.63
49.31
63.50
82.22
104.07
126.49
146.45
161.32
169.65
171.21
166.69
157.10
143.33
126.07
106.07
84.30
62.04
40.58
20.87
3.18
-12.85
-27.93
-42.77
-57.80
-73.15
-88.85
-104.90
-121.25
-137.76
-154.05
-169.45
-183.21
-194.62
-203.26
-208.97
-211.85
-212.03
-209.64
-204.75
-197.48
-188.19
-177.49
-166.29
-155.59
-146.21
-138.47
-131.96
-125.62
-118.13
-108.48
-96.48
-82.96
-69.51
-57.80
-49.01
-43.36
-40.17
-38.31
-36.79
-35.23
-33.91
-33.57
-34.80
-37.71
-41.77
-46.03
-49.53
-51.69
-52.53
-52.54
-52.33
-52.31
-52.45
-52.37
-51.52
-49.47
-45.93
-40.64
-33.28
-23.45
-10.87
4.28
21.15
38.25
53.68
65.68
73.08
75.58
73.61
68.15
60.39
51.51
42.55
34.32
27.30
21.66
17.26
13.74
10.61
7.52
4.30
1.08
-1.91
-4.46
-6.59
-8.51
-10.56
-13.01
-15.98
-19.37
-22.87
-26.11
-28.70
-30.42
-31.22
-31.25
-30.76
-30.08
-29.49
-29.18
-29.23
-29.59
-30.32
-31.57
-33.59
-36.60
-40.65
-45.59
-51.03
-56.51
-61.64
-66.24
-70.46
-74.59
-78.75
-82.79
-86.13
-88.03
-87.88
-85.50
-81.31
-76.10
-70.64
-65.28
-59.78
-53.51
-45.83
-36.47
-25.68
-14.05
-2.17
9.71
21.70
34.06
46.90
59.93
72.47
83.76
93.28
100.93
106.97
111.72
115.15
116.81
115.99
112.18
105.45
96.57
86.66
76.71
67.09
57.47
47.11
35.49
22.68
9.40
-3.27
-14.43
-23.69
-31.24
-37.61
-43.44
-49.12
-54.78
-60.17
-64.78
-67.99
-69.14
-67.83
-63.91
-57.62
-49.44
-39.98
-29.76
-19.19
-8.61
1.59
10.88
18.62
24.20
27.19
27.48
25.34
21.31
16.04
10.21
4.41
-0.84
-5.16
-8.29
-10.26
-11.31
-11.88
-12.40
-13.11
-13.93
-14.48
-14.32
-13.17
-11.05
-8.27
-5.27
-2.45
-0.04
1.88
3.29
4.15
4.30
3.57
1.74
-1.39
-5.92
-11.86
-18.99
-26.83
-34.62
-41.47
-46.46
-48.90
-48.51
-45.46
-40.41
-34.30
-28.18
-22.87
-18.91
-16.39
-15.09
-14.62
-14.57
-14.65
-14.72
-14.78
-14.85
-14.99
-15.19
-15.36
-15.37
-15.08
-14.37
-13.20
-11.61
-9.59
-7.12
-4.12
-0.53
3.61
8.14
12.88
17.65
22.39
27.04
31.46
35.29
38.02
39.05
37.95
34.59
29.13
21.94
13.47
4.31
-4.73
-12.46
-17.52
-18.62
-15.07
-7.16
3.78
15.83
26.98
35.83
41.85
45.22
46.44
46.01
44.17
41.06
36.87
31.93
26.73
21.79
17.46
13.88
11.08
9.05
7.85
7.56
8.20
9.51
11.00
11.92
11.58
9.56
5.94
1.29
-3.56
-7.85
-11.30
-14.06
-16.72
-19.86
-23.93
-29.12
-35.51
-43.17
-52.21
-62.64
-74.19
-86.16
-97.39
-106.59
-112.61
-114.78
-113.00
-107.65
-99.27
-88.32
-75.06
-59.62
-42.31
-23.70
-4.72
13.61
30.37
45.06
57.58
68.11
76.85
83.78
88.69
91.28
91.40
89.21
85.19
80.09
74.77
69.93
65.89
62.64
59.78
56.74
53.04
48.50
43.41
38.47
34.56
32.42
32.42
34.44
37.91
42.09
46.19
49.69
52.40
54.50
56.40
58.64
61.57
65.34
69.71
74.03
77.37
78.66
76.94
71.63
62.77
50.92
37.19
22.69
8.32
-5.64
-19.58
-34.36
-50.88
-69.44
-89.36
-108.90
-125.67
-137.54
-143.36
-143.48
-139.65
-134.37
-130.07
-128.40
-129.88
-134.06
-139.85
-145.94
-151.12
-154.41
-155.12
-152.90
-147.68
-139.62
-129.30
-117.68
-106.08
-96.05
-89.01
-85.89
-86.86
-91.34
-98.22
-106.23
-114.29
-121.65
-127.88
-132.79
-136.35
-138.86
-141.05
-143.96
-148.71
-156.00
-165.91
-177.96
-191.53
-206.40
-223.13
-242.56
-264.78
-288.03
-308.29
-320.11
-318.32
-300.00
-265.62
-218.91
-165.37
-110.39
-57.88
-9.66
33.97
73.44
109.26
141.89
171.92
200.06
226.83
252.02
274.49
292.34
303.71
307.72
304.97
297.47
287.74
277.87
268.73
259.96
250.47
239.21
225.78
210.60
194.83
179.91
167.30
158.09
152.75
150.98
151.81
153.94
156.02
157.06
156.61
154.67
151.63
148.01
144.48
141.64
139.99
139.66
140.32
141.08
140.75
138.25
133.06
125.55
116.68
107.68
99.36
91.73
83.94
74.65
62.75
47.94
31.07
14.03
-0.79
-11.26
-16.21
-15.74
-11.11
-4.17
3.26
9.87
15.02
18.55
20.56
21.22
20.83
19.81
18.68
17.78
17.03
15.90
13.67
9.86
4.65
-1.15
-6.43
-10.23
-11.93
-11.16
-7.60
-0.86
9.26
22.37
37.21
51.81
63.99
72.14
75.66
75.06
71.58
66.72
61.64
57.04
53.00
49.23
45.22
40.43
34.38
26.69
17.06
5.31
-8.48
-23.84
-39.83
-55.03
-67.80
-76.60
-80.34
-78.73
-72.41
-62.77
-51.73
-41.21
-32.71
-26.85
-23.36
-21.26
-19.41
-16.98
-13.65
-9.52
-4.89
0.13
5.59
11.58
18.01
24.44
30.11
34.23
36.18
35.60
32.37
26.53
18.22
7.87
-3.67
-15.06
-24.60
-30.71
-32.44
-29.84
-24.07
-16.96
-10.41
-5.72
-3.27
-2.72
-3.34
-4.55
-6.11
-8.23
-11.21
-15.13
-19.76
-24.53
-28.73
-31.82
-33.51
-33.76
-32.73
-30.54
-27.16
-22.53
-16.62
-9.60
-2.00
5.38
11.71
16.49
19.67
21.76
23.45
25.22
27.10
28.61
29.13
28.32
26.36
23.94
21.85
20.64
20.33
20.49
20.49
19.86
18.44
16.39
13.97
11.25
8.08
4.12
-0.89
-6.86
-13.24
-19.07
-23.30
-25.26
-25.00
-23.34
-21.55
-20.75
-21.42
-23.17
-24.99
-25.76
-24.77
-21.85
-17.34
-11.72
-5.43
1.24
7.92
14.07
18.92
21.73
22.12
20.26
16.87
12.90
9.21
6.14
3.53
0.87
-2.28
-5.89
-9.42
-12.02
-12.97
-11.98
-9.45
-6.22
-3.13
-0.69
1.11
2.72
4.76
7.68
11.63
16.38
21.43
26.26
30.54
34.32
37.97
41.96
46.53
51.48
56.22
60.01
62.35
63.20
62.88
61.86
60.41
58.52
56.00
52.86
49.44
46.50
44.97
45.68
49.05
55.03
63.18
72.87
83.50
94.58
105.84
117.13
128.24
138.92
148.89
157.89
165.64
171.75
175.56
176.01
171.87
162.23
147.01
127.34
105.29
83.29
63.26
46.04
31.31
18.10
5.45
-7.05
-19.19
-30.54
-40.88
-50.49
-60.03
-70.16
-81.08
-92.41
-103.31
-112.92
-120.80
-127.02
-132.08
-136.61
-140.92
-144.98
-148.40
-150.75
-151.77
-151.55
-150.45
-148.90
-147.21
-145.41
-143.30
-140.55
-136.97
-132.56
-127.57
-122.28
-116.91
-111.41
-105.67
-99.61
-93.43
-87.51
-82.37
-78.30
-75.24
-72.82
-70.55
-68.00
-65.01
-61.69
-58.28
-54.97
-51.90
-49.12
-46.72
-44.92
-43.98
-44.16
-45.53
-47.87
-50.59
-52.91
-54.01
-53.31
-50.67
-46.36
-41.05
-35.34
-29.70
-24.29
-19.03
-13.78
-8.59
-3.70
0.52
3.77
5.98
7.39
8.29
8.91
9.26
9.18
8.46
7.12
5.45
3.93
3.02
2.94
3.51
4.25
4.58
4.09
2.67
0.48
-2.08
-4.70
-7.23
-9.68
-12.30
-15.35
-19.00
-23.31
-28.25
-33.72
-39.65
-46.00
-52.51
-58.66
-63.61
-66.39
-66.27
-63.08
-57.26
-49.82
-41.86
-34.13
-26.89
-19.93
-12.93
-5.85
0.97
6.94
11.56
14.75
16.90
18.65
20.53
22.66
24.69
26.02
26.22
25.32
23.78
22.33
21.53
21.54
22.02
22.37
22.08
20.88
18.86
16.37
13.78
11.30
8.92
6.47
3.74
0.61
-2.86
-6.51
-10.13
-13.64
-17.15
-20.89
-25.06
-29.58
-34.00
-37.56
-39.43
-39.12
-36.69
-32.63
-27.71
-22.55
-17.41
-12.25
-6.95
-1.59
3.44
7.56
10.43
12.07
13.02
14.06
15.91
18.86
22.72
26.95
31.00
34.52
37.53
40.31
43.18
46.24
49.28
51.93
53.86
55.11
55.99
56.97
58.33
60.00
61.50
62.27
61.93
60.56
58.60
56.60
54.89
53.41
51.89
50.11
48.15
46.44
45.59
46.07
48.07
51.47
56.03
61.60
68.24
76.17
85.51
96.21
107.97
120.32
132.88
145.47
158.20
171.33
185.10
199.57
214.48
229.36
243.64
256.81
268.57
278.79
287.49
294.66
300.18
303.72
304.78
302.85
297.56
288.73
276.43
260.77
241.88
219.91
195.21
168.55
141.20
114.75
90.76
70.29
53.68
40.53
30.01
21.20
13.41
6.27
-0.33
-6.38
-11.94
-17.21
-22.54
-28.35
-35.01
-42.72
-51.48
-61.11
-71.32
-81.81
-92.48
-103.28
-114.41
-126.16
-139.01
-153.42
-169.64
-187.39
-205.56
-222.42
-235.98
-244.75
-248.29
-247.45
-244.03
-240.12
-237.37
-236.42
-236.99
-238.14
-238.84
-238.34
-236.31
-232.84
-228.10
-222.22
-215.12
-206.67
-196.73
-185.43
-173.13
-160.27
-147.25
-134.25
-121.26
-108.21
-95.19
-82.34
-69.81
-57.55
-45.26
-32.50
-19.00
-4.90
9.26
22.70
34.79
45.27
54.20
61.77
67.94
72.47
75.03
75.64
74.83
73.58
72.88
73.25
74.46
75.62
75.70
73.92
70.08
64.48
57.60
49.84
41.30
32.04
22.21
12.13
2.30
-6.83
-15.02
-22.20
-28.45
-33.96
-39.22
-45.22
-53.65
-66.59
-85.76
-111.73
-143.35
-177.93
-212.11
-242.89
-268.45
-288.10
-301.75
-309.31
-310.52
-305.39
-294.76
-280.69
-265.91
-252.90
-242.68
-234.24
-224.91
-211.43
-191.34
-164.02
-130.75
-94.16
-56.97
-21.17
12.58
44.59
75.47
