1588981607.00
64.000000
-0.00
-0.00
-0.00
-0.00
-0.00
-0.00
-0.00
-0.00
-0.00
-0.00
0.00
0.01
0.01
-0.00
-0.03
-0.05
-0.05
0.00
0.13
0.36
0.66
1.01
1.37
1.72
2.06
2.40
2.79
3.24
3.80
4.42
5.06
5.66
6.20
6.68
7.15
7.68
8.31
9.14
10.09
11.04
11.88
12.56
13.14
13.76
14.65
15.96
17.91
20.32
22.90
25.38
27.58
29.57
31.68
34.32
37.81
42.54
48.15
54.10
59.83
64.97
69.58
74.14
79.34
85.71
93.76
103.00
112.62
121.73
129.77
136.75
143.30
150.75
157.77
166.64
177.95
191.79
206.97
220.57
228.25
225.36
208.53
176.87
132.76
80.05
23.07
-34.94
-92.44
-149.16
-205.23
-260.37
-313.74
-363.87
-409.83
-450.91
-486.50
-515.74
-537.23
-549.22
-549.96
-538.37
-514.21
-478.67
-433.88
-382.45
-327.02
-269.84
-212.63
-156.66
-102.95
-52.37
-5.90
35.58
71.43
101.35
125.50
144.38
158.69
169.15
176.37
180.75
182.57
182.07
179.51
175.23
169.65
163.18
156.15
148.81
141.30
133.69
126.02
118.33
110.69
103.16
95.80
88.68
81.83
75.25
68.95
62.95
57.25
51.86
46.78
42.03
37.59
33.45
29.61
26.07
22.81
19.83
17.11
14.67
12.48
10.54
8.83
7.35
6.07
4.97
4.05
3.27
2.62
2.09
1.65
1.30
1.01
0.79
0.61
0.47
0.37
0.28
0.22
0.18
0.15
0.13
0.12
0.12
0.13
0.15
0.17
0.20
0.23
0.27
0.31
0.35
0.40
0.44
0.49
0.54
0.59
0.64
0.69
0.75
0.81
0.89
0.98
1.08
1.18
1.27
1.34
1.39
1.44
1.50
1.61
1.78
2.00
2.26
2.54
2.81
3.06
3.31
3.59
3.93
4.35
4.86
5.41
5.97
6.49
6.96
7.41
7.90
8.52
9.30
10.24
11.22
12.16
12.92
13.49
13.93
14.44
15.17
16.20
17.43
18.59
19.28
19.12
17.94
15.76
12.85
9.56
6.11
2.55
-1.41
-6.05
-11.60
-17.99
-24.78
-31.26
-36.74
-40.75
-43.22
-44.51
-45.15
-45.77
-46.93
-49.07
-52.32
-56.23
-59.55
-60.31
-56.63
-47.52
-33.63
-17.31
-1.80
10.12
17.07
19.40
18.75
16.98
15.49
14.87
15.18
16.34
18.33
21.15
24.55
27.95
30.59
31.82
31.40
29.58
27.12
24.84
23.44
23.11
23.61
24.42
24.99
25.02
24.43
23.39
22.07
20.76
19.76
19.52
20.36
22.45
25.50
28.83
31.67
33.47
34.15
34.04
33.62
33.14
32.55
31.62
30.05
27.80
25.19
22.85
21.44
21.35
22.47
24.21
25.62
25.78
24.10
20.53
15.51
9.74
3.88
-1.62
-6.60
-11.15
-15.50
-19.86
-24.34
-28.92
-33.38
-37.44
-40.72
-42.89
-43.79
-43.43
-42.00
-39.80
-37.20
-34.54
-32.11
-30.08
-28.51
-27.33
-26.40
-25.59
-24.79
-23.94
-22.95
-21.73
-20.12
-18.03
-15.42
-12.39
-9.11
-5.76
-2.52
0.48
3.08
5.18
6.69
7.64
8.16
8.44
8.67
8.94
9.24
9.44
9.37
8.88
7.89
6.40
4.42
1.97
-0.95
-4.30
-8.06
-12.18
-16.57
-21.16
-25.84
-30.44
-34.68
-38.18
-40.56
-41.58
-41.29
-40.10
-38.65
-37.61
-37.39
-37.98
-38.95
-39.65
-39.47
-38.08
-35.46
-31.93
-27.95
-23.97
-20.22
-16.72
-13.27
-9.56
-5.34
-0.54
4.71
10.10
15.33
20.24
24.89
29.51
34.30
39.32
44.39
49.12
53.07
55.89
57.41
57.67
56.80
54.99
52.37
49.05
45.09
40.54
35.47
29.93
24.03
17.95
11.82
5.78
-0.17
-6.12
-12.22
-18.52
-24.89
-30.95
-36.16
-39.96
-41.98
-42.12
-40.59
-37.74
-33.98
-29.61
-24.84
-19.83
-14.75
-9.79
-5.14
-0.94
2.76
5.99
8.78
11.13
13.01
14.33
15.05
15.15
14.73
13.98
13.19
12.61
12.43
12.57
12.76
12.53
11.46
9.37
6.44
3.13
-0.01
-2.49
-4.17
-5.16
-5.79
-6.46
-7.47
-9.00
-11.07
-13.66
-16.67
-19.90
-23.14
-26.18
-28.89
-31.30
-33.65
-36.28
-39.47
-43.27
-47.36
-50.99
-53.23
-53.20
-50.46
-45.18
-38.09
-30.30
-22.83
-16.39
-11.16
-6.93
-3.23
0.40
4.23
8.30
12.46
16.43
19.97
22.87
25.07
26.58
27.52
28.03
28.26
28.35
28.47
28.79
29.42
30.42
31.62
32.75
33.47
33.57
33.04
32.13
31.15
30.37
29.82
29.31
28.58
27.38
25.71
23.71
21.61
19.51
17.37
14.98
12.12
8.72
4.85
0.81
-3.12
-6.75
-10.14
-13.53
-17.28
-21.72
-26.95
-32.78
-38.66
-43.81
-47.38
-48.76
-47.71
-44.47
-39.61
-33.84
-27.77
-21.74
-15.91
-10.33
-5.03
-0.11
4.43
8.68
12.76
16.79
20.68
24.13
26.77
28.35
28.87
28.66
28.20
27.93
28.12
28.79
29.76
30.83
31.87
32.82
33.69
34.54
35.36
36.13
36.79
37.28
37.60
37.73
37.65
37.28
36.55
35.37
33.72
31.67
29.36
26.88
24.28
21.53
18.60
15.43
12.01
8.35
4.46
0.42
-3.63
-7.53
-11.17
-14.61
-18.11
-22.00
-26.53
-31.61
-36.76
-41.26
-44.37
-45.67
-45.08
-42.93
-39.65
-35.69
-31.38
-26.89
-22.32
-17.66
-12.91
-8.10
-3.28
1.42
5.86
9.92
13.58
16.81
19.57
21.78
23.28
23.98
23.94
23.38
22.68
22.20
22.12
22.40
22.81
23.08
23.05
22.73
22.27
21.77
21.27
20.61
19.58
18.11
16.30
14.38
12.57
10.97
9.43
7.72
5.67
3.24
0.57
-2.18
-4.93
-7.70
-10.58
-13.59
-16.68
-19.79
-22.93
-26.21
-29.70
-33.36
-36.89
-39.74
-41.31
-41.21
-39.39
-36.19
-32.16
-27.91
-23.84
-20.08
-16.63
-13.35
-10.15
-6.98
-3.77
-0.44
3.11
6.88
10.74
14.37
17.40
19.54
20.68
21.00
20.82
20.50
20.28
20.31
20.55
20.88
21.14
21.18
20.88
20.20
19.17
17.86
16.40
14.87
13.36
11.93
10.64
9.52
8.56
7.71
6.86
5.86
4.63
3.16
1.50
-0.31
-2.24
-4.31
-6.52
-8.81
-11.02
-13.03
-14.74
-16.19
-17.55
-19.03
-20.88
-23.23
-26.12
-29.36
-32.62
-35.42
-37.25
-37.73
-36.73
-34.41
-31.19
-27.60
-24.13
-21.04
-18.36
-15.88
-13.29
-10.36
-7.01
-3.39
0.19
3.39
5.99
7.87
9.09
9.72
9.84
9.45
8.61
7.42
6.08
4.86
3.93
3.37
3.11
3.07
3.14
3.25
3.39
3.55
3.74
3.91
4.01
4.01
3.87
3.60
3.21
2.74
2.20
1.63
1.01
0.30
-0.53
-1.52
-2.70
-4.04
-5.48
-7.00
-8.53
-10.11
-11.76
-13.52
-15.40
-17.37
-19.40
-21.47
-23.64
-26.02
-28.69
-31.61
-34.50
-36.95
-38.46
-38.66
-37.43
-34.99
-31.73
-28.13
-24.55
-21.17
-17.91
-14.55
-10.82
-6.57
-1.88
2.98
7.58
11.61
14.92
17.61
19.93
22.10
24.26
26.36
28.30
29.97
31.32
32.38
33.18
33.70
33.85
33.52
32.62
31.13
29.11
26.69
24.01
21.13
18.09
14.85
11.41
7.85
4.36
1.13
-1.67
-3.97
-5.79
-7.21
-8.32
-9.19
-9.87
-10.47
-11.12
-11.96
-13.09
-14.50
-16.11
-17.77
-19.37
-20.81
-22.12
-23.45
-25.09
-27.42
-30.76
-35.19
-40.40
-45.69
-50.10
-52.71
-52.92
-50.57
-46.00
-39.87
-32.96
-25.93
-19.29
-13.24
-7.78
-2.74
2.13
6.99
11.93
16.86
21.60
25.90
29.53
32.30
34.16
35.18
35.56
35.69
35.92
36.54
37.60
38.94
40.22
41.12
41.48
41.32
40.87
40.32
39.85
39.43
38.93
38.15
36.91
35.19
33.04
30.64
28.13
25.55
22.84
19.95
16.89
13.84
11.05
8.69
6.74
4.98
3.10
0.82
-1.92
-5.02
-8.26
-11.41
-14.31
-16.91
-19.27
-21.55
-23.97
-26.72
-29.92
-33.59
-37.56
-41.57
-45.27
-48.28
-50.19
-50.67
-49.50
-46.74
-42.70
-37.89
-32.87
-28.07
-23.68
-19.65
-15.77
-11.80
-7.62
-3.28
1.03
5.01
8.37
10.98
12.95
14.57
16.14
17.84
19.65
21.41
22.97
24.36
25.81
27.54
29.61
31.79
33.63
34.66
34.66
33.81
32.53
31.29
30.36
29.69
29.01
28.04
26.59
24.67
22.43
20.03
17.63
15.22
12.75
10.14
7.31
4.26
1.04
-2.22
-5.42
-8.41
-11.18
-13.76
-16.28
-18.88
-21.71
-24.87
-28.33
-32.01
-35.62
-38.77
-40.98
-41.84
-41.11
-38.86
-35.41
-31.29
-27.10
-23.27
-19.97
-17.07
-14.24
-11.12
-7.46
-3.29
1.17
5.54
9.43
12.61
15.00
16.72
17.97
19.01
20.02
21.10
22.21
23.22
24.02
24.55
24.87
25.04
25.08
24.91
24.40
23.41
21.97
20.26
18.60
17.27
16.37
15.74
15.01
13.87
12.11
9.79
7.16
4.48
1.91
-0.57
-3.09
-5.71
-8.38
-10.92
-13.17
-15.10
-16.92
-18.89
-21.25
-24.09
-27.35
-30.88
-34.52
-38.03
-41.12
-43.43
-44.60
-44.40
-42.85
-40.22
-36.88
-33.20
-29.41
-25.62
-21.89
-18.29
-14.82
-11.45
-8.01
-4.39
-0.56
3.29
6.87
9.90
12.33
14.28
15.99
17.67
19.38
21.03
22.45
23.57
24.40
25.04
25.61
26.13
26.57
26.81
26.76
26.34
25.54
24.41
23.02
21.48
19.82
18.11
16.37
14.62
12.84
10.98
8.94
6.66
4.18
1.60
-0.96
-3.49
-6.10
-9.01
-12.34
-16.07
-19.97
-23.67
-26.98
-29.87
-32.62
-35.59
-39.10
-43.22
-47.81
-52.56
-57.01
-60.72
-63.25
-64.29
-63.67
-61.48
-58.04
-53.76
-49.13
-44.46
-39.90
-35.37
-30.68
-25.62
-20.06
-14.07
-7.89
-1.88
3.60
8.24
11.93
14.73
16.87
18.65
20.31
22.03
23.81
25.58
27.21
28.60
29.68
30.46
30.92
30.94
30.39
29.08
26.93
24.02
20.61
17.03
13.49
10.04
6.47
2.52
-1.99
-7.03
-12.41
-17.91
-23.42
-29.04
-34.99
-41.49
-48.66
-56.46
-64.70
-73.14
-81.60
-89.97
-98.29
-106.66
-115.19
-123.78
-132.10
-139.44
-144.88
-147.52
-146.80
-142.65
-135.52
-126.28
-116.02
-105.91
-97.03
-90.08
-85.25
-81.84
-78.30
-72.49
-62.52
-47.33
-27.01
-2.64
24.28
52.30
80.52
108.58
136.44
163.69
189.25
211.61
229.26
241.24
247.33
248.25
245.56
241.39
236.91
232.02
225.54
215.88
202.05
183.83
162.31
140.12
121.22
108.28
102.35
103.08
109.63
121.45
137.00
153.95
169.71
183.39
194.44
205.21
221.54
250.79
298.32
361.63
429.92
488.22
524.48
530.56
505.72
455.68
388.97
314.05
234.65
151.26
57.80
-35.85
-112.92
-159.98
-175.18
-175.03
-170.69
-168.95
-173.34
-185.29
-194.77
-197.95
-194.69
-187.36
-179.14
-171.50
-166.07
-163.42
-162.42
-159.83
-155.34
-150.62
-148.74
-153.01
-164.89
-185.30
-213.65
-247.51
-282.63
-316.66
-348.76
-379.40
-409.73
-440.50
-473.17
-509.47
-550.56
-595.59
-642.06
-684.58
-715.60
-727.62
-715.80
-680.59
-627.55
-565.02
-500.78
-440.28
-385.59
-336.40
-291.79
-251.27
-215.14
-183.67
-156.28
-131.41
-107.32
-82.93
-58.31
-34.64
-13.59
3.63
16.81
26.86
35.35
43.81
53.10
63.14
73.01
81.51
87.74
91.53
93.43
94.47
95.66
97.55
100.05
102.62
104.52
105.28
104.93
104.00
103.26
103.39
104.66
106.93
109.68
112.37
114.72
116.87
119.33
122.73
127.53
133.81
141.24
149.33
157.64
166.07
174.81
184.28
194.83
206.75
220.24
235.57
252.86
271.72
290.86
307.98
320.38
325.90
323.84
315.18
302.00
286.32
269.18
250.50
229.77
207.03
183.43
160.99
141.59
126.04
113.60
102.61
91.44
79.44
67.14
55.72
46.16
38.56
32.14
25.80
18.81
11.26
3.92
-2.32
-6.99
-10.31
-12.93
-15.40
-17.68
-19.04
-18.50
-15.39
-9.76
-2.57
4.74
10.74
14.52
15.97
15.54
14.05
12.16
10.19
7.94
4.86
0.14
-7.07
-17.32
-30.60
-46.14
-62.49
-77.73
-90.04
-98.26
-102.18
-102.57
-100.74
-97.97
-94.92
-91.16
-85.33
-75.53
-60.14
-38.55
-11.58
18.60
49.05
76.82
99.57
115.94
125.57
129.05
127.86
124.20
120.72
119.80
122.93
130.15
140.04
150.11
157.54
159.87
155.41
143.45
124.30
99.32
70.78
41.60
14.69
-7.62
-24.08
-34.64
-40.21
-42.21
-42.05
-40.75
-38.77
-36.09
-32.47
-27.76
-22.10
-16.05
-10.26
-5.26
-1.10
2.56
6.26
10.33
14.67
18.82
22.17
24.38
25.43
25.54
24.81
23.12
20.11
15.52
9.44
2.40
-4.77
-11.30
-16.62
-20.47
-22.69
-23.14
-21.68
-18.28
-13.05
-6.21
2.12
12.09
23.96
37.84
53.28
69.05
83.48
94.94
102.47
105.97
106.13
103.96
100.47
96.41
92.30
88.49
85.19
82.46
80.15
77.90
75.23
71.74
67.29
61.99
56.15
50.16
44.35
38.94
34.01
29.50
25.28
21.13
16.81
12.15
7.08
1.66
-3.90
-9.27
-14.09
-18.03
-20.86
-22.52
-23.18
-23.16
-22.87
-22.76
-23.22
-24.44
-26.40
-28.87
-31.45
-33.78
-35.69
-37.33
-39.04
-41.32
-44.55
-48.85
-54.03
-59.61
-64.94
-69.29
-72.07
-72.83
-71.42
-67.91
-62.57
-55.74
-47.77
-38.95
-29.61
-20.20
-11.34
-3.75
1.93
5.35
6.60
6.20
5.02
4.00
3.84
4.82
6.82
9.38
12.05
14.56
16.97
19.56
22.63
26.25
30.24
34.16
37.65
40.51
42.79
44.73
46.49
48.07
49.27
49.82
49.39
47.67
44.35
39.23
32.25
23.71
14.26
4.82
-3.69
-10.64
-15.83
-19.45
-21.88
-23.53
-24.70
-25.62
-26.46
-27.36
-28.39
-29.51
-30.61
-31.56
-32.35
-33.08
-33.96
-35.19
-36.83
-38.82
-40.96
-43.00
-44.64
-45.53
-45.28
-43.58
-40.24
-35.38
-29.37
-22.85
-16.46
-10.72
-5.89
-2.01
1.00
3.15
4.37
4.50
3.39
1.07
-2.24
-6.14
-10.12
-13.75
-16.72
-18.87
-20.16
-20.52
-19.86
-18.12
-15.37
-11.84
-7.96
-4.24
-1.12
1.16
2.59
3.35
3.66
3.71
3.56
3.14
2.36
1.12
-0.58
-2.66
-4.90
-7.05
-8.91
-10.42
-11.70
-13.03
-14.69
-16.87
-19.48
-22.23
-24.70
-26.43
-27.12
-26.64
-25.07
-22.67
-19.82
-16.93
-14.38
-12.43
-11.10
-10.21
-9.42
-8.43
-7.06
-5.34
-3.37
-1.19
1.28
4.24
7.86
12.05
16.40
20.25
22.93
24.04
23.58
22.03
20.10
18.52
17.78
18.06
19.21
20.97
23.10
25.42
27.78
29.93
31.42
31.68
30.18
26.77
21.76
16.02
10.71
6.92
5.42
6.38
9.32
13.27
17.04
19.58
20.24
18.95
16.13
12.48
8.70
5.32
2.63
0.74
-0.34
-0.67
-0.39
0.20
0.65
0.41
-1.03
-3.93
-8.15
-13.12
-17.95
-21.67
-23.53
-23.20
-20.87
-17.05
-12.35
-7.30
-2.19
2.87
7.83
12.63
17.13
21.17
24.43
26.31
25.84
21.75
12.93
-0.95
-18.97
-39.01
-58.32
-74.38
-85.69
-92.05
-94.22
-93.29
-90.11
-85.07
-78.27
-69.86
-60.22
-49.97
-39.77
-30.09
-21.14
-12.91
-5.33
1.59
7.64
12.56
16.12
18.28
19.24
19.42
19.23
18.89
18.27
16.93
14.32
10.14
4.57
-1.59
-7.20
-11.25
-13.33
-13.89
-14.12
-15.38
-18.62
-23.94
-30.61
-37.44
-43.32
-47.57
-49.97
-50.54
-49.34
-46.30
-41.43
-34.93
-27.34
-19.41
-11.91
-5.32
0.23
4.94
9.14
13.15
17.10
21.01
24.75
28.13
30.91
32.87
33.88
34.00
33.45
32.55
31.56
30.56
29.57
28.57
27.70
27.22
27.36
28.14
29.27
30.22
30.50
29.92
28.66
27.14
25.77
24.69
23.74
22.54
20.73
18.14
14.85
11.14
7.37
3.84
0.75
-1.87
-4.10
-6.10
-8.06
-10.17
-12.51
-15.10
-17.87
-20.72
-23.53
-26.27
-28.91
-31.54
-34.22
-37.08
-40.12
-43.15
-45.82
-47.55
-47.79
-46.16
-42.71
-37.88
-32.43
-27.16
-22.69
-19.33
-17.03
-15.58
-14.63
-13.89
-13.15
-12.34
-11.52
-10.83
-10.48
-10.57
-11.06
-11.74
-12.33
-12.62
-12.54
-12.24
-11.93
-11.81
-11.96
-12.39
-13.08
-14.08
-15.53
-17.63
-20.49
-24.05
-28.07
-32.14
-35.82
-38.83
-41.09
-42.75
-44.06
-45.23
-46.33
-47.35
-48.25
-48.99
-49.44
-49.17
-47.42
-43.24
-35.97
-25.78
-13.85
-2.18
7.07
12.24
12.69
8.80
1.64
-7.46
-17.17
-26.22
-33.37
-37.55
-38.08
-35.06
-29.40
-22.65
-16.48
-12.09
-9.85
-9.27
-9.28
-8.78
-7.03
-3.88
0.37
5.19
10.22
15.33
20.60
26.14
31.77
37.02
41.23
43.82
44.52
43.54
41.44
38.98
36.84
35.43
34.82
34.81
35.04
35.15
34.88
34.15
32.93
31.21
28.85
25.72
21.83
17.38
12.81
8.54
4.80
1.50
-1.67
-5.03
-8.72
-12.63
-16.56
-20.31
-23.87
-27.34
-30.80
-34.20
-37.30
-39.69
-40.95
-40.71
-38.80
-35.25
-30.31
-24.38
-17.91
-11.24
-4.41
2.79
10.81
20.09
30.89
43.13
56.34
69.59
81.64
91.09
96.66
97.52
93.61
85.74
75.50
64.85
55.51
48.53
44.03
41.32
39.34
37.03
33.77
29.37
23.99
17.90
11.39
4.76
-1.63
-7.31
-11.79
-14.77
-16.29
-16.78
-16.92
-17.37
-18.54
-20.39
-22.51
-24.27
-25.09
-24.67
-23.07
-20.68
-18.06
-15.83
-14.42
-14.09
-14.88
-16.62
-19.05
-21.83
-24.64
-27.13
-29.00
-30.01
-30.01
-28.88
-26.57
-23.03
-18.19
-11.96
-4.29
4.83
15.22
26.53
38.16
49.28
58.87
65.90
69.51
69.26
65.31
58.46
49.96
41.12
32.98
26.03
20.25
15.31
10.81
6.52
2.41
-1.46
-4.99
-8.15
-10.94
-13.36
-15.35
-16.82
-17.68
-17.89
-17.50
-16.65
-15.57
-14.52
-13.70
-13.27
-13.27
-13.66
-14.35
-15.21
-16.10
-16.91
-17.58
-18.10
-18.50
-18.88
-19.29
-19.73
-20.12
-20.31
-20.14
-19.48
-18.25
-16.39
-13.88
-10.65
-6.66
-1.92
3.41
8.98
14.37
19.13
22.95
25.71
27.50
28.55
29.06
29.17
28.91
28.23
27.08
25.53
23.73
22.04
20.91
20.74
21.76
23.86
26.63
29.38
31.32
31.75
30.16
26.35
20.47
13.05
4.97
-2.73
-9.07
-13.43
-15.83
-16.85
-17.43
-18.42
-20.28
-22.95
-25.94
-28.66
-30.70
-31.93
-32.48
-32.57
-32.41
-32.11
-31.75
-31.40
-31.17
-31.23
-31.69
-32.54
-33.59
-34.52
-35.05
-34.90
-33.99
-32.33
-30.03
-27.19
-23.89
-20.22
-16.25
-12.09
-7.84
-3.59
0.62
4.71
8.59
12.10
15.09
17.45
19.24
20.62
21.82
23.04
24.33
25.63
26.80
27.78
28.60
29.39
30.21
31.00
31.48
31.29
30.19
28.14
25.51
22.84
20.71
19.49
19.25
19.76
20.69
21.71
22.59
23.17
23.21
22.43
20.50
17.23
12.69
7.15
1.01
-5.39
-11.89
-18.44
-24.99
-31.35
-37.23
-42.32
-46.43
-49.55
-51.79
-53.22
-53.81
-53.43
-51.98
-49.47
-46.02
-41.88
-37.32
-32.59
-27.89
-23.36
-19.16
-15.40
-12.18
-9.61
-7.75
-6.57
-5.97
-5.76
-5.71
-5.64
-5.44
-5.14
-4.81
-4.48
-4.19
-3.95
-3.77
-3.65
-3.62
-3.62
-3.56
-3.29
-2.68
-1.65
-0.26
1.34
2.98
4.44
5.62
6.48
7.05
7.37
7.43
7.16
6.49
5.49
4.45
3.82
4.09
5.50
7.90
10.76
13.35
15.07
15.64
15.26
14.38
13.54
13.08
13.00
13.10
13.00
12.38
11.04
8.98
6.47
4.02
2.28
1.89
3.28
6.45
10.99
16.11
21.00
25.00
27.79
29.42
30.14
30.25
29.97
29.47
28.81
28.10
27.43
26.83
26.24
25.50
24.41
22.83
20.77
18.40
16.12
14.30
13.27
13.13
13.74
14.79
15.84
16.46
16.26
14.99
12.58
9.17
5.10
0.82
-3.21
-6.71
-9.58
-11.95
-13.99
-15.87
-17.66
-19.36
-21.00
-22.64
-24.45
-26.55
-28.90
-31.37
-33.70
-35.73
-37.45
-39.12
-41.03
-43.34
-45.90
-48.16
-49.38
-48.83
-46.16
-41.48
-35.38
-28.66
-22.05
-16.00
-10.67
-5.97
-1.85
1.67
4.49
6.51
7.76
8.41
8.70
8.79
8.74
8.51
8.08
7.50
6.89
6.40
6.08
5.90
5.76
5.57
5.26
4.78
4.13
3.29
2.28
1.16
0.01
-1.10
-2.17
-3.26
-4.48
-5.92
-7.66
-9.70
-11.99
-14.44
-16.93
-19.35
-21.60
-23.61
-25.36
-26.86
-28.10
-28.99
-29.34
-28.88
-27.34
-24.60
-20.77
-16.23
-11.52
-7.16
-3.54
-0.73
1.37
2.96
4.17
5.05
5.63
5.95
6.17
6.51
7.13
8.07
9.22
10.41
11.53
12.63
13.88
15.50
17.65
20.32
23.39
26.59
29.64
32.29
34.36
35.76
36.44
36.48
36.02
35.23
34.27
33.21
32.06
30.73
29.09
27.04
24.55
21.68
18.56
15.36
12.25
9.33
6.65
4.18
1.82
-0.49
-2.79
-5.05
-7.13
-8.90
-10.21
-10.96
-11.16
-10.81
-9.90
-8.39
-6.19
-3.27
0.20
3.88
7.29
9.98
11.74
12.71
13.29
13.94
14.97
16.30
17.54
18.16
17.73
16.04
13.15
9.24
4.59
-0.43
-5.29
-9.34
-11.96
-12.84
-12.32
-11.29
-10.85
-11.82
-14.25
-17.40
-20.13
-21.43
-20.97
-19.15
-16.81
-14.80
-13.61
-13.26
-13.51
-14.07
-14.80
-15.72
-16.90
-18.38
-20.12
-21.98
-23.79
-25.37
-26.57
-27.26
-27.33
-26.74
-25.41
-23.33
-20.49
-16.97
-12.99
-8.92
-5.26
-2.51
-1.15
-1.37
-3.16
-6.18
-9.86
-13.54
-16.63
-18.76
-19.88
-20.15
-19.88
-19.35
-18.69
-17.87
-16.81
-15.49
-13.94
-12.31
-10.74
-9.35
-8.17
-7.24
-6.56
-6.17
-6.12
-6.38
-6.84
-7.31
-7.55
-7.37
-6.69
-5.60
-4.30
-3.02
-1.93
-1.13
-0.67
-0.63
-1.18
-2.51
-4.67
-7.49
-10.43
-12.77
-13.81
-13.16
-10.91
-7.50
-3.56
0.40
4.12
7.56
10.77
13.73
16.31
18.32
19.61
20.19
20.19
19.77
19.05
18.05
16.77
15.19
13.36
11.40
9.41
7.52
5.77
4.23
2.96
2.11
1.77
2.00
2.76
3.88
5.15
6.34
7.33
8.00
8.33
8.26
7.74
6.74
5.27
3.36
1.04
-1.65
-4.67
-7.98
-11.40
-14.69
-17.56
-19.73
-21.09
-21.67
-21.73
-21.64
-21.76
-22.25
-22.98
-23.55
-23.38
-22.06
-19.48
-15.93
-11.89
-7.86
-4.12
-0.64
2.77
6.22
9.66
12.86
15.46
17.27
18.26
18.63
18.69
18.73
18.94
19.35
19.84
20.26
20.48
20.38
19.95
19.25
18.44
17.71
17.22
17.06
17.18
17.43
17.57
17.44
16.96
16.14
15.06
13.75
12.22
10.45
8.43
6.26
4.12
2.20
0.63
-0.60
-1.67
-2.81
-4.26
-6.09
-8.23
-10.50
-12.74
-14.92
-17.12
-19.44
-21.81
-23.95
-25.39
-25.70
-24.70
-22.61
-19.89
-17.10
-14.66
-12.66
-10.99
-9.38
-7.54
-5.28
-2.46
0.97
4.98
9.35
13.75
17.74
20.98
23.31
24.85
25.88
26.68
27.42
28.15
28.87
29.67
30.75
32.31
34.42
36.88
39.23
40.89
41.37
40.44
38.17
34.92
31.14
27.35
24.02
21.57
20.23
19.95
20.34
20.71
20.32
18.62
15.51
11.36
6.89
2.92
0.06
-1.44
-1.74
-1.37
-0.97
-1.13
-2.22
-4.27
-7.03
-10.07
-12.92
-15.18
-16.58
-16.94
-16.15
-14.24
-11.46
-8.28
-5.36
-3.32
-2.54
-3.05
-4.54
-6.47
-8.33
-9.71
-10.42
-10.44
-9.98
-9.37
-9.03
-9.25
-10.13
-11.45
-12.77
-13.57
-13.45
-12.30
-10.25
-7.62
-4.75
-1.99
0.43
2.29
3.49
4.00
3.91
3.40
2.74
2.21
2.03
2.31
3.01
3.90
4.66
4.95
4.57
3.49
1.91
0.14
-1.51
-2.84
-3.77
-4.34
-4.66
-4.86
-5.04
-5.27
-5.68
-6.34
-7.36
-8.78
-10.60
-12.81
-15.34
-18.07
-20.78
-23.22
-25.05
-26.03
-26.06
-25.26
-24.00
-22.70
-21.70
-21.15
-21.04
-21.24
-21.74
-22.72
-24.51
-27.41
-31.49
-36.40
-41.39
-45.53
-47.99
-48.28
-46.37
-42.58
-37.38
-31.16
-24.16
-16.54
-8.51
-0.40
7.30
13.97
19.00
21.79
21.83
18.87
13.14
5.57
-2.24
-8.30
-10.84
-8.96
-3.09
5.15
13.47
19.74
22.64
22.04
18.75
13.98
8.84
3.87
-0.92
-5.84
-11.23
-17.24
-23.80
-30.66
-37.51
-43.90
-49.29
-52.97
-54.18
-52.29
-47.13
-39.23
-29.80
-20.48
-12.82
-7.78
-5.41
-4.83
-4.54
-2.87
1.55
9.44
20.75
34.79
50.37
66.08
80.34
91.49
98.03
98.96
94.26
85.11
73.70
62.68
54.18
49.20
47.40
47.58
48.34
48.65
48.02
46.30
43.32
38.84
32.82
25.66
18.46
12.68
9.65
10.06
13.51
18.67
23.67
26.72
26.75
23.71
18.63
13.09
8.62
6.01
5.05
4.71
3.68
0.99
-3.52
-9.21
-14.96
-19.65
-22.64
-23.87
-23.73
-22.80
-21.49
-19.83
-17.50
-14.03
-9.05
-2.56
5.00
12.88
20.35
27.00
33.00
39.04
45.98
54.45
64.43
75.12
85.29
93.76
99.98
104.29
107.84
112.03
118.09
126.81
138.56
153.50
171.36
190.94
209.54
223.10
227.22
219.15
199.35
171.66
141.88
115.05
93.21
74.83
56.43
35.28
11.46
-11.89
-30.27
-40.29
-41.37
-35.48
-25.34
-12.70
2.20
19.50
37.57
51.85
55.83
44.21
16.46
-21.49
-58.61
-82.93
-86.53
-68.84
-36.68
-1.22
26.39
38.84
34.26
15.11
-13.95
-48.52
-85.87
-125.10
-166.58
-211.31
-260.55
-315.56
-376.85
-443.06
-510.14
-571.35
-618.74
-645.76
-649.74
-632.95
-601.55
-563.09
-523.86
-487.37
-454.43
-424.30
-395.89
-368.25
-340.44
-311.31
-279.70
-244.91
-207.29
-168.17
-129.19
-91.81
-56.46
-22.55
11.10
45.54
81.27
117.91
154.51
190.03
223.77
255.83
287.23
319.87
355.86
396.39
440.50
484.38
521.89
546.28
552.69
540.02
511.41
472.93
431.16
390.97
354.43
321.23
290.04
259.87
230.60
202.78
176.94
153.11
130.82
109.52
89.04
69.71
52.34
37.63
25.75
16.13
7.67
-0.78
-9.88
-19.51
-28.91
-37.05
-43.26
-47.48
-50.29
-52.64
-55.37
-58.93
-63.15
-67.36
-70.63
-72.12
-71.43
-68.74
-64.77
-60.44
-56.57
-53.51
-51.08
-48.76
-46.05
-42.73
-38.95
-35.12
-31.57
-28.43
-25.59
-22.90
-20.25
-17.73
-15.54
-13.76
-12.30
-10.79
-8.75
-5.72
-1.42
4.20
10.96
18.54
26.58
34.69
42.47
49.52
55.47
60.06
63.26
65.31
66.71
68.10
70.02
72.76
76.17
79.81
83.02
85.14
85.66
84.23
80.75
75.22
67.85
58.83
48.41
36.89
24.68
12.41
0.85
-9.23
-17.38
-23.71
-28.93
-34.22
-40.74
-49.32
-60.16
-72.88
-86.81
-101.34
-116.16
-131.29
-146.88
-162.92
-178.98
-194.19
-207.26
-216.86
-221.90
-221.80
-216.61
-207.00
-194.10
-179.26
-163.77
-148.60
-134.19
-120.49
-107.12
-93.73
-80.30
-67.29
-55.59
-46.35
-40.60
-39.09
-41.94
-48.50
-57.37
-66.61
-74.16
-78.37
-78.22
-73.20
-63.05
-47.44
-26.15
0.41
30.70
61.85
90.26
112.67
127.30
134.29
135.47
133.43
130.56
128.37
127.37
127.25
127.20
126.07
122.42
114.70
101.53
82.27
57.47
28.94
-0.54
-28.02
-51.04
-68.17
-79.02
-84.08
-84.39
-81.43
-76.97
-72.97
-71.27
-73.03
-78.25
-85.66
-93.14
-98.44
-99.83
-96.41
-88.02
-75.04
-58.17
-38.42
-17.34
3.17
21.06
34.68
43.18
46.79
46.69
44.73
43.11
44.00
49.15
59.41
74.32
91.92
109.11
122.26
128.25
125.07
112.21
90.44
61.36
26.93
-10.84
-49.91
-88.24
-123.63
-153.70
-175.84
-187.46
-186.49
-172.31
-146.49
-112.99
-77.54
-46.15
-23.57
-12.06
-11.29
-18.96
-32.07
-48.00
-64.95
-81.81
-97.58
-110.82
-119.57
-121.76
-115.83
-101.27
-78.82
-50.20
-17.60
16.90
51.53
84.75
114.99
140.68
160.42
173.49
180.27
182.22
181.39
179.81
178.85
178.96
179.78
180.50
180.24
178.37
174.73
169.59
163.58
157.48
151.99
147.57
144.33
142.09
140.43
138.88
137.06
134.86
132.41
130.12
128.45
127.72
127.98
128.96
130.19
131.24
131.85
132.00
131.80
131.34
130.66
129.72
128.50
127.05
125.37
123.36
120.73
117.13
112.31
106.38
99.80
93.20
87.09
81.70
76.81
72.02
66.93
61.44
55.74
50.29
45.53
41.73
38.79
36.22
33.20
28.82
22.37
13.54
2.49
-10.26
-24.08
-38.38
-52.74
-66.78
-80.14
-92.45
-103.41
-112.93
-121.20
-128.64
-135.76
-143.02
-150.61
-158.44
-166.15
-173.05
-178.28
-180.98
-180.44
-176.40
-169.12
-159.30
-147.90
-135.84
-123.79
-112.18
-101.27
-91.31
-82.54
-75.11
-69.02
-64.08
-59.96
-56.39
-53.24
-50.55
-48.42
-46.87
-45.72
-44.61
-43.05
-40.65
-37.16
-32.61
-27.25
-21.53
-16.00
-11.20
-7.53
-5.15
-3.92
-3.50
-3.41
-3.30
-2.97
-2.49
-2.10
-2.08
-2.60
-3.65
-5.07
-6.61
-8.04
-9.20
-10.04
-10.61
-11.01
-11.41
-11.96
-12.80
-13.93
-15.30
-16.73
-18.02
-19.05
-19.78
-20.31
-20.78
-21.29
-21.88
-22.42
-22.71
-22.55
-21.77
-20.30
-18.21
-15.71
-13.11
-10.79
-9.17
-8.61
-9.38
-11.51
-14.76
-18.55
-22.12
-24.69
-25.70
-24.97
-22.73
-19.52
-16.00
-12.74
-10.12
-8.18
-6.63
-4.81
-1.87
2.99
10.23
19.84
31.25
43.52
55.66
66.83
76.50
84.41
90.47
94.75
97.46
99.10
100.41
102.20
105.15
109.62
115.51
122.38
129.57
136.45
142.56
147.72
152.01
155.70
159.07
162.24
164.99
166.64
166.19
162.58
155.00
143.18
127.45
108.62
87.69
65.67
43.39
21.49
0.42
-19.48
-37.97
-54.90
-70.14
-83.56
-95.02
-104.41
-111.72
-117.08
-120.78
-123.14
-124.43
-124.80
-124.28
-122.85
-120.57
-117.55
-114.02
-110.27
-106.50
-102.86
-99.33
-95.82
-92.21
-88.40
-84.41
-80.31
-76.26
-72.40
-68.79
-65.45
-62.37
-59.61
-57.28
-55.57
-54.55
-54.21
-54.35
-54.65
-54.77
-54.42
-53.41
-51.67
-49.18
-45.96
-42.05
-37.51
-32.56
-27.55
-22.94
-19.24
-16.84
-15.93
-16.45
-18.17
-20.81
-24.15
-28.01
-32.16
-36.13
-39.25
-40.76
-40.12
-37.25
-32.72
-27.52
-22.83
-19.53
-18.07
-18.32
-19.80
-21.86
-23.89
-25.40
-26.14
-26.08
-25.40
-24.44
-23.60
-23.23
-23.48
-24.35
-25.70
-27.33
-29.09
-30.78
-32.19
-33.03
-33.01
-31.94
-29.87
-27.06
-23.85
-20.51
-17.12
-13.58
-9.71
-5.47
-0.95
3.54
7.68
11.22
14.06
16.29
18.11
19.67
21.02
22.10
22.77
22.86
22.24
20.86
18.75
16.01
12.80
9.34
5.95
3.02
0.95
0.02
0.32
1.69
3.79
6.21
8.62
10.82
12.76
14.46
15.99
17.35
18.48
19.34
19.84
19.97
19.76
19.29
18.71
18.17
17.77
17.55
17.48
17.52
17.63
17.84
18.19
18.73
19.42
20.18
20.89
21.45
21.92
22.43
23.22
24.42
26.02
27.89
29.81
31.64
33.40
35.23
37.29
39.61
41.98
44.01
45.24
45.37
44.30
42.15
39.14
35.42
31.09
26.23
21.04
15.90
11.25
7.44
4.57
2.46
0.71
-1.06
-3.04
-5.18
-7.31
-9.26
-10.98
-12.64
-14.45
-16.60
-19.10
-21.79
-24.37
-26.53
-28.08
-28.92
-29.12
-28.81
-28.14
-27.23
-26.20
-25.12
-24.08
-23.19
-22.57
-22.33
-22.49
-22.88
-23.26
-23.34
-22.91
-21.95
-20.63
-19.18
-17.81
-16.56
-15.43
-14.33
-13.28
-12.36
-11.69
-11.36
-11.37
-11.71
-12.35
-13.31
-14.64
-16.33
-18.28
-20.28
-22.05
-23.25
-23.64
-23.04
-21.47
-19.14
-16.37
-13.58
-11.14
-9.25
-7.85
-6.72
-5.58
-4.20
-2.63
-1.06
0.18
0.85
0.89
0.46
-0.18
-0.79
-1.26
-1.58
-1.82
-2.00
-2.08
-2.02
-1.82
-1.57
-1.42
-1.50
-1.87
-2.45
-3.09
-3.64
-4.02
-4.25
-4.42
-4.68
-5.15
-5.94
-7.09
-8.59
-10.35
-12.16
-13.75
-14.89
-15.47
-15.60
-15.58
-15.79
-16.48
-17.63
-18.97
-20.05
-20.47
-20.03
-18.78
-16.95
-14.89
-12.83
-10.91
-9.11
-7.37
-5.62
-3.88
-2.26
-0.86
0.30
1.32
2.39
3.65
5.11
6.58
7.81
8.56
8.80
8.66
8.41
8.28
8.31
8.45
8.57
8.59
8.49
8.33
8.11
7.81
7.34
6.65
5.75
4.69
3.60
2.62
1.84
1.28
0.90
0.61
0.33
-0.03
-0.50
-1.08
-1.73
-2.42
-3.15
-3.93
-4.78
-5.71
-6.70
-7.72
-8.69
-9.53
-10.11
-10.26
-9.84
-8.74
-6.98
-4.73
-2.27
0.12
2.19
3.91
5.38
6.78
8.26
9.86
11.48
12.92
13.98
14.55
14.61
14.32
13.84
13.39
13.04
12.84
12.72
12.60
12.39
12.04
11.55
10.91
10.18
9.38
8.58
7.79
7.03
6.24
5.38
4.44
3.45
2.51
1.67
0.91
0.12
-0.87
-2.15
-3.69
-5.31
-6.80
-8.03
-9.02
-9.89
-10.80
-11.82
-12.89
-13.84
-14.47
-14.62
-14.23
-13.33
-12.03
-10.46
-8.76
-7.08
-5.53
-4.13
-2.86
-1.64
-0.40
0.85
2.05
3.10
3.93
4.53
4.97
5.32
5.65
5.94
6.15
6.27
6.32
6.37
6.48
6.65
6.81
6.86
6.72
6.35
5.83
5.20
4.55
3.91
3.26
2.58
1.85
1.04
0.17
-0.72
-1.62
-2.50
-3.41
-4.43
-5.61
-6.98
-8.53
-10.16
-11.80
-13.39
-14.82
-15.95
-16.56
-16.41
-15.39
-13.55
-11.19
-8.69
-6.45
-4.68
-3.39
-2.46
-1.68
-0.90
-0.02
0.97
2.03
3.03
3.84
4.36
4.57
4.56
4.46
4.40
4.42
4.49
4.56
4.62
4.65
4.69
4.75
4.75
4.58
4.20
3.58
2.87
2.21
1.76
1.51
1.31
0.93
0.12
-1.18
-2.88
-4.67
-6.33
-7.71
-8.95
-10.23
-11.72
-13.31
-14.65
-15.36
-15.13
-13.95
-12.05
-9.78
-7.45
-5.25
-3.24
-1.46
0.08
1.39
2.53
3.62
4.81
6.20
7.81
9.54
11.24
12.73
13.86
14.52
14.72
14.53
14.12
13.67
13.34
13.16
13.06
12.91
12.55
11.91
11.01
9.97
8.99
8.22
7.77
7.57
7.47
7.28
6.84
6.11
5.14
3.99
2.72
1.31
-0.29
-2.12
-4.18
-6.44
-8.81
-11.27
-13.76
-16.20
-18.46
-20.32
-21.56
-21.99
-21.56
-20.32
-18.49
-16.27
-13.88
-11.45
-9.01
-6.52
-3.95
-1.27
1.48
4.16
6.67
8.86
10.66
12.11
13.26
14.25
15.12
15.91
16.60
17.17
17.62
18.02
18.43
18.84
19.18
19.31
19.11
18.53
17.64
16.53
15.30
13.98
12.53
10.96
9.27
7.56
5.91
4.36
2.90
1.46
-0.04
-1.60
-3.20
-4.77
-6.31
-7.81
-9.31
-10.85
-12.47
-14.21
-16.10
-18.13
-20.21
-22.09
-23.41
-23.77
-22.95
-20.95
-18.02
-14.60
-11.11
-7.81
-4.78
-1.95
0.80
3.54
6.26
8.95
11.59
14.13
16.53
18.69
20.47
21.74
22.42
22.57
22.33
21.91
21.54
21.35
21.37
21.58
21.85
22.09
22.23
22.24
22.13
21.91
21.55
21.05
20.35
19.42
18.25
16.87
15.35
13.81
12.39
11.18
10.19
9.36
8.53
7.54
6.26
4.66
2.82
0.88
-1.02
-2.76
-4.33
-5.76
-7.14
-8.58
-10.16
-11.92
-13.86
-15.85
-17.70
-19.04
-19.54
-18.93
-17.21
-14.59
-11.50
-8.37
-5.55
-3.17
-1.21
0.47
1.98
3.38
4.68
5.84
6.80
7.51
7.95
8.11
8.07
7.93
7.82
7.83
7.97
8.24
8.57
8.90
9.16
9.32
9.32
9.14
8.81
8.35
7.84
7.32
6.85
6.42
6.04
5.69
5.31
4.82
4.11
3.13
1.96
0.75
-0.31
-1.13
-1.71
-2.20
-2.75
-3.41
-4.14
-4.86
-5.53
-6.28
-7.30
-8.80
-10.83
-13.26
-15.75
-17.85
-19.17
-19.46
-18.69
-17.02
-14.75
-12.18
-9.57
-7.04
-4.66
-2.50
-0.63
0.86
1.97
2.80
3.54
4.43
5.59
7.00
8.50
9.88
10.98
11.79
12.39
12.89
13.36
13.77
14.06
14.16
14.01
13.70
13.31
12.91
12.51
12.08
11.55
10.90
10.20
9.57
9.10
8.82
8.65
8.43
8.04
7.44
6.73
6.05
5.48
5.03
4.60
4.05
3.34
2.49
1.61
0.72
-0.23
-1.43
-3.08
-5.28
-8.01
-11.04
-14.01
-16.51
-18.20
-18.84
-18.45
-17.18
-15.32
-13.14
-10.83
-8.51
-6.20
-3.96
-1.86
-0.01
1.56
2.88
4.03
5.06
5.94
6.60
6.94
6.97
6.78
6.56
6.43
6.48
6.71
7.12
7.76
8.73
10.06
11.70
13.46
15.03
16.18
16.82
17.00
16.90
16.73
16.61
16.55
16.47
16.21
15.65
14.75
13.56
12.21
10.80
9.45
8.14
6.87
5.61
4.39
3.26
2.24
1.32
0.36
-0.73
-1.93
-3.06
-3.76
-3.66
-2.50
-0.29
2.71
6.09
9.45
12.48
15.05
17.17
18.92
20.37
21.56
22.50
23.17
23.56
23.64
23.39
22.80
21.83
20.50
18.84
16.95
14.97
12.96
10.96
8.84
6.48
3.76
0.70
-2.57
-5.85
-9.02
-12.13
-15.38
-19.03
-23.24
-28.03
-33.23
-38.66
-44.17
-49.70
-55.23
-60.72
-66.19
-71.74
-77.67
-84.36
-92.14
-101.00
-110.48
-119.70
-127.58
-133.18
-135.91
-135.61
-132.39
-126.53
-118.36
-108.29
-96.89
-84.89
-72.99
-61.75
-51.41
-41.88
-32.88
-24.03
-15.10
-5.96
3.35
12.74
22.10
31.25
39.95
47.92
54.84
60.50
64.89
68.20
70.80
73.14
75.55
78.21
81.18
84.48
88.24
92.76
98.38
105.33
113.67
123.13
133.19
142.98
151.16
156.02
155.60
148.27
133.33
111.49
84.92
56.76
30.16
7.40
-10.57
-24.10
-34.24
-42.11
-48.38
-53.25
-56.56
-58.16
-58.04
-56.37
-53.50
-49.77
-45.58
-41.33
-37.47
-34.39
-32.38
-31.46
-31.36
-31.55
-31.47
-30.65
-28.89
-26.32
-23.35
-20.54
-18.39
-17.20
-17.00
-17.52
-18.37
-19.15
-19.66
-19.86
-19.94
-20.23
-21.03
-22.57
-24.89
-27.88
-31.24
-34.65
-37.80
-40.46
-42.64
-44.39
-45.76
-46.68
-46.95
-46.26
-44.42
-41.44
-37.55
-33.10
-28.40
-23.59
-18.63
-13.44
-7.99
-2.44
2.94
7.88
12.18
15.80
18.73
21.01
22.60
23.52
23.82
23.71
23.49
23.48
23.90
24.81
26.02
27.26
28.27
28.87
29.05
28.96
28.76
28.58
28.44
28.30
28.06
27.61
26.88
25.80
24.33
22.45
20.14
17.38
14.18
10.55
6.52
2.22
-2.15
-6.35
-10.23
-13.76
-17.14
-20.64
-24.59
-29.17
-34.33
-39.87
-45.33
-50.13
-53.46
-54.54
-52.88
-48.55
-42.40
-35.83
-30.26
-26.59
-24.84
-24.16
-23.38
-21.50
-18.13
-13.52
-8.26
-2.94
2.06
6.59
10.57
13.95
16.66
18.70
20.26
21.64
23.12
24.98
27.26
29.82
32.36
34.56
36.15
37.00
37.10
36.58
35.68
34.62
33.62
32.76
32.01
31.19
30.11
28.64
26.78
24.66
22.49
20.39
18.39
16.39
14.19
11.71
8.88
5.79
2.60
-0.54
-3.51
-6.32
-9.09
-12.10
-15.63
-19.90
-24.87
-30.24
-35.50
-40.04
-43.34
-45.10
-45.26
-43.99
-41.59
-38.46
-34.97
-31.33
-27.54
-23.32
-18.23
-11.94
-4.45
3.79
12.03
19.49
25.60
30.27
33.66
36.14
37.96
39.28
40.20
40.86
41.50
42.39
43.62
45.07
46.45
47.40
47.73
47.43
46.69
45.77
44.85
43.94
42.93
41.62
39.87
37.69
35.25
32.85
30.80
29.25
28.06
26.79
25.18
23.04
20.23
16.83
13.20
9.84
7.07
4.65
1.73
-2.48
-8.72
-17.58
-29.67
-45.64
-66.29
-92.45
-124.55
-162.00
-201.91
-240.53
-274.36
-301.08
-319.34
-328.21
-326.92
-315.32
-294.87
-266.81
-235.42
-207.65
-190.70
-188.03
-196.81
-208.89
-214.41
-205.86
-175.00
-119.86
-45.60
37.16
117.07
186.36
242.01
284.77
317.52
352.88
401.25
465.94
541.68
619.16
690.89
753.60
807.44
854.11
906.92
975.75
1061.57
1155.39
1244.22
1318.22
1372.78
1407.11
1350.56
1163.67
856.29
489.60
136.97
-154.70
-372.11
-523.09
-623.10
-687.61
-717.65
-713.48
-680.57
-631.45
-580.63
-537.84
-506.72
-486.35
-474.10
-458.72
-431.95
-393.03
-348.28
-306.71
-274.17
-252.49
-240.12
-234.50
-227.99
-215.28
-195.73
-173.33
-153.45
-139.04
-130.77
-127.18
-126.63
-125.76
-123.14
-120.14
-120.67
-129.52
-144.18
-163.00
-183.84
-205.13
-225.42
-244.65
-264.31
-287.13
-316.09
-352.81
-397.21
-445.38
-490.05
-522.30
-534.44
-522.87
-489.51
-440.99
-385.71
-331.42
-282.16
-238.41
-198.73
-161.80
-127.54
-96.72
-69.75
-45.78
-23.00
0.91
27.49
56.94
88.28
120.12
151.40
181.47
209.65
234.47
254.03
266.56
271.29
269.02
261.86
252.46
243.01
234.72
227.84
222.17
217.48
213.49
209.59
204.57
196.72
184.38
166.65
144.06
118.55
92.93
69.87
50.73
35.14
21.30
7.07
-8.68
-25.32
-40.65
-52.06
-57.84
-58.03
-54.35
-49.25
-44.70
-41.53
-39.36
-37.08
-33.49
-27.76
-19.70
-9.67
1.53
12.90
23.43
32.47
39.78
45.55
50.16
53.74
56.11
56.83
55.56
52.43
48.21
44.07
41.07
39.75
39.88
40.66
41.15
40.66
38.98
36.40
33.45
30.63
28.28
26.50
25.13
23.88
22.35
20.14
16.93
12.70
7.75
2.78
-1.35
-3.82
-4.11
-2.22
1.34
5.68
9.81
12.89
14.47
14.52
13.39
11.62
9.75
8.19
7.16
6.64
6.46
6.37
6.05
5.32
4.14
2.68
1.28
0.39
0.41
1.63
4.10
7.69
11.97
16.36
20.24
23.15
24.98
25.97
26.56
27.09
27.66
28.06
28.03
27.47
26.55
25.66
25.09
24.80
24.40
23.43
21.53
18.75
15.49
12.27
9.48
7.13
5.00
2.73
0.15
-2.65
-5.34
-7.45
-8.57
-8.38
-6.66
-3.29
1.69
8.01
15.07
22.05
28.14
32.92
36.55
39.75
43.47
48.44
54.82
62.07
69.11
74.68
77.66
77.36
73.47
66.12
55.75
43.02
28.84
14.19
0.07
-12.76
-23.85
-33.07
-40.56
-46.49
-50.95
-53.83
-54.96
-54.28
-51.98
-48.58
-44.79
-41.35
-38.78
-37.27
-36.59
-36.26
-35.71
-34.47
-32.38
-29.60
-26.59
-23.84
-21.78
-20.57
-20.14
-20.26
-20.70
-21.32
-22.04
-22.82
-23.62
-24.39
-25.16
-25.90
-26.58
-26.95
-26.70
-25.50
-23.22
-20.13
-16.79
-13.94
-12.09
-11.37
-11.44
-11.72
-11.70
-11.12
-10.12
-9.00
-8.16
-7.79
-7.96
-8.53
-9.26
-9.87
-10.10
-9.73
-8.64
-6.90
-4.68
-2.24
0.18
2.44
4.51
6.45
8.30
10.11
11.84
13.47
14.95
16.24
17.34
18.22
18.80
18.97
18.62
17.67
16.18
14.35
12.42
10.63
9.10
7.80
6.65
5.55
4.55
3.71
3.10
2.65
2.14
1.25
-0.28
-2.56
-5.50
-8.81
-12.03
-14.62
-16.02
-15.80
-13.84
-10.33
-5.81
-0.96
3.59
7.46
10.61
13.19
15.43
17.40
19.04
20.13
20.50
20.08
18.95
17.31
15.38
13.39
11.57
10.12
9.21
8.97
9.40
10.35
11.58
12.81
13.85
14.56
14.93
15.00
14.84
14.55
14.24
14.02
13.89
13.73
13.28
12.22
10.37
7.77
4.70
1.60
-1.13
-3.21
-4.67
-5.73
-6.72
-7.94
-9.51
-11.35
-13.22
-14.84
-16.05
-16.88
-17.51
-18.23
-19.33
-20.97
-23.14
-25.64
-28.07
-29.90
-30.58
-29.77
-27.44
-23.96
-19.93
-16.04
-12.76
-10.29
-8.50
-7.15
-5.97
-4.81
-3.64
-2.56
-1.69
-1.09
-0.71
-0.31
0.43
1.81
3.89
6.49
9.25
11.83
14.14
16.29
18.45
20.63
22.55
23.80
24.04
23.31
22.02
20.77
20.04
19.95
20.28
20.63
20.68
20.24
19.34
18.05
16.49
14.78
13.09
11.63
10.54
9.81
9.25
8.60
7.63
6.34
4.88
3.41
1.99
0.44
-1.53
-4.18
-7.57
-11.54
-15.76
-19.80
-23.30
-25.92
-27.50
-27.95
-27.40
-26.10
-24.39
-22.57
-20.80
-19.16
-17.61
-16.19
-15.06
-14.53
-15.00
-16.76
-19.79
-23.63
-27.36
-29.75
-29.60
-26.12
-19.29
-9.97
0.24
9.46
16.11
19.34
19.30
16.97
13.69
10.76
8.98
8.53
9.13
10.26
11.45
12.32
12.63
12.20
10.91
8.79
6.12
3.41
1.29
0.22
0.30
1.19
2.22
2.68
2.08
0.32
-2.33
-5.45
-8.63
-11.68
-14.63
-17.64
-20.76
-23.84
-26.38
-27.73
-27.28
-24.74
-20.33
-14.73
-8.89
-3.72
0.19
2.72
4.12
4.85
5.36
5.92
6.60
7.35
8.02
8.53
8.75
8.62
8.14
7.43
6.76
6.48
6.92
8.20
10.14
12.30
14.23
15.58
16.30
16.54
16.57
16.56
16.56
16.52
16.34
16.00
15.49
14.83
13.98
12.88
11.47
9.70
7.64
5.34
2.97
0.65
-1.50
-3.40
-5.09
-6.64
-8.21
-9.92
-11.89
-14.19
-16.85
-19.81
-22.77
-25.24
-26.57
-26.15
-23.68
-19.31
-13.62
-7.45
-1.50
3.90
8.80
13.47
18.07
22.35
25.68
27.33
26.78
24.14
20.17
16.03
12.82
11.09
10.50
10.00
8.23
4.04
-3.01
-12.41
-22.69
-31.64
-36.77
-35.94
-28.08
-13.76
4.68
23.68
39.55
49.81
54.16
54.60
54.63
57.73
65.92
78.77
93.58
106.42
113.51
112.58
103.31
87.12
66.36
43.44
20.41
-1.01
-19.20
-32.45
-39.19
-38.52
-30.74
-17.48
-1.25
15.37
30.65
44.12
56.38
68.45
80.88
93.15
103.65
110.10
110.33
103.08
88.42
67.68
43.01
16.65
-9.67
-34.98
-58.94
-81.42
-102.06
-120.08
-134.42
-144.11
-148.64
-148.18
-143.47
-135.56
-125.45
-113.97
-101.77
-89.40
-77.57
-67.10
-58.95
-54.02
-52.89
-55.63
-61.66
-69.89
-79.00
-87.80
-95.54
-101.96
-107.15
-111.35
-114.73
-117.42
-119.53
-121.18
-122.42
-123.01
-122.28
-119.11
-112.24
-100.58
-83.62
-61.57
-35.35
-6.44
23.39
52.19
78.06
99.43
115.31
125.53
130.63
131.60
129.33
124.35
116.78
106.74
94.79
82.19
70.62
61.46
55.04
50.24
44.73
35.97
22.42
4.38
-15.90
-34.85
-48.62
-54.11
-49.74
-35.83
-14.72
9.47
31.58
46.65
51.47
45.75
32.29
15.97
1.76
-7.20
-10.49
-10.06
-8.80
-9.10
-12.08
-17.73
-25.48
-34.75
-45.03
-55.58
-65.29
-72.74
-76.81
-77.22
-74.98
-72.14
-71.19
-74.22
-82.10
-94.15
-108.24
-121.42
-130.82
-134.63
-132.64
-126.12
-117.13
-107.38
-97.34
-85.86
-70.73
-49.91
-23.00
7.90
38.33
62.89
77.29
80.16
73.96
64.46
58.95
63.38
79.67
104.29
129.28
145.45
146.36
131.29
105.42
77.37
55.36
44.11
43.75
50.90
60.72
68.66
71.29
66.42
53.37
33.56
10.85
-9.01
-20.50
-20.82
-11.63
1.39
11.00
11.64
1.95
-14.66
-31.50
-41.50
-40.24
-27.94
-9.56
6.97
14.02
7.42
-11.61
-36.77
-58.89
-69.29
-62.94
-40.23
-6.67
29.10
58.26
74.52
75.65
63.79
44.41
24.67
11.53
9.87
21.05
42.33
67.41
88.30
97.82
92.23
72.63
44.56
16.19
-4.66
-13.03
-8.23
6.19
23.63
36.42
38.06
25.36
-0.31
-33.16
-64.54
-85.82
-91.21
-79.66
-54.84
-23.64
6.14
27.91
37.67
34.47
20.12
-1.55
-25.74
-47.85
-64.53
-74.25
-77.30
-75.06
-69.16
-60.67
-49.97
-36.94
-21.41
-3.70
15.17
33.65
49.90
62.28
69.70
71.86
69.33
63.39
55.75
48.19
42.15
38.48
37.20
37.73
39.10
40.40
41.00
40.75
39.84
38.68
37.66
36.97
36.65
36.54
36.54
36.73
37.48
39.36
42.91
48.31
55.26
63.05
70.97
78.68
86.47
95.00
104.93
116.36
128.73
140.89
151.67
160.30
166.67
171.23
174.66
177.64
180.62
183.82
187.18
190.31
192.27
191.59
186.44
175.16
156.79
131.46
100.30
64.95
26.83
-13.25
-55.04
-98.01
-140.66
-180.12
-212.67
-234.86
-244.81
-242.83
-231.05
-212.43
-189.57
-164.08
-136.73
-108.01
-78.81
-50.63
-25.26
-4.39
10.71
19.10
20.00
12.73
-2.90
-26.28
-55.52
-87.58
-118.75
-145.43
-164.88
-175.58
-177.37
-171.31
-159.39
-144.16
-128.29
-113.97
-102.47
-94.01
-88.04
-83.85
-81.07
-79.86
-80.59
-83.43
-88.08
-93.88
-100.32
-107.49
-116.29
-128.17
-144.62
-166.36
-192.69
-221.07
-247.24
-266.18
-273.42
-266.52
-245.89
-214.48
-176.47
-135.54
-93.43
-49.57
-2.24
49.33
103.07
153.41
192.87
214.96
217.23
202.66
178.70
154.20
136.01
126.74
125.03
127.71
132.25
138.04
145.80
155.91
167.02
175.97
179.24
174.67
162.60
145.69
127.93
113.22
104.40
102.77
108.15
118.91
131.95
142.90
146.63
138.51
115.77
78.79
31.26
-20.63
-69.96
-111.16
-141.41
-161.00
-172.39
-178.65
-181.88
-182.50
-179.57
-171.91
-159.35
-143.24
-126.09
-110.37
-97.34
-86.49
-76.01
-63.82
-48.79
-31.40
-13.49
2.54
14.86
22.82
27.10
29.12
30.21
31.08
31.76
32.03
31.96
32.31
34.35
39.43
48.51
61.87
79.31
100.36
124.28
149.85
175.08
197.36
214.05
223.46
225.42
221.20
212.60
200.90
186.32
168.30
146.54
121.84
96.35
72.81
53.38
38.53
26.80
15.37
1.12
-18.30
-43.76
-74.43
-107.96
-140.91
-169.57
-190.83
-202.94
-205.80
-200.64
-189.27
-173.27
-153.61
-130.86
-105.71
-79.40
-53.72
-30.55
-11.29
3.47
14.07
21.42
26.69
30.98
35.12
39.35
43.25
45.80
45.86
42.80
36.99
29.85
23.32
18.99
17.40
17.79
18.49
17.61
13.74
6.38
-3.87
-15.44
-25.99
-32.84
-33.83
-28.31
-18.03
-6.83
0.67
1.24
-5.25
-15.56
-24.53
-27.36
-21.45
-6.92
14.18
38.94
64.09
85.62
98.32
96.45
75.89
36.88
-14.61
-68.03
-111.93
-138.14
-144.37
-134.04
-113.83
-90.71
-70.01
-55.16
-48.20
-50.03
-60.09
-75.58
-91.37
-101.17
-99.57
-84.17
-56.56
-21.62
14.36
45.65
68.40
80.87
82.90
75.30
59.51
37.70
12.99
-10.71
-29.30
-39.68
-40.85
-34.41
-23.99
-13.93
-7.82
-7.67
-13.88
-25.73
-41.81
-60.06
-77.55
-90.54
-95.49
-90.57
-77.01
-59.35
-43.81
-35.59
-36.51
-44.06
-52.69
-56.29
-50.59
-34.39
-9.32
21.25
53.19
82.49
105.67
120.48
126.59
125.80
121.42
116.85
114.02
112.70
111.24
108.12
103.42
99.16
98.13
102.23
111.16
122.24
131.57
135.53
131.85
119.96
100.53
74.97
45.13
13.39
-17.24
-43.26
-61.40
-69.55
-67.45
-56.84
-40.93
-23.32
-7.08
5.77
14.31
18.25
17.64
12.69
3.90
-7.81
-21.03
-34.07
-45.12
-52.42
-54.28
-49.26
-36.51
-16.48
8.47
34.10
55.17
66.95
66.92
55.69
36.68
14.75
-5.57
-21.35
-31.56
-36.39
-36.37
-31.75
-22.71
-9.87
5.09
19.47
30.03
33.95
29.68
17.35
-1.15
-22.78
-43.97
-61.53
-73.39
-78.94
-78.95
-75.06
-69.09
-62.55
-56.50
-51.65
-48.55
-47.60
-48.65
-50.69
-51.74
-49.40
-41.77
-28.39
-10.65
8.57
25.80
38.09
43.80
42.78
36.04
25.27
12.29
-1.18
-13.64
-23.82
-30.73
-33.73
-32.58
-27.44
-18.71
-6.99
6.83
21.50
35.29
46.15
52.17
52.14
46.03
35.09
21.57
8.24
-2.21
-7.64
-6.78
0.40
12.57
27.20
41.16
51.77
57.84
60.22
61.34
63.88
69.18
76.31
82.37
83.72
77.67
63.57
42.93
18.50
-6.74
-30.34
-50.64
-66.45
-76.88
-81.30
-79.73
-73.07
-63.04
-51.80
-41.40
-33.27
-27.96
-25.33
-24.77
-25.64
-27.48
-30.07
-33.36
-37.22
-41.24
-44.69
-46.67
-46.39
-43.52
-38.37
-31.78
-24.85
-18.36
-12.40
-6.30
1.00
10.32
21.54
33.39
43.77
50.46
52.12
48.70
41.28
31.39
20.17
8.06
-5.01
-18.96
-33.10
-46.06
-56.43
-63.52
-67.72
-70.38
-73.05
-76.72
-81.39
-86.29
-90.48
-93.57
-96.01
-98.77
-102.72
-107.97
-113.61
-117.88
-118.85
-114.94
-105.49
-90.96
-72.53
-51.69
-29.79
-7.86
13.36
33.37
51.87
68.53
82.82
94.43
103.70
112.00
121.59
135.20
155.26
183.22
218.35
257.02
293.80
323.04
340.53
344.41
335.16
315.22
288.37
258.15
226.27
193.56
160.55
128.23
97.79
69.86
44.37
20.97
-1.58
-25.79
-53.46
-84.55
-116.90
-147.21
-173.03
-193.26
-207.67
-208.46
-189.90
-151.73
-100.84
-46.86
3.24
46.26
78.66
103.33
122.38
135.62
142.44
142.63
136.69
127.74
117.35
106.15
94.77
83.00
69.74
54.21
36.46
17.47
-1.39
-19.62
-37.40
-55.20
-74.19
-95.84
-120.47
-146.54
-170.70
-188.81
-198.07
-197.75
-189.29
-176.14
-162.36
-150.94
-142.89
-137.31
-132.18
-125.67
-116.58
-104.18
-88.34
-69.17
-47.04
-22.75
2.35
26.46
47.50
63.77
74.36
79.11
78.52
73.49
65.15
54.74
43.70
33.38
25.02
19.35
16.41
15.42
14.77
12.33
5.92
-5.93
-23.42
-45.18
-68.61
-90.68
-108.91
-122.01
-129.91
-133.37
-133.35
-130.70
-126.15
-120.66
-115.61
-112.55
-112.76
-116.50
-122.86
-129.96
-135.92
-139.72
-141.88
-144.34
-149.54
-159.22
-173.35
-189.82
-205.02
-214.82
-215.82
-206.05
-185.15
-154.16
-115.23
-71.19
-25.41
18.75
58.34
91.41
117.17
135.81
147.97
154.13
154.33
148.32
135.93
117.53
94.14
67.23
38.17
7.86
-23.29
-55.08
-86.84
-116.98
-142.85
-161.15
-168.75
-163.71
-145.99
-117.42
-81.16
-40.78
0.55
40.37
76.98
109.21
136.25
157.75
173.86
185.24
192.70
196.74
197.25
193.56
184.99
171.58
154.38
135.41
116.99
100.90
87.92
77.80
69.76
63.04
57.28
52.46
48.63
45.55
42.70
39.61
36.19
32.91
30.63
30.01
31.16
33.36
35.36
35.85
33.96
29.56
23.21
15.93
8.79
2.73
-1.67
-4.25
-5.14
-4.72
-3.40
-1.56
0.57
2.80
4.96
6.83
8.23
9.15
9.78
10.41
11.22
12.05
12.39
11.66
9.58
6.49
3.25
0.90
0.04
0.48
1.23
0.92
-1.51
-6.25
-12.45
-18.57
-23.03
-24.90
-24.17
-21.74
-18.83
-16.44
-15.00
-14.23
-13.40
-11.76
-8.88
-4.83
-0.31
3.64
6.10
6.71
5.97
5.07
5.40
7.88
12.50
18.27
23.65
27.27
28.58
28.21
27.78
29.40
34.75
44.21
56.13
66.91
71.67
65.78
46.53
14.28
-27.13
-71.22
-110.51
-138.51
-151.70
-150.68
-140.08
-126.65
-116.51
-112.41
-112.68
-112.44
-106.60
-92.90
-73.29
-52.92
-37.08
-28.41
-25.77
-25.48
-23.96
-20.15
-16.05
-15.39
-21.21
-33.77
-50.08
-65.26
-74.43
-74.77
-66.33
-51.94
-36.50
-26.22
-27.89
-47.68
-89.24
-151.56
-227.85
-306.61
-374.89
-422.62
-445.76
-446.74
-432.10
-408.82
-381.45
-351.62
-319.47
-285.56
-251.82
-220.71
-193.65
-169.74
-145.92
-118.44
-84.87
-45.34
-2.41
40.13
79.01
112.94
142.92
171.58
201.97
236.47
276.17
320.70
368.17
415.16
457.10
489.12
507.50
510.98
501.30
482.43
459.00
434.55
410.73
387.75
365.37
343.86
324.07
306.83
292.18
279.15
266.25
252.38
237.45
222.39
208.53
197.09
188.51
182.44
177.89
173.70
168.89
163.04
156.41
149.68
143.60
138.49
133.99
129.26
123.35
115.79
106.84
97.41
88.65
81.48
76.22
72.64
70.23
68.62
67.91
68.63
71.45
76.91
85.14
95.80
108.22
121.51
134.73
146.78
156.49
162.69
164.41
161.08
152.66
139.58
122.56
102.54
80.68
58.48
37.82
20.78
9.38
5.07
8.32
18.26
32.60
47.89
60.24
66.19
63.71
52.74
35.10
13.70
-8.54
-29.69
-49.14
-67.34
-85.11
-102.91
-120.59
-137.53
-153.08
-167.08
-180.06
-193.14
-207.50
-223.87
-242.08
-261.02
-279.27
-295.61
-309.71
-322.35
-335.11
-349.93
-368.78
-393.56
-425.83
-466.09
-512.48
-560.02
-600.91
-626.41
-629.73
-608.51
-565.45
-506.77
-439.53
-369.35
-299.63
-232.41
-169.77
-114.61
-70.10
-38.41
-19.42
-10.41
-6.82
-3.58
3.54
17.16
37.82
64.37
94.53
125.66
155.45
182.23
204.87
222.42
233.89
238.35
235.45
225.88
211.43
194.72
178.46
164.72
154.52
147.67
143.06
139.00
133.62
125.42
113.55
98.15
80.36
62.03
45.24
31.63
22.07
16.54
14.35
14.48
15.84
17.40
18.21
17.55
15.19
11.56
7.74
4.98
4.11
5.12
7.10
8.80
9.43
9.24
9.64
12.66
20.11
32.68
49.47
68.05
85.08
97.37
102.88
101.43
94.69
85.45
76.48
69.32
63.70
57.75
48.88
34.91
14.88
-10.71
-40.24
-71.47
-102.19
-130.43
-154.71
-174.14
-188.56
-198.67
-205.92
-212.11
-218.92
-227.31
-237.39
-248.53
-259.72
-270.00
-278.57
-284.67
-287.40
-285.62
-278.16
-264.20
-243.71
-217.64
-187.69
-155.85
-123.82
-92.62
-62.51
-33.15
-3.78
26.68
59.52
95.85
135.86
177.99
218.59
252.56
274.77
281.90
273.71
252.99
224.53
193.35
163.40
137.06
115.40
98.76
87.00
79.47
74.80
71.02
66.17
59.11
50.31
41.77
36.46
37.01
44.55
58.07
74.64
90.44
102.12
107.99
108.33
105.08
100.77
97.42
95.88
95.77
96.06
95.72
94.33
92.17
89.97
88.45
88.04
88.87
91.02
94.66
99.85
105.96
111.17
112.40
106.14
89.83
63.13
28.28
-10.62
-49.11
-83.54
-111.61
-131.87
-143.02
-143.68
-132.88
-111.07
-80.73
-45.99
-11.44
19.45
45.26
66.66
85.40
102.95
119.39
132.95
140.40
138.23
123.97
97.37
60.81
18.76
-23.58
-61.81
-93.49
-118.29
-137.42
-152.53
-164.87
-175.01
-182.98
-188.64
-191.88
-192.52
-190.22
-184.47
-174.86
-161.47
-145.17
-127.53
-110.44
-95.60
-84.01
-75.83
-70.47
-66.99
-64.43
-62.13
-59.87
-57.80
-56.31
-55.73
-56.10
-57.03
-57.78
-57.51
-55.59
-51.82
-46.42
-39.86
-32.68
-25.35
-18.24
-11.70
-6.09
-1.70
1.37
3.26
4.37
5.24
6.30
7.73
9.51
11.44
13.35
15.20
17.08
19.23
21.89
25.21
29.12
33.34
37.32
40.45
42.18
42.32
41.09
39.21
37.69
37.51
39.24
42.85
47.68
52.62
56.50
58.40
57.91
55.18
50.76
45.39
39.67
33.93
28.13
22.07
15.51
8.40
0.90
-6.59
-13.49
-19.10
-22.63
-23.35
-20.80
-15.05
-6.84
2.60
11.92
20.23
27.28
33.48
39.36
45.21
50.79
55.55
58.96
60.85
61.49
61.33
60.73
59.72
58.10
55.64
52.40
48.78
45.46
43.06
41.84
41.48
41.20
40.03
37.22
32.64
26.73
20.36
14.44
9.60
6.03
3.55
1.76
0.31
-1.06
-2.41
-3.65
-4.58
-5.02
-4.85
-4.11
-2.97
-1.64
-0.26
1.16
2.71
4.44
6.29
8.00
9.22
9.55
8.68
6.50
3.10
-1.13
-5.60
-9.58
-12.41
-13.70
-13.42
-11.94
-9.79
-7.48
-5.36
-3.54
-2.03
-0.82
0.04
0.47
0.39
-0.18
-1.11
-2.19
-3.19
-3.92
-4.29
-4.33
-4.12
-3.80
-3.48
-3.21
-3.04
-2.96
-2.90
-2.72
-2.07
-0.55
2.15
6.02
10.61
15.15
18.83
21.17
22.17
22.15
21.55
20.57
19.10
16.90
13.90
10.39
6.90
3.99
1.88
0.40
-0.89
-2.44
-4.46
-6.80
-9.16
-11.35
-13.42
-15.66
-18.39
-21.66
-25.13
-28.15
-29.95
-29.94
-27.91
-24.11
-19.05
-13.47
-8.07
-3.41
0.14
2.48
3.73
4.21
4.26
4.18
4.11
4.13
4.25
4.62
5.42
6.82
8.77
10.98
13.06
14.68
15.83
16.80
18.01
19.70
21.75
23.74
25.25
26.07
26.41
26.67
27.22
28.06
28.86
29.16
28.58
27.11
25.05
22.88
21.08
19.97
19.63
19.93
20.64
21.44
22.02
22.11
21.52
20.18
18.11
15.42
12.35
9.29
6.68
4.94
4.31
4.76
5.93
7.30
8.41
9.02
9.17
9.12
9.19
9.55
10.16
10.81
11.27
11.40
11.23
10.89
10.49
10.10
9.67
9.12
8.46
7.85
7.54
7.74
8.49
9.56
10.58
11.12
10.97
10.15
8.84
7.33
5.82
4.40
3.07
1.91
1.03
0.60
0.70
1.24
1.95
2.45
2.36
1.48
-0.08
-1.99
-3.77
-5.03
-5.70
-6.03
-6.56
-7.83
-10.24
-13.83
-18.32
-23.23
-28.01
-32.17
-35.36
-37.37
-38.12
-37.69
-36.21
-33.84
-30.68
-26.75
-22.04
-16.61
-10.70
-4.69
1.04
6.20
10.74
14.79
18.52
21.97
24.94
27.10
28.17
28.14
27.38
26.60
26.57
27.82
30.43
33.95
37.51
40.19
41.34
40.86
39.29
37.62
36.87
37.67
39.90
42.72
44.91
45.48
44.19
41.78
39.71
39.43
41.77
46.60
52.98
59.63
65.32
68.93
69.39
65.76
57.72
46.26
33.84
23.61
17.76
15.86
14.32
7.64
-9.00
-37.21
-74.32
-114.47
-151.23
-180.09
-199.66
-210.91
-215.39
-213.73
-205.44
-189.92
-168.01
-142.69
-118.43
-99.47
-87.92
-82.75
-80.16
-75.29
-64.36
-46.26
-22.89
1.65
22.73
36.89
42.87
41.58
35.35
26.84
18.07
10.07
3.09
-3.01
-8.47
-13.45
-18.03
-22.14
-25.37
-26.98
-26.10
-22.15
-15.33
-6.82
1.51
7.64
10.24
9.10
5.15
-0.02
-4.88
-8.51
-10.72
-11.91
-12.55
-12.91
-12.98
-12.75
-12.38
-12.30
-12.87
-14.03
-15.03
-14.68
-11.87
-6.08
2.34
12.38
22.78
32.40
40.34
45.94
48.81
48.95
46.93
43.90
41.17
39.80
40.12
41.61
43.07
43.11
40.61
35.05
26.61
16.10
4.83
-5.72
-14.09
-19.19
-20.49
-18.22
-13.29
-7.15
-1.47
2.28
3.09
0.61
-4.91
-12.89
-22.57
-33.17
-43.79
-53.34
-60.62
-64.64
-65.06
-62.51
-58.54
-55.06
-53.65
-54.93
-58.43
-62.87
-66.69
-68.59
-67.75
-63.87
-57.15
-48.21
-38.02
-27.65
-17.93
-9.14
-0.87
7.65
17.03
27.26
37.57
46.77
53.81
58.32
60.67
61.65
61.97
61.83
61.03
59.11
55.86
51.42
46.33
41.13
36.14
31.32
26.38
21.13
15.65
10.24
5.26
0.90
-2.97
-6.64
-10.37
-14.11
-17.58
-20.30
-21.87
-22.02
-20.61
-17.55
-12.75
-6.18
2.06
11.62
21.94
32.40
42.42
51.52
59.36
65.64
70.07
72.48
72.86
71.44
68.68
65.22
61.72
58.77
56.74
55.68
55.23
54.68
53.16
49.97
44.84
38.17
30.91
24.22
19.07
15.87
14.38
14.01
14.17
14.57
15.34
16.80
19.18
22.35
25.80
28.87
30.96
31.86
31.74
31.13
30.76
31.38
33.47
36.97
40.99
43.79
43.11
36.95
24.29
5.69
-16.82
-40.40
-62.27
-80.48
-94.12
-103.12
-107.82
-108.60
-105.84
-100.06
-92.07
-82.95
-73.82
-65.55
-58.42
-52.11
-45.80
-38.46
-29.25
-17.89
-4.86
8.70
21.20
31.08
37.14
38.74
35.82
28.80
18.45
5.86
-7.67
-20.78
-32.28
-41.47
-48.26
-53.05
-56.40
-58.71
-60.07
-60.43
-59.86
-58.65
-57.21
-55.77
-54.24
-52.21
-49.13
-44.74
-39.03
-32.05
-23.64
-13.32
-0.75
13.66
28.24
40.31
47.08
46.99
40.60
30.54
20.59
14.22
13.27
17.51
24.92
32.65
37.85
38.44
33.46
23.37
10.06
-3.37
-13.34
-16.87
-12.83
-2.58
10.15
20.39
23.65
17.55
2.70
-17.53
-38.16
-54.44
-63.26
-63.99
-58.39
-49.64
-41.15
-35.47
-33.70
-35.66
-40.36
-46.63
-53.61
-60.80
-67.81
-74.06
-78.56
-80.05
-77.50
-70.59
-60.05
-47.58
-35.19
-24.57
-16.55
-11.05
-7.51
-5.43
-4.73
-5.70
-8.72
-13.76
-20.25
-27.08
-32.94
-36.57
-37.02
-33.87
-27.34
-18.45
-8.89
-0.53
5.26
8.37
10.16
12.97
19.10
29.79
44.63
61.88
79.28
94.87
107.34
115.93
120.10
119.45
114.07
105.10
94.98
87.24
85.49
92.31
108.22
131.44
158.45
184.95
206.90
221.10
225.44
218.86
201.52
175.00
142.31
107.32
73.73
43.70
17.19
-7.85
-34.25
-64.03
-97.45
-132.98
-168.16
-200.63
-228.78
-251.69
-268.72
-279.39
-283.58
-282.11
-276.93
-270.75
-266.14
-264.55
-265.87
-268.68
-271.08
-271.42
-268.62
-261.98
-250.79
-234.19
-211.48
-182.64
-148.69
-111.61
-73.61
-36.41
-0.49
34.91
71.34
110.36
152.57
197.13
241.62
282.52
315.97
338.64
348.36
344.45
327.60
299.62
263.12
221.29
177.66
135.71
98.42
67.74
44.38
27.81
16.70
9.46
4.74
1.74
0.35
0.93
4.06
10.15
19.14
30.38
42.74
54.88
65.57
73.99
79.83
83.21
84.53
84.38
83.36
81.97
80.68
79.97
80.29
82.04
85.48
90.64
97.30
104.91
112.49
118.83
122.70
123.12
119.70
112.79
103.50
93.54
84.70
78.20
74.42
72.88
72.49
72.06
70.91
69.32
68.58
70.34
75.07
81.61
87.06
87.64
79.96
62.44
36.26
5.06
-26.36
-54.78
-78.79
-98.84
-116.56
-134.40
-155.31
-182.17
-216.64
-257.84
-302.63
-343.71
-370.87
-373.89
-346.88
-291.53
-217.34
-138.48
-69.35
-22.17
-2.18
-7.46
-30.97
-63.95
-99.12
-131.70
-158.78
-166.64
-146.34
-98.30
-33.92
31.45
86.64
126.66
151.62
165.29
172.34
174.12
172.46
167.35
157.35
140.87
116.62
84.41
45.89
2.05
-49.07
-105.61
-159.33
-202.85
-231.51
-245.47
-248.14
-242.60
-231.53
-217.46
-202.00
-186.78
-173.88
-165.26
-162.66
-171.75
-188.57
-207.80
-223.07
-227.45
-215.98
-188.11
-147.99
-103.24
-62.03
-29.34
-7.25
5.78
12.47
15.44
16.27
15.62
13.64
10.72
8.23
6.78
6.71
8.13
11.27
16.21
23.34
33.14
45.88
61.99
80.85
101.58
123.53
146.80
172.38
202.29
239.32
285.96
343.04
407.56
472.32
527.32
563.00
573.59
559.35
526.12
482.51
436.56
392.52
350.61
308.81
265.44
220.73
176.41
134.28
94.55
56.02
16.08
-27.97
-77.91
-134.39
-196.96
-264.49
-334.61
-403.12
-462.59
-505.21
-525.21
-520.85
-494.85
-453.08
-402.65
-349.69
-298.25
-248.37
-199.61
-152.30
-107.32
-64.78
-22.86
21.97
73.75
134.84
206.49
284.45
359.18
419.17
455.84
467.02
457.15
435.26
394.82
336.15
265.39
192.82
127.75
75.48
37.81
13.52
-0.19
-7.62
-11.01
-12.81
-15.11
-19.20
-24.58
-30.74
-38.33
-48.53
-63.22
-82.33
-105.63
-132.73
-162.91
-195.25
-221.95
-240.34
-250.82
-255.71
-256.55
-254.93
-252.46
-250.66
-249.95
-248.65
-243.88
-231.19
-206.97
-170.05
-123.81
-75.23
-32.36
-0.96
17.43
24.34
23.68
19.40
14.43
10.31
7.95
7.88
10.41
15.48
22.02
28.81
35.13
40.80
47.03
55.67
68.46
86.73
111.09
140.04
169.75
194.23
206.88
201.26
177.67
141.51
101.13
64.55
36.15
15.97
0.15
-15.44
-33.36
-53.94
-76.44
-100.34
-125.99
-154.69
-187.39
-223.10
-257.94
-285.24
-297.39
-289.53
-261.97
-220.02
-172.72
-129.58
-97.23
-78.24
-70.06
-67.76
-67.02
-65.67
-62.25
-56.32
-47.94
-37.46
-26.58
-14.95
-3.22
8.62
20.86
36.00
56.19
82.06
112.25
141.97
169.48
194.87
219.30
244.77
276.37
319.20
376.58
448.21
526.74
604.89
674.04
725.43
735.03
689.58
592.50
464.12
348.55
257.43
189.27
138.25
95.10
56.31
23.54
-1.09
-17.50
-28.36
-40.20
-54.58
-69.77
-82.95
-91.27
-92.00
-85.09
-73.44
-61.98
-57.86
-63.63
-78.66
-101.01
-128.37
-158.42
-190.48
-226.08
-268.57
-322.93
-390.22
-467.08
-545.42
-613.79
-660.53
-678.20
-666.48
-631.98
-585.96
-538.33
-495.13
-457.08
-421.23
-384.19
-344.90
-305.18
-268.11
-236.01
-208.56
-183.63
-157.48
-126.42
-88.79
-45.99
-1.66
40.45
78.18
111.74
142.57
173.90
209.75
253.35
306.32
368.86
440.14
518.12
598.65
662.88
688.47
660.41
581.00
469.82
352.77
249.67
169.01
109.40
65.30
27.90
-7.49
-42.90
-80.57
-124.38
-178.43
-244.54
-315.34
-378.43
-419.88
-430.29
-410.08
-369.19
-322.28
-282.12
-257.01
-244.27
-239.10
-236.67
-233.32
-227.33
-218.37
-206.53
-191.33
-173.20
-152.12
-129.52
-107.11
-86.14
-67.15
-50.03
-34.30
-19.39
-5.07
8.81
21.06
30.17
35.07
35.51
32.10
26.23
19.53
13.45
9.19
6.86
5.94
5.80
5.94
6.24
6.89
8.15
10.12
12.75
15.54
17.87
19.27
19.63
19.17
18.38
17.75
17.61
18.03
18.82
19.66
20.33
20.80
21.22
21.91
23.15
25.09
27.71
30.81
34.18
37.67
41.33
45.38
50.14
55.93
62.93
71.19
80.74
91.51
103.42
116.25
129.72
143.64
158.50
175.81
197.89
226.60
261.62
299.21
332.44
353.10
354.50
333.45
290.84
230.60
158.36
80.60
4.59
-61.71
-110.65
-136.90
-139.46
-122.50
-93.94
-62.45
-34.47
-12.59
3.84
16.98
28.91
40.89
53.70
68.26
85.70
106.82
131.26
157.27
182.06
202.54
216.36
222.43
220.91
212.93
200.11
184.14
166.49
148.17
129.69
111.22
92.90
75.25
59.37
46.79
38.99
36.70
39.44
45.53
52.55
58.14
60.73
60.03
57.07
53.89
52.79
55.50
62.59
73.10
84.77
94.72
100.27
99.64
92.29
78.90
61.01
40.58
19.51
-0.54
-18.36
-33.17
-44.67
-53.01
-58.73
-62.48
-64.82
-66.03
-66.05
-64.60
-61.41
-56.42
-49.86
-42.16
-33.98
-26.04
-19.11
-13.96
-11.13
-10.83
-12.83
-16.56
-21.29
-26.49
-31.90
-37.56
-43.56
-49.83
-55.97
-61.43
-65.59
-68.10
-68.85
-68.02
-65.85
-62.67
-58.79
-54.61
-50.65
-47.45
-45.45
-44.84
-45.48
-47.01
-49.01
-51.14
-53.20
-55.11
-56.77
-58.03
-58.71
-58.66
-57.80
-56.11
-53.69
-50.62
-47.06
-43.13
-39.03
-34.94
-31.02
-27.37
-24.03
-20.96
-18.13
-15.51
-13.07
-10.82
-8.77
-6.98
-5.49
-4.38
-3.71
-3.53
-3.81
-4.39
-5.05
-5.48
-5.40
-4.64
-3.24
-1.40
0.61
2.51
4.16
5.52
6.66
7.62
8.33
8.68
8.54
7.88
6.86
5.76
4.89
4.44
4.41
4.61
4.74
4.57
3.97
2.88
1.27
-1.00
-4.17
-8.35
-13.43
-18.86
-23.86
-27.59
-29.49
-29.50
-28.02
-25.70
-23.21
-20.99
-19.19
-17.71
-16.40
-15.12
-13.76
-12.19
-10.24
-7.71
-4.51
-0.74
3.28
7.17
10.66
13.76
16.79
20.15
24.10
28.55
33.18
37.60
41.52
44.87
47.58
49.45
50.02
48.77
45.33
39.78
32.59
24.49
16.17
7.99
0.09
-7.53
-14.75
-21.28
-26.77
-30.98
-33.96
-36.05
-37.72
-39.35
-41.12
-42.88
-44.36
-45.24
-45.26
-44.31
-42.37
-39.54
-36.00
-32.09
-28.24
-24.93
-22.55
-21.22
-20.75
-20.63
-20.21
-18.87
-16.33
-12.70
-8.57
-4.82
-2.41
-2.09
-4.13
-8.24
-13.53
-18.76
-22.79
-24.97
-25.43
-25.10
-25.39
-27.61
-32.45
-39.59
-47.77
-55.19
-60.06
-61.14
-57.96
-50.79
-40.48
-28.30
-15.68
-4.06
5.38
12.06
16.11
18.32
19.73
21.03
22.15
22.16
19.72
13.97
5.20
-4.97
-14.12
-20.01
-21.55
-19.20
-14.60
-9.65
-5.72
-3.13
-1.41
0.24
2.53
5.91
10.76
17.34
25.71
35.40
45.36
54.26
61.16
66.08
70.00
74.36
80.10
87.04
93.67
97.83
97.67
92.46
82.91
70.82
58.33
47.18
38.29
31.82
27.49
25.01
24.22
25.05
27.19
29.99
32.48
33.72
33.08
30.47
26.33
21.37
16.37
12.01
8.74
6.81
6.37
7.48
10.28
14.85
21.19
29.01
37.68
46.22
53.52
58.62
61.02
60.78
58.48
54.94
50.83
46.40
41.26
34.62
25.54
13.48
-1.33
-17.83
-34.38
-49.24
-61.15
-69.67
-75.13
-78.44
-80.65
-82.58
-84.62
-86.64
-88.16
-88.57
-87.40
-84.39
-79.61
-73.21
-65.39
-56.31
-46.07
-34.92
-23.37
-12.36
-3.10
3.04
4.89
1.75
-6.44
-19.06
-34.81
-51.91
-68.33
-82.01
-91.22
-94.62
-91.51
-81.93
-66.74
-47.54
-26.50
-5.91
12.16
26.30
35.93
41.29
43.20
42.71
40.80
38.17
35.29
32.47
30.04
28.26
27.24
26.86
26.77
26.54
25.75
24.18
21.76
18.50
14.45
9.69
4.49
-0.67
-5.07
-8.03
-8.98
-7.77
-4.62
-0.06
5.24
10.59
15.49
19.68
23.15
26.09
28.63
30.70
32.04
32.30
31.35
29.40
27.11
25.28
24.59
25.26
27.08
29.54
32.10
34.42
36.42
38.26
40.06
41.91
43.74
45.50
47.22
49.15
51.77
55.49
60.35
65.73
70.22
71.85
68.66
59.35
43.94
23.99
2.37
-17.49
-32.54
-40.95
-42.62
-39.12
-33.07
-27.31
-23.98
-24.09
-27.30
-32.35
-37.57
-41.33
-42.28
-39.45
-32.33
-21.01
-6.41
9.62
24.45
35.25
39.83
37.32
28.42
14.99
-0.66
-16.70
-32.22
-47.29
-62.40
-77.88
-93.33
-107.53
-118.67
-124.95
-125.23
-119.55
-109.31
-97.15
-86.42
-80.36
-81.12
-89.01
-102.15
-116.85
-128.66
-133.61
-129.66
-117.09
-98.25
-76.43
-54.35
-32.93
-11.26
12.46
39.02
66.77
91.21
106.36
107.28
92.44
64.75
30.68
-2.39
-28.83
-46.37
-55.73
-59.05
-58.12
-53.36
-44.27
-30.53
-13.10
5.60
22.23
33.52
37.24
32.75
21.06
4.40
-14.25
-31.69
-44.91
-51.48
-49.84
-39.66
-21.97
0.78
25.07
46.92
62.93
71.10
71.42
65.68
56.74
47.48
39.95
34.98
32.44
31.55
31.35
31.04
30.08
28.25
25.56
22.31
18.95
15.97
13.84
12.83
13.03
14.31
16.37
18.86
21.50
24.09
26.58
28.96
31.13
32.85
33.71
33.29
31.36
28.01
23.74
19.20
14.95
11.17
7.66
3.94
-0.44
-5.67
-11.62
-17.86
-23.87
-29.17
-33.36
-36.31
-38.19
-39.51
-41.02
-43.26
-46.20
-48.97
-50.11
-48.17
-42.46
-33.52
-23.00
-12.97
-5.04
0.31
3.78
6.69
10.23
14.88
20.22
25.37
29.44
32.07
33.46
34.21
34.87
35.61
36.23
36.33
35.54
33.78
31.19
28.05
24.57
20.88
16.92
12.57
7.69
2.21
-3.88
-10.48
-17.43
-24.54
-31.64
-38.51
-44.79
-49.99
-53.50
-54.86
-53.98
-51.34
-47.91
-44.83
-42.98
-42.65
-43.49
-44.69
-45.32
-44.68
-42.44
-38.69
-33.85
-28.49
-23.14
-18.16
-13.59
-9.13
-4.29
1.38
7.99
15.13
21.89
27.25
30.48
31.47
30.75
29.16
27.50
26.19
25.23
24.42
23.64
22.88
22.23
21.68
20.94
19.62
17.41
14.32
10.65
6.90
3.36
0.13
-2.88
-5.61
-7.70
-8.48
-7.26
-3.80
1.41
7.24
12.24
15.27
15.89
14.49
11.97
9.23
6.78
4.58
2.35
-0.19
-2.96
-5.59
-7.54
-8.43
-8.12
-6.63
-3.96
0.01
5.39
12.09
19.60
27.01
33.29
37.71
40.03
40.62
40.19
39.50
39.12
39.34
40.21
41.69
43.68
45.94
47.98
48.97
47.97
44.19
37.37
27.94
16.94
5.60
-5.08
-14.61
-22.98
-30.36
-36.83
-42.17
-46.03
-48.14
-48.60
-47.96
-46.95
-46.28
-46.25
-46.71
-47.10
-46.68
-44.89
-41.50
-36.76
-31.28
-25.83
-21.04
-17.18
-14.11
-11.40
-8.55
-5.32
-1.77
1.73
4.78
7.06
8.49
9.11
8.96
7.94
5.92
2.88
-0.94
-4.97
-8.51
-10.96
-12.12
-12.18
-11.64
-11.05
-10.79
-10.94
-11.35
-11.80
-12.12
-12.28
-12.31
-12.31
-12.30
-12.21
-11.87
-11.14
-9.99
-8.47
-6.78
-5.12
-3.61
-2.25
-0.97
0.28
1.46
2.43
3.05
3.28
3.25
3.28
3.74
4.90
6.78
9.18
11.77
14.22
16.37
18.19
19.78
21.26
22.75
24.32
26.04
27.97
30.10
32.35
34.61
36.75
38.72
40.55
42.39
44.39
46.67
49.26
52.14
55.24
58.50
61.88
65.33
68.95
72.98
77.88
84.23
92.54
103.08
115.71
129.81
144.39
158.25
170.12
178.77
183.11
182.30
175.86
163.84
146.92
126.30
103.54
80.13
57.26
35.60
15.34
-3.53
-21.03
-36.90
-50.65
-61.62
-69.24
-73.18
-73.57
-71.06
-66.82
-62.46
-59.66
-59.84
-63.69
-70.93
-80.37
-90.26
-98.88
-104.98
-108.11
-108.52
-106.87
-103.93
-100.30
-96.37
-92.33
-88.24
-84.09
-79.83
-75.39
-70.77
-66.02
-61.30
-56.81
-52.75
-49.19
-46.12
-43.39
-40.83
-38.28
-35.62
-32.77
-29.73
-26.61
-23.61
-20.99
-18.92
-17.43
-16.41
-15.66
-15.01
-14.41
-13.94
-13.70
-13.67
-13.66
-13.37
-12.57
-11.23
-9.58
-8.01
-6.95
-6.68
-7.25
-8.52
-10.25
-12.24
-14.33
-16.42
-18.37
-20.01
-21.19
-21.78
-21.83
-21.51
-21.04
-20.58
-20.17
-19.64
-18.77
-17.41
-15.54
-13.38
-11.23
-9.35
-7.79
-6.48
-5.18
-3.65
-1.81
0.32
2.55
4.73
6.69
8.37
9.73
10.82
11.74
12.68
13.80
15.25
16.99
18.80
20.35
21.31
21.48
20.89
19.72
18.27
16.78
15.44
14.34
13.61
13.36
13.66
14.50
15.75
17.21
18.66
19.99
21.18
22.30
23.41
24.55
25.74
26.92
28.05
29.05
29.80
30.13
29.89
28.91
27.16
24.70
21.73
18.54
15.40
12.47
9.82
7.36
4.93
2.35
-0.48
-3.62
-7.12
-11.00
-15.29
-19.98
-24.99
-30.13
-35.13
-39.68
-43.51
-46.44
-48.39
-49.39
-49.54
-49.01
-47.98
-46.67
-45.22
-43.74
-42.32
-41.01
-39.91
-39.08
-38.62
-38.51
-38.77
-39.35
-40.18
-41.23
-42.38
-43.45
-44.22
-44.45
-43.98
-42.80
-41.08
-39.10
-37.15
-35.41
-33.94
-32.65
-31.40
-30.04
-28.48
-26.65
-24.50
-22.00
-19.14
-15.96
-12.55
-9.03
-5.50
-2.04
1.31
4.50
7.49
10.17
12.43
14.21
15.52
16.44
17.11
17.60
18.00
18.34
18.61
18.83
18.98
19.00
18.83
18.38
17.61
16.58
15.41
14.28
13.35
12.68
12.20
11.79
11.29
10.57
9.61
8.48
7.24
6.00
4.79
3.61
2.46
1.34
0.31
-0.58
-1.31
-1.93
-2.51
-3.19
-4.02
-5.02
-6.10
-7.13
-7.91
-8.25
-8.03
-7.18
-5.81
-4.14
-2.45
-1.04
-0.06
0.49
0.75
0.94
1.27
1.83
2.58
3.41
4.17
4.74
5.08
5.22
5.19
5.09
4.96
4.85
4.75
4.67
4.63
4.64
4.71
4.83
4.94
4.94
4.73
4.29
3.66
2.99
2.39
1.95
1.62
1.30
0.87
0.28
-0.39
-1.01
-1.48
-1.78
-2.00
-2.28
-2.71
-3.28
-3.92
-4.52
-5.04
-5.55
-6.16
-6.95
-7.85
-8.68
-9.14
-8.99
-8.14
-6.71
-4.91
-3.04
-1.27
0.30
1.71
3.00
4.18
5.24
6.13
6.84
7.38
7.84
8.34
8.97
9.73
10.49
11.06
11.19
10.77
9.84
8.66
7.56
6.80
6.43
6.25
5.95
5.26
4.13
2.73
1.39
0.41
-0.10
-0.28
-0.40
-0.69
-1.31
-2.19
-3.19
-4.20
-5.15
-6.05
-6.93
-7.71
-8.30
-8.58
-8.54
-8.28
-8.03
-8.02
-8.36
-9.03
-9.81
-10.45
-10.68
-10.36
-9.46
-8.13
-6.57
-5.03
-3.71
-2.69
-1.95
-1.39
-0.87
-0.31
0.31
0.92
1.46
1.86
2.16
2.41
2.72
3.14
3.66
4.22
4.72
5.13
5.44
5.70
6.00
6.39
6.85
7.32
7.73
8.00
8.16
8.22
8.21
8.10
7.85
7.42
6.79
6.07
5.36
4.83
4.54
4.44
4.37
4.17
3.73
3.06
2.24
1.36
0.42
-0.63
-1.88
-3.42
-5.21
-7.11
-8.99
-10.69
-12.08
-13.06
-13.51
-13.32
-12.41
-10.84
-8.80
-6.58
-4.42
-2.53
-0.94
0.39
1.56
2.63
3.61
4.48
5.18
5.78
6.32
6.90
7.59
8.38
9.22
10.03
10.76
11.34
11.80
12.16
12.45
12.67
12.81
12.88
12.84
12.70
12.41
11.97
11.34
10.55
9.64
8.61
7.55
6.51
5.57
4.79
4.22
3.83
3.51
3.16
2.66
1.94
0.99
-0.13
-1.32
-2.51
-3.61
-4.60
-5.44
-6.20
-6.96
-7.88
-9.04
-10.51
-12.13
-13.66
-14.69
-14.92
-14.22
-12.72
-10.74
-8.65
-6.68
-4.90
-3.22
-1.60
-0.04
1.33
2.46
3.34
4.09
4.87
5.76
6.76
7.70
8.43
8.87
9.04
9.05
9.06
9.19
9.47
9.83
10.16
10.31
10.19
9.82
9.28
8.71
8.20
7.77
7.40
7.00
6.54
6.01
5.42
4.83
4.19
3.48
2.58
1.46
0.11
-1.37
-2.83
-4.14
-5.22
-6.09
-6.81
-7.44
-8.04
-8.62
-9.24
-9.94
-10.78
-11.72
-12.69
-13.50
-13.94
-13.83
-13.14
-11.88
-10.19
-8.20
-6.04
-3.81
-1.57
0.59
2.56
4.22
5.47
6.31
6.77
6.99
7.10
7.18
7.27
7.38
7.51
7.70
7.95
8.23
8.47
8.60
8.60
8.58
8.67
9.00
9.56
10.30
11.05
11.70
12.15
12.37
12.32
11.95
11.26
10.32
9.29
8.37
7.71
7.37
7.22
7.12
6.89
6.43
5.67
4.64
3.35
1.85
0.19
-1.56
-3.31
-5.03
-6.69
-8.37
-10.08
-11.86
-13.69
-15.47
-17.05
-18.20
-18.76
-18.63
-17.87
-16.62
-15.08
-13.45
-11.84
-10.29
-8.84
-7.46
-6.14
-4.80
-3.40
-1.94
-0.50
0.84
2.01
3.03
3.95
4.89
5.81
6.64
7.22
7.50
7.54
7.59
7.84
8.41
9.17
9.86
10.24
10.18
9.78
9.24
8.76
8.41
8.19
7.99
7.73
7.40
7.06
6.77
6.56
6.38
6.13
5.72
5.08
4.21
3.10
1.78
0.30
-1.31
-2.99
-4.67
-6.26
-7.61
-8.62
-9.18
-9.21
-8.68
-7.66
-6.28
-4.78
-3.37
-2.25
-1.47
-0.96
-0.55
-0.06
0.61
1.49
2.56
3.78
5.10
6.50
7.92
9.29
10.56
11.68
12.63
13.40
14.00
14.48
14.88
15.30
15.80
16.36
16.92
17.33
17.46
17.21
16.60
15.72
14.68
13.60
12.58
11.66
10.86
10.06
9.09
7.65
5.48
2.33
-1.82
-6.82
-12.32
-17.85
-23.00
-27.51
-31.36
-34.74
-38.01
-41.47
-45.28
-49.44
-53.75
-57.93
-61.71
-64.85
-67.16
-68.53
-68.83
-67.98
-65.91
-62.69
-58.48
-53.53
-48.20
-42.80
-37.59
-32.73
-28.25
-24.14
-20.37
-16.98
-13.98
-11.38
-9.07
-6.86
-4.50
-1.80
1.31
4.76
8.36
11.86
15.07
17.85
20.14
21.95
23.26
24.00
24.10
23.48
22.15
20.25
18.08
15.93
14.01
12.38
10.86
9.19
7.12
4.56
1.61
-1.46
-4.38
-6.87
-8.82
-10.29
-11.43
-12.38
-13.22
-13.82
-13.92
-13.13
-11.06
-7.41
-2.01
5.18
13.90
23.64
33.61
42.99
51.19
58.09
64.07
69.78
75.79
82.20
88.55
94.01
97.71
99.11
98.15
95.17
90.60
84.81
77.86
69.68
60.25
49.74
38.67
27.83
18.02
9.85
3.54
-1.06
-4.42
-7.14
-9.83
-12.99
-16.95
-21.84
-27.61
-34.16
-41.38
-49.27
-57.84
-67.02
-76.52
-85.82
-94.27
-101.25
-106.39
-109.67
-111.36
-111.84
-111.45
-110.24
-108.09
-104.74
-100.03
-94.06
-87.21
-80.04
-73.07
-66.65
-60.80
-55.34
-50.00
-44.59
-39.08
-33.57
-28.25
-23.28
-18.80
-14.92
-11.73
-9.34
-7.88
-7.35
-7.66
-8.50
-9.35
-9.63
-8.88
-6.92
-3.93
-0.36
3.41
7.19
11.16
15.75
21.34
27.96
35.26
42.53
48.94
53.84
56.88
58.01
57.38
55.17
51.65
47.07
41.78
36.13
30.53
25.36
20.87
17.24
14.45
12.34
10.60
8.84
6.72
3.98
0.56
-3.36
-7.31
-10.55
-12.29
-11.92
-9.33
-5.05
-0.11
4.29
7.36
9.12
10.53
13.08
18.16
26.39
37.31
49.50
61.02
70.12
75.67
77.29
75.31
70.47
63.71
55.97
48.22
41.37
36.19
33.11
32.08
32.54
33.62
34.46
34.60
34.12
33.53
33.40
33.95
34.87
35.47
35.07
33.41
30.78
27.87
25.36
23.54
22.14
20.47
17.78
13.55
7.70
0.58
-7.21
-14.98
-22.12
-28.16
-32.82
-35.92
-37.43
-37.40
-36.01
-33.58
-30.55
-27.41
-24.56
-22.16
-20.12
-18.14
-15.92
-13.34
-10.53
-7.78
-5.42
-3.59
-2.20
-1.03
0.19
1.61
3.22
4.95
6.68
8.31
9.76
10.97
11.89
12.48
12.74
12.73
12.57
12.40
12.32
12.30
12.15
11.59
10.21
7.72
4.07
-0.44
-5.20
-9.57
-13.22
-16.44
-20.07
-25.25
-32.90
-43.33
-56.07
-70.08
-84.11
-97.11
-108.28
-117.13
-123.19
-126.10
-125.57
-121.57
-114.32
-104.14
-91.25
-75.70
-57.57
-37.21
-15.55
6.00
25.90
43.12
57.50
69.74
81.03
92.39
104.24
116.31
127.92
138.23
146.52
152.20
154.77
153.92
149.63
142.29
132.65
121.45
109.16
95.75
80.80
63.95
45.28
25.54
5.97
-12.02
-27.35
-39.48
-48.46
-54.68
-58.71
-61.12
-62.44
-63.16
-63.69
-64.28
-64.93
-65.37
-65.03
-63.32
-59.75
-54.15
-46.75
-38.08
-28.86
-19.85
-11.68
-4.82
0.52
4.38
7.03
8.87
10.26
11.37
12.15
12.36
11.72
10.07
7.46
4.17
0.63
-2.70
-5.46
-7.43
-8.52
-8.73
-8.12
-6.78
-4.84
-2.52
-0.09
2.13
3.88
4.99
5.47
5.44
5.10
4.64
4.22
3.91
3.68
3.42
2.96
2.16
1.07
-0.05
-0.73
-0.53
0.80
3.10
5.86
8.35
9.84
10.00
9.05
7.86
7.75
10.11
15.77
24.63
35.56
46.69
56.09
62.38
65.11
64.62
61.71
57.16
51.53
45.21
38.59
32.25
26.84
22.92
20.64
19.73
19.55
19.33
18.50
16.83
14.50
11.94
9.61
7.80
6.49
5.45
4.37
3.04
1.49
-0.10
-1.52
-2.63
-3.52
-4.37
-5.43
-6.86
-8.70
-10.87
-13.17
-15.40
-17.30
-18.64
-19.18
-18.73
-17.22
-14.76
-11.63
-8.27
-5.16
-2.68
-0.98
0.07
0.81
1.66
2.90
4.53
6.31
7.89
9.04
9.70
10.04
10.26
10.50
10.74
10.81
10.61
10.12
9.53
9.09
8.99
9.25
9.74
10.28
10.71
11.01
11.23
11.44
11.66
11.82
11.77
11.38
10.61
9.50
8.16
6.70
5.20
3.69
2.22
0.84
-0.34
-1.22
-1.71
-1.85
-1.76
-1.70
-1.89
-2.51
-3.58
-4.96
-6.36
-7.47
-8.02
-7.83
-6.92
-5.46
-3.71
-1.97
-0.48
0.62
1.27
1.48
1.33
0.91
0.35
-0.17
-0.49
-0.48
-0.08
0.65
1.60
2.58
3.43
4.08
4.56
4.95
5.41
5.99
6.68
7.39
7.98
8.30
8.28
7.95
7.38
6.73
6.18
5.82
5.66
5.59
5.42
4.99
4.22
3.14
1.90
0.71
-0.24
-0.85
-1.13
-1.23
-1.36
-1.75
-2.57
-3.86
-5.57
-7.58
-9.73
-11.90
-13.94
-15.73
-17.08
-17.82
-17.83
-17.06
-15.62
-13.73
-11.65
-9.65
-7.93
-6.60
-5.65
-4.92
-4.12
-2.92
-1.10
1.38
4.28
7.21
9.76
11.71
13.03
13.83
14.20
14.17
13.63
12.50
10.86
8.96
7.15
5.76
4.91
4.48
4.21
3.85
3.28
2.52
1.68
0.86
0.11
-0.57
-1.19
-1.74
-2.22
-2.64
-3.06
-3.58
-4.26
-5.11
-6.08
-7.14
-8.27
-9.51
-10.89
-12.39
-13.93
-15.41
-16.77
-18.06
-19.45
-21.06
-22.90
-24.80
-26.43
-27.52
-27.89
-27.63
-27.00
-26.27
-25.59
-24.91
-24.00
-22.52
-20.17
-16.84
-12.58
-7.60
-2.19
3.35
8.73
13.64
17.79
20.88
22.74
23.34
22.92
21.88
20.69
19.74
19.29
19.48
20.37
22.05
24.53
27.68
31.15
34.49
37.23
39.06
39.91
39.83
38.96
37.36
35.03
32.02
28.47
24.61
20.71
16.97
13.48
10.25
7.25
4.51
2.06
-0.09
-1.94
-3.58
-5.07
-6.46
-7.72
-8.84
-9.80
-10.64
-11.45
-12.29
-13.14
-13.91
-14.44
-14.56
-14.24
-13.58
-12.77
-12.05
-11.60
-11.41
-11.34
-11.12
-10.55
-9.53
-8.15
-6.63
-5.22
-4.06
-3.18
-2.48
-1.83
-1.11
-0.31
0.47
1.14
1.59
1.74
1.59
1.15
0.46
-0.41
-1.32
-2.14
-2.78
-3.21
-3.51
-3.80
-4.24
-4.84
-5.56
-6.24
-6.76
-7.03
-7.14
-7.21
-7.40
-7.81
-8.45
-9.29
-10.22
-11.15
-11.90
-12.31
-12.22
-11.64
-10.80
-10.20
-10.41
-11.85
-14.50
-17.86
-21.04
-23.13
-23.48
-21.91
-18.69
-14.36
-9.51
-4.62
0.01
4.25
8.06
11.49
14.59
17.40
19.99
22.37
24.48
26.27
27.61
28.36
28.38
27.60
25.99
23.61
20.64
17.34
13.98
10.80
7.97
5.53
3.44
1.67
0.17
-1.03
-1.94
-2.60
-3.12
-3.66
-4.37
-5.32
-6.46
-7.68
-8.81
-9.73
-10.33
-10.64
-10.65
-10.43
-10.04
-9.57
-9.11
-8.70
-8.38
-8.15
-8.05
-8.13
-8.50
-9.22
-10.24
-11.36
-12.25
-12.60
-12.17
-10.93
-9.01
-6.71
-4.28
-1.96
0.12
1.89
3.34
4.52
5.48
6.32
7.08
7.80
8.47
9.08
9.61
10.07
10.49
10.87
11.19
11.41
11.51
11.48
11.34
11.08
10.71
10.16
9.31
8.05
6.29
4.06
1.50
-1.18
-3.73
-5.98
-7.84
-9.32
-10.46
-11.35
-12.10
-12.79
-13.52
-14.38
-15.40
-16.55
-17.71
-18.72
-19.45
-19.87
-20.07
-20.19
-20.38
-20.69
-21.09
-21.49
-21.75
-21.79
-21.56
-21.00
-20.07
-18.71
-16.92
-14.79
-12.50
-10.30
-8.40
-6.88
-5.67
-4.63
-3.63
-2.63
-1.66
-0.82
-0.18
0.27
0.61
0.87
1.09
1.22
1.28
1.31
1.41
1.71
2.26
3.02
3.88
4.65
5.18
5.37
5.17
4.61
3.80
2.84
1.88
1.04
0.41
0.03
-0.12
-0.09
0.01
0.09
0.06
-0.19
-0.68
-1.42
-2.34
-3.33
-4.28
-5.13
-5.92
-6.74
-7.72
-8.92
-10.27
-11.61
-12.71
-13.39
-13.57
-13.27
-12.60
-11.63
-10.44
-9.09
-7.62
-6.15
-4.79
-3.63
-2.62
-1.68
-0.71
0.35
1.46
2.49
3.33
3.90
4.20
4.33
4.38
4.43
4.53
4.70
4.98
5.36
5.84
6.37
6.88
7.27
7.50
7.55
7.44
7.20
6.89
6.50
6.04
5.49
4.87
4.25
3.69
3.22
2.84
2.52
2.22
1.87
1.47
0.98
0.41
-0.27
-1.11
-2.13
-3.30
-4.55
-5.81
-6.99
-8.09
-9.13
-10.16
-11.17
-12.06
-12.67
-12.82
-12.37
-11.33
-9.77
-7.88
-5.86
-3.87
-2.03
-0.39
1.02
2.24
3.29
4.26
5.22
6.22
7.23
8.15
8.83
9.19
9.24
9.07
8.81
8.54
8.28
7.99
7.67
7.39
7.25
7.37
7.69
8.07
8.33
8.34
8.11
7.71
7.23
6.67
6.00
5.14
4.09
2.93
1.78
0.76
-0.09
-0.82
-1.51
-2.26
-3.02
-3.68
-4.03
-3.90
-3.23
-2.12
-0.86
0.21
0.79
0.71
-0.07
-1.45
-3.30
-5.47
-7.78
-10.01
-11.88
-13.13
-13.57
-13.21
-12.23
-10.93
-9.63
-8.48
-7.51
-6.57
-5.48
-4.14
-2.62
-1.05
0.36
1.51
2.41
3.11
3.75
4.37
4.97
5.54
6.04
6.49
6.95
7.43
7.93
8.37
8.69
8.87
8.98
9.11
9.34
9.74
10.29
10.91
11.53
12.08
12.53
12.92
13.25
13.55
13.83
14.08
14.31
14.50
14.68
14.86
15.01
15.04
14.70
13.74
11.91
9.16
5.72
2.04
-1.32
-3.89
-5.50
-6.35
-6.87
-7.51
-8.42
-9.41
-9.96
-9.51
-7.76
-4.77
-0.91
3.41
7.95
12.66
17.51
22.27
26.53
29.88
32.16
33.60
34.66
35.65
36.42
36.33
34.64
30.96
25.64
19.63
14.11
10.00
7.72
7.33
8.80
12.17
17.50
24.61
32.98
41.80
50.39
58.44
66.13
73.81
81.52
88.64
93.83
95.33
91.38
80.43
61.37
33.76
-1.73
-42.85
-85.66
-125.18
-156.70
-177.43
-187.54
-190.07
-189.58
-190.28
-194.44
-201.70
-209.71
-215.24
-215.38
-208.22
-192.79
-168.70
-135.80
-94.57
-46.80
3.64
51.01
89.04
113.10
122.07
118.98
109.77
100.81
96.41
97.58
102.55
108.53
113.41
116.59
118.57
120.04
121.00
120.66
118.03
112.51
104.20
94.04
