1607144946.00
64.000000
-0.00
-0.00
-0.00
-0.00
-0.00
-0.00
-0.00
-0.00
-0.00
-0.00
0.00
0.01
0.01
-0.00
-0.03
-0.05
-0.05
0.00
0.13
0.36
0.66
1.01
1.37
1.72
2.06
2.40
2.79
3.24
3.80
4.42
5.06
5.66
6.20
6.68
7.15
7.68
8.31
9.14
10.09
11.04
11.88
12.56
13.14
13.76
14.65
15.96
17.91
20.32
22.90
25.38
27.58
29.57
31.68
34.32
37.81
42.54
48.15
54.10
59.83
64.97
69.58
74.14
79.34
85.71
93.76
103.00
112.62
121.73
129.77
136.75
143.30
150.75
157.77
166.64
177.95
191.79
206.97
220.57
228.25
225.36
208.53
176.87
132.76
80.05
23.07
-34.94
-92.44
-149.16
-205.23
-260.37
-313.74
-363.87
-409.83
-450.91
-486.50
-515.74
-537.23
-549.22
-549.96
-538.37
-514.21
-478.67
-433.88
-382.45
-327.02
-269.84
-212.63
-156.66
-102.95
-52.37
-5.90
35.58
71.43
101.35
125.50
144.38
158.69
169.15
176.37
180.75
182.57
182.07
179.51
175.23
169.65
163.18
156.15
148.81
141.30
133.69
126.02
118.33
110.69
103.16
95.80
88.68
81.83
75.25
68.95
62.95
57.25
51.86
46.78
42.03
37.59
33.45
29.61
26.07
22.81
19.83
17.11
14.67
12.48
10.54
8.83
7.35
6.07
4.97
4.05
3.27
2.62
2.09
1.65
1.30
1.01
0.79
0.61
0.47
0.37
0.29
0.23
0.19
0.15
0.13
0.13
0.14
0.17
0.20
0.23
0.24
0.23
0.18
0.12
0.07
0.06
0.09
0.14
0.20
0.24
0.24
0.20
0.14
0.10
0.11
0.18
0.30
0.42
0.50
0.50
0.42
0.31
0.24
0.30
0.51
0.82
1.13
1.31
1.26
1.00
0.66
0.43
0.49
0.91
1.58
2.26
2.65
2.56
2.02
1.26
0.67
0.62
1.22
2.30
3.43
4.13
4.05
3.22
1.99
0.98
0.61
1.06
2.04
2.97
3.23
2.26
-0.33
-4.80
-11.06
-18.45
-25.50
-30.25
-30.85
-26.51
-18.15
-8.14
0.58
5.84
7.06
5.34
2.59
0.56
-0.01
0.64
1.78
2.78
3.50
4.08
4.64
5.08
5.11
4.49
3.19
1.61
0.40
0.17
1.25
3.50
6.38
9.10
10.96
11.57
11.01
9.69
8.18
6.94
6.14
5.67
5.25
4.58
3.49
2.05
0.42
-1.10
-2.30
-3.09
-3.49
-3.62
-3.62
-3.64
-3.74
-4.01
-4.50
-5.25
-6.26
-7.48
-8.75
-9.90
-10.84
-11.52
-12.05
-12.63
-13.45
-14.74
-16.62
-18.99
-21.69
-24.45
-26.80
-28.19
-28.08
-26.07
-22.14
-16.59
-10.02
-3.11
3.58
9.75
15.33
20.40
24.98
28.97
32.13
34.19
34.99
34.54
33.04
30.78
28.03
25.01
21.94
19.03
16.57
14.74
13.61
12.94
12.26
11.03
8.84
5.66
1.78
-2.23
-5.88
-8.88
-11.26
-13.31
-15.39
-17.78
-20.60
-23.81
-27.23
-30.65
-33.85
-36.49
-38.18
-38.52
-37.20
-34.13
-29.53
-23.86
-17.66
-11.43
-5.43
0.25
5.63
10.70
15.38
19.43
22.63
24.81
25.97
26.30
26.07
25.59
25.10
24.67
24.22
23.59
22.59
21.14
19.27
17.09
14.74
12.30
9.81
7.28
4.72
2.11
-0.56
-3.33
-6.22
-9.31
-12.59
-16.09
-19.82
-23.80
-27.97
-32.14
-35.90
-38.70
-40.01
-39.53
-37.31
-33.69
-29.17
-24.18
-18.94
-13.55
-8.02
-2.52
2.64
7.08
10.50
12.80
14.18
14.95
15.49
16.08
16.82
17.68
18.54
19.30
19.93
20.45
20.90
21.23
21.34
21.06
20.25
18.90
17.15
15.27
13.62
12.43
11.70
11.20
10.48
9.11
6.79
3.45
-0.67
-5.15
-9.42
-12.95
-15.27
-16.15
-15.53
-13.57
-10.59
-6.96
-2.97
1.19
5.47
9.91
14.43
18.83
22.74
25.77
27.68
28.46
28.36
27.78
27.07
26.32
25.40
24.04
22.04
19.40
16.29
12.99
9.65
6.33
3.06
-0.02
-2.58
-4.17
-4.47
-3.49
-1.61
0.47
2.03
2.47
1.47
-1.06
-5.02
-10.10
-15.82
-21.44
-26.14
-29.16
-30.14
-29.20
-26.92
-24.09
-21.40
-19.20
-17.47
-15.98
-14.46
-12.83
-11.20
-9.84
-8.91
-8.42
-8.16
-7.80
-7.08
-5.83
-4.16
-2.31
-0.59
0.77
1.73
2.45
3.20
4.17
5.37
6.54
7.32
7.41
6.77
5.61
4.30
3.16
2.27
1.58
0.92
0.19
-0.58
-1.40
-2.35
-3.60
-5.32
-7.54
-9.96
-12.08
-13.37
-13.48
-12.38
-10.26
-7.41
-4.07
-0.37
3.61
7.72
11.73
15.33
18.18
20.02
20.76
20.49
19.55
18.32
17.20
16.38
15.81
15.28
14.55
13.51
12.22
10.85
9.55
8.32
7.06
5.63
3.99
2.27
0.66
-0.69
-1.77
-2.77
-4.00
-5.74
-8.17
-11.29
-14.93
-18.74
-22.28
-25.06
-26.65
-26.77
-25.36
-22.64
-18.99
-14.84
-10.56
-6.36
-2.24
1.88
6.11
10.42
14.68
18.66
22.11
24.83
26.74
27.83
28.16
27.90
27.21
26.33
25.44
24.73
24.28
24.11
24.15
24.25
24.20
23.73
22.59
20.57
17.62
13.87
9.56
4.97
0.25
-4.53
-9.45
-14.58
-19.93
-25.36
-30.54
-35.03
-38.26
-39.80
-39.36
-37.02
-33.10
-28.17
-22.75
-17.19
-11.53
-5.61
0.74
7.51
14.39
20.87
26.41
30.60
33.27
34.47
34.48
33.65
32.43
31.25
30.54
30.56
31.30
32.44
33.37
33.33
31.63
27.86
22.02
14.53
6.14
-2.25
-9.82
-16.05
-20.79
-24.30
-27.09
-29.77
-32.88
-36.74
-41.39
-46.52
-51.53
-55.68
-58.25
-58.80
-57.32
-54.30
-50.53
-46.76
-43.44
-40.57
-37.81
-34.78
-31.26
-27.42
-23.62
-20.27
-17.52
-15.18
-12.85
-10.11
-6.78
-2.99
0.85
4.22
6.73
8.21
8.77
8.69
8.28
7.81
7.42
7.13
6.91
6.68
6.33
5.78
4.98
3.89
2.49
0.77
-1.29
-3.65
-6.20
-8.78
-11.11
-12.91
-13.92
-13.93
-12.80
-10.49
-7.04
-2.59
2.64
8.36
14.29
20.21
25.91
31.17
35.72
39.21
41.32
41.95
41.34
40.02
38.68
37.84
37.66
37.88
38.03
37.62
36.44
34.64
32.52
30.46
28.68
27.21
25.98
24.91
24.02
23.37
23.03
22.98
23.04
22.84
21.89
19.71
16.02
10.85
4.61
-2.03
-8.28
-13.42
-16.95
-18.68
-18.75
-17.53
-15.57
-13.34
-11.16
-9.11
-7.14
-5.16
-3.25
-1.63
-0.57
-0.23
-0.53
-1.18
-1.89
-2.51
-3.14
-4.02
-5.41
-7.45
-10.09
-13.09
-16.14
-18.98
-21.40
-23.40
-25.10
-26.71
-28.39
-30.15
-31.86
-33.30
-34.29
-34.78
-34.89
-34.83
-34.86
-35.17
-35.84
-36.81
-37.87
-38.69
-38.85
-37.98
-35.90
-32.61
-28.26
-23.08
-17.33
-11.24
-5.14
0.58
5.52
9.38
12.11
13.85
14.95
15.76
16.55
17.48
18.63
20.05
21.77
23.72
25.75
27.63
29.07
29.75
29.39
27.85
25.23
21.95
18.70
16.27
15.24
15.73
17.26
18.91
19.61
18.51
15.17
9.62
2.23
-6.40
-15.59
-24.64
-32.77
-39.28
-43.71
-45.87
-46.00
-44.62
-42.35
-39.64
-36.59
-32.93
-28.22
-22.26
-15.34
-8.39
-2.67
0.65
0.96
-1.56
-6.12
-11.66
-17.32
-22.64
-27.50
-31.91
-35.79
-38.94
-41.14
-42.27
-42.46
-41.92
-40.90
-39.55
-37.86
-35.76
-33.22
-30.28
-27.10
-23.87
-20.87
-18.32
-16.42
-15.29
-14.91
-15.11
-15.54
-15.69
-14.97
-12.95
-9.48
-4.83
0.33
5.15
8.81
10.80
11.12
10.19
8.73
7.48
7.04
7.71
9.51
12.27
15.67
19.41
23.21
26.89
30.29
33.35
36.05
38.49
40.79
43.02
45.08
46.60
46.99
45.57
41.98
36.30
29.21
21.89
15.54
11.13
9.07
9.16
10.81
13.27
15.89
18.25
20.28
22.19
24.45
27.62
32.10
38.00
45.00
52.43
59.48
65.47
70.02
73.05
74.69
75.10
74.33
72.36
69.13
64.75
59.47
53.71
47.91
42.43
37.45
32.94
28.71
24.57
20.36
16.00
11.44
6.63
1.51
-3.94
-9.59
-15.19
-20.33
-24.65
-27.94
-30.23
-31.74
-32.86
-33.96
-35.33
-37.13
-39.41
-42.11
-45.08
-48.11
-50.89
-53.05
-54.25
-54.24
-52.93
-50.38
-46.73
-42.12
-36.62
-30.28
-23.21
-15.72
-8.36
-1.78
3.46
7.19
9.65
11.41
13.07
15.00
17.23
19.48
21.38
22.66
23.25
23.19
22.61
21.62
20.29
18.70
16.97
15.24
13.57
11.85
9.84
7.23
3.71
-0.83
-6.27
-12.30
-18.44
-24.23
-29.32
-33.57
-37.03
-39.88
-42.23
-44.11
-45.33
-45.58
-44.54
-41.98
-37.93
-32.69
-26.71
-20.54
-14.68
-9.46
-5.09
-1.65
0.88
2.58
3.62
4.26
4.85
5.79
7.40
9.79
12.76
15.82
18.34
19.79
20.05
19.46
18.75
18.65
19.64
21.66
24.25
26.70
28.39
28.96
28.34
26.63
23.91
20.22
15.56
10.03
3.91
-2.37
-8.28
-13.37
-17.32
-19.95
-21.19
-21.03
-19.47
-16.59
-12.60
-7.90
-2.94
1.78
5.89
9.10
11.22
12.07
11.49
9.47
6.33
2.75
-0.34
-2.06
-1.91
-0.06
2.75
5.35
6.66
6.07
3.56
-0.30
-4.66
-8.74
-12.07
-14.55
-16.29
-17.48
-18.16
-18.28
-17.76
-16.64
-15.19
-13.86
-13.15
-13.43
-14.77
-17.04
-19.86
-22.78
-25.32
-27.05
-27.64
-26.89
-24.83
-21.61
-17.55
-13.00
-8.24
-3.43
1.41
6.36
11.46
16.64
21.70
26.26
29.95
32.53
33.94
34.27
33.73
32.56
30.95
29.15
27.51
26.45
26.31
27.19
28.86
30.78
32.30
32.91
32.32
30.49
27.56
23.69
19.08
13.99
8.72
3.57
-1.27
-5.88
-10.54
-15.70
-21.67
-28.49
-35.81
-42.97
-49.19
-53.78
-56.30
-56.68
-55.14
-52.06
-47.92
-43.06
-37.73
-32.08
-26.23
-20.39
-14.87
-9.97
-5.92
-2.72
-0.15
2.14
4.41
6.78
9.13
11.23
12.84
13.82
14.12
13.78
12.86
11.38
9.38
6.87
3.98
0.88
-2.14
-4.75
-6.64
-7.64
-7.80
-7.37
-6.72
-6.22
-6.06
-6.30
-6.85
-7.62
-8.57
-9.59
-10.49
-10.98
-10.71
-9.49
-7.35
-4.51
-1.27
2.12
5.59
9.13
12.69
16.08
18.98
21.07
22.24
22.64
22.66
22.71
23.02
23.61
24.25
24.63
24.56
24.01
23.06
21.88
20.48
18.82
16.82
14.44
11.81
9.15
6.71
4.60
2.73
0.75
-1.77
-5.26
-9.89
-15.62
-22.12
-28.95
-35.61
-41.59
-46.41
-49.64
-50.98
-50.29
-47.79
-43.97
-39.57
-35.28
-31.53
-28.36
-25.43
-22.34
-18.82
-15.03
-11.46
-8.81
-7.59
-7.91
-9.42
-11.46
-13.43
-14.93
-15.97
-16.78
-17.67
-18.81
-20.22
-21.88
-23.69
-25.54
-27.18
-28.15
-27.89
-25.86
-21.89
-16.25
-9.65
-2.97
3.04
7.98
11.84
14.84
17.36
19.76
22.50
26.13
31.22
38.11
46.70
56.31
65.88
74.34
81.02
85.82
89.11
91.36
92.75
93.10
92.05
89.42
85.43
80.66
75.77
71.15
66.76
62.27
57.34
51.91
46.24
40.74
35.75
31.33
27.26
23.24
19.09
14.82
10.66
6.92
3.83
1.49
-0.21
-1.53
-2.87
-4.63
-7.20
-10.78
-15.38
-20.79
-26.66
-32.59
-38.20
-43.16
-47.17
-49.99
-51.48
-51.66
-50.72
-49.00
-46.83
-44.44
-41.85
-38.97
-35.72
-32.14
-28.52
-25.23
-22.62
-20.84
-19.78
-19.14
-18.63
-18.03
-17.34
-16.67
-16.16
-15.88
-15.87
-16.17
-16.93
-18.40
-20.80
-24.14
-28.20
-32.61
-36.97
-41.12
-45.14
-49.29
-53.78
-58.59
-63.50
-68.17
-72.34
-75.89
-78.85
-81.17
-82.73
-83.24
-82.41
-80.05
-76.20
-71.04
-64.82
-57.68
-49.63
-40.61
-30.60
-19.63
-7.72
5.28
19.57
35.31
52.31
69.77
86.37
100.61
111.32
118.12
121.47
122.36
121.80
120.45
118.44
115.65
111.99
107.58
102.70
97.66
92.52
87.06
80.95
73.90
65.94
57.39
48.75
40.41
32.59
25.24
18.24
11.59
5.54
0.50
-3.08
-4.94
-5.10
-3.72
-1.03
2.82
7.75
13.69
20.38
27.38
34.06
39.82
44.23
47.12
48.51
48.57
47.44
45.25
42.08
38.05
33.41
28.49
23.67
19.25
15.37
11.98
8.91
5.98
3.07
0.17
-2.63
-5.16
-7.35
-9.22
-10.97
-12.87
-15.25
-18.32
-22.06
-26.22
-30.31
-33.74
-35.95
-36.59
-35.61
-33.20
-29.73
-25.57
-21.02
-16.26
-11.44
-6.69
-2.21
1.72
4.87
7.12
8.56
9.41
10.00
10.64
11.57
12.89
14.56
16.36
17.96
19.05
19.52
19.58
19.69
20.37
21.97
24.39
27.18
29.71
31.50
32.44
32.71
32.53
31.95
30.64
28.01
23.40
16.34
6.69
-5.35
-19.26
-34.39
-50.08
-65.79
-81.16
-96.01
-110.22
-123.52
-135.39
-144.90
-150.83
-151.86
-146.87
-135.31
-117.50
-94.83
-69.73
-45.28
-24.59
-10.01
-2.50
-1.40
-4.73
-9.94
-14.78
-17.95
-19.33
-19.74
-20.38
-22.32
-26.10
-31.71
-38.66
-46.22
-53.58
-59.90
-64.29
-65.85
-63.83
-58.05
-49.09
-38.42
-27.99
-19.55
-13.97
-10.90
-9.04
-6.79
-3.05
2.34
8.73
15.13
20.78
25.43
29.30
32.71
35.84
38.55
40.58
41.78
42.25
42.36
42.56
43.19
44.32
45.71
46.94
47.56
47.31
46.13
44.20
41.74
38.96
35.90
32.53
28.82
24.81
20.63
16.47
12.44
8.49
4.45
0.17
-4.32
-8.72
-12.48
-15.05
-16.05
-15.47
-13.57
-10.82
-7.65
-4.37
-1.19
1.72
4.14
5.87
6.77
6.93
6.66
6.40
6.53
7.15
8.03
8.68
8.63
7.67
5.95
3.87
1.87
0.26
-1.03
-2.29
-3.95
-6.38
-9.76
-14.02
-18.89
-24.03
-29.13
-34.03
-38.80
-43.73
-49.31
-56.06
-64.21
-73.44
-82.57
-89.59
-92.13
-88.12
-76.59
-58.20
-35.13
-10.45
12.80
32.47
47.67
58.73
66.67
72.67
77.66
82.15
86.23
89.72
92.34
93.82
94.07
93.33
92.18
91.50
92.16
94.66
98.76
103.38
106.89
107.53
104.19
96.76
86.14
73.87
61.37
49.42
37.81
25.60
11.66
-4.56
-22.42
-39.92
-54.10
-61.92
-61.24
-51.35
-33.02
-7.91
22.06
55.05
89.46
123.79
156.80
187.76
216.59
243.73
269.35
292.64
311.32
322.17
322.25
310.18
286.82
254.82
217.79
178.91
140.32
103.05
67.06
31.41
-5.70
-46.34
-91.79
-141.22
-190.84
-234.51
-265.76
-280.33
-278.14
-263.50
-243.57
-225.92
-216.06
-216.25
-225.57
-240.96
-258.30
-273.29
-282.23
-282.85
-275.43
-263.51
-253.66
-253.62
-269.54
-303.40
-351.42
-405.09
-453.88
-488.74
-504.67
-501.42
-482.08
-451.00
-411.91
-367.43
-319.56
-270.34
-222.12
-177.00
-135.99
-98.45
-62.21
-24.64
16.11
60.10
105.32
148.11
184.08
209.30
221.43
220.42
208.67
190.40
170.34
152.33
138.39
128.71
122.54
119.18
118.49
120.46
124.35
128.18
128.93
123.82
111.63
93.51
72.48
52.30
35.92
24.75
18.71
17.01
18.81
23.61
30.93
39.95
49.28
57.14
61.97
62.98
60.49
55.81
50.67
46.58
44.34
43.91
44.68
45.80
46.64
46.95
46.90
46.90
47.37
48.45
49.90
51.30
52.39
53.22
54.22
55.79
57.99
60.33
62.04
62.57
62.08
61.39
61.50
62.76
64.40
64.74
62.00
55.24
45.05
33.32
22.41
14.13
8.93
5.73
2.40
-3.43
-13.47
-28.25
-46.94
-67.57
-87.64
-104.80
-117.45
-125.04
-127.89
-126.78
-122.48
-115.39
-105.59
-92.99
-77.66
-60.01
-40.90
-21.55
-3.48
11.57
21.84
25.92
23.17
14.20
1.06
-13.19
-25.34
-33.00
-35.31
-32.88
-27.24
-19.95
-11.99
-3.74
4.63
12.61
19.22
23.41
24.70
23.74
22.17
21.94
24.36
29.55
36.50
43.87
50.87
57.75
65.49
74.96
86.13
97.81
108.05
115.04
117.80
116.37
111.58
104.58
96.49
88.33
81.07
75.54
72.22
71.16
72.05
74.51
78.30
83.35
89.55
96.54
103.70
110.38
116.17
121.06
125.24
128.96
132.26
135.06
137.21
138.56
138.92
137.88
134.82
129.09
120.29
108.61
94.73
79.68
64.50
50.05
37.00
25.94
17.37
11.62
8.61
7.81
8.30
9.09
9.49
9.30
8.92
9.12
10.82
14.70
21.01
29.49
39.32
49.29
58.03
64.27
67.12
66.20
61.68
54.18
44.63
34.05
23.46
13.62
4.98
-2.37
-8.65
-14.19
-19.30
-24.21
-29.17
-34.47
-40.51
-47.58
-55.67
-64.38
-72.95
-80.49
-86.27
-89.98
-91.75
-92.08
-91.61
-90.83
-89.88
-88.42
-85.73
-80.88
-73.09
-62.15
-48.63
-33.79
-19.10
-5.61
6.47
17.80
29.43
41.95
54.97
67.09
76.46
81.77
83.00
81.54
79.54
79.06
81.04
85.14
90.01
94.11
96.34
96.42
94.78
92.12
89.07
85.97
82.85
79.59
76.04
72.14
67.78
62.82
56.83
49.28
39.68
27.99
14.70
0.79
-12.58
-24.60
-35.00
-43.90
-51.22
-56.21
-57.30
-52.84
-42.16
-26.46
-8.66
7.58
19.45
25.99
28.08
27.41
25.15
21.18
14.50
4.32
-8.68
-22.16
-33.01
-38.94
-39.90
-38.64
-39.98
-49.30
-70.59
-104.56
-147.63
-192.31
-228.82
-247.81
-243.10
-213.50
-163.04
-99.41
-31.70
31.85
85.14
124.66
149.04
158.64
155.29
142.10
122.99
101.89
81.89
64.53
49.71
36.14
22.06
6.00
-12.81
-34.41
-58.45
-84.54
-112.19
-140.49
-167.86
-192.18
-211.35
-224.27
-231.28
-234.00
-234.38
-233.65
-231.78
-227.60
-219.69
-207.21
-190.41
-170.40
-148.56
-125.97
-103.21
-80.53
-58.15
-36.54
-16.37
1.74
17.24
30.05
40.54
49.38
57.26
64.64
71.60
77.97
83.51
88.20
92.24
95.86
99.07
101.50
102.40
100.97
96.65
89.26
79.16
67.09
54.04
41.06
29.12
19.00
11.11
5.41
1.25
-2.41
-6.71
-12.47
-19.90
-28.55
-37.60
-46.17
-53.72
-60.10
-65.45
-69.93
-73.53
-76.02
-77.01
-76.14
-73.25
-68.40
-61.87
-54.06
-45.43
-36.46
-27.67
-19.58
-12.65
-7.24
-3.51
-1.38
-0.57
-0.70
-1.36
-2.28
-3.27
-4.26
-5.25
-6.21
-7.19
-8.12
-8.89
-9.26
-8.90
-7.60
-5.45
-2.96
-0.93
-0.26
-1.57
-5.01
-10.21
-16.44
-22.89
-28.93
-34.18
-38.53
-42.04
-44.90
-47.36
-49.62
-51.79
-53.77
-55.26
-55.76
-54.83
-52.18
-47.76
-41.85
-34.93
-27.60
-20.52
-14.30
-9.47
-6.41
-5.27
-5.93
-8.02
-10.96
-14.04
-16.57
-17.96
-17.84
-16.08
-12.84
-8.55
-3.77
0.90
5.02
8.39
11.06
13.14
14.72
15.68
15.71
14.44
11.62
7.28
1.73
-4.61
-11.22
-17.71
-23.71
-28.82
-32.56
-34.53
-34.43
-32.35
-28.70
-24.19
-19.52
-15.16
-11.24
-7.60
-4.04
-0.50
2.81
5.49
7.11
7.42
6.47
4.60
2.41
0.52
-0.60
-0.75
-0.04
1.20
2.57
3.76
4.66
5.31
5.84
6.32
6.72
6.94
6.86
6.48
5.84
5.06
4.18
3.22
2.12
0.86
-0.48
-1.66
-2.38
-2.28
-1.12
1.14
4.34
8.18
12.34
16.59
20.90
25.33
29.93
34.56
38.72
41.75
42.95
41.94
38.83
34.26
29.10
24.21
20.09
16.78
14.09
11.69
9.44
7.35
5.47
3.79
2.12
0.27
-1.92
-4.40
-6.99
-9.47
-11.69
-13.67
-15.47
-17.19
-18.80
-20.21
-21.25
-21.78
-21.61
-20.56
-18.49
-15.38
-11.40
-6.89
-2.28
2.13
6.17
9.82
13.10
15.94
18.23
19.79
20.61
20.86
20.91
21.17
21.90
23.10
24.47
25.51
25.68
24.63
22.22
18.57
14.03
9.00
3.95
-0.77
-4.87
-8.21
-10.77
-12.74
-14.42
-16.23
-18.54
-21.61
-25.59
-30.37
-35.60
-40.74
-45.08
-47.89
-48.61
-47.01
-43.25
-37.86
-31.50
-24.79
-18.17
-11.88
-6.07
-0.92
3.33
6.50
8.57
9.77
10.51
11.16
11.93
12.68
13.14
12.97
12.00
10.34
8.23
5.93
3.64
1.49
-0.43
-2.02
-3.20
-4.03
-4.83
-6.13
-8.48
-12.24
-17.44
-23.81
-30.91
-38.24
-45.34
-51.78
-57.19
-61.18
-63.52
-64.15
-63.20
-60.95
-57.64
-53.46
-48.62
-43.38
-38.02
-32.84
-27.97
-23.29
-18.51
-13.34
-7.64
-1.50
4.78
10.92
16.68
21.97
26.66
30.52
33.18
34.24
33.54
31.29
27.99
24.36
21.06
18.47
16.57
15.00
13.19
10.50
6.44
0.81
-6.17
-13.90
-21.48
-27.92
-32.47
-34.76
-34.89
-33.32
-30.63
-27.15
-22.84
-17.36
-10.22
-1.09
9.93
22.19
34.40
44.84
51.73
53.81
50.80
43.69
34.43
25.38
18.50
14.75
13.94
15.12
17.19
19.40
21.57
23.84
26.31
28.82
30.91
32.15
32.27
31.35
29.65
27.49
24.95
21.93
18.24
13.98
9.63
6.05
4.21
4.73
7.63
12.27
17.59
22.54
26.52
29.42
31.61
33.60
35.71
37.90
39.83
41.09
41.43
40.92
39.85
38.53
37.15
35.71
34.10
32.30
30.40
28.60
27.01
25.53
23.81
21.41
18.05
13.82
9.15
4.61
0.63
-2.69
-5.60
-8.59
-12.11
-16.42
-21.40
-26.63
-31.41
-35.02
-36.84
-36.54
-34.17
-30.13
-25.00
-19.32
-13.44
-7.47
-1.38
4.76
10.71
16.04
20.31
23.27
25.01
25.92
26.49
27.07
27.79
28.52
29.04
29.25
29.22
29.10
28.99
28.78
28.15
26.79
24.56
21.65
18.44
15.37
12.65
10.15
7.51
4.27
0.11
-5.09
-11.21
-17.95
-24.91
-31.54
-37.21
-41.34
-43.57
-43.80
-42.39
-39.84
-36.62
-32.89
-28.36
-22.30
-13.99
-3.15
9.59
22.56
33.47
40.23
41.79
38.73
33.12
27.72
24.90
25.79
30.10
36.47
43.29
49.31
53.89
56.89
58.49
59.20
59.91
61.82
66.03
72.71
80.54
86.83
88.23
82.22
68.30
48.49
26.67
7.29
-6.21
-12.34
-11.67
-6.38
0.70
6.77
9.66
7.95
1.06
-10.89
-27.25
-47.04
-69.19
-92.50
-115.61
-136.79
-153.99
-165.11
-168.60
-164.04
-152.48
-136.16
-117.65
-98.90
-80.57
-62.20
-43.03
-23.19
-4.16
11.46
21.08
23.40
19.08
10.48
0.53
-8.36
-15.13
-19.84
-23.12
-25.45
-27.00
-27.73
-27.89
-28.12
-29.32
-32.23
-36.99
-43.08
-49.44
-54.86
-58.33
-59.22
-57.25
-52.42
-44.86
-34.91
-23.17
-10.49
2.11
13.81
24.26
33.79
43.19
53.33
64.60
76.66
88.52
98.88
106.55
110.75
111.12
107.74
101.04
91.79
81.08
70.16
60.24
52.13
46.22
42.41
40.33
39.51
39.43
39.57
39.20
37.41
33.27
26.24
16.59
5.60
-4.81
-12.70
-17.02
-18.20
-18.16
-19.60
-24.75
-34.09
-45.91
-56.72
-62.73
-61.50
-52.94
-39.21
-23.73
-9.65
1.23
8.69
13.69
17.38
20.61
23.70
26.69
29.48
32.06
34.34
36.27
37.78
38.83
39.31
38.84
36.78
32.39
25.43
16.43
6.97
-0.67
-4.29
-2.62
4.24
14.67
26.08
35.52
40.53
39.91
34.19
25.63
17.61
13.57
15.91
25.17
40.10
58.28
77.11
94.54
109.33
120.85
128.71
132.57
132.27
128.00
120.50
110.80
99.81
88.02
75.44
61.82
47.11
31.74
16.76
3.56
-6.58
-12.88
-15.24
-14.15
-10.43
-4.97
1.35
7.58
12.65
15.48
15.28
11.86
5.85
-1.64
-9.36
-16.45
-22.47
-27.23
-30.47
-31.71
-30.47
-26.64
-20.81
-14.24
-8.47
-4.72
-3.40
-4.05
-5.70
-7.49
-9.28
-11.90
-16.89
-25.78
-39.28
-56.61
-75.75
-94.03
-109.26
-120.41
-127.77
-132.29
-134.85
-135.68
-134.42
-130.66
-124.47
-116.63
-108.33
-100.64
-93.97
-88.08
-82.43
-76.58
-70.62
-65.02
-60.38
-57.04
-54.86
-53.19
-51.15
-48.01
-43.59
-38.33
-33.06
-28.52
-24.99
-22.21
-19.58
-16.52
-12.90
-9.00
-5.39
-2.57
-0.74
0.28
0.87
1.48
2.42
3.85
5.78
8.10
10.64
13.22
15.69
18.06
20.50
23.24
26.51
30.35
34.60
38.92
42.84
45.99
48.14
49.25
49.43
48.82
47.46
45.27
42.03
37.65
32.14
25.72
18.63
11.15
3.53
-3.99
-11.00
-16.87
-20.92
-22.51
-21.15
-16.66
-9.16
0.76
12.09
23.55
33.89
42.25
48.38
52.58
55.37
57.18
58.15
58.27
57.69
56.86
56.33
56.39
56.69
56.33
54.27
49.82
43.11
35.02
26.78
19.48
13.79
9.72
6.80
4.25
1.33
-2.49
-7.24
-12.51
-17.58
-21.76
-24.70
-26.49
-27.59
-28.51
-29.58
-30.74
-31.61
-31.56
-29.98
-26.49
-21.11
-14.43
-7.57
-1.99
0.91
0.22
-4.04
-10.91
-18.84
-26.40
-32.94
-38.90
-45.44
-53.88
-64.71
-77.03
-88.49
-95.62
-94.32
-80.77
-52.73
-10.92
40.06
92.22
136.29
164.86
175.07
169.50
154.51
137.13
122.05
110.30
100.16
89.33
76.81
63.41
50.87
40.55
32.62
26.33
20.92
16.40
13.71
14.12
18.57
26.84
37.58
48.63
57.82
63.63
65.63
64.45
61.46
58.17
55.73
54.62
54.70
55.42
56.11
56.35
56.04
55.54
55.46
56.50
59.22
63.91
70.65
79.28
89.70
101.87
115.75
131.14
147.44
163.55
178.15
190.16
199.14
205.55
210.34
214.48
218.48
222.31
225.62
228.02
229.20
228.60
225.09
216.84
201.60
177.59
144.17
102.32
54.38
3.41
-47.80
-97.20
-143.87
-187.92
-230.18
-272.09
-315.64
-363.25
-417.26
-478.56
-545.05
-610.83
-666.94
-703.82
-714.81
-698.63
-659.91
-607.12
-549.11
-492.09
-438.42
-387.47
-337.54
-287.74
-238.54
-191.32
-147.22
-106.42
-68.02
-30.80
5.82
41.17
73.26
99.64
118.52
129.53
133.73
132.86
128.43
121.28
111.74
100.34
88.37
77.81
70.64
68.12
70.37
76.56
85.39
95.38
104.97
112.60
116.94
117.39
114.37
109.13
103.06
96.95
90.69
83.50
74.75
64.43
53.33
42.45
32.50
23.39
14.44
4.84
-5.79
-17.18
-28.53
-38.88
-47.31
-53.03
-55.16
-52.76
-45.09
-32.03
-14.46
5.66
25.79
43.50
57.32
67.13
74.05
79.77
85.74
92.64
100.23
107.60
113.72
117.73
119.25
118.27
115.16
110.44
104.70
98.54
92.44
86.71
81.41
76.29
70.88
64.66
57.23
48.52
38.89
28.99
19.76
12.14
6.84
4.11
3.69
4.85
6.70
8.51
9.85
10.71
11.32
11.89
12.50
12.98
13.11
12.72
11.88
10.75
9.50
8.14
6.55
4.56
2.19
-0.34
-2.66
-4.38
-5.31
-5.53
-5.29
-4.94
-4.67
-4.51
-4.33
-4.05
-3.76
-3.82
-4.87
-7.51
-12.04
-18.19
-24.98
-31.09
-35.26
-36.88
-36.23
-34.30
-32.21
-30.52
-28.84
-25.86
-19.90
-9.65
5.19
23.68
43.93
63.55
80.44
93.31
101.94
107.18
110.51
113.55
117.40
122.12
126.43
127.87
123.69
111.95
92.56
67.72
41.31
17.55
-0.49
-11.92
-17.94
-20.86
-22.92
-25.49
-29.07
-33.99
-41.00
-51.30
-65.94
-84.87
-106.55
-128.15
-146.52
-159.38
-165.95
-167.09
-164.77
-161.20
-158.33
-157.56
-159.70
-164.93
-172.77
-181.96
-190.71
-197.27
-200.65
-201.22
-200.67
-201.30
-205.01
-212.45
-222.77
-234.05
-244.05
-250.83
-253.00
-249.42
-239.09
-221.14
-195.24
-161.97
-122.89
-80.10
-35.44
10.08
56.29
103.25
150.23
195.29
235.41
267.47
289.41
301.02
303.88
300.58
293.68
284.97
275.27
264.84
253.95
243.12
233.01
224.04
216.04
208.25
199.72
189.78
178.41
166.34
154.59
144.15
135.46
128.33
122.11
115.90
108.96
100.78
91.21
80.33
68.42
55.89
43.29
31.26
20.54
11.78
5.35
1.20
-1.24
-2.78
-4.30
-6.37
-9.08
-12.08
-14.78
-16.58
-17.12
-16.35
-14.44
-11.68
-8.37
-4.77
-1.05
2.56
5.91
8.75
10.88
12.15
12.55
12.22
11.44
10.51
9.70
9.17
8.98
9.12
9.52
10.11
10.86
11.77
12.88
14.28
16.01
18.06
20.44
23.12
26.18
29.73
33.89
38.68
43.94
49.36
54.58
59.33
63.50
67.15
70.56
74.23
79.00
85.85
95.60
108.47
123.67
139.35
153.03
162.28
165.51
162.30
153.43
140.37
124.69
107.68
90.23
72.94
56.31
40.80
26.83
14.66
4.29
-4.50
-12.11
-18.89
-25.10
-30.82
-36.06
-40.88
-45.44
-50.00
-54.81
-60.04
-65.62
-71.29
-76.68
-81.47
-85.47
-88.62
-90.98
-92.60
-93.46
-93.41
-92.22
-89.74
-85.92
-80.91
-75.09
-68.95
-63.04
-57.93
-54.08
-51.86
-51.46
-52.79
-55.44
-58.71
-61.87
-64.27
-65.65
-66.13
-66.13
-66.10
-66.27
-66.56
-66.65
-66.16
-64.92
-63.07
-60.94
-58.93
-57.33
-56.22
-55.55
-55.21
-55.15
-55.34
-55.83
-56.62
-57.67
-58.88
-60.07
-60.99
-61.34
-60.84
-59.29
-56.68
-53.19
-49.18
-44.99
-40.80
-36.61
-32.23
-27.49
-22.32
-16.89
-11.49
-6.51
-2.24
1.03
3.07
3.69
2.84
0.70
-2.34
-5.82
-9.43
-13.11
-17.04
-21.42
-26.25
-31.26
-36.00
-40.07
-43.23
-45.39
-46.55
-46.70
-45.95
-44.72
-43.80
-44.07
-46.08
-49.60
-53.48
-56.02
-55.47
-50.74
-41.69
-29.17
-14.57
0.56
14.92
27.62
38.10
46.02
51.04
52.83
51.13
45.99
37.92
27.94
17.31
7.23
-1.50
-8.50
-13.72
-17.18
-18.77
-18.32
-15.76
-11.27
-5.38
1.15
7.52
13.07
17.34
20.07
21.13
20.55
18.48
15.19
11.01
6.23
1.08
-4.23
-9.47
-14.32
-18.46
-21.71
-24.16
-26.27
-28.75
-32.30
-37.18
-43.14
-49.34
-54.71
-58.26
-59.45
-58.37
-55.58
-51.93
-48.25
-45.09
-42.65
-40.77
-39.08
-37.14
-34.63
-31.38
-27.36
-22.60
-17.11
-10.90
-4.03
3.28
10.63
17.45
23.26
27.80
31.21
33.94
36.57
39.50
42.69
45.78
48.16
49.43
49.49
48.59
47.06
44.98
42.15
38.16
32.76
26.12
18.86
11.85
5.86
1.32
-1.74
-3.55
-4.39
-4.46
-3.97
-3.11
-2.14
-1.27
-0.58
-0.01
0.54
0.96
0.96
0.18
-1.55
-4.01
-6.61
-8.67
-9.73
-9.73
-8.95
-7.79
-6.69
-5.97
-5.79
-6.09
-6.58
-6.72
-5.86
-3.54
0.27
5.15
10.42
15.52
20.22
24.66
29.20
34.17
39.72
45.94
52.80
60.20
68.00
75.97
83.88
91.70
99.46
107.16
114.47
120.58
124.41
124.99
122.02
115.98
107.95
99.06
90.07
81.33
73.02
65.53
59.66
56.35
56.06
58.51
62.51
66.51
69.10
69.38
66.80
60.76
50.56
35.75
16.55
-6.02
-30.41
-55.15
-79.29
-102.28
-123.58
-142.17
-156.67
-165.91
-169.74
-169.34
-167.03
-165.35
-166.11
-169.94
-176.39
-184.53
-193.39
-202.25
-210.63
-218.07
-224.27
-228.88
-231.69
-232.65
-231.87
-229.49
-225.56
-219.96
-212.37
-202.44
-189.99
-175.20
-158.73
-141.55
-124.71
-109.11
-95.25
-83.22
-72.78
-63.55
-55.22
-47.70
-40.99
-35.20
-30.37
-26.41
-23.19
-20.49
-17.94
-14.88
-10.59
-4.66
2.59
9.93
15.55
17.85
16.18
11.16
4.31
-2.88
-9.60
-15.89
-22.04
-27.77
-31.90
-32.70
-28.86
-20.40
-8.93
3.05
13.11
20.00
23.86
25.77
27.03
28.50
30.46
32.78
35.14
37.10
38.13
37.60
35.03
30.40
24.36
18.10
12.88
9.52
8.08
8.03
8.64
9.38
10.12
10.93
11.88
12.78
13.23
12.76
11.01
7.78
3.26
-2.02
-7.24
-11.31
-13.21
-12.06
-7.25
1.61
14.53
30.92
49.38
67.74
83.66
95.33
102.27
105.40
106.56
107.62
109.61
112.50
115.46
117.62
118.51
118.17
116.87
114.63
111.12
105.82
98.53
89.54
79.72
70.07
61.34
53.47
45.59
36.44
24.89
10.57
-6.02
-23.56
-40.46
-55.26
-67.02
-75.28
-80.01
-81.49
-80.05
-76.05
-69.75
-61.23
-50.54
-38.05
-24.73
-12.23
-2.67
2.05
0.92
-5.83
-16.69
-29.18
-40.29
-47.13
-47.62
-41.14
-28.79
-13.12
2.73
16.20
26.18
33.13
38.44
43.46
48.72
53.90
58.30
61.42
63.28
64.10
63.95
62.45
59.00
53.26
45.53
36.83
28.55
22.10
18.33
17.38
18.78
21.68
25.20
28.63
31.65
34.22
36.49
38.59
40.51
42.09
43.10
43.43
43.14
42.46
41.66
40.93
40.26
39.49
38.34
36.58
34.04
30.65
26.39
21.33
15.60
9.37
2.81
-3.92
-10.73
-17.53
-24.24
-30.72
-36.77
-42.09
-46.42
-49.55
-51.45
-52.19
-52.00
-51.10
-49.58
-47.36
-44.18
-39.68
-33.54
-25.59
-15.80
-4.37
8.25
21.26
33.51
43.76
50.92
54.47
54.63
52.18
48.16
43.40
38.32
32.98
27.42
21.84
16.72
12.57
9.62
7.62
5.95
3.95
1.30
-1.76
-4.71
-7.08
-8.83
-10.49
-12.91
-16.73
-21.96
-27.83
-33.07
-36.41
-37.06
-34.97
-30.70
-25.04
-18.56
-11.32
-2.80
7.81
21.20
37.58
56.50
76.83
97.12
115.96
132.39
146.24
158.13
169.23
180.86
193.95
208.74
224.38
238.97
249.50
252.60
245.22
225.45
193.13
149.54
96.52
35.38
-33.39
-109.10
-189.01
-266.87
-333.24
-378.03
-394.14
-380.23
-341.14
-286.00
-225.13
-167.18
-117.87
-79.93
-53.89
-38.79
-32.64
-32.88
-36.89
-42.31
-47.58
-51.83
-54.50
-54.37
-50.27
-41.62
-29.20
-14.91
-0.77
11.71
21.86
29.55
35.34
39.77
43.14
45.55
47.10
48.93
52.02
56.69
61.74
66.00
68.22
67.60
64.03
58.41
53.95
53.20
56.62
61.32
65.82
69.51
72.65
75.68
79.21
87.66
104.19
129.36
158.64
190.97
225.88
262.38
297.52
328.00
356.90
386.52
415.85
436.45
446.53
447.38
442.29
433.80
424.13
422.13
432.46
452.43
468.06
474.03
470.18
460.04
446.65
387.52
266.41
100.90
-32.81
-125.12
-183.84
-228.01
-264.28
-296.61
-327.27
-349.94
-359.84
-356.79
-350.31
-341.58
-329.23
-311.85
-291.72
-272.78
-253.13
-231.39
-208.59
-192.20
-182.61
-177.55
-173.87
-170.37
-166.69
-159.07
-145.19
-125.79
-107.06
-91.53
-80.07
-72.25
-67.82
-66.07
-64.18
-59.93
-52.94
-46.03
-40.64
-37.53
-36.74
-38.23
-41.63
-45.75
-49.61
-52.88
-56.35
-60.23
-64.44
-68.62
-72.45
-75.56
-77.61
-78.30
-77.58
-75.63
-72.82
-69.51
-65.94
-62.03
-57.52
-52.15
-45.86
-38.95
-31.94
-25.45
-19.99
-15.87
-13.18
-11.90
-11.88
-12.87
-14.50
-16.24
-17.58
-18.08
-17.50
-15.83
-13.23
-10.08
-7.09
-5.32
-6.03
-10.30
-18.46
-29.83
-42.76
-55.20
-65.47
-72.69
-76.86
-78.48
-78.03
-75.63
-71.19
-64.61
-56.22
-46.70
-37.01
-28.05
-20.46
-14.53
-10.14
-6.87
-4.08
-1.19
2.15
5.81
9.25
11.77
12.81
12.18
10.08
6.85
2.80
-1.86
-7.00
-12.44
-17.87
-22.92
-27.28
-30.84
-33.76
-36.36
-39.04
-42.05
-45.34
-48.54
-51.01
-52.11
-51.42
-49.07
-45.62
-41.87
-38.57
-36.05
-34.18
-32.53
-30.66
-28.29
-25.43
-22.26
-19.00
-15.85
-12.92
-10.33
-8.18
-6.62
-5.73
-5.51
-5.82
-6.35
-6.67
-6.32
-4.98
-2.56
0.71
4.36
7.84
10.73
12.89
14.48
15.85
17.38
19.31
21.74
24.56
27.61
30.62
33.40
35.73
37.42
38.30
38.23
37.16
35.10
32.21
28.75
25.08
21.56
18.46
15.96
14.10
12.83
11.99
11.43
10.92
10.22
9.14
7.50
5.26
2.55
-0.40
-3.25
-5.69
-7.66
-9.25
-10.75
-12.41
-14.30
-16.27
-18.00
-19.17
-19.60
-19.31
-18.38
-16.87
-14.71
-11.84
-8.30
-4.37
-0.60
2.38
4.00
3.99
2.39
-0.39
-3.72
-6.86
-9.11
-9.92
-9.02
-6.48
-2.69
1.71
5.98
9.47
11.72
12.57
12.15
10.84
9.20
7.77
6.91
6.63
6.56
6.00
4.18
0.52
-5.10
-12.28
-20.14
-27.57
-33.61
-37.71
-39.84
-40.40
-40.06
-39.42
-38.89
-38.59
-38.40
-38.08
-37.36
-36.15
-34.52
-32.86
-31.70
-31.66
-33.14
-36.13
-40.23
-44.65
-48.55
-51.31
-52.67
-52.72
-51.67
-49.83
-47.47
-45.05
-43.30
-43.09
-45.08
-49.31
-54.85
-59.93
-62.38
-60.20
-52.16
-38.02
-18.54
4.76
29.88
54.57
76.67
94.45
106.98
114.27
117.19
117.10
115.31
112.77
109.99
107.26
104.92
103.47
103.42
104.97
107.83
111.27
114.37
116.41
117.13
116.68
115.38
113.19
109.94
105.43
99.45
91.89
82.76
72.36
61.19
49.92
38.98
28.87
20.17
13.36
8.64
5.81
4.43
3.92
3.68
2.65
0.34
-2.86
-5.93
-7.77
-7.50
-4.59
1.06
9.06
16.84
22.37
25.02
25.10
22.90
18.23
10.85
0.70
-12.01
-30.21
-54.89
-83.85
-113.34
-140.79
-165.70
-188.81
-211.22
-233.78
-262.16
-298.38
-338.73
-376.17
-404.96
-422.53
-428.79
-425.08
-413.40
-402.91
-398.70
-399.01
-398.22
-392.51
-381.72
-367.84
-353.19
-295.26
-182.41
-39.17
94.78
195.77
261.21
298.65
317.09
323.96
324.48
315.15
294.91
268.38
243.05
224.01
212.48
207.22
206.44
208.49
206.81
198.47
186.04
175.03
169.34
169.50
173.47
178.07
180.14
174.13
157.91
134.50
109.79
89.12
75.47
69.67
71.09
78.41
88.54
97.39
103.06
104.93
102.94
97.64
90.61
84.51
81.95
83.72
88.93
95.53
100.72
101.45
95.42
81.44
59.80
31.79
-0.48
-34.46
-67.43
-97.33
-123.49
-146.77
-168.84
-190.84
-213.05
-234.79
-254.93
-272.45
-286.57
-296.64
-301.56
-299.50
-287.70
-264.99
-232.84
-195.27
-157.48
-123.53
-95.67
-74.14
-57.59
-42.52
-26.69
-9.71
7.93
25.60
44.60
66.27
91.00
118.12
148.39
180.55
211.88
240.01
263.61
284.71
305.25
325.37
343.52
359.93
372.29
376.37
368.21
345.33
310.57
268.69
224.80
162.83
82.64
-2.49
-76.24
-122.79
-150.90
-168.55
-179.97
-189.38
-197.12
-199.21
-193.61
-181.31
-165.09
-148.68
-132.83
-118.35
-106.76
-99.09
-93.38
-88.27
-83.67
-80.26
-79.52
-80.68
-83.13
-86.64
-90.89
-94.27
-96.57
-99.18
-103.83
-111.80
-121.57
-130.68
-136.83
-138.46
-134.55
-125.63
-113.28
-99.17
-84.63
-69.82
-54.71
-39.60
-24.89
-10.79
2.47
14.71
25.94
36.47
46.78
57.06
66.76
74.80
79.93
81.41
79.42
75.04
69.79
64.89
60.87
57.48
54.07
50.13
45.53
40.49
35.26
29.87
24.10
17.72
10.66
3.17
-4.33
-11.45
-17.89
-23.53
-28.27
-31.96
-34.39
-35.32
-34.56
-32.03
-27.59
-21.12
-12.60
-2.45
8.22
17.77
24.40
26.93
25.33
20.72
14.94
9.62
5.63
2.77
0.25
-2.78
-6.62
-10.86
-14.49
-16.38
-15.74
-12.41
-6.88
-0.12
6.81
13.10
18.48
23.05
27.03
30.41
32.92
34.29
34.55
34.30
34.49
36.05
39.43
44.43
50.46
56.83
63.13
69.24
75.17
80.88
86.14
90.66
94.16
96.59
98.01
98.54
98.20
96.89
94.43
90.60
85.30
78.54
70.53
61.56
51.91
41.81
31.41
20.89
10.54
0.73
-8.20
-16.14
-23.18
-29.57
-35.37
-40.35
-43.95
-45.65
-45.21
-42.84
-39.07
-34.38
-28.86
-22.18
-13.80
-3.36
9.10
23.11
38.01
53.23
68.37
83.25
97.57
110.91
122.55
131.75
137.92
140.86
140.84
138.44
134.37
129.17
123.07
115.96
107.61
97.86
86.78
74.74
62.29
49.95
38.05
26.67
15.65
4.80
-5.99
-16.59
-26.71
-35.94
-43.90
-50.35
-55.15
-58.20
-59.41
-58.69
-56.11
-51.93
-46.69
-41.04
-35.58
-30.69
-26.50
-23.06
-20.50
-19.18
-19.56
-21.97
-26.43
-32.54
-39.69
-47.26
-54.90
-62.52
-70.14
-77.66
-84.66
-90.38
-93.99
-94.85
-92.84
-88.38
-82.35
-75.79
-69.64
-64.49
-60.62
-58.03
-56.61
-56.14
-56.26
-56.37
-55.65
-53.31
-48.77
-42.00
-33.52
-24.25
-15.15
-6.99
-0.05
5.74
10.65
14.99
18.88
22.25
24.99
27.04
28.44
29.34
29.85
29.99
29.67
28.71
27.05
24.76
22.07
19.22
16.45
13.80
11.22
8.54
5.54
2.06
-2.01
-6.67
-11.73
-16.73
-21.06
-24.02
-24.98
-23.59
-19.80
-13.86
-6.21
2.69
12.51
23.04
34.24
46.02
58.18
70.24
81.52
91.22
98.72
103.72
106.34
106.99
106.23
104.49
101.97
98.70
94.58
89.55
83.72
77.38
70.90
64.60
58.60
52.73
46.58
39.61
31.46
22.06
11.81
1.50
-7.86
-15.31
-20.11
-21.96
-21.02
-17.89
-13.54
-9.01
-5.24
-2.74
-1.65
-1.72
-2.64
-4.18
-6.26
-8.93
-12.18
-15.76
-19.19
-21.94
-23.52
-23.72
-22.64
-20.56
-17.87
-14.87
-11.78
-8.73
-5.82
-3.17
-0.91
0.79
1.82
2.03
1.24
-0.82
-4.50
-10.02
-17.26
-25.58
-33.90
-40.87
-45.35
-46.78
-45.21
-41.27
-35.83
-29.67
-23.30
-17.04
-11.06
-5.60
-0.98
2.46
4.48
5.08
4.47
3.00
1.05
-1.08
-3.20
-5.25
-7.19
-8.92
-10.28
-11.08
-11.13
-10.30
-8.58
-6.08
-3.04
0.21
3.33
5.96
7.81
8.53
7.74
5.07
0.40
-6.00
-13.32
-20.37
-25.92
-29.15
-29.84
-28.40
-25.60
-22.29
-19.15
-16.66
-15.15
-14.87
-16.06
-18.88
-23.37
-29.34
-36.36
-43.73
-50.60
-56.18
-59.91
-61.63
-61.53
-59.98
-57.33
-53.80
-49.60
-45.01
-40.53
-36.82
-34.56
-34.17
-35.66
-38.72
-42.76
-47.20
-51.55
-55.51
-58.99
-62.01
-64.61
-66.73
-68.14
-68.47
-67.26
-64.16
-59.06
-52.13
-43.77
-34.53
-24.89
-15.23
-5.85
3.00
11.10
18.18
24.06
28.70
32.24
34.94
37.15
39.15
41.09
43.03
44.98
47.04
49.45
52.49
56.37
61.06
66.20
71.23
75.55
78.74
80.76
81.90
82.74
83.91
85.88
88.74
92.22
95.55
97.65
97.36
93.72
86.34
75.62
62.70
49.27
37.00
27.16
20.22
15.85
13.19
11.16
8.87
5.73
1.52
-3.74
-9.91
-16.68
-23.58
-30.06
-35.58
-39.75
-42.49
-44.00
-44.74
-45.20
-45.71
-46.37
-46.95
-47.05
-46.27
-44.31
-41.09
-36.75
-31.52
-25.66
-19.35
-12.73
-5.93
0.89
7.52
13.79
19.54
24.77
29.47
33.70
37.47
40.85
43.99
47.15
50.66
54.71
59.32
64.20
68.96
73.17
76.58
79.11
80.79
81.54
81.11
79.00
74.67
67.78
58.40
47.05
34.68
22.34
10.97
1.18
-6.89
-13.45
-18.93
-23.81
-28.38
-32.68
-36.55
-39.68
-41.84
-42.95
-43.20
-42.97
-42.70
-42.77
-43.33
-44.33
-45.49
-46.47
-46.88
-46.43
-44.95
-42.48
-39.27
-35.66
-31.94
-28.08
-23.70
-18.00
-10.02
1.05
15.60
33.46
53.92
75.95
98.42
120.31
140.86
159.55
176.04
189.96
200.79
207.83
210.26
207.43
199.13
185.75
168.30
148.12
126.50
104.40
82.24
60.04
37.69
15.18
-7.18
-28.81
-49.07
-67.37
-83.31
-96.64
-107.21
-114.85
-119.41
-120.94
-119.82
-116.74
-112.62
-108.36
-104.66
-101.92
-100.30
-99.84
-100.47
-101.93
-103.73
-105.21
-105.61
-104.38
-101.30
-96.54
-90.47
-83.51
-75.96
-68.09
-60.19
-52.74
-46.33
-41.53
-38.60
-37.40
-37.32
-37.62
-37.66
-37.18
-36.36
-35.59
-35.30
-35.70
-36.74
-38.23
-39.91
-41.54
-42.89
-43.78
-44.02
-43.53
-42.50
-41.33
-40.58
-40.83
-42.54
-45.92
-51.02
-57.67
-65.54
-74.14
-82.87
-91.14
-98.50
-104.76
-109.96
-114.18
-117.42
-119.50
-120.09
-118.79
-115.30
-109.47
-101.32
-90.98
-78.76
-65.00
-50.21
-34.91
-19.63
-4.85
9.06
21.91
33.61
44.19
53.72
62.26
69.80
76.17
81.14
84.45
86.06
86.13
85.05
83.22
80.96
78.27
74.96
70.74
65.44
59.16
52.23
45.16
38.35
32.01
26.07
20.41
14.91
9.67
4.90
0.86
-2.31
-4.59
-6.03
-6.61
-6.22
-4.71
-2.02
1.73
6.18
10.83
15.25
19.18
22.48
25.15
27.14
28.46
29.10
29.13
28.70
28.02
27.29
26.68
26.32
26.29
26.66
27.40
28.41
29.53
30.58
31.31
31.50
30.95
29.55
27.35
24.63
21.81
19.37
17.73
17.08
17.46
18.81
20.99
23.92
27.53
31.77
36.59
41.89
47.49
53.05
58.11
62.04
64.29
64.44
62.41
58.36
52.62
45.55
37.43
28.55
19.22
9.83
0.82
-7.37
-14.41
-20.08
-24.36
-27.36
-29.31
-30.47
-31.10
-31.38
-31.46
-31.49
-31.81
-32.99
-35.77
-40.88
-48.81
-59.55
-72.51
-86.57
-100.31
-112.37
-121.61
-127.38
-129.45
-127.98
-123.42
-116.45
-107.86
-98.50
-89.07
-80.04
-71.61
-63.72
-56.16
-48.75
-41.36
-33.97
-26.64
-19.46
-12.64
-6.47
-1.22
2.99
6.22
8.80
11.10
13.37
15.63
17.67
19.23
20.13
20.40
20.19
19.78
19.43
19.38
19.80
20.76
22.13
23.62
24.80
25.27
24.84
23.56
21.68
19.54
17.42
15.42
13.47
11.39
9.02
6.32
3.50
0.96
-0.79
-1.33
-0.50
1.61
4.71
8.45
12.62
17.07
21.69
26.30
30.58
34.18
36.82
38.39
38.97
38.83
38.24
37.51
36.87
36.47
36.37
36.53
36.79
37.01
37.05
36.87
36.44
35.78
34.84
33.57
31.95
30.04
27.97
25.98
24.31
23.20
22.74
22.84
23.25
23.65
23.67
23.06
21.62
19.29
16.12
12.36
8.49
5.23
3.34
3.34
5.38
9.07
13.73
18.60
23.15
27.13
30.49
33.21
35.27
36.61
37.27
37.42
37.31
37.23
37.36
37.74
38.32
38.93
39.37
39.43
38.92
37.77
36.09
34.14
32.32
31.03
30.50
30.75
31.51
32.37
32.94
32.96
32.43
31.48
30.34
29.22
28.34
27.97
28.36
29.56
31.34
33.13
34.34
34.69
34.53
34.69
36.15
39.30
43.71
48.27
51.80
53.64
53.93
53.32
52.41
51.30
49.53
46.53
42.04
36.33
30.05
23.91
18.30
13.24
8.52
3.94
-0.59
-5.10
-9.68
-14.51
-19.81
-25.71
-32.12
-38.70
-44.98
-50.48
-54.96
-58.57
-61.89
-65.84
-71.42
-79.33
-89.76
-102.18
-115.43
-127.88
-137.82
-143.81
-145.00
-141.34
-133.50
-122.67
-110.11
-96.90
-83.68
-70.76
-58.30
-46.44
-35.34
-25.11
-15.78
-7.24
0.64
7.89
14.40
19.99
24.56
28.17
31.10
33.73
36.40
39.21
42.03
44.52
46.27
47.02
46.74
45.67
44.20
42.63
41.15
39.74
38.23
36.32
33.77
30.38
26.08
21.06
15.76
10.78
6.70
3.86
2.20
1.27
0.48
-0.70
-2.46
-4.57
-6.50
-7.61
-7.48
-6.06
-3.76
-1.41
0.07
0.03
-1.64
-4.46
-7.49
-9.82
-10.89
-10.66
-9.47
-7.78
-5.82
-3.68
-1.34
1.14
3.51
5.45
6.77
7.50
7.97
8.57
9.55
10.85
12.11
12.78
12.36
10.59
7.62
3.88
0.00
-3.40
-5.86
-7.15
-7.20
-6.12
-4.03
-1.15
2.32
6.19
10.29
14.53
18.83
23.09
27.11
30.67
33.58
35.79
37.39
38.55
39.43
40.11
40.57
40.69
40.33
39.36
37.66
35.11
31.70
27.51
22.72
17.56
12.25
6.98
1.92
-2.80
-7.02
-10.69
-13.87
-16.78
-19.70
-22.91
-26.58
-30.72
-35.18
-39.65
-43.69
-46.81
-48.55
-48.63
-47.08
-44.17
-40.40
-36.27
-32.18
-28.36
-24.91
-21.83
-19.12
-16.81
-15.00
-13.74
-13.06
-12.90
-13.11
-13.48
-13.79
-13.96
-14.02
-14.15
-14.45
-14.98
-15.61
-16.22
-16.77
-17.38
-18.27
-19.64
-21.48
-23.65
-25.85
-27.81
-29.39
-30.57
-31.41
-32.04
-32.61
-33.27
-34.20
-35.60
-37.56
-40.04
-42.74
-45.22
-46.88
-47.20
-45.86
-42.86
-38.56
-33.59
-28.67
-24.40
-21.16
-19.05
-17.92
-17.44
-17.34
-17.41
-17.65
-18.29
-19.61
-21.76
-24.54
-27.37
-29.51
-30.35
-29.82
-28.47
-27.36
-27.72
-30.31
-35.08
-40.97
-46.08
-48.25
-45.75
-37.94
-25.49
-10.10
6.06
21.13
34.12
45.10
54.99
65.14
76.82
90.75
106.59
122.74
136.48
144.78
145.50
138.54
126.21
112.38
100.80
93.38
89.44
86.32
80.97
71.49
57.76
41.00
22.61
3.33
-16.84
-37.98
-59.37
-79.34
-95.70
-106.72
-111.85
-112.01
-109.02
-104.87
-100.92
-97.69
-94.94
-92.16
-88.99
-85.45
-82.00
-79.28
-77.82
-77.79
-78.93
-80.53
-81.71
-81.61
-79.70
-75.92
-70.60
-64.29
-57.54
-50.72
-43.93
-37.15
-30.39
-23.78
-17.57
-12.00
-7.26
-3.39
-0.35
1.98
3.62
4.62
5.06
5.07
4.85
4.59
4.44
4.41
4.47
4.48
4.32
3.91
3.21
2.26
1.14
0.00
-1.03
-1.87
-2.58
-3.34
-4.46
-6.23
-8.80
-12.09
-15.74
-19.19
-21.83
-23.17
-22.96
-21.20
-18.13
-14.11
-9.58
-4.96
-0.58
3.29
6.46
8.82
10.33
11.06
11.15
10.82
10.32
9.90
9.68
9.66
9.76
9.84
9.89
9.97
10.19
10.59
11.07
11.38
11.25
10.51
9.17
7.40
5.42
3.40
1.40
-0.59
-2.59
-4.61
-6.63
-8.69
-10.85
-13.17
-15.56
-17.76
-19.28
-19.64
-18.49
-15.82
-11.95
-7.42
-2.85
1.30
4.81
7.65
9.91
11.64
12.84
13.48
13.57
13.23
12.70
12.28
12.18
12.44
12.91
13.35
13.52
13.34
12.87
12.31
11.78
11.34
10.83
10.02
8.70
6.81
4.47
1.92
-0.55
-2.79
-4.81
-6.77
-8.92
-11.45
-14.38
-17.46
-20.28
-22.28
-22.95
-21.95
-19.24
-15.03
-9.78
-4.05
1.65
6.89
11.41
15.05
17.81
19.70
20.85
21.46
21.75
21.95
22.19
22.48
22.76
22.90
22.79
22.40
21.70
20.76
19.62
18.28
16.75
15.04
13.15
11.14
9.09
7.07
5.14
3.30
1.53
-0.23
-2.08
-4.14
-6.55
-9.35
-12.53
-15.85
-18.89
-21.06
-21.81
-20.76
-17.93
-13.69
-8.68
-3.55
1.21
5.35
8.86
11.82
14.29
16.29
17.78
18.82
19.47
19.91
20.27
20.58
20.78
20.79
20.50
19.92
19.16
18.36
17.60
16.85
15.92
14.58
12.67
10.20
7.41
4.67
2.35
0.61
-0.66
-1.85
-3.40
-5.67
-8.78
-12.53
-16.52
-20.20
-23.05
-24.60
-24.57
-22.88
-19.70
-15.43
-10.58
-5.64
-0.96
3.32
7.22
10.77
13.96
16.65
18.69
19.99
20.58
20.60
20.20
19.53
18.68
17.75
16.88
16.26
15.99
16.07
16.30
16.31
15.76
14.43
12.35
9.83
7.25
4.95
3.05
1.43
-0.18
-2.05
-4.35
-7.07
-10.08
-13.21
-16.23
-18.85
-20.74
-21.52
-20.90
-18.79
-15.40
-11.14
-6.47
-1.72
2.96
7.60
12.19
16.61
20.50
23.50
25.36
26.15
26.22
26.03
26.00
26.27
26.79
27.29
27.53
27.35
26.73
25.77
24.58
23.25
21.78
20.16
18.35
16.35
14.20
11.96
9.69
7.45
5.20
2.86
0.32
-2.53
-5.78
-9.39
-13.27
-17.14
-20.69
-23.45
-25.00
-25.04
-23.47
-20.47
-16.40
-11.73
-6.89
-2.22
2.09
5.91
9.14
11.69
13.52
14.62
15.11
15.16
14.97
14.70
14.45
14.21
13.97
13.68
13.29
12.80
12.24
11.62
10.94
10.11
9.01
7.55
5.69
3.54
1.32
-0.70
-2.36
-3.64
-4.71
-5.81
-7.20
-9.04
-11.36
-14.09
-16.99
-19.78
-22.03
-23.31
-23.28
-21.80
-19.01
-15.29
-11.11
-6.92
-3.06
0.32
3.15
5.46
7.26
8.60
9.52
10.06
10.34
10.47
10.63
10.96
11.55
12.35
13.20
13.91
14.33
14.43
14.24
13.81
13.09
12.01
10.51
8.66
6.67
4.84
3.37
2.32
1.57
0.88
0.07
-0.95
-2.21
-3.70
-5.47
-7.60
-10.05
-12.67
-15.08
-16.82
-17.47
-16.83
-14.95
-12.11
-8.69
-5.06
-1.53
1.73
4.59
6.93
8.63
9.63
9.92
9.63
8.99
8.30
7.79
7.60
7.70
7.90
7.94
7.62
6.90
5.89
4.87
4.01
3.40
2.90
2.26
1.21
-0.34
-2.31
-4.42
-6.38
-8.01
-9.34
-10.57
-11.94
-13.64
-15.65
-17.76
-19.56
-20.64
-20.64
-19.40
-16.96
-13.56
-9.53
-5.23
-0.90
3.26
7.07
10.36
12.94
14.65
15.45
15.50
15.12
14.67
14.46
14.58
14.96
15.37
15.57
15.41
14.84
13.88
12.63
11.23
9.82
8.54
7.51
6.74
6.15
5.54
4.67
3.31
1.36
-1.18
-4.20
-7.50
-10.86
-14.04
-16.73
-18.55
-19.22
-18.56
-16.64
-13.73
-10.25
-6.59
-3.03
0.31
3.41
6.20
8.57
10.37
11.48
11.94
11.87
11.54
11.18
10.87
10.59
10.24
9.69
8.91
7.96
6.97
6.04
5.15
4.18
3.02
1.56
-0.15
-2.00
-3.82
-5.54
-7.16
-8.82
-10.68
-12.90
-15.53
-18.50
-21.56
-24.35
-26.42
-27.38
-26.96
-25.17
-22.19
-18.37
-14.05
-9.47
-4.81
-0.24
4.03
7.77
10.79
12.99
14.44
15.30
15.68
15.71
15.44
14.93
14.26
13.57
12.95
12.45
12.03
11.65
11.28
10.82
10.19
9.20
7.71
5.67
3.23
0.68
-1.69
-3.72
-5.43
-7.06
-8.85
-11.01
-13.61
-16.58
-19.77
-22.90
-25.56
-27.27
-27.59
-26.28
-23.41
-19.34
-14.62
-9.74
-5.07
-0.79
3.08
6.53
9.53
12.03
13.95
15.32
16.20
16.74
17.09
17.32
17.42
17.32
16.92
16.20
15.23
14.16
13.11
12.20
11.37
10.54
9.55
8.32
6.82
5.10
3.27
1.43
-0.35
-2.11
-3.95
-6.01
-8.45
-11.31
-14.54
-18.03
-21.61
-25.07
-28.10
-30.33
-31.36
-30.87
-28.77
-25.28
-20.85
-15.98
-11.08
-6.36
-1.84
2.47
6.51
10.05
12.87
14.81
15.90
16.34
16.44
16.43
16.46
16.51
16.49
16.29
15.86
15.24
14.54
13.82
13.12
12.34
11.36
10.08
8.44
6.49
4.33
2.10
-0.09
-2.15
-4.02
-5.65
-7.08
-8.43
-9.91
-11.75
-14.11
-16.96
-20.05
-22.92
-24.99
-25.73
-24.81
-22.20
-18.20
-13.34
-8.24
-3.43
0.77
4.27
7.22
9.78
12.05
14.00
15.50
16.39
16.65
16.41
15.89
15.32
14.82
14.42
13.99
13.45
12.77
11.99
11.19
10.43
9.68
8.83
7.78
6.47
4.95
3.33
1.74
0.28
-1.06
-2.35
-3.73
-5.30
-7.09
-9.09
-11.26
-13.57
-16.02
-18.62
-21.29
-23.85
-25.94
-27.13
-27.02
-25.41
-22.40
-18.35
-13.81
-9.25
-4.98
-1.12
2.35
5.43
8.02
9.96
11.16
11.69
11.78
11.79
12.04
12.67
13.58
14.53
15.22
15.46
15.20
14.59
13.78
12.98
12.20
11.37
10.34
9.00
7.36
5.55
3.78
2.17
0.76
-0.55
-1.89
-3.33
-4.85
-6.38
-7.89
-9.51
-11.43
-13.80
-16.52
-19.16
-21.05
-21.54
-20.30
-17.48
-13.59
-9.36
-5.35
-1.85
1.12
3.68
5.87
7.64
8.84
9.37
9.29
8.80
8.21
7.74
7.55
7.63
7.89
8.17
8.31
8.19
7.79
7.16
6.38
5.55
4.71
3.85
2.95
2.01
1.09
0.24
-0.49
-1.20
-2.02
-3.13
-4.61
-6.45
-8.56
-10.86
-13.28
-15.73
-18.00
-19.70
-20.38
-19.70
-17.58
-14.31
-10.40
-6.37
-2.60
0.78
3.75
6.31
8.36
9.78
10.53
10.72
10.59
10.41
10.28
10.19
10.04
9.74
9.35
8.96
8.68
8.45
8.12
7.46
6.32
4.72
2.84
0.93
-0.78
-2.22
-3.44
-4.64
-6.01
-7.68
-9.68
-11.99
-14.55
-17.28
-20.04
-22.54
-24.31
-24.84
-23.78
-21.10
-17.20
-12.76
-8.44
-4.70
-1.64
0.91
3.15
5.16
6.89
8.22
9.04
9.42
9.53
9.57
9.65
9.79
9.94
10.00
9.92
9.68
9.22
8.51
7.49
6.18
4.63
2.96
1.31
-0.21
-1.61
-2.95
-4.41
-6.11
-8.18
-10.68
-13.54
-16.66
-19.82
-22.67
-24.83
-25.88
-25.50
-23.58
-20.28
-15.98
-11.24
-6.57
-2.30
1.46
4.76
7.69
10.22
12.22
13.53
14.08
13.99
13.54
13.01
12.62
12.42
12.30
12.10
11.71
11.10
10.33
9.53
8.74
7.98
7.17
6.19
4.94
3.37
1.48
-0.68
-3.05
-5.64
-8.48
-11.59
-14.93
-18.35
-21.59
-24.30
-26.15
-26.87
-26.28
-24.36
-21.24
-17.14
-12.42
-7.41
-2.43
2.29
6.58
10.32
13.37
15.66
17.15
17.99
18.41
18.67
18.94
19.18
19.20
18.79
17.85
16.49
14.97
13.59
12.48
11.62
10.84
9.91
8.66
7.04
5.12
3.01
0.84
-1.31
-3.44
-5.62
-8.01
-10.81
-14.13
-17.86
-21.69
-25.00
-27.17
-27.62
-26.16
-22.99
-18.60
-13.64
-8.61
-3.80
0.72
4.94
8.85
12.27
15.02
17.01
18.37
19.33
20.18
21.10
22.06
22.85
23.25
23.13
22.54
21.66
20.69
19.76
18.86
17.86
16.55
14.78
12.48
9.73
6.73
3.71
0.88
-1.66
-3.92
-6.09
-8.40
-11.10
-14.34
-18.12
-22.13
-25.81
-28.44
-29.34
-28.12
-24.80
-19.84
-14.00
-8.00
-2.39
2.53
6.76
10.36
13.39
15.85
17.70
18.91
19.58
19.86
19.94
19.96
19.98
19.94
19.73
19.27
18.55
17.66
16.69
15.70
14.62
13.32
11.66
9.60
7.23
4.79
2.52
0.59
-0.99
-2.37
-3.80
-5.57
-7.88
-10.84
-14.37
-18.19
-21.84
-24.67
-26.08
-25.69
-23.47
-19.74
-15.09
-10.11
-5.22
-0.56
3.85
8.00
11.71
14.74
16.85
17.99
18.35
18.30
18.13
18.03
18.00
17.91
17.65
17.21
16.65
16.03
15.34
14.49
13.32
11.76
9.84
7.74
5.65
3.74
2.08
0.62
-0.77
-2.29
-4.15
-6.50
-9.41
-12.84
-16.62
-20.48
-24.02
-26.79
-28.37
-28.46
-26.97
-24.08
-20.15
-15.63
-10.87
-6.12
-1.48
2.98
7.16
10.86
13.88
16.08
17.48
18.21
18.52
18.62
18.64
18.62
18.48
18.14
17.58
16.82
15.92
15.01
14.13
13.27
12.35
11.25
9.85
8.08
6.00
3.76
1.55
-0.45
-2.18
-3.77
-5.42
-7.36
-9.71
-12.49
-15.61
-18.96
-22.36
-25.49
-27.88
-28.98
-28.34
-25.87
-21.92
-17.17
-12.37
-8.05
-4.34
-1.06
2.03
5.06
7.90
10.28
11.97
12.93
13.33
13.41
13.36
13.24
12.96
12.43
11.65
10.74
9.89
9.26
8.84
8.43
7.75
6.55
4.78
2.59
0.31
-1.74
-3.37
-4.61
-5.67
-6.82
-8.28
-10.17
-12.40
-14.85
-17.38
-19.88
-22.22
-24.17
-25.43
-25.62
-24.46
-21.87
-18.05
-13.41
-8.41
-3.41
1.41
5.99
10.25
14.05
17.16
19.37
20.63
21.16
21.27
21.33
21.54
21.84
21.97
21.62
20.65
19.15
17.43
15.86
14.72
13.97
13.38
12.56
11.20
9.26
6.85
4.24
1.67
-0.80
-3.22
-5.75
-8.51
-11.54
-14.81
-18.22
-21.61
-24.75
-27.32
-28.87
-29.02
-27.52
-24.45
-20.21
-15.34
-10.39
-5.70
-1.40
2.57
6.29
9.71
12.67
14.95
16.41
17.10
17.23
17.09
16.91
16.78
16.63
16.32
15.72
14.88
13.92
13.04
12.32
11.72
11.04
10.07
8.64
6.77
4.58
2.28
0.05
-2.02
-3.94
-5.85
-7.93
-10.34
-13.17
-16.33
-19.57
-22.43
-24.47
-25.27
-24.62
-22.57
-19.37
-15.41
-11.10
-6.79
-2.70
1.08
4.54
7.63
10.23
12.19
13.36
13.76
13.58
13.13
12.73
12.52
12.49
12.44
12.18
11.58
10.63
9.41
8.05
6.65
5.25
3.84
2.38
0.80
-0.94
-2.83
-4.77
-6.65
-8.36
-9.90
-11.39
-13.00
-14.95
-17.30
-19.98
-22.78
-25.38
-27.43
-28.63
-28.76
-27.72
-25.55
-22.37
-18.41
-13.95
-9.27
-4.60
-0.16
3.91
7.44
10.26
12.21
13.22
13.39
13.04
12.67
12.83
13.87
15.82
18.27
20.59
22.14
22.54
21.81
20.26
18.37
16.51
14.82
13.25
11.63
9.78
7.67
5.38
3.10
1.02
-0.73
-2.14
-3.37
-4.62
-6.13
-8.06
-10.48
-13.31
-16.37
-19.33
-21.78
-23.22
-23.21
-21.49
-18.15
-13.62
-8.55
-3.60
0.81
4.54
7.67
10.33
12.52
14.12
15.02
15.19
14.81
14.17
13.54
13.03
12.61
12.15
11.56
10.91
10.33
9.99
9.88
9.84
9.56
8.78
7.36
5.40
3.14
0.90
-1.08
-2.65
-3.83
-4.78
-5.77
-7.10
-9.03
-11.67
-14.95
-18.54
-21.92
-24.51
-25.79
-25.49
-23.64
-20.55
-16.72
-12.61
-8.61
-4.89
-1.48
1.65
4.49
6.94
8.83
10.07
10.66
10.75
10.55
10.28
10.08
9.95
9.79
9.48
8.91
8.08
7.05
5.94
4.86
3.82
2.81
1.74
0.58
-0.70
-2.06
-3.48
-4.93
-6.44
-8.07
-9.87
-11.89
-14.17
-16.66
-19.30
-21.87
-24.08
-25.54
-25.90
-24.94
-22.68
-19.33
-15.26
-10.79
-6.19
-1.67
2.61
6.40
9.44
11.46
12.40
12.41
11.86
11.23
10.93
11.09
11.61
12.13
12.27
11.79
10.68
9.13
7.43
5.81
4.34
3.00
1.69
0.34
-1.04
-2.47
-3.98
-5.68
-7.69
-10.09
-12.86
-15.92
-19.09
-22.20
-25.01
-27.21
-28.45
-28.47
-27.18
-24.70
-21.32
-17.38
-13.13
-8.71
-4.21
0.20
4.27
7.67
10.12
11.61
12.34
12.72
13.10
13.66
14.33
14.85
14.96
14.49
13.48
12.10
10.59
9.12
7.76
6.49
5.23
3.88
2.35
0.57
-1.47
-3.77
-6.31
-9.04
-11.92
-14.90
-17.97
-21.10
-24.19
-27.06
-29.43
-30.91
-31.19
-30.00
-27.32
-23.32
-18.36
-12.86
-7.21
-1.71
3.43
8.01
11.83
14.73
16.63
17.65
17.99
17.96
17.82
17.67
17.50
17.17
16.55
15.60
14.40
13.15
12.01
11.08
10.30
9.49
8.44
6.97
5.07
2.85
0.49
-1.83
-4.00
-6.05
-8.13
-10.42
-13.11
-16.27
-19.79
-23.35
-26.43
-28.43
-28.82
-27.38
-24.26
-19.98
-15.19
-10.49
-6.19
-2.31
1.29
4.76
8.11
11.18
13.76
15.66
16.85
17.43
17.56
17.41
17.08
16.62
16.06
15.44
14.80
14.15
13.49
12.76
11.88
10.78
9.41
7.74
5.81
3.70
1.53
-0.53
-2.36
-3.95
-5.41
-6.91
-8.68
-10.83
-13.44
-16.50
-19.92
-23.57
-27.17
-30.28
-32.38
-32.98
-31.84
-29.08
-25.06
-20.31
-15.26
-10.10
-4.87
0.48
5.88
11.17
16.01
20.10
23.18
25.24
26.38
26.85
26.89
26.66
26.17
25.36
24.16
22.60
20.80
19.06
17.55
16.36
15.37
14.32
12.95
11.08
8.75
6.10
3.34
0.66
-1.88
-4.26
-6.60
-9.07
-11.84
-15.02
-18.62
-22.37
-25.94
-28.81
-30.51
-30.73
-29.36
-26.49
-22.40
-17.49
-12.09
-6.51
-0.91
4.53
9.64
14.14
17.77
20.32
21.78
22.39
22.47
22.36
22.21
21.97
21.50
20.71
19.67
18.58
17.69
17.06
16.56
15.86
14.64
12.72
10.23
7.53
5.03
2.99
1.36
-0.15
-1.94
-4.34
-7.47
-11.22
-15.33
-19.44
-23.14
-25.98
-27.58
-27.63
-26.03
-23.00
-18.93
-14.29
-9.48
-4.68
0.06
4.75
9.35
13.67
17.45
20.47
22.61
23.90
24.51
24.63
24.44
24.08
23.62
23.09
22.50
21.82
21.03
20.14
19.18
18.19
17.20
16.22
15.15
13.90
12.32
10.36
8.06
5.53
2.89
0.27
-2.33
-4.96
-7.70
-10.63
-13.82
-17.24
-20.76
-24.14
-27.01
-28.92
-29.52
-28.59
-26.13
-22.33
-17.56
-12.18
-6.61
-1.16
3.86
8.23
11.77
14.38
16.10
17.07
17.50
17.60
17.57
17.50
17.39
17.19
16.84
16.30
15.59
14.77
13.89
13.04
12.22
11.38
10.43
9.25
7.75
5.95
3.95
1.95
0.16
-1.33
-2.57
-3.74
-5.12
-6.92
-9.23
-11.99
-15.10
-18.36
-21.61
-24.61
-27.03
-28.47
-28.58
-27.19
-24.42
-20.67
-16.44
-12.13
-7.92
-3.76
0.41
4.55
8.40
11.59
13.82
15.03
15.37
15.20
14.82
14.47
14.25
14.19
14.27
14.45
14.66
14.75
14.60
14.09
13.21
12.01
10.59
9.03
7.41
5.79
4.24
2.82
1.52
0.23
-1.20
-2.95
-5.08
-7.54
-10.16
-12.79
-15.42
-18.10
-20.96
-23.95
-26.84
-29.16
-30.36
-30.02
-27.99
-24.44
-19.83
-14.74
-9.71
-5.10
-1.05
2.48
5.61
8.37
10.71
12.51
13.68
14.25
14.41
14.36
14.24
14.03
13.64
12.97
12.04
10.99
9.96
9.04
8.20
7.37
6.49
5.55
4.51
3.31
1.84
0.07
-1.91
-3.84
-5.41
-6.47
-7.15
-7.77
-8.77
-10.42
-12.79
-15.71
-18.86
-21.90
-24.46
-26.18
-26.73
-25.88
-23.65
-20.27
-16.18
-11.80
-7.55
-3.62
-0.11
3.00
5.70
7.96
9.74
10.99
11.77
12.14
12.24
12.20
12.09
11.93
11.69
11.33
10.79
10.11
9.34
8.54
7.71
6.82
5.74
4.43
2.87
1.13
-0.69
-2.50
-4.30
-6.11
-7.98
-9.97
-12.15
-14.57
-17.30
-20.35
-23.61
-26.81
-29.55
-31.32
-31.67
-30.36
-27.38
-23.00
-17.68
-11.97
-6.37
-1.24
3.20
6.91
9.94
12.36
14.26
15.70
16.78
17.61
18.26
18.76
19.00
18.88
18.31
17.31
16.05
14.73
13.51
12.37
11.10
9.45
7.25
4.55
1.61
-1.25
-3.81
-6.04
-8.10
-10.22
-12.61
-15.34
-18.35
-21.53
-24.74
-27.79
-30.35
-32.00
-32.31
-31.04
-28.24
-24.28
-19.71
-15.00
-10.44
-6.02
-1.63
2.80
7.13
11.07
14.23
16.35
17.42
17.67
17.48
17.26
17.26
17.53
17.91
18.18
18.15
17.72
16.89
15.69
14.16
12.30
10.16
7.82
5.44
3.15
1.09
-0.74
-2.41
-4.07
-5.98
-8.35
-11.32
-14.83
-18.64
-22.28
-25.30
-27.31
-28.11
-27.74
-26.35
-24.17
-21.37
-18.08
-14.35
-10.19
-5.66
-0.87
3.96
8.49
12.34
15.23
17.04
17.91
18.14
18.07
17.95
17.83
17.62
17.16
16.35
15.20
13.83
12.38
10.95
9.58
8.24
6.87
5.39
3.73
1.85
-0.23
-2.38
-4.41
-6.12
-7.49
-8.64
-9.93
-11.72
-14.22
-17.38
-20.86
-24.23
-27.05
-29.02
-29.91
-29.55
-27.80
-24.67
-20.32
-15.12
-9.56
-4.11
0.95
5.43
9.29
12.44
14.79
16.28
16.99
17.14
17.07
17.00
17.04
17.13
17.12
16.88
16.40
15.73
14.90
13.87
12.57
10.90
8.84
6.42
3.76
1.04
-1.55
-3.88
-5.85
-7.50
-9.04
-10.80
-13.13
-16.27
-20.23
-24.74
-29.33
-33.41
-36.40
-37.88
-37.58
-35.47
-31.76
-26.84
-21.15
-15.14
-9.13
-3.32
2.16
7.19
11.62
15.27
18.08
20.11
21.56
22.69
23.68
24.54
25.17
25.36
25.02
24.19
23.08
21.97
21.04
20.26
19.38
18.06
16.03
13.31
10.27
7.50
5.55
4.68
4.64
4.81
4.42
2.89
0.16
-3.22
-6.14
-7.26
-5.40
0.14
9.38
21.72
36.30
52.28
69.16
86.95
106.09
127.16
150.33
174.78
198.37
217.93
230.21
233.08
226.49
212.61
194.83
176.29
158.38
140.29
119.48
92.97
58.75
16.70
-31.29
-81.70
-130.10
-171.89
-202.99
-220.53
-223.65
-213.83
-194.84
-171.98
-150.72
-135.24
-127.52
-127.24
-132.50
-140.86
-150.02
-157.79
-161.78
-159.27
-147.94
-127.16
-99.09
-68.51
-41.33
-22.13
-12.21
-9.30
-8.81
-6.30
0.47
10.95
22.58
32.45
38.89
41.92
42.80
43.06
43.57
44.34
44.76
44.30
42.91
41.16
39.96
40.04
41.59
44.08
46.56
48.07
48.10
46.84
45.05
43.68
43.45
44.50
46.40
48.40
49.86
50.50
50.32
49.26
46.91
42.46
35.11
24.64
11.77
-1.92
-14.64
-25.08
-33.01
-39.19
-44.92
-51.29
-58.73
-67.11
-76.05
-85.19
-94.15
-102.18
-108.04
-110.32
-108.20
-102.13
-94.07
-86.84
-83.00
-83.73
-88.34
-94.52
-99.31
-100.05
-95.06
-83.94
-67.47
-47.42
-26.12
-5.97
11.16
24.41
34.07
41.27
47.58
54.47
62.87
72.94
83.99
94.61
102.93
107.24
106.48
100.60
90.57
78.05
64.83
52.44
41.90
33.69
27.81
23.71
20.44
16.87
12.05
5.62
-1.95
-9.60
-16.06
-20.44
-22.57
-22.91
-22.27
-21.41
-20.71
-20.28
-20.07
-20.00
-20.12
-20.47
-21.06
-21.82
-22.59
-23.23
-23.71
-24.06
-24.43
-24.94
-25.71
-26.75
-27.98
-29.32
-30.70
-32.06
-33.31
-34.25
-34.49
-33.60
-31.23
-27.26
-21.96
-15.79
-9.27
-2.80
3.36
9.06
14.09
18.23
21.28
23.28
24.45
25.21
25.90
26.74
27.76
28.87
29.98
31.02
31.89
32.44
32.48
31.85
30.55
28.80
27.06
25.78
25.35
25.88
27.14
28.66
29.78
29.91
28.63
25.93
22.12
17.90
14.20
12.05
12.35
15.67
22.02
30.76
40.67
50.24
58.04
63.10
65.06
64.18
61.08
56.48
50.94
44.88
38.53
32.07
25.65
19.29
12.84
5.93
-1.88
-10.85
-20.80
-31.01
-40.37
-47.79
-52.61
-54.89
-55.32
-54.84
-54.22
-53.78
-53.40
-52.81
-51.80
-50.45
-49.07
-48.16
-48.17
-49.46
-52.09
-55.72
-59.57
-62.57
-63.61
-61.99
-57.69
-51.35
-44.03
-36.70
-29.97
-23.89
-18.21
-12.62
-6.98
-1.43
3.76
8.31
11.99
14.70
16.45
17.30
17.37
16.80
15.79
14.54
13.30
12.32
11.75
11.60
11.74
11.86
11.60
10.68
8.96
6.52
3.65
0.68
-2.08
-4.50
-6.62
-8.65
-10.87
-13.46
-16.33
-19.10
-21.19
-21.95
-20.96
-18.15
-13.89
-8.78
-3.46
1.64
6.31
10.58
14.52
18.10
21.17
23.54
25.11
25.92
26.15
26.03
25.73
25.33
24.84
24.26
23.66
23.09
22.64
22.27
21.90
21.33
20.38
18.88
16.79
14.22
11.37
8.50
5.86
3.55
1.50
-0.50
-2.72
-5.44
-8.78
-12.69
-16.85
-20.76
-23.81
-25.48
-25.47
-23.76
-20.65
-16.56
-11.95
-7.19
-2.57
1.68
5.32
8.18
10.14
11.23
11.65
11.66
11.49
11.27
10.99
10.56
9.93
9.12
8.21
7.35
6.59
5.90
5.19
4.33
3.25
1.95
0.46
-1.15
-2.83
-4.56
-6.31
-8.11
-10.02
-12.11
-14.48
-17.18
-20.20
-23.42
-26.51
-29.04
-30.46
-30.34
-28.44
-24.87
-20.03
-14.47
-8.74
-3.19
2.00
6.78
11.07
14.68
17.42
19.19
20.13
20.55
20.83
21.17
21.56
21.78
21.57
20.84
19.75
18.59
17.66
17.01
16.48
15.68
14.21
11.84
8.63
4.89
1.07
-2.44
-5.40
-7.91
-10.30
-13.03
-16.43
-20.52
-24.85
-28.56
-30.62
-30.13
-26.60
-20.15
-11.42
-1.63
7.81
15.50
20.52
22.63
22.35
20.70
18.85
17.61
17.23
17.46
17.90
18.18
18.20
18.06
17.83
17.43
16.71
15.52
13.96
12.30
10.86
9.77
8.94
8.04
6.68
4.70
2.20
-0.49
-3.02
-5.18
-7.02
-8.84
-11.01
-13.86
-17.45
-21.59
-25.80
-29.48
-31.98
-32.81
-31.79
-29.05
-24.99
-20.10
-14.79
-9.31
-3.73
1.91
7.53
12.89
17.63
21.41
24.04
25.55
26.21
26.42
26.53
26.75
27.07
27.31
27.23
26.68
25.66
24.27
22.66
20.97
19.24
17.47
15.60
13.60
11.47
9.21
6.85
4.39
1.81
-0.87
-3.61
-6.36
-9.06
-11.72
-14.46
-17.47
-20.95
-24.95
-29.27
-33.43
-36.80
-38.77
-38.97
-37.35
-34.16
-29.81
-24.76
-19.36
-13.86
-8.46
-3.34
1.27
5.17
8.18
10.27
11.59
12.44
13.19
14.16
15.45
16.96
18.36
19.34
19.68
19.41
18.71
17.82
16.92
16.07
15.17
14.08
12.67
10.84
8.61
6.08
3.41
0.77
-1.71
-3.98
-6.07
-8.12
-10.30
-12.81
-15.83
-19.42
-23.38
-27.25
-30.37
-32.08
-31.97
-30.04
-26.64
-22.29
-17.48
-12.47
-7.37
-2.20
2.94
7.80
12.07
15.46
17.83
19.20
19.76
19.78
19.59
19.45
19.49
19.69
19.90
19.92
19.63
18.96
18.00
16.80
15.41
13.84
12.06
10.07
7.89
5.57
3.19
0.82
-1.46
-3.64
-5.72
-7.73
-9.77
-11.91
-14.23
-16.82
-19.77
-23.09
-26.65
-30.10
-32.91
-34.53
-34.50
-32.72
-29.39
-24.95
-19.86
-14.44
-8.85
-3.16
2.52
7.94
12.80
16.79
19.76
21.78
23.06
23.91
24.55
25.05
25.34
25.35
25.07
24.60
24.09
23.65
23.27
22.77
21.97
20.75
19.14
17.27
15.33
13.40
11.43
9.37
7.14
4.78
2.38
0.04
-2.22
-4.45
-6.77
-9.28
-12.10
-15.26
-18.79
-22.65
-26.66
-30.46
-33.53
-35.28
-35.27
-33.37
-29.79
-25.08
-19.84
-14.55
-9.48
-4.68
-0.13
4.13
7.98
11.18
13.59
15.20
16.17
16.71
17.02
17.17
17.15
16.89
16.40
15.77
15.15
14.66
14.26
13.86
13.34
12.60
11.64
10.50
9.21
7.77
6.17
4.43
2.62
0.85
-0.83
-2.40
-3.91
-5.47
-7.20
-9.21
-11.60
-14.42
-17.67
-21.24
-24.84
-28.05
-30.37
-31.29
-30.46
-27.85
-23.78
-18.80
-13.52
-8.40
-3.63
0.79
4.93
8.78
12.23
15.09
17.22
18.59
19.31
19.58
19.57
19.46
19.30
19.07
18.72
18.13
17.25
16.13
14.92
13.83
12.91
12.07
11.05
9.61
7.66
5.34
2.97
0.79
-1.11
-2.85
-4.69
-6.87
-9.45
-12.36
-15.52
-18.88
-22.43
-26.16
-29.85
-33.00
-35.02
-35.32
-33.64
-30.15
-25.42
-20.16
-14.95
-10.07
-5.47
-0.93
3.63
8.06
12.01
15.07
17.06
18.12
18.63
19.07
19.70
20.51
21.26
21.63
21.45
20.76
19.76
18.78
18.06
17.67
17.47
17.15
16.33
14.75
12.36
9.36
6.09
2.91
0.00
-2.58
-4.96
-7.31
-9.82
-12.63
-15.87
-19.64
-23.88
-28.28
-32.34
-35.34
-36.64
-35.83
-32.93
-28.39
-22.95
-17.34
-12.07
-7.27
-2.80
1.60
6.03
10.36
14.26
17.37
19.50
20.71
21.22
21.33
21.26
21.15
21.05
20.98
20.94
20.91
20.81
20.58
20.19
19.63
18.91
17.97
16.68
14.91
12.59
9.81
6.78
3.77
0.91
-1.78
-4.41
-7.12
-9.96
-12.96
-16.16
-19.67
-23.64
-28.12
-32.91
-37.47
-41.05
-42.88
-42.50
-39.91
-35.59
-30.28
-24.76
-19.53
-14.81
-10.49
-6.36
-2.28
1.72
5.51
8.85
11.56
13.64
15.17
16.31
17.24
18.00
18.58
18.91
18.97
18.81
18.60
18.47
18.46
18.43
18.11
17.26
15.73
13.60
11.11
8.62
6.39
4.54
2.99
1.48
-0.29
-2.58
-5.59
-9.33
-13.65
-18.21
-22.51
-25.93
-27.96
-28.27
-26.87
-24.03
-20.25
-15.97
-11.51
-6.96
-2.32
2.40
7.02
11.21
14.57
16.83
17.98
18.24
18.02
17.72
17.60
17.75
18.11
18.47
18.65
18.46
17.81
16.73
15.33
13.81
12.32
10.85
9.29
7.48
5.36
2.98
0.58
-1.72
-3.89
-6.14
-8.71
-11.73
-15.20
-18.94
-22.78
-26.63
-30.36
-33.78
-36.52
-38.07
-37.95
-35.94
-32.13
-26.92
-20.88
-14.56
-8.38
-2.65
2.48
6.90
10.57
13.49
15.76
17.50
18.88
20.07
21.16
22.16
22.97
23.42
23.33
22.68
21.58
20.29
19.13
18.25
17.64
17.08
16.21
14.77
12.69
10.09
7.27
4.52
1.95
-0.49
-3.02
-5.90
-9.25
-13.06
-17.21
-21.52
-25.83
-29.96
-33.63
-36.42
-37.90
-37.66
-35.59
-31.93
-27.13
-21.77
-16.28
-10.87
-5.55
-0.33
4.75
9.45
13.48
16.55
18.51
19.44
19.60
19.38
19.20
19.30
19.75
20.35
20.78
20.69
19.92
18.46
16.53
14.40
12.31
10.37
8.56
6.77
4.91
2.91
0.77
-1.45
-3.68
-5.92
-8.20
-10.62
-13.29
-16.31
-19.81
-23.85
-28.36
-33.03
-37.28
-40.31
-41.43
-40.24
-36.80
-31.62
-25.35
-18.54
-11.49
-4.33
2.86
9.86
16.36
22.01
26.58
29.98
32.19
33.22
33.15
32.19
30.66
28.99
27.51
26.39
25.54
24.77
23.87
22.73
21.37
19.79
17.98
15.88
13.45
10.73
7.87
5.04
2.34
-0.19
-2.68
-5.35
-8.50
-12.35
-16.99
-22.24
-27.63
-32.48
-36.04
-37.78
-37.50
-35.38
-31.86
-27.45
-22.52
-17.28
-11.76
-5.97
-0.08
5.61
10.68
14.75
17.63
19.40
20.32
20.77
21.08
21.44
21.83
22.12
22.15
21.85
21.26
20.51
19.70
18.85
17.87
16.61
14.94
12.85
10.48
8.04
5.76
3.69
1.74
-0.35
-2.88
-6.11
-10.13
-14.86
-20.04
-25.28
-30.10
-34.01
-36.55
-37.43
-36.57
-34.08
-30.30
-25.61
-20.35
-14.76
-8.95
-2.99
2.92
8.49
13.35
17.22
20.00
21.82
22.97
23.73
24.33
24.84
25.17
25.23
24.94
24.29
23.36
22.27
21.11
19.95
18.77
17.45
15.84
13.77
11.17
8.15
4.95
1.83
-1.03
-3.66
-6.27
-9.15
-12.52
-16.47
-20.93
-25.76
-30.74
-35.57
-39.83
-42.96
-44.39
-43.77
-41.05
-36.62
-31.12
-25.21
-19.31
-13.61
-8.07
-2.68
2.53
7.38
11.63
15.09
17.68
19.42
20.46
21.00
21.25
21.42
21.61
21.87
22.17
22.43
22.56
22.46
22.02
21.15
19.75
17.80
15.39
12.75
10.14
7.78
5.74
3.84
1.80
-0.68
-3.83
-7.64
-11.97
-16.54
-20.99
-24.94
-27.97
-29.68
-29.76
-28.09
-24.81
-20.30
-15.11
-9.72
-4.49
0.43
5.07
9.44
13.47
16.96
19.69
21.50
22.47
22.86
23.04
23.29
23.66
23.99
23.94
23.29
21.99
20.26
18.46
16.88
15.59
14.41
13.00
11.06
8.49
5.41
2.13
-1.05
-3.93
-6.52
-9.01
-11.68
-14.80
-18.57
-22.98
-27.81
-32.60
-36.73
-39.50
-40.37
-39.09
-35.78
-30.84
-24.87
-18.42
-11.94
-5.68
0.24
5.73
10.66
14.85
18.11
20.35
21.72
22.54
23.22
24.03
24.98
25.82
26.21
25.91
24.96
23.60
22.17
20.84
19.62
18.30
16.71
14.74
12.42
9.85
7.14
4.37
1.63
-1.02
-3.56
-6.09
-8.80
-11.92
-15.63
-19.95
-24.71
-29.49
-33.76
-36.94
-38.53
-38.21
-35.95
-32.02
-26.90
-21.19
-15.36
-9.68
-4.20
1.15
6.33
11.16
15.34
18.59
20.79
22.12
22.93
23.64
24.51
25.52
26.44
26.99
26.94
26.27
25.12
23.70
22.12
20.42
18.57
16.58
14.49
12.38
10.27
8.08
5.72
3.07
0.16
-2.90
-6.00
-9.10
-12.29
-15.69
-19.46
-23.62
-28.10
-32.69
-37.05
-40.68
-43.03
-43.62
-42.22
-38.98
-34.42
-29.19
-23.86
-18.69
-13.68
-8.67
-3.59
1.42
6.03
9.88
12.71
14.50
15.48
16.00
16.45
17.07
17.91
18.82
19.59
20.02
20.08
19.84
19.43
18.95
18.36
17.52
16.28
14.59
12.55
10.39
8.35
6.57
4.97
3.35
1.39
-1.10
-4.20
-7.79
-11.69
-15.72
-19.73
-23.51
-26.77
-29.06
-29.89
-28.94
-26.24
-22.17
-17.30
-12.15
-6.97
-1.78
3.46
8.64
13.41
17.29
19.88
21.12
21.26
20.82
20.30
20.05
20.17
20.54
20.92
21.02
20.69
19.88
18.65
17.17
15.54
13.80
11.87
9.70
7.31
4.81
2.38
0.18
-1.79
-3.77
-6.08
-9.00
-12.68
-17.04
-21.85
-26.73
-31.28
-35.04
-37.62
-38.66
-37.99
-35.68
-31.96
-27.22
-21.90
-16.37
-10.89
-5.63
-0.67
3.93
8.09
11.74
14.79
17.20
18.97
20.17
20.95
21.39
21.56
21.47
21.11
20.54
19.81
19.03
18.22
17.32
16.18
14.61
12.48
9.84
6.87
3.85
1.09
-1.26
-3.20
-4.95
-6.79
-9.06
-12.00
-15.66
-19.94
-24.57
-29.19
-33.37
-36.66
-38.62
-38.90
-37.32
-34.02
-29.38
-23.99
-18.44
-13.06
-7.92
-2.88
2.24
7.41
12.29
16.37
19.27
20.90
21.60
21.91
22.32
23.02
23.89
24.59
24.85
24.60
23.98
23.21
22.42
21.60
20.61
19.25
17.41
15.11
12.41
9.43
6.30
3.11
-0.04
-3.08
-5.95
-8.73
-11.51
-14.44
-17.72
-21.46
-25.72
-30.40
-35.20
-39.63
-43.09
-45.01
-44.97
-42.91
-39.12
-34.11
-28.50
-22.77
-17.22
-11.92
-6.84
-1.98
2.55
6.56
9.83
12.28
14.00
15.26
16.38
17.61
19.01
20.40
21.50
22.04
21.92
21.25
20.26
19.19
18.17
17.17
16.08
14.75
13.12
11.27
9.32
7.40
5.55
3.69
1.67
-0.65
-3.38
-6.52
-10.03
-13.80
-17.63
-21.26
-24.40
-26.72
-27.99
-28.04
-26.81
-24.35
-20.78
-16.30
-11.15
-5.64
-0.14
5.00
9.37
12.69
14.83
15.88
16.20
16.23
16.44
17.04
18.00
19.04
19.82
20.13
19.94
19.37
18.60
17.73
16.70
15.38
13.62
11.41
8.83
6.05
3.31
0.72
-1.70
-4.10
-6.60
-9.36
-12.42
-15.75
-19.33
-23.14
-27.10
-31.02
-34.56
-37.17
-38.32
-37.69
-35.24
-31.30
-26.39
-21.05
-15.63
-10.31
-5.09
0.00
4.87
9.32
13.06
15.90
17.75
18.75
19.19
19.39
19.61
19.92
20.26
20.46
20.44
20.19
19.82
19.43
19.02
18.45
17.48
15.94
13.75
11.07
8.20
5.50
3.22
1.38
-0.23
-2.01
-4.31
-7.35
-11.14
-15.47
-20.02
-24.51
-28.68
-32.33
-35.24
-37.15
-37.81
-37.03
-34.77
-31.20
-26.59
-21.29
-15.60
-9.75
-3.91
1.76
7.06
11.77
15.63
18.45
20.18
21.00
21.22
21.25
21.43
21.95
22.73
23.53
24.03
24.03
23.43
22.31
20.77
18.98
17.05
15.10
13.21
11.39
9.63
7.85
5.93
3.75
1.22
-1.69
-4.93
-8.36
-11.86
-15.36
-18.90
-22.65
-26.74
-31.18
-35.72
-39.83
-42.85
-44.20
-43.60
-41.16
-37.28
-32.52
-27.32
-21.99
-16.67
-11.39
-6.17
-1.15
3.45
7.35
10.34
12.42
13.84
15.05
16.44
18.17
20.04
21.57
22.34
22.17
21.31
20.22
19.37
18.97
18.84
18.57
17.79
16.38
14.50
12.50
10.68
9.13
7.64
5.91
3.72
1.05
-1.96
-5.09
-8.27
-11.59
-15.14
-18.86
-22.41
-25.17
-26.49
-26.02
-23.79
-20.17
-15.78
-11.11
-6.44
-1.89
2.57
6.84
10.73
14.01
16.46
18.04
18.96
19.56
20.15
20.88
21.61
22.05
21.89
20.99
19.51
17.80
16.23
15.02
14.11
13.27
12.18
10.61
8.56
6.17
3.64
1.11
-1.43
-4.10
-7.08
-10.50
-14.38
-18.60
-23.04
-27.52
-31.86
-35.73
-38.68
-40.14
-39.69
-37.24
-33.13
-28.04
-22.70
-17.58
-12.79
-8.14
-3.37
1.59
6.54
11.12
14.95
17.85
19.83
21.04
21.71
22.00
22.04
21.87
21.58
21.21
20.83
20.50
20.21
19.86
19.24
18.09
16.22
13.61
10.48
7.24
4.35
2.09
0.47
-0.80
-2.21
-4.19
-7.00
-10.69
-15.07
-19.87
-24.78
-29.47
-33.54
-36.54
-38.05
-37.74
-35.58
-31.85
-27.12
-22.00
-16.91
-11.94
-6.95
-1.70
3.79
9.20
14.03
17.83
20.42
22.04
23.07
23.87
24.55
25.04
25.16
24.85
24.21
23.43
22.68
22.04
21.40
20.60
19.44
17.72
15.33
12.30
8.80
5.15
1.67
-1.40
-4.01
-6.30
-8.53
-11.00
-13.96
-17.62
-22.05
-27.14
-32.53
-37.62
-41.62
-43.82
-43.78
-41.45
-37.22
-31.75
-25.80
-19.95
-14.49
-9.39
-4.48
0.38
5.16
9.62
13.47
16.52
18.75
20.36
21.56
22.44
23.03
23.30
23.31
23.22
23.25
23.55
24.02
24.45
24.52
23.99
22.71
20.63
17.88
14.70
11.42
8.40
5.88
3.86
2.09
0.20
-2.15
-5.16
-8.83
-13.04
-17.64
-22.31
-26.66
-30.09
-31.99
-31.92
-29.79
-25.92
-20.92
-15.43
-10.00
-4.88
-0.18
4.13
7.99
11.31
13.96
15.90
17.22
18.15
18.96
19.86
20.79
21.55
21.87
21.59
20.80
19.77
18.81
18.08
17.47
16.71
15.52
13.76
11.46
8.79
5.95
3.13
0.41
-2.16
-4.59
-6.99
-9.51
-12.33
-15.63
-19.49
-23.91
-28.73
-33.53
-37.70
-40.53
-41.39
-39.96
-36.39
-31.25
-25.29
-19.23
-13.44
-8.04
-3.00
1.74
6.11
9.96
13.14
15.59
17.41
18.80
19.98
21.13
22.31
23.42
24.27
24.62
24.33
23.46
22.26
21.02
19.94
19.00
17.97
16.57
14.60
12.06
9.15
6.15
3.34
0.85
-1.37
-3.46
-5.66
-8.19
-11.24
-14.85
-18.99
-23.50
-28.05
-32.15
-35.22
-36.69
-36.22
-33.82
-29.87
-24.94
-19.63
-14.30
-9.12
-4.17
0.46
4.56
7.87
10.27
11.83
12.88
13.77
14.80
16.06
17.41
18.59
19.30
19.34
18.69
17.51
16.12
14.87
13.96
13.34
12.76
11.89
10.51
8.63
6.39
4.00
1.61
-0.79
-3.29
-5.94
-8.72
-11.50
-14.17
-16.69
-19.14
-21.63
-24.22
-26.75
-28.81
-29.88
-29.43
-27.23
-23.42
-18.49
-13.06
-7.66
-2.60
2.03
6.21
9.85
12.80
14.90
16.13
16.67
16.83
16.93
17.15
17.53
17.91
18.11
17.98
17.45
16.62
15.65
14.75
14.03
13.44
12.80
11.89
10.57
8.87
6.97
5.08
3.27
1.47
-0.52
-2.91
-5.79
-9.20
-13.08
-17.32
-21.70
-25.86
-29.28
-31.47
-32.10
-31.14
-28.86
-25.63
-21.82
-17.67
-13.24
-8.56
-3.70
1.16
5.74
9.73
12.90
15.19
16.74
17.88
18.94
20.16
21.52
22.78
23.59
23.75
23.25
22.35
21.38
20.55
19.83
19.06
17.99
16.47
14.51
12.22
9.74
7.21
4.67
2.10
-0.60
-3.55
-6.85
-10.61
-14.85
-19.52
-24.45
-29.28
-33.47
-36.46
-37.73
-37.06
-34.50
-30.47
-25.48
-20.01
-14.38
-8.74
-3.15
2.32
7.50
12.18
16.18
19.41
21.92
23.86
25.39
26.60
27.48
27.93
27.85
27.23
26.20
24.99
23.85
22.87
21.95
20.86
19.32
17.18
14.51
11.55
8.60
5.89
3.51
1.34
-0.83
-3.19
-5.92
-9.12
-12.78
-16.84
-21.12
-25.34
-29.16
-32.12
-33.87
-34.16
-32.91
-30.26
-26.52
-22.06
-17.22
-12.29
-7.41
-2.67
1.84
5.95
9.47
12.22
14.15
15.37
16.07
16.51
16.84
17.10
17.23
17.17
16.87
16.35
15.64
14.75
13.66
12.32
10.72
8.86
6.81
4.68
2.51
0.37
-1.79
-4.03
-6.44
-9.06
-11.87
-14.77
-17.65
-20.47
-23.28
-26.21
-29.37
-32.73
-35.93
-38.41
-39.49
-38.65
-35.74
-31.06
-25.20
-18.83
-12.53
-6.59
-1.17
3.66
7.81
11.15
13.66
15.44
16.73
17.80
18.81
19.75
20.48
20.84
20.79
20.35
19.65
18.84
17.99
17.13
16.21
15.11
13.73
11.97
9.78
7.26
4.59
2.00
-0.33
-2.40
-4.38
-6.65
-9.57
-13.36
-17.97
-23.01
-27.86
-31.76
-34.06
-34.36
-32.66
-29.29
-24.80
-19.75
-14.56
-9.41
-4.35
0.57
5.21
9.35
12.74
15.28
17.06
18.31
19.30
20.16
20.87
21.30
21.31
20.91
20.23
19.49
18.81
18.15
17.30
16.02
14.17
11.85
9.28
6.70
4.27
1.91
-0.53
-3.22
-6.22
-9.49
-12.97
-16.66
-20.62
-24.85
-29.20
-33.26
-36.45
-38.21
-38.17
-36.29
-32.85
-28.33
-23.22
-17.86
-12.40
-6.84
-1.21
4.33
9.42
13.64
16.71
18.64
19.78
20.64
21.67
22.97
24.34
25.35
25.64
25.13
24.01
22.64
21.36
20.25
19.19
17.97
16.41
14.48
12.25
9.85
7.28
4.52
1.50
-1.76
-5.20
-8.71
-12.25
-15.92
-19.88
-24.20
-28.71
-32.99
-36.42
-38.37
-38.46
-36.61
-33.08
-28.30
-22.75
-16.82
-10.79
-4.81
0.97
6.39
11.23
15.32
18.57
21.00
22.80
24.19
25.36
26.34
27.04
27.29
27.01
26.23
25.16
24.04
23.02
22.13
21.18
19.94
18.16
15.74
12.72
9.25
5.57
1.91
-1.55
-4.75
-7.74
-10.71
-13.90
-17.57
-21.85
-26.71
-31.92
-37.09
-41.72
-45.29
-47.35
-47.56
-45.80
-42.24
-37.27
-31.44
-25.28
-19.14
-13.10
-7.13
-1.19
4.58
9.92
14.51
18.17
20.97
23.18
25.09
26.87
28.48
29.74
30.50
30.69
30.42
29.88
29.22
28.52
27.73
26.72
25.33
23.45
21.04
18.13
14.84
11.34
7.83
4.44
1.21
-2.00
-5.41
-9.27
-13.69
-18.61
-23.73
-28.60
-32.68
-35.49
-36.67
-36.07
-33.72
-29.85
-24.81
-19.07
-13.01
-6.95
-1.12
4.36
9.38
13.82
17.51
20.34
22.30
23.54
24.34
25.01
25.76
26.55
27.14
27.22
26.61
25.39
23.89
22.44
21.18
19.98
18.45
16.26
13.29
9.72
5.94
2.38
-0.73
-3.37
-5.73
-8.11
-10.83
-14.13
-18.17
-22.94
-28.26
-33.74
-38.81
-42.86
-45.37
-45.99
-44.65
-41.54
-37.06
-31.64
-25.73
-19.58
-13.35
-7.07
-0.80
5.27
10.89
15.76
19.69
22.61
24.69
26.17
27.27
28.15
28.86
29.37
29.64
29.68
29.51
29.14
28.52
27.54
26.06
23.95
21.20
17.93
14.38
10.87
7.67
4.93
2.60
0.44
-1.91
-4.83
-8.59
-13.26
-18.74
-24.71
-30.67
-36.01
-40.04
-42.23
-42.26
-40.16
-36.28
-31.18
-25.44
-19.56
-13.80
-8.27
-2.93
2.22
7.15
11.69
15.65
18.85
21.20
22.82
23.91
24.74
25.49
26.16
26.63
26.75
26.42
25.72
24.78
23.74
22.59
21.18
19.34
16.97
14.12
11.01
7.86
4.82
1.87
-1.13
-4.35
-7.88
-11.73
-15.81
-20.06
-24.47
-29.04
-33.73
-38.35
-42.52
-45.74
-47.50
-47.47
-45.66
-42.32
-37.93
-32.88
-27.41
-21.54
-15.23
-8.57
-1.94
4.10
8.97
12.44
14.72
16.38
18.06
20.10
22.41
24.58
26.14
26.87
26.89
26.53
26.15
25.89
25.64
25.12
24.06
22.33
20.02
17.29
14.36
11.41
8.54
5.77
3.10
0.45
-2.29
-5.32
-8.86
-13.10
-18.06
-23.51
-28.85
-33.29
-36.02
-36.47
-34.59
-30.78
-25.78
-20.37
-15.07
-10.07
-5.26
-0.46
4.36
9.03
13.23
16.65
19.13
20.77
21.84
22.66
23.44
24.24
24.89
25.13
24.77
23.82
22.47
21.00
19.64
18.39
17.07
15.40
13.15
10.34
7.17
3.97
1.01
-1.68
-4.22
-6.88
-9.92
-13.52
-17.68
-22.29
-27.12
-31.92
-36.38
-40.12
-42.75
-43.88
-43.24
-40.84
-36.96
-32.07
-26.67
-21.08
-15.39
-9.54
-3.46
2.74
8.72
14.01
18.22
21.19
23.09
24.29
25.22
26.13
27.07
27.89
28.33
28.26
27.63
26.59
25.32
23.96
22.50
20.82
18.78
16.30
13.45
10.39
7.31
4.35
1.56
-1.17
-3.96
-6.99
-10.41
-14.27
-18.57
-23.16
-27.83
-32.26
-36.04
-38.78
-40.13
-39.83
-37.90
-34.55
-30.18
-25.23
-20.02
-14.65
-9.10
-3.35
2.42
7.84
12.45
15.91
18.21
19.63
20.61
21.58
22.71
23.91
24.89
25.34
25.10
24.25
23.00
21.65
20.37
19.14
17.78
16.06
13.82
11.08
8.05
5.01
2.18
-0.34
-2.68
-5.07
-7.77
-10.92
-14.55
-18.58
-22.89
-27.39
-31.98
-36.46
-40.49
-43.54
-45.09
-44.80
-42.66
-39.01
-34.38
-29.26
-23.91
-18.36
-12.49
-6.33
-0.19
5.44
10.03
13.34
15.48
16.92
18.19
19.65
21.34
22.97
24.16
24.65
24.46
23.86
23.22
22.80
22.68
22.66
22.44
21.68
20.16
17.91
15.10
12.02
8.92
5.91
2.97
-0.04
-3.25
-6.79
-10.73
-15.17
-20.12
-25.40
-30.58
-35.00
-37.92
-38.78
-37.37
-33.96
-29.09
-23.39
-17.35
-11.25
-5.19
0.75
6.43
11.58
15.92
19.28
21.65
23.22
24.28
25.13
25.89
26.55
26.95
26.92
26.40
25.47
24.30
23.01
21.64
20.06
18.08
15.54
12.45
9.00
5.50
2.21
-0.76
-3.50
-6.27
-9.38
-13.07
-17.51
-22.69
-28.40
-34.16
-39.30
-43.04
-44.77
-44.23
-41.63
-37.51
-32.57
-27.29
-21.85
-16.07
-9.70
-2.57
5.16
13.00
20.18
25.90
29.57
31.00
30.52
28.83
26.80
25.08
23.94
23.28
22.75
22.06
21.15
20.18
19.36
18.80
18.33
17.60
16.23
14.04
11.16
7.91
4.70
1.82
-0.71
-3.15
-5.85
-9.10
-13.05
-17.57
-22.44
-27.28
-31.72
-35.33
-37.70
-38.49
-37.53
-34.89
-30.88
-25.96
-20.54
-15.00
-9.52
-4.23
0.77
5.35
9.35
12.72
15.47
17.75
19.72
21.49
23.04
24.22
24.87
24.89
24.33
23.31
22.05
20.75
19.50
18.32
17.10
15.65
13.80
11.42
8.53
5.31
2.06
-0.95
-3.56
-5.85
-8.05
-10.44
-13.20
-16.45
-20.18
-24.33
-28.79
-33.26
-37.25
-40.17
-41.47
-40.85
-38.36
-34.38
-29.45
-24.02
-18.39
-12.68
-6.95
-1.27
4.17
9.07
13.17
16.29
18.47
19.96
21.11
22.21
23.36
24.46
25.28
25.67
25.64
25.38
25.06
24.68
24.07
22.93
21.07
18.54
15.61
12.63
9.87
7.35
4.94
2.41
-0.43
-3.58
-7.06
-10.79
-14.82
-19.15
-23.68
-28.12
-31.95
-34.58
-35.58
-34.76
-32.27
-28.44
-23.65
-18.19
-12.25
-6.04
0.16
5.92
10.81
14.52
16.99
18.43
19.26
19.94
20.73
21.73
22.76
23.54
23.80
23.42
22.49
21.24
19.93
18.72
17.57
16.30
14.67
12.53
9.90
6.97
4.06
1.39
-1.00
-3.25
-5.61
-8.37
-11.69
-15.63
-20.16
-25.10
-30.18
-34.94
-38.80
-41.16
-41.55
-39.87
-36.37
-31.58
-26.07
-20.28
-14.42
-8.58
-2.82
2.73
7.84
12.26
15.88
18.73
20.93
22.69
24.19
25.52
26.70
27.66
28.29
28.49
28.17
27.34
26.07
24.53
22.82
21.01
19.03
16.80
14.26
11.48
8.61
5.77
3.01
0.21
-2.82
-6.21
-10.02
-14.19
-18.64
-23.27
-27.98
-32.60
-36.76
-39.99
-41.79
-41.85
-40.18
-37.07
-32.98
-28.31
-23.28
-17.93
-12.28
-6.53
-1.06
3.60
7.06
9.26
10.55
11.53
12.76
14.50
16.57
18.55
19.94
20.49
20.25
19.56
18.87
18.47
18.42
18.51
18.38
17.68
16.29
14.32
12.05
9.78
7.66
5.57
3.30
0.62
-2.57
-6.20
-10.13
-14.28
-18.61
-22.97
-27.06
-30.35
-32.24
-32.27
-30.33
-26.75
-22.13
-17.09
-12.07
-7.21
-2.45
2.33
7.10
11.67
15.71
18.95
21.29
22.84
23.81
24.43
24.82
25.00
24.94
24.61
24.05
23.30
22.40
21.33
20.03
18.43
16.43
14.06
11.40
8.58
5.69
2.79
-0.15
-3.24
-6.60
-10.35
-14.58
-19.31
-24.51
-29.98
-35.40
-40.28
-44.07
-46.29
-46.72
-45.40
-42.55
-38.47
-33.39
-27.48
-20.91
-13.96
-7.03
-0.60
4.96
9.48
13.05
15.90
18.27
20.34
22.18
23.82
25.23
26.40
27.26
27.73
27.72
27.24
26.40
25.37
24.29
23.18
21.89
20.18
17.89
15.01
11.69
8.21
4.76
1.37
-2.14
-6.04
-10.60
-15.96
-22.02
-28.38
-34.38
-39.23
-42.21
-42.90
-41.30
-37.78
-32.93
-27.39
-21.60
-15.79
-10.09
-4.54
0.73
5.55
9.78
13.37
16.35
18.85
21.03
22.98
24.70
26.08
26.98
27.33
27.19
26.74
26.20
25.63
24.91
23.72
21.77
18.91
15.32
11.42
7.70
4.43
1.58
-1.20
-4.42
-8.53
-13.71
-19.77
-26.15
-32.10
-36.76
-39.47
-39.89
-38.08
-34.40
-29.42
-23.67
-17.52
-11.24
-4.98
1.13
6.88
12.05
16.45
20.01
22.77
24.85
26.39
27.50
28.24
28.61
28.64
28.37
27.87
27.24
26.51
25.63
24.50
22.97
20.92
18.35
15.39
12.22
9.07
6.03
3.05
-0.02
-3.41
-7.26
-11.64
-16.46
-21.57
-26.74
-31.65
-35.86
-38.84
-40.08
-39.24
-36.33
-31.74
-26.14
-20.21
-14.39
-8.78
-3.24
2.38
7.99
13.18
17.39
20.21
21.57
21.85
21.66
21.55
21.84
22.50
23.34
24.11
24.70
25.13
25.49
25.84
26.09
26.11
25.70
24.78
23.34
21.51
19.50
17.47
15.45
13.30
10.75
7.57
3.72
-0.64
-5.18
-9.66
-14.00
-18.20
-22.23
-25.82
-28.47
-29.59
-28.76
-25.94
-21.52
-16.16
-10.53
-5.13
-0.20
4.11
7.73
10.50
12.36
13.36
13.74
13.88
14.13
14.62
15.22
15.61
15.49
14.74
13.52
12.21
11.19
10.63
10.45
10.33
9.93
9.03
7.55
5.64
3.47
1.21
-1.03
-3.21
-5.33
-7.38
-9.42
-11.54
-13.87
-16.58
-19.72
-23.18
-26.64
-29.54
-31.26
-31.30
-29.47
-25.94
-21.25
-16.06
-10.92
-6.17
-1.91
1.91
5.30
8.15
10.31
11.64
12.18
12.13
11.78
11.43
11.21
11.09
10.90
10.47
9.68
8.52
7.11
5.57
4.01
2.44
0.80
-0.95
-2.80
-4.66
-6.42
-8.01
-9.48
-10.98
-12.74
-14.97
-17.78
-21.15
-24.90
-28.69
-32.02
-34.36
-35.23
-34.34
-31.70
-27.61
-22.53
-16.98
-11.37
-5.98
-0.95
3.62
7.69
11.19
14.04
16.20
17.69
18.59
19.06
19.27
19.39
19.48
19.53
19.50
19.27
18.77
17.92
16.69
15.03
12.90
10.36
7.51
4.53
1.63
-1.06
-3.52
-5.87
-8.34
-11.16
-14.47
-18.24
-22.28
-26.20
-29.50
-31.69
-32.40
-31.47
-28.96
-25.12
-20.35
-15.05
-9.59
-4.26
0.73
5.21
9.08
12.26
14.70
16.42
17.51
18.12
18.46
18.67
18.86
19.03
19.10
18.96
18.55
17.83
16.82
15.54
14.00
12.22
10.22
8.10
5.95
3.84
1.78
-0.35
-2.75
-5.64
-9.16
-13.30
-17.89
-22.54
-26.78
-30.03
-31.81
-31.84
-30.06
-26.73
-22.33
-17.38
-12.34
-7.52
-3.03
1.07
4.75
7.95
10.57
12.56
14.00
15.05
15.91
16.75
17.60
18.35
18.83
18.90
18.52
17.79
16.88
15.97
15.17
14.47
13.74
12.83
11.58
9.92
7.82
5.32
2.46
-0.71
-4.20
-7.98
-12.06
-16.38
-20.80
-24.94
-28.28
-30.19
-30.13
-27.90
-23.74
-18.29
-12.32
-6.52
-1.29
3.24
7.06
10.15
12.43
13.86
14.58
14.93
15.40
16.35
17.85
19.65
21.26
22.22
22.21
21.28
19.71
17.89
16.14
14.59
13.13
11.55
9.65
7.38
4.85
2.23
-0.39
-3.00
-5.74
-8.77
-12.16
-15.87
-19.69
-23.30
-26.32
-28.33
-28.95
-27.96
-25.33
-21.31
-16.35
-10.96
-5.65
-0.80
3.33
6.64
9.11
10.88
12.18
13.30
14.50
15.94
17.60
19.32
20.83
21.95
22.57
22.70
22.47
21.99
21.34
20.53
19.52
18.24
16.63
14.66
12.32
9.67
6.80
3.85
0.95
-1.81
-4.50
-7.27
-10.28
-13.55
-16.81
-19.55
-21.18
-21.24
-19.59
-16.50
-12.50
-8.26
-4.32
-1.03
1.44
3.12
4.11
4.57
4.67
4.59
4.48
4.49
4.70
5.08
5.55
5.95
6.13
5.96
5.40
4.47
3.26
1.88
0.47
-0.86
-2.09
-3.26
-4.50
-5.98
-7.78
-9.90
-12.25
-14.73
-17.30
-20.05
-23.03
-26.12
-28.92
-30.79
-31.09
-29.45
-25.96
-21.15
-15.78
-10.55
-5.88
-1.91
1.41
4.13
6.23
7.65
8.35
8.45
8.14
7.69
7.26
6.92
6.59
6.18
5.62
4.95
4.19
3.38
2.48
1.38
-0.02
-1.81
-3.95
-6.35
-8.89
-11.47
-14.08
-16.73
-19.50
-22.48
-25.73
-29.25
-32.85
-36.17
-38.69
-39.84
-39.23
-36.75
-32.67
-27.57
-22.09
-16.81
-12.07
-8.02
-4.62
-1.83
0.43
2.24
3.71
4.97
6.12
7.19
8.09
8.73
9.04
9.04
8.81
8.47
8.11
7.73
7.30
6.74
5.97
4.93
3.55
1.75
-0.46
-3.04
-5.89
-8.90
-12.07
-15.43
-18.99
-22.59
-25.78
-27.92
-28.37
-26.81
-23.37
-18.60
-13.26
-7.99
-3.14
1.20
5.08
8.49
11.31
13.40
14.66
15.21
15.29
15.19
15.14
15.17
15.17
14.94
14.31
13.19
11.61
9.70
7.63
5.55
3.51
1.46
-0.70
-3.11
-5.83
-8.85
-12.14
-15.61
-19.27
-23.09
-27.00
-30.78
-34.00
-36.14
-36.72
-35.51
-32.59
-28.36
-23.33
-17.97
-12.56
-7.22
-1.96
3.09
7.73
11.64
14.54
16.35
17.23
17.52
17.65
17.88
18.25
18.57
18.55
17.98
16.87
15.42
13.84
12.30
10.77
9.08
7.03
4.52
1.58
-1.62
-4.89
-8.12
-11.32
-14.66
-18.33
-22.37
-26.58
-30.44
-33.26
-34.38
-33.45
-30.53
-26.01
-20.49
-14.49
-8.31
-2.11
4.01
9.83
15.04
19.29
22.39
24.37
25.50
26.15
26.59
26.97
27.23
27.30
27.11
26.72
26.23
25.70
25.09
24.21
22.90
21.09
18.86
16.44
14.04
11.71
9.36
6.78
3.75
0.18
-3.95
-8.60
-13.69
-19.08
-24.43
-29.25
-32.88
-34.71
-34.37
-31.88
-27.61
-22.15
-16.07
-9.80
-3.59
2.37
7.92
12.86
16.97
20.14
22.40
23.95
25.03
25.91
26.70
27.38
27.80
27.84
27.46
26.75
25.89
25.05
24.27
23.45
22.39
20.90
18.87
16.36
13.53
10.57
7.65
4.86
2.17
-0.53
-3.42
-6.69
-10.45
-14.73
-19.35
-23.95
-27.93
-30.67
-31.62
-30.48
-27.30
-22.43
-16.37
-9.66
-2.73
4.10
10.64
16.70
22.12
26.76
30.51
33.35
35.38
36.72
37.56
37.99
38.05
37.69
36.85
35.56
33.94
32.19
30.48
28.84
27.17
25.22
22.77
19.72
16.14
12.23
8.27
4.42
0.75
-2.82
-6.41
-10.20
-14.32
-18.86
-23.83
-29.14
-34.56
-39.71
-44.04
-46.99
-48.15
-47.33
-44.64
-40.50
-35.42
-29.89
-24.21
-18.55
-12.93
-7.45
-2.33
2.14
5.65
8.09
9.62
10.62
11.49
12.53
13.73
14.86
15.63
15.83
15.55
15.10
14.81
14.92
15.39
15.89
16.01
15.41
13.99
11.89
9.44
6.92
4.46
2.04
-0.47
-3.16
-6.06
-9.19
-12.63
-16.49
-20.75
-25.15
-29.10
-31.82
-32.65
-31.26
-27.83
-22.92
-17.19
-11.19
-5.18
0.73
6.54
12.09
17.09
21.21
24.20
26.08
27.07
27.51
27.72
27.82
27.75
27.45
26.89
26.19
25.51
24.91
24.29
23.39
22.00
19.98
17.38
14.37
11.14
7.83
4.58
1.46
-1.50
-4.40
-7.46
-11.03
-15.39
-20.57
-26.24
-31.70
-36.11
-38.72
-39.15
-37.45
-34.04
-29.48
-24.24
-18.63
-12.76
-6.72
-0.68
5.03
10.07
14.20
17.48
20.16
22.57
24.88
26.97
28.55
29.28
29.02
27.96
26.51
25.12
24.07
23.27
22.39
21.02
18.91
16.15
13.12
10.31
8.06
6.33
4.86
3.18
0.99
-1.80
-5.10
-8.72
-12.60
-16.84
-21.57
-26.80
-32.23
-37.25
-41.14
-43.28
-43.38
-41.52
-38.05
-33.40
-27.96
-22.02
-15.77
-9.40
-3.13
2.85
8.31
13.07
17.01
20.04
22.17
23.50
24.23
24.60
24.85
25.08
25.33
25.53
25.58
25.44
25.12
24.61
23.92
22.97
21.66
19.91
17.71
15.16
12.45
9.76
7.22
4.87
2.62
0.41
-1.83
-4.16
-6.68
-9.67
-13.44
-18.24
-23.94
-29.98
-35.44
-39.33
-40.93
-40.09
-37.18
-32.97
-28.24
-23.57
-19.20
-15.08
-11.05
-7.04
-3.17
0.40
3.45
5.90
7.88
9.56
11.08
12.49
13.69
14.55
15.03
15.22
15.33
15.55
15.96
16.49
16.93
17.03
16.64
15.70
14.27
12.47
10.52
8.55
6.61
4.60
2.35
-0.32
-3.49
-7.09
-10.95
-14.92
-18.92
-22.92
-26.76
-30.11
-32.48
-33.35
-32.43
-29.79
-25.84
-21.12
-16.06
-10.89
-5.64
-0.33
4.90
9.73
13.81
16.84
18.78
19.80
20.19
20.27
20.26
20.24
20.18
19.98
19.50
18.69
17.54
16.13
14.55
12.88
11.14
9.32
7.39
5.32
3.13
0.84
-1.51
-3.91
-6.38
-8.98
-11.77
-14.82
-18.21
-22.00
-26.12
-30.34
-34.21
-37.13
-38.57
-38.23
-36.10
-32.50
-27.87
-22.65
-17.12
-11.40
-5.61
0.07
5.42
10.16
14.11
17.24
19.62
21.41
22.79
23.91
24.84
25.56
25.97
25.94
25.35
24.20
22.63
20.88
19.21
17.73
16.38
14.94
13.17
10.88
8.10
5.01
1.92
-0.92
-3.40
-5.62
-7.81
-10.28
-13.29
-16.98
-21.34
-26.21
-31.17
-35.61
-38.80
-40.06
-39.05
-35.98
-31.52
-26.54
-21.72
-17.26
-12.87
-8.16
-2.94
2.58
7.79
12.13
15.28
17.31
18.55
19.43
20.14
20.77
21.26
21.56
21.64
21.50
21.13
20.49
19.53
18.26
16.73
14.96
13.01
10.87
8.59
6.17
3.66
1.06
-1.72
-4.77
-8.21
-12.10
-16.38
-20.97
-25.76
-30.62
-35.33
-39.56
-42.83
-44.62
-44.57
-42.60
-38.99
-34.26
-28.97
-23.54
-18.17
-12.84
-7.47
-2.14
2.94
7.42
10.97
13.48
15.06
16.03
16.79
17.58
18.45
19.25
19.74
19.74
19.26
18.45
17.56
16.72
15.92
14.99
13.70
11.90
9.65
7.21
4.87
2.85
1.14
-0.52
-2.47
-5.05
-8.41
-12.52
-17.17
-22.05
-26.69
-30.52
-32.94
-33.48
-31.99
-28.69
-24.14
-18.96
-13.67
-8.45
-3.27
2.01
7.37
12.61
17.32
21.10
23.71
25.19
25.81
25.96
25.93
25.87
25.67
25.21
24.39
23.29
22.11
21.04
20.09
19.09
17.78
15.88
13.34
10.32
7.14
4.08
1.26
-1.40
-4.15
-7.22
-10.81
-15.03
-19.93
-25.46
-31.34
-36.99
-41.55
-44.09
-44.01
-41.24
-36.41
-30.46
-24.35
-18.58
-13.17
-7.79
-2.10
3.89
9.79
14.95
18.81
21.17
22.27
22.66
22.93
23.35
23.85
24.10
23.76
22.78
21.42
20.11
19.20
18.64
18.05
16.93
14.85
11.80
8.11
4.34
0.96
-1.82
-4.13
-6.33
-8.85
-12.00
-15.90
-20.47
-25.51
-30.70
-35.62
-39.74
-42.48
-43.37
-42.20
-39.08
-34.40
-28.65
-22.23
-15.37
-8.18
-0.82
6.43
13.12
18.82
23.25
26.40
28.51
29.97
31.10
32.12
33.03
33.71
34.06
34.02
33.63
32.98
32.14
31.12
29.88
28.30
26.27
23.71
20.58
16.90
12.73
8.22
3.58
-0.98
-5.26
-9.21
-12.92
-16.68
-20.85
-25.74
-31.45
-37.71
-43.85
-48.97
-52.19
-52.94
-51.15
-47.29
-42.06
-36.22
-30.21
-24.19
-18.05
-11.74
-5.34
0.80
6.28
10.79
14.18
16.51
17.99
18.84
19.30
19.59
19.87
20.22
20.65
21.04
21.22
21.08
20.57
19.73
18.61
17.25
15.66
13.86
11.91
9.96
8.12
6.41
4.73
2.85
0.52
-2.44
-6.09
-10.36
-15.06
-19.95
-24.71
-28.95
-32.18
-33.98
-34.02
-32.22
-28.80
-24.11
-18.57
-12.44
-5.88
1.03
8.08
14.85
20.70
25.01
27.44
28.10
27.57
26.66
26.10
26.23
26.95
27.83
28.38
28.27
27.40
25.87
23.83
21.45
18.86
16.24
13.75
11.46
9.35
7.24
4.91
2.23
-0.78
-4.03
-7.44
-11.00
-14.81
-18.98
-23.55
-28.39
-33.16
-37.37
-40.46
-41.90
-41.36
-38.76
-34.32
-28.46
-21.72
-14.56
-7.33
-0.30
6.34
12.34
17.46
21.56
24.61
26.86
28.63
30.27
31.94
33.55
34.80
35.33
34.95
33.72
31.99
30.14
28.46
26.95
25.40
23.44
20.81
17.41
13.38
8.97
4.52
0.29
-3.55
-7.00
-10.19
-13.34
-16.71
-20.50
-24.84
-29.72
-34.96
-40.24
-45.02
-48.72
-50.77
-50.80
-48.73
-44.78
-39.41
-33.13
-26.37
-19.35
-12.19
-4.98
2.12
8.80
14.70
19.47
22.96
25.25
26.66
27.63
28.51
29.48
30.46
31.29
31.79
31.94
31.83
31.59
31.21
30.58
29.47
27.68
25.20
22.18
18.93
15.74
12.84
10.22
7.76
5.20
2.30
-1.10
-5.03
-9.43
-14.18
-19.14
-24.16
-29.00
-33.19
-36.15
-37.35
-36.44
-33.53
-29.09
-23.79
-18.21
-12.69
-7.25
-1.84
3.52
8.59
12.98
16.31
18.42
19.39
19.53
19.21
18.73
18.24
17.75
17.19
16.46
15.54
14.46
13.32
12.22
11.12
9.95
8.53
6.73
4.47
1.83
-1.02
-3.82
-6.36
-8.49
-10.23
-11.77
-13.41
-15.47
-18.14
-21.51
-25.46
-29.76
-34.07
-37.97
-40.95
-42.51
-42.23
-39.96
-35.86
-30.36
-24.07
-17.53
-11.16
-5.15
0.39
5.39
9.70
13.19
15.74
17.41
18.40
19.04
19.62
20.33
21.10
21.72
21.93
21.62
20.82
19.78
18.69
17.67
16.62
15.31
13.51
11.15
8.34
5.30
2.31
-0.51
-3.20
-5.98
-9.08
-12.64
-16.69
-21.12
-25.74
-30.26
-34.31
-37.45
-39.19
-39.15
-37.19
-33.50
-28.52
-22.84
-16.95
-11.12
-5.44
0.07
5.31
10.03
13.94
16.84
18.81
20.12
21.18
22.26
23.43
24.45
24.95
24.72
23.76
22.37
20.95
19.88
19.26
18.98
18.67
17.98
16.60
14.44
11.62
8.40
5.06
1.79
-1.37
-4.50
-7.78
-11.38
-15.42
-19.97
-25.00
-30.33
-35.61
-40.28
-43.63
-45.06
-44.27
-41.39
-36.85
-31.28
-25.19
-18.87
-12.41
-5.84
0.72
6.98
12.55
17.07
20.36
22.44
23.52
23.92
23.92
23.70
23.33
22.84
22.23
21.52
20.75
19.91
18.95
17.77
16.28
14.40
12.14
9.56
6.80
4.04
1.44
-0.92
-3.05
-5.16
-7.49
-10.27
-13.61
-17.43
-21.57
-25.81
-30.01
-34.01
-37.59
-40.37
-41.87
-41.72
-39.71
-35.99
-31.00
-25.26
-19.22
-13.11
-6.98
-0.86
5.14
10.67
15.29
18.62
20.56
21.38
21.61
21.81
22.32
23.09
23.81
24.12
23.92
23.39
22.88
22.62
22.58
22.40
21.62
19.95
17.40
14.32
11.11
8.08
5.35
2.84
0.43
-2.00
-4.62
-7.59
-11.19
-15.62
-20.91
-26.71
-32.30
-36.80
-39.39
-39.62
-37.52
-33.53
-28.32
-22.55
-16.70
-10.99
-5.44
-0.02
5.30
10.40
15.01
18.88
21.82
23.89
25.28
26.29
27.11
27.74
27.97
27.59
26.54
25.01
23.37
21.96
20.93
20.07
18.95
17.14
14.47
11.16
7.68
4.53
1.98
-0.10
-2.13
-4.63
-7.98
-12.29
-17.39
-22.97
-28.65
-34.08
-38.83
-42.42
-44.41
-44.45
-42.50
-38.83
-33.97
-28.49
-22.83
-17.15
-11.33
-5.20
1.28
7.86
14.05
19.33
23.31
25.94
27.42
28.14
28.49
28.79
29.21
29.71
30.16
30.32
29.98
28.99
27.38
25.38
23.30
21.40
19.70
17.98
15.89
13.19
9.83
6.05
2.24
-1.28
-4.39
-7.24
-10.16
-13.52
-17.60
-22.44
-27.87
-33.52
-38.88
-43.36
-46.40
-47.52
-46.49
-43.39
-38.56
-32.58
-26.02
-19.38
-12.89
-6.57
-0.33
5.83
11.79
17.29
22.06
25.91
28.79
30.81
32.09
32.80
33.04
32.92
32.52
31.96
31.31
30.64
29.90
29.02
27.88
26.37
24.42
21.99
19.14
15.95
12.54
9.03
5.51
2.09
-1.16
-4.18
-6.97
-9.68
-12.52
-15.79
-19.71
-24.37
-29.70
-35.40
-41.04
-46.03
-49.77
-51.72
-51.58
-49.29
-45.17
-39.75
-33.66
-27.41
-21.27
-15.24
-9.14
-2.88
3.43
9.48
14.78
18.95
21.89
23.80
25.07
26.06
26.96
27.71
28.20
28.29
28.00
27.43
26.73
25.96
25.07
23.96
22.50
20.65
18.45
16.00
13.48
11.02
8.68
6.44
4.18
1.74
-1.04
-4.25
-7.87
-11.84
-16.08
-20.54
-25.12
-29.67
-33.84
-37.13
-39.00
-39.04
-37.10
-33.41
-28.46
-22.78
-16.80
-10.73
-4.63
1.45
7.36
12.76
17.24
20.53
22.57
23.63
24.13
24.53
25.09
25.82
26.49
26.84
26.66
25.99
25.01
23.96
22.96
21.95
20.68
18.85
16.28
13.00
9.30
5.57
2.13
-0.92
-3.70
-6.53
-9.74
-13.55
-18.03
-23.08
-28.48
-33.85
-38.73
-42.54
-44.73
-44.90
-42.97
-39.22
-34.17
-28.36
-22.27
-16.09
-9.88
-3.67
2.45
8.24
13.35
17.52
20.63
22.84
24.41
25.68
26.84
27.95
28.86
29.42
29.54
29.25
28.67
27.90
26.97
25.81
24.25
22.18
19.48
16.18
12.44
8.54
4.77
1.36
-1.62
-4.34
-7.12
-10.31
-14.15
-18.71
-23.87
-29.31
-34.57
-39.08
-42.28
-43.72
-43.20
-40.85
-37.04
-32.24
-26.82
-20.97
-14.75
-8.25
-1.65
4.69
10.41
15.22
19.00
21.79
23.73
25.03
25.94
26.63
27.24
27.80
28.24
28.49
28.50
28.26
27.84
27.33
26.77
26.13
25.33
24.23
22.68
20.60
17.99
15.02
11.96
9.07
6.46
4.06
1.56
-1.43
-5.27
-10.14
-15.94
-22.22
-28.32
-33.37
-36.57
-37.36
-35.61
-31.63
-26.13
-19.91
-13.68
-7.83
-2.50
2.35
6.75
10.69
14.12
17.02
19.54
21.87
24.16
26.41
28.39
29.71
30.02
29.16
27.28
24.77
22.11
19.65
17.49
15.46
13.24
10.58
7.40
3.84
0.19
-3.33
-6.59
-9.70
-12.85
-16.28
-20.12
-24.42
-29.17
-34.30
-39.70
-45.05
-49.83
-53.38
-55.09
-54.64
-52.16
-48.11
-43.11
-37.63
-31.83
-25.68
-19.15
-12.37
-5.76
0.18
5.02
8.59
11.00
12.57
13.62
14.40
15.04
15.54
15.89
16.04
15.94
15.60
15.05
14.40
13.79
13.31
12.95
12.58
12.01
11.11
9.87
8.36
6.66
4.79
2.67
0.21
-2.69
-6.01
-9.74
-13.85
-18.29
-22.86
-27.12
-30.40
-32.03
-31.58
-29.06
-24.91
-19.78
-14.18
-8.34
-2.27
4.00
10.25
15.96
20.54
23.55
24.98
25.21
24.91
24.81
25.34
26.60
28.31
29.99
31.19
31.59
31.12
29.89
28.12
26.03
23.75
21.40
19.01
16.58
14.10
11.55
8.88
6.12
3.34
0.60
-2.11
-4.90
-8.02
-11.71
-16.12
-21.21
-26.64
-31.81
-35.96
-38.35
-38.51
-36.37
-32.29
-26.91
-20.92
-14.83
-8.94
-3.31
1.99
6.89
11.23
14.90
17.91
20.42
22.67
24.77
26.72
28.30
29.26
29.40
28.71
27.41
25.77
24.10
22.56
21.14
19.64
17.85
15.65
13.09
10.40
7.84
5.54
3.45
1.30
-1.19
-4.25
-7.97
-12.28
-17.04
-22.06
-27.08
-31.67
-35.30
-37.39
-37.52
-35.64
-32.05
-27.38
-22.32
-17.39
-12.85
-8.76
-5.11
-1.92
0.71
2.70
4.09
5.09
5.98
6.97
8.08
9.12
9.80
9.96
9.61
9.04
8.61
8.52
8.74
8.96
8.80
7.90
6.15
3.63
0.63
-2.54
-5.60
-8.43
-11.10
-13.86
-17.00
-20.73
-25.05
-29.69
-34.16
-37.82
-40.10
-40.58
-39.08
-35.69
-30.75
-24.75
-18.23
-11.66
-5.40
0.33
5.37
9.56
12.81
15.11
16.70
17.90
19.13
20.57
22.18
23.60
24.45
24.47
23.61
22.06
20.09
17.93
15.70
13.43
11.11
8.73
6.28
3.75
1.13
-1.59
-4.42
-7.32
-10.31
-13.45
-16.86
-20.66
-24.88
-29.32
-33.49
-36.70
-38.26
-37.70
-34.97
-30.49
-24.91
-18.89
-12.87
-7.01
-1.30
4.21
9.30
13.65
17.06
19.54
21.38
23.03
24.79
26.67
28.43
29.69
30.21
30.01
29.36
28.61
28.00
27.60
27.24
26.64
25.55
23.84
21.50
18.68
15.58
12.43
9.36
6.37
3.39
0.30
-3.06
-6.78
-10.85
-15.16
-19.43
-23.21
-25.97
-27.20
-26.63
-24.29
-20.52
-15.87
-10.87
-5.97
-1.50
2.33
5.37
7.56
8.96
9.80
10.41
11.05
11.81
12.57
13.07
13.09
12.56
11.60
10.43
9.28
8.27
7.41
6.59
5.66
4.46
2.87
0.84
-1.58
-4.23
-6.83
-9.19
-11.21
-13.03
-14.95
-17.33
-20.44
-24.28
-28.57
-32.79
-36.25
-38.26
-38.29
-36.15
-32.03
-26.46
-20.18
-13.86
-7.98
-2.72
1.92
5.91
9.18
11.60
13.11
13.90
14.31
14.71
15.29
15.96
16.47
16.52
16.03
15.07
13.87
12.60
11.26
9.78
8.00
5.88
3.48
0.94
-1.64
-4.23
-6.91
-9.82
-13.11
-16.92
-21.31
-26.22
-31.43
-36.47
-40.71
-43.44
-44.14
-42.63
-39.15
-34.29
-28.74
-23.06
-17.55
-12.25
-7.08
-2.00
2.88
7.36
11.18
14.12
16.06
17.01
17.12
16.65
15.91
15.15
14.55
14.19
14.00
13.89
13.65
13.04
11.84
9.95
7.43
4.56
1.70
-0.81
-2.86
-4.57
-6.36
-8.64
-11.77
-15.82
-20.64
-25.77
-30.50
-34.05
-35.67
-34.90
-31.72
-26.58
-20.26
-13.59
-7.16
-1.19
4.38
9.70
14.80
19.45
23.33
26.16
27.86
28.63
28.78
28.60
28.20
27.56
26.60
25.33
23.87
22.39
20.99
19.59
17.97
15.87
13.16
9.92
6.36
2.76
-0.73
-4.11
-7.60
-11.43
-15.83
-20.82
-26.20
-31.53
-36.16
-39.41
-40.71
-39.80
-36.78
-32.08
-26.30
-20.00
-13.54
-7.03
-0.46
6.13
12.47
18.10
22.53
25.48
27.02
27.51
27.46
27.26
27.11
27.01
26.88
26.68
26.39
25.99
25.39
24.38
22.75
20.37
17.31
13.81
10.17
6.64
3.33
0.18
-2.98
-6.40
-10.35
-15.00
-20.35
-26.17
-31.94
-36.94
-40.41
-41.79
-40.90
-37.99
-33.61
-28.37
-22.68
-16.64
-10.15
-3.13
4.28
11.59
18.17
23.46
27.15
29.40
30.63
31.35
31.99
32.65
33.23
33.46
33.10
32.11
30.65
28.99
27.40
25.92
24.43
22.64
20.28
17.27
13.72
9.91
6.11
2.52
-0.83
-4.04
-7.28
-10.78
-14.75
-19.36
-24.72
-30.74
-37.06
-43.05
-47.95
-51.02
-51.76
-50.08
-46.26
-40.77
-34.21
-27.02
-19.46
-11.66
-3.72
4.18
11.70
18.41
23.95
28.16
31.12
33.17
34.69
35.97
37.12
38.06
38.61
38.68
38.33
37.69
36.93
36.07
35.00
33.49
31.37
28.59
25.26
21.56
17.69
13.76
9.80
5.80
1.71
-2.54
-7.01
-11.79
-16.96
-22.51
-28.38
-34.31
-39.92
-44.69
-48.07
-49.63
-49.11
-46.53
-42.13
-36.34
-29.58
-22.16
-14.28
-6.10
2.17
10.14
17.29
23.13
27.40
30.17
31.87
33.06
34.22
35.56
36.98
38.12
38.61
38.23
36.99
35.11
32.92
30.72
28.66
26.68
24.55
22.01
18.84
15.06
10.92
6.75
2.85
-0.71
-4.07
-7.49
-11.22
-15.38
-20.01
-25.06
-30.44
-35.94
-41.13
-45.30
-47.67
-47.64
-45.07
-40.34
-34.19
-27.39
-20.44
-13.48
-6.40
0.88
8.24
15.24
21.35
26.12
29.41
31.37
32.39
32.89
33.18
33.40
33.46
33.21
32.48
31.24
29.59
27.69
25.71
23.72
21.73
19.66
17.40
14.88
12.11
9.14
6.05
2.93
-0.22
-3.43
-6.80
-10.34
-14.02
-17.75
-21.48
-25.30
-29.37
-33.78
-38.40
-42.76
-46.13
-47.79
-47.31
-44.71
-40.39
-34.90
-28.71
-22.05
-14.99
-7.63
-0.24
6.74
12.79
17.54
20.94
23.19
24.76
26.06
27.36
28.65
29.74
30.37
30.33
29.60
28.34
26.79
25.22
23.78
22.49
21.23
19.85
18.14
16.02
13.46
10.56
7.43
4.22
1.03
-2.11
-5.18
-8.22
-11.27
-14.40
-17.71
-21.38
-25.58
-30.37
-35.55
-40.57
-44.61
-46.80
-46.61
-44.01
-39.43
-33.63
-27.28
-20.81
-14.32
-7.83
-1.43
4.60
9.88
14.09
17.16
19.27
20.77
21.99
23.12
24.25
25.32
26.28
27.09
27.71
28.12
28.25
28.00
27.27
25.97
24.10
21.77
19.22
16.67
14.30
12.08
9.87
7.45
4.68
1.63
-1.51
-4.45
-7.04
-9.33
-11.60
-14.20
-17.41
-21.32
-25.87
-30.80
-35.68
-39.96
-42.99
-44.17
-43.16
-40.01
-35.19
-29.41
-23.33
-17.37
-11.61
-5.97
-0.41
4.89
9.62
13.43
16.20
18.02
19.20
20.03
20.71
21.27
21.64
21.77
21.62
21.24
20.73
20.15
19.52
18.87
18.14
17.26
16.15
14.73
12.96
10.85
8.43
5.75
2.85
-0.16
-3.17
-6.04
-8.69
-11.12
-13.45
-15.88
-18.62
-21.83
-25.58
-29.74
-33.91
-37.46
-39.60
-39.69
-37.43
-33.01
-27.06
-20.40
-13.69
-7.35
-1.49
3.82
8.48
12.31
15.14
16.99
18.08
18.76
19.36
20.03
20.77
21.44
21.91
22.11
22.00
21.59
20.89
19.91
18.69
17.24
15.62
13.83
11.88
9.76
7.51
5.20
2.93
0.78
-1.24
-3.22
-5.30
-7.67
-10.41
-13.52
-16.90
-20.40
-23.94
-27.42
-30.74
-33.66
-35.82
-36.75
-36.09
-33.68
-29.69
-24.60
-18.99
-13.43
-8.32
-3.82
0.04
3.30
5.99
8.10
9.64
10.67
11.35
11.88
12.42
13.04
13.65
14.06
14.07
13.58
12.65
11.45
10.20
9.03
7.97
6.89
5.55
3.71
1.26
-1.74
-5.01
-8.22
-11.09
-13.53
-15.71
-17.90
-20.34
-23.16
-26.41
-30.08
-34.19
-38.69
-43.31
-47.49
-50.42
-51.36
-49.91
-46.25
-40.98
-34.99
-29.01
-23.47
-18.46
-13.87
-9.56
-5.46
-1.66
1.69
4.48
6.64
8.24
9.45
10.45
11.44
12.53
13.72
14.93
16.06
16.99
17.65
17.94
17.77
17.01
15.61
13.64
11.32
8.96
6.82
5.04
3.49
1.88
-0.10
-2.70
-6.00
-9.88
-14.11
-18.37
-22.23
-25.18
-26.69
-26.36
-24.08
-20.14
-15.15
-9.82
-4.72
-0.06
4.19
8.16
11.88
15.19
17.85
19.71
20.84
21.51
22.02
22.57
23.10
23.38
23.18
22.39
21.12
19.56
17.93
16.28
14.51
12.45
9.93
6.95
3.63
0.16
-3.27
-6.59
-9.85
-13.25
-16.98
-21.20
-25.91
-30.94
-35.90
-40.24
-43.36
-44.72
-44.06
-41.40
-37.10
-31.65
-25.58
-19.22
-12.76
-6.25
0.17
6.24
11.60
15.90
19.00
21.03
22.30
23.16
23.85
24.44
24.84
24.93
24.63
23.92
22.81
21.35
19.54
17.37
14.80
11.86
8.62
5.25
1.94
-1.16
-4.04
-6.86
-9.94
-13.59
-18.00
-23.18
-28.83
-34.48
-39.49
-43.25
-45.25
-45.20
-43.11
-39.22
-33.97
-27.83
-21.18
-14.27
-7.24
-0.21
6.56
12.77
18.07
22.22
25.15
27.06
28.31
29.26
30.18
31.11
31.86
32.18
31.92
31.15
30.15
29.18
28.27
27.18
25.48
22.76
19.01
14.61
10.17
6.25
3.06
0.36
-2.38
-5.65
-9.74
-14.64
-20.18
-26.13
-32.25
-38.18
-43.34
-46.99
-48.38
-47.07
-43.14
-37.21
-30.18
-22.86
-15.73
-8.85
-2.04
4.77
11.43
17.49
22.43
25.95
28.07
29.11
29.57
29.80
29.95
29.93
29.57
28.82
27.78
26.69
25.76
25.06
24.43
23.57
22.17
20.07
17.28
13.97
10.40
6.84
3.46
0.34
-2.60
-5.54
-8.71
-12.33
-16.51
-21.22
-26.31
-31.55
-36.58
-40.93
-44.08
-45.50
-44.83
-41.98
-37.20
-30.95
-23.79
-16.15
-8.31
-0.44
7.29
14.58
21.09
26.49
30.64
33.64
35.78
37.43
38.86
40.20
41.35
42.11
42.29
41.79
40.68
39.11
37.27
35.28
33.14
30.70
27.81
24.33
20.25
15.71
10.91
6.06
1.22
-3.68
-8.81
-14.33
-20.34
-26.81
-33.52
-40.14
-46.13
-50.86
-53.66
-53.95
-51.45
-46.23
-38.73
-29.66
-19.85
-10.06
-0.87
7.33
14.36
20.17
24.85
28.51
31.32
33.42
34.95
36.00
36.66
36.94
36.86
36.35
35.39
34.02
32.36
30.62
28.96
27.38
25.76
23.85
21.41
18.34
14.69
10.68
6.53
2.38
-1.74
-5.92
-10.33
-15.16
-20.60
-26.74
-33.48
-40.45
-46.97
-52.18
-55.29
-55.79
-53.69
-49.40
-43.56
-36.78
-29.42
-21.60
-13.29
-4.55
4.33
12.87
20.50
26.79
31.59
35.03
37.41
39.04
40.17
40.93
41.41
41.68
41.79
41.71
41.33
40.47
38.95
36.72
33.94
30.88
27.89
25.20
22.82
20.56
18.07
15.04
11.30
6.90
2.12
-2.70
-7.27
-11.47
-15.45
-19.50
-24.01
-29.29
-35.39
-42.08
-48.84
-54.89
-59.42
-61.68
-61.26
-58.14
-52.73
-45.69
-37.75
-29.47
-21.22
-13.11
-5.22
2.35
9.34
15.42
20.28
23.77
25.99
27.28
28.07
28.75
29.51
30.32
30.99
31.31
31.19
30.70
29.96
29.09
28.12
26.94
25.47
23.66
21.55
19.25
16.85
14.38
11.81
9.09
6.22
3.20
0.02
-3.28
-6.75
-10.48
-14.58
-19.17
-24.32
-29.87
-35.43
-40.34
-43.80
-45.15
-44.05
-40.60
-35.33
-28.91
-21.94
-14.77
-7.52
-0.21
7.03
13.84
19.76
24.39
27.58
29.51
30.62
31.39
32.16
32.98
33.69
34.02
33.75
32.82
31.34
29.55
27.70
25.95
24.29
22.51
20.32
17.48
13.95
9.88
5.61
1.47
-2.34
-5.87
-9.34
-13.01
-17.09
-21.67
-26.72
-32.11
-37.62
-42.84
-47.27
-50.27
-51.32
-50.17
-46.90
-41.98
-35.99
-29.43
-22.57
-15.46
-8.07
-0.49
6.96
13.77
19.41
23.59
26.32
27.94
28.97
29.85
30.84
31.95
32.98
33.65
33.77
33.26
32.22
30.79
29.13
27.33
25.40
23.25
20.78
17.93
14.73
11.28
7.75
4.24
0.77
-2.71
-6.32
-10.15
-14.25
-18.63
-23.34
-28.47
-34.09
-40.07
-45.97
-51.03
-54.34
-55.16
-53.19
-48.67
-42.24
-34.76
-26.94
-19.24
-11.84
-4.79
1.91
8.17
13.82
18.72
22.72
25.82
28.10
29.69
30.76
31.47
31.97
32.37
32.67
32.83
32.71
32.16
31.09
29.53
27.63
25.55
23.42
21.22
18.87
16.26
13.35
10.18
6.82
3.31
-0.39
-4.32
-8.46
-12.72
-17.01
-21.25
-25.55
-30.11
-35.20
-40.94
-47.14
-53.24
-58.38
-61.67
-62.45
-60.56
-56.33
-50.51
-43.88
-37.04
-30.24
-23.38
-16.32
-9.06
-1.84
4.85
10.52
14.88
17.93
19.95
21.37
22.58
23.80
25.07
26.27
27.25
27.95
28.38
28.58
28.57
28.26
27.52
26.22
24.30
21.87
19.15
16.34
13.62
11.04
8.58
6.12
3.53
0.65
-2.66
-6.50
-10.93
-15.87
-21.12
-26.32
-31.03
-34.70
-36.81
-36.96
-35.06
-31.35
-26.36
-20.69
-14.80
-8.91
-3.04
2.80
8.48
13.62
17.83
20.84
22.67
23.68
24.32
24.98
25.81
26.67
27.24
27.23
26.50
25.12
23.38
21.62
20.05
18.67
17.22
15.37
12.85
9.68
6.11
2.57
-0.62
-3.36
-5.75
-8.11
-10.79
-14.09
-18.20
-23.20
-28.98
-35.16
-41.07
-45.93
-48.98
-49.80
-48.35
-44.96
-40.18
-34.53
-28.38
-21.93
-15.22
-8.35
-1.46
5.12
11.06
15.99
19.76
22.40
24.15
25.35
26.28
27.10
27.76
28.12
28.06
27.57
26.76
25.82
24.85
23.89
22.81
21.41
19.52
17.04
14.04
10.70
7.23
3.81
0.49
-2.79
-6.19
-9.86
-13.88
-18.26
-22.95
-27.92
-33.11
-38.34
-43.28
-47.43
-50.18
-51.00
-49.64
-46.17
-40.99
-34.66
-27.73
-20.63
-13.61
-6.81
-0.38
5.46
10.42
14.29
17.06
18.91
20.19
21.20
22.12
22.87
23.24
23.03
22.21
20.94
19.54
18.29
17.35
16.72
16.23
15.61
14.56
12.83
10.38
7.32
3.97
0.67
-2.35
-5.04
-7.57
-10.19
-13.10
-16.37
-20.03
-24.07
-28.44
-33.03
-37.50
-41.25
-43.59
-43.89
-41.89
-37.79
-32.13
-25.62
-18.81
-12.01
-5.27
1.41
7.92
13.97
19.13
23.03
25.54
26.88
27.55
28.03
28.69
29.57
30.43
30.95
30.90
30.26
29.20
27.91
26.53
25.05
23.34
21.23
18.64
15.61
12.30
8.91
5.60
2.39
-0.81
-4.23
-8.08
-12.50
-17.44
-22.75
-28.17
-33.38
-38.02
-41.68
-43.96
-44.49
-43.07
-39.82
-35.06
-29.31
-23.00
-16.46
-9.80
-3.13
3.43
9.61
15.06
19.50
22.82
25.12
26.67
27.74
28.55
29.14
29.44
29.35
28.81
27.88
26.67
25.30
23.84
22.28
20.52
18.42
15.86
12.81
9.31
5.49
1.55
-2.34
-6.09
-9.77
-13.53
-17.57
-22.08
-27.14
-32.66
-38.38
-43.79
-48.27
-51.18
-51.98
-50.46
-46.77
-41.36
-34.82
-27.65
-20.20
-12.60
-4.99
2.43
9.33
15.34
20.18
23.81
26.41
28.35
29.96
31.47
32.90
34.08
34.76
34.80
34.17
32.99
31.48
29.74
27.84
25.73
23.35
20.70
17.83
14.84
11.77
8.62
5.31
1.78
-1.99
-5.98
-10.19
-14.63
-19.39
-24.59
-30.23
-36.17
-42.05
-47.31
-51.28
-53.34
-53.16
-50.76
-46.52
-41.06
-34.94
-28.50
-21.83
-14.91
-7.77
-0.72
5.73
11.06
15.06
17.85
19.90
21.72
23.59
25.52
27.26
28.50
29.08
29.05
28.56
27.87
27.10
26.28
25.36
24.25
22.89
21.22
19.21
16.86
14.18
11.22
8.07
4.79
1.42
-2.09
-5.79
-9.78
-14.15
-18.88
-23.86
-28.80
-33.25
-36.65
-38.47
-38.35
-36.26
-32.45
-27.38
-21.56
-15.37
-9.00
-2.54
3.94
10.22
15.96
20.80
24.51
27.12
28.81
29.90
30.56
30.89
30.83
30.35
29.49
28.41
27.29
26.23
25.15
23.81
21.93
19.28
15.86
11.94
7.91
4.15
0.89
-1.94
-4.59
-7.39
-10.66
-14.53
-19.04
-24.14
-29.70
-35.45
-40.94
-45.52
-48.48
-49.27
-47.72
-44.09
-38.97
-32.99
-26.57
-19.85
-12.78
-5.34
2.25
9.53
15.92
20.98
24.56
26.90
28.45
29.68
30.89
32.08
33.07
33.63
33.59
32.97
31.91
30.61
29.23
27.82
26.32
24.61
22.54
19.99
16.91
13.37
9.53
5.67
2.03
-1.28
-4.38
-7.55
-11.17
-15.48
-20.53
-26.10
-31.84
-37.37
-42.31
-46.25
-48.78
-49.50
-48.18
-44.81
-39.68
-33.27
-26.11
-18.63
-11.12
-3.74
3.35
9.94
15.74
20.51
24.09
26.52
28.06
29.08
29.96
30.94
31.97
32.82
33.15
32.68
31.38
29.44
27.14
24.74
22.38
19.99
17.46
14.69
11.66
8.48
5.28
2.11
-1.07
-4.34
-7.86
-11.67
-15.70
-19.84
-23.99
-28.18
-32.51
-37.07
-41.76
-46.21
-49.79
-51.83
-51.78
-49.43
-44.95
-38.83
-31.64
-23.92
-16.03
-8.23
-0.70
6.33
12.60
17.90
22.11
25.30
27.64
29.38
30.72
31.82
32.70
33.37
33.77
33.88
33.66
33.11
32.25
31.07
29.57
27.72
25.49
22.90
20.07
17.14
14.28
11.57
9.01
6.46
3.70
0.56
-3.11
-7.34
-12.10
-17.29
-22.72
-28.11
-33.04
-36.98
-39.45
-40.15
-38.98
-36.14
-31.92
-26.66
-20.63
-14.05
-7.12
-0.16
6.45
12.27
16.98
20.41
22.65
23.96
24.71
25.21
25.68
26.19
26.69
27.05
27.18
27.02
26.59
25.92
25.02
23.89
22.42
20.51
18.09
15.14
11.77
8.21
4.75
1.63
-1.06
-3.42
-5.73
-8.37
-11.65
-15.74
-20.63
-26.14
-31.99
-37.74
-42.85
-46.69
-48.67
-48.40
-45.85
-41.36
-35.51
-28.92
-22.11
-15.31
-8.65
-2.18
3.97
9.60
14.49
18.51
21.62
23.88
25.40
26.32
26.78
26.95
26.97
26.94
26.85
26.65
26.20
25.41
24.24
22.70
20.83
18.61
16.00
12.96
9.52
5.83
2.11
-1.45
-4.74
-7.85
-10.97
-14.31
-18.02
-22.13
-26.61
-31.35
-36.26
-41.15
-45.65
-49.21
-51.21
-51.17
-48.97
-44.90
-39.56
-33.57
-27.41
-21.25
-15.10
-8.97
-3.03
2.38
6.94
10.42
12.87
14.54
15.73
16.68
17.51
18.22
18.82
19.29
19.68
19.98
20.14
20.12
19.88
19.47
18.97
18.39
17.67
16.63
15.15
13.21
10.97
8.64
6.40
4.20
1.85
-0.95
-4.38
-8.42
-12.91
-17.58
-22.14
-26.30
-29.70
-31.96
-32.67
-31.57
-28.63
-24.09
-18.45
-12.25
-5.98
0.01
5.53
10.47
14.76
18.35
21.20
23.33
24.80
25.69
26.11
26.15
25.87
25.31
24.49
23.43
22.19
20.84
19.47
18.09
16.60
14.82
12.58
9.87
6.83
3.75
0.88
-1.72
-4.17
-6.73
-9.67
-13.13
-17.19
-21.82
-26.92
-32.26
-37.39
-41.69
-44.50
-45.30
-43.96
-40.68
-35.92
-30.16
-23.78
-17.02
-10.04
-3.01
3.78
9.95
15.14
19.11
21.82
23.52
24.59
25.42
26.22
26.96
27.40
27.31
26.60
25.48
24.29
23.32
22.61
21.92
20.88
19.17
16.72
13.68
10.30
6.86
3.48
0.25
-2.86
-5.95
-9.14
-12.62
-16.60
-21.21
-26.43
-32.03
-37.53
-42.29
-45.64
-47.03
-46.20
-43.22
-38.48
-32.54
-25.99
-19.27
-12.64
-6.20
-0.03
5.74
10.88
15.17
18.43
20.67
22.01
22.72
23.00
23.00
22.69
21.99
20.87
19.37
17.71
16.11
14.74
13.56
12.35
10.78
8.63
5.89
2.80
-0.25
-2.93
-5.11
-6.91
-8.59
-10.48
-12.77
-15.55
-18.79
-22.44
-26.45
-30.71
-34.96
-38.73
-41.42
-42.43
-41.35
-38.16
-33.16
-26.88
-19.89
-12.64
-5.40
1.66
8.37
14.48
19.67
23.66
26.33
27.80
28.42
28.65
28.91
29.42
30.14
30.84
31.20
30.97
30.11
28.75
27.11
25.36
23.50
21.41
18.93
16.01
12.74
9.34
6.08
3.05
0.21
-2.63
-5.72
-9.25
-13.30
-17.86
-22.80
-27.87
-32.69
-36.76
-39.55
-40.61
-39.74
-37.01
-32.71
-27.28
-21.15
-14.69
-8.11
-1.65
4.50
10.07
14.78
18.45
21.04
22.71
23.72
24.35
24.81
25.16
25.41
25.51
25.46
25.23
24.83
24.20
23.25
21.84
19.93
17.50
14.67
11.57
8.39
5.27
2.25
-0.63
-3.41
-6.20
-9.12
-12.32
-15.95
-20.13
-24.89
-30.12
-35.47
-40.44
-44.38
-46.71
-47.05
-45.37
-41.93
-37.15
-31.45
-25.11
-18.31
-11.16
-3.88
3.16
9.49
14.71
18.68
21.50
23.48
24.96
26.17
27.20
28.02
28.58
28.86
28.93
28.84
28.59
28.06
27.14
25.75
23.93
21.80
19.48
17.06
14.46
11.66
8.61
5.39
2.11
-1.18
-4.52
-8.10
-12.15
-16.83
-22.13
-27.86
-33.76
-39.51
-44.76
-49.12
-52.14
-53.40
-52.60
-49.73
-45.04
-39.02
-32.20
-25.06
-17.94
-11.07
-4.68
1.08
6.04
10.12
13.37
15.95
18.05
19.86
21.45
22.90
24.20
25.38
26.41
27.24
27.77
27.89
27.52
26.67
25.40
23.83
22.03
20.08
18.00
15.79
13.45
10.96
8.29
5.38
2.23
-1.17
-4.80
-8.68
-12.85
-17.36
-22.16
-26.95
-31.19
-34.24
-35.49
-34.65
-31.82
-27.47
-22.20
-16.52
-10.72
-4.87
1.02
6.84
12.26
16.88
20.37
22.67
23.99
24.73
25.28
25.84
26.37
26.70
26.59
25.90
24.66
23.02
21.20
19.44
17.86
16.48
15.17
13.71
11.86
9.52
6.73
3.68
0.58
-2.44
-5.43
-8.56
-12.05
-16.09
-20.75
-25.95
-31.40
-36.65
-41.10
-44.12
-45.17
-44.03
-40.82
-35.98
-30.13
-23.79
-17.27
-10.66
-4.00
2.57
8.75
14.10
18.27
21.15
22.92
23.97
24.76
25.58
26.51
27.41
28.05
28.22
27.89
27.11
26.07
24.89
23.63
22.19
20.40
18.07
15.14
11.74
8.14
4.69
1.61
-1.11
-3.71
-6.56
-9.98
-14.13
-18.94
-24.23
-29.72
-35.09
-39.91
-43.71
-45.98
-46.39
-44.91
-41.81
-37.59
-32.69
-27.40
-21.77
-15.78
-9.52
-3.24
2.58
7.50
11.15
13.47
14.67
15.17
15.43
15.83
16.50
17.38
18.24
18.89
19.23
19.33
19.28
19.06
18.58
17.66
16.20
14.25
12.04
9.81
7.73
5.82
3.95
1.93
-0.42
-3.23
-6.50
-10.15
-14.08
-18.17
-22.32
-26.39
-30.12
-33.10
-34.76
-34.63
-32.50
-28.57
-23.37
-17.52
-11.48
-5.43
0.65
6.74
12.59
17.76
21.75
24.36
25.76
26.45
26.97
27.67
28.54
29.31
29.60
29.20
28.14
26.75
25.37
24.24
23.27
22.15
20.46
17.94
14.58
10.69
6.69
2.98
-0.25
-3.05
-5.65
-8.36
-11.51
-15.39
-20.12
-25.60
-31.45
-36.98
-41.37
-43.84
-43.95
-41.64
-37.29
-31.49
-24.90
-18.05
-11.24
-4.63
1.71
7.67
13.09
17.75
21.47
24.17
25.92
26.92
27.42
27.64
27.70
27.62
27.36
26.92
26.33
25.65
24.93
24.11
23.05
21.51
19.31
16.37
12.80
8.87
4.93
1.27
-1.93
-4.72
-7.35
-10.18
-13.59
-17.88
-23.11
-29.10
-35.34
-41.12
-45.67
-48.33
-48.76
-46.97
-43.26
-38.03
-31.76
-24.82
-17.55
-10.24
-3.22
3.22
8.84
13.51
17.24
20.09
22.18
23.67
24.73
25.53
26.13
26.50
26.49
25.98
24.94
23.52
21.96
20.45
19.04
17.59
15.87
13.68
10.92
7.66
4.09
0.42
-3.16
-6.52
-9.59
-12.40
-15.09
-17.87
-21.00
-24.74
-29.19
-34.24
-39.52
-44.36
-47.99
-49.65
-48.87
-45.61
-40.27
-33.53
-26.08
-18.42
-10.85
-3.50
3.43
9.67
14.90
18.97
21.93
24.10
25.86
27.47
29.04
30.46
31.58
32.29
32.56
32.46
32.09
31.50
30.74
29.77
28.55
27.00
25.04
22.62
19.77
16.62
13.37
10.18
7.09
3.97
0.59
-3.25
-7.69
-12.68
-18.06
-23.53
-28.72
-33.18
-36.43
-38.02
-37.64
-35.24
-31.12
-25.76
-19.75
-13.52
-7.33
-1.21
4.82
10.59
15.77
19.93
22.77
24.33
24.99
25.30
25.72
26.42
27.20
27.61
27.28
26.07
24.21
22.15
20.29
18.82
17.59
16.22
14.29
11.58
8.19
4.43
0.66
-2.91
-6.30
-9.70
-13.34
-17.35
-21.70
-26.30
-30.97
-35.48
-39.50
-42.55
-44.18
-44.01
-41.96
-38.21
-33.18
-27.29
-20.83
-13.96
-6.74
0.67
7.96
14.67
20.31
24.54
27.34
29.00
30.00
30.81
31.65
32.50
33.09
33.15
32.56
31.46
30.10
28.71
27.35
25.86
24.00
21.54
18.44
14.90
11.25
7.80
4.72
1.92
-0.85
-3.93
-7.54
-11.74
-16.41
-21.39
-26.56
-31.83
-37.06
-41.89
-45.80
-48.16
-48.58
-46.98
-43.71
-39.20
-33.88
-27.89
-21.26
-14.04
-6.50
0.80
7.21
12.24
15.70
17.81
18.97
19.67
20.27
20.95
21.69
22.39
22.89
23.07
22.91
22.44
21.75
20.90
19.91
18.69
17.14
15.19
12.83
10.15
7.29
4.39
1.51
-1.35
-4.27
-7.35
-10.67
-14.27
-18.13
-22.26
-26.62
-31.15
-35.57
-39.43
-42.11
-43.01
-41.76
-38.37
-33.24
-26.98
-20.16
-13.19
-6.25
0.53
6.96
12.74
17.52
21.12
23.54
25.03
25.97
26.69
27.41
28.19
28.97
29.66
30.16
30.40
30.31
29.80
28.75
27.09
24.82
22.03
18.88
15.65
12.57
9.80
7.34
5.03
2.59
-0.26
-3.81
-8.22
-13.51
-19.49
-25.72
-31.55
-36.25
-39.18
-39.97
-38.62
-35.45
-30.98
-25.72
-20.08
-14.27
-8.37
-2.43
3.43
8.98
13.91
17.90
20.75
22.50
23.44
23.91
24.21
24.46
24.60
24.52
24.13
23.49
22.72
21.90
20.98
19.78
18.06
15.70
12.75
9.43
6.07
2.89
-0.02
-2.78
-5.64
-8.88
-12.69
-17.13
-22.13
-27.54
-33.09
-38.40
-42.95
-46.15
-47.44
-46.54
-43.48
-38.61
-32.47
-25.61
-18.43
-11.18
-4.01
2.90
9.31
14.89
19.40
22.76
25.08
26.65
27.81
28.78
29.67
30.35
30.61
30.31
29.46
28.27
27.04
25.98
25.10
24.17
22.85
20.83
17.98
14.41
10.45
6.46
2.75
-0.57
-3.54
-6.38
-9.38
-12.80
-16.86
-21.62
-26.99
-32.70
-38.31
-43.29
-47.12
-49.35
-49.70
-48.09
-44.65
-39.70
-33.65
-26.98
-20.06
-13.15
-6.41
0.04
6.00
11.24
15.50
18.63
20.65
21.78
22.38
22.82
23.35
24.04
24.78
25.37
25.57
25.28
24.48
23.27
21.75
20.04
18.19
16.18
14.04
11.76
9.42
7.06
4.72
2.37
-0.09
-2.73
-5.60
-8.66
-11.87
-15.17
-18.65
-22.46
-26.68
-31.20
-35.59
-39.12
-41.02
-40.77
-38.24
-33.77
-27.95
-21.39
-14.55
-7.65
-0.83
5.76
11.84
17.10
21.26
24.23
26.17
27.43
28.40
29.37
30.39
31.30
31.87
31.87
31.29
30.25
28.90
27.37
25.62
23.57
21.11
18.27
15.22
12.17
9.29
6.59
3.94
1.13
-2.02
-5.56
-9.43
-13.58
-17.99
-22.67
-27.57
-32.44
-36.86
-40.19
-41.87
-41.55
-39.28
-35.41
-30.44
-24.80
-18.75
-12.39
-5.81
0.78
7.03
12.54
17.00
20.34
22.69
24.36
25.59
26.56
27.28
27.72
27.80
27.52
26.89
25.97
24.75
23.26
21.54
19.67
17.67
15.56
13.26
10.71
7.87
4.84
1.76
-1.25
-4.18
-7.14
-10.33
-13.91
-17.96
-22.47
-27.33
-32.40
-37.39
-41.87
-45.27
-46.99
-46.63
-44.11
-39.78
-34.18
-27.89
-21.35
-14.72
-8.04
-1.38
5.09
11.03
16.13
20.17
23.11
25.07
26.26
26.87
27.12
27.17
27.17
27.22
27.33
27.43
27.38
27.03
26.25
24.95
23.12
20.70
17.69
14.13
10.20
6.16
2.28
-1.24
-4.39
-7.37
-10.46
-13.88
-17.71
-21.85
-26.20
-30.70
-35.39
-40.28
-45.17
-49.54
-52.69
-53.89
-52.75
-49.38
-44.28
-38.16
-31.62
-24.95
-18.22
-11.39
-4.54
2.02
7.84
12.51
15.90
18.19
19.84
21.31
22.89
24.55
26.01
26.95
27.22
26.88
26.23
25.60
25.21
25.05
24.90
24.47
23.49
21.88
19.71
17.21
14.60
12.03
9.49
6.89
4.08
0.99
-2.38
-6.05
-10.02
-14.33
-18.94
-23.57
-27.71
-30.65
-31.76
-30.70
-27.65
-23.14
-17.88
-12.47
-7.17
-2.01
3.12
8.23
13.07
17.23
20.29
22.09
22.74
22.72
22.55
22.63
23.06
23.65
24.06
24.01
23.40
22.33
21.00
19.53
17.94
16.11
13.90
11.28
8.35
5.33
2.41
-0.24
-2.65
-4.98
-7.49
-10.43
-13.95
-18.08
-22.72
-27.68
-32.67
-37.38
-41.37
-44.17
-45.34
-44.59
-41.89
-37.50
-31.89
-25.56
-18.86
-12.02
-5.16
1.51
7.68
12.94
16.99
19.79
21.62
22.92
24.09
25.31
26.49
27.36
27.66
27.30
26.43
25.30
24.17
23.18
22.29
21.33
20.06
18.28
15.88
12.89
9.47
5.89
2.42
-0.80
-3.73
-6.51
-9.38
-12.63
-16.50
-21.15
-26.53
-32.36
-38.09
-43.00
-46.36
-47.59
-46.52
-43.34
-38.64
-33.05
-27.16
-21.27
-15.43
-9.55
-3.62
2.21
7.58
12.05
15.31
17.34
18.34
18.73
18.89
19.08
19.36
19.63
19.81
19.82
19.61
19.17
18.47
17.43
16.06
14.30
12.17
9.76
7.18
4.57
2.02
-0.46
-2.95
-5.60
-8.52
-11.70
-15.05
-18.46
-21.91
-25.50
-29.37
-33.59
-37.92
-41.81
-44.53
-45.38
-43.97
-40.38
-35.05
-28.65
-21.79
-14.90
-8.13
-1.49
4.93
10.91
16.07
20.09
22.84
24.48
25.46
26.26
27.18
28.32
29.52
30.51
31.09
31.16
30.74
29.92
28.74
27.20
25.24
22.84
20.02
16.92
13.74
10.67
7.82
5.16
2.50
-0.38
-3.66
-7.42
-11.66
-16.29
-21.20
-26.20
-30.93
-34.90
-37.53
-38.35
-37.17
-34.11
-29.58
-24.07
-17.98
-11.58
-5.05
1.43
7.54
12.88
17.07
19.93
21.57
22.37
22.86
23.41
24.19
25.06
25.72
25.86
25.35
24.27
22.89
21.49
20.18
18.94
17.55
15.74
13.39
10.47
7.13
3.60
0.06
-3.42
-6.92
-10.59
-14.59
-18.99
-23.80
-28.91
-34.08
-38.90
-42.87
-45.43
-46.15
-44.84
-41.60
-36.80
-30.91
-24.34
-17.37
-10.21
-3.00
3.98
10.44
16.06
20.64
24.17
26.73
28.50
29.68
30.41
30.78
30.82
30.49
29.75
28.62
27.22
25.77
24.40
23.16
21.88
20.25
17.99
15.01
11.53
8.01
4.89
2.42
0.49
-1.32
-3.57
-6.72
-10.99
-16.33
-22.43
-28.85
-35.04
-40.43
-44.46
-46.67
-46.79
-44.79
-40.94
-35.71
-29.65
-23.24
-16.79
-10.43
-4.24
1.65
7.01
11.49
14.84
16.97
18.08
18.58
18.90
19.30
19.78
20.14
20.18
19.85
19.28
18.69
18.21
17.77
17.16
16.09
14.46
12.34
10.00
7.78
5.82
4.12
2.48
0.62
-1.66
-4.42
-7.61
-11.14
-14.96
-19.07
-23.45
-27.97
-32.29
-35.85
-38.02
-38.25
-36.33
-32.44
-27.05
-20.78
-14.12
-7.37
-0.66
5.89
12.06
17.51
21.85
24.89
26.75
27.88
28.80
29.91
31.24
32.53
33.35
33.34
32.49
31.03
29.37
27.86
26.63
25.52
24.22
22.38
19.83
16.58
12.84
8.91
5.06
1.43
-1.95
-5.21
-8.57
-12.24
-16.46
-21.33
-26.83
-32.68
-38.32
-42.98
-45.88
-46.46
-44.59
-40.65
-35.31
-29.29
-23.13
-17.04
-10.97
-4.79
1.48
7.62
13.24
17.94
21.53
24.02
25.67
26.80
27.68
28.42
28.99
29.28
29.19
28.69
27.83
26.65
25.15
23.30
21.06
18.44
15.54
12.56
9.64
6.90
4.30
1.72
-1.02
-4.04
-7.44
-11.29
-15.62
-20.46
-25.77
-31.37
-36.86
-41.65
-45.08
-46.60
-45.97
-43.30
-39.02
-33.67
-27.73
-21.45
-14.93
-8.20
-1.43
5.07
10.83
15.42
18.63
20.53
21.43
21.82
22.07
22.43
22.86
23.20
23.21
22.81
22.05
21.12
20.20
19.36
18.52
17.41
15.76
13.40
10.34
6.80
3.12
-0.33
-3.34
-5.86
-8.13
-10.48
-13.25
-16.65
-20.72
-25.31
-30.20
-35.09
-39.58
-43.22
-45.50
-45.95
-44.32
-40.70
-35.50
-29.35
-22.87
-16.42
-10.13
-3.94
2.14
7.96
13.20
17.50
20.69
22.83
24.19
25.18
26.11
27.12
28.19
29.14
29.79
30.03
29.85
29.31
28.50
27.45
26.11
24.41
22.31
19.81
17.04
14.13
11.19
8.25
5.22
1.97
-1.61
-5.58
-9.97
-14.75
-19.76
-24.69
-29.09
-32.44
-34.30
-34.40
-32.70
-29.38
-24.76
-19.19
-13.07
-6.71
-0.45
5.42
10.62
14.91
18.17
20.42
21.86
22.76
23.45
24.10
24.73
25.18
25.27
24.88
24.04
22.91
21.71
20.52
19.30
17.87
16.08
13.81
11.09
8.02
4.77
1.50
-1.70
-4.86
-8.09
-11.55
-15.39
-19.69
-24.44
-29.52
-34.64
-39.34
-43.04
-45.14
-45.18
-43.01
-38.87
-33.29
-26.93
-20.30
-13.65
-7.00
-0.28
6.44
12.87
18.56
23.09
26.27
28.20
29.23
29.75
30.07
30.25
30.21
29.82
29.06
28.06
26.96
25.87
24.74
23.37
21.52
19.04
15.95
12.48
8.95
5.65
2.70
0.01
-2.68
-5.69
-9.25
-13.48
-18.31
-23.60
-29.11
-34.55
-39.49
-43.41
-45.80
-46.25
-44.62
-41.10
-36.16
-30.34
-24.07
-17.57
-10.88
-3.99
2.91
9.41
14.94
19.01
21.42
22.40
22.49
22.30
22.27
22.49
22.75
22.72
22.18
21.09
19.64
18.10
16.67
15.42
14.26
13.06
11.67
10.00
8.06
5.86
3.48
0.97
-1.57
-4.09
-6.50
-8.84
-11.19
-13.72
-16.61
-20.00
-23.92
-28.29
-32.91
-37.39
-41.22
-43.74
-44.33
-42.57
-38.45
-32.40
-25.17
-17.59
-10.25
-3.41
2.98
8.98
14.55
19.46
23.44
26.29
28.07
29.08
29.67
30.15
30.64
31.09
31.36
31.34
30.98
30.33
29.45
28.33
26.92
25.12
22.81
19.97
16.71
13.22
9.74
6.47
3.45
0.57
-2.40
-5.69
-9.49
-13.88
-18.79
-24.08
-29.50
-34.71
-39.21
-42.44
-43.89
-43.28
-40.66
-36.41
-31.05
-25.02
-18.60
-11.86
-4.92
1.95
8.28
13.49
17.22
19.42
20.49
21.03
21.61
22.53
23.76
25.02
25.96
26.31
26.00
25.16
24.03
22.82
21.69
20.59
19.38
17.87
15.90
13.43
10.58
7.48
4.29
1.07
-2.17
-5.44
-8.74
-12.03
-15.34
-18.80
-22.64
-27.09
-32.18
-37.61
-42.73
-46.72
-48.78
-48.48
-45.84
-41.30
-35.51
-29.08
-22.42
-15.67
-8.88
-2.15
4.27
10.02
14.71
18.15
20.39
21.70
22.46
23.04
23.70
24.49
25.33
26.05
26.42
26.30
25.61
24.42
22.84
20.98
18.95
16.75
14.34
11.69
8.80
5.73
2.57
-0.61
-3.80
-7.00
-10.22
-13.48
-16.75
-20.01
-23.33
-26.84
-30.74
-35.12
-39.80
-44.30
-47.85
-49.72
-49.38
-46.77
-42.29
-36.58
-30.31
-23.90
-17.53
-11.13
-4.67
1.78
7.91
13.35
17.76
21.01
23.20
24.61
25.57
26.33
27.03
27.68
28.22
28.59
28.77
28.78
28.66
28.40
27.93
27.10
25.74
23.74
21.13
18.14
15.08
12.26
9.75
7.43
4.99
2.10
-1.45
-5.67
-10.39
-15.39
-20.41
-25.15
-29.27
-32.37
-34.07
-34.08
-32.41
-29.27
-25.09
-20.28
-15.13
-9.77
-4.21
1.46
6.99
11.92
15.78
18.29
19.52
19.87
19.94
20.22
20.94
21.97
22.92
23.43
23.25
22.43
21.17
19.74
18.36
17.09
15.84
14.46
12.78
10.68
8.11
5.10
1.73
-1.86
-5.54
-9.19
-12.77
-16.31
-19.90
-23.70
-27.81
-32.17
-36.57
-40.57
-43.66
-45.32
-45.22
-43.27
-39.65
-34.71
-28.89
-22.55
-15.91
-9.08
-2.21
4.44
10.46
15.42
19.06
21.43
22.87
23.83
24.66
25.49
26.21
26.64
26.67
26.34
25.74
25.00
24.15
23.19
22.09
20.80
19.31
17.50
15.27
12.53
9.33
5.82
2.28
-1.10
-4.25
-7.29
-10.45
-13.98
-18.06
-22.74
-27.93
-33.35
-38.60
-43.14
-46.42
-48.05
-47.88
-46.01
-42.75
-38.45
-33.40
-27.77
-21.66
-15.21
-8.64
-2.31
3.39
8.11
11.67
14.13
15.77
16.95
18.05
19.28
20.64
21.97
23.07
23.79
24.11
24.11
23.89
23.46
22.79
21.76
20.32
18.48
16.37
14.12
11.83
9.53
7.19
4.74
2.08
-0.82
-3.98
-7.40
-11.11
-15.14
-19.45
-23.92
-28.21
-31.84
-34.27
-35.05
-34.00
-31.21
-27.01
-21.81
-15.98
-9.78
-3.40
2.89
8.79
13.94
18.06
21.05
23.04
24.35
25.35
26.30
27.26
28.12
28.64
28.61
27.99
26.90
25.60
24.36
23.29
22.31
21.13
19.38
16.88
13.68
10.14
6.68
3.63
0.98
-1.52
-4.27
-7.57
-11.54
-16.10
-21.11
-26.40
-31.76
-36.80
-40.93
-43.44
-43.77
-41.71
-37.58
-32.05
-25.84
-19.48
-13.15
-6.81
-0.43
5.84
11.65
16.60
20.36
22.87
24.35
25.16
25.73
26.34
27.07
27.79
28.25
28.26
27.70
26.67
25.32
23.79
22.11
20.19
17.91
15.24
12.28
9.23
6.29
3.55
0.95
-1.73
-4.72
-8.19
-12.15
-16.53
-21.20
-26.04
-30.98
-35.88
-40.46
-44.28
-46.77
-47.42
-46.04
-42.79
-38.09
-32.50
-26.40
-19.99
-13.33
-6.60
-0.13
5.58
10.08
13.18
15.05
16.14
16.96
17.87
18.95
20.06
20.90
21.23
20.97
20.22
19.21
18.19
17.31
16.57
15.83
14.86
13.47
11.59
9.30
6.77
4.17
1.63
-0.82
-3.24
-5.75
-8.48
-11.59
-15.22
-19.38
-23.94
-28.54
-32.69
-35.79
-37.29
-36.87
-34.50
-30.45
-25.21
-19.31
-13.16
-6.99
-0.86
5.15
10.86
15.98
20.20
23.36
25.52
26.94
27.96
28.82
29.57
30.13
30.36
30.25
29.87
29.37
28.83
28.21
27.32
25.93
23.89
21.20
18.01
14.54
11.07
7.75
4.63
1.64
-1.38
-4.63
-8.31
-12.57
-17.48
-22.94
-28.63
-33.94
-38.15
-40.60
-40.93
-39.13
-35.63
-30.99
-25.71
-20.03
-13.98
-7.50
-0.71
6.00
12.04
16.85
20.19
22.19
23.33
24.14
24.99
26.00
26.97
27.67
27.88
27.60
26.92
25.93
24.70
23.20
21.44
19.40
17.14
14.67
12.01
9.16
6.15
3.09
0.07
-2.83
-5.69
-8.71
-12.10
-16.07
-20.65
-25.72
-31.01
-36.11
-40.49
-43.59
-44.86
-44.00
-41.03
-36.36
-30.63
-24.46
-18.28
-12.19
-6.10
0.03
6.08
11.66
16.32
19.78
22.03
23.41
24.35
25.19
26.02
26.68
26.97
26.73
25.97
24.87
23.58
22.20
20.71
19.01
17.00
14.61
11.84
8.76
5.51
2.24
-0.91
-3.89
-6.79
-9.79
-13.05
-16.70
-20.73
-25.11
-29.81
-34.74
-39.74
-44.39
-48.08
-50.16
-50.11
-47.85
-43.70
-38.22
-31.98
-25.34
-18.46
-11.42
-4.39
2.26
8.14
12.90
16.50
19.12
21.13
22.91
24.70
26.54
28.26
29.64
30.46
30.65
30.27
29.56
28.71
27.85
26.94
25.78
24.18
22.05
19.51
16.83
14.29
12.01
9.90
7.63
4.89
1.48
-2.56
-7.03
-11.70
-16.41
-21.08
-25.55
-29.47
-32.28
-33.38
-32.41
-29.43
-24.94
-19.68
-14.28
-9.01
-3.84
1.39
6.72
11.88
16.40
19.87
22.11
23.35
24.02
24.56
25.16
25.73
25.99
25.69
24.80
23.49
22.07
20.83
19.81
18.83
17.58
15.75
13.22
10.14
6.80
3.57
0.70
-1.84
-4.25
-6.90
-10.07
-13.94
-18.48
-23.52
-28.79
-33.92
-38.40
-41.67
-43.18
-42.57
-39.83
-35.35
-29.78
-23.79
-17.84
-12.11
-6.51
-0.94
4.57
9.77
14.28
17.83
20.37
22.09
23.34
24.42
25.45
26.33
26.87
26.87
26.27
25.17
23.76
22.20
20.59
18.86
16.87
14.44
11.53
8.27
4.90
1.73
-1.09
-3.64
-6.18
-9.11
-12.73
-17.14
-22.27
-27.83
-33.44
-38.62
-42.88
-45.74
-46.87
-46.12
-43.61
-39.64
-34.60
-28.82
-22.51
-15.86
-9.08
-2.54
3.31
8.04
11.45
13.64
15.00
16.01
17.05
18.27
19.59
20.76
21.56
21.88
21.72
21.22
20.50
19.68
18.79
17.85
16.76
15.45
13.81
11.76
9.34
6.63
3.76
0.85
-2.04
-4.96
-7.97
-11.18
-14.72
-18.65
-22.97
-27.45
-31.58
-34.66
-35.96
-35.02
-31.80
-26.74
-20.53
-13.83
-7.12
-0.62
5.56
11.25
16.19
20.12
22.89
24.63
25.67
26.41
27.14
27.90
28.51
28.73
28.37
27.45
26.15
24.74
23.36
22.03
20.54
18.66
16.23
13.24
9.92
6.55
3.43
0.64
-1.93
-4.49
-7.33
-10.65
-14.56
-19.03
-23.93
-28.96
-33.68
-37.50
-39.82
-40.18
-38.45
-34.90
-30.05
-24.50
-18.68
-12.76
-6.78
-0.77
5.08
10.41
14.80
18.04
20.16
21.49
22.46
23.44
24.54
25.63
26.42
26.66
26.23
25.24
23.88
22.38
20.85
19.24
17.45
15.36
12.90
10.14
7.21
4.28
1.44
-1.33
-4.11
-7.05
-10.26
-13.80
-17.74
-22.09
-26.80
-31.74
-36.55
-40.69
-43.53
-44.54
-43.45
-40.41
-35.83
-30.28
-24.22
-17.92
-11.50
-5.03
1.25
6.95
11.61
14.89
16.78
17.57
17.79
17.96
18.36
19.03
19.72
20.15
20.15
19.66
18.79
17.67
16.38
14.92
13.27
11.42
9.37
7.19
4.93
2.67
0.45
-1.74
-3.95
-6.27
-8.85
-11.83
-15.26
-19.12
-23.32
-27.71
-32.11
-36.23
-39.71
-42.06
-42.81
-41.66
-38.60
-33.98
-28.33
-22.16
-15.85
-9.51
-3.18
3.09
9.11
14.59
19.24
22.91
25.62
27.53
28.85
29.75
30.30
30.51
30.37
29.95
29.40
28.90
28.60
28.45
28.22
27.54
26.05
23.59
20.31
16.59
12.90
9.56
6.64
3.93
1.05
-2.28
-6.26
-10.84
-15.88
-21.15
-26.38
-31.22
-35.23
-37.90
-38.81
-37.78
-34.99
-30.87
-25.95
-20.66
-15.16
-9.45
-3.52
2.47
8.14
13.03
16.74
19.19
20.55
21.24
21.69
22.14
22.65
23.10
23.35
23.34
23.09
22.67
22.10
21.31
20.09
18.26
15.72
12.64
9.28
5.99
2.96
0.17
-2.57
-5.52
-8.86
-12.62
-16.74
-21.15
-25.79
-30.59
-35.30
-39.46
-42.44
-43.67
-42.85
-40.06
-35.74
-30.39
-24.43
-18.08
-11.38
-4.49
2.30
8.49
13.61
17.38
19.90
21.55
22.83
24.12
25.49
26.77
27.62
27.81
27.28
26.21
24.89
23.55
22.27
20.98
19.52
17.73
15.51
12.80
9.56
5.76
1.47
-3.16
-7.85
-12.32
-16.41
-20.16
-23.84
-27.75
-32.10
-36.81
-41.55
-45.76
-48.83
-50.25
-49.73
-47.21
-42.89
-37.10
-30.31
-22.97
-15.49
-8.20
-1.40
4.67
9.80
13.93
17.09
19.48
21.34
22.89
24.24
25.42
26.41
27.15
27.57
27.63
27.31
26.63
25.67
24.50
23.20
21.76
20.17
18.39
16.46
14.43
12.33
10.13
7.71
4.91
1.65
-2.12
-6.32
-10.90
-15.77
-20.71
-25.28
-28.84
-30.70
-30.46
-28.15
-24.31
-19.70
-14.93
-10.25
-5.51
-0.40
5.17
10.89
16.17
20.34
23.05
24.40
24.85
24.98
25.17
25.52
25.87
26.00
25.75
25.15
24.33
23.42
22.43
21.24
19.66
17.53
14.88
11.87
8.78
5.88
3.23
0.71
-1.95
-5.05
-8.79
-13.20
-18.18
-23.56
-29.04
-34.28
-38.77
-41.98
-43.40
-42.75
-40.08
-35.77
-30.37
-24.39
-18.21
-11.97
-5.66
0.67
6.84
12.46
17.11
20.43
22.40
23.31
23.66
23.97
24.54
25.34
26.14
26.62
26.59
26.07
25.22
24.24
23.22
22.06
20.56
18.52
15.86
12.65
9.15
5.71
2.56
-0.20
-2.72
-5.25
-8.09
-11.50
-15.61
-20.43
-25.88
-31.73
-37.57
-42.79
-46.75
-48.84
-48.74
-46.52
-42.56
-37.51
-31.92
-26.21
-20.52
-14.84
-9.12
-3.42
2.03
6.88
10.82
13.65
15.46
16.51
17.16
17.76
18.49
19.36
20.25
20.97
21.39
21.42
21.08
20.46
19.63
18.62
17.39
15.86
13.99
11.80
9.43
7.05
4.78
2.62
0.46
-1.88
-4.52
-7.57
-11.01
-14.83
-19.01
-23.47
-28.08
-32.50
-36.27
-38.82
-39.71
-38.71
-35.92
-31.70
-26.54
-20.86
-14.90
-8.76
-2.46
3.86
9.89
15.21
19.44
22.44
24.37
25.66
26.76
27.97
29.30
30.53
31.33
31.48
30.91
29.77
28.35
26.90
25.57
24.28
22.82
20.90
18.34
15.20
11.74
8.36
5.36
2.76
0.32
-2.39
-5.77
-10.05
-15.18
-20.89
-26.75
-32.17
-36.56
-39.35
-40.17
-38.93
-35.81
-31.28
-25.84
-19.95
-13.89
-7.84
-1.91
3.71
8.79
13.06
16.40
18.82
20.52
21.80
22.89
23.90
24.74
25.24
25.22
24.65
23.65
22.46
21.25
20.06
18.77
17.16
15.08
12.45
9.38
6.07
2.76
-0.37
-3.22
-5.87
-8.49
-11.37
-14.77
-18.90
-23.77
-29.17
-34.63
-39.54
-43.24
-45.21
-45.20
-43.29
-39.87
-35.39
-30.27
-24.70
-18.67
-12.17
-5.29
1.60
7.94
13.19
16.99
19.36
20.66
21.43
22.15
23.10
24.26
25.37
26.08
26.14
25.47
24.18
22.49
20.63
18.76
16.89
14.96
12.83
10.41
7.65
4.59
1.32
-2.04
-5.43
-8.87
-12.40
-16.11
-20.04
-24.19
-28.57
-33.17
-37.92
-42.58
-46.68
-49.59
-50.68
-49.56
-46.26
-41.22
-35.06
-28.33
-21.42
-14.42
-7.44
-0.66
5.57
10.82
14.77
17.48
19.29
20.75
22.34
24.23
26.28
28.12
29.39
29.93
29.85
29.41
28.86
28.29
27.59
26.56
25.02
22.93
20.45
17.78
15.11
12.53
9.98
7.31
4.37
1.04
-2.73
-6.98
-11.72
-16.87
-22.19
-27.21
-31.32
-33.86
-34.45
-33.06
-30.01
-25.78
-20.81
-15.35
-9.51
-3.40
2.78
8.65
13.81
17.93
20.93
22.93
24.20
25.03
25.66
26.21
26.64
26.85
26.74
26.26
25.44
24.38
23.16
21.78
20.15
18.13
15.63
12.68
9.45
6.16
2.97
-0.12
-3.24
-6.62
-10.49
-14.98
-20.08
-25.63
-31.29
-36.58
-40.92
-43.79
-44.81
-43.87
-41.17
-37.13
-32.23
-26.83
-21.08
-14.93
-8.29
-1.20
6.03
12.81
18.48
22.57
24.96
25.95
26.13
26.14
26.36
26.83
27.36
27.66
27.57
27.10
26.35
25.42
24.26
22.74
20.69
18.01
14.80
11.26
7.65
4.16
0.81
-2.49
-5.91
-9.66
-13.84
-18.51
-23.67
-29.29
-35.22
-41.20
-46.75
-51.21
-53.91
-54.39
-52.54
-48.68
-43.40
-37.37
-31.06
-24.66
-18.14
-11.49
-4.82
1.48
6.95
11.28
14.45
16.81
18.82
20.86
23.00
25.04
26.67
27.73
28.29
28.60
28.89
29.18
29.30
29.00
28.14
26.69
24.78
22.51
19.93
17.09
14.09
11.08
8.24
5.59
3.00
0.15
-3.33
-7.65
-12.78
-18.38
-23.89
-28.60
-31.84
-33.13
-32.29
-29.53
-25.38
-20.45
-15.26
-10.03
-4.71
0.85
6.64
12.39
17.60
21.73
24.52
26.04
26.70
27.05
27.47
28.05
28.60
28.80
28.40
27.37
25.90
24.22
22.53
20.81
18.91
16.64
13.88
10.76
7.52
4.45
1.69
-0.81
-3.29
-6.10
-9.49
-13.62
-18.44
-23.76
-29.30
-34.63
-39.24
-42.63
-44.33
-44.12
-42.07
-38.49
-33.80
-28.37
-22.39
-15.92
-9.02
-1.90
5.04
11.27
16.36
20.14
22.77
24.60
26.02
27.25
28.32
29.15
29.62
29.65
29.28
28.56
27.55
26.34
24.99
23.58
22.10
20.43
18.43
15.92
12.89
9.49
5.92
2.39
-1.06
-4.52
-8.15
-12.11
-16.45
-21.15
-26.19
-31.49
-36.93
-42.18
-46.70
-49.85
-51.05
-50.01
-46.90
-42.25
-36.72
-30.88
-24.96
-18.95
-12.78
-6.53
-0.52
4.74
8.85
11.73
13.64
14.99
16.18
17.36
18.46
19.27
19.69
19.78
19.72
19.71
19.78
19.83
19.61
18.93
17.68
15.91
13.80
11.56
9.34
7.22
5.19
3.14
0.98
-1.40
-4.05
-6.99
-10.28
-13.97
-18.07
-22.51
-27.05
-31.28
-34.64
-36.62
-36.84
-35.17
-31.79
-27.07
-21.48
-15.38
-9.03
-2.59
3.77
9.79
15.10
19.35
22.42
24.44
25.80
26.93
28.10
29.33
30.36
30.90
30.74
29.91
28.63
27.20
25.83
24.54
23.13
21.37
19.05
16.16
12.88
9.51
6.30
3.34
0.50
-2.46
-5.86
-9.83
-14.41
-19.49
-24.86
-30.22
-35.15
-39.12
-41.59
-42.11
-40.55
-37.13
-32.33
-26.71
-20.69
-14.46
-8.11
-1.74
4.35
9.75
14.07
17.18
19.23
20.64
21.84
23.10
24.34
25.32
25.77
25.59
24.89
23.94
22.96
22.04
21.04
19.70
