1593029038.00
64.000000
-0.00
-0.00
-0.00
-0.00
-0.00
-0.00
-0.00
-0.00
-0.00
-0.00
0.00
0.01
0.01
-0.00
-0.03
-0.05
-0.05
0.00
0.13
0.36
0.66
1.01
1.37
1.72
2.06
2.40
2.79
3.24
3.80
4.42
5.06
5.66
6.20
6.68
7.15
7.68
8.31
9.14
10.09
11.04
11.88
12.56
13.14
13.76
14.65
15.96
17.91
20.32
22.90
25.38
27.58
29.57
31.68
34.32
37.81
42.54
48.15
54.10
59.83
64.97
69.58
74.14
79.34
85.71
93.76
103.00
112.62
121.73
129.77
136.75
143.30
150.75
157.77
166.64
177.95
191.79
206.97
220.57
228.25
225.36
208.53
176.87
132.76
80.05
23.07
-34.94
-92.44
-149.16
-205.23
-260.37
-313.74
-363.87
-409.83
-450.91
-486.50
-515.74
-537.23
-549.22
-549.96
-538.37
-514.21
-478.67
-433.88
-382.45
-327.02
-269.84
-212.63
-156.66
-102.95
-52.37
-5.90
35.58
71.43
101.35
125.50
144.38
158.70
169.15
176.37
180.75
182.57
182.06
179.50
175.25
169.69
163.22
156.17
148.78
141.18
133.48
125.76
118.07
110.49
103.05
95.79
88.72
81.84
75.20
68.83
62.76
57.01
51.59
46.48
41.67
37.17
32.96
29.02
25.35
21.96
18.87
16.09
13.65
11.48
9.51
7.64
5.83
4.12
2.62
1.46
0.69
0.27
0.00
-0.35
-0.95
-1.84
-2.88
-3.88
-4.63
-5.05
-5.18
-5.17
-5.22
-5.49
-6.07
-6.97
-8.18
-9.59
-11.14
-12.47
-13.22
-13.10
-12.11
-10.89
-10.83
-13.41
-19.08
-26.17
-30.97
-29.36
-19.23
-2.55
14.84
25.65
24.87
12.35
-7.02
-26.20
-39.98
-47.11
-49.61
-49.51
-46.28
-37.10
-20.05
2.52
23.45
34.40
31.47
18.71
6.32
5.05
19.10
43.14
65.34
74.66
67.75
50.70
34.83
29.39
35.97
48.03
55.65
51.84
36.51
16.00
-1.08
-9.16
-8.15
-2.32
3.28
6.38
8.38
12.53
20.90
32.03
41.25
43.54
36.74
23.30
9.55
2.86
7.53
22.88
43.07
59.46
64.46
54.73
32.90
6.27
-16.53
-29.38
-31.21
-25.89
-19.67
-17.66
-21.60
-29.63
-38.15
-44.21
-47.03
-47.73
-47.82
-47.65
-46.40
-43.21
-38.50
-34.22
-32.69
-34.35
-36.44
-33.67
-21.30
1.48
29.76
54.45
66.47
61.48
42.25
17.20
-3.61
-13.36
-11.18
-1.62
8.41
13.12
10.00
-0.09
-14.53
-30.14
-43.99
-53.33
-55.48
-48.40
-31.81
-8.29
16.57
35.43
42.36
35.62
19.07
1.13
-8.09
-0.55
26.70
71.45
124.53
173.11
205.36
214.91
203.06
177.73
149.85
128.67
118.25
116.39
116.98
113.40
101.74
81.94
57.08
31.42
8.47
-9.88
-23.19
-31.61
-35.39
-35.44
-34.40
-37.23
-50.36
-78.96
-123.34
-176.71
-225.94
-256.10
-256.99
-228.25
-179.75
-127.18
-84.61
-58.20
-44.27
-32.20
-10.16
29.62
88.38
161.58
241.15
317.96
383.33
430.02
453.13
451.00
425.55
381.65
325.71
264.03
201.89
143.22
90.59
44.99
5.49
-30.67
-67.14
-106.87
-150.76
-197.52
-244.75
-290.03
-331.11
-365.59
-390.48
-402.89
-402.12
-391.82
-380.40
-378.43
-393.82
-427.06
-469.78
-507.58
-525.90
-515.86
-477.05
-415.79
-340.83
-259.43
-176.36
-95.89
-24.01
31.47
63.94
72.49
64.65
54.80
58.28
84.25
131.56
190.22
247.42
294.44
330.38
360.63
391.68
425.61
457.96
479.63
481.70
459.80
415.98
357.55
293.51
230.90
172.59
117.34
61.24
0.01
-69.27
-146.53
-227.95
-306.47
-372.96
-418.34
-435.76
-422.56
-381.57
-321.52
-255.86
-199.76
-165.99
-160.50
-180.04
-213.01
-243.77
-258.89
-251.83
-224.19
-182.80
-134.96
-84.82
-33.19
19.72
70.96
113.97
140.66
145.78
130.14
100.96
69.36
45.41
34.50
35.92
44.42
53.76
60.02
62.75
63.72
64.45
64.11
59.78
48.67
31.09
12.25
1.05
6.84
35.57
87.44
156.79
234.00
307.84
367.69
405.20
415.58
398.46
358.11
302.17
238.97
174.97
112.96
51.95
-11.03
-78.77
-151.45
-225.51
-293.84
-347.64
-378.98
-383.59
-362.40
-321.09
-267.91
-210.24
-152.42
-95.45
-38.89
16.52
67.02
106.29
127.91
128.25
108.08
71.81
25.53
-24.78
-73.84
-117.35
-152.06
-176.66
-192.57
-203.58
-214.04
-225.97
-237.42
-242.88
-236.20
-214.05
-177.72
-132.31
-83.96
-37.13
6.26
45.93
81.37
111.19
133.75
148.51
156.62
160.63
163.16
165.76
168.31
169.23
166.70
159.70
148.92
136.69
126.30
120.57
120.60
125.41
132.57
139.66
145.47
150.46
156.04
163.32
172.24
181.60
189.84
196.22
201.36
206.89
214.20
223.31
232.34
237.97
236.75
226.44
206.72
179.13
146.12
109.92
71.92
32.65
-7.62
-48.09
-87.21
-122.94
-153.37
-177.18
-193.74
-202.70
-203.68
-196.22
-180.25
-156.73
-128.00
-97.35
-67.96
-41.76
-18.80
2.42
23.80
46.28
69.07
89.87
105.87
114.99
116.58
111.46
101.21
87.44
71.41
54.06
36.38
19.60
5.18
-5.46
-11.03
-10.68
-4.24
7.38
21.97
36.05
45.49
46.55
37.17
17.81
-8.51
-36.95
-62.26
-80.20
-88.68
-88.07
-80.81
-70.42
-60.37
-53.10
-49.73
-50.26
-54.07
-60.25
-67.61
-74.43
-78.62
-78.29
-72.70
-62.81
-51.10
-40.69
-33.99
-31.81
-33.26
-36.27
-38.44
-37.71
-32.67
-22.70
-8.15
9.70
28.75
46.61
61.43
72.40
79.79
84.50
87.46
89.27
90.33
91.14
92.43
94.94
98.91
103.75
108.21
111.01
111.58
110.37
108.43
106.55
104.52
101.04
94.30
82.82
66.18
45.06
21.02
-3.84
-27.08
-45.96
-57.78
-60.56
-53.72
-38.49
-17.61
5.57
28.08
47.64
62.62
71.35
71.91
62.18
40.50
6.31
-39.33
-92.95
-148.64
-198.30
-232.88
-244.66
-230.24
-192.62
-141.16
-88.87
-48.09
-26.48
-25.25
-40.47
-66.15
-97.49
-132.41
-170.78
-212.71
-256.99
-301.19
-342.54
-379.06
-409.75
-433.66
-448.97
-452.68
-441.64
-414.12
-371.00
-315.68
-252.86
-187.32
-122.78
-61.86
-6.38
42.33
83.53
117.32
144.72
167.21
186.10
201.93
214.39
222.85
226.95
227.31
225.52
223.65
223.38
225.28
228.61
231.78
233.21
232.23
229.59
227.12
227.04
230.93
239.15
250.65
263.17
273.69
279.15
277.44
268.21
253.22
235.79
219.51
206.91
198.44
192.45
185.98
176.00
160.33
138.29
110.92
80.61
50.39
22.78
-1.52
-24.32
-49.32
-79.89
-116.30
-154.55
-187.75
-209.87
-219.55
-221.33
-223.33
-232.57
-251.24
-275.90
-299.80
-316.78
-323.75
-320.80
-309.54
-291.62
-268.83
-243.80
-220.21
-201.36
-188.12
-177.83
-165.75
-148.19
-124.97
-99.51
-76.26
-57.44
-41.52
-24.41
-2.43
25.28
56.67
88.59
119.18
149.00
179.77
212.36
245.14
274.28
295.54
306.33
306.92
299.86
288.49
275.03
259.63
240.53
214.81
179.31
131.51
70.35
-2.78
-83.03
-161.89
-228.54
-272.68
-287.81
-273.50
-235.65
-184.61
-131.93
-87.32
-56.51
-40.66
-37.02
-40.44
-45.11
-46.31
-41.53
-30.77
-15.72
1.46
19.39
37.76
56.52
74.86
90.69
101.39
105.42
103.86
100.43
100.21
107.50
123.70
146.78
172.24
195.09
211.87
221.83
226.73
229.78
234.17
241.97
253.49
267.37
280.95
290.95
294.34
288.95
273.66
248.15
212.97
169.99
122.95
77.59
40.61
17.79
11.97
22.08
43.94
72.30
102.87
133.19
161.98
187.76
207.98
219.48
219.96
209.48
190.59
167.23
142.88
119.30
96.45
73.51
49.91
26.01
2.87
-18.69
-38.80
-58.66
-79.92
-103.87
-130.67
-159.23
-187.71
-214.47
-238.95
-261.94
-285.23
-310.79
-339.74
-371.82
-405.65
-439.25
-471.09
-500.75
-529.02
-557.53
-588.41
-623.89
-665.67
-713.84
-765.71
-815.15
-853.38
-871.38
-862.99
-827.49
-769.91
-699.13
-624.54
-553.04
-487.85
-429.30
-376.60
-329.38
-288.02
-252.94
-223.70
-198.71
-175.85
-153.47
-131.08
-109.43
-90.10
-74.48
-63.14
-55.56
-50.42
-46.15
-41.55
-36.13
-30.14
-24.25
-19.10
-15.04
-11.97
-9.50
-7.13
-4.43
-1.10
3.10
8.34
14.82
22.67
31.88
42.35
53.97
66.82
81.30
98.10
117.95
141.25
167.70
196.17
225.05
252.63
277.74
300.02
319.93
338.45
356.87
376.51
398.35
422.42
447.06
468.58
481.85
481.83
465.52
433.33
389.08
338.52
287.17
238.59
193.91
152.55
113.60
76.90
43.26
14.03
-9.71
-27.65
-40.26
-48.35
-52.51
-52.68
-47.94
-37.00
-19.08
5.27
33.71
62.46
87.55
106.29
118.36
126.02
133.17
143.82
160.45
182.97
208.79
233.80
253.83
265.91
268.68
262.26
247.74
226.87
202.14
176.63
153.42
134.42
119.28
105.28
88.54
66.21
38.40
8.43
-18.62
-38.45
-49.55
-53.47
-53.40
-52.17
-50.90
-49.18
-46.19
-42.00
-38.04
-36.53
-39.35
-47.12
-59.08
-73.60
-88.88
-103.39
-115.62
-123.84
-126.05
-120.66
-107.49
-88.42
-67.17
-48.09
-34.42
-27.14
-24.91
-25.17
-25.63
-25.35
-24.66
-24.33
-24.42
-23.88
-20.90
-13.98
-2.74
11.72
27.30
41.84
53.94
63.33
70.61
76.73
82.47
88.42
95.03
102.66
111.26
119.90
126.52
128.33
123.03
110.17
91.85
72.22
55.81
45.55
41.51
41.13
40.55
36.36
26.84
12.16
-6.14
-26.05
-45.66
-63.41
-78.06
-88.68
-94.83
-96.77
-95.42
-92.10
-87.94
-83.40
-78.19
-71.60
-63.20
-53.28
-42.91
-33.46
-25.80
-19.90
-14.78
-9.28
-2.86
3.97
9.81
13.21
13.54
11.37
8.21
5.79
5.24
6.83
10.14
14.60
20.03
26.65
34.93
45.16
57.27
70.78
84.82
98.18
109.30
116.42
118.09
113.75
104.24
91.80
79.31
69.20
62.48
58.33
54.72
49.43
41.19
30.09
17.29
4.23
-8.14
-19.68
-30.84
-42.22
-54.13
-66.45
-78.95
-91.45
-103.86
-115.72
-125.67
-131.37
-130.13
-120.07
-101.31
-76.36
-49.35
-24.49
-4.49
10.19
20.86
29.34
36.72
42.81
46.53
46.87
43.61
37.43
29.49
20.87
12.48
5.31
0.68
0.17
4.86
14.50
27.17
39.94
50.18
56.61
59.46
59.60
57.34
51.91
42.00
27.25
9.46
-7.41
-18.78
-21.68
-16.44
-6.68
2.48
6.88
5.21
-0.73
-7.41
-11.67
-12.35
-10.66
-9.34
-11.19
-17.83
-29.25
-44.13
-60.32
-75.21
-85.84
-89.24
-83.22
-67.36
-43.54
-15.67
11.84
35.79
55.40
72.05
87.86
104.09
120.14
134.03
143.68
148.18
148.20
145.39
141.26
136.47
130.84
124.08
116.39
108.76
102.46
98.40
96.71
96.90
98.24
100.19
102.48
104.90
107.05
108.25
107.72
104.86
99.43
91.39
80.55
66.08
46.25
18.73
-18.31
-64.79
-117.51
-170.15
-214.72
-244.28
-255.63
-250.71
-235.84
-219.02
-206.61
-201.31
-201.95
-205.11
-207.16
-205.43
-198.34
-184.87
-164.27
-136.42
-102.60
-65.70
-29.73
1.41
25.13
40.72
49.07
51.82
50.65
47.00
42.26
37.93
35.57
36.52
41.54
50.70
63.55
79.37
97.30
116.41
135.68
154.07
170.71
185.13
197.33
207.61
216.36
223.68
229.29
232.52
232.44
228.13
219.02
205.13
187.20
166.54
144.63
122.56
100.68
78.52
55.21
30.04
3.03
-25.06
-53.11
-80.19
-105.86
-130.12
-152.89
-173.68
-191.42
-204.72
-212.39
-213.72
-208.69
-197.94
-182.64
-164.31
-144.62
-125.01
-106.45
-89.22
-73.02
-57.38
-42.18
-27.97
-15.87
-6.99
-1.92
-0.46
-1.73
-4.72
-8.64
-13.05
-17.57
-21.52
-23.91
-23.78
-20.79
-15.48
-9.14
-3.01
2.46
7.94
14.79
24.13
36.10
49.60
62.84
74.26
83.21
90.17
96.26
102.39
108.63
114.06
117.18
116.66
111.99
103.56
92.20
78.43
61.95
41.79
17.07
-12.10
-44.09
-76.37
-106.60
-133.54
-156.95
-176.49
-190.53
-196.13
-190.41
-172.76
-146.19
-116.74
-91.00
-72.99
-62.47
-55.57
-47.45
-35.28
-19.78
-4.65
5.72
8.58
3.96
-5.83
-17.61
-28.65
-37.26
-42.82
-45.45
-45.72
-44.53
-42.97
-42.06
-42.19
-42.87
-42.76
-40.28
-34.33
-25.02
-13.74
-2.57
6.64
13.08
17.42
21.38
26.76
34.37
43.55
52.36
58.53
60.56
58.21
52.06
42.57
29.41
11.43
-12.45
-42.10
-75.77
-110.66
-144.22
-175.24
-203.85
-230.30
-253.40
-269.74
-274.37
-262.56
-231.82
-182.88
-119.66
-48.13
24.89
92.78
149.67
191.10
214.66
220.48
211.40
192.27
168.89
146.66
129.69
120.45
119.78
127.00
140.10
156.06
171.36
182.72
187.75
185.32
175.51
159.20
137.62
112.23
84.83
57.66
33.22
13.67
-0.21
-9.69
-17.98
-29.14
-46.23
-69.76
-97.10
-123.43
-143.69
-154.65
-156.13
-150.81
-142.93
-136.53
-134.13
-136.17
-141.13
-146.14
-147.76
-142.91
-129.87
-109.02
-82.92
-55.65
-31.37
-12.95
-1.11
5.26
8.13
9.03
8.38
5.64
0.13
-8.13
-18.11
-28.10
-36.39
-41.88
-44.38
-44.39
-42.64
-39.72
-35.72
-30.29
-22.80
-12.68
0.24
15.51
31.86
47.24
59.07
64.93
63.34
54.66
41.47
27.96
18.52
16.01
20.38
28.74
36.64
40.17
37.56
29.62
18.88
7.94
-1.80
-10.50
-19.35
-29.43
-40.97
-53.15
-64.44
-73.27
-78.31
-78.53
-73.07
-61.36
-43.58
-21.13
3.13
25.39
41.96
50.67
51.78
47.96
43.17
40.97
42.97
48.22
53.88
56.65
54.38
47.09
36.77
26.46
18.90
15.50
16.04
19.11
22.95
26.19
28.23
29.18
29.69
30.64
33.03
37.64
44.81
54.09
64.02
72.35
76.80
76.07
70.58
62.35
53.87
46.53
39.59
30.54
16.75
-2.43
-24.51
-44.53
-57.32
-60.18
-54.35
-44.51
-36.68
-35.68
-43.52
-59.31
-80.17
-102.42
-122.28
-136.18
-141.12
-135.35
-119.12
-95.08
-67.66
-41.67
-20.62
-5.79
3.77
10.17
15.42
20.60
25.71
30.28
33.92
36.56
38.36
39.43
39.75
39.32
38.29
37.08
36.08
35.48
35.08
34.58
33.81
33.11
33.21
34.84
38.21
42.65
46.70
48.47
46.34
39.60
28.93
16.35
4.68
-3.54
-7.14
-6.82
-4.91
-4.07
-6.01
-10.50
-15.65
-19.03
-19.09
-16.10
-11.97
-9.30
-10.10
-14.89
-22.57
-30.78
-36.76
-37.99
-32.78
-20.66
-2.54
19.33
41.69
61.05
74.65
81.42
82.41
80.51
79.48
82.56
91.25
104.72
120.14
133.71
141.87
142.41
134.85
120.29
100.77
78.57
55.59
33.17
12.20
-6.59
-22.41
-34.13
-40.34
-39.64
-31.29
-15.97
3.59
22.63
35.41
37.01
25.41
2.55
-26.23
-54.42
-77.05
-92.68
-103.24
-112.19
-122.00
-132.50
-141.11
-144.64
-141.35
-132.05
-119.57
-107.18
-96.95
-89.07
-82.34
-75.23
-66.73
-56.46
-44.42
-30.70
-15.65
-0.20
14.00
25.01
31.52
33.70
33.32
33.02
35.02
40.06
47.19
54.51
60.25
63.58
64.68
64.18
62.46
59.28
54.06
46.43
36.83
26.72
18.21
13.34
13.34
18.29
27.37
39.39
53.26
67.93
82.07
93.66
100.12
99.16
89.99
74.14
55.26
37.64
24.28
15.49
8.99
1.39
-9.82
-24.95
-42.14
-58.63
-72.24
-82.27
-89.26
-94.16
-97.49
-99.04
-98.25
-94.79
-88.87
-80.95
-71.27
-59.49
-44.88
-26.90
-5.78
17.25
40.22
61.20
78.98
93.45
105.38
115.91
125.81
134.95
142.21
145.73
143.58
134.48
118.37
96.55
71.38
45.57
21.34
-0.11
-18.70
-35.09
-50.00
-63.40
-74.11
-79.82
-77.93
-66.85
-47.22
-22.68
0.79
16.61
20.10
10.49
-8.65
-30.95
-50.12
-62.64
-68.97
-72.51
-77.26
-85.50
-96.63
-107.83
-115.83
-118.67
-116.57
-111.57
-106.35
-102.95
-102.04
-102.85
-103.54
-101.69
-94.96
-81.71
-61.78
-36.84
-10.25
13.89
32.20
43.24
48.08
49.61
51.15
54.84
60.77
67.29
72.09
73.58
71.68
67.60
63.04
59.08
55.70
51.93
46.68
39.59
31.52
24.34
20.04
19.94
24.30
32.36
42.88
54.31
64.87
72.37
74.37
68.85
55.37
35.84
14.35
-4.28
-16.42
-21.21
-20.63
-18.18
-16.98
-18.43
-22.20
-27.25
-33.02
-39.96
-49.05
-60.83
-74.70
-88.93
-101.18
-109.14
-111.06
-105.95
-93.84
-76.04
-55.15
-34.72
-18.11
-7.37
-2.50
-1.63
-2.17
-2.12
-0.95
0.53
1.10
0.19
-1.56
-2.55
-1.09
3.63
11.12
19.75
27.64
33.58
37.59
40.70
43.95
47.51
50.12
49.67
44.53
34.92
23.45
14.18
10.78
14.53
23.49
33.25
38.79
36.67
26.30
9.77
-9.37
-27.80
-43.50
-55.75
-64.46
-69.25
-69.15
-63.19
-51.43
-35.68
-19.34
-6.13
1.52
3.53
2.04
0.14
0.21
2.82
6.87
10.57
12.76
13.48
13.78
14.81
17.12
20.27
23.28
25.13
25.24
23.63
20.83
17.76
15.59
15.52
18.42
24.34
32.22
39.93
45.04
45.90
42.41
36.16
29.69
25.15
23.35
23.55
24.06
23.42
21.18
18.03
15.22
13.75
13.81
14.80
15.73
15.75
14.59
12.70
11.17
11.50
15.20
23.29
35.74
51.34
67.91
83.13
95.48
104.82
112.42
120.12
129.29
139.92
150.39
157.97
159.85
154.05
140.08
118.94
92.62
63.53
33.87
5.39
-20.79
-43.94
-63.67
-79.91
-93.12
-104.24
-114.32
-123.99
-132.96
-140.10
-144.18
-144.79
-142.91
-140.54
-139.63
-140.85
-143.05
-143.89
-141.24
-134.50
-124.92
-115.02
-107.20
-102.61
-100.83
-100.31
-99.20
-96.13
-90.58
-82.94
-74.24
-65.85
-59.02
-54.50
-52.21
-51.16
-49.80
-46.57
-40.51
-31.61
-20.76
-9.44
0.83
9.00
14.78
18.64
21.60
24.71
28.73
33.73
39.07
43.59
46.00
45.34
41.32
34.49
26.14
17.91
11.37
7.53
6.64
8.25
11.61
16.06
21.34
27.67
35.51
45.24
56.78
69.38
81.52
91.08
95.77
93.91
85.16
70.95
54.20
38.37
26.12
18.22
13.55
9.90
5.36
-0.58
-6.84
-11.57
-13.40
-12.37
-10.00
-8.60
-10.08
-15.04
-22.63
-30.94
-37.79
-41.34
-40.38
-34.30
-23.05
-7.18
11.90
31.97
50.32
64.43
72.81
75.45
73.73
69.82
65.76
62.79
61.06
59.86
58.21
55.29
50.80
44.95
38.16
30.86
23.18
15.01
6.15
-3.43
-13.40
-23.06
-31.44
-37.39
-39.88
-38.21
-32.26
-22.77
-11.38
-0.37
7.85
11.52
10.09
4.46
-3.35
-11.12
-17.45
-22.42
-27.61
-35.20
-46.69
-61.83
-78.42
-93.19
-103.33
-107.91
-108.18
-106.81
-106.31
-107.73
-110.25
-111.89
-110.61
-105.29
-96.06
-84.01
-70.67
-57.62
-46.25
-37.56
-31.91
-28.83
-27.02
-24.68
-20.22
-12.93
-3.22
7.60
17.93
26.50
32.63
36.34
38.10
38.58
38.51
38.53
39.14
40.66
43.21
46.74
51.07
56.00
61.32
66.84
72.23
76.96
80.13
80.57
77.20
69.47
57.95
44.38
31.35
21.33
15.66
14.02
14.64
15.35
14.62
12.25
9.04
5.97
3.28
0.23
-4.37
-11.34
-20.54
-30.96
-41.39
-51.12
-59.98
-67.85
-73.81
-75.92
-71.85
-60.10
-41.31
-18.45
4.11
22.33
34.08
39.74
41.55
42.10
43.00
44.28
44.74
42.86
37.82
29.84
20.17
10.58
2.83
-1.84
-2.85
-0.34
5.12
12.84
22.32
33.33
45.85
59.73
74.34
88.36
99.79
106.32
105.95
97.64
81.80
60.33
36.08
11.90
-10.27
-29.88
-47.50
-64.00
-79.60
-93.58
-104.56
-111.30
-113.39
-111.37
-106.49
-100.10
-93.28
-86.86
-81.45
-77.37
-74.28
-70.85
-64.92
-54.22
-37.67
-16.23
7.00
27.87
42.85
50.49
51.94
50.24
48.89
50.29
54.96
61.58
67.67
70.60
68.30
59.71
44.97
25.35
3.01
-19.34
-38.88
-53.11
-60.28
-59.72
-51.95
-38.53
-21.70
-3.81
13.25
28.41
41.39
52.35
61.29
67.78
70.90
69.78
64.03
54.03
40.64
24.78
7.00
-12.39
-32.74
-52.50
-69.16
-79.88
-82.74
-77.79
-67.29
-55.06
-45.11
-40.23
-41.24
-46.93
-54.63
-60.92
-62.43
-56.66
-42.68
-21.57
3.65
28.82
50.07
65.22
74.50
80.20
85.36
92.22
101.25
110.99
118.95
122.77
121.18
114.29
103.34
89.91
75.31
60.11
44.25
27.41
9.51
-8.90
-26.60
-41.97
-53.33
-59.34
-59.26
-53.20
-42.24
-28.64
-15.62
-6.78
-4.95
-11.14
-23.89
-39.76
-54.68
-65.68
-71.95
-74.78
-76.38
-78.36
-80.71
-81.97
-80.18
-74.16
-64.35
-52.71
-41.88
-34.08
-30.25
-29.80
-30.88
-31.10
-28.38
-21.53
-10.53
3.66
19.62
36.03
52.13
67.81
83.48
99.66
116.64
134.21
151.62
167.55
180.36
188.21
189.38
182.52
166.90
142.61
110.68
73.05
32.35
-8.46
-46.45
-79.13
-104.58
-121.48
-129.00
-126.82
-115.36
-96.09
-71.82
-46.50
-24.46
-9.34
-2.92
-4.58
-11.46
-19.65
-25.63
-27.60
-25.98
-22.85
-20.73
-21.25
-24.51
-29.34
-34.30
-38.70
-42.92
-48.14
-55.41
-64.96
-75.96
-86.82
-95.71
-100.94
-101.13
-95.28
-83.11
-65.39
-44.21
-22.62
-3.83
9.90
18.08
21.98
24.02
26.61
31.24
38.01
45.72
52.38
55.88
54.61
47.90
36.28
21.40
5.77
-7.89
-17.41
-21.70
-20.93
-16.29
-9.40
-1.72
5.87
13.16
20.33
27.65
35.04
41.94
47.37
50.24
49.74
45.78
39.11
31.13
23.21
16.04
9.32
2.09
-6.47
-16.16
-25.50
-32.29
-34.68
-32.16
-25.99
-18.80
-13.66
-13.02
-17.91
-27.68
-40.03
-51.48
-58.14
-56.88
-46.36
-27.76
-4.47
19.04
38.86
52.90
61.31
65.97
69.31
73.33
78.95
86.01
93.50
99.93
103.58
102.89
96.72
84.91
68.53
49.87
32.03
18.08
10.25
9.29
14.38
23.56
34.50
45.20
54.37
61.35
65.67
66.72
63.71
55.95
43.31
26.54
7.22
-12.72
-31.70
-49.02
-64.86
-79.84
-94.16
-107.09
-116.94
-121.72
-120.18
-112.64
-101.23
-89.40
-80.84
-78.19
-82.18
-91.24
-101.94
-109.85
-110.89
-102.57
-84.86
-60.26
-33.02
-7.58
12.85
27.19
36.44
42.76
48.33
54.51
61.56
68.97
75.94
81.69
85.66
87.44
86.72
83.40
77.47
69.03
58.18
44.97
29.61
12.72
-4.45
-20.07
-32.19
-39.41
-41.40
-39.03
-33.98
-28.23
-23.58
-21.32
-22.06
-25.63
-30.97
-36.37
-39.97
-40.56
-38.19
-34.22
-30.72
-29.52
-31.25
-35.18
-39.65
-42.98
-44.26
-43.71
-42.34
-41.39
-41.70
-43.37
-45.77
-47.75
-48.04
-45.68
-40.35
-32.51
-23.27
-14.12
-6.37
-0.75
2.92
5.55
8.48
12.84
19.11
26.91
35.17
42.63
48.18
51.26
51.77
50.03
46.64
42.33
37.94
34.15
31.46
29.93
29.23
28.79
28.00
26.49
24.18
21.25
17.90
14.33
10.69
7.10
3.71
0.64
-1.92
-3.79
-4.84
-5.12
-4.96
-4.85
-5.23
-6.25
-7.62
-8.71
-8.87
-7.81
-5.85
-3.93
-3.38
-5.39
-10.60
-18.71
-28.44
-37.70
-44.08
-45.51
-41.00
-31.02
-17.47
-3.02
9.83
19.69
26.64
31.94
37.18
43.33
50.12
56.19
59.81
59.87
56.47
50.98
45.36
41.32
39.73
40.44
42.53
44.91
46.74
47.63
47.60
46.86
45.81
44.95
44.82
45.94
48.39
51.63
54.32
54.57
50.59
41.56
28.33
13.38
-0.20
-10.41
-17.55
-24.25
-33.99
-48.85
-67.91
-87.21
-101.65
-107.46
-104.19
-94.81
-84.17
-76.66
-74.41
-76.89
-81.72
-86.01
-87.43
-84.58
-77.02
-65.13
-49.95
-32.92
-15.66
0.56
15.06
27.80
39.08
49.19
58.05
65.26
70.37
73.16
73.66
72.13
68.73
63.38
55.89
46.20
34.69
22.18
9.76
-1.61
-11.36
-19.33
-25.55
-29.97
-32.36
-32.52
-30.62
-27.51
-24.61
-23.44
-24.96
-28.93
-33.87
-37.51
-37.88
-34.26
-27.75
-20.82
-16.24
-15.79
-19.47
-25.52
-31.35
-34.87
-35.44
-34.23
-33.61
-36.03
-42.85
-53.71
-66.60
-78.42
-85.84
-86.19
-78.13
-62.00
-39.77
-14.57
10.10
31.23
46.98
57.04
62.49
65.12
66.77
68.69
71.35
74.51
77.49
79.44
79.51
76.98
71.33
62.47
50.85
37.53
24.10
12.27
3.56
-1.25
-2.09
0.42
5.37
11.94
19.52
27.72
36.16
44.29
51.53
57.40
61.80
65.03
67.63
69.99
72.13
73.63
73.84
72.13
68.24
62.41
55.20
47.33
39.31
31.30
23.21
15.02
7.06
0.12
-4.84
-7.21
-7.10
-5.42
-3.37
-1.71
-0.14
2.82
9.20
20.67
37.57
58.68
81.58
103.53
122.36
136.95
147.17
153.31
155.45
153.03
144.96
130.14
108.19
80.22
48.91
18.14
-8.08
-26.88
-37.29
-40.39
-38.65
-34.93
-31.54
-29.63
-29.07
-28.76
-26.87
-21.29
-10.30
6.69
28.24
50.62
68.52
77.19
74.87
64.17
51.17
42.34
40.86
44.43
46.23
38.54
17.05
-16.57
-55.48
-91.10
-117.27
-132.37
-138.64
-139.38
-136.33
-128.77
-114.67
-92.96
-65.10
-35.07
-7.98
11.48
20.23
17.95
7.17
-7.31
-20.04
-26.88
-26.65
-21.56
-16.03
-14.55
-19.01
-27.47
-35.20
-37.22
-30.99
-17.67
-1.60
11.60
16.73
11.74
-1.41
-17.67
-31.34
-38.71
-39.63
-37.11
-35.30
-38.86
-48.70
-61.28
-70.85
-73.47
-69.71
-63.83
-60.64
-62.39
-71.81
-88.23
-108.48
-129.18
-149.74
-172.72
-201.39
-236.62
-275.77
-320.53
-370.74
-422.67
-469.25
-503.68
-522.36
-525.04
-513.61
-491.30
-471.00
-463.94
-474.85
-500.83
-535.67
-574.02
-612.02
-646.38
-619.44
-499.04
-294.20
-52.25
175.85
361.91
500.19
595.95
656.98
690.67
695.27
671.14
624.94
569.37
516.61
474.04
444.54
428.39
424.80
425.72
424.07
417.16
407.09
396.87
386.92
374.63
356.18
328.29
287.68
235.28
178.07
127.12
92.18
77.29
79.96
93.24
109.13
119.17
118.33
106.10
85.32
59.67
31.73
2.68
-27.21
-57.80
-89.76
-124.36
-163.17
-207.69
-258.30
-312.83
-365.57
-408.05
-431.49
-430.01
-402.99
-355.02
-293.51
-225.61
-155.80
-85.72
-15.76
52.96
117.73
174.90
221.63
257.36
284.05
304.96
322.84
338.56
350.86
356.76
353.74
340.98
319.72
292.58
262.03
229.73
196.24
161.42
124.80
86.84
49.19
14.15
-16.38
-42.16
-64.57
-86.01
-108.74
-134.38
-161.90
-187.49
-206.18
-214.11
-211.27
-201.11
-189.28
-181.70
-184.78
-200.68
-226.20
-254.20
-275.70
-284.65
-276.89
-250.34
-205.59
-150.53
-93.22
-39.35
7.53
45.82
70.03
76.44
64.89
38.53
-4.28
-60.79
-122.64
-179.45
-221.88
-252.40
-277.44
-303.98
-338.28
-393.14
-472.51
-567.15
-658.56
-724.93
-759.22
-762.33
-740.54
-642.98
-458.20
-220.77
13.11
181.96
305.11
404.30
492.70
578.47
658.79
717.66
743.08
733.77
697.96
650.71
597.83
543.09
489.11
436.20
376.50
305.50
225.83
145.21
73.57
11.47
-42.53
-89.13
-128.03
-162.09
-191.55
-213.48
-224.26
-221.50
-210.69
-199.18
-192.91
-194.85
-206.13
-223.70
-241.12
-251.35
-248.91
-233.76
-208.54
-176.90
-142.62
-109.65
-80.62
-56.24
-35.07
-13.53
12.35
46.01
88.12
134.78
177.44
205.24
209.18
185.90
139.98
82.68
28.15
-11.16
-27.33
-17.62
16.73
71.95
141.95
218.51
291.35
348.95
381.56
384.62
360.37
316.99
265.65
216.11
175.05
145.53
127.17
118.22
117.13
122.40
131.58
140.79
144.47
138.02
119.50
88.32
45.81
-5.09
-60.87
-118.01
-172.89
-222.52
-262.65
-288.13
-296.73
-289.34
-269.16
-240.96
-209.41
-171.74
-130.56
-94.26
-60.34
-23.82
17.86
65.13
115.55
163.77
202.43
223.05
220.47
195.08
149.92
89.55
18.44
-60.40
-144.61
-230.39
-311.69
-379.36
-423.88
-441.16
-433.94
-410.19
-379.55
-349.16
-321.55
-295.50
-267.60
-235.03
-198.24
-159.96
-123.11
-89.08
-57.18
-25.32
8.50
45.77
87.05
131.45
177.03
221.00
259.87
289.78
307.39
310.73
300.15
278.28
249.10
216.89
185.30
157.03
133.87
117.03
107.19
104.27
106.89
112.35
116.92
116.92
109.99
95.92
76.89
56.77
39.72
28.78
25.05
27.71
34.77
44.19
54.48
64.81
74.52
82.46
86.85
85.77
78.19
64.66
47.45
29.69
14.02
1.54
-8.55
-18.15
-29.01
-41.61
-54.76
-66.22
-73.89
-76.86
-75.79
-72.48
-68.84
-65.90
-63.38
-60.08
-54.73
-46.88
-37.15
-26.91
-17.40
-9.08
-1.49
6.16
14.05
21.25
25.97
26.42
21.91
13.26
2.53
-7.94
-16.45
-22.31
-25.55
-26.17
-23.80
-17.89
-8.41
3.39
14.95
23.22
25.89
22.46
14.41
4.42
-4.86
-11.77
-15.90
-17.50
-16.71
-13.05
-5.58
6.47
22.95
42.46
62.45
79.93
92.26
97.99
97.15
91.15
82.27
72.88
64.93
59.73
57.92
59.59
64.15
70.01
74.58
74.71
67.96
54.07
35.79
18.44
7.94
8.37
20.17
39.96
61.81
79.55
88.72
87.61
77.27
60.83
42.70
27.59
19.87
22.65
37.25
63.07
97.83
138.21
180.64
222.32
261.97
300.30
339.27
380.71
424.38
466.94
502.38
524.18
528.01
513.67
484.97
447.84
407.75
367.83
328.76
289.98
251.07
212.49
175.14
139.62
105.67
72.39
38.95
5.17
-28.18
-59.78
-88.38
-113.46
-135.38
-155.13
-173.73
-191.71
-208.82
-224.19
-236.91
-246.57
-253.53
-258.85
-263.75
-269.04
-274.75
-280.26
-284.89
-288.58
-292.31
-297.94
-307.54
-322.41
-342.25
-365.24
-388.46
-409.25
-426.18
-439.73
-452.16
-467.04
-488.28
-518.79
-558.92
-605.16
-650.09
-683.86
-697.33
-685.32
-648.65
-593.44
-528.31
-460.87
-395.02
-330.94
-266.79
-200.86
-132.75
-63.85
2.91
63.28
112.09
144.73
159.38
159.29
152.85
150.22
158.43
176.87
196.60
204.21
188.04
143.13
72.24
-16.90
-115.61
-216.57
-313.48
-399.34
-465.79
-504.92
-512.69
-491.39
-449.55
-399.08
-350.77
-311.02
-281.06
-258.53
-239.77
-221.90
-203.46
-184.18
-164.28
-144.02
-123.57
-103.00
-82.29
-61.46
-40.38
-18.70
4.19
29.00
56.35
86.45
118.85
152.51
186.09
218.51
249.37
279.09
308.56
338.77
370.25
403.03
436.83
471.14
505.00
536.51
562.68
580.13
586.31
580.79
565.53
543.97
519.11
492.09
462.02
427.26
387.31
344.01
301.07
262.29
229.72
202.81
179.23
156.51
133.56
110.98
90.12
71.95
56.17
41.64
27.24
13.16
1.28
-5.54
-4.58
5.50
24.14
49.07
76.90
103.90
126.59
142.23
149.41
148.36
141.03
130.42
119.42
109.48
99.78
87.51
69.12
42.12
6.56
-34.37
-74.96
-108.77
-130.76
-139.20
-136.48
-128.30
-121.79
-123.03
-134.97
-156.59
-183.45
-209.43
-228.65
-237.05
-232.84
-216.13
-188.06
-150.19
-104.38
-52.99
0.86
53.41
100.84
139.91
168.82
187.41
197.02
199.89
198.64
195.77
193.45
193.34
196.26
201.94
209.00
215.51
220.02
222.13
222.66
222.75
223.13
222.95
219.59
209.40
189.28
157.97
116.18
66.02
10.17
-48.13
-104.98
-155.82
-196.05
-222.50
-234.73
-236.19
-233.20
-232.67
-238.41
-249.82
-262.71
-272.29
-276.05
-274.41
-270.69
-268.98
-271.99
-277.54
-280.17
-273.81
-254.99
-223.80
-181.44
-130.85
-76.19
-23.78
22.75
61.45
92.09
114.99
130.99
143.55
154.21
160.68
155.22
134.40
99.57
57.60
17.72
-10.74
-17.96
0.00
39.30
87.07
134.50
177.05
215.13
250.46
262.11
237.28
178.45
122.29
73.64
31.74
-10.51
-51.10
-86.61
-114.62
-131.28
-135.56
-130.14
-123.38
-118.46
-115.61
-112.91
-109.59
-105.80
-99.49
-89.35
-75.83
-63.44
-53.05
-44.09
-35.30
-26.86
-19.77
-13.14
-5.64
3.73
13.48
23.49
33.19
41.58
46.76
47.45
44.72
41.11
39.30
40.16
44.06
50.08
56.33
60.30
60.04
55.16
46.52
35.55
23.17
9.98
-4.05
-19.23
-35.58
-52.12
-66.80
-76.87
-80.01
-75.14
-62.97
-45.92
-27.41
-11.04
0.34
5.25
3.70
-3.08
-13.19
-24.68
-36.16
-47.04
-57.52
-68.22
-79.50
-90.91
-101.02
-107.64
-108.67
-102.72
-89.77
-71.27
-49.83
-28.44
-9.75
4.43
13.31
16.97
16.19
11.99
5.18
-3.89
-14.95
-27.37
-39.90
-50.66
-57.59
-58.60
-51.98
-36.79
-13.38
17.11
52.59
89.69
123.85
149.81
163.28
162.42
148.42
124.85
97.27
71.31
50.54
35.19
22.39
8.57
-8.01
-26.24
-42.94
-53.37
-53.33
-41.49
-19.97
3.79
19.78
21.60
12.23
-4.34
-24.28
-44.22
-61.40
-72.30
-74.35
-66.34
-48.97
-25.22
-0.26
21.07
35.94
43.76
45.74
43.71
39.66
35.25
31.34
27.37
22.49
16.21
8.18
-1.83
-13.83
-26.78
-38.54
-46.39
-48.68
-44.94
-35.46
-22.18
-8.68
0.63
2.26
-5.16
-20.08
-39.24
-58.14
-70.79
-72.24
-59.88
-34.12
2.13
44.11
86.63
124.30
153.20
173.83
189.24
203.39
218.96
236.63
255.00
272.40
286.71
287.65
269.63
235.26
194.42
156.29
125.88
98.04
68.78
36.26
0.08
-33.96
-60.31
-75.48
-79.42
-75.05
-66.94
-58.65
-52.20
-47.47
-41.25
-30.64
-14.98
3.24
19.72
30.35
33.42
29.16
19.19
6.49
-6.80
-19.71
-32.58
-46.25
-61.50
-78.50
-97.59
-119.39
-144.01
-171.18
-199.64
-227.17
-251.19
-269.88
-282.95
-291.80
-298.29
-302.50
-301.87
-291.56
-266.27
-222.39
-159.41
-80.17
9.37
100.86
184.30
249.38
287.82
296.22
277.88
242.39
202.17
167.86
144.36
129.92
118.38
103.21
81.01
52.79
22.90
-3.52
-22.65
-33.12
-35.57
-31.77
-23.12
-10.00
7.43
28.24
49.63
67.01
74.98
69.03
46.58
8.06
-42.98
-100.55
-156.65
-202.12
-227.52
-225.34
-192.64
-133.86
-59.91
14.75
76.35
115.75
130.45
124.01
103.33
75.26
42.40
5.13
-36.44
-80.71
-123.64
-158.59
-177.50
-173.89
-146.31
-103.58
-58.58
-23.10
-4.38
-4.02
-18.79
-42.93
-71.54
-103.06
-144.52
-200.88
-269.86
-342.79
-409.39
-461.88
-496.57
-513.77
-516.58
-515.84
-517.59
-519.27
-513.71
-495.86
-466.18
-429.69
-393.20
-318.62
-197.20
-51.83
82.56
186.41
259.83
310.95
347.03
372.06
387.88
389.35
376.18
356.13
341.13
340.55
357.43
388.70
427.16
463.61
484.01
471.90
423.85
348.18
260.34
177.39
113.57
76.69
66.56
72.54
82.62
87.55
83.44
72.89
60.91
50.10
39.52
28.46
13.05
-6.97
-27.45
-43.44
-52.25
-54.77
-54.62
-55.39
-59.13
-66.90
-77.78
-89.15
-98.03
-102.01
-99.99
-91.81
-77.58
-57.69
-33.50
-7.46
16.91
35.44
44.24
40.61
23.73
-4.72
-40.94
-80.07
-116.85
-146.58
-165.87
-173.12
-168.69
-154.42
-132.37
-104.03
-70.32
-32.17
8.48
48.39
83.65
111.16
129.78
140.62
146.05
148.05
147.27
143.00
134.27
121.02
104.76
88.19
74.11
64.41
59.42
57.98
57.85
56.07
49.18
33.52
6.03
-34.43
-85.70
-141.92
-194.53
-234.71
-256.30
-257.72
-241.93
-214.64
-181.49
-146.06
-109.28
-70.81
-30.90
8.32
43.01
69.17
84.56
89.68
87.40
81.44
74.66
68.00
60.46
50.43
37.18
21.92
7.57
-2.55
-6.38
-4.04
2.34
9.72
15.33
17.47
15.58
10.26
3.29
-2.35
-2.83
5.24
23.07
48.36
75.53
97.58
109.01
108.14
97.53
82.37
67.81
57.28
51.58
49.74
50.25
51.71
53.08
53.01
49.74
41.54
28.01
10.69
-6.94
-20.31
-25.54
-21.05
-8.87
5.85
16.97
20.73
17.09
9.82
4.50
5.48
14.19
28.09
42.24
51.98
56.46
57.48
58.11
61.49
69.85
85.81
110.35
141.51
173.81
201.42
216.77
212.94
187.26
142.74
90.46
43.04
9.92
-4.49
4.11
36.38
89.62
158.39
234.14
310.64
380.15
434.08
466.04
479.69
481.73
478.05
471.29
459.63
444.52
426.48
404.98
345.31
234.89
88.61
-59.85
-166.22
-235.47
-279.85
-310.11
-335.32
-358.78
-375.64
-381.97
-378.82
-370.97
-360.22
-342.91
-317.96
-288.88
-260.93
-233.57
-208.87
-187.44
-171.10
-161.95
-157.87
-157.77
-159.62
-164.08
-170.12
-178.57
-194.76
-222.94
-262.81
-306.29
-342.77
-362.93
-361.80
-338.14
-279.25
-191.99
-98.21
-19.44
37.43
77.46
109.24
138.52
168.89
200.68
228.64
247.92
256.06
253.39
241.38
222.58
196.82
166.19
137.71
115.18
99.03
87.15
77.66
68.23
58.00
45.27
28.28
5.14
-27.75
-67.97
-111.71
-154.50
-193.41
-227.27
-257.51
-286.74
-318.16
-354.92
-396.64
-438.50
-471.73
-486.70
-475.24
-435.08
-370.77
-292.09
-210.07
-132.30
-61.74
2.18
60.51
114.48
162.74
202.20
230.24
247.10
255.81
259.82
260.68
257.59
251.37
243.52
236.17
231.61
232.19
239.14
251.39
265.26
260.45
225.40
164.49
94.54
31.05
-18.96
-55.47
-81.09
-99.11
-112.16
-119.50
-120.49
-115.39
-107.68
-100.41
-94.81
-89.70
-83.84
-77.05
-68.98
-61.44
-58.39
-64.36
-81.24
-111.55
-151.30
-193.73
-231.52
-257.33
-266.51
-258.23
-235.35
-202.66
-165.41
-127.61
-92.26
-60.89
-32.81
-6.41
19.85
46.69
74.00
100.72
125.34
145.47
158.83
164.41
162.64
154.75
141.74
124.07
102.07
77.44
53.69
36.04
29.75
37.92
59.68
90.21
122.26
148.60
164.07
166.26
155.46
134.20
106.77
78.72
55.96
43.15
42.02
50.48
63.16
73.36
75.75
68.42
53.41
35.39
19.22
7.76
0.70
-4.91
-12.99
-26.61
-46.79
-72.31
-100.23
-126.72
-147.87
-160.54
-163.11
-155.91
-141.04
-121.53
-100.17
-78.64
-57.37
-36.08
-14.64
6.65
27.33
47.38
67.62
89.16
112.62
137.33
161.52
183.19
201.25
216.07
229.00
241.32
253.41
264.46
273.15
278.61
281.13
282.14
283.42
286.08
289.87
293.23
294.09
290.82
282.98
271.19
256.62
240.21
222.20
202.37
180.42
156.41
130.98
105.20
80.45
58.23
40.13
27.64
21.82
22.90
30.04
41.48
54.87
67.89
78.50
85.12
86.63
82.32
72.04
56.34
36.43
14.01
-9.08
-31.29
-51.69
-70.14
-87.38
-104.79
-123.99
-146.20
-171.75
-199.78
-228.63
-256.45
-282.03
-305.29
-327.30
-349.79
-374.66
-403.77
-438.56
-479.52
-525.32
-572.06
-613.36
-641.83
-651.44
-639.73
-608.84
-564.47
-513.64
-462.19
-413.47
-368.39
-326.52
-287.17
-249.73
-213.33
-176.40
-136.52
-90.93
-37.48
24.27
92.10
160.66
222.11
267.92
291.34
289.58
264.68
222.42
169.85
112.77
54.62
-2.74
-57.25
-105.24
-141.61
-161.65
-163.37
-148.74
-123.12
-93.09
-63.91
-37.91
-14.29
9.67
36.84
68.74
104.71
141.95
176.34
203.69
221.05
227.58
224.56
214.73
201.05
185.59
169.19
151.79
133.23
113.92
94.81
76.94
60.77
46.13
32.69
20.78
11.72
7.51
9.82
19.01
33.62
50.85
67.61
81.59
91.67
97.61
99.29
96.23
87.61
72.98
53.11
30.34
8.19
-9.62
-20.41
-23.36
-19.65
-11.86
-3.02
4.40
8.99
10.52
9.72
7.84
6.30
6.23
7.91
10.31
11.07
7.14
-3.78
-21.79
-44.00
-65.16
-79.49
-82.97
-74.97
-58.26
-37.72
-18.15
-2.67
7.96
14.66
18.93
21.84
23.67
24.18
23.39
22.17
22.51
27.08
38.50
58.48
87.23
123.24
163.26
202.65
235.87
257.53
263.60
252.83
227.37
192.42
154.69
120.12
92.02
70.26
52.09
34.08
14.22
-6.99
-26.86
-42.08
-50.43
-51.96
-48.93
-44.80
-42.84
-45.13
-52.45
-64.68
-81.31
-101.45
-123.56
-145.15
-163.03
-174.05
-176.06
-168.38
-151.64
-127.17
-96.49
-61.18
-23.28
14.47
48.74
76.45
95.71
106.40
110.01
108.75
104.33
97.40
87.64
74.69
59.13
43.14
30.13
23.79
27.01
41.26
66.42
100.97
142.05
185.55
226.43
259.64
281.56
291.37
291.46
286.60
281.97
281.20
285.29
292.92
301.52
308.53
312.17
311.69
307.29
299.88
290.74
281.16
271.87
262.85
253.41
242.66
229.98
215.09
197.84
178.14
155.47
130.03
103.52
78.92
59.40
46.56
39.59
35.02
27.95
13.25
-12.03
-46.68
-84.66
-116.09
-129.94
-117.99
-78.48
-18.02
48.77
105.40
139.92
149.04
137.93
116.32
93.56
75.16
62.02
48.96
31.67
10.20
-11.26
-28.06
-38.51
-44.75
-50.86
-60.69
-82.80
-121.63
-174.50
-233.02
-288.73
-337.53
-380.03
-419.09
-457.71
-507.96
-577.38
-663.65
-755.46
-840.20
-910.63
-965.66
-1007.50
-1039.73
-1078.72
-1136.34
-1212.30
-1294.48
-1368.31
-1425.02
-1462.78
-1483.51
-1400.28
-1166.72
-802.06
-385.23
-0.26
306.74
528.07
676.54
771.20
823.99
838.25
813.59
755.77
679.01
598.55
523.17
454.01
398.72
358.87
323.66
284.05
241.32
207.18
194.49
208.21
243.38
288.92
331.68
356.68
356.39
334.03
300.41
266.51
238.32
216.93
201.46
190.09
179.19
166.07
150.38
133.71
117.83
103.29
90.15
78.73
69.16
60.84
53.06
45.53
38.33
31.43
24.51
17.42
10.43
3.92
-1.52
-5.53
-8.17
-9.89
-11.42
-13.36
-15.96
-19.02
-22.14
-24.73
-26.25
-26.29
-24.69
-21.55
-17.13
-11.83
-6.07
-0.13
5.77
11.56
17.29
23.06
28.86
34.51
39.56
43.45
45.74
46.30
45.55
44.35
43.70
44.44
46.82
50.43
54.50
58.21
61.11
63.32
65.37
68.06
72.31
78.95
88.51
100.72
113.99
125.11
129.83
124.20
106.56
78.78
46.13
15.56
-6.79
-17.56
-16.88
-7.43
7.05
23.51
40.10
55.66
68.95
78.39
82.63
80.87
73.15
59.93
42.24
21.25
-1.96
-26.76
-52.90
-80.18
-108.69
-135.83
-158.72
-174.26
-180.61
-178.24
-170.57
-161.81
-153.59
-143.91
-128.34
-103.27
-68.69
-29.33
7.39
34.69
49.82
55.24
55.58
54.03
50.80
44.28
33.09
19.96
8.96
-1.62
-15.26
-34.99
-64.97
-107.15
-158.47
-210.43
-251.41
-271.02
-263.98
-231.60
-181.76
-125.55
-72.53
-27.59
9.00
39.07
63.02
78.39
81.32
68.60
39.79
-1.50
-48.30
-92.20
-125.25
-141.57
-138.37
-116.31
-80.13
-38.30
-0.71
24.25
32.23
24.12
5.08
-17.68
-37.17
-48.43
-48.99
-38.38
-17.60
10.98
43.58
75.28
101.07
117.35
123.35
121.50
116.58
113.87
116.94
126.49
140.32
154.48
165.08
169.58
167.35
159.14
146.26
129.86
110.92
90.69
71.18
55.07
44.91
42.04
45.69
52.87
59.13
59.84
51.39
32.01
2.07
-36.04
-78.30
-119.43
-153.54
-175.10
-179.92
-166.12
-134.92
-91.13
-42.68
1.20
32.81
48.78
51.36
47.18
43.77
45.65
52.14
58.09
57.14
45.36
23.08
-5.97
-37.36
-68.30
-98.17
-127.15
-154.42
-177.39
-192.72
-198.19
-194.19
-183.83
-171.77
-162.27
-157.56
-157.12
-158.11
-156.51
-148.60
-132.14
-107.02
-75.14
-39.74
-4.38
27.91
55.10
76.17
90.65
98.18
98.33
90.74
75.70
54.54
29.79
4.72
-17.36
-33.87
-43.44
-45.90
-41.97
-32.74
-19.34
-2.84
15.61
34.64
52.60
67.73
78.49
83.93
83.93
79.27
71.34
61.78
52.01
43.14
35.93
31.08
29.24
30.84
35.69
42.71
49.92
54.88
55.45
50.50
40.32
26.55
11.61
-2.00
-12.43
-18.77
-20.98
-19.44
-14.45
-5.76
7.40
25.87
49.81
78.10
108.12
136.34
159.26
174.51
181.52
181.48
176.69
169.53
161.53
153.00
143.03
130.16
112.97
90.86
64.31
34.86
4.71
-23.88
-49.19
-70.34
-87.27
-100.42
-110.31
-117.28
-121.48
-122.97
-121.88
-118.55
-113.41
-106.79
-98.80
-89.26
-77.93
-64.82
-50.36
-35.49
-21.31
-8.71
1.96
10.91
18.47
24.68
29.03
30.83
29.79
26.37
21.48
15.78
8.98
-0.21
-13.09
-29.81
-48.51
-65.54
-76.57
-78.02
-67.98
-46.50
-15.19
23.16
64.85
105.44
140.26
165.39
178.81
181.09
175.11
164.84
153.84
144.03
135.31
126.20
114.75
99.46
79.73
55.89
28.90
0.15
-28.71
-55.86
-79.54
-98.37
-111.79
-120.40
-125.77
-129.90
-134.33
-139.48
-144.35
-147.03
-145.48
-138.37
-125.40
-107.16
-84.68
-58.95
-30.85
-1.33
28.31
56.28
80.59
99.47
111.86
117.51
116.94
110.97
100.41
85.95
68.16
47.80
26.12
4.87
-13.99
-28.70
-38.03
-41.46
-38.98
-30.85
-17.56
0.13
20.89
42.85
63.92
82.39
97.53
109.90
120.93
132.19
144.36
156.59
166.45
170.53
165.55
149.31
121.55
84.01
40.09
-5.89
-49.59
-87.35
-116.75
-136.88
-148.37
-153.24
-154.30
-154.39
-155.52
-158.40
-162.40
-166.01
-167.54
-165.56
-159.21
-148.09
-132.27
-112.21
-88.90
-63.90
-39.21
-16.85
1.63
15.62
25.46
32.23
37.19
41.34
45.23
48.96
52.33
55.05
56.82
57.34
56.35
53.68
49.45
44.30
39.33
35.87
35.05
37.46
42.87
50.40
58.83
66.93
73.60
77.93
79.07
76.23
68.80
56.69
40.64
22.29
3.94
-11.96
-23.50
-29.77
-30.93
-28.00
-22.30
-14.94
-6.59
2.46
11.78
20.41
26.61
28.32
23.83
12.74
-3.76
-23.13
-42.39
-59.11
-71.90
-80.41
-84.75
-84.92
-80.74
-72.17
-59.75
-44.92
-29.73
-16.14
-5.43
2.19
7.40
11.34
15.06
19.24
24.01
29.10
34.05
38.44
42.12
45.33
48.71
53.19
59.74
69.12
81.66
97.17
114.98
134.05
153.11
170.90
186.37
198.90
208.25
214.43
217.28
216.20
210.04
197.56
178.11
152.38
122.49
91.39
61.60
34.11
7.70
-20.43
-53.38
-93.03
-139.02
-188.69
-237.75
-281.31
-314.84
-334.79
-338.98
-326.97
-300.27
-262.31
-218.02
-172.77
-131.26
-96.41
-68.96
-47.73
-30.43
-14.71
0.98
16.94
32.20
44.93
53.14
55.39
51.46
42.54
31.00
19.76
11.39
7.33
7.46
10.20
13.10
13.80
10.88
4.42
-4.04
-12.12
-17.51
-18.83
-16.13
-10.81
-5.13
-1.36
-0.96
-4.13
-9.74
-15.72
-19.88
-20.67
-17.69
-11.71
-4.17
3.43
10.09
15.55
20.03
23.94
27.50
30.76
33.66
36.35
39.18
42.68
47.25
52.95
59.37
65.68
70.84
73.98
74.63
72.87
69.26
64.46
58.97
52.81
45.60
36.74
25.80
12.80
-1.76
-16.85
-31.26
-43.72
-53.21
-59.05
-61.05
-59.42
-54.79
-48.02
-40.08
-31.98
-24.67
-18.98
-15.48
-14.36
-15.23
-17.17
-18.91
-19.16
-16.96
-11.86
-3.90
6.61
19.29
33.88
50.30
68.48
88.22
109.10
130.39
151.27
170.96
188.98
205.25
220.03
233.72
246.72
259.29
271.50
283.18
293.70
301.88
306.06
304.45
295.67
279.34
256.17
227.61
195.29
160.44
124.05
87.24
51.88
20.62
-3.81
-19.58
-26.67
-26.87
-22.97
-17.35
-11.04
-3.47
6.79
20.87
38.79
59.19
79.92
98.75
113.95
124.43
129.60
129.17
123.16
111.96
96.49
78.04
58.07
37.82
18.09
-0.75
-18.67
-35.93
-52.84
-69.77
-87.02
-104.71
-122.73
-140.92
-159.18
-177.53
-195.96
-214.12
-231.33
-246.76
-259.96
-271.30
-281.81
-292.79
-304.87
-317.61
-329.37
-337.98
-341.34
-337.98
-327.06
-308.29
-281.92
-248.99
-211.75
-173.62
-138.53
-109.76
-88.70
-74.45
-64.22
-54.46
-42.23
-26.04
-6.00
16.53
39.50
60.74
78.16
90.01
95.14
93.29
85.32
73.13
59.24
46.15
35.69
28.74
25.32
25.00
27.24
31.59
37.56
44.34
50.44
53.74
51.93
43.03
26.10
1.27
-30.46
-68.02
-110.65
-157.85
-208.51
-259.96
-307.74
-346.32
-371.03
-379.84
-374.29
-358.69
-338.14
-316.36
-294.66
-272.47
-249.06
-225.15
-203.34
-187.19
-179.33
-179.98
-186.42
-194.01
-197.69
-193.55
-179.77
-156.90
-127.60
-96.17
-67.77
-47.48
-38.90
-42.97
-57.48
-77.55
-97.15
-110.91
-115.65
-110.72
-97.44
-77.91
-54.00
-27.08
1.58
30.29
56.70
78.16
92.56
99.27
99.42
95.61
90.82
87.36
86.04
86.07
85.62
82.70
75.86
64.55
49.22
31.38
13.50
-1.27
-9.94
-10.66
-3.61
8.80
22.67
34.06
40.48
41.59
38.98
35.10
32.12
31.29
32.87
36.59
41.99
48.51
55.46
61.89
66.74
69.04
68.19
64.09
57.14
48.19
38.27
28.45
19.62
12.54
7.90
6.44
8.92
15.81
26.91
41.12
56.56
71.00
82.46
89.60
91.76
88.64
80.10
66.11
47.18
24.80
1.56
-19.24
-34.42
-41.91
-41.08
-32.75
-18.65
-0.85
18.56
37.67
54.84
68.59
77.70
81.30
78.88
70.42
56.55
38.68
19.05
0.39
-14.55
-23.79
-26.50
-23.13
-14.96
-3.54
9.78
23.88
37.72
49.98
59.09
63.46
62.04
54.84
43.12
29.24
16.06
6.12
0.98
0.92
5.03
11.76
19.54
27.19
34.01
39.68
44.10
47.28
49.35
50.61
51.52
52.48
53.68
54.93
55.63
54.98
52.26
47.21
40.22
32.32
24.91
19.31
16.30
15.85
17.10
18.68
19.16
17.53
13.59
8.03
2.28
-1.80
-2.52
1.15
9.15
20.16
31.83
41.39
46.44
45.72
39.46
29.30
17.71
7.13
-0.70
-5.09
-6.28
-4.96
-1.85
2.60
8.08
14.32
20.94
27.51
33.66
39.13
43.80
47.52
49.94
50.54
48.64
43.67
35.43
24.31
11.43
-1.50
-12.50
-19.88
-22.72
-21.13
-16.15
-9.19
-1.51
6.22
13.94
21.94
30.42
39.04
46.89
52.57
54.63
52.07
44.68
33.30
19.62
5.77
-6.30
-15.23
-20.60
-22.76
-22.55
-20.92
-18.58
-15.97
-13.24
-10.54
-8.11
-6.35
-5.75
-6.51
-8.39
-10.60
-12.11
-12.06
-10.22
-7.14
-3.76
-0.91
1.16
2.80
4.60
6.95
9.84
12.99
16.20
19.66
23.90
29.41
36.30
44.08
51.81
58.41
63.03
65.30
65.32
63.73
61.44
59.49
58.68
59.25
60.69
62.00
62.11
60.58
57.95
55.76
56.06
60.71
70.73
85.89
104.55
123.77
139.72
148.34
146.28
131.85
105.73
71.02
32.66
-3.84
-33.83
-54.52
-65.33
-67.45
-62.87
-53.45
-40.37
-24.15
-5.15
15.68
36.32
53.64
63.86
63.50
50.38
24.33
-12.56
-56.31
-101.93
-144.43
-179.72
-205.12
-219.49
-222.94
-216.38
-201.23
-179.22
-152.39
-123.01
-93.37
-65.45
-40.55
-19.15
-1.00
14.53
28.08
40.03
50.46
59.28
66.44
72.05
76.33
79.51
81.63
82.47
81.67
78.86
73.90
67.03
58.78
49.90
41.03
32.64
25.01
18.56
14.15
13.16
17.16
27.15
42.64
61.12
78.24
88.81
88.39
74.84
49.08
14.88
-22.31
-56.96
-84.72
-103.15
-111.67
-111.12
-103.17
-89.99
-74.06
-58.02
-44.39
-35.13
-31.12
-31.84
-35.55
-39.83
-42.46
-42.15
-38.97
-34.13
-29.43
-26.45
-25.92
-27.50
-29.92
-31.47
-30.53
-25.98
-17.44
-5.20
9.86
26.49
43.30
58.93
72.39
83.14
91.24
97.14
101.53
105.03
108.00
110.59
112.78
114.67
116.46
118.49
121.00
123.99
127.10
129.77
131.46
131.89
131.21
129.91
128.60
127.71
127.27
126.93
126.14
124.43
121.67
118.26
115.22
114.08
116.81
125.40
141.32
164.84
194.48
226.98
258.01
283.25
299.65
306.23
304.05
295.49
283.18
269.24
254.88
240.64
226.76
213.49
201.08
189.63
178.85
168.13
156.83
144.55
131.39
117.88
104.76
92.64
81.74
71.81
62.32
52.71
42.65
32.15
21.55
11.37
2.04
-6.24
-13.52
-20.04
-26.09
-31.86
-37.36
-42.45
-46.89
-50.53
-53.30
-55.28
-56.66
-57.64
-58.41
-59.04
-59.54
-59.83
-59.83
-59.48
-58.78
-57.85
-56.86
-56.06
-55.70
-55.97
-57.02
-58.90
-61.58
-65.03
-69.28
-74.39
-80.51
-87.75
-96.15
-105.54
-115.65
-126.07
-136.53
-146.93
-157.35
-167.98
-179.02
-190.49
-202.22
-213.73
-224.19
-232.46
-237.26
-237.51
-232.71
-223.23
-210.22
-195.23
-179.67
-164.39
-149.66
-135.46
-122.04
-110.27
-101.72
-98.31
-101.75
-113.01
-131.88
-156.88
-185.40
-214.19
-239.97
-260.03
-272.63
-277.18
-274.14
-264.75
-250.68
-233.64
-215.10
-196.19
-177.70
-160.05
-143.37
-127.20
-110.40
-91.37
-68.58
-41.60
-11.81
17.43
41.44
55.62
56.79
44.06
18.91
-15.48
-55.11
-96.11
-135.30
-170.71
-201.82
-229.40
-254.96
-279.37
-301.67
-318.49
-324.79
-315.93
-290.08
-249.59
-200.67
-151.25
-108.25
-75.44
-53.02
-38.90
-30.51
-26.27
-25.73
-28.80
-34.80
-42.05
-48.38
-52.05
-52.46
-50.30
-47.10
-44.39
-43.05
-43.10
-43.85
-44.44
-44.38
-43.93
-44.18
-46.69
-52.75
-62.61
-74.90
-86.75
-94.74
-96.12
-90.14
-78.42
-64.40
-51.99
-44.18
-42.27
-46.00
-54.39
-66.55
-81.94
-99.90
-118.84
-135.89
-147.30
-149.60
-140.84
-121.25
-93.18
-60.13
-25.81
6.82
35.85
60.31
79.90
94.56
104.30
109.10
108.99
104.13
94.95
82.27
67.28
51.49
36.54
24.06
15.49
11.88
13.71
20.74
31.99
45.85
60.42
73.84
84.66
92.09
96.11
97.34
96.83
95.64
94.42
93.29
91.82
89.40
85.67
80.72
75.11
69.58
64.64
60.33
56.32
52.15
47.62
42.89
38.25
33.79
29.05
23.21
15.54
6.18
-3.60
-11.57
-15.44
-13.75
-6.43
5.28
19.47
34.40
48.94
62.54
74.87
85.41
93.37
97.93
98.68
95.91
90.66
84.36
78.37
73.50
69.81
66.74
63.46
59.33
54.20
48.41
42.57
37.16
32.33
27.81
23.14
17.88
11.80
4.85
-2.90
-11.25
-19.72
-27.46
-33.28
-35.86
-34.19
-27.99
-17.81
-5.01
8.74
21.79
32.91
41.38
46.93
49.60
49.53
46.91
41.98
35.04
26.59
17.41
8.55
1.17
-3.74
-5.66
-4.62
-1.16
3.93
9.83
15.90
21.64
26.57
30.04
31.31
29.55
24.23
15.48
4.30
-7.41
-17.20
-22.72
-22.38
-15.78
-3.81
11.79
28.95
45.85
61.15
73.95
83.61
89.73
92.11
90.96
87.01
81.37
75.26
69.73
65.29
61.96
59.32
56.81
54.05
50.97
47.87
45.13
43.01
41.43
39.94
37.93
34.89
30.55
24.93
18.19
10.66
2.84
-4.43
-10.00
-12.64
-11.44
-6.27
2.14
12.31
22.55
31.44
38.18
42.54
44.70
44.99
43.65
40.87
36.79
31.68
26.01
20.41
15.53
11.81
9.29
7.67
6.49
5.52
4.94
5.34
7.41
11.44
16.96
22.74
27.08
28.41
25.83
19.42
10.30
0.33
-8.41
-14.13
-15.77
-13.24
-7.24
0.96
10.05
18.94
26.89
33.41
38.16
40.83
41.26
39.63
36.51
32.70
29.02
26.00
23.82
22.38
21.59
21.42
21.97
23.24
25.06
27.09
28.93
30.35
31.40
32.31
33.30
34.34
35.08
34.86
32.97
29.00
23.08
16.06
9.31
4.23
1.83
2.30
5.05
8.99
13.08
16.71
19.80
22.59
25.23
27.48
28.77
28.49
26.36
22.68
18.26
14.04
10.68
8.30
6.52
4.68
2.34
-0.52
-3.51
-6.08
-7.95
-9.25
-10.50
-12.29
-14.89
-18.09
-21.29
-23.81
-25.24
-25.51
-24.79
-23.25
-20.80
-17.16
-11.98
-5.19
2.90
11.54
19.80
26.82
32.08
35.38
36.80
36.51
34.69
31.56
27.48
23.07
19.22
16.85
16.57
18.41
21.66
25.07
27.29
27.39
25.08
20.81
15.39
9.65
4.05
-1.33
-6.70
-12.31
-18.25
-24.34
-30.18
-35.24
-39.02
-41.15
-41.45
-39.98
-36.98
-32.71
-27.44
-21.37
-14.69
-7.72
-0.91
5.24
10.33
14.28
17.31
19.80
22.00
23.90
25.15
25.32
24.08
21.50
17.93
13.92
9.96
6.28
2.87
-0.46
-3.92
-7.62
-11.52
-15.56
-19.79
-24.48
-29.98
-36.52
-43.81
-50.86
-56.08
-57.87
-55.22
-48.27
-38.33
-27.39
-17.34
-9.36
-3.58
0.60
3.94
6.82
9.05
9.96
8.86
5.41
-0.14
-6.98
-14.08
-20.45
-25.41
-28.75
-30.64
-31.45
-31.74
-32.18
-33.58
-36.81
-42.50
-50.49
-59.50
-67.20
-70.98
-69.08
-61.56
-50.42
-38.67
-28.69
-20.93
-13.54
-3.39
12.16
33.65
59.12
85.03
107.96
126.09
139.57
149.67
157.42
162.47
163.06
156.94
142.73
120.94
94.14
66.08
40.37
19.29
3.34
-8.51
-17.91
-26.19
-33.65
-39.62
-42.92
-42.63
-38.70
-31.92
-23.72
-15.52
-8.37
-2.68
1.82
5.94
10.99
18.44
29.54
44.76
63.44
83.92
104.00
121.74
136.08
146.92
154.74
159.99
162.75
162.68
159.46
153.24
144.73
135.06
125.29
116.07
107.67
100.17
93.77
88.82
85.40
82.85
79.52
72.99
60.87
41.54
14.77
-18.25
-55.26
-93.42
-129.58
-160.42
-182.77
-194.18
-193.68
-182.30
-162.82
-138.92
-113.87
-89.51
-65.95
-42.17
-17.02
9.93
38.17
66.52
93.85
119.54
143.56
166.13
187.39
207.17
225.20
241.28
255.58
268.42
279.91
289.53
295.98
297.50
292.60
280.74
262.67
240.32
216.17
192.46
170.66
151.20
133.70
117.37
101.50
85.77
70.32
55.62
42.21
30.39
20.07
10.62
1.10
-9.41
-21.53
-35.33
-50.41
-66.20
-82.28
-98.76
-116.18
-135.44
-157.52
-183.39
-213.79
-248.86
-287.52
-326.97
-362.81
-390.04
-404.65
-405.18
-393.33
-373.47
-350.95
-330.45
-314.69
-304.43
-299.15
-298.00
-300.22
-304.99
-310.95
-315.92
-317.24
-312.66
-301.21
-283.67
-262.40
-240.35
-219.82
-201.45
-183.88
-164.21
-139.05
-105.61
-62.65
-10.97
46.63
105.81
161.55
209.28
245.77
269.81
282.09
284.68
280.04
270.38
257.41
242.45
226.75
211.51
197.61
185.08
172.96
159.51
142.98
122.39
98.03
71.38
44.52
19.39
-2.67
-21.12
-35.99
-47.61
-56.40
-62.96
-68.13
-73.14
-79.56
-89.09
-103.08
-122.10
-145.61
-171.90
-198.50
-222.74
-242.38
-255.97
-262.96
-263.46
-258.02
-247.52
-233.11
-216.37
-199.27
-184.03
-172.83
-167.36
-168.55
-176.37
-189.88
-207.41
-226.82
-245.73
-261.69
-272.39
-275.89
-270.99
-257.58
-236.78
-210.65
-181.51
-151.03
-119.50
-85.74
-47.83
-4.18
45.30
98.91
153.70
206.67
255.78
300.18
339.34
371.98
395.29
405.45
399.04
374.73
334.09
280.91
219.66
153.99
86.49
19.37
-44.51
-101.52
-148.34
-183.46
-207.80
-224.02
-234.60
-240.07
-238.71
-227.87
-206.09
-174.80
-138.43
-102.97
-73.76
-53.72
-42.70
-38.06
-36.05
-33.35
-28.27
-20.99
-12.94
-5.52
0.93
7.38
15.23
24.68
33.67
38.11
33.53
17.41
-9.15
-41.30
-72.18
-95.68
-108.70
-112.16
-110.11
-107.54
-107.94
-111.77
-116.36
-117.42
-111.10
-95.91
-73.32
-47.06
-21.53
0.10
16.83
29.95
41.95
55.07
69.98
85.27
97.92
104.66
103.78
96.39
86.51
79.80
81.29
93.26
114.17
139.35
162.95
180.18
188.76
188.98
182.51
171.06
155.49
135.81
111.95
84.73
56.28
29.75
8.46
-5.28
-10.81
-9.19
-2.61
6.50
16.27
25.76
34.76
43.25
50.92
57.14
61.22
62.87
62.59
61.50
60.86
61.49
63.47
66.24
69.03
71.28
72.91
74.26
75.77
77.63
79.58
80.95
80.72
77.76
70.95
59.34
42.51
20.92
-3.83
-28.93
-50.90
-66.42
-73.37
-71.45
-62.24
-48.54
-33.34
-18.82
-5.76
6.33
18.47
31.28
44.15
55.02
60.90
58.87
47.39
27.11
0.94
-26.80
-51.65
-70.29
-81.12
-84.12
-80.29
-71.08
-58.13
-43.42
-29.31
-18.42
-12.96
-13.82
-20.03
-28.74
-36.06
-38.48
-34.19
-23.75
-9.91
3.48
12.96
16.65
14.78
9.27
2.71
-2.68
-5.73
-6.37
-5.16
-2.76
0.47
4.53
9.57
15.64
22.52
29.81
37.14
44.43
51.89
59.87
68.54
77.46
85.57
91.38
93.49
91.20
84.82
75.63
65.50
56.34
49.58
45.97
45.62
48.10
52.79
58.99
66.16
73.98
82.50
92.12
103.43
116.69
131.21
144.85
154.14
155.21
145.13
123.17
91.22
53.13
13.39
-24.21
-57.27
-84.59
-105.49
-119.30
-125.46
-123.98
-116.08
-104.21
-91.51
-80.73
-73.31
-69.02
-66.24
-62.82
-57.00
-48.23
-37.29
-25.98
-16.40
-10.16
-7.90
-9.28
-13.22
-18.38
-23.51
-27.56
-29.72
-29.43
-26.55
-21.57
-15.69
-10.55
-7.84
-8.60
-12.94
-20.08
-28.71
-37.51
-45.41
-51.67
-55.76
-57.27
-55.92
-51.67
-44.75
-35.52
-24.36
-11.61
2.35
16.90
31.12
43.98
54.59
62.56
68.10
71.88
74.72
77.30
79.95
82.74
85.50
87.92
89.58
90.05
89.13
87.09
84.83
83.79
85.36
90.21
97.82
106.32
113.06
115.57
112.51
104.14
92.23
79.30
67.77
59.34
54.76
54.08
56.91
62.61
70.36
79.04
87.30
93.69
97.01
96.54
92.13
84.06
72.81
58.96
43.11
26.02
8.75
-7.45
-21.28
-31.74
-38.32
-41.15
-41.05
-39.37
-37.86
-38.32
-42.19
-50.10
-61.68
-75.63
-90.12
-103.20
-113.09
-118.38
-118.08
-111.75
-99.74
-83.37
-64.89
-47.14
-32.92
-24.41
-22.71
-27.69
-38.16
-52.14
-67.16
-80.61
-90.05
-93.44
-89.50
-77.97
-59.84
-37.43
-13.96
7.17
23.39
33.72
38.89
40.77
41.34
41.85
42.57
43.15
43.40
43.70
44.94
47.98
53.00
59.34
65.73
70.94
74.28
75.83
76.15
75.90
75.39
74.48
72.72
69.69
65.29
59.94
54.47
49.85
46.90
46.00
46.94
48.99
51.08
52.15
51.43
48.60
43.88
37.92
31.63
26.02
21.93
19.81
19.42
19.79
19.37
16.54
10.18
0.22
-12.41
-26.10
-39.17
-50.38
-59.03
-64.78
-67.37
-66.55
-62.30
-55.21
-46.57
-38.12
-31.43
-27.33
-25.70
-25.68
-26.24
-26.74
-27.15
-27.81
-29.12
-31.19
-33.73
-36.18
-37.96
-38.62
-37.94
-35.90
-32.63
-28.36
-23.36
-17.88
-12.16
-6.39
-0.74
4.60
9.40
13.42
16.43
18.19
18.55
17.39
14.69
10.60
5.58
0.46
-3.73
-6.05
-6.04
-3.95
-0.67
2.60
4.83
5.42
4.33
1.81
-1.81
-6.32
-11.45
-16.76
-21.45
-24.57
-25.35
-23.62
-19.91
-15.32
-11.03
-7.89
-6.14
-5.50
-5.44
-5.52
-5.59
-5.75
-6.21
-7.04
-8.13
-9.16
-9.81
-9.93
-9.61
-9.15
-8.89
-9.04
-9.59
-10.31
-10.94
-11.32
-11.52
-11.82
-12.56
-13.87
-15.61
-17.30
-18.31
-18.13
-16.52
-13.67
-10.04
-6.20
-2.65
0.31
2.54
4.00
4.71
4.69
4.03
2.89
1.53
0.26
-0.70
-1.24
-1.44
-1.52
-1.78
-2.42
-3.46
-4.71
-5.84
-6.59
-6.87
-6.87
-6.95
-7.51
-8.74
-10.54
-12.55
-14.27
-15.25
-15.20
-14.02
-11.84
-8.92
-5.57
-2.14
1.04
3.69
5.55
6.48
6.45
5.61
4.23
2.68
1.30
0.30
-0.30
-0.64
-0.94
-1.32
-1.78
-2.23
-2.54
-2.66
-2.62
-2.51
-2.42
-2.40
-2.52
-2.80
-3.27
-3.92
-4.58
-5.00
-4.88
-3.99
-2.29
0.06
2.74
5.35
7.52
8.95
9.48
9.13
8.09
6.67
5.21
3.96
2.98
2.22
1.58
1.01
0.55
0.25
0.09
-0.04
-0.29
-0.76
-1.39
-2.02
-2.48
-2.74
-2.91
-3.26
-3.93
-4.88
-5.78
-6.15
-5.58
-3.89
-1.23
1.94
5.07
7.70
9.58
10.68
11.16
11.19
10.91
10.42
9.75
8.94
8.04
7.13
6.30
5.63
5.15
4.78
4.41
3.90
3.14
2.18
1.14
0.18
-0.58
-1.20
-1.87
-2.84
-4.28
-6.05
-7.80
-9.02
-9.29
-8.39
-6.44
-3.77
-0.79
2.14
4.78
6.96
8.58
9.57
9.92
9.73
9.21
8.64
8.24
8.13
8.26
8.51
8.78
9.03
9.39
10.05
11.26
13.17
15.73
18.57
21.02
22.26
21.58
18.66
13.69
7.39
0.68
-5.52
-10.57
-14.11
-16.01
-16.29
-15.08
-12.59
-9.23
-5.56
-2.22
0.24
1.49
1.45
0.33
-1.54
-3.77
-6.04
-8.11
-9.86
-11.22
-12.15
-12.65
-12.76
-12.61
-12.34
-12.15
-12.18
-12.44
-12.89
-13.38
-13.75
-13.88
-13.71
-13.27
-12.62
-11.87
-11.09
-10.27
-9.34
-8.15
-6.59
-4.61
-2.31
0.19
2.66
4.94
6.88
8.33
9.18
9.30
8.63
7.23
5.34
3.30
1.46
0.06
-0.85
-1.41
-1.85
-2.35
-2.95
-3.59
-4.11
-4.41
-4.47
-4.37
-4.24
-4.20
-4.36
-4.75
-5.40
-6.33
-7.51
-8.80
-9.95
-10.64
-10.55
-9.47
-7.44
-4.68
-1.59
1.39
3.92
5.84
7.14
7.91
8.28
8.34
8.14
7.69
7.07
6.37
5.72
5.22
4.91
4.77
4.68
4.56
4.31
3.95
3.51
3.09
2.77
2.56
2.40
2.17
1.71
0.89
-0.30
-1.72
-3.06
-3.92
-4.01
-3.25
-1.83
-0.09
1.61
3.03
4.13
4.94
5.47
5.66
5.36
4.46
3.08
1.46
-0.04
-1.15
-1.78
-2.03
-2.07
-2.05
-2.04
-2.00
-1.92
-1.80
-1.72
-1.80
-2.08
-2.53
-3.02
-3.41
-3.63
-3.72
-3.85
-4.27
-5.16
-6.52
-8.14
-9.60
-10.45
-10.35
-9.24
-7.30
-4.91
-2.47
-0.28
1.52
2.92
3.91
4.45
4.46
3.88
2.79
1.41
0.14
-0.71
-0.94
-0.60
0.05
0.66
0.96
0.84
0.36
-0.32
-1.03
-1.68
-2.27
-2.83
-3.35
-3.80
-4.10
-4.24
-4.27
-4.38
-4.75
-5.47
-6.43
-7.30
-7.69
-7.27
-5.94
-3.90
-1.55
0.71
2.61
4.07
5.15
5.96
6.47
6.58
6.19
5.28
4.00
2.64
1.53
0.91
0.88
1.29
1.89
2.39
2.55
2.31
1.73
0.99
0.28
-0.29
-0.68
-0.98
-1.28
-1.69
-2.24
-2.93
-3.74
-4.61
-5.48
-6.20
-6.54
-6.25
-5.16
-3.26
-0.78
1.88
4.28
6.10
7.21
7.71
7.82
7.73
7.56
7.27
6.82
6.17
5.41
4.69
4.20
4.05
4.20
4.50
4.68
4.55
4.06
3.33
2.58
2.01
1.68
1.45
1.11
0.51
-0.37
-1.38
-2.37
-3.23
-4.00
-4.78
-5.59
-6.30
-6.64
-6.33
-5.18
-3.26
-0.85
1.62
3.74
5.22
5.97
6.10
5.80
5.27
4.62
3.87
3.01
2.04
1.05
0.21
-0.34
-0.51
-0.36
-0.04
0.28
0.48
0.57
0.57
0.58
0.65
0.79
0.93
0.96
0.79
0.35
-0.35
-1.22
-2.16
-3.06
-3.90
-4.68
-5.41
-5.99
-6.29
-6.11
-5.36
-4.08
-2.49
-0.87
0.51
1.51
2.15
2.49
2.60
2.48
2.09
1.44
0.56
-0.39
-1.24
-1.90
-2.33
-2.63
-2.93
-3.35
-3.86
-4.39
-4.80
-5.03
-5.10
-5.12
-5.26
-5.59
-6.10
-6.67
-7.16
-7.42
-7.44
-7.32
-7.24
-7.38
-7.88
-8.71
-9.70
-10.55
-10.95
-10.65
-9.61
-7.98
-6.01
-3.97
-2.04
-0.30
1.24
2.53
3.49
3.98
3.89
3.22
2.16
0.96
-0.10
-0.81
-1.14
-1.21
-1.17
-1.16
-1.19
-1.16
-0.95
-0.52
0.04
0.49
0.57
0.17
-0.64
-1.57
-2.33
-2.70
-2.70
-2.53
-2.47
-2.72
-3.34
-4.27
-5.36
-6.43
-7.30
-7.76
-7.61
-6.65
-4.84
-2.30
0.69
3.75
6.54
8.79
10.40
11.35
11.73
11.61
11.07
10.16
8.99
7.68
6.42
5.38
4.72
4.53
4.77
5.30
5.88
6.26
6.29
5.93
5.29
4.59
4.00
3.60
3.34
3.04
2.56
1.82
0.84
-0.25
-1.37
-2.45
-3.49
-4.43
-5.19
-5.56
-5.35
-4.43
-2.81
-0.69
1.64
3.84
5.66
6.92
7.57
7.66
7.25
6.42
5.27
3.92
2.54
1.31
0.46
0.12
0.32
0.95
1.78
2.56
3.06
3.12
2.73
1.93
0.87
-0.31
-1.47
-2.50
-3.31
-3.81
-3.93
-3.59
-2.82
-1.70
-0.39
1.02
2.57
4.49
7.12
10.83
15.87
22.26
29.86
38.43
47.67
57.28
66.95
76.27
84.89
92.48
98.93
104.36
109.07
113.41
117.55
121.26
123.85
124.25
121.43
115.04
105.96
96.63
90.57
91.31
100.86
118.52
140.67
161.90
176.97
182.77
179.32
169.11
155.38
140.17
123.21
102.32
74.73
38.55
-6.49
-59.18
-117.14
-176.81
-232.95
-278.88
-307.99
-316.57
-306.44
-285.43
-264.80
-254.49
-258.51
-273.21
-289.45
-297.20
-290.34
-268.76
-237.15
-201.66
-166.63
-133.26
-100.47
-66.99
-33.02
-0.73
26.90
47.55
60.86
68.57
73.62
78.55
84.38
90.26
94.20
94.33
90.08
82.51
73.86
66.40
61.45
58.85
57.22
54.73
49.99
42.77
33.96
25.13
17.77
12.61
9.46
7.37
5.23
2.33
-1.33
-5.09
-8.00
-9.33
-8.95
-7.31
-5.28
-3.71
-3.09
-3.39
-4.15
-4.77
-4.75
-4.00
-2.80
-1.71
-1.34
-2.08
-4.04
-6.97
-10.46
-14.08
-17.53
-20.65
-23.40
-25.73
-27.57
-28.91
-29.81
-30.49
-31.26
-32.36
-33.82
-35.36
-36.49
-36.63
-35.42
-32.78
-28.99
-24.50
-19.83
-15.33
-11.15
-7.33
-3.87
-0.82
1.62
3.29
4.09
4.16
3.86
3.67
3.97
4.89
6.25
7.58
8.38
8.20
6.84
4.31
0.82
-3.37
-8.00
-12.86
-17.82
-22.79
-27.69
-32.37
-36.59
-40.08
-42.53
-43.81
-43.93
-43.11
-41.65
-39.80
-37.73
-35.54
-33.32
-31.18
-29.22
-27.47
-25.87
-24.33
-22.88
-21.75
-21.19
-21.34
-21.92
-22.23
-21.33
-18.48
-13.42
-6.48
1.59
9.99
18.11
25.65
32.46
38.36
43.02
46.08
47.29
46.73
44.78
42.02
39.00
36.01
33.06
29.93
26.34
22.21
17.68
13.08
8.80
5.14
2.14
-0.31
-2.36
-4.12
-5.55
-6.52
-6.89
-6.63
-5.80
-4.57
-3.09
-1.51
0.12
1.74
3.34
4.88
6.29
7.51
8.49
9.19
9.62
9.75
9.55
8.93
7.73
5.79
3.05
-0.39
-4.21
-7.89
-10.86
-12.64
-12.99
-11.94
-9.77
-6.87
-3.64
-0.36
2.80
5.72
8.27
10.25
11.46
11.74
11.16
9.95
8.53
7.33
6.66
6.56
6.89
7.33
7.53
7.23
6.32
4.83
3.01
1.24
-0.04
-0.40
0.40
2.34
5.12
8.27
11.24
13.57
14.94
15.15
14.11
11.87
8.64
4.81
0.88
-2.70
-5.63
-7.87
-9.55
-10.81
-11.66
-11.88
-11.13
-9.13
-5.86
-1.61
3.08
7.65
11.69
15.02
17.69
19.80
21.40
22.47
22.91
22.68
21.79
20.26
18.10
15.23
11.60
7.21
2.30
-2.73
-7.41
-11.39
-14.51
-16.87
-18.75
-20.49
-22.35
-24.42
-26.60
-28.60
-30.11
-30.82
-30.64
-29.69
-28.19
-26.39
-24.44
-22.40
-20.26
-18.12
-16.17
-14.69
-13.87
-13.70
-13.99
-14.35
-14.47
-14.17
-13.47
-12.54
-11.58
-10.72
-10.02
-9.43
-8.86
-8.24
-7.51
-6.64
-5.64
-4.55
-3.46
-2.47
-1.68
-1.16
-0.93
-0.97
-1.20
-1.54
-1.90
-2.27
-2.69
-3.25
-4.04
-5.17
-6.68
-8.44
-10.14
-11.29
-11.34
-9.92
-7.04
-3.11
1.24
5.42
9.13
12.49
15.79
19.27
22.85
26.17
28.76
30.34
30.90
30.75
30.21
29.50
28.65
27.60
26.28
24.76
23.21
21.80
20.62
19.61
18.60
17.41
15.95
14.24
12.40
10.54
8.75
7.05
5.39
3.73
2.00
0.14
-1.92
-4.29
-7.02
-10.09
-13.33
-16.47
-19.13
-20.97
-21.73
-21.32
-19.83
-17.49
-14.63
-11.58
-8.52
-5.47
-2.36
0.94
4.43
7.96
11.28
14.17
16.54
18.46
20.11
21.62
23.06
24.31
25.25
25.76
25.89
25.77
25.65
25.77
26.28
27.13
28.04
28.51
28.01
26.15
22.88
18.51
13.56
8.60
4.01
-0.08
-3.74
-7.08
-10.13
-12.87
-15.19
-17.03
-18.37
-19.21
-19.48
-19.11
-18.00
-16.18
-13.75
-10.93
-7.97
-5.03
-2.23
0.40
2.79
4.84
6.43
7.50
8.08
8.33
8.42
8.44
8.36
8.04
7.34
6.27
4.97
3.69
2.64
1.88
1.29
0.62
-0.35
-1.72
-3.40
-5.18
-6.82
-8.18
-9.24
-10.18
-11.21
-12.55
-14.28
-16.34
-18.58
-20.81
-22.92
-24.84
-26.55
-27.99
-29.09
-29.82
-30.15
-30.04
-29.34
-27.70
-24.68
-19.99
-13.71
-6.46
0.78
7.00
11.58
14.40
15.82
16.32
16.26
15.80
14.95
13.79
12.54
11.53
10.99
10.99
11.33
11.71
11.92
11.90
11.75
11.67
11.76
11.98
12.17
12.14
11.79
11.15
10.33
9.46
8.55
7.54
6.27
4.62
2.57
0.22
-2.20
-4.38
-5.99
-6.81
-6.74
-5.86
-4.38
-2.57
-0.66
1.21
2.97
4.60
6.07
7.32
8.30
9.02
9.56
10.02
10.48
10.96
11.42
11.73
11.84
11.71
11.40
11.05
10.74
10.52
10.33
10.06
9.63
9.00
8.21
7.35
6.55
5.83
5.15
4.41
3.56
2.60
1.62
0.71
-0.13
-0.99
-2.03
-3.35
-4.84
-6.21
-7.02
-6.92
-5.78
-3.78
-1.32
1.13
3.21
4.72
5.66
6.11
6.26
6.37
6.72
7.55
9.00
11.03
13.39
15.70
17.55
18.64
18.82
18.12
16.70
14.82
12.77
10.77
8.91
7.15
5.32
3.24
0.85
-1.76
-4.34
-6.57
-8.22
-9.21
-9.66
-9.76
-9.76
-9.82
-10.06
-10.60
-11.58
-13.11
-15.19
-17.59
-19.87
-21.52
-22.16
-21.71
-20.37
-18.54
-16.61
-14.80
-13.13
-11.51
-9.84
-8.10
-6.31
-4.55
-2.86
-1.26
0.26
1.64
2.84
3.81
4.53
5.02
5.31
5.45
5.45
5.34
5.16
4.95
4.74
4.55
4.32
3.96
3.38
2.56
1.54
0.44
-0.62
-1.58
-2.44
-3.25
-4.08
-4.97
-5.96
-7.06
-8.27
-9.61
-11.06
-12.52
-13.81
-14.66
-14.84
-14.26
-13.01
-11.35
-9.61
-8.01
-6.62
-5.33
-3.96
-2.39
-0.67
1.05
2.56
3.72
4.50
5.01
5.35
5.61
5.83
5.98
6.01
5.90
5.65
5.33
5.07
5.00
5.22
5.74
6.52
7.45
8.41
9.32
10.17
10.93
11.50
11.72
11.40
10.39
8.68
6.39
3.75
1.04
-1.51
-3.79
-5.82
-7.71
-9.67
-11.85
-14.29
-16.84
-19.18
-20.92
-21.75
-21.56
-20.48
-18.82
-16.91
-14.97
-13.04
-11.04
-8.88
-6.53
-4.11
-1.79
0.27
1.99
3.39
4.56
5.56
6.42
7.13
7.64
7.94
8.06
8.06
8.01
7.98
8.01
8.10
8.20
8.17
7.79
6.84
5.14
2.70
-0.26
-3.34
-6.10
-8.20
-9.51
-10.14
-10.40
-10.66
-11.25
-12.35
-13.92
-15.71
-17.33
-18.39
-18.69
-18.28
-17.53
-16.91
-16.82
-17.33
-18.21
-19.06
-19.57
-19.67
-19.59
-19.65
-20.13
-21.13
-22.63
-24.56
-26.67
-28.43
-28.95
-27.18
-22.33
-14.40
-4.40
5.88
14.56
20.43
23.34
24.03
23.61
22.92
22.20
21.23
19.73
17.72
15.55
13.71
12.52
11.93
11.59
11.01
9.92
8.32
6.48
4.71
3.23
2.03
1.02
0.08
-0.74
-1.27
-1.29
-0.68
0.52
2.05
3.59
4.84
5.63
5.94
5.92
5.73
5.60
5.64
5.91
6.38
6.96
7.55
8.07
8.50
8.80
8.95
8.95
8.80
8.53
8.20
7.90
7.68
7.57
7.53
7.47
7.31
6.97
6.43
5.75
5.03
4.33
3.70
3.10
2.44
1.65
0.73
-0.28
-1.34
-2.40
-3.49
-4.65
-5.86
-6.97
-7.72
-7.80
-7.02
-5.39
-3.17
-0.74
1.56
3.53
5.14
6.48
7.63
8.59
9.28
9.64
9.68
9.51
9.32
9.27
9.42
9.75
10.17
10.58
10.93
11.15
11.18
10.91
10.27
9.24
7.92
6.49
5.15
4.02
3.08
2.25
1.39
0.40
-0.71
-1.84
-2.89
-3.79
-4.59
-5.35
-6.18
-7.14
-8.22
-9.41
-10.62
-11.72
-12.54
-12.91
-12.69
-11.87
-10.53
-8.85
-6.99
-5.10
-3.28
-1.59
-0.11
1.10
2.00
2.58
2.92
3.08
3.14
3.15
3.19
3.29
3.49
3.75
3.99
4.10
4.02
3.79
3.55
3.45
3.55
3.81
4.07
4.19
4.09
3.77
3.32
2.83
2.32
1.81
1.25
0.61
-0.13
-0.96
-1.89
-2.93
-4.11
-5.50
-7.18
-9.14
-11.29
-13.39
-15.12
-16.16
-16.35
-15.67
-14.36
-12.70
-10.98
-9.36
-7.89
-6.56
-5.34
-4.21
-3.16
-2.15
-1.07
0.25
1.94
4.08
6.58
9.29
11.92
14.22
15.96
17.04
17.46
17.35
16.87
16.19
15.37
14.44
13.34
12.02
10.46
8.70
6.83
4.96
3.20
1.59
0.17
-1.12
-2.32
-3.53
-4.80
-6.17
-7.63
-9.13
-10.53
-11.70
-12.49
-12.75
-12.40
-11.46
-10.04
-8.26
-6.32
-4.36
-2.55
-1.00
0.22
1.08
1.67
2.11
2.52
2.98
3.49
3.98
4.37
4.62
4.73
4.73
4.62
4.40
4.04
3.60
3.21
2.97
2.95
3.07
3.09
2.77
1.95
0.67
-0.85
-2.27
-3.35
-4.07
-4.58
-5.16
-6.04
-7.33
-8.95
-10.69
-12.29
-13.51
-14.17
-14.15
-13.44
-12.10
-10.25
-8.05
-5.65
-3.18
-0.76
1.55
3.68
5.57
7.20
8.57
9.72
10.67
11.38
11.77
11.73
11.20
10.22
8.92
7.51
6.13
4.88
3.78
2.81
1.99
1.39
1.07
1.00
1.05
0.97
0.54
-0.35
-1.66
-3.18
-4.65
-5.89
-6.85
-7.61
-8.32
-9.15
-10.18
-11.44
-12.89
-14.42
-15.85
-16.96
-17.53
-17.41
-16.55
-14.99
-12.93
-10.56
-8.08
-5.63
-3.30
-1.16
0.77
2.45
3.89
5.08
6.05
6.76
7.19
7.34
7.26
7.06
6.90
6.89
7.08
7.41
7.75
8.00
8.13
8.20
8.29
8.45
8.64
8.70
8.49
7.92
7.02
5.89
4.65
3.37
2.08
0.84
-0.30
-1.26
-1.98
-2.49
-2.90
-3.36
-3.95
-4.59
-5.02
-4.91
-4.03
-2.36
-0.09
2.46
5.00
7.36
9.49
11.36
12.92
14.11
14.94
15.55
16.29
17.50
19.36
21.71
24.04
25.65
25.92
24.53
21.54
17.33
12.43
7.38
2.55
-1.82
-5.65
-8.92
-11.66
-13.91
-15.72
-17.23
-18.59
-20.01
-21.59
-23.41
-25.40
-27.49
-29.58
-31.67
-33.75
-35.87
-37.98
-39.94
-41.51
-42.39
-42.31
-41.12
-38.82
-35.57
-31.62
-27.27
-22.75
-18.16
-13.52
-8.80
-4.03
0.63
4.95
8.64
11.55
13.67
15.21
16.47
17.75
19.20
20.79
22.31
23.47
24.06
24.02
23.47
22.62
21.66
20.65
19.51
18.11
16.41
14.52
12.71
11.31
10.52
10.27
10.21
9.84
8.59
6.07
2.14
-3.05
-8.98
-14.86
-19.63
-22.24
-21.88
-18.25
-11.70
-3.11
6.35
15.51
23.47
29.71
34.03
36.48
37.27
36.69
35.11
32.88
30.28
27.52
24.66
21.72
18.69
15.53
12.29
8.98
5.65
2.40
-0.71
-3.59
-6.22
-8.60
-10.77
-12.78
-14.62
-16.30
-17.78
-19.06
-20.17
-21.13
-21.95
-22.60
-23.02
-23.21
-23.23
-23.25
-23.49
-24.14
-25.23
-26.56
-27.75
-28.38
-28.14
-26.91
-24.81
-22.03
-18.78
-15.14
-11.18
-6.94
-2.59
1.62
5.42
8.59
11.08
12.99
14.50
15.72
16.70
17.39
17.77
17.89
17.84
17.72
17.57
17.35
16.96
16.37
15.58
14.67
13.71
12.68
11.47
9.92
8.00
5.81
3.60
1.65
0.15
-0.90
-1.60
-2.17
-2.81
-3.65
-4.79
-6.27
-8.05
-10.04
-12.04
-13.76
-14.90
-15.24
-14.67
-13.25
-11.12
-8.46
-5.42
-2.16
1.14
4.26
6.96
9.04
10.37
11.01
11.11
10.89
10.60
10.40
10.28
10.02
9.16
7.15
3.53
-1.85
-8.61
-15.91
-22.60
-27.55
-29.96
-29.55
-26.62
-21.88
-16.25
-10.61
-5.65
-1.82
0.63
1.58
0.96
-1.30
-5.24
-10.69
-17.17
-23.79
-29.35
-32.52
-32.20
-27.87
-19.75
-8.77
3.68
16.26
27.95
38.32
47.42
55.52
62.87
69.54
75.46
80.52
84.76
88.44
91.97
95.86
100.54
106.27
113.09
120.65
128.23
134.72
138.80
139.25
135.30
126.79
114.27
98.73
81.35
63.29
45.53
28.95
14.29
2.21
-6.93
-13.13
-16.88
-19.11
-20.98
-23.49
-27.14
-31.57
-35.58
-37.45
-35.63
-29.41
-19.45
-7.83
2.58
8.97
9.56
4.05
-6.40
-19.77
-33.82
-46.72
-57.27
-64.89
-69.40
-70.90
-69.71
-66.48
-62.17
-58.01
-55.20
-54.58
-56.35
-60.08
-64.91
-69.86
-74.23
-77.66
-80.11
-81.70
-82.59
-82.85
-82.52
-81.70
-80.47
-78.92
-77.06
-74.79
-72.00
-68.67
-64.97
-61.24
-57.95
-55.45
-53.84
-52.90
-52.06
-50.55
-47.58
-42.56
-35.27
-25.96
-15.28
-4.12
6.52
15.84
23.28
28.60
31.81
33.16
33.02
31.88
30.21
28.41
26.75
25.29
24.03
22.86
21.71
20.60
19.56
18.69
18.07
17.77
17.73
17.80
17.71
17.13
15.81
13.69
10.99
8.15
5.63
3.75
2.53
1.75
1.01
-0.09
-1.85
-4.38
-7.62
-11.34
-15.19
-18.78
-21.69
-23.58
-24.26
-23.73
-22.13
-19.70
-16.69
-13.28
-9.61
-5.76
-1.83
2.15
6.17
10.30
14.62
19.16
23.81
28.24
32.03
34.74
36.12
36.15
34.99
32.90
30.17
27.02
23.70
20.37
17.12
13.83
10.25
6.13
1.43
-3.47
-7.95
-11.38
-13.49
-14.58
-15.32
-16.38
-18.00
-19.83
-21.10
-21.06
-19.32
-15.96
-11.38
-6.02
-0.13
6.11
12.49
18.49
23.30
26.04
26.05
23.15
17.65
10.18
1.43
-8.02
-17.74
-27.36
-36.41
-44.25
-50.12
-53.38
-53.79
-51.68
-47.92
-43.76
-40.43
-38.80
-39.22
-41.57
-45.48
-50.46
-56.05
-61.61
-66.29
-68.95
-68.38
-63.77
-54.98
-42.74
-28.49
-13.93
-0.49
10.99
20.45
28.37
35.40
42.02
48.30
54.01
58.74
62.22
64.47
65.73
66.40
66.74
66.84
66.56
65.70
64.04
61.47
57.94
53.47
48.18
42.22
35.88
29.53
23.54
18.24
13.85
10.53
8.40
7.57
8.18
10.18
13.24
16.76
19.94
22.05
22.77
22.26
21.16
20.28
20.27
21.32
23.11
24.94
26.03
25.86
24.29
21.62
18.44
15.34
12.76
10.91
9.74
9.02
8.47
7.75
6.48
4.34
1.14
-3.07
-7.94
-12.98
-17.67
-21.72
-25.11
-28.00
-30.61
-32.97
-34.98
-36.39
-36.96
-36.53
-35.04
-32.48
-28.91
-24.51
-19.57
-14.56
-9.95
-6.08
-3.12
-0.95
0.63
1.87
2.89
3.63
3.93
3.61
2.56
0.79
-1.57
-4.27
-7.08
-9.76
-12.20
-14.38
-16.35
-18.18
-19.90
-21.48
-22.83
-23.79
-24.25
-24.16
-23.55
-22.51
-21.10
-19.33
-17.14
-14.47
-11.35
-7.88
-4.26
-0.66
2.82
6.19
9.51
12.80
15.95
18.71
20.75
21.78
21.65
20.41
18.33
15.80
13.24
11.00
9.20
7.76
6.46
5.05
3.44
1.65
-0.11
-1.66
-2.92
-3.99
-5.12
-6.59
-8.52
-10.88
-13.41
-15.72
-17.39
-18.04
-17.47
-15.65
-12.80
-9.28
-5.46
-1.69
1.92
5.40
8.90
12.53
16.21
19.66
22.46
24.23
24.79
24.24
22.98
21.61
20.79
21.03
22.52
25.01
27.83
30.08
30.90
29.78
26.71
22.20
17.02
11.85
6.99
2.37
-2.29
-7.22
-12.30
-17.06
-20.77
-22.77
-22.71
-20.66
-17.14
-12.89
-8.61
-4.76
-1.48
1.35
3.87
6.19
8.14
9.46
9.96
9.59
8.58
7.29
6.02
4.87
3.71
2.32
0.57
-1.50
-3.60
-5.45
-6.91
-8.02
-9.01
-10.13
-11.52
-13.18
-15.02
-16.98
-19.04
-21.14
-23.08
-24.46
-24.83
-23.83
-21.40
-17.87
-13.78
-9.70
-5.99
-2.79
-0.07
2.24
4.11
5.49
6.31
6.63
6.62
6.51
6.48
6.57
6.73
6.84
6.80
6.59
6.26
5.85
5.40
4.92
4.39
3.80
3.15
2.45
1.68
0.80
-0.27
-1.57
-3.08
-4.65
-6.03
-6.92
-7.05
-6.27
-4.55
-2.06
0.93
4.08
7.05
9.58
11.55
12.95
13.89
14.47
14.79
14.86
14.66
14.17
13.40
12.43
11.35
10.27
9.25
8.33
7.53
6.88
6.37
5.96
5.54
4.97
4.15
3.07
1.84
0.59
-0.57
-1.69
-2.89
-4.33
-6.12
-8.25
-10.56
-12.82
-14.75
-16.08
-16.61
-16.19
-14.81
-12.59
-9.83
-6.85
-4.02
-1.58
0.35
1.74
2.66
3.21
3.52
3.70
3.84
4.00
4.16
4.26
4.23
3.98
3.51
2.83
2.02
1.18
0.39
-0.38
-1.18
-2.14
-3.36
-4.85
-6.49
-8.11
-9.54
-10.70
-11.68
-12.74
-14.20
-16.33
-19.17
-22.51
-25.89
-28.73
-30.45
-30.55
-28.67
-24.59
-18.26
-9.85
0.24
11.36
22.73
33.60
43.37
51.69
58.32
63.06
65.69
65.99
63.93
59.75
54.03
47.54
41.04
35.08
29.91
25.50
21.66
18.16
14.86
11.66
8.56
5.57
2.69
-0.10
-2.84
-5.59
-8.40
-11.36
-14.59
-18.21
-22.32
-26.88
-31.71
-36.45
-40.65
-43.90
-45.99
-46.94
-46.94
-46.21
-44.88
-42.93
-40.32
-37.04
-33.26
-29.24
-25.27
-21.55
-18.16
-15.11
-12.35
-9.88
-7.66
-5.62
-3.66
-1.65
0.48
2.69
4.83
6.78
8.42
9.75
10.81
11.68
12.40
12.98
13.38
13.58
13.50
13.05
12.14
10.69
8.71
6.39
4.05
2.07
0.81
0.43
0.89
1.97
3.33
4.71
5.93
6.95
7.79
8.44
8.87
8.98
8.73
8.13
7.29
6.36
5.44
4.57
3.75
2.99
2.39
2.12
2.31
2.98
3.97
4.97
5.66
5.85
5.54
4.89
4.10
3.34
2.63
1.90
1.04
-0.03
-1.33
-2.87
-4.61
-6.49
-8.32
-9.76
-10.47
-10.15
-8.79
-6.64
-4.17
-1.90
-0.11
1.16
2.11
3.00
3.96
4.90
5.60
5.87
5.66
5.09
4.38
3.73
3.21
2.77
2.34
1.83
1.23
0.56
-0.13
-0.83
-1.53
-2.27
-3.07
-3.98
-5.03
-6.28
-7.68
-9.22
-10.81
-12.38
-13.84
-15.12
-16.07
-16.54
-16.34
-15.36
-13.62
-11.33
-8.77
-6.29
-4.13
-2.38
-1.01
0.10
1.05
1.87
2.54
3.05
3.48
3.98
4.71
5.72
6.90
7.98
8.69
8.86
8.52
7.85
7.06
6.26
5.46
4.56
3.48
2.22
0.83
-0.67
-2.28
-4.12
-6.29
-8.77
-11.34
-13.65
-15.28
-15.94
-15.57
-14.38
-12.69
-10.86
-9.10
-7.46
-5.83
-4.12
-2.29
-0.42
1.37
2.96
4.31
5.47
6.46
7.29
7.87
8.08
7.82
7.11
6.10
5.06
4.30
4.01
4.23
4.77
5.33
5.57
5.33
4.64
3.70
2.78
2.01
1.40
0.82
0.10
-0.88
-2.12
-3.59
-5.20
-6.85
-8.37
-9.50
-9.96
-9.51
-8.04
-5.67
-2.72
0.44
3.47
6.11
8.25
9.86
10.95
11.60
11.84
11.74
11.35
10.76
10.07
9.40
8.84
8.46
8.23
8.09
7.96
7.77
7.47
7.03
6.45
5.70
4.80
3.78
2.69
1.56
0.40
-0.77
-1.92
-3.05
-4.18
-5.39
-6.81
-8.53
-10.50
-12.48
-14.08
-14.84
-14.42
-12.68
-9.72
-5.85
-1.45
3.06
7.33
11.06
14.02
16.03
17.02
17.01
16.12
14.55
12.53
10.33
8.17
6.18
4.42
2.88
1.51
0.28
-0.82
-1.79
-2.62
-3.37
-4.08
-4.85
-5.66
-6.47
-7.14
-7.58
-7.77
-7.82
-7.93
-8.35
-9.23
-10.60
-12.34
-14.14
-15.62
-16.42
-16.25
-15.02
-12.86
-10.08
-7.07
-4.19
-1.64
0.55
2.50
4.35
6.17
7.91
9.41
10.53
11.19
11.40
11.28
10.98
10.63
10.33
10.08
9.88
9.64
9.32
8.86
8.28
7.64
6.94
6.19
5.30
4.23
2.98
1.65
0.41
-0.60
-1.33
-1.90
-2.55
-3.49
-4.90
-6.76
-8.91
-11.11
-13.06
-14.48
-15.18
-15.03
-14.04
-12.32
-10.01
-7.31
-4.38
-1.41
1.42
3.97
6.11
7.80
9.05
9.90
10.46
10.83
11.11
11.41
11.76
12.16
12.51
12.67
12.56
12.22
11.81
11.56
11.62
12.00
12.53
13.00
13.22
13.09
12.65
11.98
11.14
10.13
8.94
7.57
6.08
4.53
2.96
1.34
-0.41
-2.33
-4.37
-6.42
-8.31
-9.90
-11.15
-12.07
-12.73
-13.16
-13.35
-13.22
-12.69
-11.72
-10.33
-8.61
-6.75
-4.94
-3.39
-2.23
-1.48
-1.11
-1.03
-1.15
-1.43
-1.85
-2.37
-2.97
-3.62
-4.34
-5.17
-6.19
-7.45
-8.91
-10.51
-12.05
-13.34
-14.11
-14.15
-13.32
-11.65
-9.38
-6.93
-4.73
-3.13
-2.23
-1.96
-2.15
-2.65
-3.39
-4.34
-5.44
-6.52
-7.34
-7.72
-7.59
-7.00
-6.09
-4.99
-3.74
-2.35
-0.79
0.93
2.76
4.56
6.14
7.36
8.09
8.38
8.37
8.28
8.32
8.53
8.79
8.88
8.60
7.91
6.99
6.10
5.48
5.17
5.05
4.89
4.48
3.76
2.81
1.81
0.92
0.19
-0.41
-0.97
-1.59
-2.27
-3.00
-3.77
-4.60
-5.54
-6.63
-7.80
-8.86
-9.55
-9.59
-8.86
-7.40
-5.40
-3.14
-0.84
1.33
3.30
5.02
6.47
7.61
8.46
9.05
9.45
9.74
9.95
10.07
10.01
9.74
9.26
8.70
8.22
7.98
8.00
8.18
8.31
8.17
7.57
6.42
4.81
2.90
0.95
-0.80
-2.16
-3.05
-3.51
-3.67
-3.73
-3.83
-4.10
-4.59
-5.35
-6.42
-7.80
-9.38
-10.92
-12.10
-12.58
-12.22
-11.09
-9.47
-7.74
-6.23
-5.06
-4.16
-3.34
-2.40
-1.26
0.01
1.26
2.36
3.25
3.99
4.63
5.22
5.72
5.99
5.91
5.44
4.64
3.69
2.74
1.94
1.32
0.88
0.57
0.40
0.38
0.51
0.75
0.96
0.98
0.68
-0.03
-1.09
-2.39
-3.76
-5.06
-6.21
-7.25
-8.27
-9.36
-10.49
-11.53
-12.21
-12.27
-11.54
-10.01
-7.80
-5.16
-2.33
0.48
3.11
5.48
7.53
9.20
10.45
11.25
11.64
11.69
11.52
11.26
10.99
10.75
10.51
10.21
9.82
9.36
8.87
8.44
8.14
7.96
7.87
7.73
7.42
6.83
5.95
4.87
3.79
2.92
2.41
2.24
2.23
2.06
1.43
0.20
-1.54
-3.42
-4.99
-5.82
-5.71
-4.69
-3.03
-1.09
0.80
2.40
3.62
4.42
4.81
4.81
4.49
3.94
3.34
2.86
2.62
2.65
2.88
3.13
3.22
3.03
2.51
1.74
0.85
-0.04
-0.79
-1.38
-1.81
-2.12
-2.39
-2.70
-3.10
-3.57
-4.07
-4.45
-4.62
-4.52
-4.24
-4.04
-4.27
-5.29
-7.30
-10.25
-13.80
-17.42
-20.48
-22.44
-22.94
-21.89
-19.49
-16.17
-12.43
-8.72
-5.31
-2.28
0.47
3.05
5.50
7.75
9.62
10.91
11.50
11.40
10.74
9.70
8.45
7.14
5.86
4.70
3.75
3.06
2.66
2.48
2.44
2.42
2.36
2.26
2.15
2.04
1.89
1.61
1.10
0.33
-0.68
-1.85
-3.13
-4.54
-6.17
-8.07
-10.25
-12.59
-14.85
-16.75
-18.00
-18.38
-17.74
-16.12
-13.69
-10.76
-7.66
-4.61
-1.71
1.10
3.88
6.54
8.80
10.32
10.84
10.38
9.26
7.98
6.99
6.49
6.40
6.48
6.52
6.45
6.35
6.39
6.63
7.01
7.33
7.38
7.04
6.27
5.14
3.80
2.39
1.04
-0.14
-1.12
-1.91
-2.64
-3.47
-4.53
-5.88
-7.38
-8.73
-9.49
-9.31
-8.00
-5.68
-2.74
0.26
2.76
4.37
4.96
4.63
3.66
2.39
1.18
0.32
-0.03
0.17
0.78
1.55
2.17
2.41
2.21
1.68
1.06
0.55
0.30
0.30
0.51
0.85
1.31
1.90
2.58
3.28
3.86
4.22
4.39
4.51
4.72
5.09
5.49
5.55
4.90
3.24
0.50
-3.08
-7.05
-10.83
-13.87
-15.75
-16.28
-15.49
-13.61
-10.98
-7.91
-4.65
-1.38
1.77
4.63
6.97
8.57
9.35
9.45
9.20
8.97
9.06
9.54
10.32
11.21
12.06
12.83
13.55
14.26
14.92
15.44
15.74
15.79
15.64
15.44
15.29
15.24
15.31
15.48
15.77
16.25
17.00
18.10
19.54
21.21
22.97
24.67
26.27
27.81
29.45
31.33
33.64
36.52
40.15
44.70
50.32
57.06
64.82
73.39
82.56
92.21
102.33
112.88
123.57
133.75
142.36
148.01
149.16
144.44
132.89
114.36
89.71
60.76
29.93
-0.49
-29.02
-55.33
-80.12
-104.59
-129.72
-155.83
-182.49
-208.76
-233.26
-254.13
-268.96
-275.21
-271.24
-257.41
-236.54
-213.01
-190.79
-171.52
-153.87
-134.85
-112.11
-85.82
-58.86
-35.03
-16.69
-3.27
8.30
21.54
38.22
57.45
76.35
91.64
101.10
104.17
101.70
95.28
86.87
78.36
71.47
67.44
66.93
69.99
76.31
85.47
96.95
109.98
123.26
135.11
143.94
149.01
151.02
152.04
154.68
160.91
170.99
183.18
194.27
200.83
200.59
193.23
180.23
164.00
146.90
130.57
116.09
104.74
98.37
98.98
107.78
124.29
146.31
170.82
195.34
218.75
241.00
261.96
280.27
293.16
297.39
290.89
273.84
248.66
218.77
187.11
155.10
122.67
89.22
54.60
19.66
-14.16
-45.55
-74.28
-101.57
-129.76
-161.30
-197.62
-238.46
-282.05
-325.80
-367.55
-406.43
-443.20
-479.86
-518.97
-563.07
-613.85
-671.27
-732.69
-792.36
-842.11
-873.39
-879.98
-860.26
-817.74
-759.46
-693.04
-624.03
-554.85
-485.65
-416.18
-347.28
-280.87
-218.89
-161.83
-108.21
-55.22
-0.23
58.29
120.38
184.71
248.99
309.82
362.70
402.47
424.79
427.69
412.67
384.18
347.90
308.63
269.12
230.41
193.25
159.49
132.39
115.48
110.76
117.42
131.95
149.42
165.29
176.70
182.77
184.18
182.12
177.60
171.18
163.16
153.97
144.60
136.53
131.17
129.21
130.10
131.92
131.96
127.58
117.35
101.60
82.46
63.07
46.42
34.24
26.44
21.47
17.20
12.07
5.67
-1.23
-7.34
-11.57
-13.57
-13.72
-12.82
-11.64
-10.58
-9.74
-9.09
-8.66
-8.70
-9.62
-11.74
-15.17
-19.63
-24.58
-29.41
-33.63
-37.11
-40.08
-42.93
-45.98
-49.25
-52.34
-54.60
-55.41
-54.46
-51.87
-48.13
-43.91
-39.79
-36.11
-32.90
-29.96
-27.04
-23.92
-20.57
-17.12
-13.81
-10.89
-8.49
-6.60
-5.08
-3.77
-2.55
-1.45
-0.56
-0.00
0.14
-0.07
-0.54
-1.22
-2.15
-3.52
-5.48
-8.08
-11.09
-14.12
-16.71
-18.56
-19.66
-20.27
-20.76
-21.49
-22.65
-24.32
-26.45
-28.96
-31.62
-34.05
-35.70
-35.97
-34.43
-30.91
-25.63
-19.07
-11.84
-4.52
2.41
8.60
13.79
17.87
20.83
22.83
24.09
24.80
25.05
24.79
23.95
22.55
20.87
19.43
18.81
19.48
21.55
24.64
28.07
31.05
33.00
33.62
33.02
31.50
29.40
26.96
24.29
21.44
18.44
15.39
12.35
9.33
6.16
2.66
-1.28
-5.46
-9.34
-12.14
-13.11
-11.84
-8.44
-3.50
2.14
7.71
12.70
16.93
20.43
23.27
25.44
26.88
27.53
27.42
26.79
25.93
25.12
24.54
24.18
23.97
23.86
23.86
24.06
24.51
25.12
25.66
25.83
25.43
24.40
22.90
21.20
19.59
18.24
17.20
16.34
15.43
14.15
12.13
9.04
4.72
-0.73
-6.81
-12.77
-17.75
-21.02
-22.20
-21.30
-18.68
-14.83
-10.32
-5.68
-1.37
2.21
4.82
6.40
7.09
7.21
7.08
6.89
6.67
6.30
5.68
4.78
3.71
2.58
1.47
0.31
-0.99
-2.47
-4.06
-5.63
-7.05
-8.34
-9.63
-11.11
-12.91
-15.02
-17.32
-19.73
-22.19
-24.67
-27.07
-29.06
-30.09
-29.54
-26.98
-22.34
-15.99
-8.65
-1.18
5.65
11.31
15.60
18.55
20.43
21.55
22.24
22.72
23.02
23.06
22.68
21.78
20.39
18.73
17.05
15.53
14.19
12.82
11.18
9.07
6.46
3.49
0.37
-2.76
-5.90
-9.17
-12.73
-16.69
-21.07
-25.78
-30.56
-35.03
-38.68
-41.01
-41.56
-40.13
-36.79
-31.90
-25.99
-19.58
-13.09
-6.84
-1.01
4.18
8.52
11.79
13.83
14.55
14.00
12.40
10.07
7.44
4.95
2.95
1.64
1.04
1.13
1.97
3.91
7.48
13.24
21.33
31.23
41.62
50.75
56.93
59.10
57.15
51.79
44.21
35.65
27.12
19.45
13.36
9.61
8.85
11.39
16.98
24.70
33.22
41.16
47.50
51.75
53.93
54.35
53.39
51.30
48.23
44.30
39.62
34.45
29.10
23.86
18.92
14.26
9.71
5.01
-0.01
-5.38
-10.95
-16.47
-21.64
-26.28
-30.26
-33.61
-36.40
-38.82
-41.08
-43.37
-45.73
-47.96
-49.57
-49.91
-48.32
-44.37
-37.97
-29.44
-19.47
-8.99
0.98
9.46
15.73
19.30
20.08
18.23
14.09
8.10
0.76
-7.27
-15.19
-22.00
-26.70
-28.56
-27.33
-23.36
-17.49
-10.73
-3.95
2.22
7.45
11.47
13.96
14.46
12.53
8.01
1.19
-7.12
-15.77
-23.55
-29.55
-33.29
-34.73
-34.08
-31.65
-27.72
-22.52
-16.36
-9.66
-2.97
3.11
8.17
11.99
14.69
16.54
17.89
19.02
20.02
20.84
21.34
21.33
20.79
19.83
18.80
18.12
18.22
19.31
21.27
23.62
25.65
26.66
26.17
24.16
20.96
17.13
13.20
9.55
6.32
3.42
0.67
-2.14
-5.18
-8.39
-11.41
-13.52
-13.76
-11.29
-5.76
2.36
11.77
20.65
27.31
30.67
30.57
27.75
23.43
18.81
14.76
11.60
9.23
7.33
5.57
3.77
1.90
0.08
-1.49
-2.52
-2.75
-1.89
0.19
3.42
7.44
11.68
15.50
18.35
19.95
20.33
19.78
18.74
17.63
16.73
16.11
15.67
15.16
14.34
13.05
11.21
8.86
6.10
3.05
-0.17
-3.44
-6.62
-9.65
-12.49
-15.22
-17.94
-20.74
-23.57
-26.24
-28.45
-29.90
-30.42
-30.03
-28.96
-27.56
-26.20
-25.13
-24.52
-24.39
-24.73
-25.53
-26.81
-28.65
-31.07
-33.94
-36.93
-39.49
-40.96
-40.81
-38.76
-34.96
-29.93
-24.35
-18.91
-14.08
-10.08
-6.93
-4.52
-2.79
-1.69
-1.17
-1.18
-1.55
-2.08
-2.56
-2.79
-2.65
-2.14
-1.33
-0.35
0.61
1.40
1.91
2.08
1.89
1.32
0.38
-0.89
-2.35
-3.83
-5.14
-6.21
-7.15
-8.22
-9.70
-11.68
-13.88
-15.73
-16.47
-15.53
-12.73
-8.39
-3.19
2.05
6.68
10.39
13.16
15.18
16.63
17.56
17.95
17.77
17.07
16.07
15.05
14.23
13.72
13.44
13.23
12.91
12.39
11.68
10.82
9.81
8.61
7.14
5.39
3.41
1.33
-0.73
-2.70
-4.64
-6.75
-9.30
-12.51
-16.39
-20.63
-24.64
-27.64
-28.94
-28.12
-25.21
-20.60
-14.90
-8.73
-2.58
3.21
8.41
12.83
16.26
18.61
19.89
20.32
20.22
19.94
19.75
19.74
19.84
19.85
19.55
18.78
17.53
15.97
14.37
13.03
12.13
11.58
11.10
10.26
8.75
6.47
3.62
0.55
-2.40
-5.05
-7.42
-9.66
-11.97
-14.50
-17.38
-20.65
-24.28
-28.03
-31.42
-33.81
-34.51
-33.09
-29.54
-24.26
-17.94
-11.27
-4.76
1.28
6.68
11.30
14.97
17.52
18.91
19.29
19.02
18.54
18.19
18.12
18.17
17.95
16.95
14.80
11.50
7.55
3.93
1.82
2.22
5.53
11.39
18.75
26.16
32.30
36.29
37.92
37.54
35.79
33.31
30.54
27.64
24.51
20.97
16.90
12.36
7.71
3.53
0.55
-0.54
0.68
4.19
9.55
15.94
22.44
28.19
32.62
35.43
36.60
36.28
34.70
32.18
29.07
25.75
22.61
19.96
18.03
16.84
16.30
16.23
16.33
16.34
16.01
15.19
13.82
11.91
9.57
6.89
3.95
0.83
-2.42
-5.74
-9.03
-12.23
-15.33
-18.42
-21.66
-25.26
-29.39
-34.01
-38.81
-43.16
-46.28
-47.46
-46.36
-43.10
-38.27
-32.72
-27.23
-22.29
-18.11
-14.64
-11.81
-9.61
-8.12
-7.41
-7.45
-8.06
-9.00
-10.05
-11.15
-12.38
-13.85
-15.57
-17.32
-18.64
-19.03
-18.16
-16.09
-13.26
-10.35
-8.06
-6.83
-6.70
-7.42
-8.58
-9.82
-10.97
-12.07
-13.29
-14.82
-16.85
-19.47
-22.73
-26.58
-30.79
-34.92
-38.23
-39.86
-39.05
-35.40
-29.07
-20.75
-11.51
-2.41
5.70
12.37
17.54
21.35
24.03
25.77
26.71
26.98
26.76
26.23
25.61
25.05
24.57
24.07
23.40
22.42
21.16
19.78
18.49
17.47
16.72
16.07
15.23
13.95
12.09
9.72
7.06
4.37
1.86
-0.38
-2.42
-4.41
-6.56
-9.03
-11.89
-15.12
-18.60
-22.09
-25.29
-27.84
-29.34
-29.49
-28.20
-25.69
-22.48
-19.16
-16.18
-13.57
-10.95
-7.74
-3.45
1.93
7.90
13.60
18.15
21.02
22.21
22.20
21.66
21.16
21.02
21.30
21.82
22.37
22.75
22.75
22.23
21.03
19.13
16.64
13.85
11.17
9.02
7.63
7.01
6.96
7.12
7.13
6.75
5.89
4.56
2.86
0.87
-1.32
-3.59
-5.70
-7.33
-8.14
-7.86
-6.45
-4.09
-1.17
1.87
4.62
6.85
8.48
9.54
10.12
10.29
10.05
9.38
8.26
6.70
4.81
2.81
0.94
-0.62
-1.80
-2.76
-3.72
-4.90
-6.44
-8.33
-10.45
-12.68
-14.95
-17.25
-19.65
-22.25
-25.06
-28.00
-30.90
-33.47
-35.40
-36.39
-36.22
-34.83
-32.31
-28.93
-25.07
-21.16
-17.54
-14.39
-11.65
-9.06
-6.32
-3.18
0.38
4.12
7.62
10.39
12.03
12.28
11.18
9.08
6.62
4.64
3.97
5.18
8.38
13.15
18.68
24.08
28.67
32.09
34.33
35.58
36.04
35.86
35.11
33.87
32.27
30.48
28.65
26.80
24.83
22.60
19.97
16.93
13.56
10.08
6.69
3.58
0.85
-1.52
-3.69
-5.93
-8.52
-11.72
-15.59
-19.92
-24.22
-27.87
-30.28
-31.11
-30.35
-28.33
-25.49
-22.33
-19.23
-16.46
-14.22
-12.67
-11.92
-12.04
-13.02
-14.76
-17.05
-19.54
-21.73
-23.01
-22.73
-20.42
-15.95
-9.57
-1.95
6.09
13.74
20.40
25.75
29.69
32.29
33.67
33.94
33.17
31.46
28.99
26.02
22.85
19.72
16.73
13.79
10.69
7.24
3.43
-0.57
-4.49
-8.02
-10.97
-13.19
-14.55
-14.89
-14.01
-11.83
-8.48
-4.32
0.11
4.26
7.71
10.25
11.87
12.68
12.83
12.44
11.57
10.27
8.61
6.73
4.84
3.25
2.30
2.22
3.07
4.69
6.79
9.07
11.29
13.33
15.12
16.59
17.56
17.83
17.23
15.71
13.37
10.45
7.27
4.19
1.61
-0.07
-0.61
-0.07
1.11
2.16
2.17
0.50
-2.95
-7.69
-12.78
-17.20
-20.15
-21.25
-20.62
-18.63
-15.87
-12.88
-10.15
-7.99
-6.56
-5.80
-5.52
-5.49
-5.53
-5.63
-5.83
-6.18
-6.62
-6.94
-6.81
-5.96
-4.29
-1.93
0.79
3.46
5.74
7.47
8.63
9.32
9.61
9.52
8.99
7.95
6.43
4.58
2.66
0.94
-0.43
-1.49
-2.45
-3.59
-5.13
-7.16
-9.64
-12.43
-15.34
-18.04
-20.11
-20.97
-20.03
-16.89
-11.49
-4.33
3.71
11.52
18.09
22.72
25.15
25.53
24.35
22.18
19.58
16.95
14.49
12.23
10.17
8.30
6.67
5.37
4.49
4.05
4.01
4.33
5.01
6.10
7.63
9.56
11.71
13.78
15.42
16.36
16.38
15.47
13.71
11.29
8.48
5.49
2.54
-0.23
-2.71
-4.85
-6.67
-8.31
-10.02
-12.10
-14.75
-17.90
-21.07
-23.52
-24.46
-23.42
-20.45
-16.11
-11.27
-6.77
-3.11
-0.37
1.64
3.18
4.40
5.23
5.53
5.26
4.55
3.70
3.08
2.91
3.23
3.85
4.54
5.12
5.58
6.08
6.81
7.89
9.23
10.56
11.48
11.68
11.01
9.54
7.50
5.04
2.19
-1.28
-5.61
-10.89
-16.89
-23.02
-28.61
-33.23
-36.82
-39.69
-42.19
-44.40
-45.97
-46.23
-44.51
-40.57
-34.70
-27.66
-20.35
-13.51
-7.53
-2.52
1.54
4.69
6.95
8.35
9.02
9.17
8.98
8.56
7.83
6.57
4.56
1.70
-1.93
-6.03
-10.14
-13.74
-16.33
-17.54
-17.24
-15.60
-13.01
-10.03
-7.14
-4.64
-2.57
-0.79
0.83
2.33
3.57
4.28
4.18
3.08
0.95
-2.03
-5.46
-8.78
-11.34
-12.56
-12.01
-9.59
-5.54
-0.39
5.22
10.64
15.40
19.18
21.84
23.33
23.67
22.94
21.30
18.96
16.19
13.34
10.74
8.64
7.23
6.56
6.56
7.07
7.90
8.86
9.80
10.68
11.48
12.21
12.80
13.13
13.07
12.51
11.44
9.97
8.23
6.31
4.15
1.55
-1.84
-6.37
-12.22
-19.28
-27.13
-35.03
-42.10
-47.47
-50.50
-50.91
-48.90
-45.11
-40.46
-35.90
-32.15
-29.45
-27.54
-25.80
-23.45
-19.93
-15.04
-8.96
-2.22
4.60
11.06
17.04
22.77
28.75
35.46
43.04
50.95
58.04
62.79
63.95
61.17
55.29
48.12
41.69
37.48
35.85
36.06
36.83
37.08
36.57
36.16
37.58
42.89
53.71
70.58
92.63
117.68
142.58
164.00
179.14
186.37
185.67
178.67
168.28
158.05
151.25
149.93
154.35
162.85
172.54
180.41
184.51
184.50
181.35
176.44
170.53
163.11
152.64
137.22
115.43
86.71
51.11
8.77
-40.37
-96.10
-156.87
-218.99
-276.82
-324.33
-357.30
-375.08
-380.87
-380.16
-378.32
-378.56
-381.25
-384.67
-386.48
-385.15
-380.36
-372.41
-361.23
-345.76
-324.12
-294.65
-257.13
-213.59
-168.36
-127.01
-94.61
-73.98
-64.58
-62.74
-63.14
-60.95
-53.76
-42.43
-30.41
-21.81
-19.34
-22.84
-29.16
-33.31
-30.51
-17.80
5.51
38.40
79.24
126.19
176.93
227.81
273.66
308.66
328.29
331.08
319.20
297.38
271.01
244.20
219.17
196.75
177.47
162.21
151.82
146.06
142.94
138.94
130.21
114.23
90.88
62.68
34.31
11.26
-1.73
-2.45
7.60
23.29
37.44
43.61
38.85
24.85
6.95
-8.69
-18.13
-21.26
-21.11
-21.41
-24.16
-28.66
-32.42
-33.27
-30.80
-26.56
-22.85
-21.30
-22.12
-24.63
-28.23
-32.88
-38.97
-46.50
-54.54
-61.21
-64.37
-62.26
-53.96
-39.32
-18.88
6.09
33.45
60.06
82.43
97.64
104.54
104.06
98.73
91.25
83.07
73.66
60.93
42.67
18.26
-10.29
-38.45
-60.85
-73.34
-74.76
-67.02
-53.78
-38.41
-22.57
-6.16
11.38
29.64
46.70
59.81
66.96
68.10
65.31
61.84
60.77
64.05
72.06
83.92
97.82
111.37
121.78
126.30
122.72
110.05
89.13
62.94
36.53
16.18
8.01
16.12
40.90
78.29
120.54
158.46
184.18
193.36
185.84
164.46
132.89
93.77
48.29
-2.50
-55.78
-105.85
-144.79
-165.01
-162.28
-137.68
-97.47
-50.84
-6.71
28.80
53.16
66.66
70.76
66.71
55.10
36.30
11.25
-18.09
-48.69
-77.06
-99.89
-114.88
-121.36
-120.60
-115.51
-109.88
-107.35
-110.24
-118.97
-131.97
-146.20
-158.23
-165.22
-165.84
-160.57
-151.52
-141.66
-133.82
-129.82
-130.06
-133.61
-138.78
-143.75
-147.09
-147.99
-146.41
-143.19
-140.06
-139.34
-143.32
-153.25
-168.39
-185.70
-200.50
-207.77
-203.88
-187.81
-161.60
-129.70
-97.72
-70.85
-52.62
-44.02
-43.64
-48.26
-54.07
-57.78
-57.51
-53.05
-45.61
-37.22
-29.97
-25.38
-23.96
-25.20
-27.85
-30.52
-32.24
-32.81
-32.68
-32.58
-33.06
-34.21
-35.85
-37.77
-40.01
-42.90
-46.77
-51.58
-56.86
-61.72
-65.13
-66.30
-64.87
-61.04
-55.55
-49.62
-44.67
-41.87
-41.79
-44.12
-47.77
-51.23
-53.06
-52.22
-48.18
-40.90
-30.65
-18.07
-4.18
9.59
21.57
30.22
34.59
34.65
31.21
25.70
19.53
13.74
8.70
4.34
0.33
-3.54
-7.21
-10.40
-12.79
-14.23
-14.73
-14.45
-13.64
-12.54
-11.43
-10.60
-10.29
-10.49
-10.91
-11.02
-10.31
-8.74
-6.93
-6.10
-7.63
-12.33
-19.82
-28.43
-35.59
-38.65
-35.73
-26.27
-10.99
8.53
30.45
53.16
75.41
96.26
114.88
130.61
143.00
152.06
158.24
162.30
164.88
166.18
165.87
163.26
157.66
148.89
137.40
124.25
110.68
97.60
85.24
73.13
60.54
46.99
32.80
19.09
7.40
-1.10
-6.26
-9.21
-11.86
-16.06
-22.67
-31.12
-39.70
-46.35
-49.62
-49.25
-46.13
-41.87
-38.08
-35.73
-34.90
-34.96
-34.86
-33.73
-31.33
-28.42
-26.70
-28.54
-36.18
-50.81
-71.79
-96.31
-119.89
-137.65
-145.76
-142.55
-128.81
-106.99
-79.98
-49.87
-17.23
18.87
60.01
107.22
159.73
214.36
266.01
309.39
341.19
361.51
373.53
381.62
388.52
393.60
393.10
382.24
357.96
320.53
273.50
222.01
170.84
123.17
80.27
42.16
8.26
-21.96
-48.53
-70.40
-85.39
-90.64
-83.67
-63.62
-31.55
9.99
57.90
109.08
160.02
206.24
242.52
264.67
271.85
267.96
260.78
258.78
267.26
285.91
309.18
329.34
340.16
339.28
328.21
310.40
289.00
265.66
240.73
214.18
186.44
158.56
131.72
106.72
83.47
61.10
38.37
14.22
-11.67
-38.69
-65.57
-90.89
-113.68
-133.81
-151.98
-169.45
-187.59
-207.54
-230.20
-256.11
-285.30
-316.91
-348.94
-378.46
-402.42
-418.97
-428.37
-433.00
-436.41
-441.93
-451.63
-465.91
-483.62
-502.43
-519.12
-530.08
-531.88
-522.34
-501.29
-470.92
-434.97
-397.43
-361.15
-327.27
-295.61
-265.41
-236.01
-206.91
-177.54
-146.89
-113.72
-76.85
-35.71
9.31
56.62
103.46
146.32
181.74
207.24
222.16
227.90
227.37
223.78
219.32
214.42
208.02
198.54
185.06
167.84
148.14
127.35
106.35
85.41
64.70
44.95
27.67
14.81
7.84
7.08
11.40
18.78
27.12
35.02
41.96
47.98
53.15
57.16
59.32
58.87
55.48
49.43
41.52
32.81
24.18
16.13
8.77
2.04
-4.09
-9.55
-14.26
-18.18
-21.37
-23.78
-25.16
-25.05
-23.11
-19.45
-14.81
-10.44
-7.59
-6.96
-8.42
-11.08
-13.86
-15.91
-16.93
-16.94
-15.89
-13.39
-8.82
-1.67
7.96
19.25
30.91
41.61
50.46
57.16
61.87
64.92
66.54
66.79
65.57
62.85
58.70
53.41
47.46
41.44
35.96
31.39
27.83
25.08
22.80
20.67
18.58
16.61
14.88
13.42
12.12
10.77
9.23
7.44
5.42
3.14
0.40
-3.11
-7.54
-12.60
-17.50
-21.01
-22.00
-19.79
-14.52
-7.00
1.55
9.98
17.44
23.52
28.13
31.40
33.53
34.80
35.53
36.05
36.61
37.40
38.50
39.95
41.75
43.89
46.30
48.93
51.80
55.04
58.93
63.71
69.47
75.94
82.54
88.63
93.79
97.99
101.53
104.73
107.69
110.20
111.96
112.88
113.26
113.68
114.60
115.85
116.50
115.12
110.36
101.63
89.37
74.76
59.24
43.82
28.85
14.09
-0.86
-16.19
-31.67
-46.73
-60.68
-72.89
-82.91
-90.49
-95.61
-98.45
-99.41
-99.00
-97.70
-95.88
-93.83
-91.77
-89.95
-88.48
-87.14
-85.15
-81.40
-74.90
-65.36
-53.56
-41.17
-30.22
-22.28
-17.98
-16.97
-18.24
-20.63
-23.22
-25.54
-27.55
-29.52
-31.93
-35.26
-39.88
-45.81
-52.62
-59.57
-65.80
-70.62
-73.70
-75.02
-74.79
-73.37
-71.11
-68.34
-65.26
-61.91
-58.07
-53.32
-47.18
-39.39
-30.05
-19.69
-9.11
1.03
10.49
19.67
29.50
41.18
55.64
73.01
92.44
112.34
131.04
147.50
161.78
174.92
188.09
201.73
215.03
226.12
232.84
233.61
227.88
216.07
198.99
177.39
151.78
122.59
90.48
56.49
21.96
-11.71
-43.28
-71.80
-96.57
-117.10
-133.02
-144.24
-150.92
-153.47
-152.45
-148.48
-142.12
-133.93
-124.46
-114.37
-104.28
-94.69
-85.82
-77.74
-70.53
-64.54
-60.39
-58.73
-59.85
-63.29
-67.80
-71.64
-73.10
-71.11
-65.49
-56.91
-46.55
-35.74
-25.59
-16.81
-9.74
-4.35
-0.38
2.53
4.71
6.37
7.56
8.24
8.25
7.50
5.98
3.79
1.13
-1.89
-5.22
-8.79
-12.23
-14.77
-15.31
-12.88
-7.20
1.05
10.42
19.26
26.51
32.03
36.38
40.24
43.66
45.96
46.03
43.11
37.45
30.49
24.38
21.20
22.18
27.21
35.05
43.97
52.44
59.74
65.95
71.61
77.12
82.44
87.03
89.85
89.35
83.59
70.56
49.08
19.68
-14.72
-49.27
-78.48
-97.89
-105.24
-100.59
-85.53
-62.21
-32.78
0.48
34.89
67.30
94.68
114.94
127.46
132.94
132.70
128.01
119.90
109.30
97.43
85.95
76.66
71.05
69.89
73.21
80.43
90.74
103.29
117.34
132.31
147.79
163.52
179.38
195.17
210.52
224.81
237.38
247.88
256.60
264.58
273.32
284.35
298.67
316.45
336.80
357.70
376.18
388.63
391.59
382.69
361.41
329.34
289.73
246.41
202.79
161.19
122.72
87.79
56.52
29.02
5.43
-14.28
-30.27
-42.88
-52.34
-58.86
-62.65
-64.10
-63.83
-62.72
-61.69
-61.42
-62.21
-64.05
-66.77
-70.40
-75.26
-81.99
-91.23
-103.30
-117.90
-134.20
-151.13
-167.92
-184.58
-201.91
-221.28
-243.93
-270.36
-300.02
-331.63
-363.58
-394.79
-425.04
-455.02
-486.12
-520.16
-559.24
-605.19
-658.57
-717.25
-775.69
-825.46
-857.52
-865.46
-847.92
-809.19
-757.35
-700.96
-646.22
-595.81
-549.62
-506.68
-466.59
-429.84
-397.05
-368.03
-341.44
-315.33
-288.25
-259.91
-231.28
-204.15
-180.06
-159.62
-142.25
-126.46
-110.60
-93.57
-75.23
-56.40
-38.42
-22.38
-8.71
3.04
13.96
25.20
37.50
50.85
64.60
77.74
89.47
99.57
108.44
116.93
125.89
135.74
146.29
156.80
166.32
174.25
180.55
185.92
191.45
198.25
206.93
217.44
229.22
241.51
253.78
266.07
278.92
293.31
310.43
331.51
357.50
388.43
422.81
457.25
486.83
506.41
512.20
503.15
481.20
450.42
415.42
379.81
345.58
313.26
282.71
253.85
226.91
202.29
180.14
160.17
141.72
124.05
106.67
89.56
73.30
58.78
46.93
38.30
32.82
29.86
28.51
28.00
27.96
28.43
29.61
31.60
34.21
37.07
39.78
42.12
44.07
45.80
47.41
48.89
50.21
51.40
52.73
54.67
57.88
62.92
70.26
80.20
92.95
108.61
127.11
147.99
170.34
192.81
214.03
232.99
249.26
262.69
272.67
277.56
274.57
260.51
233.08
192.00
139.51
79.79
17.62
-42.98
-99.56
-151.40
-198.98
-243.41
-286.25
-329.66
-376.32
-428.63
-487.03
-548.45
-605.81
-649.48
-670.37
-663.43
-629.62
-575.45
-510.21
-442.36
-377.04
-315.51
-256.48
-198.08
-139.23
-79.92
-20.85
37.05
92.57
144.01
189.17
225.74
252.03
267.47
272.89
270.26
262.07
250.79
238.33
225.84
213.65
201.50
188.87
175.41
161.22
146.79
132.85
119.98
108.43
98.08
88.57
79.48
70.42
61.17
51.73
42.44
33.99
27.24
22.86
21.03
21.30
22.78
24.49
25.80
26.61
27.25
28.18
29.71
31.77
34.05
36.15
37.78
38.83
39.33
39.27
38.58
37.10
34.73
31.53
27.83
24.08
20.77
18.11
16.07
14.39
12.80
11.16
9.59
8.27
7.36
6.83
6.57
6.54
6.83
7.67
9.24
11.48
13.95
16.03
17.12
17.01
15.91
14.45
13.35
13.21
14.24
16.33
19.11
22.15
25.21
28.37
32.08
36.83
42.94
50.10
57.41
63.42
66.73
66.32
62.00
54.31
44.35
33.34
22.33
11.97
2.51
-6.11
-14.08
-21.48
-28.11
-33.57
-37.40
-39.47
-40.28
-40.99
-43.15
-48.18
-56.75
-68.45
-81.91
-95.18
-106.55
-115.13
-121.10
-125.52
-129.66
-134.31
-139.42
-144.30
-148.12
-150.39
-150.96
-149.57
-145.38
-137.14
-123.95
-106.33
-86.67
-68.41
-54.45
-45.51
-39.78
-34.13
-26.11
-15.43
-3.92
5.96
12.88
17.59
22.28
28.91
37.80
47.28
54.63
57.74
56.22
51.52
46.05
41.80
39.43
38.25
37.07
35.24
33.24
32.47
34.27
38.89
45.01
50.16
51.82
48.60
40.84
30.35
19.42
9.72
1.59
-5.90
-14.23
-24.46
-36.47
-48.90
-59.76
-67.37
-71.14
-71.81
-70.81
-69.33
-67.56
-64.68
-59.63
-52.10
-43.16
-34.98
-29.74
-28.49
-30.44
-33.28
-34.28
-31.46
-24.48
-14.57
-3.88
5.45
12.04
15.51
16.27
15.05
12.63
9.73
7.18
5.90
6.77
10.23
15.99
23.07
30.20
36.34
41.14
45.05
48.86
53.22
58.17
63.13
67.28
69.97
71.02
70.78
69.79
68.51
67.19
65.84
64.36
62.68
60.73
58.35
55.33
51.48
46.75
41.39
35.91
30.87
26.73
23.58
21.19
19.15
17.10
14.90
12.64
10.49
8.54
6.77
5.07
3.38
1.74
0.26
-1.02
-2.24
-3.75
-5.96
-9.15
-13.29
-18.04
-22.88
-27.28
-30.95
-33.90
-36.39
-38.85
-41.62
-44.87
-48.52
-52.31
-55.92
-59.12
-61.86
-64.19
-66.22
-68.02
-69.59
-70.90
-71.88
-72.52
-72.77
-72.52
-71.54
-69.45
-65.81
-60.22
-52.53
-42.98
-32.23
-21.20
-10.90
-2.11
4.73
9.57
12.59
14.08
14.32
13.53
12.00
10.16
8.48
7.45
7.37
8.23
9.81
11.73
13.64
15.32
16.73
17.89
18.79
19.33
19.31
18.60
17.22
15.41
13.60
12.28
11.81
12.22
13.27
14.47
15.40
15.88
16.20
16.94
18.83
22.38
27.67
34.36
41.86
49.62
57.29
64.73
71.89
78.72
85.17
91.32
97.47
104.15
111.82
120.52
129.72
138.41
145.52
150.43
153.29
154.94
156.56
159.16
163.32
169.14
176.50
185.26
195.50
207.57
222.01
239.37
260.15
284.51
312.03
341.29
369.76
394.05
410.50
416.23
409.94
392.36
365.93
334.08
300.13
266.56
234.68
204.82
176.79
150.36
125.44
102.15
80.66
61.06
43.22
26.75
11.08
-4.47
-20.35
-36.68
-53.16
-69.10
-83.71
-96.51
-107.50
-117.44
-127.65
-139.73
-154.85
-173.05
-192.74
-210.91
-223.81
-228.04
-221.47
-203.74
-176.55
-143.47
-109.34
-79.04
-55.99
-41.06
-32.26
-25.68
-17.33
-4.90
11.41
29.42
46.46
60.95
73.06
84.27
95.95
108.30
120.10
129.21
133.75
132.86
127.09
117.98
107.29
96.25
85.18
73.58
60.87
46.97
32.58
18.90
7.02
-2.69
-10.74
-18.31
-26.48
-35.87
-46.32
-57.07
-67.18
-75.98
-83.39
-89.85
-96.15
-103.00
-110.80
-119.57
-129.07
-139.01
-149.30
-160.08
-171.70
-184.57
-198.92
-214.77
-232.00
-250.46
-270.10
-291.05
-313.68
-338.16
-364.47
-392.36
-421.33
-451.10
-482.09
-515.39
-552.25
-593.25
-637.76
-683.80
-728.52
-768.63
-800.83
-821.90
-828.98
-820.06
-794.87
-755.39
-705.83
-651.56
-597.49
-546.81
-500.51
-458.04
-418.37
-380.92
-345.70
-312.96
-282.69
-254.36
-227.52
-201.82
-177.28
-154.39
-133.65
-115.35
-99.36
-85.17
-72.14
-59.69
-47.56
-35.85
-24.96
-15.29
-7.10
-0.29
5.52
10.83
16.09
21.52
27.02
32.26
36.88
40.67
43.73
46.44
49.31
52.77
57.00
61.85
66.92
71.79
76.23
80.40
84.82
90.21
97.11
105.69
115.64
126.26
136.82
146.90
156.68
166.87
178.43
192.13
208.18
226.07
244.89
263.64
281.72
299.18
316.60
334.89
355.09
378.35
405.60
436.99
471.08
504.34
531.57
547.26
547.63
532.04
503.24
466.08
425.51
384.97
345.92
308.44
272.49
238.65
208.07
181.80
160.08
142.15
126.66
112.37
98.69
85.73
74.06
64.24
56.34
49.87
43.91
37.55
30.32
22.48
14.97
8.96
5.40
4.56
5.98
8.72
11.83
14.72
17.30
19.85
22.77
26.25
30.17
34.17
37.78
40.61
42.40
43.03
42.54
41.11
39.06
36.80
34.70
32.95
31.47
29.99
28.17
25.82
22.98
19.95
17.11
14.73
12.93
11.60
10.49
9.28
7.70
5.56
2.78
-0.55
-4.31
-8.46
-13.01
-17.99
-23.24
-28.24
-32.13
-33.95
-33.12
-29.73
-24.62
-18.99
-13.88
-9.70
-6.20
-2.76
1.17
5.66
10.34
14.64
18.17
20.94
23.26
25.43
27.43
28.78
28.81
26.98
23.28
18.33
13.16
8.78
5.77
4.10
3.28
2.68
1.89
0.85
-0.27
-1.29
-2.22
-3.28
-4.77
-6.93
-9.76
-13.08
-16.60
-20.14
-23.66
-27.19
-30.70
-34.00
-36.67
-38.20
-38.12
-36.22
-32.64
-27.82
-22.46
-17.23
-12.61
-8.79
-5.69
-3.08
-0.80
1.16
2.66
3.60
4.02
4.21
4.54
5.33
6.62
8.11
9.35
9.90
9.62
8.71
7.58
6.62
5.95
5.39
4.50
2.94
0.58
-2.36
-5.47
-8.39
-11.01
-13.56
-16.41
-19.94
-24.29
-29.32
-34.68
-39.88
-44.43
-47.87
-49.85
-50.23
-49.10
-46.90
-44.26
-41.83
-40.05
-39.01
-38.49
-38.14
-37.71
-37.22
-36.91
-37.09
-37.85
-39.00
-40.04
-40.43
-39.93
-38.85
-37.99
-38.38
-40.69
-44.80
-49.63
-53.52
-54.72
-52.02
-45.06
-34.17
-20.09
-3.61
14.53
33.62
53.18
73.25
94.76
119.53
149.55
185.79
227.40
271.68
315.18
355.37
391.70
425.49
458.44
490.68
519.61
540.47
548.31
540.40
517.58
483.90
444.61
403.98
363.86
323.87
282.88
240.70
198.89
160.35
127.64
101.40
79.60
58.21
33.03
1.67
-35.31
-74.68
-111.87
-143.09
-166.90
-184.68
-200.03
-217.65
-241.93
-275.60
-318.54
-366.66
-411.56
-441.73
-445.70
-416.64
-356.30
-276.08
-194.15
-129.31
-94.45
-92.74
-118.40
-160.83
-210.08
-260.41
-310.57
-361.78
-415.38
-471.72
-530.39
-590.75
-651.53
-710.00
-760.97
-797.34
-812.35
-802.36
-768.49
-716.39
-654.13
-589.34
-527.41
-470.93
-420.46
-375.55
-335.30
-298.46
-263.38
-228.29
-191.91
-153.99
-115.44
-77.81
-42.81
-11.43
16.36
41.41
65.04
88.48
112.40
136.76
160.91
183.86
204.71
222.92
238.52
252.07
264.53
277.09
290.85
306.59
324.60
344.74
366.51
389.15
411.93
434.27
455.95
477.52
500.59
527.71
561.42
602.39
647.71
690.46
721.08
730.45
713.11
669.04
603.35
524.65
442.82
367.59
307.52
268.65
252.73
255.90
268.97
280.21
279.84
263.55
233.60
196.43
158.66
124.05
92.94
63.75
35.15
7.22
-19.24
-44.10
-68.55
-93.90
-119.42
-141.02
-152.16
-146.78
-122.74
-83.51
-36.92
8.61
47.75
80.11
108.80
137.09
165.59
191.65
211.17
221.63
223.65
220.46
215.58
210.54
204.40
195.02
181.02
162.98
143.26
124.76
109.37
97.24
87.13
77.36
66.69
54.79
42.13
29.66
18.27
8.46
0.11
-7.27
-14.29
-21.44
-28.85
-36.28
-43.29
-49.44
-54.46
-58.29
-61.05
-62.92
-64.14
-65.00
-65.88
-67.20
-69.39
-72.72
-77.17
-82.46
-88.14
-93.88
-99.74
-106.20
-114.00
-123.86
-136.04
-150.16
-165.32
-180.47
-194.99
-209.07
-223.75
-240.55
-260.77
-284.86
-312.23
-341.50
-371.08
-399.92
-427.84
-455.54
-484.33
-515.94
-552.42
-595.65
-646.27
-702.32
-758.23
-805.38
-834.28
-837.95
-814.59
-768.37
-707.61
-641.53
-577.03
-517.19
-461.80
-409.17
-357.93
-307.76
-259.11
-212.34
-167.30
-123.37
-79.84
-36.25
7.57
51.47
95.25
138.74
181.72
224.10
265.79
306.88
347.60
388.31
429.49
472.09
517.65
568.00
624.16
684.67
744.57
795.70
828.98
837.59
819.66
778.96
723.17
660.70
597.87
537.77
480.89
426.88
375.77
328.16
284.36
243.60
203.91
163.06
119.71
74.14
28.12
-15.90
-56.04
-91.85
-124.52
-156.53
-190.75
-229.46
-273.41
-321.21
-369.09
-411.27
-441.08
-452.74
-443.65
-416.02
-377.18
-337.89
-309.33
-299.86
-313.30
-349.03
-403.41
-471.14
-545.73
-619.26
-682.44
-725.98
-743.15
-732.38
-698.19
-649.64
-596.82
-547.36
-504.48
-467.54
-434.02
-401.70
-369.76
-338.61
-308.91
-280.81
-253.84
-227.24
-200.43
-173.38
-146.70
-121.25
-97.77
-76.51
-57.07
-38.52
-19.77
0.03
21.08
42.91
64.55
84.97
103.58
120.53
136.72
153.45
171.88
192.51
214.92
237.89
260.05
280.34
298.59
315.60
332.69
351.38
372.94
398.33
427.98
461.35
496.43
529.48
555.62
570.26
570.85
558.13
535.90
509.41
483.13
459.06
436.45
412.99
386.58
356.81
325.07
293.95
266.01
242.89
225.16
212.66
204.91
201.42
201.81
205.35
210.89
216.82
221.31
222.79
220.39
214.12
204.87
193.93
182.42
170.72
158.23
143.42
124.52
100.17
70.05
34.98
-3.35
-43.38
-84.29
-126.22
-169.70
-214.65
-259.60
-301.38
-335.65
-358.09
-365.58
-356.97
-333.29
-297.46
-253.51
-205.97
-159.24
-117.20
-82.97
-58.65
-44.98
-41.20
-44.98
-52.90
-61.06
-66.10
-65.91
-60.31
-50.72
-39.51
-28.95
-20.42
-13.87
-8.20
-2.11
5.02
12.62
19.49
24.65
28.44
32.84
40.69
54.20
73.48
96.17
118.18
135.42
145.43
148.04
145.02
138.90
131.91
125.20
118.92
112.63
105.76
97.95
89.23
80.15
71.70
64.96
60.48
57.60
54.13
46.81
32.21
7.93
-26.79
-70.97
-122.32
-177.69
-233.30
-284.81
-327.56
-357.39
-371.59
-369.71
-353.88
-327.92
-296.18
-262.08
-227.47
-192.59
-156.59
-118.37
-77.18
-33.07
12.99
59.11
102.78
141.39
172.81
196.03
211.63
221.76
229.44
237.45
246.98
256.78
263.30
262.16
250.47
228.66
201.02
174.22
154.51
144.85
143.43
144.40
140.43
125.80
98.32
59.57
13.35
-36.63
-88.23
-141.26
-196.87
-256.52
-321.15
-390.57
-462.87
-533.96
-597.86
-647.69
-677.60
-684.63
-669.93
-638.16
-595.77
-548.78
-501.43
-455.98
-413.52
-374.76
-340.24
-309.83
-282.17
-254.83
-225.20
-191.81
-155.06
-117.10
-80.71
-47.99
-19.21
7.16
33.71
62.78
95.35
130.74
166.97
201.85
234.02
263.51
291.74
321.13
354.42
393.80
439.85
490.50
540.60
582.54
608.06
610.85
588.67
544.04
483.24
413.99
342.99
274.64
211.30
154.43
105.84
67.84
42.41
29.95
28.53
34.35
43.06
51.39
58.01
63.56
69.34
76.09
83.15
88.55
90.06
86.32
77.80
66.68
56.19
49.27
47.52
50.56
55.97
60.03
58.78
49.13
29.88
2.24
-30.39
-63.19
-91.23
-110.96
-121.09
-122.73
-118.78
-112.68
-107.12
-103.18
-100.30
-96.83
-91.09
-82.21
-70.68
-58.03
-46.22
-36.81
-30.45
-26.94
-25.68
-26.26
-28.65
-32.97
-38.99
-45.67
-51.35
-54.38
-53.90
-50.26
-44.91
-39.69
-36.09
-34.84
-35.75
-38.20
-41.45
-45.05
-48.87
-53.02
-57.58
-62.45
-67.26
-71.43
-74.38
-75.74
-75.51
-74.11
-72.34
-71.27
-71.98
-75.22
-81.09
-88.87
-97.15
-104.32
-109.14
-111.20
-110.80
-108.38
-103.81
-96.17
-84.37
-68.14
-48.81
-28.99
-11.34
3.01
15.19
27.78
42.94
60.58
78.01
91.38
97.96
97.87
93.94
89.96
88.46
89.63
91.90
93.68
94.77
96.48
100.44
107.09
114.92
121.18
123.36
120.44
112.88
101.74
87.53
69.76
47.65
21.20
-8.07
-37.39
-63.70
-84.76
-99.66
-108.54
-112.06
-111.01
-106.48
-100.16
-94.39
-91.38
-92.07
-95.18
-97.45
-94.95
-85.00
-67.51
-45.02
-21.34
0.23
18.17
32.90
46.06
59.48
74.34
90.95
108.78
126.66
143.12
156.72
166.59
172.83
176.55
179.31
182.25
185.48
188.05
188.68
186.59
181.96
175.71
168.92
162.28
156.01
150.19
144.96
140.68
137.65
135.81
134.65
133.35
131.05
127.08
121.08
112.94
102.69
90.43
76.38
61.07
45.59
31.72
21.64
17.12
18.72
25.34
34.70
44.56
54.10
64.48
78.20
97.79
124.64
158.53
197.82
239.90
281.34
317.80
344.26
356.04
350.40
327.84
292.17
249.19
204.53
161.95
122.98
87.69
55.90
27.81
3.58
-17.45
-37.25
-58.65
-84.25
-115.30
-151.04
-189.31
-227.38
-263.33
-296.90
-329.34
-362.98
-400.56
-444.63
-496.94
-557.49
-623.49
-688.88
-745.14
-783.52
-798.07
-787.85
-757.31
-714.27
-666.81
-620.54
-577.59
-537.66
-499.77
-463.77
-430.47
-400.81
-374.76
-351.05
-327.75
-303.36
-277.64
-251.65
-227.31
-206.34
-189.54
-176.46
-165.74
-155.70
-145.11
-133.60
-121.66
-110.25
-100.19
-91.75
-84.37
-76.95
-68.17
-57.04
-43.17
-26.87
-8.97
9.57
27.94
45.72
62.88
79.68
96.39
113.06
129.41
144.79
158.39
169.45
177.53
182.67
185.38
186.46
186.76
186.94
187.27
187.77
188.34
189.04
190.22
192.58
197.05
204.68
216.57
233.66
256.26
283.57
313.24
341.51
364.13
377.64
380.61
374.11
361.13
345.28
329.45
315.01
301.84
289.04
275.70
261.27
245.58
228.47
209.74
189.35
167.77
146.12
125.92
108.56
94.82
84.60
77.05
71.02
65.59
60.31
55.26
50.82
47.51
45.76
45.85
47.86
51.53
56.33
61.54
66.53
70.93
74.65
77.63
79.68
80.30
78.91
75.16
69.29
62.29
55.65
50.95
49.28
51.05
55.88
62.93
71.01
78.66
84.26
86.10
82.84
74.03
60.52
44.29
27.79
12.96
0.50
-10.13
-20.14
-30.34
-40.54
-49.57
-55.92
-58.66
-57.98
-55.07
-51.42
-48.08
-45.16
-42.07
-38.03
-32.64
-26.21
-19.52
-13.34
-8.05
-3.48
0.79
5.04
9.10
12.30
13.77
12.93
9.79
4.93
-0.73
-6.33
-11.40
-15.81
-19.66
-22.99
-25.82
-28.06
-29.72
-30.83
-31.46
-31.48
-30.55
-28.11
-23.72
-17.39
-9.74
-1.85
5.12
10.34
13.47
14.57
13.79
11.12
6.42
-0.41
-9.07
-18.80
-28.57
-37.42
-44.58
-49.30
-50.62
-47.49
-39.31
-26.64
-11.54
2.93
14.01
20.44
22.87
23.28
23.55
24.34
24.89
23.72
19.86
13.69
6.74
0.76
-3.19
-5.32
-6.70
-8.38
-10.66
-12.70
-12.87
-9.54
-1.91
9.50
22.87
35.69
45.53
50.85
51.37
48.10
42.81
37.53
33.85
32.61
33.76
36.55
39.99
43.25
45.95
48.21
50.41
52.83
55.38
57.58
58.72
58.27
56.06
52.39
47.79
42.78
37.62
32.28
26.61
20.45
13.77
6.63
-0.93
-9.05
-17.98
-28.01
-39.26
-51.55
-64.36
-76.89
-88.15
-97.19
-103.30
-106.15
-105.94
-103.32
-99.14
-94.20
-89.00
-83.67
-78.07
-71.99
-65.34
-58.22
-50.95
-44.01
-37.94
-33.29
-30.53
-29.95
-31.51
-34.76
-38.70
-41.90
-42.77
-40.00
-33.08
-22.67
-10.50
1.28
10.99
18.19
23.93
30.26
39.21
51.83
67.75
85.38
102.65
117.76
129.62
137.92
142.86
144.83
144.34
141.97
138.42
134.45
130.65
127.11
123.25
117.94
109.89
98.29
83.34
66.52
50.28
37.47
30.57
31.03
38.89
52.70
69.85
87.06
101.14
109.66
111.30
105.74
93.25
74.19
49.01
18.69
-14.84
-48.61
-79.41
-104.89
-124.51
-139.47
-151.68
-162.31
-170.90
-175.68
-174.82
-167.74
-155.76
-141.45
-127.45
-115.29
-105.07
-95.92
-86.92
-77.66
-68.39
-59.71
-52.14
-45.82
-40.65
-36.48
-33.13
-30.39
-27.90
-25.11
-21.55
-17.06
-11.90
-6.60
-1.59
3.14
8.13
14.15
21.76
30.86
40.69
50.12
58.14
64.23
68.48
71.40
73.69
75.90
78.32
80.81
82.82
83.39
81.44
76.12
67.14
54.99
40.71
25.48
10.13
-5.04
-19.98
-34.42
-47.38
-57.22
-62.11
-60.92
-53.88
-42.88
-31.01
-21.52
-16.76
-17.37
-22.34
-29.53
-36.66
-42.04
-44.85
-45.04
-42.96
-39.20
-34.51
-29.70
-25.54
-22.51
-20.61
-19.40
-18.34
-17.28
-16.73
-17.63
-20.84
-26.45
-33.43
-39.89
-43.68
-43.34
-38.65
-30.78
-21.66
-13.20
-6.40
-1.08
3.84
9.62
16.90
25.49
34.57
43.38
51.65
59.82
68.85
80.07
95.17
116.54
147.20
189.95
245.68
311.56
380.39
441.95
486.07
506.22
501.81
478.05
443.44
406.34
372.34
343.51
319.47
299.08
281.73
267.38
255.89
246.26
236.59
224.79
209.49
190.69
169.66
148.36
128.55
111.04
95.61
81.21
66.62
50.95
34.01
16.26
-1.45
-18.34
-33.91
-48.15
-61.46
-74.50
-88.01
-102.67
-118.97
-137.04
-156.63
-177.12
-197.62
-217.37
-236.01
-253.91
-272.07
-291.83
-314.34
-340.01
-368.31
-398.05
-427.90
-457.00
-485.40
-513.94
-544.06
-577.54
-616.29
-661.95
-714.86
-772.85
-830.35
-878.96
-909.55
-915.45
-894.93
-851.94
-794.37
-730.93
-668.21
-609.38
-554.76
-503.65
-455.80
-411.80
-372.40
-337.52
-305.93
-275.69
-245.24
-214.12
-183.16
-154.10
-128.58
-107.36
-90.00
-75.12
-60.99
-46.34
-30.85
-15.18
-0.60
11.72
21.25
28.43
34.42
40.68
48.32
57.69
68.34
79.28
89.54
98.62
106.76
114.83
123.96
135.05
148.39
163.57
179.73
195.97
211.77
227.18
242.71
259.11
277.14
297.47
320.63
346.76
375.18
403.98
430.15
450.31
461.96
464.55
459.59
449.85
437.90
424.89
410.34
392.99
372.05
348.20
323.50
300.53
281.28
266.45
255.57
247.56
241.47
236.73
232.99
229.84
226.72
223.15
219.28
216.18
215.72
219.97
230.31
246.94
268.68
293.37
318.15
339.92
355.52
362.11
357.72
341.95
316.30
284.01
249.00
214.60
182.44
152.27
122.50
91.35
57.86
22.34
-14.01
-49.76
-83.99
-116.73
-148.85
-181.70
-216.87
-256.04
-300.66
-351.24
-406.29
-461.57
-510.32
-544.94
-559.51
-552.00
-524.99
-484.41
-437.11
-388.35
-340.78
-294.91
-250.54
-208.01
-168.30
-132.40
-100.35
-70.96
-42.50
-13.74
15.24
43.05
67.66
87.50
102.24
112.92
121.38
129.28
137.50
146.12
154.85
163.82
174.05
187.09
204.34
226.44
253.09
283.41
316.09
349.31
380.27
405.05
419.26
419.65
405.66
380.21
348.97
318.26
292.84
274.60
262.70
255.00
249.50
245.15
241.71
239.08
236.80
233.93
229.46
222.65
213.26
201.56
188.10
173.42
157.92
141.80
125.06
107.55
88.97
68.98
47.28
23.75
-1.45
-27.78
-54.53
-81.02
-106.95
-132.67
-159.06
-187.26
-218.17
-251.90
-287.66
-324.14
-359.90
-394.08
-426.73
-458.72
-491.55
-527.17
-567.82
-615.57
-671.22
-732.92
-795.23
-849.70
-887.09
-900.59
-888.46
-854.58
-806.74
-753.37
-700.64
-651.21
-604.98
-560.83
-518.27
-477.70
-439.88
-404.98
-372.19
-340.19
-307.95
-275.29
-242.82
-211.70
-182.81
-156.31
-131.63
-107.74
-83.61
-58.58
-32.48
-5.49
22.09
50.07
78.40
107.12
136.17
165.42
194.63
223.61
252.27
280.68
309.21
338.58
369.80
403.76
440.39
477.91
512.55
539.37
553.79
553.41
539.06
514.53
485.14
455.87
429.89
408.10
389.78
373.52
357.94
341.89
324.07
302.90
276.66
244.19
205.61
162.76
119.04
78.48
44.55
19.00
1.48
-10.08
-18.39
-25.61
-32.58
-38.80
-42.97
-43.95
-41.45
-36.41
-30.66
-26.25
-24.65
-26.23
-30.36
-35.82
-41.50
-46.83
-51.77
-56.50
-60.92
-64.49
-66.33
-65.75
-62.71
-58.01
-53.13
-49.64
-48.63
-50.28
-53.76
-57.46
-59.54
-58.51
-53.74
-45.57
-35.07
-23.38
-11.20
1.41
14.62
28.34
41.82
53.90
63.81
71.86
79.45
88.27
99.04
110.72
120.62
125.72
124.13
116.07
103.56
89.21
74.81
60.72
46.39
31.43
16.42
3.03
-6.85
-12.10
-12.99
-10.94
-7.73
-4.61
-1.87
1.01
4.72
9.48
14.73
19.22
21.50
20.50
16.02
8.92
0.95
-5.95
-10.30
-11.62
-10.38
-7.53
-3.79
0.79
6.67
14.08
22.32
29.44
32.74
29.92
20.06
4.12
-15.56
-36.29
-56.06
-73.91
-89.65
-103.06
-113.35
-119.17
-119.20
-112.90
-100.99
-85.30
-68.13
-51.48
-36.50
-23.23
-10.78
2.37
17.92
37.24
60.96
88.40
117.50
145.10
167.86
183.43
191.42
193.70
193.61
194.57
198.53
205.08
211.63
214.57
210.74
198.60
178.38
151.50
119.60
83.86
44.83
2.83
-41.47
-86.50
-129.69
-167.83
-197.83
-217.49
-226.09
-224.41
-214.25
-197.64
-176.16
-150.72
-121.97
-91.26
-61.79
-38.86
-28.80
-36.55
-62.91
-102.97
-146.89
-183.16
-202.74
-202.38
-185.18
-158.37
-129.62
-103.68
-81.28
-60.18
-37.68
-12.66
13.64
38.44
58.90
73.22
81.16
83.72
82.48
78.88
73.77
67.26
59.07
48.99
37.42
25.51
14.72
5.95
-1.06
-7.88
-16.46
-27.93
-41.58
-54.83
-64.22
-67.16
-63.06
-53.67
-42.04
-31.15
-22.65
-16.51
-11.53
-6.24
0.31
8.24
16.99
25.69
33.59
40.29
45.79
50.32
54.22
57.76
61.14
64.42
67.38
69.29
68.83
64.25
54.01
37.43
15.19
-10.60
-36.98
-60.86
-79.73
-92.03
-97.18
-95.47
-87.81
-75.72
-61.12
-46.13
-32.65
-22.05
-14.93
-11.24
-10.59
-12.48
-16.53
-22.45
-30.00
-38.85
-48.51
-58.28
-67.18
-73.91
-77.05
-75.43
-68.59
-57.26
-43.33
-29.42
-18.06
-10.80
-7.72
-7.54
-8.24
-7.95
-5.58
-1.02
5.00
11.33
16.74
20.16
20.82
18.34
12.93
5.41
-2.81
-10.00
-14.50
-15.13
-11.45
-3.85
6.62
18.57
30.54
41.36
50.20
56.71
60.94
63.27
64.30
64.63
64.64
64.39
63.51
61.38
57.38
51.22
43.07
33.58
23.63
14.16
5.97
-0.34
-4.38
-6.11
-5.85
-4.37
-2.62
-1.41
-1.12
-1.57
-2.27
-2.74
-2.91
-3.11
-3.85
-5.51
-7.96
-10.56
-12.30
-12.11
-9.16
-3.08
5.98
17.43
30.26
43.28
55.31
65.41
73.05
78.25
81.57
83.94
86.44
89.97
95.02
101.67
109.76
119.22
130.27
143.37
158.93
176.85
196.22
215.43
232.49
245.56
253.31
255.09
250.83
240.97
226.48
208.84
190.07
172.41
157.86
147.65
142.02
140.31
141.14
142.78
143.19
140.01
130.69
113.06
86.31
51.87
13.66
-22.95
-52.94
-73.72
-86.22
-94.53
-104.22
-120.05
-144.23
-175.84
-211.53
-246.89
-277.71
-300.77
-313.95
-316.15
-307.19
-288.04
-260.86
-228.95
-196.18
-166.22
-141.68
-123.67
-111.82
-104.82
-101.06
-99.26
-98.69
-99.09
-100.36
-102.33
-104.61
-106.58
-107.50
-106.73
-103.93
-99.39
-93.92
-88.70
-84.67
-81.93
-79.46
-75.40
-67.86
-55.75
-39.30
-19.59
2.22
25.77
51.62
80.52
112.73
148.00
186.27
228.47
276.23
330.11
387.60
442.13
484.53
506.53
504.59
481.63
445.78
406.69
371.48
342.60
318.41
295.50
271.18
244.66
216.71
188.38
159.98
130.81
99.56
65.00
26.48
-15.68
-60.45
-106.38
-152.15
-196.92
-240.56
-283.56
-326.71
-370.80
-416.54
-464.87
-517.11
-574.44
-636.72
-701.04
-761.21
-808.82
-835.77
-837.40
-814.30
-771.99
-718.54
-661.50
-605.66
-552.73
-502.53
-454.67
-409.46
-367.71
-329.73
-294.61
-260.38
-224.94
-187.13
-147.39
-107.55
-70.02
-36.53
-7.31
18.97
44.66
72.00
102.09
134.39
166.99
197.62
224.67
247.99
268.93
289.79
312.95
340.32
373.13
411.78
455.57
502.35
548.30
588.46
617.92
633.28
633.61
620.29
595.90
562.86
522.74
476.54
425.69
372.78
321.35
274.76
234.88
201.54
173.00
147.20
122.77
99.39
77.28
56.50
36.36
15.39
-8.43
-37.34
-73.52
-118.59
-172.66
-233.21
-294.59
-348.81
-387.83
-406.56
-404.81
-387.25
-361.09
-332.99
-306.74
-282.97
-260.63
-239.02
-218.75
-201.20
-187.07
-175.29
-163.18
-147.99
-128.56
-106.24
-84.20
-65.64
-51.96
-41.75
-31.31
-16.21
6.76
38.20
75.73
114.71
149.72
176.06
190.99
194.21
187.68
174.84
159.65
145.46
134.43
127.31
123.72
122.76
123.55
125.51
128.36
131.93
135.92
139.99
143.92
147.81
152.12
157.45
164.09
171.76
179.49
185.83
189.26
188.68
183.67
174.64
162.66
149.18
135.54
122.63
110.60
98.82
86.16
71.35
53.46
32.21
8.08
-17.72
-43.55
-67.59
-88.39
-105.20
-118.20
-128.29
-136.59
-143.82
-150.02
-154.67
-157.16
-157.26
-155.30
-151.79
-147.01
-140.81
-132.74
-122.52
-110.43
-97.22
-83.75
-70.45
-57.10
-43.05
-27.78
-11.32
5.67
22.10
36.85
49.00
57.87
62.89
63.59
59.70
51.27
38.67
22.42
2.86
-19.92
-45.96
-74.97
-105.89
-136.65
-164.45
-186.53
-200.94
-207.07
-205.72
-198.69
-188.05
-175.45
-161.66
-146.46
-128.96
-108.16
-83.52
-55.39
-24.90
6.41
37.05
65.97
92.65
116.86
138.49
157.31
172.94
184.80
192.16
194.28
190.67
181.50
167.73
151.04
133.14
115.00
96.47
76.50
54.04
29.08
3.16
-21.01
-40.68
-54.19
-61.74
-65.01
-66.34
-67.60
-69.55
-71.86
-73.55
-73.78
-72.36
-69.88
-67.48
-66.23
-66.66
-68.47
-70.72
-72.35
-72.70
-71.76
-69.93
-67.62
-64.86
-61.40
-57.03
-51.90
-46.59
-41.66
-37.18
-32.54
-26.82
-19.47
-10.74
-1.72
6.31
12.56
17.08
20.69
24.28
28.36
32.79
37.04
40.63
43.51
46.10
49.03
52.67
56.73
60.19
61.60
59.62
53.59
43.78
31.21
17.24
3.06
-10.40
-22.41
-32.48
-40.54
-47.28
-54.21
-62.90
-73.77
-84.94
-92.30
-91.07
-78.38
-55.34
-27.22
-1.59
15.05
20.15
15.99
8.23
2.93
3.73
10.61
20.64
30.02
36.11
38.37
38.04
36.80
35.65
34.38
32.17
28.55
24.10
20.38
18.91
20.01
22.28
23.06
19.84
11.66
-0.10
-12.11
-20.37
-21.89
-15.93
-4.16
10.21
24.01
35.44
44.61
52.96
62.07
72.49
83.10
91.55
95.28
92.61
83.47
69.25
52.04
33.80
15.58
-2.57
-21.21
-40.84
-61.33
-81.94
-101.78
-120.25
-137.08
-151.56
-161.65
-163.81
-154.11
-130.50
-94.80
-53.05
-13.65
16.05
32.64
37.66
36.01
32.98
31.66
32.03
31.93
28.92
21.79
10.79
-2.91
-18.13
-34.05
-49.97
-64.71
-76.23
-81.97
-79.87
-69.48
-52.59
-32.94
-14.89
-1.78
5.28
7.54
7.70
8.40
11.04
15.46
20.56
25.27
29.29
33.08
37.22
41.66
45.38
46.76
44.38
37.91
28.45
18.21
9.65
4.59
3.54
5.72
9.48
13.07
15.27
15.66
14.69
13.32
12.71
13.89
17.54
23.90
32.70
43.26
54.57
65.55
75.20
82.84
88.15
91.23
92.43
92.27
91.29
89.88
88.15
85.92
82.74
78.16
72.00
64.49
56.37
48.58
42.00
37.09
33.89
32.05
31.12
30.74
30.77
31.35
32.76
35.32
39.25
44.39
50.05
54.96
57.56
56.35
50.60
40.67
28.10
15.18
4.14
-3.49
-7.35
-8.12
-7.13
-5.74
-4.91
-5.11
-6.36
-8.59
-11.91
-16.77
-23.83
-33.69
-46.36
-61.07
-76.29
-90.20
-101.30
-108.86
-112.85
-113.38
-110.14
-102.40
-89.62
-72.38
-52.76
-33.78
-18.01
-6.29
2.69
11.45
22.17
35.30
49.42
62.12
71.47
76.84
78.91
78.87
77.51
75.01
71.20
66.11
60.35
54.89
50.60
47.71
45.61
43.02
38.47
30.91
20.15
6.97
-7.09
-20.27
-31.19
-39.19
-44.46
-47.71
-49.72
-50.99
-51.56
-51.07
-49.12
-45.54
-40.59
-34.94
-29.47
-25.04
-22.24
-21.35
-22.30
-24.83
-28.53
-32.90
-37.28
-40.93
-43.20
-43.76
-42.78
-40.92
-39.08
-37.99
-37.90
-38.48
-38.94
-38.33
-35.82
-30.85
-23.27
-13.38
-1.95
9.73
20.05
27.56
31.45
31.93
30.21
27.97
26.63
26.68
27.64
28.41
27.92
25.69
21.97
17.45
12.84
8.49
4.45
0.60
-3.05
-6.19
-8.36
-9.10
-8.19
-5.69
-1.92
2.75
7.99
13.58
19.23
24.55
28.96
31.84
32.82
31.91
29.58
26.53
23.41
20.58
18.08
15.76
13.52
11.43
9.77
8.87
8.94
9.97
11.79
14.10
16.58
18.90
20.73
21.72
21.61
20.32
18.03
15.07
11.83
8.51
5.06
1.24
-3.21
-8.28
-13.54
-18.21
-21.43
-22.54
-21.36
-18.20
-13.76
-8.84
-4.15
-0.13
3.00
5.20
6.48
6.93
6.66
5.93
5.05
4.39
4.20
4.57
5.37
6.39
7.37
8.15
8.70
9.10
9.47
9.90
10.36
10.65
10.45
9.37
7.17
3.89
-0.14
-4.39
-8.30
-11.46
-13.67
-14.95
-15.45
-15.41
-15.12
-14.84
-14.71
-14.70
-14.61
-14.16
-13.14
-11.56
-9.72
-8.07
-7.07
-6.95
-7.66
-8.86
-10.07
-10.89
-11.07
-10.61
-9.68
-8.54
-7.38
-6.36
-5.54
-5.00
-4.84
-5.17
-6.06
-7.38
-8.85
-10.14
-10.98
-11.35
-11.48
-11.82
-12.80
-14.62
-17.15
-19.90
-22.21
-23.50
-23.43
-22.14
-20.11
-18.05
-16.53
-15.82
-15.68
-15.48
-14.47
-12.14
-8.37
-3.55
1.62
6.45
10.34
12.98
14.20
13.99
12.41
9.60
5.84
1.47
-3.16
-7.74
-11.97
-15.54
-18.06
-19.13
-18.43
-15.84
-11.49
-5.77
0.74
7.34
13.28
17.93
20.87
22.05
21.81
20.70
19.27
17.83
16.39
14.78
12.85
10.64
8.42
6.50
5.15
4.43
4.31
4.71
5.53
6.66
7.89
8.86
9.09
8.19
6.03
2.95
-0.33
-2.93
-4.16
-3.72
-1.80
1.17
4.70
8.48
12.33
16.11
19.50
21.97
22.92
21.93
19.00
14.60
9.57
4.81
0.94
-1.89
-3.99
-6.01
-8.56
-11.90
-15.70
-19.01
-20.59
-19.37
-14.96
-7.89
0.58
8.85
15.57
19.89
21.55
20.60
17.25
11.81
4.90
-2.49
-9.04
-13.54
-15.33
-14.61
-12.36
-9.87
-8.16
-7.66
-8.18
-9.23
-10.40
-11.56
-12.79
-14.27
-16.01
-17.81
-19.39
-20.45
-20.86
-20.63
-19.92
-18.93
-17.87
-16.86
-15.98
-15.22
-14.53
-13.88
-13.29
-12.81
-12.53
-12.47
-12.64
-13.00
-13.49
-14.06
-14.63
-15.02
-14.98
-14.23
-12.61
-10.18
-7.25
-4.35
-2.05
-0.76
-0.65
-1.57
-3.12
-4.79
-6.07
-6.64
-6.39
-5.42
-3.96
-2.28
-0.63
0.80
1.94
2.77
3.36
3.90
4.62
5.77
7.51
9.86
12.65
15.53
18.12
20.03
20.96
20.70
19.17
16.43
12.73
8.49
4.19
0.19
-3.39
-6.70
-9.98
-13.26
-16.16
-17.89
-17.50
-14.34
-8.41
-0.47
8.21
16.21
22.33
25.81
26.38
24.21
19.86
14.26
8.56
3.95
1.46
1.62
4.40
9.20
15.09
21.06
26.28
30.27
32.93
34.44
35.23
35.77
36.56
37.99
40.40
44.02
48.96
55.25
62.84
71.62
81.47
92.25
103.86
116.17
128.97
141.97
154.75
166.87
177.97
187.93
196.85
204.97
212.41
219.03
224.26
227.10
226.36
221.02
210.59
195.46
176.94
156.97
137.43
119.40
102.50
84.94
64.15
37.84
5.02
-33.48
-75.35
-117.76
-158.33
-195.98
-231.01
-264.75
-299.12
-336.41
-379.15
-429.63
-488.75
-554.53
-621.10
-679.43
-719.75
-735.05
-723.69
-689.98
-642.16
-589.02
-536.82
-488.19
-443.04
-400.57
-360.86
-324.99
-294.07
-267.87
-244.42
-220.60
-193.60
-162.16
-126.94
-90.38
-55.30
-23.70
4.08
29.65
55.96
86.24
122.59
164.85
210.12
253.28
288.45
310.87
318.53
312.88
298.38
281.34
268.25
264.27
271.95
290.44
315.48
340.29
357.47
361.23
349.31
323.61
289.27
252.65
219.29
192.30
172.01
156.60
143.27
129.36
113.20
94.49
74.52
55.83
41.69
35.16
38.13
50.66
70.84
95.02
118.62
137.04
146.56
145.11
133.03
113.61
92.81
77.99
75.45
87.76
112.17
141.23
165.58
178.03
176.39
163.77
146.39
129.99
117.09
106.40
94.50
78.36
57.17
32.60
7.60
-15.11
-34.04
-48.87
-59.83
-66.84
-69.27
-66.31
-57.86
-45.05
-30.21
-16.18
-5.22
1.84
5.74
8.29
11.30
15.78
21.47
27.12
30.96
31.28
26.71
16.41
0.02
-22.28
-49.80
-81.34
-115.33
-149.96
-183.37
-213.70
-239.17
-258.14
-269.36
-272.33
-267.47
-256.09
-239.96
-220.69
-199.33
-176.26
-151.61
-125.79
-99.80
-75.09
-53.13
-34.67
-19.57
-6.98
3.90
13.20
20.17
23.62
22.79
18.06
11.17
4.64
0.71
0.49
3.61
8.71
14.34
19.85
25.65
32.84
42.29
53.86
66.27
77.59
86.21
91.62
94.40
95.51
95.29
92.93
86.86
75.97
60.54
42.47
24.49
8.91
-3.19
-11.87
-17.67
-21.01
-22.09
-21.41
-20.22
-20.28
-23.05
-28.72
-35.89
-42.21
-45.55
-45.06
-41.37
-36.06
-30.68
-26.18
-22.75
-20.17
-18.17
-16.63
-15.48
-14.64
-13.83
-12.65
-10.67
-7.58
-3.21
2.34
8.78
15.61
22.24
28.07
32.65
35.75
37.44
38.02
37.95
37.76
37.93
38.81
40.45
42.50
44.23
44.70
43.02
38.80
32.37
24.90
18.14
13.85
13.30
16.78
23.63
32.45
41.69
50.00
56.59
61.06
63.34
63.43
61.32
57.00
50.44
41.61
30.52
17.43
2.96
-11.81
-25.50
-36.81
-44.90
-49.63
-51.48
-51.27
-49.83
-47.73
-45.17
-41.93
-37.49
-31.05
-21.55
-8.04
9.80
31.09
53.37
72.78
84.88
85.85
73.66
48.89
14.78
-23.37
-59.44
-87.81
-104.45
-107.61
-97.80
-77.45
-49.96
-18.81
13.34
45.04
75.90
105.71
133.66
157.71
174.84
181.82
176.44
158.41
129.56
93.31
53.48
13.40
-24.86
-60.30
-92.63
-121.69
-147.22
-168.90
-186.45
-199.67
-208.47
-212.77
-212.56
-208.04
-199.82
-188.95
-176.72
-164.46
-153.35
-144.17
-137.25
-132.29
-128.24
-123.43
-116.10
-105.15
-90.83
-74.86
-59.68
-47.35
-38.59
-32.47
-27.18
-21.03
-13.42
-5.08
2.34
7.20
8.57
6.72
3.02
-0.47
-1.62
1.01
7.66
17.19
27.57
36.71
43.29
47.31
49.78
51.93
54.39
56.85
58.34
57.89
55.32
51.53
48.39
48.18
52.83
63.30
79.26
99.15
120.79
142.18
162.23
180.90
198.64
215.50
230.61
242.39
249.22
250.10
244.73
233.17
215.61
192.66
166.14
139.60
117.85
105.22
103.64
111.41
123.93
135.93
144.00
147.83
149.37
150.72
151.89
150.22
141.57
122.83
94.10
59.40
25.40
-1.25
-16.50
-20.34
-16.20
-9.08
-3.33
-1.40
-3.91
-10.43
-20.24
-32.38
-45.43
-57.56
-67.42
-75.47
-84.84
-100.50
-126.88
-165.07
-211.26
-257.66
-295.47
-318.33
-324.54
-316.91
-300.81
-281.73
-263.70
-248.83
-237.88
-230.80
-227.07
-225.80
-225.69
-225.28
-223.33
-218.99
-211.71
-200.97
-186.30
-167.50
-145.03
-120.26
-95.24
-71.97
-51.61
-33.87
-16.99
1.74
24.96
54.13
88.82
126.51
163.25
194.79
217.75
230.56
233.58
228.61
218.14
204.64
190.42
177.61
168.06
162.62
160.69
160.12
158.10
152.77
143.99
132.97
120.64
106.36
87.97
63.54
33.56
1.80
-25.87
-44.49
-52.62
-52.96
-50.50
-49.52
-51.53
-55.17
-57.98
-58.31
-56.28
-53.13
-50.07
-47.29
-44.07
-39.49
-33.25
-26.07
-19.43
-15.34
-15.57
-21.21
-32.16
-46.70
-61.51
-72.34
-75.31
-68.43
-52.57
-31.15
-8.80
10.60
25.43
36.63
46.71
58.11
71.76
86.54
99.91
109.01
111.82
107.81
97.91
84.13
68.83
54.04
40.92
29.53
18.91
7.54
-6.01
-22.36
-40.88
-59.73
-76.32
-88.03
-92.95
-90.29
-80.49
-64.98
-45.72
-24.70
-3.48
17.03
36.73
56.11
75.91
96.68
118.45
140.57
161.83
180.75
195.97
206.42
211.38
210.44
203.32
189.95
170.48
145.43
115.67
82.28
46.39
9.05
-28.86
-66.52
-103.18
-138.10
-170.65
-200.35
-226.92
-250.22
-270.05
-286.00
-297.45
-303.56
-303.38
-296.03
-280.87
-257.79
-227.34
-190.84
-150.10
-106.98
-62.90
-18.59
25.59
69.13
110.66
147.57
176.35
193.42
196.31
184.51
159.66
125.04
84.52
41.66
-0.78
-40.79
-76.78
-107.31
-131.24
-148.13
-158.68
-164.54
-167.58
-168.86
-168.18
-164.43
-156.87
-146.25
-135.23
-127.37
-125.48
-130.07
-139.15
-149.25
-157.35
-162.42
-165.72
-169.78
-176.65
-186.43
-196.90
-204.32
-204.95
-196.47
-178.75
-153.69
-124.16
-92.61
-59.97
-25.49
12.29
53.98
98.03
140.49
176.14
200.32
210.54
207.24
193.27
172.81
150.15
128.92
111.72
100.05
94.14
92.97
94.54
96.67
97.96
98.59
100.48
106.67
120.09
142.10
171.38
203.55
232.11
250.44
254.23
243.19
221.21
194.58
169.31
148.68
132.19
116.51
97.42
71.91
39.16
0.38
-42.14
-85.93
-128.61
-167.79
-200.85
-224.92
-237.55
-237.40
-224.96
-202.75
-174.73
-145.33
-118.07
-94.61
-74.48
-55.73
-36.08
-14.28
9.20
32.28
52.17
66.65
75.13
78.92
80.84
84.13
91.18
102.55
116.61
130.02
138.65
138.85
128.39
107.09
77.04
42.23
8.00
-19.95
-36.78
-39.84
-29.75
-10.65
10.76
27.15
32.88
25.67
6.94
-19.20
-47.67
-73.89
-94.66
-108.17
-113.79
-111.91
-103.91
-92.21
-79.96
-70.36
-65.70
-66.67
-72.25
-80.20
-87.95
-93.42
-95.52
-94.24
-90.40
-85.23
-79.90
-75.25
-71.52
-68.35
-64.94
-60.40
-54.16
-46.35
-37.88
-30.05
-23.95
-19.92
-17.44
-15.46
-13.07
-9.89
-6.19
-2.51
0.83
4.02
7.82
13.21
20.82
30.45
40.85
49.97
55.58
56.09
51.23
42.30
31.79
22.57
16.92
15.95
19.53
26.68
36.14
46.74
57.53
67.64
76.16
82.07
84.44
82.61
76.51
66.77
54.61
41.47
28.63
16.89
6.62
-2.08
-9.07
-14.05
-16.68
-16.82
-14.74
-11.09
-6.76
-2.56
1.01
3.81
5.91
7.43
8.32
8.30
7.04
4.30
0.12
-5.16
-11.04
-17.05
-22.85
-28.14
-32.49
-35.28
-35.77
-33.31
-27.72
-19.35
-9.14
1.65
11.79
20.30
26.68
30.92
33.36
34.51
34.79
34.41
33.36
31.51
28.71
24.79
19.73
13.77
7.59
2.44
-0.10
1.43
7.64
17.95
30.70
43.71
55.11
63.93
70.15
74.30
76.95
78.31
78.21
76.40
72.83
67.73
61.52
54.62
47.19
39.22
30.71
21.98
13.88
7.64
4.52
5.19
9.36
15.66
22.09
26.64
27.92
25.55
20.05
12.56
4.40
-3.26
-9.53
-13.88
-16.05
-16.13
-14.44
-11.60
-8.39
-5.52
-3.48
-2.40
-2.07
-2.01
-1.71
-0.82
0.74
2.78
4.96
6.89
8.26
8.86
8.55
7.23
4.92
1.81
-1.62
-4.68
-6.71
-7.32
-6.63
-5.15
-3.55
-2.26
-1.33
-0.40
1.01
3.16
5.99
9.08
11.80
13.50
13.73
12.38
9.77
6.58
3.68
1.81
1.30
1.98
3.27
4.50
5.24
5.38
5.06
4.43
3.49
2.19
0.53
-1.27
-2.78
-3.60
-3.60
-3.09
-2.67
-2.92
-4.00
-5.50
-6.59
-6.40
-4.51
-1.11
3.11
7.33
11.03
14.25
17.37
20.84
24.73
28.56
31.43
32.41
30.90
26.95
21.27
14.99
9.20
4.47
0.73
-2.62
-6.18
-10.08
-13.82
-16.53
-17.42
-16.22
-13.33
-9.50
-5.39
-1.32
2.80
7.22
12.00
16.92
21.60
25.71
29.12
32.02
34.75
37.64
40.98
44.89
49.38
54.29
59.36
64.08
67.76
69.56
68.53
63.72
54.49
40.92
24.29
7.14
-7.19
-15.76
-17.23
-12.67
-5.23
1.12
3.33
0.45
-6.24
-14.18
-20.96
-25.39
-27.66
-28.76
-29.61
-30.55
-31.32
-31.52
-31.02
-30.14
-29.45
-29.43
-30.20
-31.40
-32.42
-32.75
-32.27
-31.40
-30.89
-31.45
-33.40
-36.41
-39.61
-41.96
-42.55
-40.92
-37.17
-31.72
-25.15
-17.90
-10.08
-1.46
8.39
19.80
32.66
46.20
59.06
69.67
76.77
79.84
79.14
75.56
70.29
64.46
59.03
54.70
51.90
50.66
50.55
50.67
49.98
47.64
43.34
37.36
30.24
22.43
14.09
5.19
-4.09
-13.19
-21.19
-27.27
-31.03
-32.59
-32.28
-30.24
-26.26
-19.98
-11.47
-1.58
8.04
15.62
19.95
20.93
19.44
16.77
13.98
11.48
9.14
6.75
4.39
2.60
2.15
3.62
7.03
11.74
16.69
20.81
23.55
25.08
26.16
27.77
30.45
33.89
36.85
37.64
34.93
28.48
19.50
10.28
3.31
0.38
1.93
7.03
13.89
20.55
25.57
28.33
29.19
29.35
30.62
35.02
44.32
59.44
79.88
103.48
126.71
145.53
156.26
156.75
146.80
127.98
102.78
73.41
40.60
3.05
-41.80
-95.93
-158.40
-224.00
-283.78
-327.60
-347.71
-341.49
-312.20
-267.45
-216.24
-166.12
-121.82
-85.43
-57.53
-38.17
-27.16
-23.71
-26.01
-31.35
-36.87
-40.56
-41.92
-41.77
-41.71
-42.78
-44.51
-44.71
-40.44
-29.67
-12.83
6.75
23.97
34.09
34.77
26.86
13.62
-1.16
-14.66
-25.57
-33.59
-38.32
-38.82
-33.98
-23.54
-8.80
7.51
22.25
33.14
39.55
42.36
43.10
42.99
42.19
39.67
33.50
21.54
2.19
-24.72
-57.34
-91.70
-122.38
-143.94
-152.50
-146.92
-128.99
-102.52
-72.03
-41.42
-13.38
