1593453273.00
64.000000
-0.00
-0.00
-0.00
-0.00
-0.00
-0.00
-0.00
-0.00
-0.00
-0.00
0.00
0.01
0.01
-0.00
-0.03
-0.05
-0.05
0.00
0.13
0.36
0.66
1.01
1.37
1.72
2.06
2.40
2.79
3.24
3.80
4.42
5.06
5.66
6.20
6.68
7.15
7.68
8.31
9.14
10.09
11.04
11.88
12.56
13.14
13.76
14.65
15.96
17.91
20.32
22.90
25.38
27.58
29.57
31.68
34.32
37.81
42.54
48.15
54.10
59.83
64.97
69.58
74.14
79.34
85.71
93.76
103.00
112.62
121.73
129.77
136.75
143.30
150.75
157.77
166.64
177.95
191.79
206.97
220.57
228.25
225.36
208.53
176.87
132.76
80.05
23.07
-34.94
-92.44
-149.16
-205.23
-260.37
-313.74
-363.88
-409.84
-450.91
-486.50
-515.74
-537.22
-549.20
-549.93
-538.32
-514.13
-478.57
-433.74
-382.27
-326.78
-269.54
-212.26
-156.20
-102.41
-51.74
-5.17
36.42
72.37
102.41
126.67
145.66
160.10
170.68
178.03
182.55
184.53
184.18
181.79
177.71
172.35
166.11
159.34
152.31
145.15
137.94
130.71
123.51
116.37
109.38
102.59
96.08
89.89
84.03
78.53
73.39
68.63
64.26
60.29
56.74
53.59
50.86
48.51
46.54
44.93
43.67
42.74
42.12
41.81
41.81
42.10
42.62
43.25
43.81
44.07
43.78
42.71
40.71
37.68
33.58
28.41
22.11
14.65
6.06
-3.61
-14.15
-25.27
-36.61
-47.73
-58.22
-67.71
-75.92
-82.72
-88.01
-91.76
-94.00
-94.75
-94.08
-92.12
-88.96
-84.71
-79.45
-73.36
-66.89
-60.87
-56.35
-54.00
-53.52
-53.42
-51.51
-45.83
-35.50
-20.91
-3.17
16.59
37.75
59.90
82.16
102.68
118.76
127.81
128.40
120.87
107.15
89.99
72.02
55.16
40.38
27.70
16.22
4.09
-11.08
-31.60
-58.47
-90.04
-121.89
-147.67
-161.44
-159.94
-144.10
-118.95
-92.18
-71.79
-64.04
-71.75
-93.26
-123.18
-153.05
-173.45
-176.67
-159.19
-122.84
-73.94
-20.80
29.49
73.31
111.12
145.99
181.24
218.48
256.88
293.60
324.80
347.06
357.97
356.43
342.58
317.51
283.24
242.70
199.64
158.10
121.45
91.28
66.81
44.75
20.15
-12.09
-55.13
-108.46
-167.02
-221.86
-262.58
-280.81
-273.22
-242.57
-196.13
-142.42
-87.73
-34.55
17.69
70.28
123.13
174.02
219.63
257.08
284.94
303.15
312.12
312.05
302.93
285.07
259.86
229.97
198.74
169.23
143.34
121.49
102.87
86.03
69.45
52.09
33.69
14.81
-3.39
-19.65
-33.16
-43.94
-52.86
-61.25
-70.26
-80.21
-90.39
-99.43
-105.91
-109.20
-109.94
-109.90
-111.41
-116.42
-125.77
-139.05
-154.90
-171.80
-188.95
-206.66
-226.38
-250.49
-281.70
-322.10
-371.84
-427.90
-483.59
-529.75
-557.39
-560.96
-540.56
-501.85
-453.44
-403.09
-355.24
-310.34
-266.71
-223.07
-179.83
-138.36
-99.47
-62.48
-25.72
11.58
48.32
82.28
112.24
139.32
166.39
195.27
224.31
248.45
262.45
265.07
261.08
259.30
267.62
288.03
314.98
338.09
347.35
337.56
309.65
268.95
222.35
175.86
133.11
95.31
61.78
31.05
2.42
-22.48
-39.95
-46.17
-39.87
-23.73
-3.15
16.79
33.99
49.40
64.52
77.61
82.20
69.45
33.53
-23.62
-91.62
-156.00
-204.63
-232.73
-243.35
-243.85
-240.73
-236.39
-229.19
-216.27
-196.52
-171.73
-145.60
-121.23
-98.99
-76.14
-48.28
-11.18
37.66
98.26
167.82
240.45
308.04
362.05
396.13
408.17
401.02
380.93
354.64
326.67
298.21
268.08
234.94
198.97
162.30
127.60
96.56
68.79
42.02
13.35
-19.71
-58.94
-105.89
-161.90
-227.58
-301.34
-378.19
-449.75
-506.20
-539.50
-546.41
-529.57
-496.17
-454.76
-412.07
-371.24
-332.15
-293.30
-253.76
-214.07
-175.90
-141.08
-110.41
-83.52
-59.13
-35.55
-11.22
15.07
44.63
79.17
120.35
168.41
220.70
271.56
314.04
343.00
357.84
363.18
366.94
376.66
395.92
422.92
451.65
474.81
486.84
485.45
471.54
447.85
417.60
383.73
348.75
314.97
284.60
259.55
241.22
229.76
223.46
218.76
211.05
196.14
171.69
137.97
97.40
53.40
8.83
-35.16
-79.21
-125.17
-175.31
-231.58
-295.14
-365.58
-440.16
-513.45
-577.89
-625.65
-651.24
-653.77
-637.37
-609.61
-578.41
-549.22
-523.84
-501.22
-479.40
-457.36
-435.42
-414.45
-394.42
-373.65
-349.06
-317.56
-277.41
-229.05
-175.08
-119.09
-64.23
-12.16
37.32
85.72
134.98
186.79
242.40
302.71
368.10
437.60
507.96
573.26
626.03
659.55
670.40
659.93
633.74
599.42
563.76
530.82
501.51
474.63
448.19
420.31
389.33
353.72
312.10
263.51
208.17
147.67
84.59
21.83
-38.66
-96.89
-155.33
-217.97
-288.19
-366.00
-446.20
-518.83
-572.21
-597.50
-592.45
-562.52
-518.42
-471.72
-430.45
-397.19
-369.71
-343.62
-314.78
-280.37
-238.82
-189.89
-135.36
-79.92
-30.68
5.19
24.11
28.61
27.27
31.59
51.54
92.08
152.19
226.11
305.56
381.49
444.98
488.10
505.10
494.24
458.99
407.69
350.95
298.42
256.09
225.39
203.99
187.34
169.83
145.66
109.79
59.37
-4.09
-73.36
-136.02
-178.07
-188.99
-167.00
-120.92
-67.69
-26.33
-11.39
-28.87
-75.94
-143.72
-221.05
-297.18
-362.97
-411.36
-438.01
-442.24
-427.69
-401.31
-371.05
-343.25
-320.68
-302.49
-285.81
-267.68
-245.90
-219.43
-187.70
-150.25
-106.73
-57.15
-1.72
59.40
125.93
196.98
269.68
338.67
396.74
436.75
453.99
447.88
422.28
384.25
341.99
302.54
270.29
246.23
228.46
213.02
195.39
171.70
139.49
97.62
45.71
-16.18
-86.91
-163.15
-238.46
-304.06
-351.35
-375.26
-376.30
-360.21
-335.42
-309.54
-286.96
-268.32
-251.71
-234.64
-215.39
-193.26
-168.20
-140.58
-110.81
-79.65
-48.24
-17.55
11.81
39.88
67.46
95.94
126.80
162.02
203.23
250.56
302.11
352.95
395.81
423.34
431.02
418.32
390.21
354.34
317.43
283.51
252.20
220.30
185.18
147.56
110.71
80.68
62.11
55.37
58.10
66.66
78.63
94.33
115.85
142.78
173.17
202.57
215.98
202.78
159.98
93.05
13.51
-56.33
-109.44
-146.91
-172.81
-190.51
-202.27
-206.06
-198.21
-175.73
-137.97
-89.46
-37.32
8.73
37.97
42.99
22.35
-18.77
-69.94
-119.19
-158.44
-183.66
-195.49
-197.63
-193.43
-184.51
-171.22
-153.53
-131.89
-108.16
-83.60
-58.87
-34.58
-11.56
8.91
24.92
34.84
38.18
35.46
28.69
20.44
13.01
8.11
6.76
9.20
14.93
22.79
30.94
37.48
40.87
40.37
36.15
29.31
21.43
14.13
8.53
5.03
3.37
2.85
2.74
2.62
2.39
2.26
2.46
3.03
3.75
4.18
3.83
2.44
0.09
-2.80
-5.67
-8.15
-10.19
-12.09
-14.19
-16.52
-18.52
-19.25
-17.70
-13.29
-6.19
2.77
12.25
20.89
27.70
32.34
35.14
36.91
38.77
41.83
46.76
53.40
60.79
67.40
71.97
73.95
73.85
73.10
73.58
76.89
83.51
92.94
104.02
115.89
127.93
139.89
151.63
163.12
174.13
183.68
190.53
193.42
192.00
185.89
174.77
158.17
136.14
109.29
78.12
43.47
6.51
-30.11
-64.17
-94.00
-119.04
-139.12
-154.61
-167.32
-179.54
-193.34
-208.32
-223.48
-237.29
-248.64
-256.50
-254.99
-240.26
-210.93
-178.55
-150.50
-131.13
-117.85
-108.79
-102.30
-97.67
-96.15
-99.58
-109.64
-125.78
-147.73
-175.39
-208.98
-247.04
-285.63
-319.11
-340.93
-346.02
-331.69
-300.30
-257.87
-212.00
-168.74
-131.24
-100.39
-75.43
-55.01
-36.75
-18.34
3.37
32.14
71.89
124.71
189.03
259.09
325.73
379.75
412.08
417.80
398.70
363.19
322.40
285.25
255.07
230.41
208.49
187.57
167.83
150.00
133.83
115.49
89.91
53.67
7.58
-41.78
-83.43
-105.40
-99.71
-66.37
-14.50
40.29
81.90
96.95
80.39
36.28
-24.95
-91.28
-153.09
-204.48
-241.66
-261.25
-260.32
-237.98
-198.00
-149.35
-103.62
-69.61
-49.23
-37.13
-25.14
-8.53
10.77
25.37
27.59
15.30
-5.83
-25.06
-32.22
-22.31
2.89
37.83
76.84
116.08
153.02
184.52
205.87
211.96
199.90
170.90
130.87
88.11
50.08
20.99
0.94
-12.98
-24.80
-38.00
-55.39
-78.38
-106.96
-139.80
-174.39
-207.64
-236.62
-259.12
-269.65
-264.60
-242.67
-205.77
-158.66
-107.44
-57.62
-12.87
25.06
55.87
79.45
95.96
105.85
109.93
109.47
106.01
101.10
96.09
91.91
88.55
85.57
82.38
78.58
74.14
69.37
64.77
60.84
57.93
55.89
54.36
52.96
51.41
49.64
47.76
45.95
44.40
43.28
42.62
42.41
42.59
43.10
43.78
44.46
44.94
45.13
45.10
45.01
45.09
45.37
45.55
45.00
42.81
38.18
30.74
20.60
8.53
-4.31
-16.89
-28.64
-39.76
-50.86
-62.62
-75.27
-88.23
-100.27
-110.08
-116.70
-120.03
-120.88
-120.60
-120.54
-121.90
-125.42
-131.36
-138.88
-145.42
-146.82
-138.37
-116.65
-81.52
-37.19
9.07
49.23
77.60
92.47
95.81
91.40
82.74
72.01
59.19
45.12
31.03
18.69
9.88
5.58
4.98
6.30
7.80
8.02
6.54
3.77
0.60
-2.28
-4.96
-8.46
-14.93
-25.07
-38.88
-55.21
-72.05
-86.96
-97.77
-103.22
-103.27
-99.02
-90.96
-79.66
-65.12
-46.81
-24.01
3.59
35.26
69.15
99.63
123.47
139.08
146.49
147.41
144.18
139.04
133.48
128.17
123.26
118.89
114.08
106.70
93.99
74.12
47.80
19.07
-5.77
-20.71
-22.51
-12.86
2.69
17.56
27.34
31.19
31.06
29.63
28.40
27.30
25.23
21.53
16.71
12.56
10.71
11.83
14.81
17.74
18.56
16.23
11.98
6.65
2.17
0.07
0.73
3.20
5.76
6.77
5.54
2.64
-0.48
-1.86
-0.29
4.21
10.38
16.44
20.79
22.78
22.95
22.56
23.38
26.71
33.34
43.27
55.42
67.27
75.14
75.05
64.34
43.25
14.87
-15.20
-40.63
-56.80
-62.11
-58.19
-48.66
-37.46
-27.22
-19.75
-15.52
-14.05
-14.68
-16.69
-19.52
-22.74
-26.03
-29.15
-33.36
-40.67
-51.44
-66.26
-85.07
-107.04
-130.61
-153.74
-168.11
-168.02
-152.42
-125.52
-94.17
-64.15
-38.71
-18.68
-3.41
8.41
17.09
22.73
25.59
26.28
25.82
25.23
25.32
26.64
29.47
33.03
36.46
39.15
41.05
42.53
44.02
45.81
48.06
50.80
53.49
55.63
56.89
57.46
57.67
57.83
58.03
58.19
58.11
57.25
55.15
51.20
45.51
38.37
30.05
20.87
11.18
1.33
-8.44
-16.89
-24.31
-30.53
-35.42
-38.89
-41.00
-41.90
-41.76
-40.84
-39.39
-37.79
-36.12
-34.47
-32.91
-31.46
-30.12
-28.85
-27.60
-26.42
-25.39
-24.49
-23.69
-23.04
-22.51
-22.07
-21.63
-21.14
-20.61
-20.02
-19.22
-18.09
-16.56
-14.54
-12.29
-9.80
-6.86
-3.60
-0.24
2.98
5.91
8.26
10.01
11.24
12.17
12.90
13.45
13.84
14.02
13.87
13.04
11.36
8.61
4.73
-0.53
-7.31
-15.65
-25.38
-35.10
-45.05
-54.91
-64.30
-72.71
-79.99
-86.09
-91.00
-94.67
-96.96
-97.73
-96.50
-93.85
-88.59
-80.32
-69.15
-55.49
-39.93
-23.08
-5.60
12.17
30.22
47.64
63.44
76.68
86.59
92.73
95.27
94.93
92.93
90.52
88.53
86.95
85.01
81.65
76.00
67.83
57.70
46.81
36.29
26.87
18.53
10.33
1.26
-9.45
-22.32
-37.50
-54.62
-72.14
-87.00
-94.95
-91.74
-75.18
-46.59
-11.10
24.27
53.34
72.96
83.75
88.73
91.15
92.77
93.43
91.85
87.17
79.61
70.32
60.45
50.36
39.61
26.85
12.04
-4.36
-21.14
-36.59
-49.22
-58.29
-64.01
-67.36
-69.74
-72.20
-75.34
-79.09
-82.88
-86.06
-88.32
-89.77
-90.71
-91.71
-92.99
-94.45
-95.53
-95.38
-93.12
-88.14
-80.34
-69.42
-55.67
-39.54
-21.65
-2.67
16.74
35.85
53.91
69.38
82.06
91.68
98.22
101.80
102.79
101.74
99.18
95.66
91.57
87.41
83.32
79.39
75.98
72.71
69.46
66.06
62.39
58.28
53.73
48.61
43.24
37.28
30.68
23.61
16.27
8.86
1.58
-5.29
-11.64
-17.35
-22.45
-26.90
-30.67
-33.77
-36.24
-38.15
-39.50
-40.37
-40.82
-40.97
-40.84
-40.45
-39.85
-39.12
-38.36
-37.65
-37.10
-36.81
-36.94
-37.43
-38.26
-39.41
-40.85
-42.49
-44.28
-46.18
-48.22
-50.55
-53.01
-55.56
-58.18
-60.87
-63.60
-66.40
-69.37
-72.73
-76.84
-81.58
-86.92
-92.84
-99.20
-105.82
-112.50
-119.13
-125.77
-132.71
-139.60
-146.25
-152.34
-157.32
-160.39
-160.54
-156.62
-147.20
-135.54
-122.94
-110.28
-97.87
-85.44
-72.30
-57.73
-41.40
-23.66
-5.62
12.04
28.65
44.18
59.44
75.79
94.53
116.27
140.49
165.62
190.43
213.94
236.14
257.99
280.88
306.02
334.23
366.05
401.75
441.26
482.59
521.36
551.08
565.17
559.64
535.10
496.79
452.38
408.83
369.49
333.84
299.06
262.78
224.96
187.81
154.10
125.15
100.07
76.52
52.60
28.22
5.18
-14.07
-28.43
-39.37
-50.65
-66.81
-91.23
-124.71
-164.98
-207.42
-246.65
-278.40
-300.85
-314.92
-323.07
-327.17
-326.73
-318.73
-299.50
-267.77
-227.11
-185.48
-152.22
-133.75
-130.56
-137.54
-147.08
-153.00
-152.93
-147.85
-139.64
-128.93
-114.66
-95.44
-71.45
-45.40
-21.65
-4.27
4.61
5.20
-0.91
-12.02
-26.98
-44.91
-64.47
-83.46
-99.28
-110.02
-115.30
-116.29
-114.93
-112.70
-109.80
-104.99
-96.13
-81.10
-58.84
-30.29
1.07
29.64
49.06
54.45
44.47
22.17
-5.97
-32.62
-52.21
-62.62
-64.79
-61.01
-53.06
-41.57
-26.94
-10.54
4.73
15.53
20.00
19.20
16.56
15.62
17.58
20.31
19.83
13.35
1.64
-10.77
-18.10
-16.71
-7.26
6.02
18.04
25.95
30.12
32.75
35.30
36.85
34.74
26.83
13.84
-0.10
-9.28
-9.57
-0.77
13.02
25.38
30.67
26.53
14.51
-1.28
-16.45
-28.37
-36.97
-44.09
-51.97
-61.65
-71.95
-79.71
-80.97
-72.73
-54.25
-27.35
4.50
37.43
68.33
95.25
117.03
132.88
142.12
144.33
139.53
128.28
111.58
90.81
67.80
45.07
25.53
11.87
5.40
5.38
9.22
13.77
16.85
18.15
18.99
21.03
25.13
30.95
37.75
45.43
54.89
67.41
83.41
101.54
118.88
132.32
140.10
142.65
142.10
140.87
140.40
140.59
140.42
138.98
136.25
133.11
130.83
130.76
134.10
141.99
155.18
173.24
193.73
212.13
222.98
221.84
207.25
181.44
149.27
115.99
85.03
57.11
30.73
3.85
-24.58
-53.94
-82.50
-108.62
-131.83
-153.20
-174.95
-199.44
-228.35
-262.48
-301.89
-345.99
-393.11
-439.84
-480.76
-509.24
-519.30
-507.81
-475.81
-428.06
-370.99
-310.05
-248.16
-186.05
-124.20
-64.96
-13.16
25.25
45.83
48.18
36.55
18.28
0.79
-11.33
-17.66
-21.37
-26.94
-37.63
-53.94
-73.73
-93.72
-111.19
-125.06
-135.58
-143.06
-146.73
-144.03
-131.33
-105.40
-65.34
-13.63
43.82
99.01
144.01
173.04
183.87
177.91
159.27
133.40
105.74
80.69
60.99
47.34
38.23
30.37
19.85
4.07
-16.45
-37.41
-51.83
-52.68
-35.84
-2.03
43.24
91.48
133.85
163.33
175.99
171.10
150.65
118.78
81.03
43.50
11.81
-10.08
-20.59
-20.73
-13.56
-3.18
6.55
13.07
15.68
15.52
14.91
16.33
21.31
29.55
38.86
45.84
47.19
41.21
28.65
12.70
-2.12
-11.70
-13.80
-8.74
1.05
12.25
22.11
29.42
34.66
39.27
44.59
50.98
57.50
62.31
63.56
60.25
52.60
41.98
30.27
19.25
10.17
3.64
-0.16
-1.30
-0.11
2.73
6.09
8.51
8.51
5.03
-2.16
-12.22
-23.27
-32.77
-38.13
-37.40
-29.92
-16.64
0.16
17.54
32.89
44.70
52.98
58.90
64.03
69.57
75.81
82.04
86.87
88.70
86.34
79.58
69.46
58.10
47.91
40.40
35.25
30.21
22.13
8.73
-9.94
-31.23
-50.93
-65.28
-72.56
-73.45
-70.19
-65.20
-60.06
-55.57
-52.25
-50.78
-51.77
-54.99
-58.79
-60.34
-56.90
-47.31
-33.05
-17.89
-6.36
-1.67
-4.32
-11.87
-20.26
-25.69
-26.32
-22.59
-16.43
-9.56
-2.13
7.55
21.89
42.20
67.25
93.08
114.35
126.45
127.29
118.02
102.21
84.45
68.83
58.18
53.85
56.01
63.73
75.21
87.95
99.42
107.84
112.89
115.65
117.80
120.30
122.38
121.49
114.39
98.76
74.46
43.80
10.65
-20.82
-47.35
-66.98
-78.92
-83.30
-80.97
-73.61
-63.67
-54.07
-47.44
-45.33
-47.85
-53.94
-62.04
-71.00
-80.43
-90.52
-101.25
-111.68
-119.77
-123.05
-119.84
-110.30
-96.68
-82.37
-70.14
-60.68
-52.28
-41.96
-27.39
-8.53
12.18
31.00
44.72
52.15
54.29
53.41
51.65
50.12
48.79
46.93
43.75
38.80
32.12
24.27
16.39
9.91
5.92
4.28
3.20
-0.29
-8.94
-23.51
-41.85
-59.53
-71.70
-75.43
-70.96
-61.28
-50.30
-40.69
-32.76
-24.98
-15.59
-4.25
7.28
15.89
18.72
14.76
5.41
-6.22
-16.84
-24.35
-28.48
-30.11
-30.02
-27.83
-22.12
-11.77
2.29
16.24
24.41
21.89
7.39
-15.45
-39.16
-55.80
-60.53
-53.63
-39.88
-25.63
-15.65
-11.21
-10.48
-10.46
-9.15
-6.44
-3.48
-1.28
0.28
2.38
6.42
13.00
21.43
30.29
38.24
44.71
49.79
53.81
56.71
57.98
57.12
54.25
50.43
47.33
46.37
48.03
51.72
56.45
61.84
68.72
78.67
93.01
111.48
131.87
150.74
164.95
172.93
175.14
173.17
168.53
161.74
152.48
140.56
127.01
114.53
106.43
105.15
110.54
119.27
125.50
123.06
108.21
81.71
49.14
19.19
0.50
-1.68
12.68
38.64
68.58
95.46
115.44
128.73
138.37
147.92
159.02
170.49
178.83
180.21
172.43
155.90
133.28
107.96
82.55
57.82
33.05
7.13
-20.52
-49.57
-79.21
-108.89
-138.68
-169.04
-200.53
-233.06
-265.96
-298.25
-329.17
-358.79
-388.61
-421.64
-461.61
-511.29
-570.29
-633.78
-692.99
-737.84
-760.60
-758.89
-736.33
-700.66
-660.12
-620.32
-582.95
-546.72
-509.50
-470.18
-429.09
-387.31
-345.50
-303.29
-259.62
-213.67
-165.57
-116.53
-68.61
-23.68
17.32
54.55
89.08
122.17
154.61
186.40
217.13
246.52
274.91
303.01
331.05
358.02
381.41
398.08
405.54
403.02
391.68
373.89
352.19
328.52
304.21
280.34
257.86
237.44
218.95
201.38
183.44
164.63
146.03
130.13
119.66
116.05
118.59
124.58
130.57
133.89
133.48
129.87
124.42
118.29
111.94
105.04
96.92
87.03
75.18
61.72
47.42
33.47
21.22
11.65
4.86
-0.21
-5.35
-11.98
-19.94
-27.04
-29.75
-25.15
-12.78
4.50
21.47
32.96
36.20
32.06
24.30
17.42
14.47
15.93
20.10
24.50
27.28
27.88
26.84
25.06
23.29
21.98
21.48
22.15
24.10
26.75
28.72
28.28
24.35
17.33
9.34
3.35
1.79
5.30
12.29
19.65
24.12
23.80
18.84
11.23
3.58
-2.14
-5.46
-7.36
-9.41
-12.85
-17.95
-24.06
-30.21
-35.61
-39.74
-42.27
-42.92
-41.87
-40.15
-39.78
-43.08
-51.58
-65.01
-81.11
-96.39
-107.20
-110.64
-104.86
-89.16
-64.18
-32.25
2.47
34.68
59.45
73.81
77.74
73.75
65.46
56.15
47.90
41.81
38.29
37.29
38.22
39.81
40.50
39.18
35.84
31.62
28.08
26.24
26.16
27.19
28.76
30.96
34.29
38.90
43.71
46.37
44.19
35.57
21.15
3.84
-12.23
-23.39
-27.80
-25.95
-20.12
-13.11
-7.09
-2.92
-0.31
1.56
3.28
4.80
5.62
5.50
5.05
5.67
8.73
14.36
20.83
25.11
24.51
18.54
9.60
2.01
-0.29
4.07
13.18
22.99
29.57
31.02
28.13
23.31
18.89
15.82
13.40
9.93
3.75
-6.11
-19.55
-35.22
-50.59
-62.17
-66.42
-61.07
-46.43
-25.76
-4.24
13.09
23.23
25.95
23.00
16.36
6.90
-5.76
-22.15
-41.34
-60.18
-74.10
-78.92
-72.71
-56.70
-34.72
-11.58
8.64
23.63
32.91
37.27
37.84
35.55
30.84
23.79
14.64
4.29
-5.62
-13.20
-17.31
-18.41
-18.61
-20.75
-26.69
-35.98
-45.80
-52.23
-52.36
-45.80
-34.91
-23.51
-15.09
-11.48
-12.73
-17.73
-24.93
-32.58
-38.43
-39.76
-33.87
-19.27
3.26
30.32
56.71
77.21
88.31
89.07
80.84
66.09
47.32
26.41
4.79
-16.13
-34.61
-48.59
-56.07
-55.59
-46.56
-29.47
-6.01
21.13
48.62
73.29
92.93
106.85
115.72
120.87
123.33
123.38
120.78
115.58
108.66
101.43
94.98
89.12
82.35
72.65
58.92
41.68
23.01
5.63
-7.95
-15.81
-16.63
-9.85
3.92
22.21
40.72
54.34
59.05
53.51
39.53
20.91
1.42
-16.86
-33.81
-50.42
-67.24
-83.61
-97.62
-106.85
-109.20
-103.61
-90.50
-71.99
-51.85
-34.75
-24.98
-24.97
-34.39
-50.39
-68.96
-86.78
-102.28
-115.60
-127.52
-138.18
-146.65
-151.19
-150.23
-142.90
-129.22
-109.81
-85.74
-58.60
-30.48
-3.82
19.46
38.72
55.26
71.69
90.68
113.36
138.55
163.28
184.02
198.10
204.17
201.68
189.82
167.20
132.61
86.91
34.74
-15.14
-51.81
-65.94
-53.61
-18.50
29.14
76.23
111.72
130.32
133.42
127.16
118.64
112.41
109.23
106.88
102.68
95.47
86.04
75.79
65.05
52.25
34.88
11.57
-16.35
-45.17
-71.00
-92.47
-112.10
-135.10
-165.99
-205.15
-247.27
-282.86
-301.99
-298.47
-272.37
-229.90
-180.92
-135.43
-100.59
-79.48
-71.51
-73.94
-83.30
-96.27
-109.43
-118.90
-120.46
-110.67
-88.58
-57.06
-22.86
5.34
19.91
17.10
-1.63
-30.30
-60.52
-84.06
-94.84
-89.91
-69.63
-37.33
1.58
40.79
74.50
98.62
111.34
112.83
104.37
87.58
64.14
36.17
6.53
-21.46
-44.77
-61.62
-71.89
-76.61
-77.20
-74.93
-71.03
-67.17
-65.56
-68.23
-76.02
-87.66
-100.03
-109.25
-112.13
-107.26
-95.06
-77.19
-55.75
-32.90
-10.77
8.67
23.99
34.94
42.80
49.87
58.48
69.86
83.42
97.19
108.56
115.32
116.10
110.68
99.93
85.80
70.99
58.33
49.83
45.94
45.50
46.62
48.16
50.83
57.07
69.66
89.76
115.52
142.28
164.35
177.36
180.01
174.18
163.44
151.06
138.40
124.75
108.45
88.57
66.22
44.51
27.36
17.59
15.58
19.13
24.69
29.27
31.96
34.02
37.65
43.95
51.77
57.96
59.07
53.51
42.79
31.09
23.23
22.27
28.03
37.34
45.82
50.03
48.77
42.94
34.35
24.40
13.64
2.30
-8.67
-17.06
-20.06
-15.97
-5.72
6.72
15.49
15.05
2.33
-22.13
-54.49
-88.87
-118.83
-138.66
-144.38
-134.45
-110.16
-75.49
-36.22
1.70
33.80
58.01
74.52
84.71
89.97
91.16
88.79
83.49
76.00
66.89
55.98
42.46
25.65
6.07
-13.88
-30.71
-41.77
-47.19
-50.63
-57.97
-74.45
-101.62
-135.90
-169.62
-193.94
-202.31
-192.57
-167.16
-131.39
-91.17
-51.32
-14.94
16.34
41.65
60.40
72.45
78.45
80.13
80.20
81.73
87.18
97.52
111.69
126.66
138.24
142.25
135.63
117.17
87.54
48.80
3.79
-44.28
-91.83
-134.86
-169.19
-191.23
-199.10
-193.47
-177.59
-156.27
-134.38
-115.41
-100.81
-90.12
-81.85
-74.30
-66.14
-56.65
-45.56
-33.05
-19.64
-6.19
6.16
16.13
22.53
24.32
20.63
10.95
-4.56
-24.79
-47.58
-70.14
-89.71
-104.06
-111.74
-111.89
-103.96
-87.89
-64.73
-37.21
-9.76
12.61
26.13
29.98
26.74
21.15
17.78
18.78
23.20
28.06
30.51
29.60
26.40
22.74
19.46
15.25
7.12
-7.86
-30.70
-59.43
-89.61
-116.04
-134.64
-143.65
-143.57
-136.29
-123.81
-107.50
-87.93
-65.52
-41.53
-18.68
-0.93
7.85
5.41
-7.58
-27.44
-48.86
-66.63
-77.40
-80.32
-76.72
-69.31
-61.16
-54.84
-51.77
-51.97
-54.05
-55.97
-56.16
-54.54
-52.61
-52.41
-54.78
-58.30
-60.00
-57.34
-50.40
-42.41
-38.19
-41.00
-49.90
-59.39
-61.52
-49.41
-20.15
23.95
76.58
129.47
174.59
205.34
216.94
206.95
176.31
130.33
78.53
32.62
2.97
-4.94
7.64
33.70
63.76
89.76
107.73
117.89
122.81
124.85
124.68
121.48
114.51
104.46
93.66
84.95
79.98
78.25
77.24
74.05
67.14
57.45
47.96
41.96
41.04
43.87
46.35
42.97
29.09
3.05
-32.46
-70.70
-102.87
-121.30
-122.51
-108.67
-86.46
-64.00
-47.24
-37.96
-34.01
-31.43
-26.58
-17.23
-2.45
17.99
43.55
72.18
99.83
121.15
131.49
129.31
117.25
100.89
85.91
75.19
67.84
60.63
50.67
37.52
23.40
11.57
4.27
1.62
2.18
4.53
8.63
16.00
28.44
46.21
67.08
86.85
101.12
107.23
105.23
97.51
87.22
76.77
66.86
56.41
43.43
26.02
3.23
-24.60
-55.98
-88.85
-121.09
-150.97
-177.23
-198.97
-215.43
-225.96
-230.42
-229.65
-225.77
-221.84
-220.86
-224.39
-231.55
-238.94
-241.62
-234.91
-216.06
-185.10
-144.54
-98.19
-49.86
-2.23
43.48
87.45
130.93
175.93
224.87
279.57
339.88
402.52
460.78
505.99
530.15
528.92
503.21
458.81
403.89
345.94
289.54
235.91
183.94
131.86
78.58
24.35
-29.25
-79.65
-123.79
-158.88
-183.38
-197.70
-204.16
-206.02
-206.26
-206.41
-206.57
-206.21
-205.35
-205.05
-206.70
-210.73
-215.69
-218.74
-217.28
-210.80
-201.62
-193.76
-190.55
-192.59
-197.19
-199.92
-197.12
-187.87
-174.03
-158.60
-143.44
-127.85
-108.95
-83.26
-48.79
-6.23
41.15
88.56
131.15
165.24
188.73
200.79
201.38
190.80
169.82
140.07
104.30
66.11
29.07
-4.31
-33.18
-58.07
-80.04
-99.47
-115.43
-125.73
-127.74
-119.19
-99.02
-67.78
-27.76
17.07
61.57
100.35
128.98
145.08
148.74
142.16
128.68
111.81
94.50
78.83
65.98
56.09
48.27
40.72
31.36
18.81
3.35
-12.89
-26.68
-35.00
-36.36
-31.23
-21.68
-10.42
0.04
7.91
12.04
11.87
7.51
0.00
-8.59
-15.66
-18.88
-17.27
-11.49
-3.38
5.04
12.62
19.39
26.15
33.64
41.76
49.57
55.86
59.88
61.68
61.85
60.79
58.16
52.80
43.37
29.27
11.50
-7.36
-23.90
-35.24
-39.88
-37.96
-30.63
-19.24
-4.83
11.67
28.88
44.67
56.41
61.92
60.55
53.67
44.33
35.98
31.13
30.43
32.70
35.63
36.87
34.82
29.00
20.03
9.08
-2.53
-13.74
-23.74
-31.94
-37.88
-41.37
-42.61
-42.20
-41.04
-39.88
-38.97
-37.99
-36.24
-33.10
-28.31
-22.06
-14.73
-6.77
1.42
9.38
16.44
21.82
24.80
24.99
22.49
17.71
11.14
3.25
-5.24
-13.11
-18.55
-19.77
-15.86
-7.53
2.87
12.23
18.13
20.01
19.47
19.29
21.92
28.16
36.85
45.64
52.37
56.15
57.69
58.69
60.93
65.46
72.31
80.74
89.85
99.09
108.42
118.08
128.11
138.09
147.08
153.87
157.47
157.52
154.44
149.31
143.26
136.88
129.71
120.35
107.21
89.61
68.58
46.81
27.58
13.32
4.50
-0.34
-3.60
-7.24
-11.89
-16.84
-20.90
-23.23
-23.62
-22.23
-19.15
-14.25
-7.72
-0.70
4.51
4.93
-1.97
-17.01
-38.65
-63.18
-85.68
-101.44
-107.37
-102.87
-89.80
-71.93
-53.70
-38.95
-29.97
-27.16
-29.41
-34.82
-41.60
-48.54
-55.08
-60.77
-64.90
-66.13
-62.90
-54.30
-41.05
-25.92
-13.15
-7.01
-10.10
-22.36
-41.15
-62.31
-81.70
-96.16
-103.79
-103.70
-95.59
-79.62
-56.72
-28.70
1.85
31.97
58.87
80.20
94.17
99.58
96.07
84.51
67.07
46.91
27.22
10.01
-4.58
-18.08
-32.59
-49.28
-67.29
-83.85
-95.41
-99.27
-94.79
-83.67
-69.15
-54.57
-42.14
-32.37
-24.44
-17.12
-9.75
-2.59
3.38
7.26
8.94
9.34
10.00
12.27
16.50
21.87
26.67
29.16
28.15
23.30
14.88
3.35
-10.76
-26.64
-42.89
-57.36
-67.64
-71.79
-69.19
-61.01
-49.95
-39.61
-33.41
-33.89
-42.11
-57.48
-77.92
-100.23
-120.80
-136.47
-145.37
-147.40
-144.07
-137.81
-130.91
-124.81
-119.61
-114.41
-107.95
-99.24
-88.08
-75.01
-61.04
-47.26
-34.47
-23.07
-13.18
-4.70
2.50
8.45
13.03
15.89
16.55
14.57
9.80
2.65
-5.53
-12.47
-15.36
-11.57
0.28
19.70
44.27
70.42
94.62
114.50
129.28
139.42
145.87
149.40
150.39
149.19
146.44
143.21
140.51
138.76
137.37
135.03
130.35
122.58
112.02
99.92
87.92
77.36
68.78
61.88
55.76
49.52
42.82
36.10
30.36
26.62
25.19
25.29
25.15
22.69
16.33
5.63
-8.68
-24.96
-41.22
-55.51
-66.43
-73.51
-77.70
-81.45
-87.93
-99.50
-116.00
-133.91
-147.48
-151.48
-144.14
-128.45
-110.99
-98.56
-94.79
-98.58
-105.43
-110.44
-111.23
-108.68
-105.58
-104.17
-104.47
-104.42
-101.63
-95.37
-87.35
-80.80
-78.41
-80.40
-83.80
-83.19
-72.88
-49.29
-12.61
33.03
80.83
123.63
156.12
176.10
184.37
183.55
176.52
165.58
152.38
138.43
125.34
114.30
105.12
95.65
82.64
63.72
39.59
14.57
-4.79
-12.58
-6.24
12.49
38.72
66.87
92.80
114.60
131.81
144.25
151.20
151.60
144.84
131.57
113.76
94.13
75.21
58.52
44.24
31.34
18.05
2.81
-14.82
-33.62
-50.77
-62.73
-66.65
-61.77
-49.92
-35.03
-21.72
-13.61
-12.14
-16.35
-23.43
-29.91
-32.81
-30.19
-21.38
-6.83
12.02
32.92
53.09
69.84
81.41
87.48
89.32
89.22
89.66
92.50
98.55
107.35
117.45
126.61
132.19
131.68
123.30
106.59
82.52
53.12
20.50
-14.07
-50.63
-89.92
-132.17
-175.86
-217.27
-251.17
-272.44
-277.90
-267.47
-244.48
-214.68
-184.48
-159.06
-140.90
-129.34
-121.26
-112.58
-99.92
-81.81
-58.88
-33.11
-6.70
18.93
43.14
65.55
85.27
100.81
110.53
113.59
110.52
103.25
94.36
86.12
79.70
74.98
70.95
66.25
59.85
51.38
41.17
30.10
19.29
9.78
2.11
-3.82
-8.77
-13.79
-19.66
-26.50
-33.50
-39.23
-42.13
-41.21
-36.53
-29.30
-21.48
-15.06
-11.46
-11.15
-13.71
-18.17
-23.58
-29.19
-34.56
-39.26
-42.74
-44.21
-42.98
-38.81
-32.33
-24.99
-18.71
-15.08
-14.79
-17.36
-21.44
-25.56
-28.80
-31.11
-33.06
-35.27
-37.75
-39.85
-40.54
-39.08
-35.56
-30.86
-26.28
-22.72
-20.24
-17.97
-14.59
-9.09
-1.33
7.80
16.73
23.85
27.96
28.50
25.47
19.17
10.09
-0.95
-12.69
-23.32
-30.90
-33.86
-31.63
-25.03
-16.09
-7.36
-1.10
1.41
0.10
-4.19
-10.24
-17.08
-24.27
-31.91
-40.25
-49.28
-58.49
-66.89
-73.25
-76.53
-76.17
-72.20
-65.14
-55.85
-45.33
-34.62
-24.69
-16.39
-10.30
-6.59
-4.94
-4.53
-4.33
-3.35
-0.98
2.89
7.96
13.69
19.55
25.15
30.33
35.02
39.18
42.61
45.00
46.05
45.61
43.89
41.33
38.38
35.18
31.33
26.04
18.65
9.20
-1.19
-10.53
-16.75
-18.56
-16.16
-11.12
-5.69
-1.73
-0.05
-0.21
-0.97
-1.11
-0.08
1.83
3.78
5.08
5.56
5.65
6.04
7.14
8.73
9.94
9.78
7.68
4.08
0.43
-1.27
0.61
6.38
14.65
22.71
27.69
27.87
23.60
17.17
11.70
9.60
11.34
15.40
19.22
20.74
19.36
16.22
13.28
12.14
13.22
15.65
17.97
19.04
18.62
17.44
16.69
17.15
18.77
20.59
21.36
20.20
17.17
13.37
10.34
9.31
10.56
13.30
16.21
18.11
18.59
18.00
17.08
16.39
15.88
15.02
13.29
10.55
7.24
4.19
2.19
1.62
2.31
3.70
5.16
6.21
6.70
6.76
6.68
6.61
6.51
6.10
5.09
3.41
1.31
-0.69
-2.10
-2.76
-3.10
-3.93
-6.07
-9.85
-14.90
-20.25
-24.77
-27.69
-28.85
-28.68
-27.88
-27.07
-26.57
-26.35
-26.16
-25.75
-24.99
-23.90
-22.58
-21.06
-19.22
-16.85
-13.82
-10.27
-6.67
-3.75
-2.16
-2.20
-3.58
-5.53
-7.10
-7.59
-6.80
-4.99
-2.69
-0.37
1.71
3.55
5.14
6.36
6.93
6.58
5.35
3.73
2.48
2.30
3.34
5.00
6.22
6.03
4.16
1.28
-1.28
-2.20
-0.84
2.38
6.29
9.53
11.25
11.46
10.88
10.50
11.00
12.43
14.23
15.65
16.22
15.98
15.41
15.02
14.94
14.70
13.58
11.07
7.37
3.43
0.50
-0.51
0.45
2.49
4.22
4.44
2.70
-0.53
-4.14
-6.98
-8.35
-8.33
-7.63
-7.20
-7.70
-9.17
-10.99
-12.18
-11.89
-9.84
-6.39
-2.42
1.23
4.09
6.20
8.00
9.95
12.17
14.32
15.90
16.53
16.26
15.57
15.08
15.19
15.86
16.62
16.90
16.36
15.08
13.47
11.98
10.79
9.68
8.21
6.02
3.19
0.32
-1.74
-2.19
-0.74
2.29
6.16
10.06
13.53
16.56
19.47
22.52
25.61
28.25
29.81
29.91
28.78
27.14
25.82
25.31
25.30
24.72
22.24
16.96
9.02
-0.37
-9.34
-16.20
-20.16
-21.54
-21.55
-21.51
-22.23
-23.70
-25.28
-26.16
-25.93
-24.70
-22.99
-21.37
-20.10
-19.01
-17.66
-15.61
-12.77
-9.50
-6.49
-4.38
-3.40
-3.20
-3.12
-2.41
-0.73
1.66
4.08
5.71
6.04
5.08
3.32
1.47
0.08
-0.66
-0.91
-0.95
-0.91
-0.66
0.05
1.40
3.15
4.68
5.17
4.11
1.61
-1.61
-4.54
-6.43
-7.17
-7.33
-7.64
-8.58
-9.96
-11.08
-11.16
-9.83
-7.56
-5.42
-4.68
-6.10
-9.59
-14.21
-18.59
-21.60
-22.76
-22.43
-21.37
-20.30
-19.41
-18.34
-16.49
-13.41
-9.30
-4.91
-1.23
0.91
1.29
0.21
-1.80
-4.25
-6.96
-10.02
-13.50
-17.27
-20.91
-23.79
-25.33
-25.20
-23.53
-20.86
-18.03
-15.91
-15.08
-15.79
-17.89
-20.97
-24.64
-28.71
-33.21
-38.32
-44.07
-50.23
-56.30
-61.71
-66.18
-69.87
-73.35
-77.36
-82.36
-88.34
-94.78
-101.00
-106.55
-111.36
-115.49
-118.70
-119.95
-117.55
-109.74
-95.64
-75.95
-52.95
-29.66
-8.68
8.73
22.75
34.42
44.72
53.85
61.30
66.32
68.65
68.81
67.86
66.84
66.22
65.77
64.92
63.42
61.77
61.19
63.03
68.07
75.97
85.34
94.17
100.68
103.90
103.95
101.71
98.29
94.48
90.43
85.77
79.99
72.90
64.84
56.67
49.42
43.85
40.10
37.72
35.94
34.14
32.16
30.26
28.85
28.08
27.59
26.58
24.21
20.00
14.20
7.63
1.35
-3.79
-7.58
-10.41
-13.03
-16.05
-19.57
-23.13
-25.91
-27.12
-26.46
-24.23
-21.12
-17.88
-14.94
-12.31
-9.78
-7.19
-4.74
-2.97
-2.46
-3.46
-5.61
-8.02
-9.53
-9.17
-6.57
-2.06
3.44
8.75
12.86
15.11
15.39
13.93
11.11
7.20
2.29
-3.58
-10.23
-17.31
-24.23
-30.40
-35.49
-39.49
-42.67
-45.37
-47.93
-50.72
-54.22
-58.99
-65.52
-73.87
-83.48
-93.20
-101.61
-107.42
-109.80
-108.48
-103.66
-95.81
-85.38
-72.56
-57.03
-37.88
-13.85
16.04
51.66
91.35
131.97
169.76
201.51
225.30
240.84
248.97
250.95
247.91
240.71
229.99
216.28
199.87
180.56
157.59
129.97
97.01
59.10
18.07
-22.98
-60.31
-90.56
-111.52
-122.68
-125.05
-120.71
-112.03
-101.07
-89.28
-77.52
-66.32
-56.15
-47.57
-41.15
-37.27
-35.88
-36.43
-37.93
-39.22
-39.36
-37.84
-34.69
-30.22
-24.78
-18.55
-11.64
-4.19
3.29
9.98
14.96
17.66
18.13
17.07
15.48
14.15
13.29
12.50
11.04
8.36
4.46
-0.06
-4.11
-6.60
-6.81
-4.56
-0.17
5.79
12.82
20.59
28.87
37.21
44.75
50.29
52.68
51.36
46.69
39.87
32.49
25.78
20.17
15.24
10.13
4.25
-2.25
-8.40
-12.74
-14.00
-11.65
-6.21
0.99
8.22
13.96
17.26
17.92
16.29
12.99
8.74
4.24
0.21
-2.67
-3.90
-3.31
-1.15
1.87
4.94
7.45
9.27
10.73
12.37
14.56
17.18
19.63
21.04
20.69
18.36
14.50
10.02
5.95
3.07
1.63
1.37
1.71
1.96
1.57
0.13
-2.60
-6.72
-12.24
-19.02
-26.75
-34.83
-42.45
-48.73
-52.88
-54.50
-53.65
-50.80
-46.60
-41.58
-36.02
-29.99
-23.63
-17.41
-12.17
-8.88
-8.27
-10.25
-13.89
-17.66
-19.91
-19.53
-16.22
-10.44
-3.12
4.80
12.55
19.63
25.67
30.34
33.28
34.33
33.63
31.78
29.61
27.92
27.11
26.99
26.91
26.07
23.95
20.67
16.95
13.81
12.17
12.35
14.06
16.47
18.67
20.02
20.37
19.98
19.28
18.53
17.66
16.36
14.29
11.43
8.13
5.06
2.83
1.69
1.35
1.11
0.24
-1.60
-4.15
-6.67
-8.35
-8.74
-8.05
-7.05
-6.70
-7.58
-9.62
-12.13
-14.17
-15.08
-14.82
-13.90
-13.01
-12.53
-12.33
-11.83
-10.45
-8.07
-5.26
-3.10
-2.66
-4.49
-8.32
-13.21
-17.94
-21.63
-24.05
-25.58
-26.94
-28.62
-30.62
-32.47
-33.51
-33.43
-32.55
-31.70
-31.68
-32.71
-34.14
-34.72
-33.31
-29.48
-23.72
-17.03
-10.12
-2.93
5.36
15.70
28.40
42.66
56.70
68.43
76.27
79.62
78.86
74.91
68.77
61.16
52.53
43.20
33.63
24.51
16.60
10.53
6.55
4.39
3.35
2.62
1.57
0.03
-1.76
-3.29
-4.14
-4.26
-4.07
-4.27
-5.50
-7.91
-11.00
-13.74
-15.03
-14.25
-11.58
-7.92
-4.42
-1.88
-0.38
0.69
2.16
4.54
7.61
10.53
12.32
12.41
10.97
8.84
7.03
6.26
6.54
7.30
7.73
7.26
5.87
3.99
2.29
1.14
0.48
-0.23
-1.56
-3.84
-6.93
-10.34
-13.52
-16.27
-18.72
-21.20
-23.88
-26.50
-28.44
-29.04
-27.99
-25.64
-22.92
-20.94
-20.53
-21.83
-24.32
-27.16
-29.60
-31.45
-33.03
-34.92
-37.50
-40.54
-43.22
-44.45
-43.34
-39.64
-33.80
-26.67
-19.04
-11.24
-3.19
5.36
14.34
23.18
30.81
36.12
38.43
37.88
35.40
32.36
30.04
29.12
29.51
30.51
31.25
31.16
30.14
28.56
26.91
25.48
24.26
22.97
21.42
19.65
17.96
16.67
15.90
15.36
14.45
12.61
9.61
5.79
1.93
-1.10
-2.68
-2.75
-1.80
-0.59
0.14
0.00
-0.92
-2.22
-3.36
-3.99
-4.09
-3.92
-3.77
-3.71
-3.47
-2.52
-0.34
3.13
7.45
11.72
15.03
16.85
17.26
16.81
16.17
15.71
15.33
14.64
13.32
11.45
9.56
8.46
8.74
10.47
13.05
15.52
16.97
16.97
15.69
13.72
11.70
9.92
8.18
5.96
2.73
-1.61
-6.66
-11.61
-15.66
-18.34
-19.69
-20.11
-20.05
-19.71
-18.99
-17.63
-15.51
-12.91
-10.50
-9.06
-9.14
-10.80
-13.60
-16.77
-19.60
-21.71
-23.12
-24.14
-25.10
-26.10
-26.99
-27.48
-27.40
-26.94
-26.61
-27.03
-28.52
-30.93
-33.65
-35.95
-37.42
-38.22
-39.06
-40.77
-43.82
-47.98
-52.47
-56.33
-58.93
-60.29
-60.89
-61.40
-62.23
-63.30
-64.07
-63.70
-61.30
-56.13
-47.72
-36.03
-21.34
-4.22
14.68
34.69
55.12
74.98
92.86
107.07
116.28
120.18
119.89
117.78
116.50
117.82
121.89
127.38
132.25
134.73
133.89
129.65
122.35
112.36
100.18
86.63
73.06
61.13
52.19
46.69
43.95
42.38
40.15
35.74
28.32
17.72
4.27
-11.40
-28.43
-45.90
-62.89
-78.65
-92.58
-104.18
-112.93
-118.24
-119.53
-116.57
-109.60
-99.31
-86.68
-72.58
-57.69
-42.53
-27.67
-13.87
-2.06
6.92
12.66
15.33
15.51
13.95
11.14
7.25
2.26
-3.69
-9.98
-15.56
-19.26
-20.32
-18.84
-15.73
-12.45
-10.36
-10.22
-11.97
-14.95
-18.23
-21.11
-23.39
-25.29
-27.17
-29.20
-31.13
-32.47
-32.74
-31.81
-30.07
-28.21
-26.86
-26.16
-25.70
-24.73
-22.62
-19.29
-15.32
-11.63
-9.08
-7.97
-7.97
-8.30
-8.13
-6.99
-4.86
-2.13
0.66
3.10
5.10
6.78
8.39
10.07
11.69
12.83
13.01
11.86
9.42
6.12
2.83
0.44
-0.38
0.52
2.74
5.57
8.31
10.48
11.98
12.90
13.32
13.16
12.24
10.48
8.07
5.47
3.24
1.70
0.72
-0.20
-1.68
-3.97
-6.75
-9.20
-10.37
-9.70
-7.33
-4.08
-1.07
0.77
1.15
0.37
-0.88
-2.04
-3.00
-4.05
-5.67
-8.06
-10.93
-13.61
-15.36
-15.79
-15.11
-14.09
-13.66
-14.57
-17.01
-20.60
-24.53
-27.94
-30.28
-31.49
-31.96
-32.30
-33.06
-34.47
-36.43
-38.64
-40.87
-43.05
-45.19
-47.06
-48.03
-47.14
-43.41
-36.46
-26.78
-15.65
-4.60
5.30
13.83
21.46
28.85
36.19
43.03
48.45
51.64
52.33
50.93
48.19
44.79
41.01
36.66
31.48
25.48
19.22
13.73
10.14
9.19
10.93
14.63
19.08
23.10
25.96
27.51
28.09
28.15
27.96
27.48
26.45
24.69
22.33
19.87
17.93
17.02
17.18
17.88
18.28
17.59
15.45
12.09
8.28
4.88
2.55
1.47
1.41
1.98
2.91
4.23
6.19
9.11
12.97
17.19
20.57
21.53
18.68
11.29
-0.25
-14.57
-29.74
-43.88
-55.69
-64.51
-70.08
-72.20
-70.63
-65.14
-55.95
-43.86
-30.12
-16.07
-2.61
9.99
21.95
33.54
44.62
54.40
61.65
65.08
63.98
58.49
49.69
39.29
29.04
20.26
13.57
9.00
6.47
6.18
8.77
15.05
25.18
38.15
51.64
62.64
68.66
68.67
63.56
55.72
47.95
42.37
39.79
39.65
40.50
40.64
38.68
33.88
26.18
16.27
5.37
-4.98
-13.26
-18.44
-20.31
-19.69
-18.33
-18.44
-21.83
-29.10
-39.11
-49.18
-56.07
-57.26
-51.95
-41.38
-28.13
-14.94
-3.63
5.34
12.46
18.38
23.01
25.33
23.82
17.45
6.46
-7.39
-21.31
-32.56
-39.50
-42.10
-41.74
-40.20
-38.69
-37.27
-35.13
-31.36
-25.90
-19.94
-15.42
-14.18
-16.95
-22.99
-30.40
-36.94
-40.92
-41.61
-39.25
-34.64
-28.71
-22.26
-15.98
-10.53
-6.56
-4.59
-4.82
-7.00
-10.54
-14.71
-18.87
-22.57
-25.53
-27.46
-28.05
-27.03
-24.26
-20.00
-14.86
-9.64
-5.09
-1.66
0.66
2.22
3.53
5.00
6.78
8.79
10.82
12.66
14.29
15.85
17.54
19.52
21.76
24.01
25.85
26.87
26.78
25.47
22.95
19.23
14.30
8.26
1.47
-5.35
-11.21
-15.14
-16.55
-15.39
-12.14
-7.49
-2.13
3.42
8.78
13.63
17.71
20.90
23.36
25.50
27.80
30.53
33.55
36.45
38.76
40.26
41.05
41.46
41.76
41.96
41.84
41.19
40.08
39.00
38.75
40.06
43.23
47.94
53.37
58.56
62.80
65.77
67.48
68.04
67.42
65.51
62.24
57.87
52.98
48.30
44.38
41.31
38.74
36.23
33.60
31.22
29.89
30.39
32.95
37.02
41.33
44.44
45.33
43.93
41.15
38.52
37.54
39.03
42.82
47.76
52.27
55.03
55.67
55.02
54.82
57.01
62.51
70.48
78.14
81.62
77.39
63.59
40.74
11.47
-20.50
-51.44
-78.42
-99.47
-113.51
-120.08
-119.29
-111.79
-98.80
-81.93
-63.18
-45.04
-30.59
-23.40
-26.84
-42.81
-70.82
-107.37
-146.80
-182.68
-209.58
-224.31
-226.36
-217.62
-201.84
-183.79
-168.19
-158.26
-154.20
-152.48
-146.66
-129.94
-98.49
-53.95
-3.37
43.27
76.96
92.85
91.24
76.21
52.99
25.93
-2.12
-28.86
-51.37
-65.87
-68.91
-59.33
-39.96
-17.46
-0.26
4.74
-4.81
-25.81
-51.17
-73.14
-86.68
-90.96
-88.57
-82.97
-75.98
-66.90
-53.56
-34.61
-11.26
12.53
31.73
42.38
43.30
36.26
24.84
12.77
2.63
-4.58
-8.87
-10.46
-9.27
-4.90
2.63
12.27
21.66
27.78
27.94
20.94
7.50
-9.98
-28.23
-44.14
-55.75
-62.61
-65.85
-67.57
-70.11
-75.14
-83.18
-93.62
-105.16
-116.59
-127.22
-136.90
-145.59
-152.71
-156.98
-156.50
-149.35
-134.26
-110.86
-79.64
-41.69
1.49
47.88
94.73
138.36
174.37
198.43
207.48
201.06
181.93
155.67
129.08
108.00
95.35
90.56
90.39
90.80
88.96
84.26
78.07
72.50
69.00
67.55
66.89
65.41
62.07
56.70
49.72
41.42
31.65
19.95
6.18
-8.88
-23.37
-34.73
-40.59
-39.70
-32.49
-21.05
-8.34
2.81
10.75
15.50
18.55
22.04
27.80
36.46
47.24
58.38
67.88
74.36
77.45
77.82
76.71
75.39
74.71
74.95
75.90
77.11
78.19
78.94
79.28
79.26
78.94
78.63
78.90
80.49
83.77
88.10
91.46
90.60
82.01
63.18
33.79
-3.89
-45.45
-85.67
-119.88
-145.10
-160.43
-166.67
-165.61
-159.14
-148.78
-135.45
-119.73
-102.32
-84.43
-67.83
-54.47
-45.73
-41.69
-40.79
-40.23
-36.89
-28.56
-14.81
2.89
21.75
38.60
50.83
57.11
57.92
55.86
55.62
63.11
83.76
120.27
171.01
229.92
288.27
337.56
372.10
390.17
393.31
384.74
367.75
345.19
319.73
294.20
271.53
253.92
241.87
233.91
227.10
218.24
205.08
186.88
164.26
138.54
110.87
81.78
51.14
18.41
-16.83
-54.51
-93.91
-133.80
-172.65
-209.10
-242.38
-272.52
-300.66
-329.19
-361.26
-399.60
-444.77
-493.71
-539.58
-573.50
-587.47
-577.43
-544.66
-495.13
-437.22
-379.21
-327.83
-287.92
-262.49
-252.42
-255.60
-266.37
-276.26
-276.25
-259.75
-224.55
-173.08
-110.77
-44.08
20.98
79.46
127.39
161.92
181.86
188.34
184.72
175.55
164.77
154.35
143.92
131.76
116.23
97.18
76.24
56.20
39.70
28.26
21.88
19.44
19.47
20.78
22.69
24.68
26.04
26.05
24.42
21.84
19.90
20.15
22.86
26.36
27.56
23.80
14.74
3.25
-5.76
-7.81
-1.33
11.39
25.38
35.72
39.95
39.03
36.27
35.17
37.56
43.04
49.68
55.49
59.50
61.97
63.77
65.63
67.72
69.75
71.42
72.76
74.12
75.84
77.88
79.68
80.25
78.58
74.02
66.55
56.85
46.15
35.86
27.16
20.64
16.18
13.15
10.73
8.32
5.77
3.24
1.02
-0.71
-1.92
-2.67
-2.93
-2.52
-1.25
0.80
3.06
4.62
4.66
2.87
-0.40
-4.60
-9.65
-16.24
-25.46
-37.62
-51.15
-62.45
-67.11
-61.98
-47.06
-25.89
-4.18
12.67
21.70
23.23
20.05
15.62
12.48
11.50
12.20
13.54
14.65
15.16
14.95
13.77
11.08
6.30
-0.49
-8.06
-13.98
-15.40
-10.43
0.60
14.65
26.80
32.22
28.22
15.63
-1.43
-17.24
-26.73
-27.32
-19.53
-6.30
8.59
21.95
31.94
38.01
40.33
39.18
34.80
27.61
18.61
9.47
2.09
-2.19
-3.29
-2.51
-1.91
-3.26
-7.05
-12.29
-17.29
-20.75
-22.60
-23.91
-25.87
-28.63
-30.76
-29.95
-24.42
-14.37
-2.31
7.95
13.10
11.97
5.99
-1.66
-7.58
-9.68
-7.81
-3.38
1.55
5.27
6.90
6.36
4.07
0.72
-2.75
-5.03
-4.56
0.05
9.35
22.46
36.94
49.37
56.52
56.49
49.34
36.98
22.26
7.91
-4.28
-13.54
-19.87
-23.49
-24.59
-23.41
-20.59
-17.37
-15.26
-15.58
-18.81
-24.28
-30.43
-35.31
-37.23
-35.27
-29.55
-21.13
-11.72
-3.07
3.48
7.27
8.18
6.20
1.25
-6.68
-16.93
-27.68
-35.97
-38.69
-33.93
-22.12
-6.13
9.86
22.06
28.45
29.26
26.26
21.63
17.01
13.19
10.22
7.85
5.77
3.76
1.62
-0.88
-3.90
-7.53
-11.70
-16.04
-19.80
-21.89
-21.12
-16.73
-8.85
1.22
11.26
18.98
22.93
23.15
21.12
19.03
18.80
21.17
25.54
30.37
33.98
35.32
34.38
32.03
29.53
27.94
27.74
28.84
30.88
33.61
36.95
40.83
44.80
47.91
49.02
47.37
43.11
37.19
30.75
24.23
17.03
7.92
-3.99
-18.37
-33.35
-46.23
-54.56
-57.24
-54.81
-49.03
-42.04
-35.47
-30.08
-25.75
-21.95
-18.01
-13.51
-8.36
-2.75
2.87
8.03
12.42
16.00
19.01
21.73
24.31
26.53
27.83
27.56
25.22
20.79
14.79
8.07
1.55
-4.08
-8.54
-11.95
-14.69
-17.21
-19.88
-22.76
-25.57
-27.61
-28.03
-26.09
-21.56
-14.85
-6.96
0.96
8.00
13.81
18.68
23.16
27.72
32.36
36.57
39.54
40.63
39.55
36.37
31.22
24.07
14.88
4.12
-6.73
-15.28
-18.99
-16.50
-8.52
2.20
12.04
18.12
19.59
17.66
14.65
12.61
12.35
13.51
15.26
17.21
19.61
23.04
27.72
33.09
37.99
41.46
43.41
44.83
47.37
52.43
60.38
70.19
79.81
86.97
89.98
88.28
82.36
73.47
63.14
52.80
43.56
36.05
30.38
26.47
24.32
24.18
26.19
29.68
32.73
32.53
26.44
13.44
-5.29
-26.91
-48.53
-68.79
-88.25
-108.13
-128.38
-146.44
-157.94
-158.99
-148.48
-128.96
-105.09
-81.17
-59.03
-37.90
-15.98
7.46
30.92
51.19
65.15
71.44
71.21
67.31
62.94
60.40
60.72
63.96
69.71
77.37
85.96
93.90
99.04
99.16
92.80
79.81
61.37
39.45
15.85
-8.42
-33.16
-58.42
-83.84
-108.09
-128.97
-143.81
-150.09
-146.04
-131.25
-106.91
-76.12
-43.42
-13.94
7.97
19.87
21.72
15.42
3.80
-10.34
-24.82
-38.04
-48.54
-54.98
-56.51
-53.56
-48.46
-45.18
-47.92
-58.99
-77.12
-97.34
-112.79
-117.63
-109.43
-89.82
-63.04
-33.60
-4.57
22.58
46.86
66.54
79.11
82.47
76.50
63.55
47.53
32.00
18.79
7.86
-1.48
-9.20
-14.19
-14.89
-10.76
-3.07
5.34
11.36
12.84
9.01
-0.14
-14.63
-34.68
-59.90
-88.18
-115.14
-135.00
-142.70
-136.18
-117.48
-92.10
-66.80
-47.10
-35.51
-31.34
-31.70
-33.15
-33.11
-30.57
-26.09
-21.13
-17.34
-15.72
-16.37
-18.58
-21.18
-22.86
-22.47
-19.23
-13.05
-4.75
3.80
10.03
11.47
6.50
-5.10
-22.09
-42.08
-61.84
-77.61
-85.60
-82.74
-67.73
-41.91
-9.28
24.59
54.35
76.50
90.14
96.46
97.52
95.19
90.64
84.63
77.94
71.62
66.76
64.01
63.15
63.14
62.43
59.63
54.14
46.37
37.76
30.28
25.82
25.65
30.05
38.26
48.74
59.60
69.04
75.79
79.39
80.26
79.38
77.83
76.10
73.79
69.76
62.75
52.33
39.45
26.35
15.78
9.78
8.95
12.21
17.54
22.75
26.16
26.67
23.42
15.57
2.34
-16.35
-39.22
-63.51
-85.75
-103.10
-114.66
-121.76
-127.13
-133.14
-140.28
-146.51
-148.09
-141.39
-124.70
-99.18
-68.49
-37.26
-9.42
12.97
29.81
42.20
51.36
57.93
61.84
62.85
61.08
57.43
53.17
49.32
46.02
42.59
38.06
31.98
24.96
18.59
14.66
14.24
17.02
21.32
24.68
24.66
19.69
9.55
-4.62
-20.53
-35.37
-46.54
-52.35
-52.41
-47.64
-39.82
-30.94
-22.59
-15.70
-10.59
-7.11
-4.82
-3.10
-1.09
2.11
7.10
13.81
21.28
27.77
31.26
30.21
24.21
14.35
2.90
-7.50
-14.76
-18.03
-17.69
-14.85
-10.65
-5.66
0.14
6.96
14.63
22.32
28.74
32.79
34.25
33.99
33.58
34.42
36.87
40.02
42.19
42.08
39.68
36.60
35.33
37.99
45.31
56.31
68.74
79.89
87.03
87.58
79.33
60.97
33.06
-1.19
-36.26
-65.83
-85.15
-92.79
-90.96
-83.95
-75.79
-68.48
-61.63
-53.70
-43.68
-32.14
-21.10
-12.87
-8.79
-8.69
-11.23
-14.85
-18.64
-22.53
-26.92
-31.95
-37.04
-40.85
-41.73
-38.39
-30.48
-18.88
-5.67
6.34
14.33
16.39
12.17
2.93
-8.94
-20.95
-31.28
-39.05
-43.95
-45.65
-43.51
-36.93
-25.98
-11.98
2.66
15.31
24.27
29.42
32.07
34.04
36.55
39.59
41.99
42.15
38.94
32.40
23.81
15.14
8.15
3.54
0.67
-2.15
-6.72
-14.18
-24.45
-36.30
-47.73
-56.51
-60.64
-58.79
-50.85
-38.24
-23.90
-11.61
-4.62
-4.40
-10.03
-18.71
-27.21
-33.31
-36.46
-37.38
-37.02
-35.80
-33.53
-30.17
-26.59
-24.65
-26.50
-33.33
-44.51
-57.55
-69.07
-76.33
-78.37
-76.48
-73.61
-73.26
-78.08
-88.83
-103.82
-119.06
-129.16
-128.90
-114.93
-87.10
-48.62
-5.08
37.47
74.37
103.45
124.76
139.56
149.03
153.71
153.74
149.51
142.16
133.38
124.69
116.72
109.06
100.70
90.93
80.05
69.26
60.12
53.60
49.49
46.44
42.78
37.41
30.42
23.12
17.54
15.52
17.97
24.35
32.75
40.48
44.89
44.36
38.81
29.68
19.23
9.67
2.42
-2.12
-4.25
-4.51
-3.35
-1.15
1.52
3.79
4.66
3.47
0.30
-3.97
-8.04
-10.75
-11.58
-10.79
-9.19
-7.70
-7.03
-7.46
-8.89
-10.83
-12.59
-13.42
-12.79
-10.75
-8.00
-5.79
-5.31
-7.06
-10.44
-13.92
-15.66
-14.46
-10.31
-4.39
1.61
6.33
9.30
10.93
11.98
12.88
13.40
12.78
10.35
6.12
1.12
-2.93
-4.29
-1.99
3.74
11.53
19.50
26.06
30.42
32.73
33.86
34.97
37.15
41.15
47.25
54.91
62.65
68.13
68.70
62.55
49.61
31.96
13.18
-3.14
-14.87
-22.08
-26.65
-30.90
-36.21
-42.42
-48.13
-51.88
-53.11
-52.45
-51.27
-50.85
-51.67
-53.29
-54.76
-55.12
-53.83
-50.84
-46.43
-40.93
-34.47
-26.99
-18.44
-9.13
-0.00
7.35
11.12
10.10
4.37
-4.52
-14.01
-21.47
-24.99
-23.88
-18.44
-9.62
1.44
13.48
25.17
35.15
42.33
46.21
47.09
45.84
43.42
40.48
37.10
33.04
28.04
22.06
15.37
8.48
2.02
-3.41
-7.42
-9.96
-11.36
-12.26
-13.25
-14.58
-16.09
-17.38
-18.07
-18.09
-17.63
-16.95
-16.20
-15.39
-14.58
-13.99
-14.01
-14.87
-16.27
-17.34
-16.90
-14.05
-8.68
-1.55
6.02
12.67
17.46
19.98
20.20
18.25
14.23
8.31
0.92
-6.97
-13.93
-18.37
-19.17
-16.25
-10.86
-5.19
-1.57
-1.43
-4.63
-9.53
-13.63
-14.70
-11.57
-4.60
4.65
13.96
21.20
24.92
24.61
20.82
15.04
9.30
5.61
5.35
8.79
15.13
22.75
30.01
35.71
39.43
41.38
41.96
41.37
39.45
35.83
30.27
22.92
14.44
5.83
-1.80
-7.57
-10.93
-11.86
-10.79
-8.52
-6.06
-4.42
-4.39
-6.39
-10.32
-15.58
-21.07
-25.42
-27.44
-26.49
-22.77
-17.30
-11.49
-6.46
-2.58
0.75
4.73
10.56
18.88
29.51
41.55
53.80
65.14
74.75
82.18
87.28
90.05
90.64
89.35
86.70
83.37
80.03
77.13
74.60
71.80
67.68
61.23
51.86
39.58
24.74
7.66
-11.58
-32.94
-55.96
-79.28
-100.69
-117.71
-128.56
-132.78
-131.28
-125.57
-116.90
-105.68
-91.62
-74.54
-55.14
-35.20
-17.06
-2.74
6.98
12.80
16.41
19.67
23.78
28.93
34.46
39.38
42.85
44.43
44.00
41.57
37.10
30.52
21.83
11.28
-0.54
-12.83
-24.70
-35.47
-44.80
-52.72
-59.36
-64.63
-68.05
-68.78
-66.13
-60.04
-51.42
-41.99
-33.73
-28.06
-25.31
-24.74
-25.01
-24.83
-23.55
-21.10
-17.72
-13.57
-8.56
-2.56
4.31
11.38
17.56
21.61
22.66
20.52
15.77
9.58
3.38
-1.50
-4.10
-3.95
-1.25
3.16
7.86
11.24
12.01
9.86
5.82
2.06
1.06
4.35
11.74
21.15
29.53
34.27
34.37
30.81
25.90
22.01
20.53
21.38
23.47
25.40
26.08
24.89
21.51
15.80
7.84
-1.75
-11.80
-20.77
-27.35
-30.82
-31.32
-29.61
-26.79
-23.95
-21.99
-21.53
-22.69
-24.94
-27.12
-27.81
-26.07
-21.99
-16.81
-12.21
-9.43
-8.57
-8.62
-8.34
-7.05
-5.17
-3.84
-4.05
-5.91
-8.52
-10.41
-10.47
-8.49
-5.24
-1.93
0.38
1.28
1.03
0.21
-0.61
-1.16
-1.35
-1.18
-0.46
1.18
4.03
7.80
11.38
13.09
11.33
5.49
-3.67
-14.25
-24.01
-31.31
-35.55
-37.01
-36.24
-33.47
-28.66
-21.76
-13.23
-4.14
4.21
10.87
15.63
18.96
21.48
23.46
24.65
24.49
22.61
19.12
14.75
10.43
6.88
4.31
2.39
0.51
-1.91
-5.14
-8.99
-12.80
-15.65
-16.52
-14.70
-10.05
-3.26
4.26
10.81
14.99
16.22
14.87
12.05
9.05
6.83
5.73
5.57
5.92
6.43
6.99
7.64
8.34
8.81
8.56
7.15
4.51
1.19
-1.79
-3.29
-2.62
0.24
4.60
9.50
14.05
17.68
20.09
21.16
20.92
19.72
18.26
17.47
18.13
20.37
23.52
26.44
28.11
28.32
27.80
27.83
29.44
32.85
37.31
41.56
44.60
46.17
46.87
47.67
49.34
51.98
55.06
57.79
59.68
60.85
61.94
63.62
66.14
68.96
70.91
70.64
67.10
59.93
49.47
36.56
22.34
7.97
-5.46
-17.09
-26.36
-33.07
-37.49
-40.20
-42.00
-43.65
-45.62
-47.85
-49.68
-49.92
-47.26
-40.80
-30.58
-17.68
-3.95
8.72
19.09
26.94
32.92
38.08
43.25
48.74
54.37
59.68
64.26
67.92
70.67
72.67
74.18
75.49
76.88
78.51
80.43
82.49
84.30
85.20
84.19
80.02
71.40
57.52
38.45
15.53
-8.75
-31.27
-49.05
-60.05
-63.54
-60.06
-51.14
-39.02
-26.38
-16.20
-11.40
-14.13
-25.06
-42.80
-64.07
-84.44
-99.73
-107.30
-106.76
-99.97
-89.99
-79.95
-72.07
-67.31
-65.73
-67.05
-71.05
-77.60
-86.26
-95.92
-104.79
-111.06
-113.86
-113.83
-112.88
-113.08
-115.08
-117.40
-116.85
-110.25
-96.36
-76.87
-55.92
-38.21
-27.07
-23.28
-25.43
-31.14
-38.49
-46.53
-54.95
-63.19
-70.04
-73.83
-73.47
-69.28
-63.18
-58.10
-56.74
-60.42
-68.51
-78.64
-87.46
-91.71
-89.22
-79.50
-63.86
-45.03
-26.32
-10.62
0.39
6.65
9.33
10.19
10.74
11.72
13.14
14.71
16.25
17.91
19.99
22.70
25.92
29.23
32.15
34.42
36.05
37.26
38.29
39.23
39.98
40.31
39.97
38.89
37.31
35.85
35.40
36.84
40.59
46.26
52.67
58.30
62.01
63.69
64.33
65.47
68.36
73.19
78.97
83.99
86.57
85.68
81.14
73.41
63.23
51.32
38.29
24.69
11.13
-1.75
-13.21
-22.52
-28.98
-32.04
-31.43
-27.26
-20.18
-11.38
-2.45
4.88
9.11
9.37
5.69
-0.96
-8.91
-16.32
-21.64
-23.99
-23.16
-19.47
-13.51
-6.16
1.42
7.77
11.37
11.03
6.42
-1.70
-11.64
-21.21
-28.41
-31.94
-31.44
-27.43
-20.94
-13.20
-5.30
1.89
7.73
11.79
13.90
14.21
13.15
11.25
8.97
6.50
3.79
0.76
-2.43
-5.24
-6.86
-6.59
-4.21
-0.13
4.85
10.01
14.96
19.72
24.28
28.26
30.72
30.46
26.71
19.64
10.55
1.45
-5.65
-9.48
-9.89
-7.64
-3.92
0.18
4.00
7.23
9.72
11.27
11.55
10.27
7.33
2.98
-2.27
-7.76
-12.93
-17.39
-20.92
-23.45
-24.92
-25.34
-24.87
-23.80
-22.48
-21.18
-19.91
-18.46
-16.44
-13.55
-9.75
-5.28
-0.59
3.86
7.70
10.69
12.76
13.90
14.20
13.82
13.02
12.14
11.48
11.23
11.44
12.07
12.98
14.08
15.28
16.49
17.52
18.15
18.14
17.36
15.84
13.77
11.40
8.94
6.57
4.33
2.30
0.60
-0.66
-1.48
-2.03
-2.68
-3.79
-5.50
-7.59
-9.51
-10.59
-10.33
-8.66
-5.98
-2.97
-0.35
1.42
2.28
2.41
2.14
1.69
1.11
0.32
-0.86
-2.52
-4.57
-6.79
-8.82
-10.30
-11.05
-11.07
-10.58
-9.92
-9.37
-9.13
-9.16
-9.29
-9.29
-9.01
-8.36
-7.37
-6.11
-4.67
-3.13
-1.62
-0.32
0.64
1.12
1.12
0.72
0.11
-0.53
-1.06
-1.42
-1.59
-1.58
-1.36
-0.86
-0.08
0.97
2.21
3.54
4.87
6.13
7.25
8.18
8.80
8.99
8.69
7.96
7.05
6.28
5.97
6.30
7.18
8.40
9.65
10.74
11.63
12.41
13.16
13.85
14.34
14.41
13.91
12.90
11.58
10.27
9.23
8.62
8.52
8.95
9.89
11.28
12.92
14.44
15.37
15.35
14.18
12.00
9.11
5.93
2.80
0.03
-2.16
-3.50
-3.84
-3.18
-1.78
-0.13
1.21
1.81
1.52
0.50
-0.90
-2.35
-3.62
-4.64
-5.46
-6.17
-6.83
-7.52
-8.33
-9.34
-10.58
-11.93
-13.11
-13.75
-13.47
-12.08
-9.61
-6.35
-2.73
0.86
4.15
7.05
9.55
11.64
13.27
14.29
14.60
14.17
13.14
11.77
10.36
9.15
8.28
7.77
7.54
7.50
7.52
7.46
7.14
6.35
4.98
3.06
0.82
-1.39
-3.20
-4.43
-5.12
-5.60
-6.29
-7.53
-9.44
-11.86
-14.39
-16.51
-17.80
-17.97
-17.00
-15.05
-12.39
-9.33
-6.11
-2.93
0.08
2.75
4.95
6.53
7.44
7.73
7.50
6.92
6.15
5.30
4.44
3.61
2.82
2.07
1.38
0.79
0.31
-0.04
-0.32
-0.63
-1.04
-1.63
-2.33
-3.06
-3.73
-4.31
-4.92
-5.73
-6.87
-8.36
-10.06
-11.73
-13.09
-13.93
-14.05
-13.34
-11.73
-9.26
-6.10
-2.59
0.85
3.81
5.98
7.20
7.53
7.19
6.51
5.86
5.52
5.62
6.10
6.74
7.29
7.59
7.62
7.51
7.37
7.23
6.96
6.38
5.40
4.15
2.90
1.98
1.58
1.62
1.81
1.77
1.28
0.33
-0.87
-2.04
-2.91
-3.37
-3.42
-3.03
-2.15
-0.68
1.43
4.04
6.77
9.11
10.60
11.00
10.47
9.39
8.23
7.26
6.51
5.75
4.72
3.30
1.62
0.00
-1.23
-1.93
-2.20
-2.33
-2.69
-3.57
-5.13
-7.44
-10.51
-14.29
-18.60
-23.03
-26.98
-29.82
-31.16
-31.07
-30.18
-29.38
-29.49
-30.80
-32.96
-35.01
-35.69
-33.90
-29.09
-21.49
-12.07
-2.30
6.27
12.52
16.01
16.99
16.20
14.40
12.24
10.08
8.22
7.00
6.85
8.09
10.70
14.26
18.08
21.51
24.15
25.98
27.17
27.90
28.21
27.99
27.13
25.64
23.72
21.67
19.76
18.08
16.57
14.96
12.96
10.35
7.09
3.40
-0.23
-3.21
-4.91
-4.96
-3.33
-0.36
3.31
6.91
9.78
11.43
11.63
10.39
7.95
4.74
1.31
-1.73
-3.81
-4.55
-3.92
-2.24
-0.00
2.26
4.21
5.71
6.78
7.44
7.56
6.92
5.26
2.52
-1.08
-5.01
-8.56
-11.08
-12.22
-12.06
-11.07
-9.93
-9.31
-9.76
-11.53
-14.64
-18.88
-23.91
-29.15
-33.90
-37.33
-38.78
-37.92
-34.97
-30.61
-25.78
-21.31
-17.59
-14.46
-11.35
-7.53
-2.48
3.92
11.30
18.99
26.25
32.42
37.06
39.97
41.15
40.75
39.12
36.70
33.95
31.23
28.71
26.30
23.80
20.92
17.51
13.50
9.01
4.26
-0.44
-4.79
-8.55
-11.66
-14.29
-16.70
-19.16
-21.72
-24.12
-25.86
-26.41
-25.47
-23.13
-19.90
-16.54
-13.84
-12.39
-12.51
-14.25
-17.42
-21.60
-26.12
-30.13
-32.78
-33.54
-32.51
-30.49
-28.80
-28.66
-30.65
-34.26
-37.95
-39.65
-37.45
-30.17
-17.71
-0.99
18.28
37.95
55.77
69.67
78.08
80.27
76.53
68.19
57.33
46.31
37.15
31.07
28.28
28.06
29.10
29.96
29.47
27.10
23.05
18.05
13.09
9.05
6.37
5.02
4.60
4.66
4.79
4.68
4.01
2.38
-0.53
-4.82
-10.11
-15.55
-20.04
-22.62
-22.77
-20.54
-16.40
-11.03
-5.10
0.74
5.91
9.95
12.55
13.65
13.38
11.95
9.55
6.34
2.57
-1.31
-4.62
-6.61
-6.71
-4.75
-0.98
4.05
9.67
15.23
20.09
23.70
25.57
25.46
23.44
19.93
15.60
11.12
7.03
3.64
1.09
-0.58
-1.40
-1.43
-0.86
0.04
0.98
1.69
2.06
2.09
1.84
1.41
0.86
0.20
-0.59
-1.56
-2.73
-4.08
-5.53
-6.86
-7.78
-7.97
-7.30
-5.83
-3.93
-2.03
-0.49
0.66
1.68
2.99
4.93
7.52
10.47
13.30
15.54
16.90
17.34
17.02
16.15
14.96
13.57
12.05
10.42
8.72
7.01
5.43
4.12
3.14
2.52
2.20
2.07
2.08
2.17
2.31
2.37
2.20
1.60
0.42
-1.35
-3.51
-5.70
-7.43
-8.21
-7.67
-5.71
-2.57
1.21
4.93
7.94
9.80
10.40
9.91
8.62
6.85
4.84
2.79
0.87
-0.76
-1.97
-2.67
-2.90
-2.71
-2.20
-1.47
-0.65
0.07
0.52
0.54
0.13
-0.58
-1.38
-2.06
-2.60
-3.16
-4.00
-5.31
-7.13
-9.22
-11.29
-13.03
-14.24
-14.80
-14.69
-13.91
-12.58
-10.92
-9.27
-7.95
-7.17
-6.90
-6.99
-7.20
-7.37
-7.44
-7.43
-7.37
-7.29
-7.22
-7.22
-7.36
-7.67
-8.12
-8.55
-8.78
-8.68
-8.29
-7.78
-7.43
-7.45
-7.96
-8.87
-9.93
-10.86
-11.36
-11.33
-10.82
-10.05
-9.29
-8.75
-8.46
-8.26
-7.90
-7.11
-5.78
-3.92
-1.71
0.61
2.86
4.90
6.64
7.99
8.82
9.00
8.45
7.25
5.63
3.93
2.45
1.36
0.64
0.20
-0.10
-0.26
-0.18
0.26
1.14
2.36
3.69
4.80
5.39
5.28
4.48
3.24
1.89
0.78
0.12
-0.09
-0.01
0.15
0.29
0.51
1.06
2.20
4.10
6.68
9.64
12.55
14.97
16.58
17.29
17.17
16.43
15.33
13.98
12.43
10.69
8.80
6.96
5.47
4.58
4.33
4.51
4.71
4.61
4.06
3.18
2.26
1.52
1.03
0.64
0.18
-0.46
-1.22
-1.95
-2.54
-3.06
-3.75
-4.92
-6.70
-8.95
-11.19
-12.79
-13.22
-12.29
-10.21
-7.45
-4.57
-2.03
-0.07
1.19
1.69
1.38
0.26
-1.56
-3.83
-6.20
-8.29
-9.89
-10.86
-11.22
-11.00
-10.27
-9.18
-7.90
-6.71
-5.85
-5.47
-5.55
-5.92
-6.41
-6.93
-7.57
-8.50
-9.83
-11.42
-12.86
-13.61
-13.25
-11.75
-9.50
-7.16
-5.31
-4.24
-3.78
-3.50
-2.88
-1.62
0.33
2.82
5.68
8.75
11.90
14.93
17.47
19.14
19.61
18.85
17.21
15.33
13.93
13.55
14.40
16.27
18.71
21.15
23.08
24.11
23.94
22.40
19.50
15.47
10.94
6.80
3.94
2.91
3.67
5.58
7.72
9.34
10.15
10.35
10.33
10.38
10.46
10.33
9.79
8.90
7.99
7.46
7.50
8.02
8.69
9.31
9.91
10.84
12.55
15.40
19.42
24.37
29.79
35.16
40.02
44.06
47.09
49.09
50.22
50.83
51.32
52.08
53.31
54.97
56.84
58.62
60.07
61.20
62.23
63.43
64.98
66.67
67.94
67.93
65.73
60.52
51.70
38.91
22.08
1.61
-21.42
-45.17
-67.20
-84.80
-95.60
-98.05
-91.63
-76.89
-55.24
-28.85
-0.49
26.58
49.05
64.12
70.23
67.59
58.26
45.59
33.20
23.88
18.73
17.01
16.61
15.02
10.30
1.71
-10.25
-24.28
-38.86
-52.82
-65.52
-76.87
-87.14
-96.87
-106.75
-117.44
-129.36
-142.50
-156.16
-169.07
-179.52
-185.85
-186.82
-182.00
-171.90
-158.03
-142.72
-128.73
-118.85
-115.32
-119.24
-130.20
-146.28
-164.50
-181.69
-195.41
-204.49
-209.05
-209.99
-208.32
-204.66
-199.17
-191.76
-182.50
-171.85
-160.68
-149.95
-140.46
-132.54
-126.10
-120.74
-115.94
-111.13
-105.68
-98.75
-89.35
-76.46
-59.42
-38.26
-13.80
12.56
39.37
65.47
90.29
113.60
135.21
154.76
171.91
186.58
199.13
210.17
220.13
228.77
235.11
237.84
236.03
229.80
220.45
210.02
200.43
192.67
186.42
180.35
172.85
162.85
150.26
135.81
120.60
105.51
91.13
77.91
66.60
58.36
54.43
55.37
60.43
67.43
73.37
75.54
72.58
64.87
54.23
43.05
33.33
26.25
22.05
20.45
20.96
23.12
26.53
30.77
35.29
39.44
42.45
43.54
42.06
37.71
30.76
22.20
13.54
6.40
1.98
0.62
1.76
4.27
6.87
8.65
9.22
8.71
7.50
5.99
4.52
3.26
2.24
1.37
0.50
-0.64
-2.26
-4.54
-7.59
-11.47
-16.07
-21.02
-25.54
-28.53
-28.96
-26.38
-21.33
-15.30
-10.20
-7.44
-7.27
-8.58
-9.43
-7.99
-3.37
4.01
12.83
21.56
29.22
35.62
41.18
46.46
51.77
57.09
62.34
67.63
73.44
80.38
88.88
98.85
109.61
120.10
129.23
136.46
142.09
147.19
153.24
161.40
171.87
183.57
194.37
201.84
204.05
200.12
190.26
175.24
155.83
132.53
105.50
74.83
40.63
3.37
-35.90
-75.03
-110.55
-138.03
-153.28
-153.94
-140.84
-118.12
-92.00
-68.73
-52.54
-44.68
-43.91
-47.63
-53.15
-58.27
-61.28
-60.80
-56.02
-47.25
-36.35
-26.52
-21.26
-22.98
-32.01
-46.64
-64.10
-81.78
-98.05
-112.25
-124.01
-132.75
-137.60
-137.82
-133.32
-124.81
-113.58
-100.97
-88.21
-76.43
-66.95
-61.29
-60.70
-65.53
-74.86
-86.77
-99.10
-110.40
-120.40
-129.75
-139.23
-149.07
-158.66
-166.91
-172.92
-176.43
-177.87
-177.97
-177.39
-176.53
-175.76
-175.63
-176.91
-180.27
-185.71
-192.26
-198.08
-201.09
-199.75
-193.64
-183.57
-171.13
-158.06
-145.54
-134.01
-123.11
-112.01
-99.63
-84.82
-66.43
-43.66
-16.51
13.67
44.10
71.17
91.72
104.36
110.14
112.07
113.69
117.55
124.38
133.45
143.52
153.91
164.71
176.24
188.24
199.38
207.67
211.35
209.81
203.92
195.65
187.18
180.05
174.76
170.97
167.93
165.05
162.18
159.46
157.06
154.87
152.43
149.18
144.85
139.72
134.62
130.61
128.57
128.82
131.16
134.97
139.66
144.80
150.27
156.23
163.01
170.97
180.35
190.98
202.09
212.13
218.95
220.29
214.53
201.24
181.52
157.65
132.34
107.91
85.65
65.70
47.41
29.99
12.98
-3.59
-19.50
-34.65
-49.41
-64.63
-81.33
-100.48
-122.74
-148.46
-177.49
-209.00
-241.09
-270.92
-295.26
-311.64
-319.44
-320.37
-318.07
-316.80
-319.89
-328.67
-342.30
-358.34
-373.82
-385.95
-392.63
-392.41
-384.43
-368.58
-345.55
-316.95
-285.15
-252.87
-222.70
-196.58
-175.42
-158.97
-146.09
-135.22
-125.14
-115.42
-106.41
-98.83
-92.91
-87.88
-81.94
-73.01
-59.73
-42.43
-23.20
-5.27
8.11
14.78
14.14
7.06
-4.81
-19.55
-35.37
-50.69
-64.11
-74.48
-81.02
-83.40
-81.74
-76.37
-67.58
-55.41
-39.80
-20.99
0.11
21.84
42.11
59.06
71.72
80.32
86.13
90.84
95.96
102.33
110.17
119.20
129.10
139.55
150.22
160.62
170.07
177.81
183.36
186.77
188.70
190.28
192.59
196.26
201.20
206.71
211.82
215.81
218.46
220.13
221.51
223.17
225.25
227.41
228.98
229.45
228.68
227.12
225.57
224.96
225.97
228.87
233.46
239.12
244.91
249.71
252.50
252.60
250.00
245.31
239.41
232.87
225.40
215.76
202.24
183.47
159.07
130.01
98.22
65.93
34.94
6.22
-20.01
-43.94
-65.68
-85.20
-102.39
-117.34
-130.51
-142.62
-154.40
-166.37
-178.74
-191.35
-203.73
-215.05
-224.11
-229.38
-229.31
-222.81
-209.75
-191.21
-169.22
-146.22
-124.40
-105.32
-89.81
-78.22
-70.50
-66.25
-64.68
-64.64
-64.84
-64.27
-62.41
-59.35
-55.50
-51.31
-46.97
-42.43
-37.57
-32.38
-27.13
-22.25
-18.20
-15.34
-13.89
-14.09
-16.25
-20.66
-27.40
-36.07
-45.76
-55.34
-63.81
-70.63
-75.83
-79.64
-82.16
-83.12
-82.09
-78.83
-73.66
-67.57
-62.04
-58.52
-58.11
-61.26
-67.58
-75.60
-82.68
-85.42
-80.76
-67.23
-46.03
-20.88
3.25
22.14
33.88
39.22
40.61
40.52
40.27
39.79
38.36
35.71
32.42
29.61
28.15
27.96
27.99
26.89
23.72
18.54
12.39
6.78
3.02
1.69
2.50
4.48
6.45
7.42
6.85
4.70
1.33
-2.74
-7.02
-11.18
-15.08
-18.71
-22.03
-24.94
-27.23
-28.76
-29.46
-29.49
-29.07
-28.36
-27.39
-26.04
-24.14
-21.63
-18.59
-15.14
-11.38
-7.27
-2.75
2.03
6.63
10.33
12.41
12.50
10.85
8.21
5.61
3.88
3.53
4.56
6.75
9.74
13.27
17.13
21.13
25.02
28.44
31.01
32.43
32.61
31.73
30.25
28.68
27.39
26.50
25.76
24.80
23.31
21.25
18.92
16.75
15.09
14.01
13.28
12.52
11.53
10.33
9.26
8.63
8.59
8.91
9.00
8.20
6.00
2.34
-2.40
-7.45
-11.94
-15.17
-16.79
-16.82
-15.54
-13.37
-10.73
-8.04
-5.65
-3.88
-3.00
-3.13
-4.29
-6.31
-8.92
-11.79
-14.63
-17.19
-19.23
-20.58
-21.08
-20.65
-19.34
-17.33
-14.89
-12.36
-10.06
-8.16
-6.73
-5.66
-4.88
-4.32
-4.08
-4.34
-5.25
-6.84
-8.93
-11.17
-13.14
-14.51
-15.18
-15.19
-14.65
-13.59
-11.93
-9.59
-6.61
-3.30
-0.24
1.91
2.63
1.70
-0.66
-3.85
-7.06
-9.45
-10.22
-8.90
-5.34
0.13
6.74
13.50
19.34
23.44
25.29
24.77
22.07
17.71
12.37
6.86
1.97
-1.68
-3.77
-4.28
-3.53
-2.01
-0.34
0.94
1.37
0.78
-0.64
-2.41
-3.85
-4.33
-3.55
-1.72
0.48
2.13
2.48
1.16
-1.59
-5.08
-8.47
-11.07
-12.64
-13.48
-14.37
-16.30
-19.91
-25.05
-30.56
-34.49
-34.78
-29.99
-19.92
-5.64
10.82
27.08
40.94
50.80
55.79
55.93
51.98
45.37
37.79
30.75
25.23
21.48
19.23
17.96
17.14
16.31
15.04
12.97
9.99
6.35
2.73
-0.03
-1.22
-0.59
1.64
4.90
8.57
12.12
15.20
17.53
18.96
19.41
18.97
17.93
16.69
15.60
14.89
14.57
14.54
14.61
14.68
14.71
14.71
14.75
14.93
15.28
15.74
16.15
16.28
15.94
15.14
14.08
13.10
12.49
12.34
12.53
12.78
12.89
12.80
12.60
12.40
12.17
11.75
10.93
9.69
8.32
7.40
7.57
9.19
12.21
16.05
19.90
23.01
25.02
25.98
26.23
26.12
25.79
25.10
23.77
21.65
18.84
15.64
12.42
9.38
6.44
3.33
-0.20
-4.23
-8.56
-12.81
-16.59
-19.66
-22.01
-23.80
-25.26
-26.59
-27.95
-29.33
-30.70
-31.88
-32.70
-32.96
-32.40
-30.69
-27.29
-21.63
-13.26
-2.09
11.62
27.28
44.26
61.95
79.76
96.80
111.68
122.67
128.18
127.41
120.81
109.94
96.90
83.58
71.05
59.56
48.88
38.77
29.31
20.89
14.03
9.14
6.29
5.27
5.59
6.60
7.62
8.10
7.71
6.50
4.71
2.71
0.88
-0.57
-1.48
-1.76
-1.30
-0.01
2.10
4.84
7.86
10.66
12.71
13.60
12.90
10.23
5.21
-2.40
-12.41
-23.85
-34.62
-41.80
-42.25
-33.66
-15.69
9.46
37.25
62.01
78.58
83.91
77.86
62.94
43.11
22.17
2.33
-16.36
-35.76
-58.46
-86.38
-119.74
-156.68
-193.96
-228.24
-257.24
-280.41
-298.69
-313.85
-327.71
-341.57
-356.01
-370.68
-384.39
-394.89
-399.23
-394.52
-378.79
-351.70
-314.63
-269.85
-219.50
-164.86
-106.79
-47.22
9.45
56.21
85.17
90.82
73.03
38.25
-2.19
-35.97
-54.02
-53.12
-35.55
-6.54
28.83
67.47
108.05
149.48
189.59
225.00
252.47
270.49
280.13
284.53
287.33
290.96
295.65
299.76
300.90
297.35
288.92
277.02
264.06
252.50
244.02
238.94
236.15
233.36
227.78
216.83
199.01
174.37
144.68
112.80
81.86
54.19
30.70
10.88
-6.54
-22.72
-37.92
-51.42
-62.08
-69.04
-72.32
-72.75
-71.42
-68.91
-65.02
-58.99
-50.30
-39.39
-27.81
-17.71
-10.86
-7.81
-7.69
-8.68
-8.87
-7.04
-2.89
3.15
10.36
18.01
25.50
32.22
37.63
41.42
43.69
45.03
46.32
48.36
51.56
55.93
61.11
66.65
72.20
77.56
82.68
87.65
92.60
97.71
103.02
108.40
113.53
117.98
121.33
123.26
123.55
121.98
118.45
113.20
106.99
101.02
96.37
93.22
90.25
84.69
73.26
53.23
23.49
-15.18
-60.14
-107.14
-150.59
-184.07
-201.41
-198.50
-175.01
-135.35
-87.90
-42.71
-8.50
9.70
11.29
-0.79
-21.74
-46.61
-71.15
-92.12
-107.26
-115.32
-116.27
-111.28
-102.43
-92.21
-82.85
-75.86
-71.75
-70.13
-69.94
-69.87
-68.70
-65.73
-60.95
-55.03
-49.04
-44.08
-40.85
-39.49
-39.61
-40.55
-41.75
-42.97
-44.26
-45.87
-47.95
-50.47
-53.15
-55.66
-57.76
-59.41
-60.76
-61.96
-63.12
-64.22
-65.11
-65.65
-65.75
-65.41
-64.76
-64.02
-63.56
-63.82
-65.20
-67.99
-72.21
-77.59
-83.56
-89.51
-95.01
-100.08
-105.20
-111.06
-118.12
-126.12
-134.04
-140.28
-143.31
-142.14
-136.65
-127.28
-114.72
-99.30
-80.91
-59.08
-33.35
-3.70
29.34
64.44
99.58
132.10
159.03
177.61
186.15
184.52
174.26
157.97
138.40
117.61
96.74
76.28
56.61
38.42
22.65
10.03
0.66
-6.19
-11.84
-17.77
-25.24
-35.13
-47.93
-63.81
-82.67
-104.07
-127.36
-151.75
-176.52
-200.91
-224.02
-244.76
-261.90
-274.57
-282.51
-286.22
-286.67
-284.78
-280.86
-274.54
-264.94
-251.20
-232.78
-209.70
-182.48
-152.02
-119.61
-86.76
-54.94
-25.04
2.97
29.89
56.73
83.98
111.30
137.55
161.56
182.64
200.96
217.29
232.54
247.36
261.96
276.23
289.81
302.20
312.57
319.72
322.24
318.81
308.85
292.78
272.03
248.73
225.11
202.77
182.16
162.32
141.36
117.38
89.31
57.83
25.43
-4.27
-27.71
-42.71
-49.37
-50.37
-50.11
-52.90
-60.78
-72.30
-82.93
-87.27
-81.92
-67.34
-47.73
-28.57
-13.72
-3.43
5.21
15.87
30.32
47.19
62.89
73.99
79.41
80.98
82.21
86.07
93.46
103.23
112.97
120.73
126.07
130.19
135.05
142.16
151.61
161.88
170.61
175.76
176.64
174.41
171.56
170.62
173.03
178.40
184.56
188.75
188.96
184.55
176.05
164.60
151.61
139.10
130.05
128.13
136.37
155.15
180.94
206.72
224.39
227.89
215.56
190.26
157.43
122.22
87.58
53.86
20.10
-14.51
-49.68
-83.98
-115.57
-142.87
-165.09
-182.75
-197.43
-211.10
-225.51
-241.20
-257.10
-271.03
-281.03
-286.74
-290.10
-294.82
-304.82
-322.25
-346.12
-372.19
-394.26
-406.36
-404.56
-387.95
-358.36
-319.36
-275.10
-229.58
-186.21
-147.68
-115.55
-89.64
-67.64
-45.96
-21.31
6.87
34.71
54.28
56.89
37.55
-1.59
-50.88
-96.49
-125.71
-131.70
-115.35
-83.53
-45.29
-8.28
23.07
47.36
64.96
76.94
84.74
90.28
95.79
103.12
113.10
125.03
137.22
147.88
155.82
160.41
161.02
156.49
144.88
124.14
93.38
53.87
9.47
-33.92
-69.86
-93.37
-102.58
-99.42
-88.59
-75.58
-64.33
-55.75
-47.87
-37.53
-22.47
-2.74
19.22
40.03
56.98
69.10
76.97
81.53
83.06
80.94
74.29
63.06
48.69
33.99
21.96
14.60
11.99
12.42
13.14
11.64
6.58
-1.81
-12.02
-21.88
-29.36
-32.99
-32.08
-26.55
-16.94
-3.93
11.71
28.96
46.34
62.08
74.65
83.48
89.36
94.06
99.97
109.07
122.01
137.75
153.94
168.04
178.27
183.92
184.51
180.21
171.82
160.83
149.20
138.86
131.08
125.86
121.50
113.65
98.62
75.34
45.69
13.14
-18.88
-47.49
-70.36
-85.92
-95.99
-101.34
-100.81
-92.49
-76.62
-56.80
-38.75
-27.61
-27.19
-43.44
-77.68
-125.42
-178.56
-230.26
-277.83
-321.42
-361.09
-396.99
-434.12
-473.99
-512.96
-544.62
-565.18
-576.21
-582.34
-587.31
-551.25
-454.39
-308.69
-150.57
-12.24
92.62
163.90
202.86
223.51
235.31
237.68
229.74
213.88
195.67
182.58
177.67
181.21
192.70
209.02
221.51
223.56
213.85
196.37
176.76
159.01
145.17
136.14
130.35
122.95
111.15
95.99
81.73
72.57
69.88
72.43
77.76
82.44
82.59
76.54
65.13
50.78
35.88
21.99
10.89
5.14
6.86
16.07
30.14
44.05
52.16
50.71
39.72
23.29
7.63
-2.46
-6.20
-7.32
-12.05
-25.76
-49.93
-81.14
-112.41
-136.14
-147.28
-145.01
-132.64
-115.68
-99.38
-86.90
-78.79
-73.83
-70.40
-67.42
-64.73
-62.43
-60.23
-57.13
-51.89
-43.83
-33.61
-23.23
-15.41
-12.36
-14.63
-20.60
-26.92
-29.78
-26.43
-16.21
-0.64
17.52
35.41
50.95
62.85
70.12
71.60
66.01
52.67
32.44
8.27
-15.35
-33.80
-43.94
-45.15
-39.19
-29.17
-18.07
-7.74
1.39
9.73
17.83
25.76
32.92
38.41
41.47
41.85
39.68
35.44
29.80
23.73
18.58
15.82
16.59
20.91
27.38
33.55
36.91
36.19
32.16
27.39
24.98
27.21
34.43
45.24
57.37
68.87
78.70
86.68
92.77
96.71
98.05
96.57
92.84
88.36
84.88
83.52
84.08
84.96
83.84
78.78
69.08
55.56
40.29
25.84
14.51
7.82
6.13
8.73
14.03
19.96
24.44
25.89
23.52
17.51
8.92
-0.66
-9.44
-15.92
-19.14
-18.85
-15.44
-9.73
-2.77
4.41
10.88
15.88
18.93
19.84
18.82
16.43
13.43
10.46
7.91
5.81
3.98
2.27
0.77
-0.17
-0.14
1.19
3.94
7.92
12.71
17.56
21.42
22.98
21.03
14.90
4.88
-7.75
-21.06
-33.12
-42.53
-48.68
-51.55
-51.36
-48.48
-43.48
-37.35
-31.42
-27.04
-24.97
-25.12
-26.62
-28.32
-29.43
-29.81
-29.85
-30.05
-30.59
-31.27
-31.69
-31.46
-30.32
-28.11
-24.57
-19.44
-12.59
-4.34
4.43
12.44
18.45
21.58
21.49
18.33
12.59
4.89
-4.00
-13.26
-21.99
-29.41
-34.90
-38.05
-38.55
-36.10
-30.47
-21.65
-10.10
3.12
16.46
28.23
37.12
42.41
44.25
43.54
41.66
40.14
40.14
41.99
44.78
46.37
43.84
34.55
17.37
-6.46
-33.27
-58.12
-76.42
-85.62
-85.91
-79.81
-70.81
-61.88
-54.59
-49.19
-45.27
-42.63
-41.60
-42.78
-46.25
-51.01
-54.98
-55.70
-51.33
-41.68
-28.42
-14.41
-2.50
5.69
10.27
12.62
14.38
16.51
18.80
20.23
19.76
17.14
13.10
9.03
6.24
5.38
6.22
7.86
9.33
10.12
10.37
10.76
12.15
15.23
20.19
26.72
34.03
40.98
46.28
48.69
47.27
41.77
32.84
21.94
10.95
1.47
-5.66
-10.43
-13.37
-15.02
-15.56
-14.72
-12.20
-8.06
-2.94
1.95
5.32
6.42
5.41
3.38
1.87
2.20
4.80
9.12
13.85
17.57
19.40
19.29
17.87
16.03
14.44
13.35
12.70
12.41
12.52
13.24
14.71
16.79
19.00
20.77
21.66
21.63
21.06
20.61
20.87
22.07
23.90
25.52
25.76
23.53
18.18
9.77
-0.89
-12.45
-23.44
-32.69
-39.64
-44.47
-47.90
-50.92
-54.41
-58.80
-63.97
-69.36
-74.20
-77.69
-79.30
-78.80
-76.44
-73.00
-69.69
-67.93
-68.83
-72.75
-79.07
-86.26
-92.55
-96.55
-97.89
-97.34
-96.59
-97.52
-101.49
-108.59
-117.41
-125.22
-128.79
-125.42
-113.71
-93.92
-67.75
-37.94
-7.62
20.19
43.14
59.99
70.82
76.86
79.79
80.63
78.98
72.99
60.43
40.16
13.19
-17.34
-47.18
-72.59
-91.53
-103.83
-110.65
-113.52
-113.69
-111.99
-109.18
-106.34
-104.94
-106.45
-111.43
-119.02
-126.83
-131.65
-130.61
-122.15
-106.56
-85.56
-61.35
-35.54
-8.78
18.93
47.54
76.30
103.85
128.89
151.02
171.10
190.82
211.77
234.62
258.68
282.19
302.94
319.02
329.28
333.37
331.68
325.16
315.14
303.16
290.50
277.79
264.67
249.85
231.64
208.72
180.82
148.96
115.28
82.45
53.01
28.98
11.65
1.63
-1.15
2.46
10.61
20.54
28.96
32.86
30.40
21.40
7.33
-9.23
-25.43
-38.85
-47.91
-52.03
-51.64
-48.04
-43.22
-39.30
-37.89
-39.49
-43.26
-47.40
-50.01
-49.88
-46.99
-42.36
-37.47
-33.62
-31.71
-32.18
-35.31
-41.24
-49.82
-60.31
-71.25
-80.75
-87.01
-88.92
-86.43
-80.43
-72.37
-63.67
-55.44
-48.30
-42.56
-38.31
-35.64
-34.46
-34.42
-34.80
-34.55
-32.64
-28.30
-21.33
-12.18
-1.97
7.76
15.41
19.77
20.51
18.40
15.15
12.79
12.95
16.19
21.80
28.28
34.05
38.17
40.62
42.11
43.57
45.76
49.19
54.19
61.10
70.19
81.30
93.56
105.33
114.60
119.76
120.23
116.63
110.42
103.06
95.35
87.08
77.25
64.67
48.39
27.98
3.62
-23.85
-52.70
-80.11
-102.29
-115.25
-116.03
-104.08
-81.85
-54.47
-28.34
-9.14
-0.22
-1.89
-11.77
-25.98
-40.59
-52.77
-61.35
-66.62
-69.84
-72.51
-75.73
-79.89
-84.78
-90.04
-95.44
-101.09
-107.17
-113.50
-119.30
-123.29
-124.08
-120.75
-113.26
-102.45
-89.70
-76.29
-62.86
-49.10
-33.95
-16.13
5.16
29.92
57.20
85.40
112.67
137.20
157.29
171.38
178.18
177.01
168.21
153.40
135.24
116.82
100.67
88.04
78.57
70.69
62.39
52.18
39.74
26.08
13.16
3.17
-2.25
-2.46
1.98
9.41
17.51
23.74
25.95
23.07
15.60
5.75
-3.18
-7.93
-6.74
-0.27
8.27
14.20
12.98
1.94
-18.67
-45.67
-74.11
-98.80
-115.78
-123.11
-120.70
-109.63
-91.57
-68.60
-43.39
-19.31
0.01
11.55
14.02
8.45
-2.18
-13.99
-23.55
-28.64
-28.45
-23.11
-13.38
-0.54
13.36
25.41
32.30
31.26
21.11
2.74
-21.25
-47.57
-73.31
-96.46
-115.77
-130.24
-138.93
-141.18
-137.20
-128.63
-118.33
-109.47
-104.14
-102.17
-100.71
-94.99
-80.00
-52.64
-13.39
33.25
79.86
118.43
142.77
150.27
141.99
121.52
93.37
61.65
29.69
0.26
-24.05
-40.95
-49.02
-48.35
-40.75
-29.25
-17.12
-6.84
0.54
5.33
8.66
11.78
15.44
19.68
23.99
27.76
30.64
32.85
35.19
38.67
43.99
51.09
58.90
65.64
69.54
69.58
65.94
59.74
52.22
43.97
34.50
22.75
8.10
-8.71
-25.37
-38.73
-45.98
-45.81
-38.81
-27.12
-13.62
-1.07
8.46
13.88
15.12
13.08
9.36
5.79
3.89
4.36
6.98
10.82
14.73
17.89
20.18
22.16
24.90
29.58
36.99
47.04
58.39
68.55
74.30
72.73
62.14
42.75
16.59
-13.27
-43.83
-73.11
-100.51
-126.35
-151.09
-174.46
-195.13
-210.94
-219.50
-218.93
-208.47
-188.82
-162.25
-132.33
-103.34
-79.19
-62.44
-53.66
-51.61
-54.12
-58.98
-64.50
-69.14
-71.04
-67.70
-56.57
-36.32
-7.91
25.17
57.99
86.07
107.01
121.08
130.47
137.66
143.94
148.75
150.22
146.35
136.24
120.50
100.92
79.45
57.30
34.69
11.33
-12.66
-35.99
-56.33
-71.02
-78.12
-77.19
-69.23
-56.05
-39.37
-20.27
0.71
23.03
45.47
65.91
81.67
90.38
90.87
83.79
71.41
56.79
42.86
31.56
23.71
19.35
18.31
20.50
25.89
34.05
43.78
53.43
61.56
67.96
74.10
82.68
96.19
115.07
136.69
155.78
166.18
163.30
145.79
115.70
77.02
33.70
-11.64
-57.65
-103.08
-145.52
-181.12
-205.73
-216.51
-213.37
-199.10
-178.31
-155.88
-135.56
-119.51
-108.47
-102.24
-100.15
-101.23
-104.23
-107.73
-110.35
-111.05
-109.42
-105.77
-101.05
-96.44
-92.94
-90.95
-90.04
-89.14
-86.86
-82.05
-74.13
-63.15
-49.68
-34.70
-19.44
-5.34
5.96
12.96
14.65
11.05
3.30
-6.46
-15.82
-22.85
-26.81
-28.24
-28.65
-29.74
-32.58
-37.02
-41.70
-44.50
-43.23
-36.44
-23.71
-5.76
15.80
38.64
59.87
76.38
85.35
85.25
76.56
62.16
46.63
34.92
30.55
34.47
45.14
59.77
75.98
92.94
111.21
131.56
153.57
175.02
192.38
202.48
204.04
198.40
188.81
178.83
170.51
163.66
156.40
146.55
133.24
117.41
101.25
86.84
75.04
65.11
55.38
44.42
31.98
19.25
8.20
0.51
-3.27
-3.91
-2.86
-1.24
0.75
3.85
8.99
16.24
24.31
30.76
32.99
29.58
20.90
9.00
-3.32
-13.65
-20.91
-25.24
-27.47
-28.46
-28.61
-27.91
-26.21
-23.46
-19.77
-15.36
-10.49
-5.51
-0.97
2.41
3.94
3.21
0.14
-5.28
-13.32
-24.44
-38.89
-56.01
-73.73
-88.77
-97.72
-98.45
-91.16
-78.37
-63.82
-50.88
-41.39
-35.29
-31.38
-28.35
-25.31
-21.79
-17.11
-9.91
1.69
19.08
41.81
66.81
88.88
102.48
104.05
93.51
74.08
50.71
27.82
7.80
-9.16
-24.07
-37.78
-50.24
-60.69
-68.41
-73.28
-75.83
-76.73
-76.37
-74.66
-71.39
-66.57
-60.57
-53.98
-47.32
-40.96
-35.18
-30.30
-26.78
-24.90
-24.41
-24.47
-23.91
-21.80
-17.94
-13.06
-8.51
-5.60
-5.00
-6.46
-8.98
-11.25
-12.21
-11.47
-9.48
-7.33
-6.25
-6.95
-9.24
-11.98
-13.69
-13.33
-11.00
-7.96
-6.07
-6.80
-10.52
-16.40
-22.93
-28.85
-33.61
-37.40
-40.71
-43.70
-45.99
-46.89
-45.78
-42.52
-37.45
-31.22
-24.48
-17.77
-11.50
-6.14
-2.22
-0.22
-0.41
-2.62
-6.28
-10.48
-14.25
-16.70
-17.20
-15.38
-11.20
-5.07
2.01
8.47
12.39
12.23
7.53
-0.63
-9.85
-17.17
-20.24
-18.21
-11.88
-3.23
5.49
12.57
17.13
18.95
18.18
15.07
10.01
3.66
-3.02
-8.97
-13.45
-16.28
-17.82
-18.72
-19.48
-20.34
-21.31
-22.53
-24.44
-27.76
-33.26
-41.27
-51.39
-62.32
-72.10
-78.40
-79.19
-73.36
-61.24
-44.91
-27.84
-13.96
-6.41
-6.38
-12.76
-22.70
-32.84
-40.46
-44.26
-44.25
-41.08
-35.48
-27.92
-18.73
-8.36
2.46
12.93
22.52
31.14
39.02
46.28
52.56
56.91
58.29
56.24
51.40
45.54
40.84
38.95
40.20
43.50
46.88
48.40
46.98
42.70
36.59
30.01
24.09
19.52
16.60
15.41
15.97
18.14
21.36
24.67
26.80
26.72
24.12
19.69
14.93
11.61
11.13
14.02
19.75
27.08
34.50
40.67
44.69
46.21
45.29
42.32
37.90
32.75
27.69
23.52
20.86
19.97
20.59
22.00
23.27
23.60
22.67
20.71
18.40
16.45
15.29
14.89
14.76
14.26
12.98
10.89
8.34
5.84
3.78
2.28
1.19
0.37
-0.26
-0.63
-0.74
-0.72
-0.85
-1.36
-2.19
-2.97
-3.07
-1.97
0.52
4.23
8.72
13.58
18.44
22.98
26.78
29.39
30.49
30.07
28.43
26.07
23.45
20.85
18.36
16.14
14.41
13.46
13.38
13.91
14.39
13.99
12.15
8.89
4.85
1.06
-1.57
-2.67
-2.60
-2.28
-2.70
-4.34
-6.85
-9.11
-9.88
-8.56
-5.70
-2.89
-2.02
-4.20
-9.03
-14.70
-18.74
-19.29
-16.04
-10.29
-4.30
-0.10
1.37
0.64
-0.84
-1.57
-0.87
0.77
2.06
1.77
-0.52
-3.97
-6.85
-7.42
-4.83
0.38
6.58
11.91
15.23
16.64
17.27
18.44
20.79
23.79
26.03
25.96
22.78
16.86
9.61
2.76
-2.40
-5.59
-7.36
-8.56
-9.77
-10.90
-11.37
-10.59
-8.42
-5.25
-1.86
1.05
3.13
4.43
5.25
5.88
6.58
7.51
8.73
10.23
11.78
12.99
13.43
12.85
11.36
9.41
7.52
6.06
5.04
4.14
2.91
0.95
-1.88
-5.47
-9.43
-13.19
-16.21
-18.14
-18.93
-18.88
-18.59
-18.72
-19.78
-21.89
-24.75
-27.69
-29.84
-30.37
-28.71
-24.80
-19.11
-12.67
-6.75
-2.52
-0.66
-1.09
-2.99
-5.07
-6.08
-5.24
-2.48
1.63
6.20
10.44
13.91
16.52
18.30
19.18
18.85
16.95
13.43
8.82
4.21
0.77
-0.85
-0.91
-0.43
-0.69
-2.56
-6.08
-10.65
-15.45
-20.02
-24.40
-28.75
-32.88
-35.97
-36.82
-34.59
-29.51
-23.03
-17.34
-14.47
-15.45
-19.94
-26.48
-33.17
-38.36
-41.03
-40.86
-38.05
-33.14
-26.94
-20.45
-14.65
-10.29
-7.60
-6.22
-5.43
-4.54
-3.21
-1.53
0.22
1.79
3.18
4.59
6.16
7.77
9.04
9.62
9.37
8.60
7.92
7.95
8.97
10.74
12.71
14.28
15.22
15.80
16.64
18.38
21.25
24.82
28.24
30.57
31.22
30.14
27.73
24.51
20.94
17.33
13.95
11.18
9.50
9.23
10.28
12.03
13.39
13.23
10.73
5.67
-1.57
-10.14
-19.00
-27.15
-33.77
-38.30
-40.42
-39.96
-36.87
-31.27
-23.58
-14.57
-5.36
2.80
8.73
11.65
11.33
8.20
3.30
-1.87
-5.87
-7.66
-7.06
-4.76
-1.94
0.35
1.73
2.60
3.80
5.99
9.17
12.50
14.62
14.18
10.35
2.99
-7.24
-19.04
-30.69
-40.41
-46.84
-49.48
-48.72
-45.55
-41.04
-35.77
-29.71
-22.69
-14.82
-6.88
0.01
4.92
7.70
9.04
10.03
11.34
12.71
13.01
11.01
6.28
-0.21
-6.27
-9.40
-8.03
-2.39
5.51
12.81
17.07
17.40
14.73
11.17
8.88
9.00
11.24
14.24
16.47
17.02
15.95
14.03
12.17
10.89
10.10
9.34
8.20
6.65
5.04
3.86
3.29
3.05
2.48
0.90
-1.84
-5.24
-8.44
-10.74
-12.15
-13.38
-15.43
-18.96
-23.83
-29.14
-33.78
-36.94
-38.50
-38.79
-38.27
-37.14
-35.28
-32.47
-28.67
-24.17
-19.60
-15.62
-12.80
-11.37
-11.24
-11.93
-12.67
-12.64
-11.32
-8.79
-5.79
-3.45
-2.62
-3.44
-5.12
-6.34
-5.94
-3.57
0.19
4.07
6.79
7.67
6.88
5.18
3.48
2.26
1.40
0.44
-1.12
-3.39
-6.00
-8.32
-9.68
-9.60
-7.73
-3.79
2.48
11.18
21.85
33.15
43.03
49.23
50.20
45.82
37.46
27.51
18.42
11.80
8.01
6.31
5.49
4.60
3.38
2.23
1.82
2.53
4.13
5.76
6.37
5.33
2.89
0.13
-1.54
-1.24
0.80
3.11
3.73
1.23
-4.36
-11.35
-17.05
-18.98
-15.99
-8.71
0.77
9.88
16.56
19.91
20.26
18.75
16.69
14.93
13.72
12.70
11.24
8.86
5.53
1.75
-1.58
-3.56
-3.67
-1.97
0.85
3.80
5.85
6.31
4.94
2.05
-1.70
-5.57
-9.07
-12.10
-14.92
-17.83
-20.90
-23.77
-25.74
-26.16
-24.76
-21.92
-18.47
-15.37
-13.29
-12.35
-12.16
-12.08
-11.56
-10.37
-8.60
-6.66
-5.04
-4.16
-4.33
-5.59
-7.70
-10.18
-12.33
-13.39
-12.78
-10.31
-6.27
-1.43
3.19
6.65
8.39
8.27
6.58
3.70
-0.01
-4.32
-8.92
-13.35
-16.92
-18.91
-18.91
-17.10
-14.28
-11.59
-9.94
-9.56
-9.92
-9.90
-8.40
-4.93
0.06
5.28
9.17
10.62
9.48
6.73
4.06
3.20
5.21
10.04
16.56
22.95
27.37
28.56
26.25
21.12
14.46
7.58
1.42
-3.61
-7.48
-10.22
-11.63
-11.37
-9.20
-5.43
-0.97
2.92
5.19
5.51
4.42
3.09
2.75
4.19
7.42
11.69
15.74
18.18
18.04
15.05
9.80
3.47
-2.55
-7.18
-10.01
-11.21
-11.35
-10.92
-10.19
-9.20
-8.05
-6.98
-6.40
-6.65
-7.73
-9.33
-10.99
-12.41
-13.60
-14.78
-16.04
-17.19
-17.79
-17.48
-16.36
-15.11
-14.70
-15.79
-18.32
-21.44
-23.99
-25.06
-24.40
-22.35
-19.54
-16.34
-12.80
-8.78
-4.39
-0.17
3.05
4.57
4.36
3.32
3.01
5.13
10.71
19.52
29.84
38.96
44.20
44.24
40.13
35.29
34.40
41.40
57.45
79.96
103.27
120.50
125.99
117.04
94.41
61.73
24.67
-10.33
-37.31
-52.30
-54.87
-49.25
-43.68
-48.05
-69.86
-110.55
-164.12
-218.86
-261.52
-282.14
-277.23
-250.29
-209.82
-165.82
-126.47
-96.09
-74.97
-60.81
-50.91
-43.73
-39.16
-37.34
-36.69
-32.99
-20.51
4.86
41.98
82.91
115.37
128.01
115.82
82.46
37.95
-6.72
-44.63
-74.94
-100.85
-125.22
-147.27
-162.23
-163.99
-148.80
-117.54
-75.25
-28.86
15.58
54.38
86.21
111.28
130.36
144.25
153.70
159.56
162.82
164.70
166.57
169.75
175.02
181.95
188.29
190.38
184.53
168.98
145.43
118.90
95.87
81.42
77.14
80.62
87.14
92.22
93.61
91.67
88.12
84.28
80.08
74.34
66.12
55.96
46.08
39.40
38.07
42.39
50.87
61.12
71.10
79.83
87.39
94.20
100.35
105.20
107.58
106.27
100.48
90.12
75.92
59.29
42.13
26.63
14.74
7.56
4.80
4.67
4.33
0.99
-7.01
-19.43
-34.33
-48.95
-61.00
-69.58
-75.38
-80.17
-86.01
-94.51
-106.64
-122.79
-142.96
-166.72
-192.93
-219.32
-242.49
-258.36
-263.12
-254.52
-232.63
-200.03
-160.96
-119.82
-79.65
-41.15
-2.93
37.11
79.92
124.02
165.28
198.11
217.22
219.37
204.70
176.78
141.88
107.38
79.72
62.74
56.80
59.11
65.03
69.88
70.44
65.62
56.18
43.88
30.37
16.70
3.29
-9.76
-22.18
-33.49
-43.08
-50.54
-55.98
-60.11
-63.90
-68.13
-72.87
-77.34
-80.16
-79.99
-76.22
-69.29
-60.52
-51.53
-43.59
-37.19
-32.20
-28.44
-26.31
-27.26
-33.52
-47.06
-68.49
-96.10
-125.96
-153.06
-173.08
-183.97
-186.59
-184.06
-180.12
-177.48
-176.83
-177.28
-177.57
-177.42
-177.93
-180.78
-186.77
-194.51
-200.48
-200.29
-190.78
-171.55
-145.22
-116.20
-88.69
-65.03
-45.18
-27.51
-10.13
7.87
26.07
43.24
58.22
70.75
81.69
92.68
105.47
121.45
141.46
165.76
193.89
224.33
254.31
279.98
297.39
303.72
298.47
283.75
263.53
242.14
222.88
207.32
195.39
186.12
178.39
171.26
163.97
155.80
146.16
134.74
121.85
108.43
95.70
84.89
76.67
70.96
67.02
63.80
60.34
56.15
51.34
46.45
42.11
38.75
36.37
34.61
32.97
31.01
28.51
25.48
22.05
18.45
14.91
11.65
8.88
6.71
5.08
3.76
2.42
0.78
-1.24
-3.48
-5.71
-7.74
-9.64
-11.72
-14.35
-17.81
-21.99
-26.45
-30.49
-33.43
-34.87
-34.78
-33.45
-31.32
-28.86
-26.49
-24.60
-23.53
-23.50
-24.46
-25.97
-27.30
-27.67
-26.54
-23.86
-20.08
-15.90
-12.01
-8.82
-6.47
-4.91
-4.05
-3.72
-3.75
-3.88
-3.85
-3.51
-2.87
-2.15
-1.59
-1.38
-1.52
-1.85
-2.12
-2.14
-1.83
-1.29
-0.73
-0.41
-0.60
-1.44
-2.96
-5.00
-7.30
-9.55
-11.41
-12.61
-12.91
-12.20
-10.50
-8.04
-5.22
-2.49
-0.18
1.57
2.86
3.94
4.97
5.98
6.84
7.37
7.41
7.02
6.32
5.48
4.66
3.94
3.39
3.04
2.89
2.86
2.81
2.58
2.07
1.28
0.29
-0.73
-1.62
-2.23
-2.40
-1.98
-0.91
0.67
2.38
3.70
4.19
3.67
2.34
0.68
-0.84
-1.98
-2.79
-3.52
-4.42
-5.51
-6.61
-7.46
-7.87
-7.92
-7.83
-7.88
-8.26
-8.99
-9.90
-10.81
-11.49
-11.83
-11.83
-11.57
-11.17
-10.74
-10.30
-9.80
-9.16
-8.35
-7.43
-6.58
-5.92
-5.44
-5.01
-4.42
-3.55
-2.49
-1.53
-1.02
-1.21
-2.17
-3.72
-5.54
-7.31
-8.70
-9.51
-9.62
-9.01
-7.80
-6.16
-4.34
-2.56
-1.01
0.20
0.99
1.42
1.60
1.75
2.10
2.75
3.68
4.69
5.45
5.69
5.30
4.26
2.69
0.68
-1.67
-4.28
-6.98
-9.50
-11.47
-12.57
-12.59
-11.56
-9.71
-7.41
-5.05
-2.96
-1.39
-0.50
-0.39
-1.13
-2.68
-4.88
-7.43
-9.90
-11.85
-12.89
-12.82
-11.67
-9.70
-7.27
-4.79
-2.56
-0.76
0.54
1.33
1.61
1.43
0.89
0.20
-0.39
-0.66
-0.50
-0.01
0.56
0.92
0.87
0.40
-0.34
-1.12
-1.79
-2.35
-2.90
-3.61
-4.58
-5.82
-7.22
-8.58
-9.69
-10.40
-10.68
-10.61
-10.37
-10.16
-10.16
-10.41
-10.83
-11.25
-11.49
-11.36
-10.76
-9.63
-7.95
-5.80
-3.34
-0.83
1.40
3.05
3.95
4.07
3.58
2.73
1.75
0.79
-0.14
-1.10
-2.19
-3.45
-4.79
-6.08
-7.12
-7.82
-8.14
-8.14
-7.93
-7.60
-7.23
-6.85
-6.47
-6.12
-5.79
-5.39
-4.74
-3.63
-1.93
0.25
2.58
4.53
5.58
5.44
4.17
2.20
0.17
-1.26
-1.70
-1.08
0.34
2.10
3.69
4.75
5.07
4.67
3.70
2.40
1.01
-0.26
-1.28
-1.98
-2.38
-2.51
-2.40
-2.09
-1.58
-0.88
-0.02
0.92
1.89
2.81
3.65
4.38
5.00
5.53
5.99
6.40
6.74
6.99
7.15
7.24
7.35
7.64
8.20
9.10
10.26
11.52
12.68
13.62
14.29
14.79
15.34
16.23
17.82
20.43
24.21
29.06
34.61
40.30
45.57
50.05
53.57
56.19
58.02
59.12
59.51
59.23
58.33
56.94
55.19
53.11
50.68
47.83
44.54
40.92
37.03
32.79
27.90
22.02
14.93
6.90
-1.37
-8.86
-14.53
-17.76
-18.38
-16.73
-13.44
-9.20
-4.61
-0.10
4.12
8.09
12.03
16.25
20.95
26.12
31.41
36.30
40.31
43.07
44.50
44.74
44.00
42.49
40.40
38.00
35.58
33.52
32.03
31.03
29.95
27.93
24.07
17.87
9.39
-0.76
-11.87
-23.38
-35.19
-47.50
-60.49
-74.08
-87.75
-100.67
-111.93
-120.78
-126.77
-129.84
-130.40
-129.24
-127.50
-126.38
-126.73
-128.76
-131.85
-134.85
-136.44
-135.60
-131.94
-125.70
-117.53
-108.26
-98.59
-89.03
-79.87
-71.27
-63.29
-56.01
-49.52
-43.96
-39.39
-35.73
-32.75
-30.15
-27.72
-25.57
-24.07
-23.75
-24.97
-27.70
-31.54
-35.93
-40.47
-45.11
-50.06
-55.60
-61.72
-68.05
-73.93
-78.62
-81.63
-82.73
-81.94
-79.26
-74.55
-67.54
-58.06
-46.32
-33.10
-19.73
-7.63
2.18
9.39
14.50
18.46
22.08
25.71
29.18
32.27
35.29
39.48
46.79
59.15
77.45
100.82
126.44
150.31
168.43
177.99
177.95
168.90
152.45
130.54
105.09
78.00
51.35
27.36
8.06
-5.18
-12.10
-13.59
-11.30
-7.03
-2.20
2.37
6.37
9.79
12.65
14.96
16.75
18.08
19.15
20.16
21.29
22.59
23.93
25.11
25.85
25.99
25.47
24.42
23.05
21.63
20.37
19.34
18.48
17.66
16.70
15.57
14.39
13.49
13.19
13.77
15.20
17.10
18.76
19.41
18.53
16.09
12.63
9.07
6.31
4.90
4.95
6.09
7.75
9.38
10.65
11.51
12.14
12.92
14.27
16.53
19.79
23.81
28.09
32.05
35.29
37.70
39.46
40.88
42.12
43.13
43.68
43.49
42.44
40.56
37.97
34.69
30.67
25.73
19.82
13.06
5.87
-1.13
-7.27
-12.00
-15.03
-16.35
-16.21
-15.00
-13.14
-10.99
-8.71
-6.30
-3.59
-0.41
3.30
7.39
11.55
15.35
18.34
20.10
20.20
18.14
13.34
5.36
-5.76
-19.28
-33.62
-46.70
-56.52
-61.79
-62.22
-58.49
-51.83
-43.62
-35.02
-26.94
-20.10
-15.09
-12.22
-11.38
-11.95
-12.95
-13.32
-12.44
-10.26
-7.33
-4.48
-2.40
-1.32
-0.96
-0.60
0.62
3.42
8.12
14.52
21.88
29.17
35.46
40.26
43.76
46.73
49.97
53.87
57.90
60.70
60.47
55.69
45.76
31.19
13.53
-5.12
-22.63
-37.25
-47.92
-54.32
-56.81
-56.31
-53.92
-50.65
-47.10
-43.34
-39.08
-34.07
-28.37
-22.65
-17.99
-15.37
-15.26
-17.38
-20.76
-24.26
-27.00
-28.46
-28.50
-27.03
-24.02
-19.59
-14.21
-8.75
-4.23
-1.38
-0.36
-0.79
-2.20
-4.51
-8.19
-14.07
-22.79
-34.29
-47.66
-61.41
-73.95
-84.12
-91.31
-95.43
-96.65
-95.24
-91.48
-85.67
-78.18
-69.38
-59.68
-49.49
-39.31
-29.85
-21.91
-16.30
-13.50
-13.60
-16.12
-20.23
-25.03
-29.81
-34.18
-38.01
-41.34
-44.16
-46.49
-48.36
-49.93
-51.51
-53.46
-56.00
-59.00
-61.86
-63.62
-63.29
-60.28
-54.64
-47.12
-38.84
-30.91
-24.13
-18.89
-15.25
-13.06
-11.95
-11.30
-10.28
-7.95
-3.66
2.70
10.62
19.17
27.44
34.85
41.19
46.43
50.41
52.70
52.79
50.41
45.84
39.98
34.07
29.36
26.67
26.31
28.04
31.28
35.38
39.77
43.98
47.53
49.72
49.55
45.93
38.18
26.59
12.64
-1.27
-12.67
-19.92
-22.76
-22.24
-19.98
-17.23
-14.27
-10.41
-4.61
3.79
14.59
26.83
39.24
50.85
61.31
70.71
78.98
85.33
88.14
85.50
76.23
60.72
41.26
21.35
4.50
-6.85
-11.95
-11.44
-6.74
0.51
8.74
16.40
21.94
24.09
22.30
17.14
10.17
3.35
-1.76
-4.57
-5.43
-5.26
-4.89
-4.74
-4.87
-5.22
-5.84
-6.81
-8.12
-9.44
-10.25
-10.04
-8.63
-6.32
-3.74
-1.50
0.16
1.38
2.64
4.34
6.69
9.54
12.54
15.33
17.66
19.47
20.82
21.76
22.33
22.47
22.13
21.29
19.97
18.32
16.56
14.96
13.70
12.76
11.91
10.76
8.92
6.18
2.61
-1.40
-5.36
-8.80
-11.51
-13.53
-15.14
-16.65
-18.21
-19.77
-21.06
-21.74
-21.57
-20.50
-18.73
-16.54
-14.25
-12.08
-10.12
-8.48
-7.29
-6.72
-6.84
-7.60
-8.78
-10.05
-11.19
-12.15
-13.06
-14.14
-15.53
-17.17
-18.68
-19.46
-18.83
-16.30
-11.84
-5.98
0.23
5.60
9.16
10.60
10.26
8.93
7.47
6.42
5.86
5.49
4.84
3.52
1.37
-1.56
-4.96
-8.36
-11.15
-12.76
-12.78
-11.13
-8.12
-4.28
-0.22
3.58
6.86
9.50
11.46
12.68
13.14
12.90
12.15
11.14
10.15
9.39
8.96
8.93
9.31
10.00
10.78
11.35
11.46
11.01
10.16
9.20
8.39
7.77
7.17
6.31
5.02
3.41
1.78
0.44
-0.51
-1.23
-2.07
-3.31
-4.96
-6.74
-8.28
-9.19
-9.31
-8.63
-7.21
-5.07
-2.19
1.38
5.41
9.44
12.86
15.15
16.06
15.72
14.52
12.94
11.33
9.89
8.59
7.34
6.08
4.86
3.87
3.25
3.04
3.01
2.76
1.89
0.29
-1.62
-2.99
-2.90
-0.79
3.23
8.46
13.93
18.96
23.33
27.17
30.59
33.34
34.89
34.73
32.83
29.75
26.49
24.00
22.93
23.44
25.42
28.72
33.20
38.74
45.15
52.17
59.55
67.17
74.98
82.83
90.40
97.16
102.57
106.26
108.14
108.36
107.22
105.07
102.37
99.84
98.32
98.55
100.79
104.48
108.30
110.55
109.68
104.67
95.24
81.72
64.95
46.03
26.34
7.28
-9.89
-24.22
-35.10
-42.13
-45.00
-43.50
-37.76
-28.64
-17.77
-7.30
0.75
5.09
5.54
2.91
-1.26
-4.97
-6.07
-2.66
6.25
20.16
36.91
53.19
65.77
72.63
73.55
69.85
63.54
56.35
49.28
42.66
36.29
29.56
21.35
10.05
-6.14
-28.52
-57.35
-91.57
-129.24
-168.34
-207.62
-247.06
-287.60
-330.19
-374.67
-418.95
-459.12
-490.48
-509.13
-513.27
-503.54
-482.40
-452.89
-417.69
-378.97
-338.80
-299.51
-263.56
-232.61
-206.64
-183.75
-160.89
-135.29
-105.66
-72.59
-37.95
-4.10
26.73
52.49
71.30
81.62
82.86
75.96
63.54
49.26
36.75
28.51
25.43
26.98
31.78
38.27
45.10
51.30
56.36
60.25
63.46
66.78
70.98
76.38
82.69
89.24
95.28
100.31
104.19
107.16
109.80
112.99
117.76
124.99
134.93
146.89
159.26
169.93
177.12
180.08
179.30
176.16
172.26
168.77
166.06
163.86
161.60
158.77
155.01
150.10
143.92
136.54
128.37
120.22
113.10
107.85
104.61
102.55
99.99
94.89
85.68
71.81
54.02
34.14
14.54
-2.55
-15.64
-24.17
-28.53
-29.73
-29.02
-27.42
-25.57
-23.67
-21.66
-19.46
-17.10
-14.79
-12.85
-11.65
-11.56
-12.94
-16.05
-20.89
-26.95
-33.12
-37.88
-39.82
-38.20
-33.37
-26.75
-20.31
-15.92
-14.72
-16.82
-21.47
-27.44
-33.44
-38.45
-41.74
-42.87
-41.63
-38.00
-32.17
-24.65
-16.16
-7.54
0.51
7.53
13.46
18.56
23.14
27.41
31.25
34.33
36.25
36.88
36.52
35.86
35.71
36.56
38.28
40.09
40.84
39.51
35.58
29.17
20.94
11.76
2.47
-6.23
-13.75
-19.60
-23.48
-25.44
-25.99
-26.03
-26.50
-28.03
-30.69
-34.02
-37.33
-40.05
-41.93
-43.01
-43.39
-43.10
-42.05
-40.09
-37.26
-33.78
-30.07
-26.57
-23.57
-21.14
-19.14
-17.35
-15.60
-13.90
-12.37
-11.27
-10.84
-11.22
-12.35
-13.97
-15.73
-17.31
-18.51
-19.22
-19.40
-18.90
-17.50
-15.04
-11.56
-7.48
-3.55
-0.55
0.94
0.74
-0.90
-3.37
-5.91
-7.72
-8.08
-6.46
-2.66
3.07
9.97
16.91
22.67
26.32
27.55
26.66
24.45
21.80
19.44
17.72
16.70
16.22
16.06
16.01
15.89
15.51
14.68
13.25
11.22
8.69
5.92
3.21
0.81
-1.09
-2.38
-2.96
-2.74
-1.65
0.34
3.13
6.51
10.12
13.54
16.38
18.38
19.43
19.60
19.04
17.96
16.57
15.12
13.84
12.94
12.54
12.57
12.78
12.85
12.44
11.46
10.00
8.35
6.83
5.71
5.09
4.92
5.08
5.36
5.50
5.22
4.31
2.67
0.43
-2.13
-4.68
-6.95
-8.88
-10.56
-12.17
-13.83
-15.58
-17.25
-18.60
-19.34
-19.24
-18.17
-16.20
-13.49
-10.36
-7.14
-4.14
-1.51
0.67
2.41
3.67
4.35
4.30
3.46
1.99
0.33
-1.02
-1.58
-1.27
-0.35
0.61
1.08
0.83
0.02
-0.93
-1.52
-1.48
-0.94
-0.31
-0.17
-0.92
-2.71
-5.20
-7.75
-9.65
-10.36
-9.81
-8.38
-6.80
-5.82
-5.85
-6.92
-8.72
-10.76
-12.60
-13.97
-14.67
-14.63
-13.86
-12.52
-10.89
-9.23
-7.51
-5.19
-1.29
5.22
14.80
26.85
39.57
50.43
57.05
58.14
54.01
46.31
37.39
29.23
22.85
18.22
14.68
11.60
8.76
6.46
5.16
5.16
6.39
8.54
11.25
14.37
17.88
21.75
25.71
29.16
31.38
31.82
30.36
27.32
23.25
18.52
13.13
6.76
-1.04
-10.46
-21.36
-33.26
-45.45
-57.07
-67.17
-74.72
-78.90
-79.35
-76.43
-71.20
-65.03
-59.06
-53.77
-48.97
-44.14
-38.88
-33.20
-27.55
-22.49
-18.45
-15.52
-13.48
-11.98
-10.69
-9.43
-8.22
-7.24
-6.75
-6.94
-7.85
-9.28
-10.85
-12.07
-12.41
-11.45
-8.90
-4.83
0.37
5.97
11.15
15.30
18.26
20.34
22.15
24.19
26.56
28.97
30.81
31.53
30.84
28.73
25.45
21.39
16.99
12.74
9.11
6.50
5.14
5.00
5.88
7.43
9.27
11.04
12.43
13.17
13.09
12.15
10.45
8.19
5.56
2.67
-0.44
-3.71
-6.88
-9.52
-11.00
-10.86
-8.90
-5.40
-0.96
3.71
8.10
11.98
15.36
18.27
20.70
22.43
23.22
22.90
21.50
19.21
16.34
13.21
10.10
7.24
4.86
3.09
1.85
0.88
-0.34
-2.30
-5.39
-9.64
-14.74
-20.11
-25.10
-29.17
-31.94
-33.25
-32.98
-31.07
-27.48
-22.40
-16.29
-9.89
-3.95
1.04
4.99
8.13
10.73
12.77
13.89
13.58
11.61
8.34
4.66
1.69
0.33
0.86
3.00
6.11
9.49
12.61
15.20
17.16
18.49
19.18
19.25
18.76
17.81
16.60
15.35
14.26
13.43
12.86
12.46
12.12
11.76
11.34
10.89
10.50
10.28
10.43
11.16
12.69
15.18
18.73
23.37
28.98
35.23
41.43
46.58
49.52
49.29
45.47
38.43
29.15
18.93
8.87
-0.31
-8.32
-15.16
-20.97
-26.00
-30.56
-35.13
-40.11
-45.58
-51.10
-55.77
-58.61
-59.01
-57.17
-54.15
-51.42
-50.32
-51.47
-54.60
-58.75
-62.73
-65.57
-66.85
-66.60
-65.13
-62.74
-59.67
-56.11
-52.26
-48.46
-45.02
-42.13
-39.77
-37.76
-35.89
-34.13
-32.64
-31.67
-31.34
-31.46
-31.63
-31.33
-30.17
-27.99
-24.91
-21.24
-17.37
-13.67
-10.47
-8.01
-6.33
-5.25
-4.36
-3.13
-1.05
2.17
6.60
12.21
18.93
26.72
35.38
44.29
52.38
58.25
60.63
58.98
53.76
46.31
38.32
31.17
25.54
21.44
18.59
16.76
15.93
16.06
16.80
17.40
16.97
14.94
11.43
7.32
3.83
1.98
2.19
4.22
7.48
11.34
15.35
19.28
22.90
25.95
28.18
29.44
29.82
29.66
29.33
29.05
28.76
28.11
26.65
24.07
20.40
16.12
12.09
9.18
7.97
8.44
9.96
11.56
12.33
11.82
10.15
7.91
5.84
4.54
4.31
5.10
6.64
8.47
10.02
10.73
10.19
8.42
5.86
3.35
1.75
1.61
2.94
5.24
7.77
9.91
11.39
12.36
13.17
14.18
15.53
17.13
18.78
20.28
21.48
22.36
22.88
23.06
22.94
22.64
22.40
22.49
23.12
24.19
25.27
25.59
24.30
20.74
14.75
6.83
-1.95
-10.19
-16.50
-19.88
-19.97
-17.12
-12.24
-6.57
-1.30
2.69
4.96
5.51
4.61
2.66
0.08
-2.74
-5.40
-7.56
-8.92
-9.37
-8.97
-7.91
-6.53
-5.12
-3.85
-2.82
-2.01
-1.40
-1.01
-0.84
-0.87
-1.01
-1.03
-0.66
0.30
1.92
4.09
6.44
8.52
9.83
10.01
8.93
6.69
3.64
0.28
-2.84
-5.28
-6.76
-7.24
-6.85
-5.86
-4.63
-3.52
-2.85
-2.85
-3.62
-5.13
-7.22
-9.63
-12.03
-14.06
-15.45
-16.02
-15.73
-14.69
-13.05
-10.99
-8.66
-6.24
-3.95
-2.04
-0.78
-0.30
-0.51
-1.18
-2.02
-2.89
-3.88
-5.22
-7.06
-9.25
-11.37
-12.83
-13.26
-12.65
-11.44
-10.22
-9.43
-9.15
-9.09
-8.82
-8.02
-6.62
-4.79
-2.77
-0.80
0.97
2.37
3.16
3.09
2.05
0.17
-2.09
-4.07
-5.14
-4.89
-3.29
-0.65
2.48
5.54
8.10
9.97
11.17
11.85
12.15
12.10
11.62
10.63
9.19
7.60
6.29
5.67
5.87
6.71
7.76
8.65
9.18
9.34
9.11
8.34
6.72
3.98
0.19
-4.14
-8.28
-11.58
-13.85
-15.37
-16.66
-18.14
-19.80
-21.31
-22.26
-22.47
-22.08
-21.41
-20.66
-19.75
-18.28
-15.72
-11.69
-6.15
0.45
7.35
13.58
18.28
20.92
21.46
20.34
18.37
16.37
14.93
14.19
13.88
13.56
12.85
11.73
10.50
9.66
9.63
10.56
12.20
14.01
15.38
15.91
15.50
14.39
12.93
11.35
9.65
7.65
5.14
2.07
-1.33
-4.66
-7.57
-9.91
-11.78
-13.38
-14.81
-15.89
-16.24
-15.42
-13.20
-9.72
-5.48
-1.14
2.69
5.62
7.55
8.60
9.01
8.95
8.55
7.85
6.89
5.81
4.86
4.30
4.29
4.81
5.63
6.46
7.13
7.57
7.87
8.08
8.06
7.53
6.25
4.25
1.96
0.07
-0.78
-0.36
1.01
2.61
3.54
3.07
0.84
-3.15
-8.56
-14.80
-21.05
-26.25
-29.23
-28.88
-24.56
-16.37
-5.29
6.88
18.06
26.35
30.53
30.29
26.23
19.58
11.94
4.85
-0.45
-3.31
-3.75
-2.39
-0.16
2.13
4.10
6.01
8.49
12.14
17.12
22.96
28.78
33.61
36.75
37.85
36.97
34.39
30.54
26.00
21.47
17.65
15.01
13.57
12.85
12.03
10.29
7.11
2.47
-3.29
-9.69
-16.33
-22.99
-29.56
-35.88
-41.60
-46.17
-48.98
-49.58
-47.91
-44.34
-39.63
-34.66
-30.09
-26.22
-22.96
-20.00
-17.22
-14.79
-13.18
-12.98
-14.53
-17.68
-21.77
-25.78
-28.69
-29.76
-28.76
-25.98
-22.10
-17.95
-14.29
-11.63
-10.30
-10.52
-12.55
-16.71
-23.25
-32.05
-42.38
-52.88
-61.85
-67.76
-69.72
-67.67
-62.28
-54.59
-45.61
-36.14
-26.76
-18.02
-10.44
-4.46
-0.14
2.95
5.73
9.31
14.44
21.11
28.43
34.97
39.25
40.32
38.09
33.26
27.04
20.77
15.76
13.14
13.78
18.07
25.76
35.72
46.23
55.45
62.05
65.68
67.06
67.50
68.32
70.31
73.64
78.03
83.09
88.39
93.40
97.21
98.53
95.96
88.57
76.41
60.75
43.76
27.95
15.33
6.93
2.71
1.87
3.34
6.32
10.45
15.62
21.59
27.47
31.62
32.10
27.44
17.48
3.72
-11.00
-23.54
-31.60
-34.42
-32.91
-28.93
-24.47
-20.94
-18.99
-18.67
-19.80
-22.28
-26.08
-31.22
-37.76
-45.87
-55.93
-68.63
-84.92
-105.52
-130.36
-158.03
-185.77
-210.00
-227.36
-235.81
-235.24
-227.43
-215.21
-201.37
-187.87
-175.64
-164.84
-155.40
-147.41
-141.08
-136.59
-133.83
-132.50
-132.17
-132.39
-132.58
-131.78
-128.51
-120.86
-107.03
-85.93
-57.72
-23.93
12.87
49.79
84.23
114.35
139.07
157.89
170.66
177.45
178.75
175.57
169.45
162.15
155.16
149.14
143.79
138.12
131.03
121.92
111.07
99.37
87.89
77.23
67.32
57.62
47.63
37.48
28.09
20.97
17.47
18.10
22.17
27.97
33.41
36.85
37.61
36.06
33.29
30.55
28.83
28.60
29.75
31.78
33.95
35.52
35.90
34.66
31.62
26.76
20.17
12.09
2.95
-6.67
-16.03
-24.46
-31.42
-36.62
-39.91
-41.16
-40.18
-36.77
-30.93
-23.05
-13.95
-4.81
3.12
8.91
12.19
13.33
13.23
13.00
13.58
15.51
18.85
23.37
28.69
34.34
39.78
44.31
47.18
47.69
45.52
40.87
34.34
26.74
18.76
10.77
2.93
-4.65
-11.63
-17.38
-21.07
-22.00
-19.91
-15.16
-8.80
-2.25
3.03
5.99
6.17
3.71
-0.73
-6.29
-12.04
-17.24
-21.48
-24.72
-27.30
-29.72
-32.41
-35.41
-38.26
-40.05
-39.85
-37.00
-31.50
-23.97
-15.42
-6.93
0.72
7.16
12.47
16.97
21.10
25.20
29.43
33.70
37.75
41.24
43.84
45.42
46.01
45.80
45.03
43.91
42.54
40.93
39.01
36.80
34.29
31.53
28.50
25.10
21.11
16.30
10.56
3.98
-3.06
-10.11
-16.70
-22.57
-27.59
-31.65
-34.42
-35.26
-33.40
-28.28
-19.90
-9.04
2.91
14.33
23.93
31.04
35.66
38.21
39.21
39.00
37.70
35.30
31.91
27.81
23.50
19.47
16.02
13.16
10.66
8.21
5.71
3.37
1.62
0.87
1.28
2.55
4.07
5.21
5.62
5.34
4.74
4.17
3.80
3.49
2.98
2.15
1.20
0.59
0.86
2.29
4.81
8.00
11.24
13.98
15.89
16.95
17.45
17.85
18.53
19.59
20.73
21.39
20.99
19.29
16.61
13.79
11.84
11.56
13.14
16.10
19.50
22.22
23.40
22.68
20.22
16.64
12.71
9.19
6.65
5.32
5.11
5.48
5.41
3.50
-1.72
-11.10
-24.28
-39.30
-53.01
-62.01
-63.95
-58.50
-47.52
-34.26
-22.17
-13.85
-10.52
-12.17
-18.10
-27.26
-38.36
-49.73
-59.41
-65.60
-67.34
-65.09
-60.67
-56.53
-54.63
-55.45
-57.81
-59.42
-58.09
-52.75
-43.99
-33.67
-24.10
-17.02
-13.01
-11.54
-11.36
-11.30
-10.68
-9.47
-8.00
-6.58
-5.21
-3.56
-1.31
1.55
4.58
7.14
8.72
9.39
9.80
10.94
13.62
18.10
23.88
29.96
35.21
38.75
40.19
39.67
37.62
34.63
31.22
27.73
24.26
20.78
17.23
13.69
10.43
7.82
6.18
5.61
5.89
6.63
7.38
7.88
8.11
8.29
8.75
9.78
11.55
14.00
16.84
19.68
22.11
23.88
24.98
25.68
26.29
27.14
28.37
30.06
32.22
34.93
38.25
42.05
45.93
49.19
51.21
51.71
51.05
50.08
49.79
50.76
52.89
55.47
57.57
58.57
58.38
57.35
55.99
54.60
53.05
50.87
47.41
42.06
34.34
24.01
11.02
-4.44
-22.00
-41.07
-60.96
-80.87
-99.92
-117.17
-131.75
-142.96
-150.41
-154.14
-154.48
-151.85
-146.54
-138.61
-128.06
-115.11
-100.38
-84.99
-70.24
-57.28
-46.76
-38.71
-32.68
-28.05
-24.36
-21.47
-19.55
-18.75
-18.94
-19.48
-19.34
-17.48
-13.30
-6.98
0.58
8.13
14.73
20.13
24.77
29.35
34.19
38.91
42.45
43.61
41.71
36.92
30.16
22.65
15.37
8.72
2.68
-2.95
-8.13
-12.50
-15.50
-16.64
-15.78
-13.20
-9.49
-5.29
-1.15
2.67
6.09
9.11
11.70
13.65
14.59
14.10
11.87
7.91
2.61
-3.32
-9.06
-13.97
-17.75
-20.43
-22.28
-23.55
-24.37
-24.66
-24.16
-22.58
-19.65
-15.15
-9.03
-1.49
6.95
15.45
22.96
28.45
31.19
30.97
28.13
23.43
17.87
12.36
7.56
3.81
1.21
-0.32
-0.84
-0.42
0.87
2.87
5.28
7.69
9.68
11.03
11.71
11.96
12.12
12.54
13.51
15.18
17.57
20.41
23.13
24.92
24.93
22.63
18.03
11.79
5.04
-1.04
-5.59
-8.25
-9.19
-8.92
-8.02
-6.95
-6.03
-5.40
-5.12
-5.21
-5.63
-6.24
-6.83
-7.14
-6.87
-5.89
-4.24
-2.17
-0.01
1.90
3.40
4.47
5.20
5.74
6.15
6.48
6.71
6.78
6.65
6.22
5.40
4.19
2.72
1.26
0.17
-0.29
-0.01
0.84
2.04
3.33
4.57
5.69
6.58
7.00
6.66
5.36
3.11
0.23
-2.77
-5.32
-6.99
-7.55
-6.93
-5.24
-2.71
0.33
3.47
6.33
8.65
10.33
11.43
12.01
12.13
11.77
10.99
9.98
9.06
8.59
8.77
9.51
10.50
11.31
11.65
11.51
11.17
10.98
11.17
11.62
11.95
11.60
10.18
7.65
4.39
1.10
-1.50
-3.04
-3.59
-3.68
-4.00
-5.06
-6.93
-9.18
-10.99
-11.42
-9.60
-4.97
2.53
12.33
23.17
33.20
40.52
43.71
42.41
37.45
30.46
23.14
16.54
10.75
5.16
-0.90
-7.54
-14.11
-19.44
-22.38
-22.32
-19.44
-14.57
-8.74
-2.87
2.59
7.59
12.31
16.89
21.16
24.69
26.89
27.30
25.75
22.43
17.71
12.01
5.54
-1.59
-9.25
-17.06
-24.31
-30.08
-33.56
-34.40
-32.88
-29.84
-26.38
-23.39
-21.31
-20.01
-19.00
-17.71
-15.83
-13.37
-10.66
-8.14
-6.16
-4.92
-4.41
-4.46
-4.88
-5.45
-6.04
-6.53
-6.84
-6.89
-6.63
-6.04
-5.19
-4.25
-3.42
-2.85
-2.60
-2.60
-2.78
-3.15
-3.84
-5.01
-6.77
-9.01
-11.35
-13.22
-14.03
-13.37
-11.19
-7.80
-3.84
-0.05
2.96
4.84
5.63
5.69
5.53
5.60
6.12
7.09
8.32
9.58
10.69
11.56
12.19
12.60
12.82
12.91
12.96
13.13
13.54
14.25
15.12
15.93
16.42
16.42
16.01
15.38
14.81
14.46
14.32
14.24
13.93
13.18
11.83
9.89
7.47
4.83
2.32
0.39
-0.55
-0.21
1.46
4.21
7.58
10.92
13.56
14.91
14.52
12.13
7.71
1.46
-6.27
-14.95
-23.88
-32.22
-39.00
-43.31
-44.56
-42.64
-38.06
-31.70
-24.56
-17.44
-10.91
-5.30
-0.89
2.07
3.54
3.77
3.40
3.13
3.38
3.98
4.22
3.13
-0.05
-5.40
-12.32
-19.62
-26.01
-30.44
-32.38
-31.80
-29.08
-24.74
-19.27
-13.05
-6.40
0.29
6.58
11.99
16.13
18.83
20.18
20.44
19.96
19.10
18.15
17.39
17.02
17.14
17.72
18.59
19.50
20.26
20.75
21.04
21.30
21.74
22.55
23.76
25.20
26.49
27.13
26.63
24.65
21.17
16.48
11.13
5.76
0.96
-2.92
-5.77
-7.73
-9.09
-10.13
-11.06
-11.97
-12.81
-13.43
-13.71
-13.57
-13.06
-12.30
-11.48
-10.77
-10.22
-9.83
-9.47
-9.01
-8.40
-7.69
-7.04
-6.60
-6.52
-6.75
-7.19
-7.64
-7.93
-7.99
-7.86
-7.64
-7.45
-7.35
-7.29
-7.23
-7.12
-7.04
-7.13
-7.58
-8.52
-9.97
-11.73
-13.54
-15.01
-15.78
-15.60
-14.40
-12.35
-9.83
-7.37
-5.46
-4.40
-4.16
-4.40
-4.62
-4.35
-3.40
-1.82
0.08
1.96
3.58
4.81
5.62
5.95
5.73
4.95
3.73
2.34
1.14
0.44
0.33
0.74
1.43
2.20
2.97
3.75
4.57
5.38
6.01
6.27
6.01
5.27
4.25
3.25
2.53
2.19
2.15
2.20
2.16
1.96
1.73
1.67
1.92
2.43
2.90
2.98
2.41
1.23
-0.29
-1.75
-2.81
-3.36
-3.50
-3.39
-3.14
-2.76
-2.16
-1.29
-0.27
0.65
1.19
1.19
0.72
0.02
-0.60
-0.98
-1.08
-1.05
-1.05
-1.16
-1.38
-1.61
-1.79
-1.89
-1.95
-2.04
-2.16
-2.28
-2.33
-2.21
-1.83
-1.18
-0.36
0.40
0.83
0.74
0.07
-0.99
-2.14
-3.07
-3.62
-3.87
-4.04
-4.38
-5.00
-5.86
-6.80
-7.61
-8.13
-8.17
-7.56
-6.18
-3.99
-1.10
2.18
5.42
8.23
10.32
11.63
12.26
12.41
12.36
12.32
12.45
12.83
13.44
14.20
15.00
15.85
16.83
18.16
19.97
22.27
24.88
27.52
29.94
32.04
33.99
36.17
38.99
42.77
47.59
53.24
59.27
65.20
70.68
75.74
80.79
86.50
93.60
102.64
113.82
126.92
141.46
156.83
172.41
187.56
201.62
213.77
223.06
228.47
229.11
224.29
213.71
197.52
176.37
151.28
123.36
93.55
62.26
29.32
-5.68
-42.89
-81.68
-120.57
-157.57
-190.92
-219.97
-245.39
-269.02
-293.39
-321.10
-354.17
-393.20
-436.47
-479.45
-515.31
-536.72
-538.30
-518.76
-481.37
-432.66
-379.70
-327.69
-278.78
-232.62
-188.03
-144.58
-103.24
-65.88
-34.01
-7.63
14.88
35.88
56.95
77.61
94.85
104.08
101.00
83.50
53.01
14.47
-24.86
-57.29
-76.44
-78.62
-63.27
-32.84
8.03
53.89
100.19
144.81
188.33
232.76
278.87
324.08
361.72
382.99
380.39
351.00
297.61
227.04
147.33
65.49
-12.62
-81.11
-133.21
-162.46
-165.70
-145.64
-111.09
-73.63
-42.60
-21.12
-5.79
9.87
30.82
57.11
83.90
104.46
113.96
111.82
101.58
88.82
78.59
73.75
74.40
78.82
84.68
90.19
94.55
97.62
99.36
99.25
96.27
89.33
78.11
63.49
47.61
33.26
22.83
17.42
16.40
17.85
19.53
20.16
20.16
21.49
26.69
37.43
53.36
71.82
88.63
99.64
102.30
96.51
84.46
69.50
54.79
42.31
32.52
24.63
17.11
8.29
-3.02
-17.12
-32.96
-47.79
-57.72
-58.85
-49.26
-30.71
-9.31
5.57
4.34
-18.68
-61.99
-116.43
-167.86
-202.40
-211.73
-195.89
-162.36
-121.88
-83.67
-52.70
-29.88
-14.44
-6.28
-6.41
-15.12
-29.44
-42.43
-45.19
-31.09
0.50
43.30
86.98
121.79
143.01
152.58
157.23
164.61
179.60
202.74
230.74
258.36
280.58
293.86
296.56
289.05
273.66
254.29
235.27
219.61
207.76
197.52
185.24
168.05
145.32
118.58
90.02
60.42
27.83
-11.61
-61.30
-121.14
-185.41
-243.16
-281.04
-288.02
-260.14
-202.85
-129.99
-59.24
-6.17
20.91
22.33
4.80
-23.29
-56.32
-93.22
-136.56
-189.29
-251.39
-318.03
-380.01
-426.09
-446.33
-435.46
-394.80
-332.56
-261.91
-197.76
-153.01
-135.94
-148.79
-187.82
-244.62
-307.78
-365.13
-405.70
-421.58
-408.79
-367.43
-301.45
-218.67
-130.87
-52.55
2.05
23.58
11.91
-22.60
-61.87
-86.76
-83.91
-49.98
8.73
79.75
148.97
203.63
234.16
235.21
206.97
156.45
97.24
46.76
20.88
28.17
66.58
123.77
181.12
219.47
224.70
191.29
123.51
34.03
-59.52
-138.94
-189.78
-204.42
-183.21
-134.00
-70.12
-7.71
37.55
53.91
36.77
-9.84
-73.96
-139.23
-189.70
-214.63
-210.86
-182.25
-136.41
-80.81
-20.53
41.48
102.26
156.67
197.27
216.63
211.16
184.31
146.91
113.97
99.17
109.32
141.52
184.38
222.58
242.72
237.49
206.50
154.04
85.58
5.68
-81.65
-170.95
-253.79
-319.21
-356.59
-360.10
-331.43
-279.43
-216.41
-152.95
-94.06
-38.28
19.68
84.57
156.71
231.06
298.93
352.21
387.14
405.71
414.10
419.42
426.52
436.30
446.68
454.08
456.17
452.70
444.70
433.28
419.16
403.73
388.61
375.83
364.70
352.43
335.21
309.72
274.79
231.77
185.12
138.66
94.99
52.30
8.03
-38.22
-84.17
-125.53
-158.93
-181.71
-195.66
-204.67
-216.21
-235.94
-265.17
-301.81
-341.91
-382.97
-422.65
-462.96
-483.40
-467.97
-413.87
-334.33
-248.35
-167.85
-110.37
-69.02
-38.57
-18.85
-14.52
-29.51
-55.35
-84.42
-109.80
-128.00
-136.91
-139.28
-141.54
-151.12
-171.79
-202.31
-239.24
-278.85
-319.78
-361.11
-383.61
-376.39
-341.68
-293.02
-244.64
-203.23
-165.81
-124.82
-72.83
-8.79
58.99
118.38
159.64
179.88
182.51
174.89
164.05
154.74
147.72
139.32
126.35
108.84
90.22
74.72
65.10
61.33
61.63
63.16
62.21
57.04
48.55
39.65
33.39
31.29
32.60
35.17
36.16
32.59
23.41
10.06
-4.05
-14.98
-20.01
-18.66
-12.07
-2.64
6.91
15.18
22.80
32.21
46.98
71.18
105.22
149.78
203.90
263.80
322.06
368.26
391.75
385.79
351.03
296.49
237.11
187.55
156.52
143.82
141.43
137.83
122.82
90.49
39.58
-27.41
-105.92
-189.51
-269.73
-336.70
-381.22
-397.54
-386.04
-353.30
-309.43
-264.56
-225.17
-192.33
-162.30
-129.10
-87.99
-38.48
14.50
61.67
91.86
95.56
68.19
11.86
-64.66
-148.04
-223.53
-278.14
-303.14
-295.29
-256.95
-195.43
-121.46
-47.20
16.22
60.92
84.03
88.17
80.51
70.92
69.16
82.33
112.81
158.02
211.29
264.14
308.60
339.01
352.83
350.39
334.25
308.41
277.38
245.29
215.04
187.70
162.64
138.29
113.29
87.53
62.15
38.83
18.57
1.06
-15.13
-31.50
-48.42
-65.02
-79.72
-91.35
-99.85
-106.29
-112.24
-119.00
-127.37
-137.14
-147.43
-156.68
-162.80
-163.41
-156.35
-140.29
-115.34
-83.17
-46.64
-9.32
25.20
53.55
72.82
81.01
77.68
64.73
46.49
28.66
16.28
11.74
13.93
19.18
23.43
24.32
22.22
19.34
18.12
19.45
22.40
25.02
25.81
24.65
22.84
22.22
24.05
28.46
34.38
40.10
43.85
44.40
41.31
34.97
26.34
16.58
6.59
-3.19
-12.78
-22.37
-31.87
-40.54
-46.96
-49.29
-46.10
-37.01
-22.91
-5.75
11.95
27.63
38.97
43.83
40.20
26.37
1.30
-34.95
-81.11
-135.10
-195.02
-259.80
-328.91
-400.95
-472.11
-535.51
-582.48
-605.45
-600.92
-571.00
-522.42
-463.64
-401.71
-340.38
-280.39
-221.20
-162.83
-106.66
-54.62
-7.95
33.79
72.45
110.17
148.19
186.50
224.30
260.83
295.93
329.75
362.00
391.33
415.47
432.09
439.86
438.78
429.76
413.48
389.83
358.10
317.91
270.27
217.73
163.37
109.20
55.32
0.68
-54.83
-108.25
-153.04
-180.85
-184.87
-162.94
-118.87
-60.94
1.45
61.28
115.99
167.09
217.82
270.06
322.58
371.00
409.63
433.83
441.44
433.00
410.66
376.93
334.20
286.15
239.21
202.48
185.22
192.84
223.74
268.91
315.05
349.08
362.56
353.51
325.33
283.93
235.06
183.03
131.00
81.55
36.38
-3.84
-39.53
-71.86
-102.16
-131.61
-160.83
-189.76
-217.80
-244.48
-269.62
-293.24
-315.22
-335.44
-353.83
-370.48
-385.25
-393.03
-387.71
-365.32
-326.95
-278.25
-225.86
-174.82
-127.96
-86.34
-50.24
-20.13
3.49
20.37
31.10
36.58
37.57
34.51
27.76
17.06
1.58
-15.13
-29.31
-38.95
-42.86
-40.91
-33.60
-21.44
-5.80
11.83
25.65
38.08
51.23
66.80
84.96
104.93
125.69
144.71
159.23
166.69
167.83
161.81
146.99
124.92
95.64
67.08
45.92
37.08
26.90
10.97
-13.81
-40.64
-66.79
-91.08
-112.60
-131.90
-149.95
-168.12
-185.05
-200.62
-214.39
-226.22
-234.91
-238.35
-235.69
-227.31
-215.02
-199.33
-181.64
-162.92
-144.06
-124.87
-104.31
-81.75
-56.56
-27.75
7.25
49.81
99.18
151.06
198.56
234.21
252.07
250.40
232.32
204.83
174.99
147.50
123.51
101.97
81.67
62.62
46.56
35.87
32.15
34.91
41.78
49.68
56.27
60.95
64.90
70.10
77.76
87.41
96.51
101.30
98.07
84.31
59.13
22.79
-23.36
-76.60
-132.25
-183.68
-223.93
-248.95
-260.50
-266.65
-278.44
-304.18
-344.13
-389.09
-424.01
-434.65
-413.54
-362.09
-288.35
-202.81
-114.95
-32.28
38.70
91.73
121.45
125.49
105.90
69.26
24.29
-21.31
-63.45
-102.28
-140.78
-182.17
-227.17
-272.69
-312.41
-339.10
-347.60
-337.19
-311.98
-279.23
-246.13
-217.13
-192.87
-171.09
-148.76
-123.96
-96.26
-66.01
-32.99
3.91
45.80
91.85
137.56
174.60
192.79
183.97
146.20
85.97
16.97
-44.23
-83.59
-93.61
-74.45
-32.28
23.30
81.36
130.76
161.24
165.27
140.64
92.33
32.21
-24.35
-63.62
-77.53
-65.19
-31.38
16.27
69.51
120.08
159.71
180.68
178.05
152.10
109.63
62.35
22.96
0.80
-0.59
17.16
49.85
93.17
143.33
195.62
242.65
274.28
280.02
253.13
194.32
112.73
23.99
-54.33
-107.54
-127.41
-113.58
-73.20
-18.80
34.91
74.50
91.05
82.16
52.21
10.65
-30.99
-62.19
-76.08
-70.85
-49.76
-19.71
10.98
35.06
48.03
49.00
40.36
26.74
13.84
7.31
11.81
29.63
59.65
96.64
132.27
157.66
166.46
157.17
133.01
100.00
64.23
30.37
1.88
-17.93
-25.60
-18.53
3.39
37.01
76.56
115.57
148.75
172.66
184.82
182.79
164.24
129.02
81.24
30.14
-12.07
-34.48
-31.86
-7.08
29.75
64.48
83.77
79.24
49.77
1.55
-54.11
-104.05
-137.13
-146.75
-132.13
-96.47
-44.81
17.53
85.13
151.71
210.27
253.76
277.87
281.45
268.16
244.91
218.95
194.84
173.19
152.29
129.14
102.42
70.69
34.08
-6.07
-47.65
-88.49
-127.25
-162.89
-196.56
-229.32
-264.62
-304.68
-348.96
-394.04
-434.84
-466.98
-487.20
-496.31
-477.22
-419.57
-323.96
-204.49
-81.65
28.39
110.94
170.54
211.79
237.31
245.52
235.19
208.99
171.95
130.70
90.70
55.77
25.41
-2.30
-31.85
-67.33
-110.90
-161.78
-215.49
-264.56
-299.01
-310.99
-296.32
-258.21
-205.65
-149.87
-99.94
-59.51
-27.45
-0.26
22.85
39.18
43.21
30.81
2.64
-35.17
-73.53
-104.64
-124.60
-134.36
-137.12
-135.53
-129.98
-118.90
-100.64
-75.06
-44.18
-11.02
21.78
53.13
83.13
111.44
136.09
153.49
160.20
155.39
142.47
128.70
122.65
130.56
153.60
187.40
223.99
255.10
274.86
280.74
272.61
251.13
216.92
171.24
117.63
63.21
18.00
-8.03
-9.23
12.54
47.69
81.99
101.78
98.73
72.00
27.51
-24.94
-74.95
-113.63
-134.35
-132.89
-107.90
-61.80
-1.54
62.00
116.29
150.90
161.33
150.86
129.64
110.75
104.74
115.24
137.47
160.45
171.94
163.72
134.85
91.44
43.21
-1.18
-37.49
-66.39
-91.20
-114.67
-136.65
-154.30
-164.11
-164.39
-156.37
-143.40
-128.88
-114.20
-98.23
-78.49
-53.41
-24.08
5.43
29.37
42.60
42.36
29.21
6.75
-19.81
-45.18
-65.28
-77.64
-81.02
-74.41
-56.58
-26.56
14.87
63.89
113.24
153.84
177.63
180.30
162.22
127.23
80.38
26.47
-30.22
-84.47
-129.16
-156.07
-158.37
-133.32
-83.55
-15.90
60.99
138.91
210.81
270.68
313.24
334.65
333.92
313.76
280.06
239.83
199.02
161.37
128.80
102.29
82.22
67.97
57.26
46.09
30.11
6.52
-24.51
-59.98
-95.61
-127.76
-155.09
-178.75
-201.58
-227.04
-258.50
-298.52
-347.99
-405.01
-464.19
-517.31
-555.52
-572.37
-566.29
-541.14
-504.36
-463.82
-425.06
-390.11
-358.37
-328.43
-299.52
-271.86
-245.91
-221.46
-197.34
-172.02
-144.56
-115.33
-86.01
-59.13
-37.10
-21.49
-12.77
-10.51
-13.89
-22.17
-34.90
-51.74
-72.11
-94.67
-117.24
-137.05
-151.22
-157.45
-154.42
-141.96
-120.93
-92.82
-59.43
-22.68
15.38
52.59
86.74
115.84
138.55
154.58
164.78
170.98
175.32
179.59
184.54
189.82
194.41
197.47
199.28
201.65
207.74
220.76
242.35
271.35
303.79
334.15
357.21
369.36
369.03
356.51
333.61
303.56
270.78
240.04
214.90
196.14
181.22
165.65
145.61
120.59
94.18
72.42
60.57
60.21
68.34
79.04
86.19
86.03
78.21
65.41
51.69
40.49
33.15
28.37
22.93
13.42
-2.05
-22.88
-46.30
-68.91
-88.21
-103.57
-115.56
-124.62
-129.91
-129.16
-120.04
-102.08
-77.80
-52.14
-30.74
-17.79
-14.73
-20.31
-31.33
-43.73
-53.57
-58.08
-56.22
-48.90
-38.51
-27.36
-16.09
-2.89
15.62
42.22
76.69
114.99
150.67
178.09
195.37
204.99
212.06
220.57
230.97
239.82
241.46
230.64
204.55
163.67
111.54
54.03
-1.86
-49.14
-82.38
-99.25
-101.27
-93.22
-81.10
-69.83
-61.39
-54.66
-47.00
-36.24
-22.02
-5.62
11.12
27.03
41.72
55.12
66.24
72.95
72.62
63.52
46.55
25.35
5.15
-9.36
-15.96
-15.54
-11.25
-6.70
-4.45
-5.46
-9.55
-16.03
-24.16
-33.07
-41.60
-48.49
-52.97
-55.38
-57.15
-60.04
-64.84
-70.37
-73.45
-70.12
-57.59
-36.14
-9.83
14.39
29.13
29.33
14.22
-12.42
-43.87
-72.94
-94.07
-104.19
-102.15
-87.83
-61.76
-25.63
16.79
59.64
96.22
121.30
133.01
133.06
125.15
112.66
96.96
77.41
52.79
23.11
-9.39
-40.74
-66.54
-83.35
-89.36
-84.10
-68.05
-42.64
-10.75
22.80
51.52
68.83
70.14
54.67
25.83
-9.85
-45.02
-73.48
-91.33
-97.06
-90.96
-74.76
-51.60
-25.86
-2.61
13.59
19.96
16.17
3.86
-14.44
-36.30
-59.48
-81.22
-97.36
-102.47
-91.26
-61.14
-14.31
41.71
95.78
136.59
156.40
153.42
132.00
100.80
69.50
45.88
33.90
33.40
41.03
51.84
60.93
64.69
61.50
51.93
38.53
24.81
13.95
7.53
5.23
5.13
5.00
3.63
1.61
1.11
4.48
12.50
23.51
33.76
38.84
35.67
23.81
5.82
-12.92
-26.13
-28.32
-16.42
8.93
42.94
77.59
103.82
114.72
109.16
91.13
67.81
46.32
30.88
22.05
17.86
16.03
15.97
21.41
36.36
62.14
95.80
130.69
159.31
176.33
180.43
174.33
166.96
166.67
178.05
201.10
232.40
267.87
304.33
339.39
370.81
400.24
428.00
452.16
469.76
478.27
477.37
469.32
457.84
417.44
334.27
209.69
61.96
-83.01
-206.30
-301.72
-372.40
-424.93
-464.26
-489.41
-497.76
-492.19
-478.65
-465.34
-459.95
-467.60
-490.42
-527.19
-573.09
-616.89
-649.22
-662.33
-651.60
-616.32
-560.54
-499.54
-440.50
-387.03
-340.80
-302.52
-271.57
-247.46
-230.10
-219.81
-216.21
-216.33
-215.74
-209.70
-195.56
-173.28
-145.77
-117.42
-92.33
-72.21
-55.30
-38.56
-18.88
4.85
31.55
58.67
83.80
105.71
124.29
139.79
150.53
153.59
146.36
128.95
104.97
80.69
62.53
54.81
58.87
73.68
97.71
129.72
167.89
207.55
239.86
252.88
235.64
183.45
101.33
3.61
-90.51
-163.56
-205.76
-217.27
-206.03
-182.68
-155.62
-128.36
-100.32
-69.71
-36.37
-2.78
27.34
51.33
69.55
85.52
104.09
129.05
161.58
200.12
241.03
279.87
312.40
335.33
347.10
348.62
343.78
338.87
340.71
353.94
378.64
409.57
437.79
453.84
451.04
427.45
385.53
330.34
267.37
201.50
136.75
76.80
25.30
-14.70
-41.59
-55.99
-60.76
-60.01
-57.60
-55.98
-55.83
-56.54
-57.08
-56.82
-55.82
-54.68
-54.10
-54.54
-56.05
-58.34
-60.90
-63.30
-65.27
-66.80
-68.09
-69.45
-71.22
-73.63
-76.67
-80.00
-83.09
-84.97
-84.53
-80.92
-73.84
-63.82
-52.32
-41.34
-32.91
-28.52
-28.69
-33.01
-40.38
-49.33
-58.36
-66.19
-71.78
-74.61
-74.88
-73.86
-73.86
-77.64
-87.38
-103.73
-125.48
-150.04
-174.61
-197.16
-216.58
-232.14
-242.70
-246.50
-241.95
-228.84
-209.11
-186.36
-164.27
-144.88
-127.84
-111.09
-92.52
-71.49
-49.28
-28.36
-11.09
1.43
9.60
14.85
18.91
23.24
28.85
36.36
46.14
58.22
72.22
87.43
102.92
118.02
132.96
149.34
169.78
196.51
229.49
264.95
295.56
312.52
309.04
283.20
239.00
184.74
129.70
80.93
41.54
11.25
-11.81
-29.14
-41.13
-47.60
-48.84
-46.32
-42.48
-39.75
-39.54
-41.53
-43.70
-43.31
-38.18
-27.93
-14.36
-0.93
8.65
12.00
9.04
1.88
-6.24
-12.47
-15.56
-16.22
-16.68
-19.56
-26.74
-38.67
-54.35
-71.77
-88.64
-102.91
-113.14
-118.51
-118.64
-113.27
-102.31
-85.94
-65.04
-41.36
-17.46
3.91
20.50
31.30
36.68
38.20
37.77
37.05
36.87
37.22
37.56
37.20
35.64
32.85
29.31
26.03
24.38
25.80
31.36
41.22
54.22
67.89
79.06
84.96
84.13
76.93
65.33
52.06
39.55
29.05
20.21
11.47
0.90
-12.58
-28.48
-44.55
-57.55
-64.48
-63.64
-55.14
-40.60
-22.45
-3.05
15.76
32.67
46.66
56.92
62.83
64.18
61.37
55.34
47.41
38.98
31.33
25.29
21.09
18.20
15.52
11.81
6.35
-0.67
-8.16
-14.78
-19.66
-22.90
-25.55
-28.93
-33.81
-39.98
-46.34
-51.50
-54.61
-55.70
-55.48
-54.81
-54.07
-52.98
-50.91
-47.42
-42.64
-37.34
-32.54
-28.99
-26.80
-25.52
-24.50
-23.31
-22.02
-21.04
-20.80
-21.37
-22.34
-22.93
-22.41
-20.41
-17.20
-13.51
-10.21
-7.99
-7.02
-7.00
-7.35
-7.52
-7.22
-6.57
-5.89
-5.56
-5.77
-6.46
-7.35
-8.08
-8.39
-8.15
-7.44
-6.38
-5.11
-3.73
-2.28
-0.83
0.50
1.50
1.93
1.58
0.36
-1.68
-4.32
-7.21
-10.03
-12.48
-14.32
-15.39
-15.65
-15.17
-14.12
-12.76
-11.34
-10.09
-9.17
-8.64
-8.47
-8.53
-8.62
-8.57
-8.28
-7.79
-7.35
-7.23
-7.72
-8.87
-10.50
-12.18
-13.33
-13.36
-11.86
-8.76
-4.47
0.09
3.71
5.23
4.03
0.31
-4.86
-9.94
-13.48
-14.65
-13.44
-10.67
-7.54
-5.26
-4.68
-6.04
-8.98
-12.67
-16.11
-18.49
-19.41
-18.98
-17.54
-15.40
-12.64
-9.11
-4.67
0.48
5.81
10.58
14.14
16.15
16.60
15.58
13.16
9.29
3.99
-2.39
-9.10
-15.13
-19.49
-21.52
-21.06
-18.46
-14.32
-9.35
-4.17
0.66
4.69
7.63
9.41
10.26
10.57
10.81
11.25
11.85
12.29
12.17
11.23
9.48
7.15
4.57
1.96
-0.60
-3.14
-5.60
-7.85
-9.57
-10.43
-10.16
-8.65
-5.98
-2.36
1.88
6.35
10.58
14.09
16.45
17.44
17.18
16.12
14.95
14.33
14.65
15.82
17.35
18.50
18.56
17.05
13.74
8.64
1.96
-5.93
-14.37
-22.48
-29.24
-33.79
-35.60
-34.64
-31.26
-26.08
-19.72
-12.81
-5.89
0.47
5.79
9.68
12.03
13.00
13.02
12.57
12.06
11.75
11.78
12.18
13.01
14.37
16.34
18.97
22.18
25.81
29.61
33.36
36.93
40.33
43.69
47.13
50.65
54.08
57.01
59.00
59.70
59.00
56.98
53.81
49.62
44.43
38.26
31.25
23.76
16.33
9.37
3.00
-3.09
-9.43
-16.41
-23.92
-31.30
-37.57
-42.03
-44.60
-45.92
-46.95
-48.44
-50.51
-52.64
-54.08
-54.35
-53.58
-52.36
-51.41
-51.09
-51.26
-51.42
-51.10
-50.10
-48.46
-46.34
-43.75
-40.51
-36.42
-31.46
-25.98
-20.63
-16.06
-12.61
-10.17
-8.18
-6.04
-3.35
-0.17
3.00
5.47
6.66
6.37
4.80
2.44
-0.14
-2.47
-4.20
-5.12
-5.11
-4.24
-2.88
-1.74
-1.74
-3.64
-7.74
-13.67
-20.47
-26.97
-32.22
-35.66
-37.16
-36.78
-34.56
-30.49
-24.62
-17.27
-9.07
-0.82
6.72
13.07
18.11
21.96
24.70
26.32
26.73
25.89
24.01
21.58
19.24
17.57
16.92
17.38
18.89
21.22
24.06
26.96
29.38
30.85
31.08
30.19
28.54
26.61
24.69
22.72
20.31
17.04
12.74
7.66
2.45
-2.13
-5.46
-7.30
-7.74
-7.11
-5.78
-4.02
-2.06
-0.11
1.53
2.48
2.45
1.35
-0.59
-2.92
-5.12
-6.78
-7.78
-8.27
-8.50
-8.72
-9.05
-9.45
-9.83
-10.12
-10.37
-10.66
-11.09
-11.61
-12.10
-12.35
-12.20
-11.63
-10.74
-9.72
-8.76
-8.05
-7.63
-7.44
-7.28
-6.81
-5.72
-3.85
-1.33
1.39
3.76
5.40
6.26
6.63
6.93
7.35
7.84
8.08
7.86
7.23
6.57
6.36
6.90
8.10
9.60
10.90
11.72
12.04
12.05
12.03
12.16
12.49
12.98
13.52
14.06
14.58
15.07
15.49
15.70
15.50
14.67
13.04
10.58
7.48
4.02
0.53
-2.76
-5.81
-8.72
-11.66
-14.72
-17.86
-20.88
-23.47
-25.32
-26.20
-26.10
-25.16
-23.62
-21.73
-19.59
-17.18
-14.46
-11.51
-8.57
-6.05
-4.31
-3.53
-3.55
-4.04
-4.63
-5.16
-5.70
-6.48
-7.72
-9.38
-11.20
-12.89
-14.24
-15.38
-16.67
-18.54
-21.31
-25.05
-29.49
-34.15
-38.40
-41.54
-42.88
-41.81
-38.01
-31.60
-23.22
-14.01
-5.35
1.52
5.93
7.90
8.13
7.65
7.44
8.08
9.57
11.46
13.12
14.08
14.14
13.45
12.32
11.09
9.99
9.19
8.82
9.00
9.81
11.15
12.84
14.48
15.77
16.55
16.94
17.32
18.13
19.76
22.27
25.44
28.79
31.77
33.95
35.19
35.65
35.67
35.66
35.81
36.13
36.44
36.57
36.41
35.97
35.25
34.08
32.14
29.06
24.71
19.38
13.79
8.91
5.53
4.04
4.29
5.75
7.76
9.82
11.71
13.45
15.18
17.07
19.17
21.51
24.07
26.81
29.64
32.30
34.40
35.47
35.13
33.20
29.79
25.28
20.13
14.78
9.46
4.25
-0.89
-6.07
-11.34
-16.73
-22.22
-27.75
-33.25
-38.55
-43.42
-47.57
-50.78
-52.91
-54.02
-54.32
-54.21
-54.19
-54.83
-56.64
-59.87
-64.37
-69.47
-74.05
-76.74
-76.29
-71.97
-63.87
-52.88
-40.41
-27.94
-16.59
-6.98
0.84
7.07
12.05
16.12
19.57
22.64
25.53
28.33
30.96
33.19
34.71
35.25
34.74
33.31
31.24
28.86
26.43
24.04
21.61
18.86
15.51
11.38
6.54
1.34
-3.70
-8.07
-11.47
-13.84
-15.35
-16.27
-16.89
-17.36
-17.71
-17.84
-17.57
-16.68
-15.04
-12.67
-9.76
-6.64
-3.64
-1.01
1.15
2.82
4.05
4.82
5.08
4.79
4.00
2.88
1.63
0.46
-0.52
-1.31
-1.90
-2.24
-2.21
-1.61
-0.35
1.53
3.75
5.93
7.65
8.71
9.11
9.08
8.91
8.83
8.89
8.97
8.88
8.49
7.78
6.87
5.96
5.24
4.89
5.04
5.82
7.33
9.57
12.47
15.78
19.16
22.24
24.78
26.69
28.07
29.14
30.10
31.07
32.05
33.00
33.91
34.84
35.93
37.33
39.10
41.12
43.12
44.68
45.42
45.06
43.57
41.14
38.17
35.13
32.39
30.20
28.56
27.28
26.03
24.43
22.08
18.69
14.13
8.57
2.47
-3.46
-8.52
-12.27
-14.71
-16.36
-18.11
-20.89
-25.27
-31.20
-38.03
-44.72
-50.25
-53.95
-55.66
-55.64
-54.32
-52.07
-49.03
-45.23
-40.74
-35.80
-30.91
-26.63
-23.39
-21.30
-20.14
-19.48
-18.92
-18.28
-17.57
-16.97
-16.61
-16.48
-16.42
-16.23
-15.78
-15.10
-14.36
-13.69
-13.13
-12.52
-11.54
-9.86
-7.26
-3.76
0.35
4.57
8.34
11.25
13.15
14.21
14.75
15.13
15.54
15.95
16.19
16.12
15.73
15.21
14.76
14.49
14.26
13.81
12.83
11.20
9.04
6.62
4.28
2.22
0.50
-0.95
-2.22
-3.35
-4.33
-5.10
-5.62
-5.88
-5.90
-5.69
-5.36
-5.01
-4.75
-4.70
-4.89
-5.36
-6.08
-7.02
-8.09
-9.21
-10.22
-10.96
-11.31
-11.19
-10.63
-9.69
-8.43
-6.94
-5.27
-3.58
-2.08
-1.07
-0.82
-1.58
-3.44
-6.29
-9.87
-13.77
-17.53
-20.80
-23.43
-25.50
-27.26
-29.00
-30.80
-32.53
-33.83
-34.34
-33.83
-32.33
-30.05
-27.32
-24.41
-21.50
-18.66
-15.96
-13.49
-11.32
-9.48
-7.86
-6.26
-4.45
-2.26
0.27
2.98
5.56
7.72
9.27
10.17
10.47
10.33
9.88
9.16
8.15
6.76
4.86
2.40
-0.62
-4.05
-7.65
-11.06
-13.93
-15.96
-16.99
-17.04
-16.29
-15.02
-13.45
-11.68
-9.70
-7.41
-4.80
-1.99
0.75
3.12
4.89
5.98
6.40
6.19
5.39
4.03
2.25
0.39
-1.09
-1.76
-1.40
-0.09
1.85
4.10
6.44
8.80
11.12
13.25
14.87
15.69
15.58
14.72
13.60
12.77
12.59
13.08
13.93
14.74
15.25
15.47
15.67
16.18
17.21
18.74
20.45
21.97
22.97
23.29
22.97
22.25
21.41
20.69
20.18
19.70
18.90
17.29
14.48
10.41
5.46
0.34
-4.05
-6.95
-7.98
-7.23
-5.12
-2.32
0.48
2.70
4.01
4.31
3.70
2.39
0.67
-1.24
-3.16
-4.94
-6.55
-8.04
-9.51
-11.05
-12.56
-13.76
-14.09
-13.01
-10.12
-5.40
0.83
8.11
15.99
24.13
32.35
40.40
47.92
54.50
59.77
63.53
65.84
66.87
66.84
65.81
63.75
60.64
56.57
51.80
46.76
41.92
37.65
34.15
31.40
29.15
27.04
24.71
21.88
18.49
14.62
10.53
6.48
2.66
-0.88
-4.17
-7.27
-10.18
-12.80
-15.01
-16.70
-17.90
-18.80
-19.59
-20.47
-21.48
-22.53
-23.44
-24.10
-24.54
-24.90
-25.41
-26.20
-27.30
-28.60
-29.95
-31.28
-32.65
-34.15
-35.87
-37.76
-39.61
-41.20
-42.38
-43.15
-43.60
-43.82
-43.76
-43.19
-41.76
-39.14
-35.17
-29.95
-23.84
-17.28
-10.77
-4.73
0.57
4.92
8.25
10.58
12.03
12.79
13.06
13.02
12.79
12.43
11.93
11.32
10.63
9.93
9.34
8.98
8.92
9.20
9.76
10.46
11.15
11.65
11.81
11.53
10.79
9.65
8.23
6.72
5.25
3.95
2.88
2.05
1.41
0.88
0.35
-0.35
-1.41
-2.91
-4.86
-7.15
-9.55
-11.79
-13.57
-14.57
-14.50
-13.20
-10.65
-7.10
-3.03
1.01
4.58
7.43
9.56
11.16
12.37
13.24
13.67
13.55
12.86
11.73
10.44
9.25
8.33
7.63
7.04
6.40
5.70
5.02
4.49
4.14
3.89
3.52
2.85
1.75
0.21
-1.68
-3.81
-6.10
-8.46
-10.80
-12.99
-14.94
-16.57
-17.90
-19.05
-20.18
-21.45
-22.87
-24.31
-25.48
-26.00
-25.58
-24.07
-21.60
-18.49
-15.18
-12.03
-9.23
-6.81
-4.71
-2.93
-1.51
-0.55
-0.09
-0.08
-0.35
-0.74
-1.16
-1.62
-2.12
-2.63
-2.99
-3.04
-2.67
-2.00
-1.26
-0.76
-0.75
-1.32
-2.40
-3.78
-5.20
-6.37
-7.05
-7.11
-6.56
-5.64
-4.67
-3.98
-3.73
-3.93
-4.44
-5.12
-5.96
-7.05
-8.47
-10.15
-11.81
-12.96
-13.15
-12.12
-9.95
-7.01
-3.78
-0.72
1.95
4.21
6.17
7.95
9.58
10.98
12.02
12.64
12.87
12.82
12.71
12.75
13.08
13.76
14.73
15.82
16.88
17.77
18.43
18.84
18.92
18.53
17.48
15.73
13.45
11.06
9.08
7.89
7.56
7.82
8.18
8.21
7.70
6.63
5.15
3.34
1.21
-1.29
-4.10
-6.93
-9.27
-10.54
-10.31
-8.50
-5.44
-1.77
1.86
5.02
7.66
9.98
12.25
14.57
16.80
18.66
19.95
20.69
21.10
21.46
21.88
22.33
22.65
22.70
22.46
21.89
20.96
19.54
17.46
14.68
11.31
7.65
4.05
0.84
-1.80
-3.77
-5.05
-5.69
-5.75
-5.41
-4.87
-4.39
-4.16
-4.37
-5.15
-6.59
-8.75
-11.63
-15.15
-19.17
-23.44
-27.65
-31.43
-34.36
-36.13
-36.57
-35.82
-34.26
-32.45
-30.82
-29.52
-28.36
-26.88
-24.58
-21.17
-16.67
-11.36
-5.65
0.04
5.40
10.15
14.07
16.95
18.71
19.39
19.23
18.60
17.82
17.11
16.48
15.81
14.91
13.67
12.13
10.40
8.63
6.91
5.31
3.88
2.68
1.80
1.27
1.02
0.81
0.36
-0.58
-2.08
-3.97
-5.99
-7.83
-9.27
-10.20
-10.57
-10.37
-9.55
-8.16
-6.33
-4.26
-2.18
-0.27
1.41
2.87
4.15
5.25
6.14
6.77
7.15
7.35
7.50
7.67
7.90
8.15
8.42
8.72
9.12
9.62
10.19
10.67
10.92
10.88
10.63
10.32
10.09
9.96
9.81
9.54
9.11
8.71
8.63
9.14
10.33
12.05
13.85
15.19
15.50
14.41
11.91
8.33
4.38
0.95
-1.12
-1.26
0.68
4.36
9.14
14.20
18.87
22.69
25.45
27.18
27.97
27.95
27.25
26.05
24.53
22.93
21.39
19.98
18.63
17.20
15.62
13.92
12.24
10.78
9.67
8.91
8.31
7.63
6.64
5.26
3.46
1.34
-1.06
-3.74
-6.71
-9.98
-13.40
-16.75
-19.79
-22.37
-24.52
-26.48
-28.49
-30.70
-33.08
-35.32
-36.99
-37.58
-36.70
-34.16
-30.06
-24.71
-18.66
-12.50
-6.77
-1.93
1.74
4.15
5.32
5.46
4.88
3.93
2.91
1.95
1.00
-0.14
-1.64
-3.52
-5.58
-7.47
-8.86
-9.57
-9.67
-9.42
-9.18
-9.23
-9.71
-10.57
-11.56
-12.34
-12.66
-12.41
-11.74
-11.05
-10.81
-11.39
-12.89
-15.12
-17.68
-20.10
-22.00
-23.10
-23.28
-22.60
-21.39
-20.38
-20.57
-22.94
-27.97
-35.29
-43.73
-51.82
-58.35
-62.94
-65.92
-67.97
-69.49
-70.26
-69.52
-66.42
-60.53
-52.06
-41.78
-30.67
-19.56
-8.95
0.99
10.21
18.73
26.53
33.49
39.49
44.44
48.29
51.13
53.05
54.14
54.43
53.86
52.42
50.25
47.65
45.16
43.40
42.83
43.62
45.48
47.70
49.32
49.41
47.34
43.02
36.87
29.62
22.00
14.52
7.35
0.40
-6.41
-12.99
-19.02
-24.01
-27.51
-29.18
-28.91
-26.74
-22.88
-17.72
-11.80
-5.81
-0.38
3.99
7.10
9.10
10.28
11.02
11.58
12.10
12.56
12.80
12.49
11.21
8.55
4.32
-1.26
-7.55
-13.57
-18.31
-21.07
-21.64
-20.34
-17.78
-14.72
-11.82
-9.48
-7.88
-6.89
-6.20
-5.39
-4.00
-1.63
1.86
6.43
11.88
17.88
24.16
30.46
36.55
42.22
47.26
51.50
54.83
57.21
58.60
59.00
58.36
56.68
53.98
50.37
45.99
41.03
35.67
30.10
24.47
18.90
13.43
7.98
2.37
-3.59
-10.07
-17.05
-24.40
-31.85
-39.11
-45.94
-52.11
-57.46
-61.87
-65.22
-67.46
-68.62
-68.80
-68.16
-66.90
-65.16
-62.94
-60.01
-55.98
-50.39
-42.85
-33.27
-22.04
-9.96
1.94
12.68
21.65
28.73
34.22
38.63
42.37
45.68
48.52
50.78
52.39
53.36
53.81
53.84
53.54
52.81
51.54
49.51
46.53
42.38
36.87
29.89
21.48
11.96
1.95
-7.65
-15.91
-22.09
-25.86
-27.39
-27.25
-26.14
-24.64
-23.02
-21.35
-19.58
-17.77
-16.19
-15.15
-14.85
-15.21
-15.86
-16.23
-15.81
-14.40
-12.13
-9.46
-6.95
-5.01
-3.74
-2.92
-2.16
-1.18
0.03
1.18
1.78
1.43
0.05
-2.06
-4.40
-6.55
-8.39
-10.12
-12.09
-14.57
-17.54
-20.67
-23.51
-25.64
-26.79
-26.92
-26.10
-24.48
-22.26
-19.63
-16.81
-14.05
-11.54
-9.45
-7.85
-6.75
-6.07
-5.69
-5.43
-5.13
-4.69
-4.04
-3.20
-2.22
-1.14
0.01
1.19
2.37
3.50
4.50
5.27
5.76
5.91
5.73
5.22
4.43
3.46
2.45
1.55
0.90
0.53
0.33
0.12
-0.34
-1.22
-2.66
-4.63
-7.03
-9.57
-11.87
-13.46
-13.98
-13.25
-11.42
-8.90
-6.24
-3.93
-2.22
-1.11
-0.39
0.13
0.61
1.04
1.35
1.45
1.32
1.05
0.79
0.70
0.93
1.53
2.46
3.64
4.98
6.38
7.81
9.26
10.74
12.26
13.76
15.17
16.37
17.23
17.65
17.58
17.06
16.21
15.14
13.97
12.71
11.26
9.50
7.32
4.68
1.70
-1.42
-4.39
-6.93
-8.74
-9.62
-9.49
-8.48
-6.86
-5.05
-3.40
-2.11
-1.17
-0.43
0.23
0.78
1.09
0.94
0.26
-0.90
-2.32
-3.76
-5.03
-6.16
-7.24
-8.47
-9.91
-11.53
-13.13
-14.47
-15.37
-15.80
-15.88
-15.80
-15.68
-15.47
-14.99
-14.00
-12.37
-10.24
-7.94
-5.90
-4.44
-3.70
-3.54
-3.71
-3.97
-4.21
-4.50
-5.00
-5.92
-7.37
-9.30
-11.50
-13.59
-15.12
-15.63
-14.78
-12.51
-9.02
-4.75
-0.23
4.09
7.95
11.31
14.25
16.92
19.37
21.61
23.63
25.49
27.33
29.30
31.41
33.54
35.34
36.40
36.37
35.13
32.74
29.47
25.62
21.42
16.97
12.33
7.58
2.87
-1.62
-5.68
-9.22
-12.20
-14.64
-16.61
-18.15
-19.27
-20.05
-20.60
-21.11
-21.73
-22.49
-23.26
-23.74
-23.55
-22.38
-20.05
-16.56
-12.07
-6.90
-1.39
4.12
9.35
14.14
18.37
21.98
24.95
27.19
28.55
28.82
27.73
25.04
20.63
14.59
7.22
-0.91
-9.07
-16.46
-22.41
-26.48
-28.61
-29.09
-28.44
-27.27
-26.07
-25.11
-24.49
-24.18
-24.09
-24.17
-24.30
-24.33
-24.01
-23.13
-21.60
-19.56
-17.38
-15.53
-14.39
-14.11
-14.51
-15.15
-15.53
-15.14
-13.63
-10.89
-7.07
-2.55
2.09
6.26
9.53
11.73
12.98
13.63
14.04
14.45
14.90
15.31
15.60
15.77
15.83
15.75
15.35
14.40
12.75
10.55
8.24
6.52
5.97
6.84
8.86
11.37
13.62
15.06
15.51
15.18
14.43
13.56
12.67
11.71
10.59
9.25
7.79
6.29
4.73
2.99
0.90
-1.62
-4.40
-7.15
-9.57
-11.51
-13.05
-14.34
-15.44
-16.13
-15.99
-14.62
-11.84
-7.91
-3.42
0.95
4.67
7.56
9.74
11.49
13.04
14.52
15.91
17.14
18.25
19.33
20.53
21.93
23.42
24.77
25.65
25.79
25.12
23.79
22.12
20.47
19.13
18.14
17.36
16.56
15.50
14.11
12.53
11.00
9.78
8.99
8.61
8.48
8.37
8.05
7.35
6.20
4.59
2.64
0.54
-1.48
-3.17
-4.31
-4.75
-4.37
-3.13
-1.12
1.42
4.09
6.46
8.23
9.34
10.02
10.68
11.67
13.07
14.66
16.00
16.68
16.50
15.60
14.35
13.18
12.45
12.27
12.56
13.10
13.61
13.83
13.57
12.73
11.26
9.25
6.78
4.05
1.22
-1.44
-3.73
-5.46
-6.58
-7.31
-7.98
-9.09
-10.98
-13.76
-17.22
-20.89
-24.15
-26.44
-27.37
-26.75
-24.69
-21.48
-17.55
-13.39
-9.43
-5.96
-3.10
-0.86
0.84
2.07
2.95
3.58
4.09
4.59
5.13
5.72
6.30
6.82
7.24
7.61
7.98
8.35
8.75
9.11
9.46
9.86
10.36
10.93
11.47
11.76
11.62
11.01
10.04
8.96
7.98
7.11
6.18
4.88
2.97
0.41
-2.50
-5.22
-7.15
-7.78
-6.94
-4.82
-1.90
1.22
4.02
6.23
7.75
8.67
9.12
9.17
8.89
8.26
7.35
6.24
5.07
3.96
3.00
2.23
1.61
1.08
0.52
-0.11
-0.80
-1.45
-1.97
-2.30
-2.50
-2.68
-2.98
-3.47
-4.12
-4.84
-5.62
-6.48
-7.48
-8.63
-9.91
-11.16
-12.28
-13.27
-14.28
-15.56
-17.27
-19.33
-21.37
-22.85
-23.28
-22.35
-20.10
-16.80
-12.88
-8.77
-4.89
-1.57
1.00
2.78
3.91
4.62
5.15
5.60
5.92
6.03
5.91
5.65
5.46
5.46
5.65
5.90
6.03
6.00
5.92
6.00
6.35
6.95
7.56
7.94
7.91
7.51
6.91
6.30
5.81
5.41
4.97
4.35
3.46
2.33
1.06
-0.19
-1.31
-2.25
-3.10
-4.04
-5.26
-6.90
-8.89
-10.97
-12.71
-13.67
-13.52
-12.21
-9.94
-7.11
-4.18
-1.52
0.62
2.16
3.19
3.83
4.26
4.59
4.89
5.21
5.54
5.88
6.24
6.58
6.84
6.96
6.91
6.78
6.73
6.89
7.28
7.74
8.01
7.84
7.15
6.08
