1604196392.00
64.000000
-0.00
-0.00
-0.00
-0.00
-0.00
-0.00
-0.00
-0.00
-0.00
-0.00
0.00
0.01
0.01
-0.00
-0.03
-0.05
-0.05
0.00
0.13
0.36
0.66
1.01
1.37
1.72
2.06
2.40
2.79
3.24
3.80
4.42
5.06
5.66
6.20
6.68
7.15
7.68
8.31
9.14
10.09
11.04
11.88
12.56
13.14
13.76
14.65
15.96
17.91
20.32
22.90
25.38
27.58
29.57
31.68
34.32
37.81
42.54
48.15
54.10
59.83
64.97
69.58
74.14
79.34
85.71
93.76
103.00
112.62
121.73
129.77
136.75
143.30
150.75
157.77
166.64
177.95
191.79
206.97
220.57
228.25
225.36
208.53
176.87
132.76
80.05
23.07
-34.95
-92.44
-149.16
-205.23
-260.36
-313.72
-363.83
-409.75
-450.78
-486.32
-515.50
-536.92
-548.82
-549.44
-537.69
-513.35
-477.64
-432.73
-381.27
-325.90
-268.85
-211.78
-155.87
-102.13
-51.40
-4.71
36.98
72.97
102.94
127.07
145.96
160.40
171.16
178.86
183.81
186.14
185.97
183.54
179.28
173.78
167.68
161.48
155.38
149.29
142.88
135.85
128.17
120.09
112.21
105.17
99.43
94.97
91.25
87.40
82.66
76.77
70.13
63.74
58.75
55.93
55.24
55.75
55.89
54.30
50.32
44.35
37.59
31.32
26.34
22.42
18.30
12.09
2.11
-12.88
-33.44
-59.15
-87.93
-115.64
-136.52
-144.03
-134.82
-110.03
-75.38
-39.18
-9.03
11.00
21.31
25.34
26.88
27.76
27.63
25.07
19.50
12.19
5.91
3.34
5.50
11.10
17.01
19.96
17.92
11.07
1.60
-7.39
-13.06
-13.56
-8.16
2.73
17.53
33.11
44.81
47.52
37.56
14.70
-16.91
-49.72
-75.48
-88.37
-86.62
-72.84
-51.98
-28.63
-5.65
15.79
35.05
51.16
62.82
69.22
70.80
69.28
67.02
66.08
67.23
69.87
72.61
74.14
73.98
72.70
71.44
71.32
72.66
74.66
75.74
74.26
69.31
61.05
50.36
38.31
25.58
12.16
-2.57
-19.57
-39.84
-64.18
-92.62
-122.90
-151.17
-171.67
-178.22
-166.89
-138.21
-97.67
-53.99
-16.04
10.98
26.25
32.56
34.00
33.61
32.50
30.41
27.02
22.93
19.57
18.15
18.91
20.90
22.48
21.96
18.62
12.92
6.22
0.09
-4.52
-7.57
-9.92
-12.88
-17.62
-24.65
-33.68
-43.86
-54.22
-64.20
-73.84
-83.65
-94.42
-106.80
-120.97
-136.61
-152.99
-169.23
-184.55
-198.40
-210.35
-219.97
-226.65
-229.58
-227.93
-220.87
-207.89
-189.09
-165.17
-137.33
-107.04
-75.67
-44.37
-13.91
15.16
42.42
67.41
89.63
108.66
124.32
136.86
146.90
155.35
163.12
170.81
178.55
186.05
192.81
198.38
202.68
205.99
208.93
212.34
217.14
224.18
233.82
245.46
257.12
265.56
267.01
258.47
238.85
209.55
173.99
136.35
100.26
67.90
39.94
16.16
-3.88
-20.46
-33.72
-44.01
-51.96
-58.42
-64.07
-69.22
-73.72
-77.13
-79.07
-79.43
-78.49
-76.78
-74.89
-73.22
-71.87
-70.65
-69.19
-67.13
-64.29
-60.75
-56.85
-53.03
-49.70
-47.08
-45.09
-43.41
-41.65
-39.47
-36.70
-33.37
-29.67
-25.89
-22.30
-19.13
-16.49
-14.40
-12.78
-11.52
-10.51
-9.67
-8.96
-8.36
-7.83
-7.34
-6.89
-6.47
-6.09
-5.71
-5.19
-4.37
-3.10
-1.39
0.54
2.39
3.86
4.83
5.35
5.59
5.65
5.57
5.24
4.58
3.58
2.41
1.31
0.51
0.09
0.02
0.11
0.18
0.08
-0.25
-0.80
-1.51
-2.29
-3.06
-3.77
-4.39
-4.93
-5.43
-5.91
-6.38
-6.82
-7.18
-7.41
-7.51
-7.45
-7.24
-6.85
-6.28
-5.51
-4.60
-3.65
-2.76
-2.05
-1.54
-1.23
-1.08
-1.08
-1.20
-1.43
-1.73
-2.01
-2.17
-2.12
-1.84
-1.38
-0.88
-0.46
-0.19
-0.09
-0.10
-0.15
-0.20
-0.23
-0.28
-0.35
-0.48
-0.64
-0.80
-0.92
-0.98
-0.95
-0.88
-0.84
-0.94
-1.26
-1.84
-2.60
-3.39
-3.99
-4.26
-4.21
-3.98
-3.84
-4.02
-4.66
-5.69
-6.88
-7.88
-8.41
-8.30
-7.55
-6.32
-4.88
-3.50
-2.34
-1.50
-0.93
-0.52
-0.16
0.19
0.57
0.94
1.30
1.71
2.21
2.86
3.65
4.50
5.27
5.84
6.11
6.08
5.76
5.26
4.68
4.13
3.70
3.45
3.36
3.42
3.55
3.68
3.71
3.55
3.14
2.48
1.64
0.76
0.01
-0.50
-0.77
-0.88
-0.98
-1.15
-1.39
-1.62
-1.72
-1.62
-1.37
-1.07
-0.88
-0.91
-1.15
-1.53
-1.88
-2.06
-1.96
-1.57
-0.98
-0.30
0.31
0.79
1.09
1.26
1.35
1.41
1.43
1.38
1.26
1.10
0.96
0.94
1.07
1.35
1.67
1.94
2.10
2.17
2.20
2.23
2.22
2.15
1.99
1.79
1.65
1.65
1.83
2.10
2.34
2.40
2.22
1.83
1.35
0.90
0.59
0.41
0.31
0.21
0.04
-0.21
-0.50
-0.79
-1.05
-1.27
-1.42
-1.47
-1.39
-1.11
-0.64
-0.08
0.42
0.67
0.58
0.16
-0.44
-1.04
-1.45
-1.57
-1.43
-1.10
-0.72
-0.39
-0.18
-0.13
-0.22
-0.38
-0.55
-0.65
-0.63
-0.49
-0.28
-0.05
0.13
0.22
0.20
0.08
-0.13
-0.44
-0.80
-1.14
-1.38
-1.45
-1.33
-1.07
-0.77
-0.56
-0.51
-0.63
-0.87
-1.15
-1.37
-1.49
-1.51
-1.44
-1.32
-1.17
-1.00
-0.82
-0.66
-0.59
-0.63
-0.80
-1.05
-1.32
-1.52
-1.63
-1.62
-1.54
-1.40
-1.24
-1.09
-0.98
-0.95
-0.99
-1.05
-1.05
-0.94
-0.77
-0.60
-0.52
-0.57
-0.74
-0.99
-1.25
-1.51
-1.75
-1.93
-2.02
-2.00
-1.91
-1.79
-1.70
-1.63
-1.48
-1.13
-0.53
0.24
1.02
1.62
1.94
2.04
2.04
2.11
2.36
2.80
3.38
3.99
4.51
4.85
4.98
4.90
4.70
4.47
4.28
4.18
4.18
4.29
4.54
4.99
5.63
6.44
7.29
8.00
8.36
8.20
7.39
5.90
3.83
1.44
-0.89
-2.73
-3.77
-3.92
-3.34
-2.34
-1.29
-0.42
0.21
0.64
0.97
1.20
1.28
1.11
0.65
-0.04
-0.83
-1.54
-2.03
-2.24
-2.24
-2.11
-2.00
-1.97
-2.03
-2.12
-2.17
-2.16
-2.12
-2.10
-2.13
-2.18
-2.13
-1.86
-1.35
-0.70
-0.13
0.15
0.01
-0.54
-1.34
-2.21
-2.95
-3.46
-3.63
-3.39
-2.72
-1.73
-0.76
-0.27
-0.68
-2.11
-4.25
-6.41
-7.82
-7.95
-6.78
-4.72
-2.43
-0.50
0.81
1.52
1.83
1.92
1.85
1.57
1.07
0.44
-0.16
-0.53
-0.54
-0.24
0.22
0.63
0.82
0.73
0.43
0.06
-0.24
-0.38
-0.37
-0.27
-0.21
-0.26
-0.44
-0.70
-0.93
-1.00
-0.85
-0.51
-0.09
0.28
0.46
0.41
0.14
-0.29
-0.79
-1.28
-1.62
-1.69
-1.39
-0.68
0.33
1.44
2.41
3.04
3.28
3.20
2.97
2.75
2.63
2.58
2.52
2.37
2.10
1.77
1.44
1.20
1.06
0.99
0.92
0.79
0.59
0.34
0.04
-0.27
-0.60
-0.93
-1.22
-1.41
-1.41
-1.22
-0.91
-0.66
-0.66
-1.04
-1.77
-2.63
-3.34
-3.71
-3.71
-3.52
-3.38
-3.44
-3.71
-4.03
-4.20
-4.11
-3.78
-3.32
-2.84
-2.35
-1.76
-0.97
0.02
1.16
2.35
3.52
4.64
5.74
6.86
8.00
9.12
10.16
11.03
11.70
12.25
12.83
13.63
14.74
16.07
17.25
17.73
16.94
14.55
10.58
5.50
0.04
-4.98
-8.88
-11.23
-11.99
-11.41
-9.95
-8.16
-6.57
-5.55
-5.26
-5.58
-6.15
-6.52
-6.30
-5.36
-3.86
-2.23
-0.93
-0.27
-0.29
-0.77
-1.33
-1.64
-1.49
-0.89
0.05
1.13
2.16
2.99
3.53
3.76
3.68
3.33
2.73
1.94
1.03
0.16
-0.53
-0.92
-1.00
-0.89
-0.76
-0.76
-0.97
-1.36
-1.88
-2.45
-3.04
-3.66
-4.24
-4.69
-4.83
-4.49
-3.64
-2.45
-1.23
-0.34
-0.05
-0.40
-1.23
-2.23
-3.07
-3.55
-3.65
-3.48
-3.24
-3.08
-3.07
-3.18
-3.32
-3.37
-3.28
-3.05
-2.73
-2.39
-2.06
-1.76
-1.47
-1.22
-1.00
-0.83
-0.70
-0.59
-0.46
-0.34
-0.21
-0.07
0.08
0.26
0.45
0.67
0.85
0.96
0.99
0.96
0.94
0.99
1.15
1.39
1.64
1.82
1.86
1.77
1.62
1.47
1.39
1.35
1.31
1.19
1.01
0.83
0.73
0.75
0.82
0.81
0.60
0.19
-0.29
-0.66
-0.72
-0.45
0.05
0.54
0.82
0.78
0.44
-0.03
-0.50
-0.86
-1.10
-1.26
-1.41
-1.57
-1.72
-1.82
-1.81
-1.64
-1.31
-0.87
-0.42
-0.12
-0.05
-0.24
-0.62
-1.04
-1.35
-1.50
-1.47
-1.34
-1.15
-0.93
-0.68
-0.40
-0.17
-0.06
-0.13
-0.36
-0.65
-0.89
-0.99
-0.91
-0.70
-0.38
0.02
0.49
0.97
1.36
1.54
1.45
1.12
0.68
0.32
0.19
0.35
0.74
1.23
1.67
1.98
2.13
2.15
2.11
2.06
2.03
2.02
2.00
1.95
1.86
1.75
1.68
1.68
1.75
1.90
2.09
2.26
2.34
2.26
1.98
1.51
0.95
0.40
-0.01
-0.23
-0.25
-0.10
0.17
0.51
0.84
1.10
1.20
1.04
0.61
-0.05
-0.80
-1.47
-1.88
-1.95
-1.70
-1.22
-0.69
-0.25
0.02
0.12
0.12
0.09
0.07
0.03
-0.09
-0.36
-0.83
-1.47
-2.22
-2.93
-3.48
-3.74
-3.63
-3.19
-2.52
-1.76
-1.08
-0.54
-0.16
0.12
0.34
0.52
0.60
0.54
0.33
0.04
-0.20
-0.32
-0.29
-0.15
0.01
0.13
0.20
0.23
0.25
0.23
0.15
0.00
-0.19
-0.35
-0.40
-0.29
-0.07
0.20
0.42
0.55
0.61
0.64
0.69
0.73
0.71
0.53
0.15
-0.36
-0.81
-0.98
-0.77
-0.21
0.53
1.20
1.64
1.82
1.78
1.62
1.39
1.09
0.69
0.22
-0.24
-0.59
-0.75
-0.67
-0.42
-0.09
0.20
0.37
0.39
0.28
0.10
-0.08
-0.21
-0.27
-0.24
-0.16
-0.06
0.01
0.01
-0.06
-0.18
-0.30
-0.37
-0.39
-0.39
-0.39
-0.41
-0.42
-0.37
-0.24
-0.05
0.10
0.14
0.04
-0.16
-0.29
-0.24
0.03
0.43
0.76
0.87
0.73
0.43
0.13
-0.00
0.06
0.27
0.50
0.64
0.67
0.60
0.51
0.43
0.40
0.43
0.50
0.57
0.60
0.53
0.37
0.18
0.06
0.08
0.23
0.42
0.50
0.42
0.22
0.09
0.19
0.57
1.12
1.58
1.74
1.52
1.08
0.69
0.59
0.84
1.29
1.65
1.70
1.37
0.77
0.15
-0.25
-0.29
0.05
0.67
1.40
2.06
2.45
2.44
2.02
1.38
0.87
0.90
1.75
3.34
5.20
6.68
7.20
6.63
5.46
4.65
5.17
7.52
11.41
15.83
19.46
21.35
21.41
20.49
20.04
21.49
25.68
32.59
41.50
51.27
60.49
67.64
71.32
70.80
66.52
60.43
55.52
54.74
59.57
68.95
79.48
86.66
87.15
80.40
69.02
57.53
49.87
47.19
47.06
44.77
35.61
17.09
-10.32
-43.90
-80.36
-117.20
-152.93
-186.28
-215.31
-237.15
-248.87
-248.68
-236.89
-215.98
-189.80
-162.42
-137.28
-116.69
-101.81
-92.71
-88.57
-87.88
-89.01
-90.81
-92.86
-95.50
-99.43
-104.99
-111.57
-117.57
-120.96
-120.11
-114.47
-104.54
-91.26
-75.02
-55.32
-31.19
-2.27
30.19
63.34
93.73
118.70
137.24
149.35
154.74
151.98
139.31
116.81
88.34
61.44
44.72
43.79
58.40
82.52
107.49
126.28
136.44
139.96
140.77
141.53
142.04
139.85
132.36
118.83
100.94
81.79
64.32
50.06
38.84
29.37
20.26
10.91
1.81
-5.87
-10.89
-12.79
-12.11
-10.23
-8.73
-8.65
-10.11
-12.31
-14.11
-14.60
-13.54
-11.44
-9.27
-7.92
-7.85
-8.94
-10.58
-12.05
-12.78
-12.54
-11.47
-9.95
-8.41
-7.22
-6.55
-6.36
-6.43
-6.52
-6.42
-6.07
-5.56
-5.06
-4.77
-4.84
-5.36
-6.30
-7.53
-8.82
-9.89
-10.56
-10.81
-10.85
-10.99
-11.46
-12.31
-13.33
-14.21
-14.66
-14.57
-13.97
-12.96
-11.58
-9.81
-7.60
-5.02
-2.30
0.24
2.31
3.74
4.57
4.97
5.15
5.26
5.36
5.45
5.49
5.51
5.55
5.66
5.86
6.09
6.25
6.27
6.11
5.84
5.61
5.59
5.85
6.40
7.06
7.66
8.01
8.07
7.92
7.73
7.63
7.66
7.74
7.72
7.50
7.08
6.55
6.07
5.75
5.61
5.56
5.44
5.12
4.58
3.91
3.25
2.74
2.45
2.31
2.23
2.11
1.89
1.57
1.20
0.79
0.41
0.06
-0.22
-0.42
-0.54
-0.63
-0.75
-0.95
-1.25
-1.65
-2.12
-2.60
-3.07
-3.48
-3.82
-4.09
-4.30
-4.50
-4.69
-4.90
-5.11
-5.26
-5.32
-5.25
-5.04
-4.71
-4.33
-3.97
-3.74
-3.72
-3.93
-4.29
-4.65
-4.89
-4.89
-4.68
-4.32
-3.88
-3.45
-3.05
-2.69
-2.40
-2.20
-2.11
-2.08
-2.06
-1.99
-1.90
-1.84
-1.91
-2.13
-2.45
-2.74
-2.89
-2.84
-2.64
-2.36
-2.09
-1.89
-1.74
-1.64
-1.58
-1.58
-1.65
-1.82
-2.06
-2.32
-2.55
-2.68
-2.70
-2.62
-2.47
-2.28
-2.03
-1.72
-1.34
-0.95
-0.62
-0.45
-0.46
-0.55
-0.60
-0.49
-0.19
0.21
0.56
0.76
0.78
0.69
0.56
0.45
0.33
0.17
-0.05
-0.31
-0.59
-0.85
-1.10
-1.36
-1.63
-1.89
-2.06
-2.06
-1.88
-1.51
-1.04
-0.54
-0.11
0.24
0.47
0.61
0.69
0.71
0.70
0.65
0.57
0.48
0.41
0.38
0.38
0.40
0.45
0.53
0.64
0.80
1.00
1.22
1.44
1.62
1.77
1.88
1.94
1.93
1.81
1.59
1.29
0.97
0.69
0.49
0.37
0.34
0.37
0.47
0.62
0.77
0.84
0.74
0.42
-0.11
-0.74
-1.32
-1.72
-1.87
-1.78
-1.55
-1.28
-1.08
-0.95
-0.87
-0.79
-0.68
-0.53
-0.38
-0.26
-0.20
-0.22
-0.29
-0.37
-0.44
-0.45
-0.41
-0.32
-0.22
-0.15
-0.17
-0.25
-0.36
-0.45
-0.49
-0.46
-0.42
-0.42
-0.50
-0.63
-0.74
-0.73
-0.55
-0.19
0.22
0.55
0.67
0.57
0.31
0.06
-0.06
-0.01
0.12
0.22
0.18
0.02
-0.15
-0.18
-0.00
0.33
0.67
0.88
0.86
0.65
0.36
0.09
-0.11
-0.28
-0.47
-0.73
-1.02
-1.27
-1.39
-1.29
-0.98
-0.57
-0.20
-0.02
-0.07
-0.25
-0.43
-0.48
-0.38
-0.20
-0.04
0.05
0.10
0.19
0.38
0.67
0.95
1.11
1.09
0.96
0.81
0.73
0.75
0.80
0.79
0.65
0.40
0.08
-0.21
-0.43
-0.51
-0.41
-0.08
0.45
1.09
1.70
2.13
2.30
2.24
2.07
1.95
1.98
2.20
2.55
2.94
3.24
3.38
3.32
3.09
2.74
2.40
2.16
2.11
2.24
2.49
2.75
2.91
2.91
2.74
2.45
2.12
1.84
1.68
1.64
1.71
1.78
1.74
1.53
1.18
0.83
0.61
0.60
0.75
0.90
0.87
0.57
0.05
-0.55
-1.04
-1.32
-1.42
-1.45
-1.54
-1.81
-2.25
-2.83
-3.43
-3.93
-4.24
-4.31
-4.18
-3.95
-3.71
-3.53
-3.41
-3.33
-3.24
-3.17
-3.13
-3.13
-3.10
-2.90
-2.45
-1.72
-0.86
-0.08
0.43
0.59
0.46
0.25
0.20
0.45
1.01
1.74
2.46
2.98
3.22
3.23
3.12
3.01
2.98
3.01
3.04
3.02
2.97
2.93
2.95
3.04
3.12
3.10
2.96
2.70
2.41
2.14
1.91
1.68
1.39
1.02
0.56
0.07
-0.42
-0.87
-1.31
-1.75
-2.22
-2.75
-3.32
-3.95
-4.57
-5.14
-5.57
-5.83
-5.91
-5.85
-5.69
-5.43
-5.06
-4.56
-3.93
-3.23
-2.60
-2.10
-1.79
-1.60
-1.42
-1.20
-0.93
-0.70
-0.60
-0.65
-0.77
-0.81
-0.64
-0.26
0.21
0.58
0.68
0.46
-0.03
-0.59
-1.03
-1.22
-1.12
-0.76
-0.29
0.16
0.46
0.52
0.38
0.10
-0.19
-0.40
-0.49
-0.47
-0.44
-0.43
-0.47
-0.50
-0.47
-0.36
-0.19
-0.05
0.02
-0.01
-0.08
-0.14
-0.13
-0.05
0.08
0.21
0.30
0.35
0.36
0.34
0.30
0.24
0.17
0.12
0.04
-0.07
-0.21
-0.30
-0.25
0.02
0.44
0.86
1.06
0.89
0.39
-0.26
-0.82
-1.07
-0.99
-0.66
-0.25
0.10
0.33
0.44
0.49
0.49
0.45
0.32
0.11
-0.14
-0.32
-0.33
-0.13
0.23
0.59
0.81
0.80
0.59
0.29
0.07
0.02
0.13
0.29
0.35
0.25
-0.02
-0.34
-0.56
-0.58
-0.39
-0.10
0.13
0.17
-0.02
-0.36
-0.71
-0.95
-1.04
-0.99
-0.88
-0.75
-0.63
-0.52
-0.41
-0.30
-0.19
-0.08
0.03
0.15
0.29
0.43
0.54
0.56
0.51
0.37
0.20
0.04
-0.06
-0.08
0.00
0.16
0.38
0.61
0.82
0.95
0.99
0.91
0.74
0.53
0.33
0.19
0.13
0.14
0.20
0.25
0.24
0.13
-0.10
-0.39
-0.69
-0.90
-0.94
-0.78
-0.45
-0.06
0.29
0.52
0.61
0.63
0.64
0.68
0.73
0.69
0.50
0.15
-0.27
-0.65
-0.89
-0.96
-0.92
-0.81
-0.69
-0.54
-0.35
-0.11
0.11
0.28
0.34
0.32
0.28
0.25
0.23
0.20
0.12
0.01
-0.09
-0.16
-0.18
-0.15
-0.07
0.07
0.30
0.58
0.87
1.04
1.00
0.72
0.26
-0.23
-0.59
-0.68
-0.52
-0.17
0.22
0.49
0.57
0.44
0.16
-0.16
-0.42
-0.56
-0.56
-0.46
-0.30
-0.14
-0.03
0.01
0.01
-0.01
0.01
0.07
0.12
0.09
-0.09
-0.42
-0.79
-1.05
-1.09
-0.87
-0.48
-0.10
0.10
0.02
-0.31
-0.74
-1.13
-1.34
-1.36
-1.22
-1.02
-0.81
-0.60
-0.38
-0.13
0.14
0.34
0.40
0.29
0.06
-0.15
-0.23
-0.09
0.24
0.64
0.97
1.14
1.12
0.94
0.69
0.42
0.15
-0.08
-0.24
-0.29
-0.21
-0.04
0.12
0.15
0.02
-0.25
-0.51
-0.66
-0.63
-0.45
-0.23
-0.06
0.02
0.01
-0.07
-0.17
-0.28
-0.35
-0.31
-0.12
0.25
0.74
1.22
1.56
1.67
1.49
1.05
0.43
-0.25
-0.84
-1.23
-1.31
-1.06
-0.51
0.21
0.95
1.54
1.86
1.83
1.50
1.00
0.50
0.15
0.01
0.04
0.10
0.09
-0.02
-0.19
-0.33
-0.37
-0.33
-0.25
-0.18
-0.14
-0.11
-0.07
0.01
0.10
0.18
0.25
0.30
0.36
0.44
0.55
0.67
0.75
0.76
0.70
0.57
0.43
0.34
0.32
0.33
0.32
0.21
0.01
-0.21
-0.33
-0.27
-0.03
0.30
0.59
0.71
0.63
0.39
0.07
-0.25
-0.51
-0.70
-0.83
-0.93
-0.97
-0.91
-0.71
-0.33
0.18
0.71
1.13
1.33
1.32
1.16
0.96
0.78
0.62
0.42
0.15
-0.20
-0.55
-0.82
-0.94
-0.92
-0.81
-0.65
-0.50
-0.37
-0.28
-0.25
-0.25
-0.28
-0.31
-0.33
-0.32
-0.30
-0.30
-0.37
-0.51
-0.71
-0.95
-1.15
-1.27
-1.25
-1.10
-0.83
-0.50
-0.19
0.08
0.26
0.37
0.39
0.30
0.11
-0.18
-0.53
-0.85
-1.07
-1.12
-1.00
-0.71
-0.34
0.01
0.27
0.38
0.34
0.18
-0.04
-0.27
-0.45
-0.51
-0.44
-0.22
0.13
0.53
0.86
1.01
0.89
0.51
0.01
-0.44
-0.62
-0.47
-0.06
0.41
0.71
0.70
0.41
0.03
-0.19
-0.17
0.04
0.23
0.21
-0.07
-0.50
-0.84
-0.93
-0.71
-0.29
0.17
0.52
0.71
0.76
0.75
0.72
0.70
0.67
0.63
0.57
0.49
0.44
0.47
0.63
0.89
1.15
1.26
1.12
0.73
0.19
-0.30
-0.58
-0.61
-0.43
-0.20
-0.00
0.11
0.18
0.30
0.49
0.71
0.85
0.84
0.64
0.31
-0.04
-0.28
-0.35
-0.27
-0.10
0.09
0.27
0.46
0.69
0.99
1.33
1.62
1.78
1.73
1.50
1.16
0.82
0.61
0.58
0.74
1.05
1.47
1.93
2.35
2.67
2.85
2.87
2.76
2.59
2.41
2.26
2.12
1.98
1.80
1.62
1.44
1.29
1.15
0.94
0.61
0.11
-0.49
-1.11
-1.63
-1.96
-2.11
-2.13
-2.10
-2.10
-2.16
-2.32
-2.57
-2.88
-3.20
-3.43
-3.49
-3.30
-2.87
-2.25
-1.57
-0.96
-0.50
-0.21
-0.09
-0.11
-0.24
-0.44
-0.67
-0.88
-0.99
-0.97
-0.80
-0.53
-0.22
0.01
0.10
0.02
-0.18
-0.41
-0.58
-0.67
-0.71
-0.77
-0.89
-1.01
-1.04
-0.90
-0.61
-0.28
-0.08
-0.12
-0.35
-0.64
-0.83
-0.85
-0.74
-0.63
-0.60
-0.68
-0.79
-0.85
-0.79
-0.64
-0.45
-0.27
-0.11
0.02
0.12
0.17
0.12
-0.04
-0.26
-0.48
-0.63
-0.68
-0.67
-0.64
-0.68
-0.85
-1.11
-1.38
-1.53
-1.46
-1.14
-0.65
-0.16
0.16
0.18
-0.12
-0.61
-1.14
-1.51
-1.63
-1.50
-1.18
-0.82
-0.49
-0.23
-0.03
0.17
0.38
0.58
0.72
0.75
0.71
0.67
0.72
0.90
1.18
1.46
1.66
1.78
1.87
2.05
2.35
2.69
2.94
2.99
2.79
2.43
2.04
1.76
1.62
1.60
1.59
1.52
1.37
1.18
1.05
1.03
1.13
1.28
1.39
1.38
1.21
0.91
0.56
0.20
-0.14
-0.43
-0.70
-0.96
-1.20
-1.43
-1.61
-1.71
-1.67
-1.49
-1.19
-0.83
-0.50
-0.28
-0.18
-0.16
-0.17
-0.18
-0.18
-0.18
-0.18
-0.16
-0.13
-0.09
-0.08
-0.17
-0.41
-0.73
-1.05
-1.22
-1.12
-0.75
-0.22
0.26
0.52
0.48
0.21
-0.10
-0.28
-0.21
0.06
0.39
0.60
0.61
0.41
0.10
-0.18
-0.35
-0.37
-0.27
-0.12
0.04
0.18
0.31
0.42
0.50
0.53
0.45
0.21
-0.14
-0.53
-0.83
-0.91
-0.73
-0.34
0.12
0.50
0.65
0.58
0.38
0.20
0.18
0.35
0.64
0.89
0.99
0.88
0.64
0.41
0.28
0.28
0.38
0.47
0.52
0.53
0.56
0.64
0.73
0.76
0.68
0.47
0.20
-0.01
-0.05
0.11
0.41
0.76
1.01
1.13
1.10
0.97
0.80
0.60
0.35
0.04
-0.30
-0.63
-0.87
-0.95
-0.86
-0.65
-0.40
-0.20
-0.11
-0.18
-0.40
-0.69
-1.01
-1.27
-1.45
-1.55
-1.58
-1.51
-1.32
-1.02
-0.64
-0.30
-0.14
-0.21
-0.48
-0.83
-1.10
-1.21
-1.20
-1.17
-1.19
-1.27
-1.33
-1.28
-1.12
-0.89
-0.71
-0.62
-0.62
-0.65
-0.64
-0.57
-0.48
-0.42
-0.40
-0.40
-0.39
-0.38
-0.41
-0.51
-0.67
-0.82
-0.84
-0.68
-0.37
-0.03
0.16
0.08
-0.27
-0.75
-1.18
-1.42
-1.43
-1.30
-1.13
-1.04
-1.05
-1.10
-1.09
-0.95
-0.66
-0.28
0.06
0.25
0.23
0.02
-0.28
-0.54
-0.66
-0.61
-0.44
-0.24
-0.09
-0.02
0.02
0.14
0.43
0.90
1.47
1.96
2.20
2.10
1.69
1.13
0.64
0.35
0.28
0.36
0.42
0.37
0.18
-0.05
-0.23
-0.26
-0.17
-0.03
0.06
0.04
-0.09
-0.27
-0.42
-0.51
-0.57
-0.63
-0.71
-0.80
-0.82
-0.71
-0.47
-0.19
-0.03
-0.13
-0.50
-1.01
-1.44
-1.59
-1.37
-0.85
-0.21
0.33
0.67
0.84
0.95
1.09
1.28
1.46
1.55
1.50
1.36
1.25
1.26
1.40
1.58
1.67
1.58
1.34
1.02
0.75
0.58
0.55
0.62
0.75
0.91
1.06
1.13
1.07
0.89
0.67
0.52
0.54
0.70
0.87
0.92
0.75
0.43
0.08
-0.16
-0.24
-0.23
-0.24
-0.36
-0.56
-0.76
-0.85
-0.80
-0.65
-0.52
-0.49
-0.56
-0.69
-0.74
-0.66
-0.39
-0.00
0.45
0.90
1.31
1.67
1.94
2.09
2.06
1.86
1.55
1.23
1.01
0.93
0.99
1.14
1.33
1.50
1.57
1.52
1.31
0.98
0.60
0.28
0.10
0.07
0.12
0.13
0.03
-0.19
-0.44
-0.64
-0.73
-0.76
-0.81
-0.98
-1.27
-1.63
-1.93
-2.04
-1.96
-1.75
-1.52
-1.38
-1.38
-1.46
-1.52
-1.49
-1.34
-1.13
-0.98
-0.94
-1.05
-1.24
-1.41
-1.46
-1.32
-1.03
-0.66
-0.35
-0.22
-0.31
-0.57
-0.87
-1.08
-1.09
-0.89
-0.57
-0.26
-0.08
-0.07
-0.17
-0.26
-0.24
-0.08
0.19
0.48
0.72
0.89
1.03
1.17
1.33
1.47
1.52
1.46
1.30
1.13
1.02
1.03
1.12
1.20
1.20
1.06
0.81
0.50
0.23
0.06
-0.00
-0.01
-0.02
-0.04
-0.08
-0.09
-0.04
0.05
0.10
0.05
-0.13
-0.42
-0.69
-0.84
-0.80
-0.59
-0.31
-0.06
0.08
0.10
0.01
-0.14
-0.31
-0.46
-0.58
-0.67
-0.76
-0.86
-0.98
-1.09
-1.13
-1.05
-0.83
-0.52
-0.23
-0.07
-0.07
-0.22
-0.41
-0.56
-0.62
-0.60
-0.55
-0.50
-0.49
-0.52
-0.58
-0.64
-0.70
-0.72
-0.68
-0.58
-0.40
-0.13
0.22
0.62
1.04
1.44
1.76
1.98
2.11
2.15
2.12
2.01
1.76
1.36
0.86
0.35
-0.04
-0.23
-0.20
0.01
0.36
0.78
1.25
1.72
2.13
2.43
2.55
2.47
2.17
1.72
1.15
0.53
-0.08
-0.63
-1.08
-1.43
-1.69
-1.85
-1.93
-1.89
-1.75
-1.56
-1.42
-1.42
-1.59
-1.88
-2.18
-2.39
-2.46
-2.44
-2.36
-2.24
-2.07
-1.81
-1.46
-1.06
-0.70
-0.45
-0.33
-0.30
-0.35
-0.42
-0.51
-0.60
-0.63
-0.54
-0.28
0.18
0.76
1.36
1.82
2.05
2.02
1.81
1.54
1.36
1.29
1.32
1.33
1.27
1.10
0.87
0.67
0.55
0.50
0.48
0.44
0.38
0.32
0.30
0.34
0.46
0.64
0.84
1.04
1.20
1.28
1.27
1.18
1.05
0.90
0.75
0.56
0.33
0.06
-0.15
-0.20
-0.03
0.34
0.82
1.24
1.52
1.66
1.75
1.90
2.18
2.57
2.93
3.09
2.92
2.41
1.67
0.91
0.37
0.17
0.29
0.61
0.94
1.17
1.24
1.17
1.01
0.77
0.43
-0.03
-0.54
-1.00
-1.26
-1.27
-1.09
-0.90
-0.85
-1.03
-1.36
-1.69
-1.84
-1.77
-1.54
-1.32
-1.23
-1.33
-1.55
-1.79
-1.93
-1.96
-1.90
-1.81
-1.74
-1.69
-1.64
-1.53
-1.36
-1.15
-0.95
-0.83
-0.86
-1.04
-1.34
-1.69
-1.96
-2.06
-1.93
-1.57
-1.10
-0.63
-0.26
0.02
0.23
0.43
0.62
0.77
0.80
0.72
0.58
0.48
0.50
0.60
0.65
0.53
0.18
-0.32
-0.78
-1.03
-0.97
-0.65
-0.22
0.14
0.30
0.26
0.08
-0.11
-0.22
-0.20
-0.09
0.07
0.21
0.34
0.46
0.61
0.76
0.85
0.82
0.62
0.30
-0.05
-0.33
-0.45
-0.42
-0.27
-0.11
-0.02
-0.01
-0.08
-0.13
-0.11
0.02
0.23
0.44
0.54
0.53
0.45
0.41
0.52
0.78
1.13
1.41
1.46
1.22
0.75
0.21
-0.20
-0.37
-0.31
-0.14
-0.02
-0.05
-0.23
-0.46
-0.61
-0.58
-0.40
-0.21
-0.11
-0.20
-0.43
-0.69
-0.87
-0.91
-0.83
-0.68
-0.53
-0.38
-0.25
-0.11
-0.01
0.04
0.03
-0.03
-0.09
-0.10
-0.04
0.07
0.21
0.35
0.45
0.46
0.35
0.13
-0.17
-0.48
-0.69
-0.76
-0.69
-0.52
-0.31
-0.10
0.09
0.28
0.44
0.54
0.52
0.39
0.17
-0.08
-0.30
-0.45
-0.50
-0.43
-0.27
-0.02
0.25
0.46
0.54
0.45
0.25
0.06
0.00
0.13
0.37
0.58
0.64
0.46
0.11
-0.32
-0.71
-0.99
-1.15
-1.18
-1.07
-0.82
-0.44
0.00
0.40
0.65
0.73
0.69
0.64
0.68
0.82
1.04
1.27
1.45
1.54
1.52
1.37
1.09
0.72
0.31
-0.05
-0.31
-0.43
-0.42
-0.33
-0.20
-0.05
0.08
0.19
0.23
0.19
0.06
-0.13
-0.30
-0.36
-0.30
-0.14
0.01
0.05
-0.08
-0.35
-0.63
-0.78
-0.75
-0.58
-0.38
-0.28
-0.30
-0.37
-0.40
-0.33
-0.18
-0.04
-0.03
-0.18
-0.44
-0.69
-0.80
-0.72
-0.45
-0.12
0.13
0.18
-0.00
-0.32
-0.60
-0.70
-0.53
-0.15
0.29
0.60
0.70
0.62
0.46
0.34
0.31
0.32
0.28
0.17
0.03
-0.01
0.11
0.38
0.67
0.80
0.69
0.34
-0.12
-0.52
-0.75
-0.79
-0.66
-0.41
-0.11
0.19
0.41
0.47
0.32
-0.01
-0.38
-0.68
-0.81
-0.77
-0.64
-0.52
-0.40
-0.24
0.03
0.42
0.83
1.12
1.13
0.85
0.37
-0.12
-0.48
-0.61
-0.56
-0.45
-0.40
-0.50
-0.71
-0.97
-1.18
-1.23
-1.13
-0.90
-0.62
-0.38
-0.23
-0.20
-0.26
-0.36
-0.48
-0.62
-0.79
-1.00
-1.19
-1.26
-1.12
-0.75
-0.26
0.17
0.36
0.25
-0.07
-0.42
-0.60
-0.57
-0.38
-0.21
-0.18
-0.29
-0.45
-0.54
-0.47
-0.25
0.01
0.23
0.39
0.52
0.64
0.77
0.87
0.88
0.79
0.60
0.37
0.14
-0.11
-0.35
-0.58
-0.73
-0.71
-0.52
-0.23
0.03
0.15
0.08
-0.06
-0.18
-0.18
-0.08
0.03
0.08
0.06
0.04
0.06
0.16
0.27
0.31
0.25
0.16
0.17
0.38
0.80
1.34
1.79
1.98
1.85
1.43
0.90
0.45
0.22
0.25
0.44
0.62
0.61
0.38
0.02
-0.30
-0.43
-0.33
-0.08
0.24
0.53
0.81
1.11
1.44
1.76
1.97
1.99
1.79
1.44
1.03
0.62
0.27
-0.04
-0.29
-0.45
-0.49
-0.43
-0.29
-0.14
-0.06
-0.06
-0.17
-0.35
-0.54
-0.67
-0.71
-0.63
-0.43
-0.17
0.08
0.24
0.24
0.09
-0.15
-0.40
-0.57
-0.60
-0.54
-0.46
-0.43
-0.48
-0.57
-0.65
-0.71
-0.74
-0.80
-0.89
-0.96
-0.91
-0.69
-0.34
0.02
0.21
0.14
-0.16
-0.55
-0.85
-0.94
-0.78
-0.42
0.04
0.48
0.79
0.91
0.82
0.57
0.29
0.15
0.24
0.54
0.91
1.17
1.19
1.01
0.79
0.71
0.85
1.15
1.44
1.56
1.45
1.21
0.99
0.95
1.12
1.41
1.65
1.69
1.50
1.12
0.70
0.34
0.11
-0.00
-0.02
0.04
0.20
0.45
0.76
1.01
1.07
0.84
0.31
-0.40
-1.10
-1.64
-1.91
-1.95
-1.85
-1.73
-1.64
-1.57
-1.49
-1.36
-1.18
-1.01
-0.89
-0.85
-0.88
-0.92
-0.88
-0.74
-0.48
-0.18
0.06
0.18
0.16
0.04
-0.08
-0.10
0.05
0.35
0.72
1.04
1.18
1.06
0.69
0.14
-0.41
-0.77
-0.83
-0.61
-0.22
0.14
0.32
0.26
0.06
-0.14
-0.22
-0.15
-0.04
-0.01
-0.14
-0.39
-0.63
-0.72
-0.56
-0.17
0.30
0.65
0.76
0.57
0.17
-0.28
-0.62
-0.75
-0.66
-0.47
-0.29
-0.23
-0.29
-0.36
-0.34
-0.14
0.20
0.56
0.77
0.70
0.38
-0.07
-0.46
-0.68
-0.74
-0.71
-0.71
-0.77
-0.81
-0.72
-0.44
0.00
0.43
0.68
0.67
0.46
0.26
0.24
0.46
0.85
1.24
1.49
1.57
1.53
1.49
1.47
1.45
1.37
1.19
0.97
0.83
0.88
1.14
1.54
1.93
2.19
2.23
2.06
1.72
1.31
0.91
0.63
0.53
0.59
0.71
0.74
0.56
0.15
-0.42
-0.98
-1.38
-1.60
-1.72
-1.86
-2.09
-2.42
-2.73
-2.92
-2.93
-2.76
-2.51
-2.28
-2.14
-2.10
-2.11
-2.13
-2.15
-2.17
-2.20
-2.25
-2.31
-2.34
-2.35
-2.30
-2.23
-2.13
-2.05
-1.97
-1.89
-1.75
-1.52
-1.17
-0.71
-0.20
0.28
0.64
0.84
0.92
0.98
1.13
1.43
1.84
2.25
2.56
2.69
2.68
2.61
2.62
2.76
2.98
3.18
3.25
3.12
2.84
2.49
2.16
1.88
1.59
1.23
0.75
0.24
-0.15
-0.30
-0.20
0.05
0.23
0.19
-0.09
-0.50
-0.89
-1.14
-1.22
-1.21
-1.18
-1.15
-1.08
-0.93
-0.66
-0.29
0.11
0.48
0.73
0.80
0.67
0.38
0.01
-0.34
-0.58
-0.72
-0.78
-0.84
-0.89
-0.87
-0.71
-0.34
0.15
0.62
0.91
0.92
0.66
0.26
-0.14
-0.42
-0.54
-0.49
-0.35
-0.18
-0.05
-0.01
-0.02
-0.06
-0.09
-0.11
-0.16
-0.28
-0.49
-0.71
-0.85
-0.83
-0.64
-0.39
-0.22
-0.22
-0.41
-0.68
-0.91
-0.98
-0.87
-0.67
-0.52
-0.51
-0.69
-0.96
-1.22
-1.35
-1.31
-1.13
-0.90
-0.69
-0.52
-0.36
-0.16
0.08
0.34
0.50
0.51
0.32
0.02
-0.26
-0.36
-0.19
0.25
0.82
1.35
1.69
1.75
1.59
1.30
1.02
0.83
0.72
0.65
0.55
0.43
0.29
0.23
0.29
0.53
0.92
1.34
1.66
1.73
1.50
1.03
0.48
0.03
-0.18
-0.18
-0.09
-0.03
-0.06
-0.14
-0.15
-0.02
0.21
0.39
0.37
0.09
-0.40
-0.92
-1.27
-1.36
-1.20
-0.90
-0.60
-0.39
-0.27
-0.21
-0.14
-0.04
0.09
0.18
0.18
0.04
-0.22
-0.52
-0.72
-0.75
-0.59
-0.33
-0.13
-0.08
-0.19
-0.30
-0.26
0.01
0.43
0.80
0.92
0.71
0.29
-0.10
-0.24
-0.05
0.35
0.76
1.04
1.15
1.20
1.29
1.49
1.72
1.91
1.93
1.79
1.52
1.23
0.98
0.80
0.69
0.58
0.42
0.16
-0.18
-0.52
-0.77
-0.83
-0.71
-0.52
-0.40
-0.45
-0.66
-0.90
-1.03
-1.00
-0.86
-0.74
-0.72
-0.81
-0.97
-1.08
-1.12
-1.09
-1.06
-1.03
-1.01
-0.93
-0.75
-0.49
-0.21
0.02
0.14
0.15
0.06
-0.09
-0.26
-0.40
-0.46
-0.42
-0.25
0.01
0.26
0.43
0.44
0.32
0.15
0.05
0.09
0.26
0.46
0.59
0.63
0.61
0.62
0.72
0.83
0.85
0.65
0.26
-0.19
-0.50
-0.50
-0.19
0.30
0.73
0.92
0.81
0.47
0.06
-0.32
-0.60
-0.77
-0.86
-0.87
-0.75
-0.50
-0.13
0.27
0.60
0.74
0.65
0.37
0.01
-0.32
-0.52
-0.60
-0.59
-0.56
-0.55
-0.57
-0.59
-0.60
-0.58
-0.54
-0.48
-0.40
-0.29
-0.14
0.03
0.23
0.40
0.53
0.61
0.66
0.67
0.65
0.60
0.52
0.41
0.28
0.11
-0.10
-0.37
-0.66
-0.92
-1.05
-0.95
-0.60
-0.09
0.42
0.76
0.85
0.68
0.37
0.02
-0.29
-0.53
-0.71
-0.84
-0.86
-0.75
-0.47
-0.08
0.30
0.56
0.66
0.61
0.52
0.47
0.53
0.64
0.74
0.73
0.59
0.36
0.12
0.01
0.09
0.37
0.78
1.21
1.57
1.78
1.81
1.68
1.40
1.02
0.58
0.14
-0.26
-0.59
-0.81
-0.91
-0.91
-0.84
-0.71
-0.54
-0.36
-0.17
-0.00
0.08
0.05
-0.14
-0.46
-0.82
-1.12
-1.30
-1.32
-1.23
-1.10
-0.99
-0.94
-0.97
-1.04
-1.10
-1.13
-1.06
-0.89
-0.62
-0.29
0.06
0.34
0.50
0.49
0.32
0.06
-0.21
-0.39
-0.44
-0.35
-0.19
-0.02
0.15
0.31
0.47
0.62
0.71
0.67
0.48
0.19
-0.11
-0.30
-0.38
-0.37
-0.34
-0.32
-0.29
-0.22
-0.10
0.03
0.09
0.04
-0.11
-0.26
-0.33
-0.29
-0.17
-0.04
0.06
0.15
0.29
0.52
0.78
0.96
0.93
0.65
0.22
-0.19
-0.39
-0.33
-0.05
0.27
0.47
0.45
0.28
0.07
-0.06
-0.09
-0.07
-0.09
-0.20
-0.35
-0.45
-0.45
-0.31
-0.11
0.08
0.21
0.26
0.29
0.35
0.47
0.64
0.82
0.97
1.04
1.03
0.93
0.75
0.52
0.25
-0.00
-0.20
-0.29
-0.26
-0.11
0.09
0.26
0.31
0.22
-0.00
-0.26
-0.47
-0.57
-0.55
-0.46
-0.41
-0.46
-0.61
-0.80
-0.91
-0.84
-0.56
-0.15
0.28
0.58
0.67
0.56
0.33
0.11
-0.02
-0.02
0.07
0.17
0.22
0.18
0.10
0.08
0.19
0.48
0.85
1.14
1.19
0.93
0.45
-0.04
-0.35
-0.36
-0.15
0.07
0.09
-0.17
-0.63
-1.11
-1.37
-1.34
-1.02
-0.58
-0.19
0.06
0.13
0.05
-0.12
-0.33
-0.57
-0.78
-0.94
-0.98
-0.89
-0.65
-0.34
-0.05
0.15
0.20
0.12
-0.03
-0.20
-0.29
-0.25
-0.05
0.33
0.83
1.35
1.77
1.96
1.86
1.47
0.91
0.33
-0.11
-0.33
-0.32
-0.17
0.04
0.21
0.28
0.26
0.17
0.05
-0.13
-0.36
-0.62
-0.80
-0.80
-0.53
-0.02
0.58
1.04
1.17
0.94
0.45
-0.10
-0.52
-0.70
-0.66
-0.48
-0.25
-0.01
0.19
0.32
0.32
0.17
-0.09
-0.33
-0.42
-0.27
0.10
0.54
0.93
1.16
1.21
1.18
1.12
1.10
1.08
1.03
0.88
0.65
0.41
0.26
0.26
0.42
0.65
0.82
0.81
0.55
0.07
-0.54
-1.15
-1.65
-1.97
-2.06
-1.95
-1.69
-1.39
-1.15
-1.07
-1.14
-1.28
-1.36
-1.28
-1.05
-0.74
-0.47
-0.30
-0.24
-0.21
-0.14
0.00
0.18
0.32
0.35
0.28
0.14
0.03
0.02
0.15
0.38
0.62
0.79
0.83
0.78
0.69
0.64
0.64
0.65
0.58
0.34
-0.03
-0.43
-0.70
-0.74
-0.54
-0.17
0.23
0.55
0.74
0.78
0.68
0.44
0.09
-0.31
-0.69
-0.94
-1.02
-0.90
-0.62
-0.24
0.13
0.42
0.53
0.41
0.12
-0.27
-0.58
-0.70
-0.58
-0.28
0.09
0.38
0.51
0.50
0.39
0.24
0.09
-0.04
-0.16
-0.25
-0.26
-0.17
0.01
0.25
0.45
0.55
0.51
0.36
0.13
-0.07
-0.21
-0.25
-0.22
-0.14
-0.07
-0.04
-0.02
-0.00
0.08
0.24
0.45
0.67
0.80
0.78
0.63
0.38
0.11
-0.13
-0.29
-0.37
-0.36
-0.26
-0.06
0.21
0.48
0.67
0.72
0.60
0.36
0.08
-0.14
-0.27
-0.27
-0.18
-0.03
0.15
0.31
0.38
0.32
0.09
-0.26
-0.60
-0.80
-0.75
-0.48
-0.09
0.27
0.46
0.41
0.20
-0.04
-0.19
-0.19
-0.08
0.03
0.05
-0.06
-0.24
-0.39
-0.40
-0.24
0.02
0.24
0.32
0.21
-0.05
-0.39
-0.72
-1.00
-1.21
-1.35
-1.40
-1.30
-1.04
-0.62
-0.09
0.44
0.82
0.96
0.82
0.45
-0.02
-0.43
-0.66
-0.67
-0.51
-0.28
-0.10
-0.01
0.00
-0.01
-0.01
-0.01
-0.03
-0.11
-0.24
-0.36
-0.39
-0.31
-0.11
0.12
0.30
0.35
0.27
0.13
0.02
0.03
0.16
0.34
0.45
0.39
0.14
-0.23
-0.61
-0.85
-0.90
-0.81
-0.66
-0.57
-0.54
-0.54
-0.45
-0.21
0.16
0.52
0.74
0.74
0.53
0.23
-0.04
-0.20
-0.28
-0.36
-0.47
-0.60
-0.65
-0.54
-0.26
0.08
0.36
0.46
0.39
0.19
-0.02
-0.17
-0.20
-0.11
0.11
0.41
0.73
0.94
0.94
0.71
0.33
-0.02
-0.12
0.11
0.63
1.27
1.83
2.16
2.24
2.12
1.88
1.57
1.19
0.74
0.24
-0.21
-0.47
-0.45
-0.15
0.27
0.62
0.71
0.48
0.01
-0.52
-0.94
-1.15
-1.16
-1.05
-0.87
-0.63
-0.30
0.11
0.54
0.87
1.02
0.96
0.78
0.59
0.48
0.47
0.46
0.38
0.18
-0.11
-0.39
-0.59
-0.63
-0.52
-0.34
-0.17
-0.10
-0.18
-0.41
-0.71
-0.96
-1.10
-1.09
-0.99
-0.89
-0.86
-0.93
-1.07
-1.16
-1.14
-0.97
-0.68
-0.36
-0.12
-0.01
-0.03
-0.13
-0.21
-0.23
-0.19
-0.13
-0.14
-0.24
-0.39
-0.48
-0.45
-0.27
-0.02
0.16
0.18
0.01
-0.26
-0.49
-0.56
-0.45
-0.22
0.00
0.12
0.12
0.08
0.13
0.33
0.67
1.04
1.28
1.26
0.97
0.49
-0.03
-0.44
-0.63
-0.58
-0.36
-0.06
0.24
0.48
0.65
0.74
0.77
0.75
0.68
0.60
0.51
0.44
0.40
0.39
0.42
0.47
0.51
0.53
0.49
0.36
0.16
-0.04
-0.17
-0.18
-0.08
0.10
0.29
0.43
0.50
0.48
0.38
0.19
-0.10
-0.44
-0.73
-0.85
-0.70
-0.28
0.29
0.76
0.93
0.68
0.09
-0.62
-1.17
-1.38
-1.26
-0.93
-0.61
-0.40
-0.29
-0.19
-0.00
0.26
0.48
0.52
0.28
-0.20
-0.78
-1.28
-1.54
-1.53
-1.31
-0.99
-0.67
-0.44
-0.31
-0.22
-0.11
0.10
0.40
0.74
1.01
1.08
0.92
0.59
0.25
0.05
0.07
0.27
0.49
0.61
0.57
0.42
0.28
0.26
0.37
0.52
0.62
0.61
0.53
0.45
0.46
0.56
0.71
0.86
0.91
0.83
0.63
0.35
0.05
-0.21
-0.39
-0.48
-0.50
-0.49
-0.46
-0.39
-0.26
-0.05
0.17
0.26
0.11
-0.28
-0.81
-1.30
-1.56
-1.53
-1.26
-0.87
-0.45
-0.06
0.31
0.66
0.94
1.06
0.95
0.61
0.13
-0.35
-0.72
-0.94
-1.01
-0.98
-0.91
-0.84
-0.78
-0.75
-0.71
-0.64
-0.51
-0.33
-0.13
0.02
0.08
0.01
-0.13
-0.23
-0.20
-0.00
0.30
0.57
0.65
0.46
0.00
-0.56
-1.03
-1.20
-0.99
-0.47
0.16
0.64
0.78
0.54
-0.00
-0.63
-1.13
-1.36
-1.28
-0.95
-0.47
0.03
0.46
0.75
0.91
0.93
0.86
0.76
0.67
0.64
0.67
0.72
0.75
0.75
0.70
0.63
0.55
0.45
0.31
0.15
0.01
-0.03
0.04
0.20
0.34
0.37
0.26
0.05
-0.13
-0.21
-0.20
-0.17
-0.21
-0.33
-0.46
-0.45
-0.21
0.23
0.75
1.19
1.42
1.43
1.27
1.03
0.79
0.62
0.48
0.34
0.19
0.03
-0.11
-0.16
-0.08
0.11
0.34
0.51
0.53
0.39
0.17
-0.01
-0.05
0.07
0.24
0.35
0.29
0.05
-0.29
-0.59
-0.76
-0.75
-0.58
-0.36
-0.15
-0.04
-0.05
-0.20
-0.47
-0.81
-1.19
-1.53
-1.77
-1.82
-1.65
-1.24
-0.67
-0.06
0.40
0.59
0.46
0.09
-0.34
-0.65
-0.76
-0.68
-0.50
-0.29
-0.08
0.16
0.45
0.76
1.02
1.13
1.07
0.86
0.58
0.31
0.09
-0.07
-0.19
-0.30
-0.41
-0.55
-0.72
-0.90
-1.04
-1.06
-0.90
-0.58
-0.20
0.12
0.30
0.34
0.35
0.43
0.63
0.87
1.03
1.01
0.80
0.53
0.34
0.30
0.40
0.51
0.55
0.48
0.38
0.36
0.44
0.57
0.63
0.54
0.28
-0.05
-0.29
-0.33
-0.15
0.18
0.55
0.84
0.98
0.94
0.73
0.39
-0.03
-0.45
-0.77
-0.97
-1.04
-1.01
-0.96
-0.91
-0.90
-0.91
-0.90
-0.86
-0.77
-0.66
-0.54
-0.41
-0.31
-0.22
-0.16
-0.14
-0.14
-0.16
-0.15
-0.11
-0.05
0.01
0.07
0.11
0.14
0.18
0.21
0.23
0.21
0.17
0.15
0.20
0.35
0.56
0.74
0.81
0.72
0.54
0.36
0.30
0.37
0.51
0.59
0.52
0.26
-0.12
-0.48
-0.73
-0.78
-0.67
-0.45
-0.21
-0.02
0.09
0.14
0.16
0.19
0.22
0.24
0.23
0.19
0.16
0.17
0.24
0.35
0.43
0.40
0.24
-0.04
-0.36
-0.65
-0.86
-0.96
-0.95
-0.84
-0.65
-0.40
-0.15
0.03
0.07
-0.03
-0.22
-0.36
-0.33
-0.09
0.29
0.67
0.86
0.75
0.40
-0.04
-0.38
-0.48
-0.37
-0.16
0.00
0.05
0.01
-0.02
0.04
0.18
0.32
0.33
0.16
-0.12
-0.40
-0.56
-0.55
-0.38
-0.12
0.16
0.39
0.55
0.60
0.52
0.29
-0.03
-0.35
-0.57
-0.62
-0.51
-0.32
-0.16
-0.09
-0.11
-0.15
-0.15
-0.08
0.03
0.09
0.02
-0.20
-0.47
-0.66
-0.64
-0.38
0.04
0.46
0.72
0.76
0.63
0.41
0.21
0.06
-0.05
-0.13
-0.19
-0.17
-0.07
0.14
0.39
0.60
0.74
0.79
0.80
0.81
0.80
0.72
0.52
0.20
-0.17
-0.48
-0.65
-0.68
-0.61
-0.52
-0.45
-0.40
-0.32
-0.19
-0.01
0.19
0.34
0.41
0.39
0.28
0.10
-0.14
-0.39
-0.59
-0.68
-0.60
-0.38
-0.08
0.18
0.32
0.32
0.22
0.07
-0.06
-0.12
-0.11
-0.02
0.13
0.31
0.44
0.48
0.37
0.18
0.01
-0.01
0.13
0.36
0.51
0.44
0.17
-0.16
-0.36
-0.29
0.02
0.41
0.70
0.79
0.67
0.44
0.22
0.06
-0.01
-0.03
-0.04
-0.09
-0.19
-0.31
-0.39
-0.36
-0.18
0.11
0.39
0.53
0.44
0.21
-0.02
-0.07
0.08
0.32
0.46
0.34
-0.05
-0.54
-0.94
-1.11
-1.06
-0.94
-0.89
-0.98
-1.13
-1.22
-1.15
-0.92
-0.64
-0.42
-0.32
-0.33
-0.32
-0.23
0.01
0.38
0.80
1.18
1.41
1.45
1.26
0.89
0.45
0.05
-0.23
-0.36
-0.38
-0.36
-0.36
-0.40
-0.45
-0.50
-0.52
-0.52
-0.51
-0.44
-0.27
0.01
0.36
0.69
0.86
0.81
0.54
0.15
-0.20
-0.36
-0.30
-0.05
0.29
0.60
0.81
0.94
1.02
1.10
1.15
1.12
0.92
0.55
0.07
-0.39
-0.70
-0.77
-0.66
-0.48
-0.37
-0.37
-0.47
-0.57
-0.58
-0.48
-0.31
-0.16
-0.10
-0.15
-0.24
-0.29
-0.23
-0.03
0.21
0.40
0.42
0.26
-0.03
-0.34
-0.54
-0.58
-0.44
-0.21
0.02
0.17
0.19
0.11
-0.04
-0.16
-0.20
-0.17
-0.09
-0.02
-0.01
-0.02
-0.01
0.07
0.22
0.36
0.40
0.31
0.11
-0.08
-0.19
-0.18
-0.07
0.05
0.13
0.19
0.24
0.33
0.43
0.45
0.35
0.14
-0.09
-0.20
-0.10
0.17
0.48
0.67
0.64
0.40
0.06
-0.22
-0.35
-0.32
-0.24
-0.22
-0.29
-0.42
-0.52
-0.50
-0.34
-0.12
0.04
0.05
-0.11
-0.34
-0.56
-0.64
-0.55
-0.33
-0.05
0.24
0.48
0.67
0.79
0.80
0.69
0.43
0.09
-0.25
-0.47
-0.48
-0.27
0.10
0.48
0.78
0.92
0.93
0.89
0.86
0.86
0.83
0.69
0.41
0.02
-0.35
-0.64
-0.80
-0.87
-0.93
-1.04
-1.16
-1.21
-1.13
-0.91
-0.60
-0.33
-0.16
-0.13
-0.17
-0.21
-0.19
-0.12
-0.07
-0.12
-0.29
-0.54
-0.73
-0.75
-0.54
-0.15
0.29
0.61
0.74
0.70
0.58
0.43
0.29
0.15
-0.03
-0.21
-0.35
-0.36
-0.23
0.03
0.35
0.64
0.86
0.99
1.03
0.98
0.87
0.71
0.54
0.40
0.32
0.25
0.17
0.04
-0.09
-0.14
-0.07
0.13
0.38
0.54
0.48
0.19
-0.24
-0.63
-0.84
-0.85
-0.71
-0.55
-0.48
-0.50
-0.53
-0.46
-0.27
-0.02
0.19
0.23
0.05
-0.30
-0.68
-0.92
-0.91
-0.61
-0.10
0.43
0.78
0.84
0.60
0.19
-0.20
-0.42
-0.43
-0.29
-0.16
-0.11
-0.18
-0.30
-0.37
-0.32
-0.14
0.11
0.35
0.49
0.54
0.53
0.53
0.57
0.62
0.59
0.40
0.01
-0.47
-0.85
-0.94
-0.66
-0.14
0.39
0.69
0.65
0.38
0.06
-0.11
-0.07
0.15
0.40
0.58
0.65
0.65
0.63
0.61
0.58
0.49
0.34
0.17
0.02
-0.05
-0.03
0.04
0.11
0.14
0.11
0.06
-0.00
-0.04
-0.04
-0.01
0.05
0.11
0.12
0.05
-0.13
-0.39
-0.64
-0.79
-0.77
-0.58
-0.31
-0.05
0.12
0.19
0.19
0.19
0.20
0.21
0.17
0.06
-0.10
-0.23
-0.31
-0.31
-0.26
-0.22
-0.24
-0.32
-0.43
-0.50
-0.51
-0.49
-0.50
-0.57
-0.69
-0.79
-0.78
-0.59
-0.25
0.16
0.49
0.65
0.57
0.31
-0.03
-0.32
-0.46
-0.38
-0.11
0.27
0.63
0.87
0.96
0.92
0.80
0.66
0.52
0.40
0.30
0.26
0.29
0.37
0.44
0.43
0.27
-0.03
-0.40
-0.74
-0.98
-1.09
-1.09
-1.03
-0.93
-0.82
-0.70
-0.54
-0.34
-0.10
0.15
0.37
0.49
0.49
0.38
0.20
0.03
-0.09
-0.14
-0.14
-0.12
-0.09
-0.04
0.04
0.18
0.35
0.49
0.56
0.53
0.41
0.25
0.11
0.00
-0.05
-0.08
-0.11
-0.14
-0.19
-0.25
-0.31
-0.39
-0.49
-0.61
-0.68
-0.66
-0.52
-0.27
0.01
0.22
0.31
0.25
0.09
-0.07
-0.14
-0.11
0.03
0.20
0.33
0.40
0.42
0.40
0.39
0.36
0.29
0.18
0.04
-0.06
-0.07
0.00
0.10
0.12
0.03
-0.12
-0.20
-0.12
0.14
0.45
0.66
0.64
0.37
0.00
-0.29
-0.38
-0.27
-0.06
0.12
0.17
0.07
-0.11
-0.30
-0.43
-0.44
-0.33
-0.13
0.09
0.22
0.17
-0.05
-0.34
-0.55
-0.56
-0.34
0.01
0.32
0.48
0.48
0.39
0.29
0.24
0.25
0.31
0.39
0.50
0.65
0.80
0.89
0.86
0.69
0.39
0.04
-0.29
-0.57
-0.76
-0.85
-0.86
-0.81
-0.75
-0.69
-0.68
-0.70
-0.71
-0.68
-0.57
-0.38
-0.14
0.10
0.29
0.39
0.40
0.37
0.36
0.39
0.48
0.55
0.54
0.46
0.35
0.28
0.34
0.50
0.69
0.79
0.74
0.56
0.35
0.25
0.28
0.42
0.53
0.49
0.23
-0.18
-0.61
-0.88
-0.92
-0.77
-0.54
-0.37
-0.33
-0.42
-0.54
-0.60
-0.52
-0.32
-0.08
0.11
0.18
0.15
0.06
-0.01
-0.01
0.08
0.19
0.24
0.16
-0.04
-0.30
-0.48
-0.47
-0.24
0.14
0.50
0.69
0.61
0.29
-0.17
-0.62
-0.93
-1.05
-0.94
-0.63
-0.18
0.32
0.72
0.90
0.78
0.43
0.01
-0.29
-0.34
-0.10
0.32
0.79
1.13
1.24
1.09
0.70
0.19
-0.27
-0.53
-0.49
-0.20
0.20
0.50
0.57
0.37
0.01
-0.35
-0.58
-0.63
-0.56
-0.44
-0.29
-0.10
0.15
0.44
0.68
0.72
0.46
-0.11
-0.85
-1.51
-1.85
-1.71
-1.16
-0.40
0.26
0.61
0.57
0.26
-0.14
-0.42
-0.49
-0.36
-0.11
0.18
0.44
0.62
0.68
0.58
0.34
0.02
-0.25
-0.34
-0.22
0.07
0.42
0.71
0.84
0.81
0.67
0.47
0.29
0.18
0.19
0.38
0.76
1.28
1.78
2.10
2.08
1.70
1.06
0.39
-0.06
-0.17
0.03
0.38
0.66
0.71
0.48
0.06
-0.41
-0.82
-1.13
-1.34
-1.50
-1.60
-1.64
-1.62
-1.53
-1.39
-1.23
-1.08
-0.93
-0.75
-0.52
-0.25
0.02
0.20
0.26
0.22
0.15
0.14
0.23
0.42
0.62
0.73
0.69
0.49
0.16
-0.23
-0.59
-0.86
-0.97
-0.91
-0.72
-0.47
-0.25
-0.10
-0.00
0.09
0.22
0.37
0.48
0.47
0.30
-0.00
-0.32
-0.54
-0.59
-0.50
-0.32
-0.14
-0.02
0.02
0.02
0.02
0.06
0.12
0.19
0.21
0.12
-0.09
-0.37
-0.62
-0.75
-0.69
-0.46
-0.18
0.03
0.09
0.03
-0.08
-0.13
-0.04
0.13
0.30
0.37
0.33
0.24
0.17
0.18
0.22
0.20
0.05
-0.20
-0.43
-0.50
-0.35
0.01
0.43
0.76
0.86
0.68
0.26
-0.25
-0.69
-0.90
-0.82
-0.49
-0.07
0.22
0.25
0.05
-0.22
-0.33
-0.17
0.19
0.53
0.62
0.39
-0.04
-0.40
-0.47
-0.22
0.23
0.66
0.90
0.94
0.90
0.91
1.04
1.24
1.40
1.42
1.29
1.08
0.90
0.84
0.92
1.10
1.26
1.29
1.15
0.81
0.33
-0.20
-0.64
-0.94
-1.07
-1.09
-1.10
-1.17
-1.33
-1.49
-1.54
-1.42
-1.12
-0.74
-0.43
-0.28
-0.33
-0.52
-0.73
-0.84
-0.80
-0.65
-0.49
-0.37
-0.36
-0.42
-0.53
-0.65
-0.76
-0.89
-1.01
-1.09
-1.04
-0.82
-0.44
0.04
0.50
0.81
0.91
0.78
0.48
0.08
-0.33
-0.69
-0.97
-1.17
-1.31
-1.41
-1.48
-1.49
-1.46
-1.41
-1.41
-1.51
-1.75
-2.08
-2.42
-2.71
-2.91
-3.05
-3.17
-3.27
-3.33
-3.35
-3.34
-3.39
-3.58
-3.98
-4.55
-5.19
-5.74
-6.08
-6.17
-6.01
-5.68
-5.25
-4.78
-4.34
-3.94
-3.59
-3.27
-2.91
-2.45
-1.85
-1.09
-0.23
0.61
1.35
1.90
2.27
2.52
2.80
3.23
3.88
4.71
5.59
6.37
6.95
7.35
7.70
8.15
8.74
9.41
9.96
10.20
10.04
9.57
8.95
8.42
8.08
7.92
7.80
7.59
7.22
6.75
6.26
5.82
5.43
5.02
4.49
3.85
3.17
2.59
2.22
2.06
2.00
1.90
1.62
1.09
0.35
-0.52
-1.41
-2.24
-2.93
-3.42
-3.69
-3.77
-3.75
-3.72
-3.74
-3.83
-3.97
-4.12
-4.26
-4.39
-4.49
-4.52
-4.45
-4.31
-4.16
-4.07
-4.11
-4.21
-4.23
-4.03
-3.57
-2.92
-2.27
-1.81
-1.62
-1.63
-1.71
-1.70
-1.60
-1.47
-1.47
-1.67
-2.09
-2.60
-3.07
-3.36
-3.40
-3.19
-2.82
-2.38
-2.00
-1.75
-1.62
-1.55
-1.40
-1.04
-0.41
0.46
1.49
2.55
3.59
4.56
5.41
6.08
6.48
6.59
6.47
6.28
6.23
6.42
6.81
7.20
7.34
7.09
6.48
5.70
4.99
4.48
4.18
3.96
3.66
3.14
2.37
1.37
0.25
-0.89
-1.94
-2.79
-3.37
-3.67
-3.73
-3.64
-3.50
-3.34
-3.16
-2.90
-2.55
-2.15
-1.81
-1.63
-1.66
-1.90
-2.27
-2.64
-2.90
-2.95
-2.75
-2.33
-1.78
-1.23
-0.77
-0.48
-0.38
-0.46
-0.65
-0.90
-1.14
-1.28
-1.29
-1.13
-0.86
-0.57
-0.34
-0.20
-0.14
-0.13
-0.12
-0.12
-0.16
-0.24
-0.35
-0.41
-0.36
-0.21
-0.01
0.16
0.22
0.15
-0.03
-0.23
-0.39
-0.45
-0.41
-0.31
-0.25
-0.29
-0.42
-0.59
-0.67
-0.56
-0.23
0.22
0.65
0.91
0.93
0.74
0.46
0.20
0.01
-0.10
-0.17
-0.22
-0.25
-0.24
-0.21
-0.20
-0.27
-0.46
-0.74
-1.02
-1.20
-1.19
-0.96
-0.57
-0.12
0.31
0.63
0.82
0.92
0.96
0.98
0.98
0.95
0.90
0.86
0.89
1.04
1.29
1.57
1.81
1.92
1.89
1.78
1.66
1.59
1.58
1.61
1.62
1.59
1.55
1.53
1.57
1.66
1.73
1.67
1.38
0.81
0.01
-0.88
-1.64
-2.04
-1.94
-1.36
-0.50
0.35
0.93
1.07
0.79
0.20
-0.52
-1.27
-1.98
-2.62
-3.17
-3.55
-3.71
-3.61
-3.28
-2.83
-2.34
-1.90
-1.56
-1.33
-1.21
-1.19
-1.24
-1.31
-1.36
-1.40
-1.40
-1.37
-1.27
-1.09
-0.81
-0.49
-0.18
0.04
0.14
0.13
0.03
-0.13
-0.31
-0.49
-0.62
-0.64
-0.52
-0.29
-0.02
0.19
0.24
0.10
-0.17
-0.45
-0.62
-0.60
-0.40
-0.08
0.23
0.44
0.52
0.48
0.37
0.26
0.18
0.14
0.16
0.24
0.37
0.52
0.64
0.70
0.68
0.62
0.62
0.75
1.01
1.33
1.59
1.67
1.55
1.31
1.07
0.92
0.90
0.96
1.05
1.09
1.07
1.02
0.98
0.94
0.94
1.00
1.13
1.36
1.66
1.95
2.12
2.11
1.91
1.64
1.47
1.54
1.89
2.42
2.95
3.28
3.31
3.07
2.69
2.34
2.13
2.07
2.06
1.95
1.64
1.15
0.58
0.08
-0.19
-0.19
0.07
0.45
0.76
0.76
0.21
-1.01
-2.87
-5.09
-7.20
-8.65
-9.03
-8.23
-6.45
-4.16
-1.93
-0.22
0.73
0.92
0.55
-0.12
-0.82
-1.43
-1.91
-2.30
-2.64
-2.91
-3.02
-2.90
-2.51
-1.95
-1.32
-0.77
-0.34
0.02
0.39
0.79
1.17
1.43
1.50
1.41
1.29
1.28
1.46
1.77
2.11
2.37
2.48
2.45
2.30
2.02
1.60
1.02
0.35
-0.26
-0.61
-0.62
-0.36
-0.03
0.16
0.08
-0.21
-0.50
-0.59
-0.40
-0.00
0.42
0.71
0.85
0.92
1.06
1.30
1.57
1.74
1.76
1.70
1.72
1.99
2.53
3.25
3.93
4.36
4.42
4.06
3.35
2.36
1.21
0.03
-0.99
-1.66
-1.85
-1.58
-0.98
-0.33
0.13
0.20
-0.16
-0.89
-1.88
-2.98
-4.10
-5.16
-6.07
-6.78
-7.23
-7.38
-7.23
-6.81
-6.19
-5.44
-4.66
-3.94
-3.36
-2.97
-2.76
-2.67
-2.66
-2.65
-2.64
-2.64
-2.65
-2.65
-2.62
-2.50
-2.26
-1.88
-1.41
-0.95
-0.63
-0.57
-0.82
-1.32
-1.90
-2.27
-2.19
-1.57
-0.51
0.70
1.75
2.36
2.46
2.15
1.66
1.20
0.95
0.98
1.25
1.69
2.16
2.56
2.84
3.04
3.23
3.53
4.00
4.61
5.23
5.69
5.85
5.68
5.27
4.77
4.31
3.94
3.60
3.18
2.61
1.90
1.16
0.51
0.07
-0.17
-0.26
-0.33
-0.46
-0.67
-0.95
-1.20
-1.33
-1.26
-0.95
-0.47
0.04
0.37
0.34
-0.12
-0.92
-1.78
-2.40
-2.55
-2.18
-1.43
-0.55
0.21
0.68
0.85
0.76
0.53
0.22
-0.08
-0.35
-0.56
-0.66
-0.67
-0.61
-0.50
-0.41
-0.35
-0.35
-0.41
-0.51
-0.63
-0.71
-0.71
-0.61
-0.39
-0.08
0.23
0.45
0.53
0.44
0.22
-0.07
-0.34
-0.56
-0.72
-0.81
-0.84
-0.78
-0.66
-0.50
-0.35
-0.26
-0.24
-0.27
-0.31
-0.31
-0.22
-0.05
0.20
0.48
0.75
0.93
0.98
0.88
0.69
0.48
0.33
0.27
0.27
0.27
0.24
0.17
0.10
0.07
0.09
0.15
0.23
0.31
0.34
0.31
0.20
0.04
-0.12
-0.23
-0.26
-0.23
-0.18
-0.17
-0.20
-0.22
-0.20
-0.11
0.00
0.06
0.03
-0.06
-0.13
-0.08
0.12
0.43
0.76
1.04
1.22
1.31
1.30
1.16
0.89
0.52
0.12
-0.21
-0.39
-0.38
-0.20
0.09
0.42
0.75
1.00
1.13
1.09
0.92
0.69
0.50
0.39
0.33
0.21
-0.07
-0.51
-0.98
-1.26
-1.18
-0.71
0.00
0.70
1.13
1.20
0.91
0.41
-0.19
-0.78
-1.33
-1.74
-1.90
-1.67
-1.04
-0.12
0.83
1.50
1.67
1.33
0.63
-0.19
-0.92
-1.44
-1.72
-1.81
-1.74
-1.57
-1.34
-1.10
-0.91
-0.78
-0.71
-0.65
-0.56
-0.42
-0.24
-0.05
0.10
0.18
0.19
0.18
0.19
0.26
0.38
0.53
0.67
0.76
0.82
0.84
0.82
0.71
0.49
0.20
-0.09
-0.25
-0.25
-0.11
0.00
-0.04
-0.28
-0.62
-0.90
-0.97
-0.76
-0.37
0.06
0.41
0.64
0.77
0.87
0.96
1.03
1.06
1.03
0.95
0.86
0.78
0.70
0.58
0.37
0.07
-0.25
-0.48
-0.52
-0.32
0.03
0.34
0.43
0.17
-0.43
-1.18
-1.85
-2.20
-2.11
-1.66
-1.01
-0.37
0.10
0.36
0.45
0.45
0.40
0.30
0.11
-0.15
-0.41
-0.56
-0.52
-0.26
0.10
0.38
0.43
0.21
-0.25
-0.77
-1.17
-1.29
-1.08
-0.58
0.06
0.66
1.06
1.23
1.18
1.05
0.94
0.88
0.83
0.72
0.49
0.15
-0.24
-0.58
-0.83
-0.97
-1.00
-0.92
-0.77
-0.56
-0.37
-0.26
-0.28
-0.40
-0.53
-0.60
-0.56
-0.42
-0.23
-0.06
0.08
0.22
0.37
0.52
0.64
0.67
0.57
0.35
0.07
-0.18
-0.35
-0.37
-0.26
-0.06
0.14
0.28
0.35
0.37
0.44
0.56
0.73
0.83
0.76
0.48
0.07
-0.30
-0.51
-0.50
-0.33
-0.12
0.02
0.06
0.07
0.10
0.19
0.31
0.38
0.33
0.16
-0.09
-0.32
-0.46
-0.49
-0.42
-0.29
-0.14
0.04
0.28
0.57
0.84
0.99
0.93
0.65
0.22
-0.21
-0.51
-0.56
-0.35
0.07
0.56
0.98
1.20
1.16
0.90
0.54
0.25
0.11
0.13
0.21
0.22
0.11
-0.10
-0.32
-0.44
-0.40
-0.22
0.04
0.30
0.50
0.59
0.59
0.53
0.48
0.49
0.60
0.77
0.92
0.97
0.85
0.59
0.26
-0.06
-0.30
-0.45
-0.51
-0.53
-0.55
-0.57
-0.60
-0.62
-0.62
-0.58
-0.53
-0.50
-0.50
-0.51
-0.48
-0.35
-0.11
0.16
0.38
0.45
0.37
0.22
0.13
0.16
0.35
0.61
0.86
1.02
1.08
1.04
0.93
0.73
0.46
0.17
-0.04
-0.08
0.14
0.58
1.13
1.63
1.93
1.91
1.57
0.98
0.28
-0.33
-0.72
-0.81
-0.63
-0.33
-0.06
0.01
-0.19
-0.63
-1.22
-1.85
-2.44
-2.89
-3.16
-3.19
-2.96
-2.49
-1.88
-1.27
-0.77
-0.46
-0.31
-0.25
-0.22
-0.15
-0.03
0.12
0.27
0.36
0.32
0.11
-0.31
-0.89
-1.54
-2.08
-2.39
-2.38
-2.08
-1.59
-1.06
-0.59
-0.27
-0.12
-0.10
-0.19
-0.32
-0.48
-0.63
-0.77
-0.87
-0.93
-0.91
-0.81
-0.62
-0.36
-0.06
0.25
0.50
0.68
0.77
0.76
0.64
0.42
0.13
-0.19
-0.44
-0.53
-0.34
0.15
0.93
1.93
3.01
4.07
5.03
5.88
6.62
7.19
7.47
7.31
6.68
5.68
4.62
3.80
3.42
3.41
3.51
3.40
2.90
2.07
1.08
0.15
-0.68
-1.45
-2.28
-3.19
-4.08
-4.78
-5.17
-5.24
-5.09
-4.89
-4.74
-4.68
-4.64
-4.51
-4.20
-3.68
-3.02
-2.35
-1.79
-1.43
-1.28
-1.29
-1.37
-1.45
-1.48
-1.44
-1.34
-1.21
-1.11
-1.10
-1.27
-1.65
-2.19
-2.75
-3.21
-3.47
-3.55
-3.54
-3.55
-3.62
-3.74
-3.88
-4.03
-4.20
-4.43
-4.69
-4.86
-4.81
-4.46
-3.81
-2.98
-2.13
-1.37
-0.74
-0.16
0.50
1.31
2.29
3.35
4.34
5.09
5.52
5.61
5.47
5.24
5.06
5.02
5.12
5.34
5.62
5.91
6.17
6.32
6.29
6.01
5.50
4.88
4.29
3.88
3.71
3.74
3.82
3.83
3.67
3.34
2.92
2.48
2.09
1.77
1.52
1.35
1.30
1.38
1.57
1.78
1.92
1.88
1.65
1.30
0.96
0.76
0.75
0.91
1.11
1.23
1.19
0.98
0.65
0.28
-0.03
-0.22
-0.25
-0.14
0.03
0.14
0.10
-0.14
-0.57
-1.10
-1.62
-2.06
-2.37
-2.53
-2.58
-2.51
-2.36
-2.16
-1.97
-1.89
-1.98
-2.22
-2.51
-2.71
-2.72
-2.53
-2.21
-1.89
-1.66
-1.57
-1.62
-1.74
-1.88
-1.98
-2.00
-1.92
-1.77
-1.61
-1.52
-1.53
-1.61
-1.63
-1.46
-1.06
-0.51
-0.01
0.25
0.17
-0.17
-0.60
-0.91
-1.00
-0.89
-0.69
-0.50
-0.37
-0.26
-0.09
0.17
0.45
0.66
0.66
0.41
0.01
-0.37
-0.52
-0.36
0.06
0.52
0.77
0.67
0.24
-0.33
-0.79
-0.95
-0.76
-0.35
0.04
0.21
0.08
-0.25
-0.60
-0.79
-0.72
-0.44
-0.10
0.18
0.32
0.37
0.41
0.51
0.66
0.82
0.89
0.80
0.56
0.23
-0.08
-0.30
-0.39
-0.34
-0.20
-0.01
0.19
0.40
0.61
0.84
1.08
1.31
1.49
1.58
1.56
1.44
1.24
1.04
0.89
0.83
0.83
0.85
0.87
0.89
0.92
0.98
1.02
0.95
0.73
0.33
-0.14
-0.54
-0.72
-0.66
-0.44
-0.20
-0.11
-0.23
-0.54
-0.94
-1.30
-1.57
-1.71
-1.73
-1.67
-1.51
-1.28
-1.00
-0.76
-0.65
-0.77
-1.14
-1.66
-2.17
-2.52
-2.62
-2.48
-2.17
-1.80
-1.47
-1.21
-1.08
-1.07
-1.18
-1.33
-1.41
-1.33
-1.07
-0.70
-0.33
-0.05
0.13
0.28
0.46
0.70
0.94
1.04
0.96
0.70
0.39
0.20
0.23
0.47
0.80
1.06
1.13
0.96
0.60
0.17
-0.18
-0.34
-0.25
0.04
0.44
0.84
1.17
1.37
1.45
1.41
1.27
1.02
0.67
0.29
-0.03
-0.19
-0.14
0.10
0.42
0.70
0.82
0.74
0.52
0.23
-0.03
-0.19
-0.25
-0.24
-0.23
-0.26
-0.31
-0.34
-0.32
-0.21
-0.06
0.08
0.15
0.15
0.14
0.17
0.28
0.41
0.47
0.36
0.08
-0.27
-0.57
-0.66
-0.53
-0.24
0.05
0.18
0.08
-0.20
-0.51
-0.70
-0.68
-0.47
-0.21
-0.04
-0.02
-0.13
-0.25
-0.26
-0.12
0.13
0.39
0.56
0.57
0.47
0.32
0.22
0.21
0.26
0.32
0.33
0.23
0.03
-0.22
-0.43
-0.54
-0.55
-0.50
-0.44
-0.40
-0.35
-0.20
0.07
0.43
0.77
0.96
0.93
0.67
0.27
-0.13
-0.45
-0.64
-0.71
-0.68
-0.63
-0.57
-0.59
-0.67
-0.81
-0.89
-0.84
-0.60
-0.21
0.20
0.49
0.59
0.54
0.40
0.27
0.15
0.01
-0.16
-0.34
-0.44
-0.38
-0.16
0.15
0.40
0.48
0.35
0.10
-0.17
-0.35
-0.39
-0.32
-0.21
-0.14
-0.12
-0.16
-0.21
-0.20
-0.10
0.12
0.41
0.68
0.87
0.94
0.92
0.88
0.86
0.89
0.92
0.87
0.71
0.43
0.12
-0.10
-0.16
-0.04
0.18
0.35
0.33
0.06
-0.41
-0.89
-1.15
-1.05
-0.62
-0.05
0.39
0.51
0.29
-0.09
-0.39
-0.41
-0.12
0.34
0.74
0.91
0.80
0.48
0.11
-0.20
-0.38
-0.48
-0.54
-0.57
-0.56
-0.46
-0.21
0.17
0.58
0.90
1.03
0.91
0.57
0.09
-0.40
-0.80
-1.01
-1.02
-0.83
-0.52
-0.14
0.22
0.49
0.61
0.56
0.36
0.08
-0.22
-0.45
-0.55
-0.50
-0.33
-0.09
0.13
0.30
0.36
0.32
0.21
0.09
-0.01
-0.06
-0.12
-0.22
-0.38
-0.56
-0.67
-0.67
-0.54
-0.32
-0.09
0.07
0.13
0.11
0.08
0.11
0.24
0.45
0.68
0.80
0.74
0.48
0.11
-0.23
-0.42
-0.42
-0.30
-0.15
-0.05
-0.04
-0.06
-0.06
-0.02
0.06
0.14
0.17
0.12
-0.05
-0.31
-0.61
-0.88
-1.02
-0.98
-0.78
-0.50
-0.25
-0.09
-0.04
-0.03
-0.01
0.07
0.18
0.28
0.36
0.40
0.43
0.46
0.49
0.53
0.54
0.51
0.45
0.37
0.31
0.29
0.30
0.31
0.26
0.09
-0.18
-0.50
-0.75
-0.82
-0.66
-0.32
0.07
0.35
0.42
0.29
0.05
-0.20
-0.38
-0.47
-0.52
-0.58
-0.61
-0.58
-0.41
-0.13
0.17
0.37
0.38
0.21
-0.03
-0.19
-0.18
0.00
0.25
0.44
0.47
0.35
0.12
-0.12
-0.30
-0.37
-0.34
-0.22
-0.06
0.08
0.14
0.09
-0.05
-0.22
-0.35
-0.35
-0.21
0.01
0.22
0.33
0.30
0.14
-0.06
-0.21
-0.25
-0.14
0.12
0.52
1.01
1.50
1.89
2.05
1.92
1.54
1.02
0.57
0.36
0.47
0.85
1.36
1.82
2.12
2.21
2.11
1.85
1.48
1.04
0.56
0.09
-0.36
-0.78
-1.18
-1.55
-1.83
-1.95
-1.88
-1.65
-1.37
-1.17
-1.10
-1.14
-1.16
-1.09
-0.90
-0.69
-0.57
-0.61
-0.79
-0.98
-1.06
-0.96
-0.72
-0.44
-0.25
-0.21
-0.26
-0.32
-0.25
-0.04
0.23
0.44
0.44
0.23
-0.09
-0.36
-0.46
-0.38
-0.20
-0.06
-0.01
-0.02
-0.03
0.00
0.06
0.10
0.09
0.07
0.08
0.17
0.32
0.44
0.45
0.32
0.10
-0.13
-0.29
-0.33
-0.28
-0.20
-0.12
-0.09
-0.11
-0.18
-0.33
-0.55
-0.78
-0.96
-0.98
-0.80
-0.44
-0.03
0.30
0.42
0.31
0.05
-0.21
-0.33
-0.29
-0.12
0.08
0.23
0.31
0.34
0.36
0.38
0.39
0.36
0.29
0.18
0.06
-0.03
-0.05
0.03
0.21
0.48
0.76
0.98
1.06
0.97
0.74
0.42
0.10
-0.17
-0.36
-0.44
-0.39
-0.21
0.07
0.37
0.59
0.64
0.51
0.25
0.01
-0.08
0.02
0.26
0.50
0.59
0.46
0.15
-0.20
-0.43
-0.44
-0.23
0.16
0.61
1.03
1.34
1.49
1.45
1.22
0.87
0.51
0.26
0.19
0.29
0.46
0.59
0.58
0.43
0.23
0.01
-0.18
-0.40
-0.71
-1.11
-1.52
-1.80
-1.80
-1.47
-0.92
-0.34
0.05
0.15
0.01
-0.21
-0.34
-0.31
-0.18
-0.10
-0.19
-0.46
-0.86
-1.23
-1.46
-1.52
-1.44
-1.29
-1.15
-1.02
-0.86
-0.63
-0.28
0.17
0.66
1.12
1.44
1.58
1.54
1.34
1.04
0.69
0.33
-0.03
-0.34
-0.57
-0.65
-0.54
-0.25
0.13
0.44
0.56
0.44
0.17
-0.09
-0.18
-0.05
0.22
0.46
0.50
0.33
0.03
-0.22
-0.33
-0.28
-0.19
-0.17
-0.26
-0.39
-0.44
-0.31
-0.03
0.28
0.46
0.40
0.10
-0.35
-0.77
-1.01
-1.00
-0.78
-0.43
-0.08
0.20
0.35
0.38
0.33
0.24
0.15
0.11
0.11
0.14
0.21
0.28
0.37
0.50
0.67
0.86
1.01
1.09
1.08
1.01
0.94
0.90
0.85
0.73
0.49
0.17
-0.14
-0.28
-0.15
0.20
0.63
0.91
0.93
0.68
0.31
0.03
0.00
0.22
0.54
0.81
0.86
0.67
0.32
-0.08
-0.42
-0.67
-0.85
-0.99
-1.10
-1.16
-1.14
-1.03
-0.84
-0.61
-0.38
-0.18
-0.05
-0.02
-0.13
-0.34
-0.56
-0.69
-0.62
-0.38
-0.10
0.05
-0.04
-0.38
-0.80
-1.12
-1.21
-1.07
-0.83
-0.63
-0.53
-0.48
-0.37
-0.12
0.25
0.65
0.95
1.05
0.94
0.67
0.32
-0.01
-0.24
-0.33
-0.30
-0.18
-0.02
0.11
0.20
0.25
0.28
0.31
0.34
0.35
0.33
0.26
0.19
0.19
0.29
0.50
0.74
0.89
0.85
0.60
0.22
-0.13
-0.34
-0.32
-0.13
0.11
0.29
0.34
0.28
0.14
-0.01
-0.16
-0.32
-0.48
-0.59
-0.62
-0.55
-0.41
-0.30
-0.30
-0.46
-0.72
-0.97
-1.11
-1.09
-0.93
-0.70
-0.45
-0.24
-0.08
0.04
0.10
0.10
0.08
0.05
0.05
0.06
0.07
0.01
-0.10
-0.20
-0.20
-0.04
0.23
0.49
0.59
0.50
0.27
0.03
-0.06
0.03
0.19
0.29
0.24
0.07
-0.10
-0.15
-0.06
0.07
0.10
-0.01
-0.22
-0.39
-0.41
-0.25
-0.03
0.13
0.14
0.01
-0.17
-0.33
-0.43
-0.47
-0.50
-0.51
-0.50
-0.47
-0.43
-0.43
-0.48
-0.54
-0.53
-0.42
-0.24
-0.10
-0.06
-0.13
-0.22
-0.21
-0.05
0.19
0.36
0.32
0.07
-0.26
-0.47
-0.45
-0.20
0.14
0.41
0.53
0.54
0.52
0.56
0.69
0.84
0.92
0.85
0.63
0.32
0.04
-0.13
-0.14
-0.03
0.13
0.24
0.27
0.23
0.19
0.24
0.37
0.55
0.66
0.62
0.39
0.04
-0.30
-0.52
-0.53
-0.36
-0.06
0.23
0.41
0.43
0.29
0.04
-0.19
-0.31
-0.30
-0.20
-0.10
-0.06
-0.12
-0.24
-0.36
-0.45
-0.48
-0.47
-0.43
-0.34
-0.20
-0.04
0.10
0.16
0.13
0.08
0.11
0.32
0.67
1.06
1.31
1.30
0.99
0.48
-0.05
-0.47
-0.69
-0.73
-0.66
-0.52
-0.34
-0.09
0.22
0.56
0.84
0.95
0.84
0.53
0.12
-0.28
-0.56
-0.69
-0.68
-0.58
-0.41
-0.20
0.04
0.26
0.42
0.45
0.32
0.08
-0.17
-0.32
-0.32
-0.17
0.01
0.10
0.02
-0.23
-0.56
-0.81
-0.86
-0.67
-0.29
0.13
0.41
0.47
0.31
0.04
-0.18
-0.26
-0.20
-0.06
0.04
0.03
-0.11
-0.30
-0.46
-0.50
-0.40
-0.19
0.08
0.36
0.56
0.64
0.57
0.38
0.14
-0.05
-0.11
-0.01
0.19
0.40
0.56
0.60
0.54
0.42
0.27
0.13
-0.02
-0.15
-0.27
-0.34
-0.32
-0.20
-0.02
0.16
0.30
0.33
0.26
0.14
0.02
-0.01
0.09
0.32
0.65
1.00
1.26
1.36
1.22
0.88
0.42
-0.02
-0.32
-0.44
-0.41
-0.31
-0.20
-0.11
-0.01
0.11
0.23
0.32
0.30
0.19
0.03
-0.11
-0.20
-0.26
-0.31
-0.39
-0.47
-0.50
-0.46
-0.38
-0.36
-0.45
-0.65
-0.85
-0.95
-0.88
-0.68
-0.44
-0.24
-0.14
-0.12
-0.13
-0.15
-0.19
-0.29
-0.47
-0.67
-0.82
-0.82
-0.60
-0.17
0.35
0.82
1.08
1.01
0.66
0.15
-0.33
-0.61
-0.62
-0.41
-0.12
0.09
0.11
-0.06
-0.31
-0.50
-0.52
-0.34
-0.04
0.25
0.41
0.42
0.35
0.29
0.33
0.47
0.62
0.69
0.64
0.54
0.48
0.48
0.47
0.33
-0.04
-0.61
-1.20
-1.56
-1.54
-1.15
-0.55
-0.01
0.33
0.43
0.38
0.32
0.33
0.42
0.49
0.47
0.31
0.06
-0.20
-0.35
-0.37
-0.29
-0.19
-0.17
-0.25
-0.39
-0.50
-0.51
-0.41
-0.25
-0.11
-0.08
-0.19
-0.37
-0.53
-0.55
-0.36
0.02
0.46
0.81
0.93
0.78
0.43
0.03
-0.27
-0.44
-0.50
-0.54
-0.62
-0.72
-0.78
-0.72
-0.53
-0.27
-0.03
0.14
0.21
0.23
0.28
0.38
0.52
0.64
0.66
0.54
0.31
0.02
-0.23
-0.35
-0.29
-0.06
0.29
0.68
1.03
1.29
1.40
1.35
1.14
0.79
0.38
-0.04
-0.38
-0.57
-0.59
-0.42
-0.09
0.36
0.81
1.14
1.24
1.05
0.61
0.02
-0.55
-0.95
-1.05
-0.84
-0.38
0.17
0.65
0.90
0.83
0.51
0.07
-0.34
-0.61
-0.73
-0.76
-0.75
-0.73
-0.67
-0.54
-0.32
-0.05
0.20
0.37
0.46
0.49
0.50
0.51
0.52
0.48
0.38
0.22
0.03
-0.12
-0.19
-0.15
-0.05
0.05
0.08
-0.04
-0.27
-0.58
-0.84
-0.94
-0.84
-0.53
-0.14
0.19
0.31
0.16
-0.20
-0.60
-0.82
-0.73
-0.34
0.20
0.70
1.01
1.09
1.01
0.84
0.60
0.30
-0.07
-0.42
-0.67
-0.70
-0.51
-0.20
0.05
0.13
0.03
-0.11
-0.15
0.01
0.33
0.67
0.86
0.82
0.59
0.27
-0.00
-0.17
-0.22
-0.18
-0.07
0.09
0.33
0.60
0.85
0.99
0.97
0.79
0.49
0.11
-0.30
-0.71
-1.03
-1.15
-0.97
-0.52
0.08
0.60
0.84
0.69
0.27
-0.21
-0.55
-0.64
-0.51
-0.31
-0.14
-0.03
0.08
0.24
0.41
0.49
0.33
-0.13
-0.79
-1.42
-1.76
-1.66
-1.18
-0.55
-0.04
0.18
0.14
-0.03
-0.10
0.02
0.33
0.66
0.83
0.74
0.39
-0.08
-0.48
-0.69
-0.67
-0.49
-0.27
-0.09
-0.01
0.00
0.03
0.12
0.32
0.59
0.83
0.95
0.89
0.66
0.37
0.14
0.03
0.06
0.13
0.16
0.10
-0.02
-0.11
-0.14
-0.14
-0.18
-0.33
-0.57
-0.76
-0.77
-0.52
-0.06
0.44
0.78
0.86
0.69
0.41
0.18
0.10
0.15
0.26
0.34
0.33
0.23
0.05
-0.17
-0.41
-0.67
-0.90
-1.04
-1.04
-0.89
-0.64
-0.34
-0.03
0.26
0.54
0.78
0.93
0.93
0.72
0.34
-0.14
-0.61
-0.96
-1.14
-1.15
-1.02
-0.79
-0.51
-0.23
-0.00
0.14
0.17
0.09
-0.07
-0.27
-0.48
-0.62
-0.64
-0.49
-0.17
0.25
0.64
0.88
0.91
0.78
0.58
0.40
0.29
0.21
0.09
-0.13
-0.40
-0.64
-0.71
-0.53
-0.13
0.35
0.70
0.78
0.55
0.14
-0.27
-0.50
-0.45
-0.14
0.31
0.71
0.93
0.93
0.74
0.44
0.11
-0.16
-0.31
-0.33
-0.27
-0.20
-0.20
-0.30
-0.44
-0.52
-0.45
-0.22
0.11
0.39
0.53
0.51
0.39
0.26
0.21
0.23
0.27
0.28
0.25
0.20
0.17
0.17
0.19
0.20
0.16
0.07
-0.07
-0.23
-0.38
-0.49
-0.52
-0.45
-0.31
-0.16
-0.04
-0.01
-0.11
-0.30
-0.53
-0.73
-0.82
-0.75
-0.51
-0.16
0.20
0.48
0.60
0.53
0.31
0.02
-0.24
-0.38
-0.37
-0.19
0.08
0.38
0.64
0.77
0.75
0.56
0.26
-0.10
-0.41
-0.59
-0.60
-0.48
-0.32
-0.20
-0.17
-0.18
-0.16
-0.04
0.18
0.43
0.58
0.58
0.41
0.14
-0.16
-0.43
-0.64
-0.74
-0.71
-0.47
-0.03
0.54
1.07
1.36
1.30
0.92
0.36
-0.17
-0.52
-0.65
-0.60
-0.45
-0.27
-0.07
0.15
0.36
0.50
0.52
0.37
0.06
-0.33
-0.69
-0.93
-0.95
-0.73
-0.33
0.16
0.60
0.87
0.92
0.74
0.43
0.08
-0.21
-0.40
-0.47
-0.43
-0.34
-0.25
-0.21
-0.24
-0.34
-0.46
-0.55
-0.60
-0.56
-0.44
-0.22
0.08
0.39
0.66
0.79
0.75
0.55
0.28
0.05
-0.05
-0.01
0.08
0.15
0.14
0.06
-0.02
-0.04
0.04
0.16
0.24
0.21
0.10
-0.04
-0.13
-0.12
-0.03
0.07
0.14
0.16
0.17
0.20
0.24
0.24
0.14
-0.08
-0.37
-0.61
-0.70
-0.56
-0.24
0.16
0.50
0.65
0.57
0.30
-0.06
-0.36
-0.52
-0.54
-0.46
-0.37
-0.32
-0.31
-0.30
-0.23
-0.05
0.20
0.45
0.62
0.63
0.49
0.28
0.08
-0.01
-0.02
0.01
-0.00
-0.10
-0.25
-0.36
-0.36
-0.25
-0.07
0.09
0.19
0.24
0.27
0.34
0.42
0.49
0.50
0.43
0.30
0.12
-0.06
-0.22
-0.29
-0.23
-0.06
0.16
0.33
0.36
0.23
0.02
-0.15
-0.19
-0.11
-0.01
-0.01
-0.18
-0.43
-0.61
-0.54
-0.20
0.33
0.80
1.02
0.90
0.52
0.07
-0.28
-0.42
-0.40
-0.31
-0.23
-0.19
-0.15
-0.07
0.05
0.14
0.14
-0.03
-0.33
-0.66
-0.89
-0.89
-0.65
-0.26
0.12
0.34
0.36
0.23
0.05
-0.08
-0.13
-0.13
-0.13
-0.14
-0.12
-0.03
0.15
0.39
0.62
0.76
0.76
0.64
0.43
0.17
-0.07
-0.27
-0.44
-0.58
-0.72
-0.85
-0.93
-0.90
-0.75
-0.52
-0.27
-0.09
-0.03
-0.05
-0.08
-0.05
0.09
0.32
0.59
0.86
1.09
1.25
1.30
1.23
1.05
0.79
0.50
0.21
-0.11
-0.45
-0.78
-1.01
-1.04
-0.82
-0.42
-0.03
0.19
0.14
-0.09
-0.34
-0.46
-0.37
-0.16
0.04
0.13
0.10
0.04
0.01
0.09
0.22
0.34
0.38
0.32
0.21
0.09
0.01
-0.04
-0.09
-0.17
-0.25
-0.27
-0.16
0.09
0.45
0.78
0.97
0.96
0.77
0.49
0.20
-0.07
-0.32
-0.61
-0.93
-1.24
-1.46
-1.49
-1.34
-1.05
-0.73
-0.48
-0.37
-0.38
-0.44
-0.45
-0.36
-0.14
0.16
0.44
0.62
0.63
0.53
0.38
0.31
0.35
0.47
0.57
0.57
0.44
0.26
0.17
0.24
0.49
0.82
1.07
1.13
0.98
0.67
0.27
-0.13
-0.48
-0.72
-0.83
-0.77
-0.57
-0.28
-0.01
0.16
0.19
0.12
0.02
-0.02
0.00
0.09
0.22
0.33
0.43
0.50
0.53
0.52
0.46
0.36
0.20
0.02
-0.17
-0.33
-0.41
-0.38
-0.22
0.02
0.29
0.47
0.50
0.34
0.05
-0.25
-0.48
-0.55
-0.49
-0.34
-0.20
-0.12
-0.11
-0.14
-0.17
-0.19
-0.22
-0.26
-0.29
-0.30
-0.25
-0.12
0.04
0.21
0.32
0.34
0.28
0.14
-0.01
-0.13
-0.16
-0.12
-0.04
-0.01
-0.10
-0.31
-0.59
-0.80
-0.85
-0.72
-0.48
-0.25
-0.12
-0.09
-0.07
0.03
0.25
0.51
0.69
0.68
0.44
0.07
-0.27
-0.42
-0.31
-0.02
0.29
0.47
0.42
0.19
-0.08
-0.24
-0.21
-0.02
0.24
0.49
0.68
0.79
0.82
0.75
0.53
0.18
-0.21
-0.52
-0.67
-0.66
-0.60
-0.61
-0.70
-0.82
-0.81
-0.61
-0.28
0.03
0.13
-0.01
-0.30
-0.56
-0.65
-0.59
-0.52
-0.59
-0.85
-1.18
-1.39
-1.31
-0.92
-0.32
0.27
0.71
0.94
1.01
1.02
1.05
1.13
1.21
1.27
1.30
1.31
1.33
1.35
1.35
1.28
1.11
0.86
0.53
0.19
-0.10
-0.27
-0.26
-0.09
0.21
0.50
0.68
0.67
0.50
0.27
0.07
-0.02
-0.05
-0.09
-0.19
-0.35
-0.51
-0.58
-0.56
-0.50
-0.49
-0.58
-0.75
-0.91
-0.97
-0.88
-0.69
-0.47
-0.30
-0.25
-0.30
-0.41
-0.53
-0.59
-0.55
-0.41
-0.18
0.08
0.28
0.34
0.22
-0.07
-0.45
-0.77
-0.92
-0.82
-0.49
-0.04
0.37
0.61
0.65
0.52
0.33
0.17
0.09
0.06
0.04
0.01
-0.02
-0.00
0.11
0.31
0.51
0.64
0.64
0.53
0.39
0.30
0.30
0.36
0.41
0.42
0.36
0.26
0.19
0.19
0.25
0.33
0.36
0.31
0.15
-0.04
-0.16
-0.15
0.03
0.34
0.71
1.05
1.33
1.50
1.56
1.50
1.30
0.99
0.63
0.35
0.24
0.34
0.59
0.85
1.03
1.10
1.11
1.12
1.17
1.21
1.15
0.95
0.67
0.47
0.46
0.69
1.03
1.27
1.23
0.85
0.26
-0.34
-0.73
-0.86
-0.78
-0.68
-0.71
-0.93
-1.30
-1.70
-2.09
-2.43
-2.74
-2.98
-3.06
-2.91
-2.48
-1.87
-1.28
-0.92
-0.88
-1.11
-1.42
-1.57
-1.44
-1.06
-0.57
-0.16
0.05
0.06
-0.07
-0.19
-0.25
-0.25
-0.24
-0.29
-0.39
-0.49
-0.47
-0.28
0.06
0.45
0.77
0.91
0.85
0.64
0.36
0.06
-0.22
-0.48
-0.68
-0.79
-0.77
-0.60
-0.30
0.04
0.34
0.52
0.56
0.48
0.36
0.29
0.32
0.44
0.60
0.73
0.77
0.69
0.48
0.19
-0.11
-0.32
-0.33
-0.09
0.37
0.94
1.44
1.74
1.74
1.49
1.08
0.64
0.28
0.05
-0.06
-0.08
-0.06
-0.01
0.10
0.27
0.50
0.71
0.81
0.71
0.40
-0.02
-0.38
-0.53
-0.42
-0.15
0.10
0.16
-0.01
-0.35
-0.70
-0.91
-0.96
-0.89
-0.77
-0.69
-0.69
-0.75
-0.84
-0.93
-1.01
-1.05
-1.01
-0.87
-0.62
-0.31
-0.02
0.16
0.12
-0.14
-0.58
-1.08
-1.49
-1.73
-1.78
-1.69
-1.60
-1.62
-1.79
-2.04
-2.24
-2.28
-2.09
-1.73
-1.28
-0.88
-0.59
-0.44
-0.39
-0.41
-0.47
-0.55
-0.63
-0.67
-0.63
-0.49
-0.23
0.11
0.45
0.71
0.83
0.84
0.79
0.75
0.79
0.91
1.08
1.25
1.40
1.53
1.66
1.79
1.87
1.85
1.67
1.36
0.97
0.58
0.25
0.05
0.01
0.16
0.48
0.90
1.30
1.55
1.58
1.43
1.15
0.84
0.56
0.32
0.12
-0.01
-0.04
0.10
0.40
0.74
0.97
1.00
0.78
0.42
0.08
-0.07
0.02
0.31
0.68
0.97
1.06
0.93
0.66
0.39
0.23
0.20
0.23
0.23
0.10
-0.14
-0.42
-0.61
-0.64
-0.50
-0.25
-0.01
0.15
0.16
0.04
-0.13
-0.27
-0.29
-0.19
-0.04
0.03
-0.05
-0.31
-0.65
-0.90
-0.93
-0.75
-0.44
-0.16
-0.02
-0.02
-0.06
-0.04
0.07
0.21
0.27
0.20
0.00
-0.23
-0.38
-0.40
-0.28
-0.08
0.14
0.31
0.41
0.41
0.30
0.08
-0.25
-0.64
-1.00
-1.24
-1.26
-1.02
-0.56
0.02
0.57
0.93
0.99
0.78
0.41
0.08
-0.11
-0.12
-0.02
0.07
0.08
-0.00
-0.10
-0.11
0.01
0.22
0.44
0.58
0.58
0.50
0.39
0.33
0.30
0.25
0.12
-0.14
-0.47
-0.76
-0.91
-0.88
-0.71
-0.51
-0.39
-0.35
-0.35
-0.33
-0.27
-0.20
-0.14
-0.12
-0.12
-0.10
-0.02
0.09
0.20
0.26
0.27
0.28
0.34
0.47
0.61
0.72
0.73
0.66
0.55
0.45
0.36
0.24
0.03
-0.28
-0.65
-0.97
-1.16
-1.17
-1.02
-0.81
-0.62
-0.50
-0.45
-0.44
-0.42
-0.37
-0.30
-0.23
-0.22
-0.29
-0.42
-0.59
-0.69
-0.65
-0.41
0.01
0.52
0.99
1.29
1.33
1.14
0.79
0.40
0.09
-0.06
-0.05
0.06
0.17
0.16
-0.00
-0.29
-0.59
-0.79
-0.78
-0.59
-0.26
0.07
0.34
0.49
0.57
0.63
0.69
0.76
0.83
0.85
0.79
0.66
0.45
0.18
-0.13
-0.41
-0.66
-0.84
-0.93
-0.92
-0.81
-0.60
-0.35
-0.12
0.01
0.01
-0.08
-0.19
-0.20
-0.05
0.21
0.50
0.68
0.68
0.50
0.24
0.01
-0.11
-0.12
-0.04
0.05
0.11
0.13
0.15
0.21
0.31
0.40
0.39
0.23
-0.05
-0.36
-0.59
-0.68
-0.66
-0.64
-0.71
-0.91
-1.15
-1.33
-1.32
-1.13
-0.83
-0.51
-0.27
-0.12
-0.04
-0.00
0.01
0.01
0.03
0.12
0.36
0.75
1.23
1.67
1.92
1.91
1.66
1.28
0.91
0.63
0.43
0.28
0.10
-0.12
-0.33
-0.50
-0.57
-0.55
-0.45
-0.29
-0.07
0.16
0.33
0.38
0.26
-0.01
-0.34
-0.62
-0.77
-0.77
-0.66
-0.50
-0.34
-0.21
-0.07
0.05
0.16
0.22
0.21
0.11
-0.05
-0.24
-0.41
-0.53
-0.55
-0.49
-0.35
-0.18
-0.01
0.11
0.21
0.29
0.41
0.57
0.74
0.84
0.77
0.50
0.07
-0.40
-0.77
-0.95
-0.90
-0.66
-0.33
-0.03
0.18
0.27
0.23
0.11
-0.04
-0.15
-0.16
-0.06
0.10
0.27
0.36
0.33
0.17
-0.08
-0.35
-0.59
-0.73
-0.73
-0.60
-0.38
-0.17
-0.04
-0.05
-0.15
-0.22
-0.15
0.09
0.45
0.78
0.94
0.89
0.70
0.52
0.44
0.52
0.66
0.76
0.74
0.60
0.44
0.35
0.37
0.42
0.41
0.25
-0.03
-0.31
-0.48
-0.45
-0.29
-0.13
-0.10
-0.22
-0.45
-0.64
-0.70
-0.61
-0.45
-0.29
-0.20
-0.14
-0.04
0.14
0.38
0.58
0.64
0.53
0.32
0.09
-0.09
-0.22
-0.34
-0.50
-0.67
-0.77
-0.71
-0.48
-0.17
0.07
0.17
0.12
0.03
-0.02
0.02
0.09
0.11
0.02
-0.16
-0.35
-0.46
-0.46
-0.36
-0.22
-0.08
-0.00
0.02
-0.02
-0.09
-0.11
-0.04
0.15
0.41
0.63
0.70
0.58
0.34
0.16
0.17
0.40
0.72
0.94
0.92
0.62
0.17
-0.22
-0.38
-0.27
-0.00
0.26
0.38
0.27
-0.01
-0.36
-0.62
-0.73
-0.65
-0.40
-0.05
0.32
0.64
0.83
0.81
0.56
0.10
-0.45
-0.94
-1.21
-1.20
-0.95
-0.59
-0.28
-0.11
-0.12
-0.26
-0.45
-0.63
-0.73
-0.73
-0.64
-0.49
-0.30
-0.07
0.19
0.49
0.83
1.13
1.35
1.42
1.34
1.16
0.96
0.79
0.67
0.57
0.45
0.31
0.17
0.04
-0.08
-0.20
-0.31
-0.38
-0.39
-0.33
-0.27
-0.24
-0.28
-0.34
-0.34
-0.20
0.08
0.39
0.58
0.52
0.15
-0.42
-1.02
-1.45
-1.59
-1.43
-1.08
-0.70
-0.41
-0.25
-0.20
-0.18
-0.10
0.03
0.19
0.30
0.34
0.33
0.31
0.33
0.38
0.40
0.36
0.24
0.11
0.08
0.22
0.52
0.87
1.14
1.20
1.01
0.66
0.27
-0.03
-0.16
-0.11
0.07
0.29
0.47
0.55
0.51
0.34
0.07
-0.28
-0.67
-0.99
-1.15
-1.06
-0.76
-0.33
0.07
0.33
0.44
0.45
0.46
0.51
0.55
0.49
0.27
-0.09
-0.50
-0.84
-0.99
-0.95
-0.73
-0.43
-0.16
-0.03
-0.11
-0.42
-0.83
-1.18
-1.29
-1.08
-0.61
-0.07
0.35
0.53
0.47
0.30
0.16
0.14
0.23
0.37
0.47
0.48
0.44
0.40
0.42
0.51
0.63
0.69
0.65
0.50
0.29
0.12
0.07
0.17
0.38
0.61
0.76
0.77
0.61
0.37
0.12
-0.04
-0.09
-0.07
-0.06
-0.12
-0.29
-0.50
-0.65
-0.63
-0.39
0.04
0.54
0.95
1.14
1.08
0.83
0.52
0.33
0.33
0.52
0.81
1.07
1.20
1.15
0.94
0.61
0.21
-0.25
-0.73
-1.17
-1.51
-1.68
-1.64
-1.43
-1.15
-0.91
-0.77
-0.73
-0.70
-0.59
-0.37
-0.11
0.06
0.01
-0.31
-0.83
-1.36
-1.72
-1.80
-1.61
-1.25
-0.83
-0.46
-0.16
0.07
0.28
0.47
0.62
0.71
0.69
0.53
0.24
-0.12
-0.44
-0.60
-0.52
-0.23
0.16
0.45
0.54
0.42
0.21
0.10
0.20
0.48
0.79
0.94
0.80
0.39
-0.14
-0.59
-0.81
-0.71
-0.35
0.18
0.69
1.05
1.15
0.95
0.52
-0.02
-0.53
-0.86
-0.91
-0.70
-0.31
0.12
0.44
0.54
0.44
0.21
-0.01
-0.11
-0.06
0.09
0.24
0.29
0.22
0.06
-0.12
-0.26
-0.33
-0.32
-0.22
-0.06
0.14
0.34
0.46
0.45
0.30
0.08
-0.11
-0.18
-0.11
0.05
0.23
0.35
0.42
0.47
0.53
0.59
0.56
0.35
0.01
-0.36
-0.54
-0.41
0.02
0.55
0.90
0.90
0.52
-0.06
-0.58
-0.88
-0.91
-0.77
-0.63
-0.60
-0.71
-0.83
-0.86
-0.69
-0.35
0.07
0.42
0.60
0.61
0.50
0.42
0.43
0.56
0.73
0.82
0.78
0.61
0.38
0.20
0.10
0.09
0.11
0.11
0.08
0.06
0.06
0.11
0.17
0.18
0.10
-0.09
-0.34
-0.59
-0.76
-0.80
-0.70
-0.48
-0.19
0.11
0.36
0.49
0.45
0.20
-0.18
-0.60
-0.92
-1.05
-0.96
-0.74
-0.46
-0.22
-0.03
0.11
0.20
0.25
0.21
0.08
-0.06
-0.13
-0.05
0.20
0.53
0.81
0.89
0.74
0.41
0.04
-0.23
-0.31
-0.23
-0.07
0.06
0.06
-0.07
-0.27
-0.45
-0.53
-0.48
-0.34
-0.18
-0.06
0.00
0.04
0.07
0.12
0.14
0.09
-0.03
-0.19
-0.31
-0.34
-0.24
-0.07
0.11
0.22
0.26
0.23
0.18
0.10
0.02
-0.08
-0.15
-0.17
-0.10
0.00
0.09
0.07
-0.07
-0.28
-0.46
-0.51
-0.40
-0.19
0.05
0.22
0.30
0.31
0.28
0.23
0.18
0.11
0.01
-0.09
-0.18
-0.26
-0.36
-0.47
-0.58
-0.61
-0.50
-0.24
0.15
0.56
0.88
1.03
0.98
0.79
0.51
0.22
-0.01
-0.14
-0.15
-0.05
0.14
0.36
0.58
0.71
0.73
0.59
0.33
0.02
-0.28
-0.48
-0.55
-0.49
-0.36
-0.21
-0.11
-0.10
-0.16
-0.26
-0.32
-0.28
-0.11
0.12
0.37
0.54
0.63
0.65
0.64
0.60
0.52
0.37
0.16
-0.06
-0.23
-0.30
-0.24
-0.08
0.12
0.27
0.29
0.17
-0.07
-0.35
-0.54
-0.56
-0.39
-0.12
0.11
0.19
0.11
-0.06
-0.20
-0.25
-0.22
-0.19
-0.24
-0.38
-0.57
-0.72
-0.76
-0.67
-0.49
-0.30
-0.12
0.02
0.15
0.27
0.41
0.56
0.69
0.77
0.77
0.68
0.51
0.30
0.10
-0.01
0.02
0.19
0.46
0.71
0.81
0.68
0.30
-0.24
-0.77
-1.16
-1.33
-1.28
-1.08
-0.82
-0.56
-0.32
-0.11
0.03
0.07
-0.01
-0.17
-0.34
-0.41
-0.33
-0.11
0.16
0.37
0.47
0.43
0.31
0.15
0.03
-0.02
0.01
0.08
0.13
0.08
-0.09
-0.36
-0.59
-0.67
-0.54
-0.24
0.10
0.34
0.41
0.33
0.19
0.08
0.03
0.05
0.07
0.08
0.09
0.13
0.21
0.32
0.36
0.29
0.07
-0.24
-0.53
-0.69
-0.63
-0.39
-0.04
0.29
0.52
0.64
0.67
0.67
0.68
0.72
0.75
0.76
0.70
0.58
0.41
0.21
0.04
-0.07
-0.13
-0.14
-0.14
-0.16
-0.22
-0.31
-0.42
-0.51
-0.54
-0.51
-0.39
-0.21
-0.05
0.06
0.07
0.00
-0.11
-0.22
-0.29
-0.32
-0.30
-0.23
-0.06
0.25
0.66
1.05
1.25
1.11
0.59
-0.17
-0.90
-1.33
-1.33
-0.93
-0.34
0.16
0.38
0.26
-0.06
-0.38
-0.55
-0.49
-0.29
-0.06
0.11
0.19
0.25
0.33
0.45
0.55
0.53
0.32
-0.05
-0.45
-0.71
-0.71
-0.47
-0.13
0.15
0.24
0.18
0.08
0.10
0.28
0.56
0.79
0.83
0.64
0.32
0.01
-0.15
-0.16
-0.07
-0.02
-0.08
-0.28
-0.53
-0.75
-0.84
-0.79
-0.67
-0.55
-0.52
-0.58
-0.66
-0.66
-0.54
-0.30
-0.04
0.11
0.12
0.04
-0.01
0.07
0.31
0.60
0.83
0.88
0.74
0.47
0.21
0.05
0.06
0.21
0.41
0.52
0.44
0.18
-0.18
-0.44
-0.47
-0.24
0.15
0.50
0.62
0.47
0.12
-0.23
-0.42
-0.39
-0.17
0.11
0.33
0.39
0.29
0.08
-0.13
-0.26
-0.26
-0.15
0.01
0.13
0.18
0.17
0.16
0.19
0.28
0.38
0.42
0.37
0.25
0.17
0.18
0.31
0.45
0.45
0.24
-0.18
-0.64
-0.96
-1.04
-0.89
-0.62
-0.37
-0.20
-0.09
0.00
0.11
0.17
0.14
0.02
-0.14
-0.24
-0.23
-0.12
0.01
0.11
0.13
0.12
0.12
0.15
0.18
0.18
0.16
0.14
0.19
0.31
0.49
0.66
0.72
0.62
0.39
0.07
-0.25
-0.49
-0.63
-0.68
-0.67
-0.64
-0.60
-0.52
-0.36
-0.15
0.08
0.22
0.25
0.15
0.01
-0.08
-0.08
-0.01
0.05
0.03
-0.12
-0.34
-0.52
-0.55
-0.42
-0.16
0.10
0.25
0.23
0.06
-0.15
-0.29
-0.30
-0.15
0.08
0.28
0.32
0.15
-0.20
-0.61
-0.94
-1.05
-0.89
-0.53
-0.12
0.16
0.25
0.19
0.14
0.21
0.44
0.72
0.91
0.89
0.67
0.38
0.14
0.06
0.13
0.26
0.38
0.46
0.52
0.58
0.63
0.61
0.42
0.05
-0.46
-0.96
-1.31
-1.40
-1.22
-0.83
-0.38
0.02
0.29
0.42
0.44
0.41
0.37
0.34
0.31
0.30
0.30
0.32
0.37
0.41
0.43
0.38
0.23
0.00
-0.26
-0.48
-0.59
-0.52
-0.32
-0.05
0.16
0.23
0.14
-0.07
-0.30
-0.42
-0.36
-0.11
0.24
0.59
0.86
1.02
1.09
1.11
1.10
1.03
0.87
0.61
0.28
-0.03
-0.25
-0.31
-0.22
-0.07
0.05
0.06
-0.06
-0.26
-0.46
-0.58
-0.62
-0.61
-0.60
-0.62
-0.65
-0.63
-0.50
-0.26
0.05
0.33
0.50
0.52
0.40
0.18
-0.06
-0.26
-0.41
-0.50
-0.53
-0.49
-0.38
-0.19
0.05
0.28
0.43
0.44
0.27
0.02
-0.19
-0.20
0.02
0.40
0.71
0.72
0.31
-0.46
-1.33
-2.00
-2.22
-1.95
-1.31
-0.58
0.02
0.35
0.44
0.40
0.36
0.38
0.46
0.54
0.60
0.63
0.67
0.74
0.84
0.94
1.00
1.01
0.99
0.99
1.04
1.14
1.24
1.26
1.14
0.88
0.53
0.15
-0.19
-0.45
-0.63
-0.75
-0.78
-0.73
-0.57
-0.34
-0.12
-0.00
-0.09
-0.36
-0.75
-1.10
-1.30
-1.28
-1.08
-0.81
-0.58
-0.47
-0.49
-0.60
-0.75
-0.86
-0.88
-0.75
-0.50
-0.19
0.04
0.08
-0.11
-0.45
-0.78
-0.95
-0.86
-0.57
-0.21
0.04
0.15
0.18
0.26
0.51
0.90
1.32
1.59
1.61
1.39
1.04
0.71
0.47
0.35
0.28
0.21
0.15
0.14
0.23
0.41
0.65
0.82
0.81
0.54
0.04
-0.57
-1.11
-1.39
-1.35
-1.02
-0.56
-0.18
-0.01
-0.11
-0.40
-0.74
-0.97
-1.00
-0.81
-0.48
-0.11
0.18
0.34
0.37
0.32
0.25
0.19
0.15
0.11
0.05
0.01
0.03
0.16
0.41
0.75
1.09
1.32
1.38
1.28
1.08
0.87
0.74
0.70
0.72
0.76
0.77
0.75
0.72
0.70
0.67
0.62
0.50
0.28
-0.03
-0.37
-0.66
-0.80
-0.74
-0.48
-0.09
0.26
0.40
0.23
-0.22
-0.78
-1.19
-1.34
-1.22
-1.02
-0.95
-1.12
-1.43
-1.68
-1.69
-1.44
-1.07
-0.80
-0.75
-0.88
-1.02
-1.00
-0.79
-0.48
-0.25
-0.23
-0.44
-0.78
-1.12
-1.32
-1.30
-1.02
-0.51
0.11
0.70
1.08
1.16
0.95
0.58
0.20
-0.06
-0.14
-0.05
0.18
0.51
0.91
1.31
1.63
1.78
1.70
1.39
0.98
0.59
0.35
0.31
0.44
0.65
0.83
0.89
0.82
0.63
0.43
0.30
0.30
0.42
0.59
0.73
0.78
0.74
0.66
0.60
0.56
0.51
0.38
0.13
-0.17
-0.43
-0.54
-0.46
-0.29
-0.17
-0.23
-0.49
-0.83
-1.11
-1.18
-1.04
-0.75
-0.42
-0.14
0.06
0.20
0.32
0.40
0.41
0.28
-0.03
-0.49
-1.01
-1.45
-1.71
-1.74
-1.57
-1.29
-1.01
-0.77
-0.56
-0.32
-0.03
0.27
0.49
0.56
0.47
0.30
0.18
0.18
0.33
0.53
0.65
0.57
0.27
-0.18
-0.63
-0.97
-1.13
-1.10
-0.91
-0.62
-0.27
0.08
0.39
0.62
0.76
0.79
0.72
0.60
0.46
0.33
0.21
0.13
0.08
0.07
0.09
0.10
0.07
-0.00
-0.10
-0.18
-0.20
-0.16
-0.09
-0.03
0.00
-0.00
-0.04
-0.10
-0.19
-0.31
-0.42
-0.47
-0.41
-0.26
-0.05
0.17
0.34
0.45
0.51
0.51
0.47
0.34
0.11
-0.17
-0.44
-0.58
-0.49
-0.16
0.32
0.82
1.17
1.24
1.05
0.71
0.38
0.22
0.29
0.50
0.73
0.82
0.71
0.39
-0.02
-0.42
-0.71
-0.87
-0.88
-0.75
-0.47
-0.05
0.46
0.94
1.26
1.29
1.02
0.50
-0.09
-0.62
-0.98
-1.13
-1.10
-0.94
-0.69
-0.37
-0.04
0.24
0.40
0.37
0.16
-0.18
-0.54
-0.78
-0.81
-0.62
-0.27
0.08
0.28
0.23
-0.06
-0.48
-0.87
-1.09
-1.05
-0.81
-0.47
-0.16
0.06
0.17
0.22
0.23
0.25
0.25
0.18
0.04
-0.19
-0.45
-0.68
-0.81
-0.83
-0.75
-0.59
-0.39
-0.16
0.06
0.21
0.22
0.07
-0.24
-0.62
-0.97
-1.17
-1.18
-1.06
-0.91
-0.81
-0.84
-1.02
-1.33
-1.71
-2.10
-2.45
-2.69
-2.78
-2.73
-2.55
-2.31
-2.10
-2.01
-2.13
-2.47
-2.97
-3.51
-3.96
-4.22
-4.30
-4.31
-4.34
-4.40
-4.40
-4.22
-3.74
-2.98
-2.09
-1.22
-0.49
0.10
0.66
1.28
1.97
2.65
3.17
3.41
3.38
3.18
3.00
3.01
3.26
3.75
4.36
4.96
5.47
5.85
6.06
6.07
5.86
5.43
4.86
4.26
3.81
3.58
3.56
3.61
3.53
3.15
2.41
1.38
0.23
-0.79
-1.49
-1.80
-1.81
-1.70
-1.68
-1.82
-2.04
-2.12
-1.88
-1.26
-0.40
0.45
1.06
1.35
1.37
1.28
1.22
1.23
1.24
1.19
1.06
0.89
0.78
0.79
0.94
1.16
1.36
1.43
1.31
1.02
0.60
0.16
-0.23
-0.52
-0.71
-0.79
-0.78
-0.69
-0.54
-0.40
-0.35
-0.46
-0.75
-1.15
-1.51
-1.69
-1.61
-1.29
-0.86
-0.47
-0.25
-0.26
-0.50
-0.88
-1.26
-1.50
-1.47
-1.13
-0.54
0.15
0.77
1.16
1.26
1.13
0.86
0.57
0.33
0.17
0.09
0.09
0.18
0.34
0.49
0.55
0.41
0.08
-0.41
-0.93
-1.35
-1.59
-1.60
-1.43
-1.14
-0.82
-0.52
-0.28
-0.08
0.11
0.38
0.78
1.32
1.96
2.58
3.06
3.33
3.40
3.34
3.25
3.22
3.28
3.39
3.51
3.60
3.63
3.61
3.54
3.40
3.22
3.00
2.78
2.58
2.39
2.19
1.93
1.57
1.13
0.65
0.19
-0.21
-0.52
-0.78
-0.98
-1.14
-1.27
-1.37
-1.44
-1.50
-1.56
-1.62
-1.73
-1.95
-2.31
-2.74
-3.11
-3.23
-3.01
-2.49
-1.89
-1.49
-1.45
-1.74
-2.15
-2.41
-2.37
-2.03
-1.56
-1.16
-0.96
-0.95
-1.05
-1.15
-1.19
-1.14
-1.02
-0.88
-0.73
-0.59
-0.45
-0.29
-0.12
0.04
0.18
0.26
0.26
0.23
0.22
0.26
0.35
0.45
0.51
0.47
0.35
0.20
0.08
0.02
-0.01
-0.06
-0.22
-0.46
-0.69
-0.76
-0.54
-0.05
0.58
1.10
1.29
1.06
0.52
-0.11
-0.56
-0.68
-0.46
-0.04
0.41
0.75
0.92
0.92
0.79
0.57
0.32
0.09
-0.08
-0.14
-0.10
-0.00
0.09
0.11
0.00
-0.21
-0.46
-0.69
-0.84
-0.86
-0.77
-0.58
-0.34
-0.12
0.06
0.20
0.33
0.52
0.80
1.11
1.38
1.48
1.33
0.95
0.46
0.02
-0.22
-0.24
-0.09
0.08
0.15
0.09
-0.07
-0.28
-0.46
-0.62
-0.79
-1.01
-1.29
-1.56
-1.74
-1.75
-1.54
-1.17
-0.76
-0.44
-0.32
-0.41
-0.64
-0.89
-1.00
-0.91
-0.64
-0.30
-0.05
-0.03
-0.25
-0.59
-0.85
-0.82
-0.44
0.16
0.73
1.04
0.99
0.66
0.24
-0.04
-0.13
-0.11
-0.12
-0.28
-0.57
-0.89
-1.08
-1.08
-0.88
-0.56
-0.22
0.08
0.33
0.52
0.66
0.76
0.80
0.76
0.64
0.43
0.19
-0.03
-0.15
-0.14
-0.03
0.08
0.09
-0.04
-0.26
-0.46
-0.56
-0.55
-0.52
-0.55
-0.66
-0.78
-0.76
-0.49
-0.01
0.52
0.90
0.95
0.69
0.28
-0.03
-0.07
0.20
0.65
1.07
1.28
1.25
1.06
0.87
0.78
0.77
0.75
0.62
0.34
-0.02
-0.34
-0.54
-0.57
-0.47
-0.29
-0.06
0.16
0.33
0.39
0.32
0.11
-0.16
-0.40
-0.55
-0.59
-0.57
-0.54
-0.50
-0.43
-0.27
-0.01
0.29
0.50
0.51
0.24
-0.24
-0.73
-1.02
-0.95
-0.52
0.11
0.68
0.99
0.96
0.71
0.41
0.20
0.17
0.25
0.35
0.41
0.40
0.34
0.28
0.20
0.09
-0.05
-0.21
-0.34
-0.42
-0.42
-0.35
-0.24
-0.11
0.01
0.06
0.04
-0.05
-0.15
-0.24
-0.27
-0.29
-0.33
-0.43
-0.58
-0.71
-0.75
-0.63
-0.37
-0.04
0.25
0.41
0.41
0.27
0.05
-0.17
-0.35
-0.41
-0.35
-0.20
-0.01
0.13
0.20
0.20
0.18
0.19
0.24
0.29
0.31
0.25
0.13
-0.00
-0.12
-0.20
-0.25
-0.30
-0.32
-0.32
-0.29
-0.23
-0.18
-0.13
-0.06
0.04
0.13
0.16
0.09
-0.08
-0.26
-0.35
-0.28
-0.09
0.10
0.21
0.20
0.15
0.17
0.30
0.49
0.64
0.67
0.57
0.41
0.27
0.20
0.15
0.07
-0.10
-0.32
-0.52
-0.62
-0.58
-0.42
-0.19
0.04
0.24
0.40
0.52
0.58
0.57
0.47
0.28
0.02
-0.29
-0.61
-0.89
-1.10
-1.23
-1.25
-1.16
-0.95
-0.62
-0.22
0.17
0.47
0.61
0.55
0.34
0.09
-0.09
-0.10
0.10
0.49
0.98
1.40
1.63
1.60
1.34
0.93
0.50
0.13
-0.12
-0.26
-0.30
-0.24
-0.11
0.07
0.23
0.28
0.15
-0.13
-0.48
-0.79
-0.94
-0.92
-0.73
-0.46
-0.17
0.06
0.19
0.18
0.01
-0.29
-0.62
-0.87
-0.89
-0.63
-0.14
0.40
0.77
0.83
0.59
0.20
-0.13
-0.22
-0.08
0.16
0.34
0.34
0.21
0.08
0.07
0.22
0.44
0.60
0.63
0.56
0.47
0.44
0.50
0.61
0.71
0.76
0.77
0.74
0.68
0.57
0.37
0.09
-0.20
-0.44
-0.55
-0.51
-0.36
-0.14
0.07
0.24
0.31
0.24
0.05
-0.19
-0.39
-0.43
-0.31
-0.12
0.01
-0.06
-0.34
-0.71
-0.98
-1.00
-0.74
-0.35
-0.05
-0.02
-0.31
-0.78
-1.24
-1.48
-1.40
-1.04
-0.59
-0.19
0.03
0.09
0.09
0.14
0.28
0.45
0.56
0.53
0.37
0.18
0.10
0.22
0.49
0.76
0.86
0.72
0.37
0.02
-0.16
-0.06
0.31
0.83
1.30
1.59
1.63
1.42
1.04
0.60
0.17
-0.20
-0.48
-0.68
-0.79
-0.81
-0.73
-0.59
-0.42
-0.31
-0.30
-0.43
-0.66
-0.90
-1.02
-0.92
-0.58
-0.05
0.51
0.95
1.15
1.09
0.86
0.57
0.35
0.24
0.20
0.17
0.09
-0.06
-0.23
-0.36
-0.42
-0.40
-0.35
-0.31
-0.33
-0.39
-0.46
-0.48
-0.42
-0.32
-0.22
-0.22
-0.33
-0.48
-0.54
-0.43
-0.10
0.32
0.68
0.85
0.79
0.59
0.40
0.31
0.31
0.32
0.25
0.03
-0.28
-0.58
-0.74
-0.70
-0.48
-0.18
0.13
0.39
0.58
0.70
0.74
0.65
0.42
0.10
-0.25
-0.53
-0.66
-0.64
-0.53
-0.43
-0.43
-0.56
-0.79
-0.98
-1.03
-0.85
-0.45
0.09
0.63
1.06
1.32
1.41
1.37
1.24
1.02
0.73
0.41
0.11
-0.10
-0.18
-0.12
0.00
0.11
0.12
0.02
-0.21
-0.50
-0.80
-1.00
-1.04
-0.89
-0.60
-0.24
0.05
0.20
0.17
-0.03
-0.29
-0.52
-0.63
-0.57
-0.37
-0.10
0.12
0.16
-0.03
-0.39
-0.82
-1.16
-1.30
-1.22
-0.97
-0.65
-0.35
-0.14
-0.02
0.03
0.03
-0.01
-0.09
-0.19
-0.30
-0.36
-0.31
-0.13
0.16
0.48
0.76
0.90
0.89
0.76
0.56
0.36
0.18
0.07
0.04
0.10
0.23
0.40
0.58
0.74
0.87
0.97
1.01
0.97
0.80
0.48
0.07
-0.37
-0.71
-0.89
-0.89
-0.72
-0.44
-0.12
0.16
0.32
0.31
0.13
-0.15
-0.41
-0.51
-0.37
-0.04
0.35
0.63
0.68
0.48
0.16
-0.14
-0.31
-0.35
-0.34
-0.37
-0.48
-0.63
-0.76
-0.78
-0.70
-0.58
-0.53
-0.60
-0.79
-1.01
-1.14
-1.10
-0.85
-0.47
-0.09
0.18
0.29
0.27
0.24
0.31
0.53
0.89
1.28
1.63
1.86
1.98
2.03
2.05
2.08
2.11
2.12
2.07
1.92
1.71
1.48
1.31
1.27
1.31
1.35
1.25
0.92
0.37
-0.25
-0.76
-1.03
-1.04
-0.89
-0.71
-0.62
-0.63
-0.64
-0.58
-0.43
-0.28
-0.25
-0.46
-0.89
-1.37
-1.67
-1.61
-1.18
-0.56
-0.05
0.10
-0.17
-0.71
-1.21
-1.43
-1.27
-0.87
-0.47
-0.29
-0.38
-0.62
-0.83
-0.86
-0.70
-0.42
-0.19
-0.13
-0.29
-0.61
-1.01
-1.37
-1.58
-1.57
-1.33
-0.91
-0.43
-0.02
0.22
0.27
0.16
-0.03
-0.25
-0.46
-0.64
-0.74
-0.74
-0.57
-0.24
0.20
0.64
0.94
0.99
0.79
0.40
-0.02
-0.33
-0.43
-0.28
0.06
0.49
0.92
1.24
1.42
1.45
1.37
1.21
1.01
0.80
0.61
0.48
0.44
0.50
0.62
0.71
0.71
0.55
0.28
-0.00
-0.20
-0.25
-0.16
-0.04
-0.01
-0.14
-0.38
-0.61
-0.69
-0.52
-0.14
0.30
0.62
0.70
0.57
0.33
0.14
0.03
-0.01
-0.10
-0.30
-0.58
-0.82
-0.89
-0.70
-0.29
0.21
0.60
0.76
0.65
0.33
-0.03
-0.27
-0.29
-0.08
0.25
0.56
0.74
0.76
0.69
0.60
0.54
0.47
0.32
0.03
-0.37
-0.76
-1.03
-1.08
-0.93
-0.69
-0.51
-0.50
-0.65
-0.89
-1.06
-1.04
-0.80
-0.44
-0.13
0.01
-0.05
-0.22
-0.30
-0.17
0.17
0.57
0.81
0.73
0.36
-0.13
-0.49
-0.58
-0.36
0.01
0.35
0.54
0.56
0.45
0.33
0.25
0.21
0.18
0.13
0.08
0.04
0.06
0.11
0.15
0.12
-0.01
-0.20
-0.34
-0.35
-0.16
0.20
0.62
1.00
1.21
1.23
1.07
0.81
0.56
0.40
0.35
0.36
0.32
0.14
-0.20
-0.64
-0.99
-1.12
-0.95
-0.56
-0.10
0.26
0.43
0.41
0.27
0.09
-0.10
-0.30
-0.51
-0.68
-0.74
-0.65
-0.42
-0.15
0.05
0.10
-0.00
-0.20
-0.39
-0.51
-0.53
-0.47
-0.36
-0.20
-0.01
0.21
0.42
0.54
0.51
0.34
0.06
-0.25
-0.51
-0.65
-0.63
-0.47
-0.21
0.02
0.13
0.06
-0.17
-0.44
-0.61
-0.60
-0.38
-0.04
0.31
0.60
0.79
0.89
0.87
0.75
0.54
0.31
0.14
0.13
0.27
0.50
0.69
0.79
0.79
0.77
0.84
1.04
1.36
1.68
1.89
1.87
1.62
1.24
0.89
0.70
0.74
0.94
1.19
1.32
1.26
1.01
0.61
0.14
-0.32
-0.74
-1.07
-1.26
-1.27
-1.10
-0.81
-0.54
-0.42
-0.49
-0.71
-0.97
-1.11
-1.08
-0.89
-0.65
-0.49
-0.43
-0.45
-0.46
-0.40
-0.24
-0.03
0.15
0.25
0.22
0.08
-0.15
-0.40
-0.60
-0.72
-0.74
-0.68
-0.62
-0.59
-0.59
-0.59
-0.55
-0.46
-0.37
-0.37
-0.48
-0.69
-0.91
-1.06
-1.09
-1.00
-0.84
-0.68
-0.51
-0.35
-0.20
-0.08
-0.05
-0.13
-0.31
-0.51
-0.65
-0.68
-0.58
-0.41
-0.24
-0.13
-0.11
-0.22
-0.44
-0.73
-1.02
-1.20
-1.14
-0.82
-0.29
0.28
0.66
0.71
0.42
-0.04
-0.45
-0.61
-0.47
-0.07
0.42
0.82
1.03
1.04
0.92
0.77
0.66
0.64
0.69
0.76
0.80
0.80
0.78
0.78
0.83
0.89
0.94
0.95
0.91
0.88
0.87
0.86
0.78
0.57
0.19
-0.28
-0.71
-0.95
-0.93
-0.69
-0.33
0.00
0.22
0.31
0.30
0.24
0.18
0.12
0.04
-0.07
-0.18
-0.25
-0.25
-0.18
-0.09
-0.06
-0.12
-0.23
-0.31
-0.26
-0.05
0.26
0.55
0.70
0.65
0.46
0.26
0.17
0.22
0.36
0.48
0.47
0.30
-0.01
-0.36
-0.67
-0.84
-0.86
-0.73
-0.50
-0.24
-0.02
0.12
0.18
0.19
0.20
0.23
0.26
0.22
0.07
-0.19
-0.47
-0.66
-0.65
-0.44
-0.12
0.19
0.38
0.40
0.31
0.21
0.18
0.30
0.56
0.92
1.26
1.48
1.48
1.26
0.88
0.47
0.12
-0.09
-0.17
-0.16
-0.12
-0.03
0.12
0.36
0.63
0.83
0.86
0.69
0.34
-0.08
-0.44
-0.66
-0.72
-0.64
-0.50
-0.34
-0.19
-0.06
0.04
0.07
-0.03
-0.26
-0.59
-0.89
-1.04
-0.96
-0.69
-0.38
-0.18
-0.19
-0.37
-0.60
-0.77
-0.83
-0.86
-0.96
-1.18
-1.47
-1.67
-1.63
-1.32
-0.80
-0.24
0.20
0.43
0.46
0.37
0.24
0.16
0.19
0.36
0.66
1.03
1.31
1.34
1.04
0.47
-0.16
-0.58
-0.61
-0.28
0.23
0.65
0.81
0.68
0.41
0.15
0.03
0.06
0.15
0.25
0.31
0.38
0.48
0.65
0.85
1.03
1.09
0.99
0.71
0.32
-0.09
-0.38
-0.49
-0.40
-0.20
0.01
0.11
0.06
-0.11
-0.31
-0.45
-0.51
-0.51
-0.50
-0.53
-0.60
-0.66
-0.67
-0.64
-0.61
-0.64
-0.77
-0.99
-1.19
-1.26
-1.13
-0.82
-0.44
-0.11
0.07
0.09
-0.01
-0.15
-0.26
-0.33
-0.35
-0.31
-0.23
-0.17
-0.13
-0.15
-0.20
-0.21
-0.17
-0.07
0.01
-0.01
-0.13
-0.32
-0.43
-0.38
-0.14
0.20
0.50
0.65
0.64
0.52
0.43
0.42
0.53
0.70
0.86
0.96
0.95
0.86
0.71
0.56
0.43
0.34
0.30
0.30
0.33
0.38
0.43
0.44
0.41
0.34
0.26
0.18
0.11
0.00
-0.17
-0.43
-0.75
-1.07
-1.30
-1.42
-1.44
-1.42
-1.41
-1.42
-1.43
-1.38
-1.27
-1.11
-0.93
-0.78
-0.67
-0.59
-0.51
-0.42
-0.34
-0.29
-0.30
-0.34
-0.37
-0.34
-0.22
-0.03
0.17
0.35
0.53
0.71
0.95
1.23
1.51
1.72
1.79
1.73
1.56
1.36
1.16
0.99
0.83
0.65
0.46
0.29
0.21
0.24
0.40
0.63
0.80
0.81
0.61
0.23
-0.19
-0.50
-0.58
-0.42
-0.12
0.18
0.36
0.38
0.30
0.20
0.16
0.17
0.17
0.09
-0.08
-0.28
-0.40
-0.36
-0.13
0.23
0.57
0.77
0.76
0.60
0.35
0.13
-0.01
-0.08
-0.11
-0.14
-0.20
-0.29
-0.41
-0.53
-0.63
-0.69
-0.69
-0.62
-0.52
-0.42
-0.38
-0.41
-0.47
-0.50
-0.44
-0.29
-0.08
0.09
0.16
0.13
0.04
-0.01
0.06
0.24
0.48
0.69
0.85
0.95
1.02
1.06
1.03
0.89
0.63
0.31
0.03
-0.12
-0.11
-0.01
0.08
0.04
-0.15
-0.46
-0.79
-1.05
-1.17
-1.13
-0.98
-0.79
-0.61
-0.50
-0.46
-0.43
-0.34
-0.18
0.03
0.22
0.31
0.26
0.08
-0.15
-0.35
-0.47
-0.46
-0.33
-0.09
0.22
0.54
0.80
0.92
0.88
0.68
0.42
0.19
0.11
0.19
0.39
0.59
0.68
0.56
0.26
-0.10
-0.37
-0.43
-0.28
-0.02
0.22
0.33
0.31
0.23
0.15
0.05
-0.10
-0.36
-0.70
-1.01
-1.16
-1.09
-0.83
-0.51
-0.27
-0.17
-0.19
-0.25
-0.28
-0.30
-0.36
-0.47
-0.60
-0.66
-0.55
-0.26
0.10
0.42
0.60
0.65
0.64
0.66
0.72
0.79
0.77
0.59
0.27
-0.10
-0.38
-0.51
-0.49
-0.41
-0.34
-0.30
-0.24
-0.10
0.18
0.53
0.83
0.93
0.75
0.32
-0.25
-0.78
-1.13
-1.23
-1.09
-0.79
-0.42
-0.06
0.22
0.42
0.53
0.56
0.50
0.32
0.03
-0.33
-0.68
-0.91
-0.93
-0.79
-0.58
-0.45
-0.48
-0.64
-0.79
-0.79
-0.58
-0.24
0.09
0.28
0.29
0.20
0.15
0.24
0.48
0.77
0.96
0.97
0.80
0.59
0.48
0.59
0.90
1.28
1.56
1.60
1.33
0.86
0.33
-0.10
-0.35
-0.45
-0.50
-0.61
-0.79
-0.99
-1.07
-0.92
-0.53
0.02
0.55
0.89
0.96
0.78
0.48
0.23
0.12
0.16
0.26
0.29
0.18
-0.12
-0.53
-0.92
-1.13
-1.06
-0.69
-0.16
0.35
0.69
0.77
0.65
0.45
0.29
0.22
0.19
0.11
-0.06
-0.30
-0.50
-0.53
-0.38
-0.14
0.05
0.05
-0.13
-0.39
-0.57
-0.57
-0.43
-0.24
-0.11
-0.09
-0.09
-0.03
0.17
0.47
0.75
0.86
0.74
0.44
0.08
-0.22
-0.37
-0.40
-0.38
-0.38
-0.42
-0.45
-0.38
-0.14
0.29
0.85
1.37
1.69
1.68
1.34
0.82
0.33
0.05
0.04
0.23
0.45
0.59
0.58
0.47
0.37
0.36
0.41
0.46
0.41
0.24
-0.04
-0.34
-0.59
-0.75
-0.83
-0.87
-0.92
-1.01
-1.13
-1.24
-1.28
-1.19
-1.03
-0.86
-0.76
-0.75
-0.79
-0.77
-0.60
-0.25
0.22
0.66
0.94
1.02
0.92
0.73
0.55
0.43
0.37
0.35
0.34
0.30
0.20
0.05
-0.10
-0.20
-0.17
-0.02
0.18
0.32
0.31
0.13
-0.15
-0.39
-0.48
-0.42
-0.27
-0.15
-0.10
-0.10
-0.10
-0.07
-0.01
-0.02
-0.16
-0.43
-0.71
-0.85
-0.74
-0.36
0.15
0.59
0.78
0.65
0.25
-0.25
-0.67
-0.87
-0.81
-0.55
-0.18
0.16
0.39
0.46
0.41
0.28
0.18
0.16
0.26
0.42
0.57
0.61
0.50
0.27
-0.04
-0.36
-0.63
-0.81
-0.89
-0.80
-0.53
-0.09
0.45
0.95
1.27
1.32
1.08
0.68
0.26
-0.01
-0.08
-0.01
0.10
0.13
0.02
-0.17
-0.35
-0.40
-0.26
0.04
0.40
0.70
0.83
0.77
0.59
0.35
0.16
0.04
-0.03
-0.08
-0.17
-0.26
-0.30
-0.25
-0.09
0.08
0.18
0.12
-0.11
-0.42
-0.71
-0.85
-0.79
-0.53
-0.16
0.22
0.49
0.60
0.58
0.49
0.42
0.41
0.46
0.52
0.53
0.46
0.29
0.04
-0.28
-0.66
-1.02
-1.27
-1.30
-1.04
-0.56
-0.04
0.29
0.30
-0.01
-0.46
-0.85
-0.99
-0.85
-0.52
-0.13
0.20
0.44
0.60
0.71
0.77
0.76
0.67
0.52
0.34
0.18
0.07
0.02
0.01
0.03
0.08
0.16
0.28
0.40
0.49
0.50
0.39
0.16
-0.14
-0.45
-0.67
-0.78
-0.76
-0.65
-0.50
-0.36
-0.20
-0.03
0.14
0.30
0.39
0.37
0.27
0.11
-0.05
-0.17
-0.24
-0.26
-0.23
-0.12
0.07
0.32
0.57
0.70
0.64
0.36
-0.09
-0.59
-1.00
-1.21
-1.18
-0.93
-0.57
-0.17
0.16
0.40
0.54
0.59
0.54
0.35
0.02
-0.42
-0.85
-1.14
-1.20
-1.02
-0.67
-0.25
0.16
0.49
0.73
0.85
0.82
0.64
0.34
0.02
-0.19
-0.22
-0.07
0.17
0.38
0.48
0.43
0.28
0.10
-0.05
-0.11
-0.08
0.01
0.10
0.13
0.05
-0.16
-0.43
-0.69
-0.86
-0.91
-0.85
-0.72
-0.54
-0.33
-0.08
0.20
0.47
0.69
0.78
0.70
0.48
0.22
0.03
0.05
0.30
0.69
1.06
1.28
1.27
1.05
0.73
0.43
0.24
0.14
0.12
0.12
0.14
0.18
0.24
0.28
0.21
-0.00
-0.33
-0.66
-0.87
-0.86
-0.61
-0.24
0.11
0.31
0.32
0.17
-0.05
-0.27
-0.44
-0.59
-0.70
-0.76
-0.73
-0.57
-0.31
-0.02
0.18
0.22
0.11
-0.07
-0.21
-0.21
-0.05
0.22
0.49
0.65
0.67
0.56
0.37
0.15
-0.06
-0.23
-0.36
-0.44
-0.49
-0.49
-0.45
-0.33
-0.13
0.15
0.44
0.67
0.76
0.65
0.40
0.10
-0.16
-0.32
-0.39
-0.44
-0.53
-0.65
-0.75
-0.76
-0.67
-0.51
-0.34
-0.18
-0.00
0.20
0.43
0.63
0.72
0.66
0.45
0.15
-0.13
-0.33
-0.41
-0.42
-0.41
-0.40
-0.41
-0.41
-0.38
-0.27
-0.09
0.14
0.37
0.54
0.60
0.56
0.42
0.21
-0.03
-0.29
-0.56
-0.81
-0.97
-0.98
-0.81
-0.50
-0.14
0.18
0.40
0.51
0.57
0.64
0.75
0.89
1.02
1.09
1.01
0.79
0.44
0.04
-0.32
-0.59
-0.74
-0.79
-0.77
-0.73
-0.66
-0.56
-0.42
-0.26
-0.07
0.12
0.33
0.58
0.84
1.10
1.28
1.32
1.21
0.96
0.64
0.29
-0.02
-0.25
-0.37
-0.37
-0.29
-0.20
-0.19
-0.29
-0.45
-0.58
-0.59
-0.46
-0.25
-0.04
0.13
0.25
0.35
0.44
0.49
0.44
0.24
-0.05
-0.34
-0.53
-0.59
-0.55
-0.47
-0.42
-0.40
-0.38
-0.29
-0.12
0.10
0.33
0.47
0.46
0.28
-0.05
-0.39
-0.62
-0.66
-0.53
-0.31
-0.13
-0.07
-0.11
-0.18
-0.19
-0.12
-0.01
0.03
-0.04
-0.22
-0.40
-0.46
-0.34
-0.03
0.35
0.67
0.83
0.83
0.73
0.60
0.51
0.42
0.32
0.14
-0.10
-0.33
-0.48
-0.48
-0.35
-0.14
0.07
0.24
0.33
0.34
0.29
0.20
0.07
-0.07
-0.23
-0.37
-0.46
-0.47
-0.39
-0.24
-0.05
0.12
0.24
0.30
0.29
0.24
0.14
0.02
-0.12
-0.21
-0.22
-0.15
0.01
0.19
0.33
0.36
0.26
0.02
-0.32
-0.67
-0.94
-1.02
-0.87
-0.55
-0.16
0.20
0.43
0.55
0.58
0.58
0.56
0.50
0.37
0.16
-0.08
-0.30
-0.44
-0.47
-0.39
-0.23
-0.05
0.11
0.20
0.24
0.27
0.34
0.50
0.69
0.84
0.85
0.67
0.33
-0.07
-0.44
-0.69
-0.80
-0.79
-0.69
-0.50
-0.25
0.05
0.33
0.53
0.58
0.46
0.18
-0.16
-0.45
-0.56
-0.45
-0.13
0.26
0.56
0.63
0.43
0.05
-0.36
-0.61
-0.62
-0.41
-0.07
0.24
0.41
0.40
0.23
-0.02
-0.27
-0.45
-0.54
-0.53
-0.45
-0.30
-0.07
0.24
0.57
0.85
1.00
0.97
0.82
0.65
0.57
0.61
0.73
0.79
0.68
0.38
-0.03
-0.41
-0.67
-0.77
-0.79
-0.82
-0.90
-1.01
-1.05
-0.92
-0.62
-0.21
0.18
0.44
0.51
0.45
0.33
0.26
0.27
0.37
0.51
0.64
0.69
0.63
0.48
0.28
0.12
0.06
0.09
0.16
0.19
0.08
-0.19
-0.54
-0.84
-0.95
-0.82
-0.48
-0.08
0.25
0.43
0.47
0.46
0.44
0.47
0.49
0.45
0.30
0.04
-0.25
-0.47
-0.54
-0.46
-0.31
-0.18
-0.17
-0.27
-0.46
-0.60
-0.58
-0.37
-0.00
0.38
0.65
0.72
0.62
0.43
0.28
0.20
0.16
0.12
0.00
-0.15
-0.28
-0.30
-0.21
-0.10
-0.08
-0.22
-0.48
-0.75
-0.90
-0.89
-0.76
-0.62
-0.51
-0.44
-0.32
-0.09
0.22
0.54
0.73
0.72
0.56
0.35
0.22
0.21
0.25
0.28
0.24
0.15
0.06
0.01
-0.01
-0.05
-0.19
-0.39
-0.60
-0.71
-0.65
-0.45
-0.21
-0.07
-0.09
-0.24
-0.42
-0.53
-0.50
-0.35
-0.15
0.01
0.11
0.20
0.32
0.48
0.63
0.69
0.59
0.36
0.09
-0.09
-0.08
0.11
0.39
0.64
0.74
0.65
0.41
0.09
-0.21
-0.42
-0.54
-0.57
-0.52
-0.44
-0.32
-0.17
-0.01
0.14
0.25
0.30
0.29
0.26
0.24
0.29
0.40
0.54
0.68
0.76
0.73
0.60
0.37
0.07
-0.23
-0.43
-0.47
-0.35
-0.15
0.04
0.11
0.02
-0.16
-0.35
-0.46
-0.48
-0.46
-0.51
-0.66
-0.91
-1.13
-1.22
-1.10
-0.80
-0.39
-0.01
0.28
0.47
0.59
0.67
0.70
0.63
0.45
0.21
0.00
-0.08
0.00
0.22
0.45
0.62
0.68
0.69
0.72
0.80
0.87
0.84
0.59
0.12
-0.46
-0.96
-1.20
-1.10
-0.72
-0.24
0.17
0.32
0.19
-0.13
-0.50
-0.74
-0.73
-0.48
-0.08
0.29
0.50
0.48
0.27
0.01
-0.14
-0.11
0.11
0.42
0.71
0.85
0.80
0.60
0.30
-0.03
-0.32
-0.55
-0.69
-0.74
-0.69
-0.56
-0.36
-0.17
-0.03
0.02
-0.03
-0.12
-0.18
-0.17
-0.08
0.04
0.13
0.13
0.03
-0.16
-0.37
-0.56
-0.66
-0.64
-0.50
-0.27
-0.01
0.24
0.44
0.62
0.75
0.84
0.86
0.76
0.56
0.29
0.05
-0.08
-0.04
0.16
0.43
0.65
0.72
0.57
0.28
-0.05
-0.28
-0.33
-0.22
-0.05
0.07
0.06
-0.05
-0.17
-0.22
-0.14
0.07
0.31
0.52
0.63
0.63
0.53
0.37
0.16
-0.06
-0.29
-0.50
-0.69
-0.84
-0.96
-1.01
-1.00
-0.94
-0.83
-0.74
-0.71
-0.74
-0.81
-0.84
-0.74
-0.48
-0.11
0.28
0.56
0.69
0.67
0.57
0.45
0.35
0.28
0.23
0.19
0.19
0.25
0.41
0.65
0.88
1.00
0.95
0.73
0.42
0.18
0.07
0.11
0.17
0.16
-0.00
-0.28
-0.58
-0.79
-0.86
-0.81
-0.71
-0.60
-0.51
-0.42
-0.33
-0.22
-0.12
-0.01
0.07
0.11
0.10
0.04
-0.04
-0.10
-0.10
-0.04
0.07
0.19
0.30
0.41
0.50
0.57
0.60
0.57
0.48
0.38
0.30
0.24
0.17
0.05
-0.14
-0.38
-0.61
-0.76
-0.80
-0.72
-0.57
-0.40
-0.25
-0.11
0.05
0.23
0.45
0.66
0.79
0.79
0.62
0.34
0.01
-0.26
-0.41
-0.44
-0.36
-0.23
-0.07
0.12
0.33
0.53
0.70
0.76
0.69
0.52
0.32
0.17
0.14
0.22
0.34
0.43
0.44
0.37
0.27
0.19
0.15
0.11
0.01
-0.19
-0.45
-0.71
-0.83
-0.76
-0.51
-0.19
0.04
0.07
-0.11
-0.40
-0.65
-0.76
-0.69
-0.54
-0.39
-0.34
-0.38
-0.48
-0.55
-0.56
-0.49
-0.34
-0.14
0.06
0.23
0.30
0.25
0.10
-0.08
-0.19
-0.15
0.03
0.29
0.52
0.61
0.55
0.39
0.21
0.11
0.12
0.19
0.26
0.29
0.24
0.13
-0.02
-0.17
-0.32
-0.42
-0.44
-0.36
-0.19
0.04
0.25
0.38
0.39
0.26
0.03
-0.23
-0.41
-0.39
-0.13
0.33
0.82
1.15
1.17
0.85
0.31
-0.23
-0.59
-0.71
-0.62
-0.42
-0.21
-0.03
0.13
0.26
0.31
0.22
-0.06
-0.44
-0.74
-0.78
-0.46
0.12
0.73
1.11
1.12
0.79
0.29
-0.17
-0.44
-0.48
-0.37
-0.19
0.01
0.18
0.32
0.42
0.41
0.26
-0.03
-0.41
-0.75
-0.97
-0.98
-0.77
-0.43
-0.07
0.18
0.27
0.23
0.13
0.06
0.06
0.11
0.14
0.11
0.01
-0.11
-0.19
-0.17
-0.08
0.04
0.13
0.15
0.10
-0.00
-0.13
-0.23
-0.27
-0.21
-0.09
0.04
0.09
-0.01
-0.23
-0.50
-0.65
-0.58
-0.29
0.08
0.38
0.46
0.33
0.09
-0.12
-0.20
-0.18
-0.13
-0.12
-0.14
-0.16
-0.13
-0.06
-0.00
0.01
-0.05
-0.11
-0.10
0.04
0.26
0.48
0.57
0.52
0.35
0.15
0.01
-0.04
-0.03
0.04
0.15
0.33
0.55
0.77
0.90
0.83
0.54
0.10
-0.35
-0.64
-0.72
-0.60
-0.39
-0.19
-0.04
0.10
0.28
0.49
0.66
0.66
0.43
0.00
-0.46
-0.75
-0.75
-0.49
-0.14
0.06
0.02
-0.24
-0.50
-0.56
-0.28
0.26
0.86
1.25
1.26
0.90
0.33
-0.23
-0.61
-0.72
-0.61
-0.40
-0.21
-0.09
-0.04
-0.01
0.04
0.12
0.23
0.32
0.37
0.38
0.35
0.28
0.17
0.03
-0.12
-0.26
-0.35
-0.38
-0.35
-0.29
-0.22
-0.13
-0.02
0.11
0.21
0.24
0.18
0.05
-0.08
-0.16
-0.16
-0.13
-0.17
-0.31
-0.56
-0.81
-0.96
-0.97
-0.90
-0.85
-0.85
-0.87
-0.74
-0.37
0.26
0.99
1.53
1.69
1.42
0.85
0.27
-0.10
-0.15
0.04
0.32
0.52
0.56
0.41
0.13
-0.18
-0.45
-0.57
-0.51
-0.28
0.03
0.35
0.58
0.72
0.79
0.81
0.75
0.56
0.22
-0.19
-0.56
-0.74
-0.69
-0.49
-0.26
-0.14
-0.15
-0.22
-0.23
-0.11
0.11
0.30
0.34
0.20
-0.05
-0.30
-0.45
-0.50
-0.51
-0.56
-0.64
-0.71
-0.68
-0.49
-0.18
0.16
0.39
0.44
0.27
-0.02
-0.33
-0.56
-0.65
-0.58
-0.37
-0.06
0.27
0.55
0.72
0.72
0.56
0.27
-0.05
-0.28
-0.29
-0.04
0.42
0.93
1.31
1.39
1.15
0.66
0.08
-0.43
-0.75
-0.87
-0.87
-0.82
-0.78
-0.77
-0.72
-0.63
-0.47
-0.28
-0.09
0.09
0.27
0.44
0.57
0.60
0.46
0.17
-0.17
-0.43
-0.48
-0.29
0.08
0.49
0.80
0.96
0.97
0.87
0.69
0.46
0.22
0.01
-0.10
-0.09
-0.02
0.04
0.02
-0.11
-0.26
-0.30
-0.15
0.17
0.50
0.62
0.41
-0.09
-0.69
-1.12
-1.18
-0.85
-0.28
0.24
0.52
0.47
0.19
-0.15
-0.40
-0.49
-0.48
-0.48
-0.51
-0.57
-0.56
-0.41
-0.16
0.08
0.17
0.05
-0.17
-0.32
-0.22
0.15
0.65
1.04
1.15
0.98
0.67
0.40
0.29
0.31
0.34
0.26
0.01
-0.33
-0.64
-0.81
-0.81
-0.70
-0.56
-0.49
-0.50
-0.58
-0.64
-0.61
-0.45
-0.21
0.01
0.09
-0.01
-0.25
-0.48
-0.55
-0.40
-0.11
0.17
0.30
0.24
0.11
0.06
0.19
0.47
0.78
0.96
0.94
0.76
0.53
0.37
0.34
0.42
0.53
0.57
0.48
0.27
-0.01
-0.27
-0.44
-0.51
-0.51
-0.48
-0.46
-0.44
-0.37
-0.23
-0.01
0.21
0.34
0.33
0.18
-0.02
-0.18
-0.23
-0.15
0.04
0.27
0.44
0.49
0.39
0.18
-0.06
-0.26
-0.36
-0.39
-0.40
-0.43
-0.50
-0.55
-0.56
-0.49
-0.39
-0.29
-0.20
-0.12
-0.03
0.09
0.22
0.33
0.39
0.40
0.38
0.35
0.30
0.21
0.10
-0.00
-0.06
-0.05
0.01
0.10
0.19
0.30
0.46
0.67
0.88
0.98
0.88
0.55
0.05
-0.47
-0.86
-1.01
-0.90
-0.62
-0.31
-0.05
0.13
0.28
0.46
0.66
0.81
0.80
0.57
0.17
-0.27
-0.56
-0.62
-0.47
-0.24
-0.04
0.05
0.08
0.09
0.10
0.09
0.02
-0.08
-0.16
-0.12
0.07
0.33
0.56
0.65
0.56
0.35
0.11
-0.05
-0.09
-0.04
0.06
0.14
0.17
0.12
0.02
-0.12
-0.27
-0.37
-0.38
-0.30
-0.11
0.14
0.37
0.52
0.56
0.51
0.38
0.21
-0.02
-0.32
-0.67
-1.00
-1.21
-1.18
-0.92
-0.50
-0.07
0.19
0.22
0.04
-0.22
-0.46
-0.58
-0.57
-0.46
-0.35
-0.29
-0.31
-0.39
-0.46
-0.42
-0.26
0.01
0.32
0.58
0.76
0.86
0.89
0.92
0.92
0.90
0.84
0.72
0.58
0.41
0.22
-0.03
-0.35
-0.72
-1.06
-1.28
-1.29
-1.08
-0.68
-0.19
0.30
0.70
0.95
1.00
0.88
0.65
0.41
0.29
0.33
0.47
0.58
0.48
0.12
-0.43
-0.99
-1.36
-1.41
-1.14
-0.69
-0.23
0.10
0.24
0.23
0.17
0.14
0.16
0.18
0.11
-0.09
-0.38
-0.65
-0.73
-0.59
-0.27
0.04
0.20
0.11
-0.14
-0.42
-0.58
-0.56
-0.41
-0.17
0.05
0.24
0.35
0.35
0.24
0.03
-0.18
-0.29
-0.23
-0.02
0.21
0.31
0.20
-0.07
-0.37
-0.54
-0.48
-0.24
0.09
0.38
0.57
0.66
0.66
0.63
0.59
0.56
0.53
0.51
0.51
0.53
0.58
0.66
0.77
0.89
0.97
0.96
0.80
0.48
0.07
-0.36
-0.68
-0.80
-0.69
-0.38
0.02
0.38
0.61
0.66
0.54
0.30
-0.00
-0.34
-0.66
-0.94
-1.12
-1.14
-0.99
-0.70
-0.36
-0.10
-0.01
-0.12
-0.34
-0.56
-0.66
-0.60
-0.43
-0.22
-0.04
0.08
0.15
0.23
0.34
0.44
0.51
0.52
0.45
0.31
0.13
-0.06
-0.22
-0.27
-0.14
0.15
0.56
0.94
1.17
1.17
0.95
0.59
0.15
-0.26
-0.60
-0.80
-0.81
-0.63
-0.30
0.03
0.24
0.24
0.06
-0.18
-0.35
-0.39
-0.31
-0.19
-0.12
-0.13
-0.21
-0.30
-0.34
-0.27
-0.10
0.13
0.33
0.41
0.34
0.18
0.05
0.07
0.28
0.61
0.89
0.98
0.82
0.46
0.05
-0.27
-0.41
-0.38
-0.25
-0.12
-0.05
-0.08
-0.20
-0.37
-0.54
-0.67
-0.73
-0.71
-0.58
-0.33
0.00
0.37
0.69
0.88
0.88
0.72
0.50
0.35
0.32
0.44
0.60
0.71
0.68
0.54
0.38
0.32
0.45
0.72
1.02
1.22
1.19
0.93
0.54
0.13
-0.15
-0.27
-0.27
-0.30
-0.46
-0.78
-1.13
-1.34
-1.23
-0.75
-0.05
0.60
0.94
0.84
0.40
-0.15
-0.55
-0.66
-0.50
-0.23
-0.04
-0.05
-0.25
-0.50
-0.68
-0.68
-0.50
-0.26
-0.08
-0.04
-0.13
-0.29
-0.41
-0.44
-0.41
-0.38
-0.39
-0.47
-0.54
-0.53
-0.40
-0.17
0.10
0.33
0.45
0.48
0.43
0.36
0.28
0.21
0.16
0.13
0.14
0.15
0.17
0.13
0.00
-0.19
-0.42
-0.62
-0.75
-0.82
-0.83
-0.82
-0.77
-0.62
-0.35
0.02
0.37
0.56
0.47
0.13
-0.30
-0.61
-0.61
-0.28
0.25
0.75
1.05
1.06
0.86
0.60
0.39
0.28
0.20
0.09
-0.09
-0.29
-0.43
-0.45
-0.36
-0.24
-0.21
-0.35
-0.64
-0.99
-1.25
-1.31
-1.14
-0.82
-0.49
-0.27
-0.22
-0.27
-0.31
-0.21
0.11
0.60
1.12
1.50
1.57
1.32
0.83
0.30
-0.09
-0.23
-0.16
0.02
0.13
0.08
-0.11
-0.31
-0.36
-0.20
0.11
0.40
0.53
0.42
0.16
-0.09
-0.18
-0.11
0.05
0.14
0.06
-0.15
-0.38
-0.49
-0.41
-0.16
0.10
0.27
0.25
0.08
-0.14
-0.30
-0.36
-0.31
-0.21
-0.14
-0.10
-0.09
-0.06
0.03
0.21
0.43
0.64
0.77
0.73
0.52
0.16
-0.24
-0.53
-0.59
-0.40
-0.05
0.27
0.39
0.26
-0.06
-0.37
-0.50
-0.38
-0.08
0.28
0.55
0.64
0.54
0.31
0.01
-0.27
-0.49
-0.61
-0.63
-0.53
-0.35
-0.13
0.11
0.34
0.53
0.67
0.75
0.77
0.72
0.63
0.51
0.37
0.25
0.15
0.11
0.13
0.21
0.29
0.32
0.25
0.07
-0.17
-0.40
-0.56
-0.64
-0.65
-0.63
-0.57
-0.47
-0.35
-0.26
-0.25
-0.35
-0.50
-0.60
-0.53
-0.22
0.29
0.86
1.31
1.49
1.35
0.92
0.30
-0.36
-0.93
-1.30
-1.38
-1.14
-0.62
0.02
0.56
0.79
0.64
0.17
-0.43
-0.91
-1.12
-1.03
-0.71
-0.30
0.06
0.31
0.41
0.38
0.27
0.12
-0.02
-0.10
-0.14
-0.13
-0.11
-0.10
-0.07
-0.05
-0.02
0.01
0.05
0.14
0.31
0.59
0.92
1.21
1.32
1.19
0.80
0.26
-0.29
-0.70
-0.90
-0.87
-0.63
-0.27
0.11
0.42
0.58
0.55
0.36
0.12
-0.04
-0.04
0.11
0.33
0.49
0.49
0.34
0.07
-0.19
-0.38
-0.44
-0.40
-0.30
-0.18
-0.08
-0.01
0.03
0.04
0.03
0.05
0.12
0.24
0.35
0.40
0.35
0.21
0.06
-0.02
0.05
0.24
0.46
0.61
0.62
0.49
0.29
0.11
0.00
-0.05
-0.07
-0.09
-0.11
-0.12
-0.11
-0.11
-0.15
-0.23
-0.33
-0.41
-0.43
-0.39
-0.35
-0.33
-0.35
-0.39
-0.39
-0.32
-0.19
-0.03
0.07
0.09
-0.02
-0.22
-0.43
-0.57
-0.56
-0.40
-0.13
0.14
0.31
0.31
0.18
-0.02
-0.21
-0.32
-0.37
-0.40
-0.45
-0.52
-0.59
-0.58
-0.44
-0.17
0.17
0.48
0.67
0.70
0.58
0.39
0.20
0.06
-0.03
-0.12
-0.22
-0.33
-0.41
-0.40
-0.30
-0.16
-0.03
0.03
0.03
-0.02
-0.06
-0.07
-0.02
0.06
0.15
0.19
0.12
-0.06
-0.33
-0.61
-0.79
-0.79
-0.61
-0.35
-0.12
-0.01
-0.04
-0.14
-0.23
-0.26
-0.21
-0.08
0.10
0.29
0.48
0.59
0.60
0.49
0.33
0.23
0.29
0.51
0.79
1.00
1.02
0.82
0.51
0.27
0.24
0.47
0.85
1.24
1.46
1.41
1.10
0.62
0.09
-0.37
-0.71
-0.89
-0.92
-0.85
-0.72
-0.58
-0.48
-0.44
-0.46
-0.48
-0.43
-0.31
-0.15
-0.03
-0.03
-0.15
-0.36
-0.56
-0.66
-0.65
-0.58
-0.52
-0.52
-0.55
-0.54
-0.40
-0.10
0.26
0.55
0.64
0.50
0.22
-0.06
-0.23
-0.24
-0.15
-0.05
0.03
0.11
0.23
0.40
0.55
0.60
0.46
0.20
-0.09
-0.21
-0.09
0.24
0.65
0.95
0.99
0.76
0.34
-0.08
-0.35
-0.37
-0.16
0.16
0.47
0.64
0.62
0.43
0.13
-0.22
-0.58
-0.90
-1.13
-1.19
-1.03
-0.64
-0.13
0.33
0.57
0.52
0.23
-0.17
-0.51
-0.71
-0.76
-0.73
-0.66
-0.56
-0.39
-0.11
0.24
0.59
0.84
0.91
0.78
0.53
0.29
0.19
0.28
0.54
0.86
1.10
1.14
0.93
0.55
0.09
-0.33
-0.62
-0.78
-0.83
-0.80
-0.73
-0.64
-0.55
-0.47
-0.43
-0.44
-0.46
-0.44
-0.34
-0.15
0.08
0.27
0.34
0.29
0.16
0.03
-0.02
0.00
0.08
0.13
0.13
0.08
0.04
0.05
0.14
0.26
0.37
0.44
0.49
0.53
0.57
0.57
0.49
0.30
0.05
-0.18
-0.30
-0.29
-0.22
-0.18
-0.27
-0.45
-0.57
-0.51
-0.21
0.22
0.59
0.74
0.62
0.30
-0.08
-0.42
-0.66
-0.81
-0.88
-0.84
-0.70
-0.48
-0.27
-0.16
-0.17
-0.27
-0.36
-0.37
-0.26
-0.06
0.16
0.34
0.48
0.60
0.71
0.77
0.75
0.60
0.32
-0.07
-0.46
-0.79
-0.98
-0.99
-0.84
-0.55
-0.18
0.20
0.51
0.65
0.60
0.37
0.08
-0.17
-0.29
-0.28
-0.22
-0.18
-0.23
-0.34
-0.42
-0.39
-0.22
-0.00
0.14
0.10
-0.12
-0.41
-0.59
-0.55
-0.28
0.11
0.46
0.62
0.58
0.42
0.26
0.19
0.23
0.31
0.34
0.23
-0.03
-0.38
-0.72
-0.92
-0.89
-0.60
-0.10
0.49
0.99
1.27
1.26
1.03
0.70
0.42
0.26
0.22
0.25
0.29
0.30
0.30
0.29
0.26
0.21
0.13
0.03
-0.04
-0.01
0.13
0.32
0.45
0.40
0.15
-0.26
-0.70
-1.00
-1.10
-1.00
-0.76
-0.48
-0.22
-0.01
0.13
0.20
0.21
0.15
0.07
0.05
0.14
0.32
0.55
0.70
0.68
0.45
0.07
-0.36
-0.72
-0.91
-0.89
-0.68
-0.32
0.08
0.45
0.69
0.74
0.60
0.36
0.09
-0.09
-0.15
-0.09
-0.00
0.03
-0.06
-0.25
-0.47
-0.63
-0.65
-0.52
-0.30
-0.06
0.13
0.26
0.34
0.39
0.42
0.40
0.32
0.18
0.05
-0.01
0.06
0.27
0.53
0.73
0.77
0.64
0.35
0.02
-0.24
-0.35
-0.29
-0.13
0.01
0.01
-0.17
-0.46
-0.69
-0.71
-0.45
-0.01
0.45
0.74
0.77
0.59
0.30
0.04
-0.12
-0.18
-0.17
-0.11
-0.03
0.09
0.23
0.31
0.31
0.19
-0.01
-0.24
-0.43
-0.52
-0.48
-0.31
-0.04
0.24
0.43
0.44
0.27
-0.05
-0.41
-0.71
-0.85
-0.84
-0.71
-0.55
-0.44
-0.41
-0.47
-0.58
-0.67
-0.69
-0.60
-0.39
-0.08
0.27
0.59
0.81
0.89
0.80
0.59
0.36
0.19
0.16
0.27
0.46
0.62
0.65
0.51
0.22
-0.14
-0.45
-0.64
-0.68
-0.59
-0.46
-0.38
-0.38
-0.43
-0.43
-0.28
0.06
0.55
1.05
1.38
1.45
1.26
0.94
0.66
0.53
0.61
0.81
1.00
1.02
0.79
0.33
-0.21
-0.63
-0.79
-0.64
-0.28
0.15
0.47
0.56
0.42
0.10
-0.32
-0.73
-1.06
-1.23
-1.16
-0.82
-0.26
0.37
0.87
1.08
0.95
0.55
0.04
-0.39
-0.63
-0.65
-0.48
-0.22
0.03
0.20
0.26
0.20
0.05
-0.14
-0.30
-0.36
-0.31
-0.16
0.02
0.16
0.20
0.15
0.06
-0.01
-0.03
-0.02
0.00
-0.02
-0.08
-0.16
-0.23
-0.26
-0.28
-0.31
-0.38
-0.44
-0.46
-0.41
-0.29
-0.12
0.04
0.18
0.30
0.40
0.48
0.55
0.54
0.44
0.23
-0.08
-0.44
-0.77
-1.00
-1.08
-0.99
-0.80
-0.61
-0.51
-0.54
-0.67
-0.82
-0.90
-0.86
-0.70
-0.48
-0.22
0.05
0.30
0.53
0.71
0.80
0.78
0.66
0.45
0.22
0.01
-0.13
-0.17
-0.08
0.12
0.38
0.60
0.70
0.62
0.42
0.17
-0.04
-0.15
-0.17
-0.18
-0.22
-0.32
-0.45
-0.53
-0.51
-0.40
-0.27
-0.21
-0.25
-0.36
-0.43
-0.34
-0.04
0.41
0.87
1.17
1.22
1.00
0.61
0.18
-0.16
-0.35
-0.36
-0.24
-0.06
0.12
0.24
0.27
0.23
0.13
-0.00
-0.15
-0.29
-0.39
-0.40
-0.30
-0.09
0.14
0.26
0.14
-0.24
-0.78
-1.25
-1.45
-1.26
-0.75
-0.17
0.21
0.27
0.02
-0.29
-0.45
-0.30
0.11
0.60
0.97
1.06
0.90
0.61
0.34
0.22
0.27
0.43
0.58
0.63
0.54
0.36
0.19
0.10
0.11
0.13
0.06
-0.12
-0.38
-0.55
-0.52
-0.22
0.25
0.73
1.00
0.98
0.68
0.24
-0.14
-0.32
-0.27
-0.08
0.14
0.25
0.22
0.09
-0.04
-0.09
-0.07
-0.04
-0.09
-0.29
-0.59
-0.88
-1.06
-1.05
-0.87
-0.57
-0.25
0.05
0.31
0.53
0.71
0.79
0.75
0.55
0.24
-0.09
-0.30
-0.29
-0.03
0.42
0.90
1.28
1.42
1.30
0.97
0.53
0.08
-0.28
-0.48
-0.51
-0.38
-0.16
0.05
0.16
0.11
-0.12
-0.44
-0.76
-0.99
-1.10
-1.11
-1.07
-1.04
-1.02
-1.02
-1.03
-1.03
-1.03
-1.02
-0.96
-0.82
-0.57
-0.22
0.18
0.55
0.83
0.97
0.97
0.84
0.62
0.35
0.08
-0.13
-0.23
-0.18
0.02
0.33
0.67
0.96
1.12
1.11
0.95
0.72
0.52
0.42
0.45
0.55
0.62
0.61
0.50
0.34
0.18
0.10
0.09
0.11
0.11
0.05
-0.08
-0.25
-0.39
-0.47
-0.47
-0.38
-0.24
-0.10
0.00
0.01
-0.09
-0.27
-0.49
-0.69
-0.86
-0.95
-0.98
-0.97
-0.92
-0.86
-0.76
-0.60
-0.39
-0.14
0.09
0.25
0.31
0.31
0.31
0.35
0.41
0.42
0.33
0.14
-0.07
-0.17
-0.11
0.06
0.24
0.28
0.15
-0.07
-0.25
-0.26
-0.06
0.28
0.61
0.83
0.86
0.74
0.54
0.36
0.22
0.13
0.04
-0.10
-0.27
-0.44
-0.51
-0.44
-0.18
0.19
0.57
0.81
0.80
0.53
0.10
-0.33
-0.59
-0.60
-0.40
-0.14
0.05
0.10
-0.00
-0.15
-0.26
-0.26
-0.18
-0.09
-0.06
-0.12
-0.25
-0.41
-0.55
-0.66
-0.70
-0.66
-0.50
-0.22
0.14
0.52
0.78
0.86
0.73
0.47
0.20
0.03
0.01
0.11
0.27
0.43
0.55
0.61
0.61
0.52
0.36
0.14
-0.07
-0.19
-0.19
-0.07
0.11
0.29
0.41
0.47
0.48
0.46
0.39
0.24
-0.02
-0.38
-0.78
-1.14
-1.40
-1.50
-1.46
-1.34
-1.20
-1.09
-1.05
-1.04
-1.02
-0.95
-0.80
-0.61
-0.41
-0.22
-0.04
0.16
0.40
0.66
0.88
1.01
1.00
0.89
0.74
0.61
0.58
0.63
0.72
0.80
0.80
0.70
0.51
0.28
0.07
-0.08
-0.18
-0.24
-0.30
-0.34
-0.30
-0.15
0.12
0.46
0.73
0.84
0.73
0.44
0.08
-0.24
-0.41
-0.40
-0.28
-0.15
-0.09
-0.14
-0.23
-0.28
-0.21
-0.04
0.15
0.23
0.14
-0.09
-0.34
-0.46
-0.41
-0.22
0.00
0.15
0.20
0.19
0.20
0.29
0.46
0.66
0.81
0.88
0.87
0.79
0.66
0.46
0.16
-0.24
-0.68
-1.05
-1.23
-1.14
-0.82
-0.38
0.02
0.27
0.36
0.34
0.32
0.34
0.41
0.50
0.57
0.59
0.55
0.44
0.25
0.01
-0.24
-0.39
-0.37
-0.14
0.21
0.54
0.70
0.63
0.39
0.12
-0.06
-0.13
-0.14
-0.20
-0.37
-0.60
-0.80
-0.87
-0.78
-0.60
-0.42
-0.37
-0.46
-0.67
-0.86
-0.92
-0.77
-0.43
0.01
0.42
0.67
0.71
0.57
0.31
0.01
-0.21
-0.32
-0.29
-0.16
0.03
0.23
0.43
0.62
0.80
0.96
1.02
0.93
0.68
0.35
0.03
-0.15
-0.17
-0.09
0.01
0.04
-0.01
-0.10
-0.16
-0.15
-0.11
-0.07
-0.06
-0.06
-0.07
-0.08
-0.11
-0.22
-0.45
-0.78
-1.16
-1.48
-1.62
-1.50
-1.12
-0.55
0.05
0.55
0.83
0.88
0.76
0.59
0.47
0.44
0.47
0.51
0.48
0.40
0.30
0.22
0.20
0.23
0.28
0.30
0.26
0.18
0.08
-0.04
-0.20
-0.39
-0.59
-0.70
-0.63
-0.31
0.21
0.75
1.09
1.06
0.63
-0.06
-0.74
-1.18
-1.25
-1.00
-0.60
-0.22
0.01
0.10
0.09
0.05
0.00
-0.10
-0.30
-0.58
-0.86
-0.98
-0.84
-0.46
0.00
0.35
0.43
0.25
-0.06
-0.29
-0.31
-0.14
0.09
0.23
0.20
0.05
-0.10
-0.12
0.03
0.31
0.61
0.83
0.93
0.90
0.78
0.59
0.34
0.05
-0.26
-0.52
-0.65
-0.57
-0.25
0.26
0.80
1.20
1.28
0.99
0.41
-0.26
-0.77
-0.95
-0.77
-0.35
0.10
0.39
0.43
0.23
-0.09
-0.40
-0.59
-0.62
-0.52
-0.36
-0.21
-0.12
-0.11
-0.18
-0.27
-0.36
-0.40
-0.35
-0.20
0.05
0.34
0.61
0.76
0.74
0.52
0.20
-0.09
-0.21
-0.11
0.19
0.55
0.79
0.80
0.56
0.20
-0.12
-0.25
-0.13
0.16
0.47
0.63
0.55
0.25
-0.16
-0.57
-0.87
-1.04
-1.10
-1.07
-0.99
-0.86
-0.73
-0.61
-0.54
-0.52
-0.51
-0.47
-0.37
-0.19
0.02
0.21
0.37
0.47
0.51
0.49
0.41
0.25
0.01
-0.27
-0.54
-0.70
-0.69
-0.48
-0.11
0.33
0.69
0.84
0.74
0.39
-0.09
-0.56
-0.90
-1.05
-1.00
-0.76
-0.38
0.09
0.57
0.97
1.22
1.27
1.17
0.99
0.81
0.66
0.50
0.27
-0.07
-0.46
-0.77
-0.89
-0.77
-0.50
-0.23
-0.12
-0.22
-0.43
-0.59
-0.56
-0.30
0.09
0.46
0.66
0.65
0.48
0.25
0.03
-0.17
-0.40
-0.65
-0.87
-0.95
-0.80
-0.43
0.07
0.52
0.78
0.79
0.61
0.34
0.10
-0.05
-0.11
-0.12
-0.13
-0.18
-0.28
-0.39
-0.42
-0.30
0.00
0.41
0.79
0.97
0.86
0.51
0.09
-0.21
-0.26
-0.07
0.22
0.45
0.51
0.41
0.27
0.23
0.36
0.62
0.87
0.95
0.82
0.50
0.13
-0.15
-0.26
-0.24
-0.18
-0.18
-0.29
-0.48
-0.69
-0.82
-0.85
-0.79
-0.69
-0.63
-0.63
-0.68
-0.74
-0.75
-0.68
-0.50
-0.22
0.12
0.47
0.78
1.00
1.12
1.17
1.15
1.09
0.97
0.77
0.49
0.13
-0.23
-0.51
-0.62
-0.54
-0.33
-0.06
0.15
0.24
0.20
0.09
-0.05
-0.15
-0.23
-0.31
-0.42
-0.55
-0.62
-0.59
-0.43
-0.19
0.06
0.25
0.37
0.48
0.61
0.79
0.95
0.99
0.82
0.47
0.05
-0.31
-0.48
-0.44
-0.25
-0.02
0.14
0.17
0.06
-0.12
-0.32
-0.46
-0.52
-0.47
-0.31
-0.06
0.23
0.50
0.70
0.77
0.68
0.43
0.10
-0.24
-0.49
-0.60
-0.57
-0.41
-0.18
0.06
0.24
0.32
0.25
0.02
-0.32
-0.65
-0.84
-0.82
-0.61
-0.31
-0.04
0.12
0.16
0.16
0.18
0.23
0.26
0.19
-0.00
-0.26
-0.45
-0.46
-0.28
0.04
0.36
0.54
0.52
0.32
0.05
-0.18
-0.28
-0.22
-0.06
0.12
0.24
0.27
0.22
0.16
0.11
0.10
0.09
0.03
-0.08
-0.19
-0.25
-0.21
-0.08
0.10
0.26
0.36
0.42
0.46
0.49
0.51
0.46
0.33
0.12
-0.09
-0.23
-0.24
-0.16
-0.08
-0.10
-0.27
-0.54
-0.80
-0.90
-0.79
-0.52
-0.23
-0.08
-0.13
-0.33
-0.57
-0.72
-0.72
-0.59
-0.38
-0.17
0.02
0.17
0.28
0.37
0.45
0.50
0.53
0.52
0.47
0.35
0.19
0.02
-0.11
-0.15
-0.10
0.05
0.25
0.48
0.70
0.87
0.96
0.95
0.87
0.75
0.66
0.63
0.64
0.66
0.65
0.62
0.59
0.59
0.62
0.63
0.53
0.26
-0.19
-0.74
-1.25
-1.58
-1.65
-1.47
-1.14
-0.79
-0.53
-0.41
-0.40
-0.43
-0.43
-0.39
-0.35
-0.32
-0.28
-0.22
-0.11
0.01
0.09
0.05
-0.08
-0.22
-0.23
-0.02
0.40
0.89
1.27
1.41
1.27
0.93
0.54
0.24
0.11
0.17
0.33
0.53
0.68
0.75
0.78
0.82
0.89
0.99
1.05
1.01
0.80
0.46
0.06
-0.28
-0.45
-0.42
-0.24
-0.00
0.17
0.20
0.11
-0.02
-0.09
-0.03
0.11
0.23
0.19
-0.07
-0.53
-1.05
-1.49
-1.76
-1.81
-1.66
-1.37
-0.99
-0.59
-0.26
-0.06
-0.03
-0.10
-0.16
-0.15
-0.03
0.11
0.19
0.18
0.11
0.08
0.14
0.26
0.31
0.19
-0.13
-0.55
-0.94
-1.17
-1.21
-1.12
-0.96
-0.76
-0.51
-0.19
0.18
0.48
0.60
0.49
0.20
-0.15
-0.41
-0.49
-0.41
-0.26
-0.11
-0.04
-0.05
-0.09
-0.13
-0.09
0.05
0.28
0.54
0.73
0.77
0.63
0.35
0.07
-0.09
-0.03
0.21
0.54
0.82
0.96
0.92
0.78
0.62
0.51
0.47
0.46
0.39
0.23
-0.04
-0.33
-0.57
-0.70
-0.72
-0.71
-0.74
-0.84
-0.96
-0.98
-0.82
-0.46
0.00
0.43
0.67
0.65
0.40
0.02
-0.35
-0.59
-0.63
-0.48
-0.20
0.14
0.44
0.66
0.75
0.67
0.43
0.06
-0.34
-0.65
-0.76
-0.63
-0.29
0.13
0.48
0.66
0.66
0.51
0.31
0.15
0.08
0.07
0.11
0.14
0.15
0.15
0.16
0.19
0.23
0.24
0.19
0.07
-0.08
-0.19
-0.21
-0.11
0.06
0.22
0.29
0.22
0.04
-0.19
-0.38
-0.48
-0.47
-0.44
-0.44
-0.54
-0.71
-0.89
-0.97
-0.87
-0.58
-0.19
0.16
0.36
0.37
0.23
0.04
-0.12
-0.18
-0.14
-0.04
0.07
0.17
0.23
0.23
0.18
0.08
-0.02
-0.08
-0.05
0.04
0.15
0.17
0.04
-0.21
-0.46
-0.56
-0.42
-0.01
0.58
1.18
1.63
1.84
1.84
1.69
1.50
1.37
1.32
1.34
1.39
1.47
1.57
1.67
1.73
1.67
1.42
0.95
0.32
-0.34
-0.87
-1.14
-1.15
-0.94
-0.66
-0.40
-0.26
-0.27
-0.43
-0.68
-0.98
-1.21
-1.29
-1.15
-0.81
-0.38
-0.01
0.17
0.10
-0.18
-0.51
-0.77
-0.87
-0.79
-0.62
-0.42
-0.26
-0.15
-0.08
-0.01
0.06
0.12
0.15
0.14
0.09
0.01
-0.09
-0.19
-0.25
-0.28
-0.26
-0.25
-0.27
-0.36
-0.46
-0.51
-0.45
-0.26
-0.00
0.22
0.32
0.29
0.18
0.08
0.06
0.12
0.19
0.23
0.24
0.22
0.21
0.19
0.09
-0.12
-0.45
-0.81
-1.08
-1.12
-0.90
-0.45
0.09
0.58
0.89
0.96
0.81
0.47
0.06
-0.33
-0.61
-0.70
-0.58
-0.30
0.03
0.24
0.24
0.01
-0.35
-0.67
-0.77
-0.60
-0.26
0.05
0.18
0.06
-0.22
-0.49
-0.60
-0.52
-0.34
-0.15
-0.03
0.07
0.20
0.39
0.59
0.67
0.48
0.03
-0.58
-1.11
-1.35
-1.19
-0.72
-0.12
0.38
0.63
0.60
0.37
0.05
-0.27
-0.54
-0.78
-0.99
-1.16
-1.25
-1.20
-1.00
-0.65
-0.24
0.15
0.43
0.57
0.58
0.49
0.35
0.22
0.17
0.22
0.38
0.59
0.76
0.82
0.74
0.55
0.33
0.17
0.12
0.20
0.36
0.52
0.64
0.69
0.66
0.55
0.38
0.21
0.10
0.10
0.21
0.35
0.46
0.46
0.36
0.21
0.07
-0.05
-0.14
-0.24
-0.35
-0.43
-0.44
-0.34
-0.15
0.07
0.26
0.36
0.31
0.12
-0.19
-0.56
-0.86
-0.98
-0.86
-0.53
-0.10
0.27
0.44
0.41
0.25
0.06
-0.06
-0.09
-0.08
-0.07
-0.11
-0.18
-0.23
-0.24
-0.25
-0.28
-0.37
-0.53
-0.68
-0.76
-0.74
-0.64
-0.52
-0.41
-0.31
-0.17
0.02
0.25
0.45
0.56
0.54
0.45
0.39
0.43
0.57
0.75
0.87
0.85
0.67
0.38
0.07
-0.16
-0.26
-0.21
-0.04
0.18
0.35
0.44
0.41
0.31
0.19
0.10
0.09
0.14
0.23
0.30
0.32
0.29
0.22
0.14
0.08
0.04
0.02
-0.01
-0.08
-0.18
-0.30
-0.45
-0.62
-0.80
-0.96
-1.04
-0.99
-0.80
-0.55
-0.33
-0.24
-0.28
-0.34
-0.31
-0.10
0.25
0.66
0.99
1.15
1.13
0.98
0.78
0.58
0.42
0.31
0.24
0.22
0.21
0.24
0.31
0.42
0.58
0.71
0.72
0.51
0.09
-0.43
-0.89
-1.12
-1.11
-0.93
-0.73
-0.63
-0.65
-0.69
-0.65
-0.49
-0.25
-0.06
-0.03
-0.17
-0.40
-0.62
-0.72
-0.72
-0.65
-0.58
-0.55
-0.54
-0.49
-0.34
-0.06
0.31
0.69
0.96
1.04
0.88
0.55
0.14
-0.20
-0.38
-0.41
-0.33
-0.23
-0.12
0.01
0.21
0.49
0.81
1.03
1.06
0.85
0.51
0.17
-0.03
-0.05
0.06
0.17
0.21
0.15
0.03
-0.11
-0.19
-0.22
-0.20
-0.14
-0.03
0.11
0.26
0.35
0.35
0.27
0.15
0.04
0.00
0.03
0.11
0.22
0.32
0.37
0.32
0.12
-0.22
-0.65
-1.04
-1.25
-1.19
-0.85
-0.34
0.17
0.52
0.64
0.53
0.29
0.07
-0.05
-0.02
0.13
0.34
0.52
0.60
0.55
0.40
0.19
-0.00
-0.12
-0.15
-0.12
-0.11
-0.16
-0.27
-0.41
-0.50
-0.50
-0.37
-0.16
0.08
0.28
0.41
0.46
0.44
0.40
0.37
0.34
0.29
0.18
-0.02
-0.28
-0.54
-0.74
-0.82
-0.78
-0.66
-0.51
-0.37
-0.22
-0.06
0.12
0.31
0.45
0.49
0.43
0.29
0.15
0.08
0.10
0.22
0.35
0.45
0.46
0.38
0.24
0.09
-0.03
-0.10
-0.13
-0.14
-0.14
-0.15
-0.17
-0.20
-0.22
-0.22
-0.21
-0.22
-0.26
-0.35
-0.48
-0.59
-0.57
-0.39
-0.03
0.43
0.83
1.07
1.09
0.95
0.77
0.65
0.61
0.58
0.45
0.18
-0.16
-0.39
-0.39
-0.09
0.36
0.76
0.90
0.74
0.38
0.00
-0.21
-0.20
-0.05
0.12
0.21
0.19
0.13
0.10
0.12
0.15
0.11
-0.06
-0.32
-0.59
-0.75
-0.73
-0.54
-0.26
-0.00
0.15
0.15
0.02
-0.22
-0.48
-0.72
-0.88
-0.94
-0.89
-0.78
-0.65
-0.57
-0.55
-0.56
-0.55
-0.50
-0.40
-0.29
-0.19
-0.12
-0.07
-0.04
-0.01
-0.00
-0.02
-0.03
0.01
0.17
0.44
0.77
1.04
1.12
0.97
0.64
0.26
-0.06
-0.21
-0.18
-0.02
0.18
0.36
0.49
0.59
0.66
0.71
0.71
0.60
0.39
0.12
-0.11
-0.20
-0.13
0.06
0.24
0.25
0.01
-0.43
-0.97
-1.43
-1.68
-1.64
-1.33
-0.83
-0.26
0.23
0.56
0.69
0.67
0.53
0.33
0.13
-0.05
-0.20
-0.27
-0.22
-0.01
0.31
0.64
0.86
0.87
0.68
0.36
0.07
-0.07
-0.02
0.17
0.41
0.59
0.61
0.48
0.27
0.07
-0.01
0.03
0.14
0.21
0.12
-0.15
-0.53
-0.90
-1.12
-1.13
-0.95
-0.69
-0.44
-0.27
-0.15
-0.07
0.01
0.07
0.07
-0.01
-0.15
-0.29
-0.35
-0.31
-0.18
-0.04
0.04
0.04
-0.00
-0.04
-0.03
0.05
0.17
0.29
0.33
0.27
0.08
-0.19
-0.47
-0.66
-0.68
-0.54
-0.30
-0.07
0.06
0.06
0.02
0.02
0.14
0.36
0.60
0.74
0.74
0.62
0.45
0.33
0.29
0.33
0.41
0.46
0.48
0.45
0.41
0.38
0.39
0.43
0.49
0.55
0.57
0.55
0.48
0.38
0.29
0.24
0.24
0.24
0.19
0.03
-0.22
-0.52
-0.77
-0.91
-0.95
-0.92
-0.92
-0.98
-1.09
-1.18
-1.18
-1.04
-0.76
-0.38
0.01
0.34
0.55
0.60
0.49
0.29
0.07
-0.07
-0.13
-0.11
-0.10
-0.12
-0.18
-0.22
-0.19
-0.06
0.10
0.22
0.22
0.11
-0.03
-0.09
0.02
0.25
0.50
0.62
0.53
0.27
-0.02
-0.20
-0.18
0.03
0.30
0.50
0.59
0.57
0.51
0.44
0.36
0.19
-0.09
-0.49
-0.90
-1.19
-1.25
-1.08
-0.75
-0.38
-0.08
0.09
0.16
0.19
0.19
0.16
0.05
-0.14
-0.39
-0.62
-0.73
-0.67
-0.45
-0.15
0.12
0.28
0.33
0.30
0.28
0.33
0.45
0.55
0.52
0.26
-0.20
-0.75
-1.20
-1.35
-1.14
-0.64
-0.00
0.56
0.92
1.02
0.89
0.60
0.22
-0.17
-0.49
-0.67
-0.66
-0.48
-0.18
0.14
0.39
0.55
0.66
0.73
0.76
0.72
0.53
0.20
-0.18
-0.46
-0.54
-0.39
-0.11
0.12
0.17
0.01
-0.26
-0.45
-0.44
-0.19
0.21
0.58
0.79
0.77
0.55
0.22
-0.11
-0.37
-0.58
-0.75
-0.89
-1.01
-1.04
-0.96
-0.78
-0.56
-0.37
-0.24
-0.18
-0.16
-0.13
-0.10
-0.09
-0.14
-0.24
-0.34
-0.35
-0.19
0.17
0.66
1.15
1.48
1.52
1.24
0.72
0.14
-0.32
-0.51
-0.44
-0.17
0.14
0.39
0.52
0.56
0.55
0.54
0.54
0.51
0.43
0.29
0.12
0.03
0.09
0.30
0.60
0.83
0.82
0.46
-0.19
-0.94
-1.50
-1.64
-1.35
-0.79
-0.25
0.03
-0.03
-0.29
-0.52
-0.54
-0.27
0.17
0.62
0.89
0.92
0.71
0.37
0.03
-0.23
-0.36
-0.36
-0.27
-0.14
0.02
0.22
0.46
0.70
0.84
0.80
0.56
0.22
-0.07
-0.17
-0.07
0.09
0.13
-0.03
-0.36
-0.68
-0.83
-0.74
-0.49
-0.22
-0.07
-0.09
-0.23
-0.40
-0.50
-0.50
-0.37
-0.16
0.11
0.37
0.57
0.68
0.69
0.63
0.53
0.42
0.31
0.19
0.06
-0.07
-0.17
-0.23
-0.22
-0.12
0.08
0.35
0.60
0.74
0.65
0.33
-0.12
-0.48
-0.56
-0.27
0.33
1.02
1.56
1.77
1.60
1.15
0.55
-0.06
-0.58
-0.97
-1.21
-1.28
-1.17
-0.92
-0.60
-0.28
-0.05
0.06
0.07
0.04
0.02
0.01
-0.00
-0.07
-0.21
-0.39
-0.57
-0.69
-0.75
-0.75
-0.69
-0.59
-0.46
-0.31
-0.21
-0.17
-0.21
-0.29
-0.35
-0.33
-0.25
-0.13
-0.02
0.08
0.21
0.38
0.56
0.68
0.67
0.52
0.32
0.17
0.12
0.16
0.20
0.17
0.07
-0.00
0.04
0.24
0.54
0.80
0.87
0.69
0.32
-0.13
-0.48
-0.64
-0.56
-0.31
0.01
0.29
0.48
0.58
0.63
0.66
0.65
0.55
0.33
0.01
-0.31
-0.49
-0.46
-0.24
0.08
0.35
0.49
0.47
0.32
0.10
-0.16
-0.44
-0.71
-0.96
-1.14
-1.23
-1.24
-1.17
-1.07
-0.91
-0.69
-0.36
0.09
0.61
1.08
1.37
1.39
1.13
0.68
0.21
-0.12
-0.22
-0.12
0.09
0.27
0.33
0.24
0.05
-0.18
-0.36
-0.46
-0.44
-0.34
-0.19
-0.04
0.06
0.11
0.11
0.10
0.11
0.15
0.18
0.20
0.22
0.26
0.32
0.38
0.39
0.31
0.16
-0.01
-0.13
-0.18
-0.20
-0.26
-0.41
-0.64
-0.85
-0.94
-0.86
-0.64
-0.40
-0.25
-0.23
-0.30
-0.34
-0.28
-0.10
0.16
0.42
0.63
0.74
0.79
0.79
0.75
0.66
0.49
0.27
0.02
-0.20
-0.32
-0.31
-0.17
0.05
0.26
0.40
0.43
0.33
0.16
-0.01
-0.10
-0.06
0.08
0.29
0.49
0.62
0.63
0.52
0.32
0.10
-0.10
-0.24
-0.29
-0.29
-0.27
-0.27
-0.28
-0.31
-0.33
-0.35
-0.37
-0.41
-0.47
-0.48
-0.39
-0.16
0.16
0.45
0.57
0.44
0.08
-0.38
-0.78
-1.04
-1.14
-1.16
-1.16
-1.16
-1.16
-1.11
-1.01
-0.87
-0.75
-0.69
-0.69
-0.77
-0.91
-1.09
-1.26
-1.38
-1.43
-1.43
-1.46
-1.59
-1.89
-2.34
-2.87
-3.37
-3.82
-4.24
-4.67
-5.09
-5.43
-5.59
-5.53
-5.33
-5.16
-5.21
-5.54
-6.01
-6.39
-6.44
-6.08
-5.38
-4.52
-3.62
-2.73
-1.74
-0.56
0.80
2.22
3.50
4.46
5.08
5.48
5.84
6.31
6.92
7.60
8.18
8.54
8.66
8.55
8.26
7.86
7.34
6.73
6.06
5.42
4.85
4.38
4.01
3.70
3.39
3.04
2.66
2.25
1.80
1.32
0.82
0.36
-0.01
-0.22
-0.28
-0.25
-0.26
-0.41
-0.71
-1.11
-1.48
-1.70
-1.72
-1.58
-1.37
-1.18
-1.03
-0.88
-0.66
-0.38
-0.08
0.12
0.15
-0.01
-0.27
-0.53
-0.68
-0.70
-0.62
-0.51
-0.40
-0.33
-0.26
-0.18
-0.08
0.03
0.13
0.19
0.17
0.07
-0.09
-0.26
-0.38
-0.40
-0.33
-0.18
-0.02
0.10
0.14
0.16
0.21
0.35
0.59
0.86
1.05
1.08
0.93
0.68
0.45
0.31
0.27
0.24
0.12
-0.11
-0.40
-0.63
-0.71
-0.63
-0.44
-0.22
-0.04
0.07
0.09
-0.01
-0.25
-0.60
-0.99
-1.30
-1.43
-1.36
-1.17
-1.00
-0.99
-1.17
-1.49
-1.84
-2.10
-2.21
-2.16
-1.97
-1.71
-1.44
-1.24
-1.17
-1.30
-1.65
-2.20
-2.84
-3.43
-3.79
-3.83
-3.56
-3.16
-2.84
-2.79
-3.05
-3.54
-4.06
-4.41
-4.51
-4.40
-4.17
-3.91
-3.63
-3.31
-2.93
-2.55
-2.25
-2.08
-1.97
-1.71
-1.01
0.27
2.08
4.16
6.12
7.65
8.61
9.06
9.24
9.35
9.54
9.79
9.98
10.01
9.81
9.43
8.97
8.50
8.04
7.49
6.76
5.76
4.53
3.20
1.96
0.98
0.33
-0.03
-0.20
-0.32
-0.48
-0.73
-1.07
-1.47
-1.89
-2.28
-2.58
-2.77
-2.82
-2.71
-2.46
-2.11
-1.71
-1.36
-1.14
-1.06
-1.11
-1.22
-1.32
-1.36
-1.33
-1.27
-1.20
-1.15
-1.14
-1.14
-1.16
-1.21
-1.29
-1.37
-1.43
-1.42
-1.29
-1.08
-0.84
-0.67
-0.59
-0.58
-0.59
-0.56
-0.49
-0.41
-0.40
-0.46
-0.55
-0.55
-0.39
-0.08
0.30
0.60
0.72
0.61
0.34
-0.02
-0.37
-0.62
-0.74
-0.73
-0.61
-0.45
-0.33
-0.25
-0.22
-0.18
-0.12
-0.02
0.11
0.27
0.48
0.75
1.06
1.31
1.43
1.35
1.11
0.82
0.61
0.58
0.73
0.96
1.17
1.25
1.18
0.99
0.74
0.48
0.24
0.05
-0.12
-0.25
-0.32
-0.29
-0.10
0.29
0.86
1.52
2.13
2.57
2.80
2.89
2.96
3.14
3.47
3.86
4.14
4.17
3.90
3.43
2.91
2.47
2.14
1.85
1.47
0.97
0.39
-0.07
-0.22
0.03
0.60
1.24
1.66
1.68
1.34
0.83
0.40
0.22
0.28
0.45
0.58
0.63
0.70
0.93
1.38
1.96
2.47
2.72
2.59
2.14
1.54
0.96
0.50
0.13
-0.24
-0.67
-1.12
-1.47
-1.53
-1.20
-0.47
0.46
1.35
1.92
2.02
1.66
0.99
0.26
-0.33
-0.68
-0.82
-0.86
-0.94
-1.17
-1.50
-1.82
-2.00
-1.95
-1.71
-1.47
-1.42
-1.72
-2.34
-3.16
-3.96
-4.56
-4.90
-5.02
-5.07
-5.16
-5.37
-5.65
-5.95
-6.17
-6.25
-6.17
-5.96
-5.65
-5.25
-4.78
-4.21
-3.53
-2.78
-2.04
-1.41
-0.96
-0.68
-0.48
-0.22
0.15
0.62
1.09
1.42
1.54
1.49
1.35
1.21
1.13
1.07
0.98
0.80
0.55
0.33
0.26
0.44
0.91
1.59
2.29
2.78
2.85
2.45
1.66
0.67
-0.29
-1.09
-1.69
-2.13
-2.46
-2.72
-2.88
-2.92
-2.85
-2.74
-2.67
-2.75
-2.96
-3.25
-3.46
-3.49
-3.27
-2.87
-2.40
-1.99
-1.72
-1.56
-1.42
-1.21
-0.88
-0.47
-0.07
0.27
0.54
0.78
1.08
1.50
2.01
2.49
2.83
2.93
2.82
2.60
2.46
2.50
2.76
3.14
3.51
3.75
3.82
3.76
3.63
3.44
3.15
2.72
2.17
1.56
1.04
0.75
0.75
1.07
1.63
2.32
2.97
3.43
3.59
3.40
2.98
2.50
2.13
2.00
2.10
2.32
2.51
2.56
2.41
2.05
1.49
0.76
-0.05
-0.86
-1.54
-2.00
-2.21
-2.25
-2.23
-2.27
-2.43
-2.70
-3.06
-3.46
-3.90
-4.35
-4.79
-5.12
-5.31
-5.35
-5.29
-5.23
-5.26
-5.38
-5.55
-5.67
-5.67
-5.53
-5.31
-5.09
-4.95
-4.90
-4.87
-4.79
-4.59
-4.26
-3.84
-3.39
-2.98
-2.63
-2.29
-1.93
-1.48
-0.96
-0.41
0.11
0.56
0.92
1.25
1.60
1.97
2.38
2.78
3.15
3.46
3.76
4.10
4.53
5.02
5.49
5.82
5.85
5.52
4.83
3.90
2.90
2.01
1.39
1.08
1.09
1.30
1.60
1.85
1.94
1.83
1.57
1.23
0.93
0.74
0.70
0.77
0.92
1.09
1.24
1.31
1.27
1.11
0.90
0.70
0.60
0.62
0.70
0.75
0.70
0.58
0.47
0.48
0.62
0.81
0.92
0.81
0.43
-0.11
-0.66
-1.08
-1.31
-1.38
-1.38
-1.34
-1.27
-1.12
-0.87
-0.57
-0.31
-0.15
-0.12
-0.15
-0.14
0.03
0.34
0.70
0.94
0.92
0.65
0.22
-0.19
-0.41
-0.38
-0.13
0.18
0.39
0.39
0.17
-0.18
-0.53
-0.73
-0.74
-0.61
-0.43
-0.35
-0.43
-0.62
-0.81
-0.86
-0.74
-0.51
-0.31
-0.25
-0.33
-0.46
-0.52
-0.46
-0.34
-0.26
-0.34
-0.56
-0.82
-1.01
-1.04
-0.92
-0.73
-0.54
-0.41
-0.32
-0.25
-0.19
-0.15
-0.14
-0.19
-0.26
-0.31
-0.28
-0.15
0.06
0.28
0.40
0.39
0.26
0.11
0.04
0.12
0.35
0.63
0.88
1.02
1.04
0.99
0.93
0.89
0.87
0.87
0.86
0.83
0.76
0.62
0.42
0.17
-0.03
-0.14
-0.11
0.06
0.32
0.60
0.82
0.92
0.88
0.74
0.57
0.43
0.39
0.44
0.56
0.69
0.76
0.76
0.72
0.67
0.65
0.65
0.66
0.63
0.57
0.48
0.36
0.22
0.04
-0.14
-0.30
-0.38
-0.37
-0.28
-0.18
-0.14
-0.23
-0.42
-0.64
-0.77
-0.72
-0.51
-0.22
0.04
0.15
0.07
-0.17
-0.47
-0.72
-0.85
-0.83
-0.68
-0.47
-0.24
-0.04
0.12
0.26
0.38
0.49
0.55
0.55
0.47
0.34
0.20
0.10
0.08
0.13
0.20
0.22
0.13
-0.10
-0.42
-0.72
-0.88
-0.83
-0.57
-0.20
0.13
0.31
0.29
0.08
-0.22
-0.53
-0.77
-0.87
-0.82
-0.62
-0.37
-0.19
-0.18
-0.32
-0.52
-0.61
-0.45
-0.03
0.53
1.00
1.19
1.03
0.64
0.18
-0.17
-0.35
-0.38
-0.36
-0.33
-0.26
-0.13
0.11
0.40
0.63
0.73
0.65
0.48
0.31
0.25
0.31
0.42
0.49
0.44
0.27
0.06
-0.11
-0.22
-0.29
-0.42
-0.64
-0.93
-1.19
-1.28
-1.13
-0.76
-0.33
0.01
0.13
0.01
-0.23
-0.46
-0.60
-0.64
-0.65
-0.70
-0.81
-0.95
-1.05
-1.05
-0.91
-0.63
-0.25
0.18
0.61
0.92
1.05
0.92
0.58
0.11
-0.32
-0.58
-0.56
-0.26
0.25
0.84
1.34
1.65
1.69
1.46
1.06
0.61
0.24
0.07
0.09
0.23
0.37
0.41
0.31
0.12
-0.08
-0.20
-0.24
-0.20
-0.07
0.13
0.41
0.73
0.99
1.06
0.91
0.58
0.23
0.02
0.00
0.10
0.18
0.12
-0.06
-0.28
-0.41
-0.41
-0.32
-0.27
-0.31
-0.42
-0.53
-0.52
-0.34
-0.05
0.24
0.40
0.35
0.12
-0.18
-0.42
-0.47
-0.30
0.00
0.30
0.47
0.45
0.27
0.03
-0.21
-0.41
-0.61
-0.81
-0.99
-1.08
-1.01
-0.76
-0.37
0.03
0.36
0.53
0.55
0.47
0.35
0.23
0.14
0.08
0.07
0.11
0.23
0.42
0.64
0.82
0.90
0.86
0.68
0.43
0.19
0.07
0.14
0.39
0.70
0.91
0.88
0.56
0.06
-0.44
-0.76
-0.81
-0.68
-0.51
-0.41
-0.41
-0.42
-0.31
-0.05
0.29
0.56
0.64
0.48
0.18
-0.12
-0.28
-0.24
-0.00
0.36
0.74
1.04
1.21
1.24
1.14
0.96
0.76
0.59
0.45
0.34
0.24
0.17
0.12
0.12
0.15
0.18
0.14
0.02
-0.20
-0.46
-0.70
-0.85
-0.87
-0.75
-0.53
-0.26
-0.02
0.15
0.21
0.20
0.13
0.04
-0.06
-0.15
-0.22
-0.26
-0.25
-0.19
-0.09
0.01
0.10
0.15
0.16
0.13
0.02
-0.16
-0.41
-0.67
-0.88
-0.96
-0.93
-0.82
-0.75
-0.77
-0.85
-0.90
-0.81
-0.52
-0.09
0.35
0.64
0.73
0.64
0.49
0.38
0.36
0.40
0.43
0.40
0.30
0.19
0.11
0.09
0.11
0.16
0.23
0.29
0.36
0.40
0.41
0.38
0.29
0.14
-0.08
-0.32
-0.52
-0.59
-0.47
-0.15
0.24
0.55
0.63
0.44
0.09
-0.25
-0.39
-0.26
0.07
0.44
0.69
0.74
0.64
0.50
0.39
0.33
0.27
0.12
-0.15
-0.48
-0.77
-0.88
-0.77
-0.46
-0.06
0.28
0.45
0.40
0.19
-0.06
-0.24
-0.28
-0.19
-0.05
0.04
0.04
-0.06
-0.19
-0.24
-0.17
-0.00
0.20
0.33
0.32
0.16
-0.07
-0.27
-0.33
-0.21
0.06
0.38
0.61
0.65
0.52
0.33
0.19
0.19
0.29
0.40
0.41
0.29
0.08
-0.13
-0.24
-0.21
-0.06
0.11
0.22
0.18
-0.07
-0.49
-1.00
-1.45
-1.71
-1.73
-1.52
-1.19
-0.82
-0.46
-0.07
0.34
0.72
0.97
0.97
0.68
0.21
-0.29
-0.66
-0.81
-0.80
-0.67
-0.51
-0.32
-0.09
0.14
0.33
0.38
0.26
-0.02
-0.37
-0.70
-0.93
-1.07
-1.14
-1.16
-1.15
-1.12
-1.06
-1.01
-0.98
-1.00
-1.05
-1.06
-0.99
-0.82
-0.58
-0.34
-0.16
-0.05
0.01
0.07
0.17
0.28
0.37
0.42
0.44
0.44
0.42
0.33
0.13
-0.16
-0.45
-0.61
-0.48
-0.05
0.58
1.21
1.62
1.71
1.51
1.14
0.78
0.54
0.46
0.50
0.57
0.59
0.53
0.42
0.28
0.16
0.09
0.05
0.06
0.07
0.07
0.03
-0.09
-0.29
-0.55
-0.79
-0.90
-0.84
-0.61
-0.31
-0.07
0.06
0.09
0.11
0.19
0.33
0.47
0.54
0.52
0.49
0.53
0.69
0.89
1.00
0.91
0.60
0.21
-0.12
-0.26
-0.22
-0.06
0.09
0.19
0.25
0.31
0.40
0.48
0.48
0.38
0.19
-0.00
-0.09
-0.01
0.19
0.40
0.47
0.34
0.06
-0.25
-0.42
-0.40
-0.22
0.01
0.14
0.11
-0.08
-0.32
-0.51
-0.59
-0.53
-0.36
-0.13
0.12
0.31
0.42
0.41
0.30
0.12
-0.03
-0.12
-0.14
-0.10
-0.05
0.02
0.13
0.30
0.55
0.81
1.01
1.07
0.98
0.76
0.48
0.22
0.00
-0.16
-0.26
-0.32
-0.35
-0.36
-0.39
-0.43
-0.45
-0.39
-0.21
0.09
0.40
0.60
0.59
0.38
0.03
-0.34
-0.60
-0.74
-0.77
-0.74
-0.68
-0.59
-0.44
-0.25
-0.09
-0.04
-0.13
-0.35
-0.59
-0.76
-0.77
-0.63
-0.43
-0.26
-0.20
-0.26
-0.39
-0.52
-0.58
-0.55
-0.42
-0.21
0.03
0.25
0.39
0.41
0.29
0.07
-0.17
-0.33
-0.36
-0.28
-0.16
-0.10
-0.14
-0.28
-0.47
-0.61
-0.64
-0.56
-0.36
-0.06
0.29
0.65
0.93
1.09
1.04
0.80
0.43
0.06
-0.19
-0.23
-0.06
0.21
0.48
0.65
0.69
0.59
0.41
0.18
-0.09
-0.37
-0.61
-0.77
-0.77
-0.58
-0.21
0.21
0.58
0.78
0.79
0.65
0.45
0.28
0.18
0.14
0.14
0.14
0.14
0.13
0.12
0.13
0.13
0.14
0.15
0.15
0.13
0.07
-0.01
-0.10
-0.17
-0.19
-0.15
-0.08
-0.02
0.02
0.02
0.01
-0.03
-0.11
-0.26
-0.46
-0.66
-0.78
-0.76
-0.59
-0.33
-0.07
0.11
0.19
0.19
0.17
0.15
0.16
0.14
0.08
0.02
0.01
0.11
0.32
0.55
0.68
0.58
0.25
-0.25
-0.74
-1.06
-1.12
-0.90
-0.51
-0.09
0.19
0.24
0.08
-0.23
-0.53
-0.65
-0.52
-0.16
0.29
0.66
0.81
0.75
0.57
0.41
0.36
0.43
0.52
0.57
0.55
0.47
0.41
0.37
0.33
0.24
0.07
-0.16
-0.37
-0.47
-0.41
-0.23
0.02
0.25
0.38
0.35
0.13
-0.26
-0.72
-1.13
-1.32
-1.24
-0.90
-0.46
-0.07
0.15
0.21
0.17
0.13
0.13
0.11
-0.02
-0.28
-0.61
-0.86
-0.91
-0.69
-0.29
0.16
0.50
0.68
0.69
0.61
0.51
0.44
0.42
0.42
0.42
0.41
0.40
0.38
0.38
0.39
0.42
0.45
0.45
0.41
0.35
0.29
0.23
0.17
0.07
-0.07
-0.23
-0.36
-0.41
-0.38
-0.32
-0.30
-0.34
-0.40
-0.44
-0.38
-0.24
-0.05
0.13
0.25
0.33
0.38
0.39
0.32
0.15
-0.11
-0.39
-0.58
-0.61
-0.46
-0.19
0.10
0.32
0.43
0.44
0.40
0.33
0.25
0.16
0.08
0.01
-0.01
0.03
0.09
0.12
0.05
-0.14
-0.44
-0.77
-1.02
-1.11
-1.03
-0.79
-0.49
-0.23
-0.12
-0.20
-0.45
-0.78
-1.05
-1.13
-0.96
-0.58
-0.11
0.32
0.64
0.83
0.91
0.92
0.88
0.78
0.65
0.53
0.47
0.52
0.66
0.83
0.95
0.94
0.80
0.55
0.22
-0.15
-0.53
-0.87
-1.08
-1.08
-0.83
-0.38
0.14
0.59
0.87
0.94
0.83
0.62
0.36
0.09
-0.21
-0.51
-0.79
-0.97
-0.97
-0.75
-0.38
0.04
0.36
0.47
0.36
0.11
-0.17
-0.35
-0.36
-0.23
-0.04
0.12
0.23
0.28
0.34
0.42
0.52
0.58
0.56
0.46
0.34
0.27
0.31
0.42
0.50
0.45
0.19
-0.20
-0.61
-0.88
-0.94
-0.81
-0.58
-0.36
-0.23
-0.19
-0.18
-0.16
-0.12
-0.08
-0.12
-0.25
-0.47
-0.71
-0.86
-0.83
-0.58
-0.14
0.35
0.74
0.90
0.80
0.53
0.28
0.21
0.38
0.74
1.14
1.41
1.46
1.27
0.89
0.42
-0.08
-0.57
-0.99
-1.32
-1.48
-1.45
-1.25
-0.97
-0.71
-0.57
-0.57
-0.65
-0.70
-0.59
-0.30
0.12
0.53
0.80
0.85
0.72
0.49
0.25
0.05
-0.08
-0.15
-0.18
-0.15
-0.08
0.02
0.12
0.19
0.22
0.20
0.16
0.10
0.06
0.05
0.11
0.25
0.44
0.64
0.75
0.71
0.52
0.22
-0.09
-0.34
-0.51
-0.63
-0.71
-0.74
-0.67
-0.48
-0.15
0.22
0.51
0.60
0.52
0.34
0.18
0.10
0.06
0.00
-0.13
-0.29
-0.39
-0.36
-0.19
0.01
0.15
0.16
0.07
-0.06
-0.14
-0.14
-0.08
0.00
0.08
0.14
0.19
0.23
0.27
0.29
0.27
0.21
0.09
-0.10
-0.32
-0.50
-0.57
-0.49
-0.24
0.12
0.48
0.77
0.94
0.96
0.89
0.76
0.60
0.42
0.19
-0.12
-0.50
-0.89
-1.19
-1.29
-1.16
-0.84
-0.44
-0.13
-0.01
-0.05
-0.16
-0.20
-0.13
0.02
0.11
0.03
-0.24
-0.60
-0.86
-0.88
-0.60
-0.14
0.31
0.59
0.63
0.47
0.21
-0.02
-0.18
-0.25
-0.26
-0.20
-0.08
0.13
0.39
0.64
0.77
0.72
0.49
0.18
-0.07
-0.13
0.02
0.30
0.57
0.73
0.71
0.58
0.39
0.22
0.06
-0.09
-0.25
-0.38
-0.41
-0.31
-0.10
0.15
0.36
0.48
0.49
0.41
0.27
0.07
-0.16
-0.37
-0.48
-0.43
-0.23
0.05
0.25
0.26
0.04
-0.32
-0.68
-0.89
-0.90
-0.75
-0.54
-0.37
-0.30
-0.32
-0.37
-0.39
-0.35
-0.21
-0.00
0.27
0.55
0.78
0.91
0.91
0.76
0.50
0.19
-0.10
-0.32
-0.42
-0.38
-0.25
-0.08
0.05
0.09
0.03
-0.11
-0.25
-0.32
-0.29
-0.18
-0.03
0.09
0.16
0.23
0.32
0.46
0.60
0.66
0.59
0.37
0.05
-0.29
-0.56
-0.67
-0.58
-0.29
0.11
0.51
0.76
0.73
0.43
-0.03
-0.47
-0.73
-0.74
-0.54
-0.27
-0.05
0.03
-0.05
-0.23
-0.42
-0.55
-0.54
-0.39
-0.14
0.10
0.26
0.30
0.28
0.32
0.47
0.69
0.88
0.89
0.71
0.40
0.11
-0.03
-0.03
0.04
0.02
-0.16
-0.48
-0.82
-1.07
-1.15
-1.06
-0.88
-0.68
-0.50
-0.33
-0.14
0.09
0.37
0.65
0.88
0.98
0.91
0.67
0.32
-0.08
-0.38
-0.49
-0.36
-0.04
0.35
0.64
0.70
0.47
0.03
-0.44
-0.74
-0.78
-0.55
-0.21
0.07
0.18
0.10
-0.05
-0.15
-0.14
-0.05
0.04
0.03
-0.10
-0.27
-0.36
-0.29
-0.09
0.15
0.31
0.33
0.24
0.14
0.09
0.13
0.20
0.20
0.11
-0.05
-0.19
-0.21
-0.06
0.23
0.52
0.69
0.65
0.39
-0.01
-0.42
-0.71
-0.79
-0.66
-0.36
0.00
0.31
0.48
0.49
0.37
0.19
0.02
-0.08
-0.11
-0.08
-0.03
0.02
0.10
0.19
0.29
0.36
0.33
0.24
0.13
0.11
0.20
0.38
0.53
0.51
0.27
-0.15
-0.59
-0.87
-0.85
-0.57
-0.14
0.28
0.54
0.60
0.50
0.34
0.21
0.17
0.22
0.32
0.39
0.38
0.27
0.09
-0.10
-0.28
-0.41
-0.53
-0.66
-0.78
-0.85
-0.77
-0.52
-0.11
0.31
0.56
0.54
0.25
-0.19
-0.60
-0.82
-0.83
-0.68
-0.47
-0.30
-0.18
-0.09
0.02
0.15
0.24
0.26
0.22
0.17
0.14
0.14
0.16
0.13
0.04
-0.08
-0.18
-0.21
-0.17
-0.08
0.00
0.05
0.06
0.03
-0.06
-0.20
-0.40
-0.59
-0.70
-0.66
-0.44
-0.11
0.24
0.50
0.61
0.59
0.46
0.30
0.14
-0.01
-0.14
-0.25
-0.33
-0.34
-0.28
-0.17
-0.04
0.07
0.14
0.18
0.24
0.34
0.46
0.56
0.57
0.44
0.21
-0.07
-0.28
-0.33
-0.20
0.05
0.28
0.43
0.45
0.41
0.39
0.45
0.57
0.72
0.80
0.81
0.76
0.67
0.60
0.54
0.45
0.31
0.08
-0.20
-0.50
-0.74
-0.88
-0.85
-0.65
-0.33
0.01
0.22
0.22
0.00
-0.34
-0.67
-0.86
-0.85
-0.68
-0.43
-0.19
-0.04
-0.01
-0.08
-0.18
-0.25
-0.23
-0.15
-0.04
0.01
-0.04
-0.17
-0.30
-0.33
-0.20
0.04
0.29
0.42
0.38
0.18
-0.06
-0.21
-0.21
-0.05
0.19
0.41
0.55
0.59
0.53
0.39
0.20
-0.03
-0.25
-0.41
-0.45
-0.37
-0.19
-0.02
0.07
0.04
-0.07
-0.17
-0.19
-0.10
0.06
0.23
0.36
0.41
0.38
0.29
0.14
-0.01
-0.13
-0.14
-0.02
0.21
0.42
0.49
0.35
0.03
-0.32
-0.56
-0.58
-0.44
-0.23
-0.11
-0.12
-0.24
-0.39
-0.45
-0.38
-0.22
0.01
0.22
0.38
0.46
0.45
0.34
0.20
0.08
0.06
0.17
0.38
0.57
0.61
0.42
0.03
-0.43
-0.80
-0.96
-0.89
-0.66
-0.36
-0.08
0.10
0.16
0.09
-0.08
-0.31
-0.48
-0.52
-0.37
-0.05
0.33
0.64
0.75
0.65
0.38
0.08
-0.14
-0.21
-0.16
-0.07
-0.02
-0.05
-0.13
-0.17
-0.08
0.14
0.40
0.61
0.67
0.56
0.36
0.16
0.05
0.04
0.08
0.10
0.06
-0.03
-0.11
-0.12
0.01
0.26
0.53
0.69
0.63
0.33
-0.11
-0.53
-0.78
-0.76
-0.54
-0.25
-0.03
0.04
-0.04
-0.19
-0.34
-0.46
-0.56
-0.65
-0.74
-0.80
-0.79
-0.69
-0.50
-0.27
-0.06
0.10
0.19
0.22
0.20
0.16
0.14
0.15
0.23
0.38
0.57
0.74
0.82
0.74
0.50
0.16
-0.21
-0.49
-0.62
-0.62
-0.50
-0.32
-0.12
0.10
0.34
0.59
0.83
0.99
1.05
1.00
0.82
0.54
0.18
-0.22
-0.63
-0.96
-1.14
-1.09
-0.83
-0.41
0.02
0.36
0.52
0.51
0.36
0.17
-0.01
-0.10
-0.08
0.04
0.22
0.39
0.47
0.41
0.21
-0.06
-0.32
-0.49
-0.50
-0.38
-0.17
0.05
0.22
0.32
0.32
0.24
0.05
-0.24
-0.58
-0.87
-0.99
-0.90
-0.62
-0.28
-0.04
0.02
-0.09
-0.23
-0.27
-0.13
0.11
0.34
0.43
0.34
0.14
-0.06
-0.16
-0.13
-0.02
0.12
0.25
0.35
0.42
0.45
0.44
0.39
0.30
0.19
0.07
-0.06
-0.22
-0.39
-0.52
-0.54
-0.40
-0.12
0.19
0.39
0.38
0.15
-0.17
-0.42
-0.47
-0.29
0.02
0.29
0.41
0.36
0.23
0.12
0.13
0.20
0.24
0.17
-0.06
-0.36
-0.63
-0.76
-0.73
-0.60
-0.49
-0.44
-0.47
-0.47
-0.36
-0.07
0.34
0.79
1.15
1.35
1.36
1.22
0.93
0.53
0.07
-0.37
-0.66
-0.72
-0.55
-0.21
0.14
0.39
0.48
0.45
0.37
0.31
0.28
0.24
0.16
0.04
-0.07
-0.10
-0.07
-0.01
-0.01
-0.11
-0.30
-0.49
-0.58
-0.54
-0.39
-0.24
-0.22
-0.37
-0.63
-0.90
-1.04
-1.02
-0.84
-0.55
-0.21
0.14
0.49
0.78
0.96
0.95
0.75
0.43
0.15
0.04
0.17
0.48
0.83
1.02
0.93
0.54
-0.05
-0.64
-1.06
-1.20
-1.06
-0.71
-0.32
0.00
0.17
0.20
0.14
0.07
0.04
0.08
0.16
0.26
0.37
0.48
0.56
0.58
0.53
0.37
0.12
-0.19
-0.52
-0.79
-0.96
-0.99
-0.88
-0.66
-0.38
-0.07
0.22
0.46
0.60
0.61
0.45
0.15
-0.18
-0.42
-0.45
-0.22
0.20
0.65
0.98
1.08
0.94
0.62
0.25
-0.09
-0.35
-0.49
-0.53
-0.46
-0.31
-0.12
0.06
0.20
0.27
0.25
0.19
0.13
0.11
0.16
0.26
0.39
0.51
0.56
0.53
0.39
0.17
-0.09
-0.33
-0.48
-0.51
-0.43
-0.27
-0.09
0.08
0.20
0.23
0.16
0.01
-0.19
-0.36
-0.45
-0.43
-0.30
-0.13
-0.01
0.02
-0.07
-0.24
-0.42
-0.58
-0.67
-0.69
-0.64
-0.50
-0.25
0.08
0.46
0.78
0.92
0.82
0.47
-0.02
-0.51
-0.86
-0.99
-0.91
-0.71
-0.47
-0.25
-0.04
0.18
0.40
0.57
0.62
0.51
0.28
0.03
-0.10
-0.06
0.10
0.26
0.30
0.20
0.05
-0.04
0.00
0.14
0.27
0.28
0.12
-0.18
-0.54
-0.84
-1.01
-1.00
-0.82
-0.49
-0.08
0.32
0.60
0.71
0.66
0.52
0.35
0.19
0.05
-0.09
-0.19
-0.21
-0.10
0.13
0.41
0.64
0.74
0.67
0.46
0.17
-0.12
-0.35
-0.49
-0.53
-0.44
-0.26
-0.02
0.24
0.45
0.58
0.64
0.64
0.59
0.50
0.38
0.23
0.09
-0.04
-0.14
-0.22
-0.25
-0.22
-0.09
0.11
0.31
0.38
0.25
-0.09
-0.51
-0.82
-0.89
-0.70
-0.37
-0.08
0.02
-0.06
-0.22
-0.35
-0.35
-0.27
-0.21
-0.22
-0.30
-0.37
-0.33
-0.15
0.10
0.27
0.25
0.01
-0.35
-0.67
-0.79
-0.64
-0.29
0.15
0.54
0.82
0.99
1.08
1.09
1.01
0.80
0.46
0.04
-0.35
-0.61
-0.65
-0.47
-0.16
0.17
0.39
0.47
0.43
0.30
0.13
-0.06
-0.24
-0.37
-0.39
-0.26
-0.00
0.28
0.46
0.46
0.26
-0.07
-0.39
-0.59
-0.61
-0.50
-0.31
-0.14
-0.01
0.03
0.01
-0.06
-0.12
-0.12
-0.03
0.14
0.33
0.46
0.51
0.45
0.31
0.11
-0.12
-0.32
-0.42
-0.36
-0.10
0.31
0.74
1.02
1.04
0.77
0.33
-0.11
-0.38
-0.42
-0.26
-0.02
0.15
0.13
-0.08
-0.40
-0.68
-0.78
-0.64
-0.30
0.09
0.37
0.40
0.19
-0.16
-0.50
-0.67
-0.65
-0.47
-0.27
-0.13
-0.10
-0.15
-0.18
-0.12
0.00
0.14
0.18
0.08
-0.12
-0.33
-0.47
-0.49
-0.42
-0.31
-0.21
-0.14
-0.05
0.05
0.14
0.18
0.13
0.05
-0.00
0.06
0.25
0.47
0.60
0.55
0.28
-0.14
-0.60
-0.98
-1.22
-1.33
-1.35
-1.35
-1.37
-1.40
-1.39
-1.33
-1.18
-0.95
-0.66
-0.34
0.03
0.45
0.94
1.48
2.01
2.39
2.54
2.39
2.00
1.48
0.98
0.63
0.49
0.54
0.71
0.88
0.97
0.93
0.77
0.55
0.32
0.10
-0.12
-0.37
-0.63
-0.85
-0.94
-0.86
-0.61
-0.30
-0.05
0.09
0.10
0.06
0.00
-0.03
-0.08
-0.17
-0.27
-0.32
-0.25
-0.03
0.27
0.54
0.69
0.71
0.64
0.58
0.58
